Data from pine_FLMT105791__136__17-22-35-075.txt Node

Date: Mon Mar 20 17:22:35 GMT 2023
User: antho
Spectrometer: FLMT10579
Trigger mode: 0
Integration Time (sec): 1.000000E-1
Scans to average: 10
Electric dark correction enabled: true
Nonlinearity correction enabled: false
Boxcar width: 0
XAxis mode: Wavelengths
Number of Pixels in Spectrum: 3648
>>>>>Begin Spectral Data<<<<<
345.248	-167.59
345.464	-167.59
345.681	-167.59
345.898	-158.68
346.114	-162.55
346.331	-14.72
346.548	34.29
346.764	-1.94
346.981	-24.8
347.197	-14.92
347.414	19.57
347.631	-37.78
347.847	44.37
348.064	16.66
348.28	41.66
348.497	-50.76
348.713	-11.62
348.93	2.91
349.146	-0.58
349.363	-4.65
349.579	21.89
349.796	8.14
350.012	-2.32
350.229	24.22
350.445	6.78
350.661	6.2
350.878	-15.11
351.094	25.38
351.311	26.74
351.527	13.37
351.743	-12.01
351.96	22.09
352.176	38.56
352.392	18.02
352.609	32.55
352.825	-14.53
353.041	7.36
353.257	-25.38
353.474	37.2
353.69	37.97
353.906	24.61
354.122	-20.54
354.339	42.24
354.555	14.14
354.771	-2.32
354.987	62
355.203	69.56
355.42	-21.7
355.636	-19.96
355.852	-18.21
356.068	21.7
356.284	-13.76
356.5	73.82
356.716	18.6
356.932	-8.14
357.148	13.37
357.364	14.34
357.58	32.94
357.796	71.88
358.012	48.63
358.228	3.29
358.444	-53.47
358.66	69.75
358.876	24.41
359.092	-25.96
359.308	4.65
359.524	22.86
359.74	-4.26
359.956	-12.01
360.172	-6.97
360.388	55.22
360.604	-12.98
360.819	68.97
361.035	12.01
361.251	14.53
361.467	-21.31
361.683	14.14
361.898	16.66
362.114	43.79
362.33	13.17
362.546	34.1
362.762	31.19
362.977	48.24
363.193	5.62
363.409	54.44
363.624	-10.66
363.84	2.32
364.056	0.39
364.271	61.61
364.487	20.54
364.703	-12.01
364.918	-29.06
365.134	-1.36
365.35	7.17
365.565	131.75
365.781	33.13
365.996	38.36
366.212	87.57
366.427	31.58
366.643	-26.16
366.858	-4.65
367.074	-13.76
367.289	43.01
367.505	101.72
367.72	-14.14
367.936	14.53
368.151	70.52
368.367	33.71
368.582	25.77
368.798	9.88
369.013	49.02
369.228	-1.94
369.444	14.34
369.659	84.09
369.874	33.91
370.09	84.67
370.305	-55.41
370.52	-1.55
370.736	74.98
370.951	10.46
371.166	55.8
371.381	71.49
371.597	31.39
371.812	-7.75
372.027	-9.88
372.242	19.57
372.458	72.46
372.673	18.41
372.888	11.43
373.103	55.61
373.318	98.04
373.533	45.53
373.749	13.76
373.964	-41.66
374.179	85.44
374.394	9.11
374.609	88.93
374.824	-16.47
375.039	57.35
375.254	-21.89
375.469	60.45
375.684	31.39
375.899	71.69
376.114	20.54
376.329	18.6
376.544	68.2
376.759	46.5
376.974	-13.76
377.189	12.4
377.404	8.14
377.619	53.47
377.834	-43.98
378.049	0.97
378.264	-11.62
378.478	30.61
378.693	-17.24
378.908	46.5
379.123	-3.49
379.338	77.5
379.553	25.96
379.767	54.83
379.982	38.75
380.197	62.97
380.412	21.7
380.626	35.84
380.841	102.69
381.056	27.12
381.271	103.46
381.485	26.74
381.7	-0.19
381.915	44.56
382.129	-6.2
382.344	43.98
382.559	18.79
382.773	68.01
382.988	-17.05
383.202	29.64
383.417	5.81
383.632	137.95
383.846	30.22
384.061	28.87
384.275	30.22
384.49	40.11
384.704	34.1
384.919	66.07
385.133	27.32
385.348	58.32
385.562	19.96
385.777	78.66
385.991	26.54
386.206	18.6
386.42	23.83
386.634	77.11
386.849	39.14
387.063	58.51
387.277	-6.01
387.492	24.22
387.706	2.52
387.92	-15.11
388.135	65.29
388.349	43.79
388.563	45.14
388.778	24.99
388.992	59.29
389.206	49.02
389.42	106.37
389.635	32.36
389.849	45.34
390.063	58.71
390.277	44.17
390.491	112.95
390.706	66.26
390.92	74.98
391.134	26.16
391.348	70.72
391.562	3.1
391.776	7.17
391.99	-0.58
392.205	68.39
392.419	-19.18
392.633	20.73
392.847	77.89
393.061	1.74
393.275	92.03
393.489	57.35
393.703	43.01
393.917	93.77
394.131	4.26
394.345	72.66
394.559	74.98
394.773	40.69
394.986	57.93
395.2	34.29
395.414	76.14
395.628	-4.46
395.842	40.3
396.056	16.86
396.27	-4.84
396.484	23.25
396.697	41.85
396.911	74.98
397.125	89.9
397.339	102.3
397.553	48.63
397.766	96.1
397.98	62
398.194	98.42
398.408	20.34
398.621	81.96
398.835	87.57
399.049	49.79
399.262	108.69
399.476	73.62
399.69	88.35
399.903	124
400.117	74.59
400.331	65.1
400.544	16.08
400.758	192.2
400.971	77.11
401.185	108.11
401.398	23.06
401.612	98.81
401.826	100.36
402.039	102.69
402.253	48.05
402.466	106.17
402.68	51.15
402.893	103.27
403.106	63.74
403.32	54.44
403.533	95.71
403.747	74.79
403.96	87.57
404.174	109.66
404.387	38.94
404.6	59.87
404.814	87.38
405.027	78.27
405.24	69.94
405.454	52.12
405.667	99.2
405.88	18.79
406.094	84.67
406.307	111.99
406.52	74.4
406.733	61.42
406.947	42.24
407.16	149.57
407.373	124
407.586	66.07
407.799	48.24
408.012	111.4
408.226	64.13
408.439	173.4
408.652	49.02
408.865	103.07
409.078	118.77
409.291	83.12
409.504	79.63
409.717	80.41
409.93	94.55
410.143	101.14
410.357	29.45
410.57	41.07
410.783	74.01
410.996	78.27
411.209	95.13
411.421	114.31
411.634	96.49
411.847	52.7
412.06	92.8
412.273	73.04
412.486	82.34
412.699	165.27
412.912	81.76
413.125	108.5
413.338	92.22
413.55	112.18
413.763	93.39
413.976	125.94
414.189	76.92
414.402	92.61
414.615	140.08
414.827	42.43
415.04	103.65
415.253	119.35
415.466	129.04
415.678	145.7
415.891	111.4
416.104	100.36
416.316	81.76
416.529	97.45
416.742	124.97
416.954	133.88
417.167	102.1
417.38	81.76
417.592	153.25
417.805	97.45
418.017	49.02
418.23	109.08
418.442	63.55
418.655	84.47
418.868	116.25
419.08	134.46
419.293	169.92
419.505	135.24
419.718	129.62
419.93	141.63
420.142	109.85
420.355	139.3
420.567	171.47
420.78	153.06
420.992	106.95
421.205	191.03
421.417	114.12
421.629	112.18
421.842	93.39
422.054	72.27
422.266	145.7
422.479	133.3
422.691	98.62
422.903	165.46
423.115	133.49
423.328	106.75
423.54	155.19
423.752	138.72
423.964	105.59
424.177	132.91
424.389	131.55
424.601	242.57
424.813	152.09
425.025	175.15
425.238	166.62
425.45	116.83
425.662	146.28
425.874	422.95
426.086	131.17
426.298	168.75
426.51	170.11
426.722	145.31
426.934	138.92
427.146	179.02
427.358	113.15
427.57	156.94
427.782	147.44
427.994	145.31
428.206	136.59
428.418	85.44
428.63	147.25
428.842	174.95
429.054	170.3
429.266	181.15
429.478	114.5
429.69	143.57
429.902	83.7
430.114	172.44
430.325	159.07
430.537	94.35
430.749	159.65
430.961	91.84
431.173	148.99
431.384	152.48
431.596	101.52
431.808	153.06
432.02	188.32
432.231	192.39
432.443	197.43
432.655	190.26
432.867	135.82
433.078	188.71
433.29	257.68
433.502	205.37
433.713	219.32
433.925	210.99
434.136	231.33
434.348	148.8
434.56	111.4
434.771	259.43
434.983	127.49
435.194	167.98
435.406	213.51
435.617	254.78
435.829	270.86
436.04	253.62
436.252	214.28
436.463	282.29
436.675	243.54
436.886	221.84
437.098	204.4
437.309	274.73
437.521	244.9
437.732	262.53
437.943	220.48
438.155	218.74
438.366	186.77
438.578	252.45
438.789	220.87
439	244.9
439.211	212.35
439.423	218.74
439.634	271.25
439.845	253.42
440.057	265.63
440.268	283.06
440.479	226.88
440.69	238.89
440.902	242.77
441.113	223.78
441.324	232.88
441.535	251.29
441.746	302.63
441.957	207.5
442.168	244.7
442.38	264.66
442.591	267.76
442.802	222.23
443.013	245.87
443.224	289.26
443.435	281.13
443.646	246.45
443.857	259.82
444.068	269.11
444.279	236.37
444.49	325.11
444.701	256.13
444.912	367.93
445.123	322.98
445.334	279
445.545	295.27
445.756	263.88
445.967	250.52
446.178	296.43
446.388	324.53
446.599	319.49
446.81	318.13
447.021	279.38
447.232	326.46
447.443	349.52
447.653	269.89
447.864	374.9
448.075	306.51
448.286	358.63
448.496	296.05
448.707	350.68
448.918	272.41
449.129	415.2
449.339	281.13
449.55	334.21
449.761	305.93
449.971	369.28
450.182	307.09
450.393	345.06
450.603	288.88
450.814	369.28
451.024	351.26
451.235	392.53
451.446	399.12
451.656	396.21
451.867	358.43
452.077	384.78
452.288	389.63
452.498	376.64
452.709	331.31
452.919	381.29
453.13	340.8
453.34	346.42
453.55	294.69
453.761	368.31
453.971	368.31
454.182	388.85
454.392	357.66
454.602	413.65
454.813	370.83
455.023	408.42
455.233	355.53
455.444	363.66
455.654	310
455.864	361.34
456.075	387.11
456.285	352.62
456.495	356.88
456.705	375.87
456.916	412.29
457.126	414.23
457.336	375.87
457.546	340.03
457.756	376.84
457.967	388.27
458.177	369.48
458.387	390.59
458.597	344.68
458.807	335.18
459.017	360.56
459.227	345.26
459.437	367.93
459.647	382.84
459.857	373.93
460.068	357.85
460.278	432.44
460.488	406.09
460.698	470.22
460.908	399.51
461.117	348.55
461.327	359.98
461.537	397.18
461.747	411.13
461.957	408.81
462.167	489.21
462.377	423.34
462.587	392.14
462.797	461.12
463.007	417.91
463.216	473.71
463.426	473.32
463.636	444.26
463.846	373.35
464.056	377.61
464.265	463.25
464.475	380.52
464.685	419.66
464.895	417.33
465.104	417.72
465.314	447.56
465.524	395.24
465.733	388.08
465.943	481.85
466.153	478.17
466.362	479.52
466.572	430.89
466.782	407.84
466.991	418.69
467.201	486.69
467.41	387.69
467.62	443.29
467.829	407.45
468.039	451.24
468.249	437.48
468.458	465.38
468.668	467.32
468.877	468.48
469.086	518.27
469.296	515.17
469.505	448.52
469.715	549.85
469.924	483.98
470.134	488.24
470.343	526.02
470.552	467.12
470.762	462.28
470.971	449.49
471.18	487.66
471.39	479.14
471.599	427.79
471.808	502.19
472.018	458.79
472.227	522.54
472.436	517.89
472.645	495.22
472.855	491.34
473.064	554.31
473.273	525.25
473.482	537.45
473.691	557.02
473.901	543.46
474.11	505.1
474.319	610.5
474.528	552.37
474.737	607.4
474.946	561.29
475.155	536.49
475.364	609.53
475.573	554.7
475.783	583.18
475.992	552.37
476.201	606.82
476.41	540.75
476.619	551.99
476.828	577.56
477.037	534.16
477.245	549.47
477.454	613.6
477.663	590.93
477.872	584.92
478.081	669.98
478.29	576.2
478.499	680.44
478.708	615.15
478.917	651.38
479.125	598.29
479.334	620.38
479.543	628.13
479.752	648.67
479.961	653.9
480.169	676.18
480.378	609.72
480.587	779.45
480.796	688.77
481.004	655.45
481.213	682.77
481.422	691.1
481.63	695.94
481.839	724.42
482.048	730.04
482.256	687.22
482.465	720.16
482.674	711.25
482.882	749.03
483.091	780.61
483.299	719
483.508	729.65
483.716	722.68
483.925	759.3
484.134	704.08
484.342	726.16
484.551	773.63
484.759	762.59
484.967	780.61
485.176	793.59
485.384	782.55
485.593	804.05
485.801	767.43
486.01	725.78
486.218	706.6
486.426	651.57
486.635	650.8
486.843	686.45
487.051	706.4
487.26	676.37
487.468	713.96
487.676	759.1
487.885	719.96
488.093	756.39
488.301	806.96
488.509	791.65
488.717	802.89
488.926	804.44
489.134	743.99
489.342	795.91
489.55	766.27
489.758	803.86
489.967	783.71
490.175	919.33
490.383	825.56
490.591	906.16
490.799	810.06
491.007	881.55
491.215	868.57
491.423	826.91
491.631	847.26
491.839	857.14
492.047	873.03
492.255	781.96
492.463	775.96
492.671	813.54
492.879	876.32
493.087	853.65
493.295	859.85
493.503	886.78
493.711	929.99
493.919	931.54
494.127	903.06
494.334	942.97
494.542	869.34
494.75	931.54
494.958	893.95
495.166	959.05
495.374	946.65
495.581	942.19
495.789	938.51
495.997	993.34
496.205	917.39
496.412	934.06
496.62	942.77
496.828	941.42
497.035	920.88
497.243	962.73
497.451	971.25
497.658	966.22
497.866	957.69
498.074	1004.77
498.281	964.86
498.489	1011.36
498.696	977.65
498.904	946.46
499.112	952.66
499.319	1039.07
499.527	955.76
499.734	1004.19
499.942	957.5
500.149	959.63
500.357	991.6
500.564	953.82
500.771	990.44
500.979	981.33
501.186	931.73
501.394	994.7
501.601	966.02
501.808	992.95
502.016	962.92
502.223	955.95
502.43	966.02
502.638	977.07
502.845	942.97
503.052	1054.57
503.26	986.95
503.467	1062.7
503.674	1017.75
503.881	1042.94
504.089	1071.42
504.296	1048.56
504.503	941.03
504.71	1000.51
504.917	981.72
505.125	1038.68
505.332	1048.75
505.539	1060.77
505.746	1141.56
505.953	1083.43
506.16	1091.77
506.367	1153.18
506.574	1144.27
506.781	1131.1
506.988	1072
507.195	1078.2
507.402	1085.18
507.609	1121.99
507.816	1095.64
508.023	1084.98
508.23	1055.15
508.437	1036.74
508.644	1116.18
508.851	1132.84
509.058	1139.62
509.265	1121.8
509.472	1136.71
509.679	1246.96
509.885	1134
510.092	1172.56
510.299	1139.04
510.506	1143.3
510.713	1173.33
510.92	1158.61
511.126	1198.52
511.333	1178.95
511.54	1183.21
511.746	1241.34
511.953	1267.3
512.16	1278.34
512.367	1205.11
512.573	1224.68
512.78	1234.36
512.987	1201.62
513.193	1219.25
513.4	1130.13
513.606	1186.7
513.813	1208.01
514.02	1228.74
514.226	1247.34
514.433	1252.96
514.639	1191.35
514.846	1238.63
515.052	1209.76
515.259	1216.73
515.465	1228.16
515.672	1241.34
515.878	1320.39
516.085	1241.34
516.291	1300.24
516.497	1255.87
516.704	1244.05
516.91	1189.8
517.117	1183.8
517.323	1111.92
517.529	1146.6
517.736	1128
517.942	1174.5
518.148	1194.06
518.354	1238.04
518.561	1229.71
518.767	1234.36
518.973	1270.21
519.179	1283.19
519.386	1260.71
519.592	1264.98
519.798	1254.9
520.004	1394.59
520.21	1319.22
520.417	1390.52
520.623	1422.1
520.829	1410.87
521.035	1366.89
521.241	1404.28
521.447	1444.97
521.653	1530.6
521.859	1400.02
522.065	1442.06
522.271	1520.14
522.477	1456.4
522.683	1521.11
522.889	1489.92
523.095	1461.44
523.301	1467.05
523.507	1416.29
523.713	1470.15
523.919	1429.08
524.125	1547.07
524.331	1484.1
524.537	1554.43
524.742	1551.92
524.948	1581.75
525.154	1586.4
525.36	1663.71
525.566	1603.45
525.772	1643.75
525.977	1554.63
526.183	1587.76
526.389	1627.09
526.595	1546.3
526.8	1563.54
527.006	1468.02
527.212	1456.98
527.417	1395.37
527.623	1434.89
527.829	1484.3
528.034	1544.55
528.24	1556.76
528.446	1555.02
528.651	1645.88
528.857	1626.31
529.062	1673.78
529.268	1644.72
529.473	1672.04
529.679	1646.66
529.884	1728.03
530.09	1729.78
530.295	1735.59
530.501	1698.58
530.706	1691.99
530.912	1661.96
531.117	1698.58
531.323	1727.64
531.528	1774.92
531.733	1759.03
531.939	1691.8
532.144	1755.93
532.35	1740.82
532.555	1773.95
532.76	1733.84
532.966	1762.91
533.171	1700.13
533.376	1671.84
533.581	1689.67
533.787	1683.28
533.992	1759.22
534.197	1733.26
534.402	1747.99
534.607	1749.54
534.813	1819.48
535.018	1711.95
535.223	1791.19
535.428	1796.42
535.633	1819.29
535.838	1825.49
536.043	1843.89
536.249	1939.02
536.454	1825.68
536.659	1825.1
536.864	1802.24
537.069	1784.02
537.274	1826.65
537.479	1840.6
537.684	1852.03
537.889	1749.54
538.094	1932.82
538.299	1833.43
538.504	1874.5
538.708	1849.32
538.913	1877.02
539.118	1835.95
539.323	1892.33
539.528	1831.69
539.733	1803.98
539.938	1861.72
540.142	1899.89
540.347	1836.92
540.552	1803.98
540.757	1825.87
540.962	1826.84
541.166	1781.51
541.371	1726.68
541.576	1836.92
541.781	1724.35
541.985	1852.22
542.19	1807.08
542.395	1908.8
542.599	1941.35
542.804	1898.34
543.008	1920.62
543.213	1845.05
543.418	1830.33
543.622	1874.12
543.827	1818.9
544.031	1912.67
544.236	1946.97
544.44	1889.42
544.645	1992.5
544.849	1921.2
545.054	1949.87
545.258	1961.11
545.463	1948.32
545.667	1889.42
545.872	1942.9
546.076	1910.74
546.281	1961.69
546.485	1881.29
546.689	1932.05
546.894	1947.16
547.098	1950.65
547.302	1874.12
547.507	1927.2
547.711	1955.88
547.915	1972.93
548.119	1880.51
548.324	1920.62
548.528	1985.72
548.732	1927.4
548.936	1980.87
549.141	2000.25
549.345	1942.7
549.549	1963.43
549.753	1978.16
549.957	2029.31
550.161	2016.13
550.366	1969.25
550.57	1933.6
550.774	1970.6
550.978	1981.65
551.182	1960.72
551.386	1923.72
551.59	1949.1
551.794	1914.8
551.998	1992.69
552.202	1935.73
552.406	1907.25
552.61	2009.74
552.814	1970.41
553.018	2009.55
553.222	1947.55
553.426	1928.37
553.63	2048.88
553.833	1953.55
554.037	1909.57
554.241	1980.1
554.445	1983.78
554.649	1956.85
554.853	1931.27
555.056	2000.25
555.26	2024.46
555.464	1992.11
555.668	1997.53
555.871	1996.37
556.075	2004.9
556.279	1946.19
556.483	1886.71
556.686	1976.03
556.89	1952.39
557.094	1958.78
557.297	1890.78
557.501	1970.41
557.704	1896.2
557.908	1985.33
558.112	1910.15
558.315	1992.69
558.519	1926.43
558.722	1884.97
558.926	1892.14
559.129	1859.2
559.333	1835.95
559.536	1859.39
559.74	1839.24
559.943	1813.09
560.147	1854.16
560.35	1839.63
560.553	1858.04
560.757	1799.72
560.96	1919.65
561.164	1846.99
561.367	1920.81
561.57	1881.67
561.774	1878.57
561.977	1867.14
562.18	1836.53
562.384	1915
562.587	1816.38
562.79	1840.21
562.993	1822
563.197	1854.55
563.4	1902.79
563.603	1876.44
563.806	1908.99
564.009	1826.46
564.212	1821.42
564.416	1769.69
564.619	1812.89
564.822	1814.25
565.025	1862.69
565.228	1800.49
565.431	1808.63
565.634	1724.16
565.837	1735.01
566.04	1737.91
566.243	1712.53
566.446	1658.28
566.649	1759.81
566.852	1713.11
567.055	1779.37
567.258	1753.99
567.461	1813.86
567.664	1817.54
567.867	1704.39
568.07	1774.14
568.273	1728.81
568.475	1806.11
568.678	1677.08
568.881	1696.64
569.084	1727.84
569.287	1620.7
569.489	1667.78
569.692	1707.3
569.895	1719.51
570.098	1618.37
570.3	1616.63
570.503	1567.61
570.706	1578.26
570.909	1632.13
571.111	1533.12
571.314	1537.77
571.516	1573.81
571.719	1605.78
571.922	1579.81
572.124	1582.33
572.327	1601.13
572.529	1530.8
572.732	1535.64
572.935	1598.61
573.137	1664.87
573.34	1588.73
573.542	1623.99
573.745	1561.8
573.947	1628.45
574.15	1560.83
574.352	1578.26
574.554	1598.22
574.757	1545.33
574.959	1520.14
575.162	1541.26
575.364	1476.35
575.566	1587.95
575.769	1508.32
575.971	1519.95
576.173	1412.61
576.376	1515.3
576.578	1496.89
576.78	1592.21
576.982	1438.96
577.185	1488.95
577.387	1444.39
577.589	1464.34
577.791	1532.15
577.993	1507.55
578.196	1485.27
578.398	1480.04
578.6	1527.5
578.802	1425.4
579.004	1429.47
579.206	1413.58
579.408	1498.83
579.61	1445.74
579.812	1492.63
580.014	1430.24
580.216	1427.14
580.418	1437.02
580.62	1468.41
580.822	1415.13
581.024	1456.01
581.226	1487.4
581.428	1454.65
581.63	1535.83
581.832	1447.1
582.034	1515.68
582.236	1485.46
582.438	1508.9
582.64	1540.29
582.841	1521.88
583.043	1578.46
583.245	1505.61
583.447	1503.28
583.649	1518.98
583.85	1475.39
584.052	1556.57
584.254	1455.43
584.456	1536.42
584.657	1424.82
584.859	1477.71
585.061	1464.54
585.262	1445.74
585.464	1457.37
585.666	1503.87
585.867	1427.53
586.069	1509.29
586.27	1452.33
586.472	1438.57
586.674	1432.95
586.875	1409.9
587.077	1449.81
587.278	1470.54
587.48	1462.99
587.681	1500.18
587.883	1435.28
588.084	1356.04
588.285	1425.59
588.487	1382.39
588.688	1419.78
588.89	1347.51
589.091	1333.37
589.292	1330.07
589.494	1249.48
589.695	1282.22
589.896	1206.08
590.098	1191.35
590.299	1274.08
590.5	1250.44
590.702	1272.14
590.903	1277.38
591.104	1327.94
591.305	1298.69
591.507	1397.31
591.708	1352.36
591.909	1335.31
592.11	1385.29
592.311	1384.52
592.512	1318.26
592.714	1299.46
592.915	1270.79
593.116	1323.49
593.317	1335.11
593.518	1316.51
593.719	1320.39
593.92	1351.19
594.121	1383.36
594.322	1352.74
594.523	1320.19
594.724	1266.33
594.925	1318.45
595.126	1338.99
595.327	1304.11
595.528	1312.83
595.729	1330.46
595.929	1328.52
596.13	1313.99
596.331	1324.26
596.532	1337.63
596.733	1375.22
596.934	1365.92
597.135	1395.17
597.335	1343.64
597.536	1284.35
597.737	1308.96
597.938	1266.33
598.138	1360.88
598.339	1290.94
598.54	1332.01
598.74	1300.24
598.941	1304.31
599.142	1375.61
599.342	1330.85
599.543	1285.13
599.744	1292.49
599.944	1287.45
600.145	1295.78
600.345	1322.91
600.546	1384.91
600.746	1360.88
600.947	1392.85
601.147	1316.71
601.348	1354.1
601.548	1277.76
601.749	1285.13
601.949	1261.88
602.15	1287.45
602.35	1304.89
602.551	1330.85
602.751	1285.9
602.951	1264.98
603.152	1239.4
603.352	1328.52
603.552	1294.43
603.753	1333.76
603.953	1307.6
604.153	1320
604.354	1307.02
604.554	1313.41
604.754	1306.44
604.954	1259.55
605.155	1349.64
605.355	1266.14
605.555	1328.72
605.755	1329.3
605.955	1282.22
606.155	1325.04
606.356	1296.94
606.556	1356.62
606.756	1308.96
606.956	1279.51
607.156	1333.76
607.356	1246.57
607.556	1315.93
607.756	1302.37
607.956	1321.36
608.156	1320.39
608.356	1236.49
608.556	1331.82
608.756	1277.18
608.956	1271.76
609.156	1272.14
609.356	1254.9
609.556	1267.3
609.755	1295.01
609.955	1225.06
610.155	1248.31
610.355	1266.14
610.555	1218.48
610.755	1239.4
610.954	1190.38
611.154	1283.58
611.354	1245.41
611.554	1201.23
611.753	1227.58
611.953	1172.17
612.153	1261.29
612.352	1245.02
612.552	1184.76
612.752	1153.96
612.951	1183.8
613.151	1197.55
613.351	1198.52
613.55	1187.28
613.75	1206.08
613.949	1168.88
614.149	1215.96
614.348	1195.81
614.548	1163.65
614.747	1129.35
614.947	1169.07
615.146	1112.88
615.346	1201.81
615.545	1189.61
615.745	1233.98
615.944	1209.76
616.144	1196
616.343	1174.88
616.542	1168.68
616.742	1116.37
616.941	1166.16
617.14	1084.6
617.34	1141.95
617.539	1148.15
617.738	1105.91
617.938	1226.81
618.137	1154.73
618.336	1110.75
618.535	1196.58
618.734	1192.13
618.934	1157.64
619.133	1159.19
619.332	1177.6
619.531	1111.72
619.73	1165.97
619.929	1198.13
620.128	1173.53
620.328	1201.81
620.527	1125.48
620.726	1125.48
620.925	1141.95
621.124	1171.98
621.323	1131.68
621.522	1124.12
621.721	1110.95
621.92	1099.13
622.119	1145.82
622.318	1095.83
622.517	1145.43
622.715	1124.32
622.914	1053.98
623.113	1114.24
623.312	1048.95
623.511	1140.98
623.71	1084.02
623.909	1057.28
624.107	1126.25
624.306	1052.43
624.505	1059.22
624.704	1075.88
624.902	1064.64
625.101	1124.51
625.3	1078.2
625.499	1023.37
625.697	1079.95
625.896	1034.61
626.095	1097.19
626.293	1019.89
626.492	1049.33
626.69	1097.77
626.889	1034.8
627.088	1080.14
627.286	1033.84
627.485	1037.9
627.683	999.15
627.882	1051.08
628.08	977.65
628.279	990.24
628.477	1086.53
628.676	977.45
628.874	1044.69
629.073	985.01
629.271	944.91
629.469	1020.08
629.668	1007.1
629.866	968.15
630.065	968.35
630.263	1033.25
630.461	996.05
630.66	1045.46
630.858	1035
631.056	1044.1
631.254	1101.84
631.453	979
631.651	1074.13
631.849	1006.71
632.047	1040.81
632.245	972.03
632.444	1018.92
632.642	1026.86
632.84	1056.12
633.038	1018.53
633.236	1002.64
633.434	1000.12
633.632	983.07
633.83	1006.52
634.028	1034.61
634.227	1045.07
634.425	1066.58
634.623	1006.52
634.821	1001.29
635.019	1019.89
635.216	997.99
635.414	1070.65
635.612	1014.27
635.81	1020.85
636.008	1075.49
636.206	1018.14
636.404	1035.97
636.602	990.63
636.8	1025.5
636.997	1042.36
637.195	1038.87
637.393	1008.26
637.591	1083.63
637.789	1015.82
637.986	1006.13
638.184	994.31
638.382	1073.36
638.58	1029.57
638.777	1073.75
638.975	1000.7
639.173	1055.92
639.37	1028.22
639.568	1015.62
639.765	1047.4
639.963	997.99
640.161	1029.57
640.358	1049.14
640.556	977.26
640.753	965.25
640.951	952.85
641.148	1012.14
641.346	974.74
641.543	995.67
641.741	993.34
641.938	961.18
642.136	977.45
642.333	937.93
642.531	1006.9
642.728	1014.65
642.925	966.99
643.123	943.16
643.32	973.97
643.517	973.39
643.715	978.23
643.912	948.39
644.109	969.12
644.306	981.14
644.504	915.65
644.701	964.28
644.898	993.34
645.095	966.41
645.293	976.29
645.49	975.32
645.687	955.37
645.884	1001.87
646.081	888.72
646.278	921.46
646.475	874.96
646.672	906.35
646.87	934.25
647.067	890.46
647.264	911.77
647.461	856.17
647.658	854.04
647.855	922.82
648.052	890.27
648.249	805.99
648.446	883.1
648.642	851.91
648.839	866.24
649.036	846.48
649.233	819.36
649.43	813.74
649.627	807.54
649.824	834.08
650.021	833.31
650.217	836.6
650.414	841.83
650.611	882.13
650.808	875.16
651.004	870.12
651.201	895.11
651.398	913.32
651.595	834.28
651.791	825.17
651.988	875.74
652.185	846.48
652.381	885.81
652.578	797.85
652.775	845.71
652.971	817.61
653.168	872.83
653.364	880.97
653.561	783.13
653.757	843.77
653.954	851.91
654.15	805.21
654.347	866.24
654.543	809.48
654.74	821.1
654.936	802.5
655.133	828.27
655.329	854.43
655.525	801.14
655.722	868.96
655.918	768.21
656.115	820.91
656.311	726.16
656.507	689.93
656.704	662.81
656.9	719.19
657.096	693.62
657.292	684.7
657.489	750.77
657.685	793.59
657.881	772.28
658.077	756.78
658.273	767.63
658.47	856.75
658.666	748.64
658.862	810.06
659.058	787.78
659.254	868.96
659.45	782.93
659.646	811.03
659.842	780.61
660.038	848.61
660.234	787.58
660.43	808.7
660.626	851.13
660.822	829.63
661.018	855.59
661.214	812.58
661.41	774.8
661.606	823.23
661.802	860.43
661.998	809.86
662.194	801.73
662.39	811.99
662.586	835.83
662.781	823.04
662.977	818
663.173	819.74
663.369	800.18
663.564	793.01
663.76	852.1
663.956	762.2
664.152	817.23
664.347	746.12
664.543	778.67
664.739	797.27
664.934	741.47
665.13	748.45
665.326	800.56
665.521	763.95
665.717	734.11
665.912	740.7
666.108	713.57
666.304	759.3
666.499	719.38
666.695	694.39
666.89	736.24
667.086	783.51
667.281	765.5
667.477	793.39
667.672	750.58
667.867	759.68
668.063	746.12
668.258	711.05
668.454	736.43
668.649	813.93
668.844	772.47
669.04	758.91
669.235	743.21
669.43	732.75
669.626	696.13
669.821	725.78
670.016	706.01
670.211	727.91
670.407	708.73
670.602	749.03
670.797	749.41
670.992	762.01
671.187	664.36
671.382	748.45
671.578	684.9
671.773	747.28
671.968	689.35
672.163	719.58
672.358	773.83
672.553	666.88
672.748	731.98
672.943	792.43
673.138	698.46
673.333	716.86
673.528	706.6
673.723	723.26
673.918	697.1
674.113	684.32
674.308	780.41
674.503	731.2
674.698	735.08
674.892	714.15
675.087	757.36
675.282	712.41
675.477	679.08
675.672	756.97
675.867	671.53
676.061	644.4
676.256	655.45
676.451	684.12
676.646	705.05
676.84	680.83
677.035	654.48
677.23	649.44
677.424	704.27
677.619	725.78
677.814	731.78
678.008	735.46
678.203	661.45
678.397	670.17
678.592	694.2
678.787	725.78
678.981	663
679.176	706.4
679.37	699.23
679.565	673.27
679.759	674.05
679.954	724.61
680.148	731.4
680.342	749.22
680.537	716.09
680.731	685.67
680.926	670.95
681.12	722.1
681.314	684.9
681.509	693.03
681.703	696.13
681.897	733.53
682.092	693.81
682.286	657.38
682.48	772.28
682.674	737.4
682.869	691.1
683.063	706.79
683.257	760.07
683.451	681.41
683.645	692.26
683.839	716.67
684.034	679.86
684.228	744.57
684.422	640.92
684.616	653.7
684.81	702.14
685.004	665.72
685.198	712.21
685.392	715.9
685.586	645.95
685.78	699.43
685.974	732.75
686.168	703.11
686.362	737.4
686.556	651.38
686.75	619.22
686.944	600.81
687.138	603.72
687.331	543.27
687.525	541.14
687.719	523.89
687.913	562.45
688.107	570
688.301	568.07
688.494	579.69
688.688	548.5
688.882	519.44
689.076	525.25
689.269	561.09
689.463	635.88
689.657	585.7
689.85	545.59
690.044	602.94
690.238	582.6
690.431	574.07
690.625	596.74
690.818	602.55
691.012	636.85
691.205	640.33
691.399	620.38
691.593	666.88
691.786	697.88
691.98	696.33
692.173	747.28
692.366	730.23
692.56	726.16
692.753	774.41
692.947	672.5
693.14	758.13
693.333	758.52
693.527	727.13
693.72	764.33
693.914	736.63
694.107	734.3
694.3	742.44
694.493	748.64
694.687	748.06
694.88	740.5
695.073	810.44
695.266	819.94
695.46	800.37
695.653	838.54
695.846	839.51
696.039	750
696.232	800.56
696.425	837.57
696.618	892.59
696.812	862.95
697.005	926.11
697.198	976.49
697.391	915.07
697.584	985.79
697.777	1011.75
697.97	983.07
698.163	990.24
698.356	991.02
698.549	1055.34
698.742	1028.41
698.935	985.2
699.127	1009.81
699.32	957.69
699.513	957.31
699.706	1047.59
699.899	1057.28
700.092	1032.48
700.285	1060.96
700.477	991.6
700.67	1074.91
700.863	1098.93
701.056	1198.52
701.248	1124.32
701.441	1134.39
701.634	1099.52
701.826	1200.07
702.019	1094.28
702.212	1160.74
702.404	1126.64
702.597	1088.67
702.79	1135.55
702.982	1215.38
703.175	1257.03
703.367	1249.48
703.56	1249.48
703.752	1349.26
703.945	1289
704.137	1318.26
704.33	1312.83
704.522	1338.99
704.715	1356.04
704.907	1376.57
705.1	1407.77
705.292	1424.43
705.484	1411.06
705.677	1438.19
705.869	1416.87
706.061	1496.31
706.254	1511.81
706.446	1456.98
706.638	1428.5
706.831	1523.82
707.023	1499.99
707.215	1623.6
707.407	1607.13
707.599	1549.2
707.792	1603.06
707.984	1566.25
708.176	1657.31
708.368	1606.36
708.56	1654.6
708.752	1646.85
708.944	1640.07
709.136	1702.84
709.329	1649.37
709.521	1750.51
709.713	1710.79
709.905	1764.07
710.097	1733.46
710.289	1782.09
710.481	1745.66
710.672	1784.22
710.864	1770.07
711.056	1829.75
711.248	1809.6
711.44	1841.95
711.632	1870.82
711.824	1833.24
712.016	1903.37
712.207	1886.13
712.399	1878.57
712.591	1969.44
712.783	1933.98
712.975	1970.02
713.166	1890.59
713.358	1955.88
713.55	1992.3
713.741	2009.55
713.933	1996.95
714.125	2007.22
714.316	1989.78
714.508	2078.52
714.7	2062.05
714.891	2062.25
715.083	2105.26
715.274	2040.93
715.466	2027.18
715.657	2108.16
715.849	2007.22
716.04	2073.87
716.232	1996.57
716.423	2038.03
716.615	1958.78
716.806	1944.25
716.998	1891.94
717.189	1862.69
717.381	1743.92
717.572	1747.79
717.763	1796.62
717.955	1726.68
718.146	1715.05
718.337	1668.74
718.528	1610.81
718.72	1547.46
718.911	1598.22
719.102	1571.29
719.293	1639.49
719.485	1593.57
719.676	1556.37
719.867	1581.95
720.058	1574.78
720.249	1590.86
720.44	1612.75
720.632	1647.43
720.823	1696.84
721.014	1791.77
721.205	1806.5
721.396	1893.3
721.587	1943.28
721.778	2014.58
721.969	2062.44
722.16	2082.59
722.351	2114.36
722.542	2206.39
722.733	2223.06
722.924	2114.36
723.115	2166.09
723.305	2152.92
723.496	2152.34
723.687	2049.46
723.878	2062.44
724.069	2031.44
724.26	2055.08
724.45	2011.1
724.641	2005.48
724.832	2036.09
725.023	1993.47
725.213	1999.86
725.404	1995.79
725.595	1995.21
725.785	2003.35
725.976	2039.77
726.167	2022.14
726.357	2019.04
726.548	2148.08
726.739	2017.88
726.929	2122.89
727.12	2127.34
727.31	2147.49
727.501	2056.43
727.691	2086.27
727.882	2097.89
728.072	2144.2
728.263	2155.24
728.453	2215.11
728.644	2213.95
728.834	2165.32
729.024	2162.99
729.215	2104.29
729.405	2165.9
729.596	2273.04
729.786	2249.21
729.976	2262.97
730.167	2274.01
730.357	2256.19
730.547	2217.05
730.737	2281.76
730.928	2293.97
731.118	2372.63
731.308	2272.85
731.498	2300.75
731.688	2387.55
731.879	2376.89
732.069	2430.37
732.259	2458.85
732.449	2457.1
732.639	2570.06
732.829	2564.83
733.019	2612.88
733.209	2673.13
733.399	2643.1
733.589	2719.63
733.779	2729.51
733.969	2729.51
734.159	2753.34
734.349	2808.37
734.539	2857.38
734.729	2836.27
734.919	2889.55
735.109	2912.21
735.299	2845.57
735.488	2864.36
735.678	2916.86
735.868	2857.19
736.058	2852.93
736.248	2843.63
736.437	2777.95
736.627	2797.32
736.817	2892.06
737.007	2837.43
737.196	2901.56
737.386	2926.75
737.576	2902.33
737.765	2933.14
737.955	2902.14
738.144	3032.53
738.334	2976.73
738.524	2907.56
738.713	2929.07
738.903	2960.07
739.092	2969.18
739.282	2963.75
739.471	2985.64
739.661	3006.18
739.85	3021.29
740.04	2989.52
740.229	3051.71
740.419	3084.07
740.608	3040.09
740.797	3065.27
740.987	3094.14
741.176	3063.72
741.365	3028.66
741.555	2995.91
741.744	3051.71
741.933	3067.6
742.123	3065.66
742.312	3068.57
742.501	3159.44
742.69	3137.16
742.88	3034.86
743.069	3196.44
743.258	3075.54
743.447	3185.4
743.636	3139.48
743.825	3105.57
744.014	3133.86
744.204	3172.42
744.393	3093.95
744.582	3189.47
744.771	3214.46
744.96	3122.04
745.149	3173.58
745.338	3150.72
745.527	3160.21
745.716	3176.1
745.905	3133.67
746.094	3200.9
746.283	3163.12
746.471	3188.11
746.66	3246.82
746.849	3230.74
747.038	3248.75
747.227	3170.29
747.416	3258.44
747.604	3172.61
747.793	3130.57
747.982	3197.41
748.171	3192.18
748.359	3211.55
748.548	3201.87
748.737	3159.05
748.926	3178.04
749.114	3074.57
749.303	3156.92
749.491	3148.97
749.68	3098.6
749.869	3163.31
750.057	3184.82
750.246	3130.18
750.434	3121.07
750.623	3112.16
750.811	3093.17
751	3177.26
751.188	3092.79
751.377	3096.66
751.565	3138.9
751.754	3061.79
751.942	3056.75
752.131	3127.66
752.319	3064.5
752.507	3096.08
752.696	3100.92
752.884	3094.34
753.072	3100.92
753.261	3090.46
753.449	3044.35
753.637	3060.82
753.825	3146.07
754.014	3059.07
754.202	3051.71
754.39	3112.16
754.578	3115.07
754.766	3042.41
754.955	3013.35
755.143	3130.57
755.331	3041.83
755.519	3022.46
755.707	3006.57
755.895	3017.42
756.083	3061.21
756.271	2964.33
756.459	3001.92
756.647	3074.19
756.835	3024.78
757.023	2968.98
757.211	2985.84
757.399	2986.03
757.587	2997.66
757.775	2921.51
757.963	2963.36
758.151	2979.83
758.339	2928.88
758.526	2908.34
758.714	2956
758.902	2819.02
759.09	2769.04
759.278	2579.94
759.465	2396.85
759.653	2039.58
759.841	1866.17
760.028	1596.09
760.216	1350.81
760.404	1303.14
760.591	1043.91
760.779	910.81
760.967	754.06
761.154	649.05
761.342	662.23
761.529	732.36
761.717	767.24
761.905	714.93
762.092	810.44
762.28	767.63
762.467	788.94
762.655	687.03
762.842	740.31
763.029	731.4
763.217	744.18
763.404	741.47
763.592	763.95
763.779	722.1
763.966	777.31
764.154	785.26
764.341	855.39
764.528	843.58
764.716	926.89
764.903	951.11
765.09	1064.83
765.277	1056.7
765.465	1215.38
765.652	1241.92
765.839	1317.48
766.026	1444.58
766.213	1462.99
766.4	1570.9
766.588	1773.17
766.775	1730.36
766.962	1830.72
767.149	1910.54
767.336	2022.14
767.523	1963.05
767.71	2098.28
767.897	2209.11
768.084	2220.54
768.271	2292.42
768.458	2326.9
768.645	2409.05
768.832	2406.92
769.019	2409.83
769.206	2470.28
769.392	2500.5
769.579	2598.93
769.766	2527.24
769.953	2527.24
770.14	2608.42
770.327	2574.32
770.513	2615.2
770.7	2724.09
770.887	2591.18
771.073	2636.32
771.26	2651.43
771.447	2579.55
771.634	2590.21
771.82	2688.63
772.007	2556.11
772.193	2631.28
772.38	2682.62
772.567	2631.09
772.753	2647.17
772.94	2688.24
773.126	2666.35
773.313	2671.39
773.499	2669.64
773.686	2668.67
773.872	2572.19
774.059	2656.27
774.245	2580.13
774.432	2630.12
774.618	2542.74
774.804	2620.82
774.991	2562.31
775.177	2599.89
775.363	2590.21
775.55	2620.24
775.736	2566.38
775.922	2573.35
776.109	2579.74
776.295	2575.29
776.481	2604.16
776.667	2609.58
776.853	2567.15
777.04	2527.82
777.226	2556.3
777.412	2598.73
777.598	2519.1
777.784	2551.65
777.97	2517.16
778.156	2531.31
778.342	2539.44
778.528	2556.49
778.715	2495.85
778.901	2498.18
779.087	2491.98
779.272	2457.3
779.458	2462.53
779.644	2496.82
779.83	2491.01
780.016	2554.56
780.202	2485.97
780.388	2476.48
780.574	2396.85
780.76	2421.07
780.946	2489.26
781.131	2452.45
781.317	2425.91
781.503	2432.5
781.689	2412.73
781.874	2562.89
782.06	2461.17
782.246	2457.68
782.432	2422.03
782.617	2417.38
782.803	2474.73
782.989	2360.42
783.174	2437.92
783.36	2365.85
783.545	2395.49
783.731	2369.72
783.916	2321.09
784.102	2404.21
784.288	2331.94
784.473	2363.52
784.659	2294.35
784.844	2380.57
785.029	2363.72
785.215	2352.67
785.4	2279.05
785.586	2361.58
785.771	2265.87
785.956	2301.52
786.142	2311.02
786.327	2297.84
786.512	2295.32
786.698	2293.58
786.883	2236.62
787.068	2241.27
787.254	2243.59
787.439	2229.26
787.624	2231.39
787.809	2239.72
787.994	2257.35
788.18	2262.39
788.365	2151.18
788.55	2181.01
788.735	2245.34
788.92	2200.77
789.105	2213.56
789.29	2193.02
789.475	2152.92
789.66	2115.91
789.845	2123.47
790.03	2097.89
790.215	2151.56
790.4	2178.3
790.585	2157.96
790.77	2147.11
790.955	2085.11
791.14	2152.34
791.325	2174.23
791.51	2061.08
791.695	2095.38
791.879	2088.6
792.064	2045.78
792.249	2138.97
792.434	2081.04
792.618	2123.08
792.803	2125.02
792.988	2105.26
793.173	2096.73
793.357	2132.77
793.542	2059.73
793.727	2116.11
793.911	2152.34
794.096	2097.12
794.281	2135.87
794.465	2201.16
794.65	2148.27
794.834	2153.5
795.019	2194.96
795.203	2164.74
795.388	2163.38
795.572	2183.92
795.757	2145.94
795.941	2148.66
796.126	2136.06
796.31	2102.35
796.494	2138.39
796.679	2129.09
796.863	2079.68
797.048	2150.4
797.232	2149.82
797.416	2173.84
797.601	2124.83
797.785	2199.42
797.969	2218.21
798.153	2134.9
798.338	2182.76
798.522	2198.64
798.706	2184.69
798.89	2154.28
799.074	2230.42
799.258	2219.37
799.443	2144.98
799.627	2175.2
799.811	2193.8
799.995	2177.72
800.179	2099.64
800.363	2166.29
800.547	2177.91
800.731	2211.82
800.915	2106.61
801.099	2143.62
801.283	2116.69
801.467	2137.81
801.651	2126.18
801.835	2169.58
802.019	2183.73
802.202	2140.13
802.386	2128.89
802.57	2120.56
802.754	2128.31
802.938	2089.56
803.121	2095.18
803.305	2181.79
803.489	2121.14
803.673	2132.19
803.856	2133.54
804.04	2115.91
804.224	2145.56
804.407	2112.23
804.591	2089.56
804.775	2122.89
804.958	2103.71
805.142	2212.01
805.326	2113.2
805.509	2162.8
805.693	2172.29
805.876	2208.14
806.06	2139.55
806.243	2202.52
806.427	2207.56
806.61	2186.24
806.794	2113.98
806.977	2191.86
807.16	2182.18
807.344	2147.49
807.527	2161.64
807.71	2141.88
807.894	2159.31
808.077	2195.35
808.26	2105.45
808.444	2088.6
808.627	2152.92
808.81	2119.4
808.993	2071.55
809.177	2042.87
809.36	2090.53
809.543	2109.71
809.726	2045.78
809.909	2011.1
810.092	2009.93
810.276	2075.03
810.459	2037.25
810.642	2007.42
810.825	1999.28
811.008	1983
811.191	1921.39
811.374	1958.59
811.557	1956.85
811.74	1989.78
811.923	1877.22
812.106	1860.36
812.289	1894.46
812.472	1882.25
812.654	1911.7
812.837	1815.41
813.02	1780.92
813.203	1741.79
813.386	1723.38
813.569	1682.31
813.751	1638.91
813.934	1677.46
814.117	1677.66
814.3	1593.57
814.482	1586.98
814.665	1541.65
814.848	1493.6
815.03	1466.67
815.213	1470.54
815.396	1461.24
815.578	1430.05
815.761	1421.91
815.943	1433.34
816.126	1369.02
816.309	1371.34
816.491	1346.54
816.674	1258
816.856	1308.57
817.039	1327.36
817.221	1358.36
817.403	1344.41
817.586	1343.25
817.768	1370.76
817.951	1274.66
818.133	1262.84
818.315	1322.13
818.498	1352.94
818.68	1468.22
818.862	1357.39
819.045	1398.27
819.227	1372.7
819.409	1333.95
819.591	1385.1
819.774	1341.31
819.956	1327.94
820.138	1388.59
820.32	1411.45
820.502	1437.22
820.684	1497.08
820.866	1482.94
821.048	1512.2
821.231	1516.27
821.413	1558.31
821.595	1493.79
821.777	1501.54
821.959	1505.8
822.141	1583.5
822.323	1441.67
822.505	1370.18
822.686	1371.34
822.868	1276.41
823.05	1191.93
823.232	1201.43
823.414	1115.79
823.596	1193.48
823.778	1160.93
823.96	1221.19
824.141	1211.31
824.323	1181.47
824.505	1301.98
824.687	1362.04
824.868	1363.4
825.05	1453.69
825.232	1467.25
825.413	1564.51
825.595	1480.04
825.777	1447.29
825.958	1475.39
826.14	1470.35
826.321	1483.52
826.503	1489.92
826.685	1490.5
826.866	1521.88
827.048	1481.78
827.229	1454.46
827.411	1387.81
827.592	1366.69
827.773	1375.41
827.955	1362.43
828.136	1347.32
828.318	1294.23
828.499	1365.72
828.68	1307.41
828.862	1363.01
829.043	1378.9
829.224	1333.95
829.406	1298.11
829.587	1340.34
829.768	1279.7
829.949	1344.99
830.131	1329.49
830.312	1351
830.493	1324.26
830.674	1346.54
830.855	1313.99
831.036	1317.48
831.218	1390.72
831.399	1434.5
831.58	1327.56
831.761	1346.54
831.942	1353.71
832.123	1304.69
832.304	1273.11
832.485	1315.74
832.666	1329.88
832.847	1340.15
833.028	1309.34
833.209	1335.5
833.389	1309.93
833.57	1270.4
833.751	1315.54
833.932	1374.44
834.113	1349.64
834.294	1280.28
834.475	1351
834.655	1388.39
834.836	1379.29
835.017	1387.81
835.198	1321.74
835.378	1336.86
835.559	1401.18
835.74	1360.88
835.92	1347.9
836.101	1318.26
836.281	1389.36
836.462	1401.18
836.643	1391.88
836.823	1402.73
837.004	1387.04
837.184	1442.45
837.365	1416.29
837.545	1423.85
837.726	1422.3
837.906	1446.32
838.087	1397.5
838.267	1384.13
838.448	1368.44
838.628	1367.86
838.808	1383.16
838.989	1431.79
839.169	1346.93
839.349	1414.55
839.53	1428.89
839.71	1408.15
839.89	1361.85
840.07	1403.5
840.251	1412.61
840.431	1397.5
840.611	1389.17
840.791	1355.26
840.971	1400.99
841.151	1430.82
841.332	1364.37
841.512	1423.65
841.692	1305.47
841.872	1373.86
842.052	1349.26
842.232	1419.59
842.412	1341.89
842.592	1381.61
842.772	1356.81
842.952	1380.45
843.132	1362.43
843.312	1342.67
843.492	1312.25
843.672	1386.84
843.851	1269.04
844.031	1320.77
844.211	1366.89
844.391	1326.39
844.571	1340.34
844.751	1373.67
844.93	1352.74
845.11	1318.84
845.29	1338.21
845.47	1348.29
845.649	1333.56
845.829	1384.32
846.009	1320.58
846.188	1326.59
846.368	1366.5
846.547	1342.47
846.727	1360.11
846.907	1302.95
847.086	1340.92
847.266	1352.55
847.445	1334.53
847.625	1301.21
847.804	1289.97
847.984	1314.77
848.163	1306.83
848.343	1255.87
848.522	1314.57
848.701	1325.42
848.881	1287.26
849.06	1308.38
849.239	1306.83
849.419	1321.55
849.598	1210.92
849.777	1267.11
849.957	1210.73
850.136	1159.38
850.315	1145.43
850.494	1203.36
850.674	1201.81
850.853	1232.62
851.032	1207.43
851.211	1276.6
851.39	1231.26
851.569	1177.4
851.748	1171.59
851.927	1265.17
852.107	1232.81
852.286	1196.97
852.465	1175.46
852.644	1241.92
852.823	1211.7
853.002	1173.33
853.181	1207.43
853.359	1202.98
853.538	1174.69
853.717	1236.3
853.896	1124.9
854.075	1081.88
854.254	1078.01
854.433	1029.19
854.611	1085.95
854.79	975.71
854.969	1034.42
855.148	1115.98
855.327	1035.19
855.505	1096.42
855.684	1062.9
855.863	1076.65
856.041	1064.45
856.22	1127.8
856.399	1107.27
856.577	1153.38
856.756	1139.23
856.934	1271.18
857.113	1254.71
857.291	1156.48
857.47	1149.89
857.648	1170.43
857.827	1175.08
858.005	1171.98
858.184	1127.8
858.362	1185.73
858.541	1141.36
858.719	1177.6
858.898	1129.74
859.076	1147.56
859.254	1222.35
859.433	1161.32
859.611	1113.27
859.789	1067.93
859.967	1156.86
860.146	1176.24
860.324	1087.7
860.502	1116.18
860.68	1068.52
860.859	1078.4
861.037	1111.53
861.215	1143.3
861.393	1093.51
861.571	1108.04
861.749	1071.03
861.927	1123.73
862.105	1094.67
862.283	1085.57
862.461	1059.02
862.639	1062.32
862.817	1096.8
862.995	1114.43
863.173	1071.62
863.351	1104.17
863.529	1078.2
863.707	1129.74
863.885	1096.8
864.063	1040.23
864.241	1055.53
864.418	1126.83
864.596	1069.87
864.774	998.19
864.952	1041.59
865.129	1084.98
865.307	1055.53
865.485	991.21
865.663	1077.04
865.84	1003.61
866.018	996.83
866.196	876.71
866.373	946.26
866.551	913.91
866.728	863.73
866.906	921.46
867.084	942
867.261	983.85
867.439	978.62
867.616	992.37
867.794	961.37
867.971	1009.04
868.149	1002.25
868.326	1036.35
868.503	1010
868.681	967.96
868.858	967.19
869.035	948.2
869.213	1000.51
869.39	972.61
869.567	1058.05
869.745	981.91
869.922	984.04
870.099	1003.61
870.276	1019.11
870.454	1003.22
870.631	1005.74
870.808	979.59
870.985	1020.47
871.162	1021.05
871.339	977.84
871.517	945.1
871.694	916.81
871.871	999.93
872.048	997.99
872.225	978.23
872.402	953.82
872.579	917.39
872.756	954.21
872.933	908.87
873.11	915.26
873.287	954.01
873.463	936.77
873.64	903.25
873.817	991.4
873.994	929.02
874.171	934.64
874.348	920.49
874.524	876.32
874.701	922.62
874.878	858.11
875.055	956.14
875.231	930.18
875.408	925.53
875.585	852.49
875.762	923.01
875.938	895.69
876.115	890.27
876.291	883.49
876.468	880.39
876.645	840.86
876.821	890.85
876.998	897.24
877.174	885.23
877.351	889.3
877.527	849.78
877.704	896.08
877.88	862.56
878.057	858.69
878.233	932.31
878.409	870.31
878.586	892.01
878.762	854.04
878.938	843.58
879.115	781.77
879.291	867.99
879.467	788.74
879.644	853.84
879.82	896.66
879.996	827.88
880.172	806.38
880.349	808.89
880.525	886.01
880.701	797.85
880.877	781
881.053	801.92
881.229	832.73
881.405	855.78
881.581	818.39
881.757	825.75
881.933	838.15
882.109	856.56
882.285	806.38
882.461	797.08
882.637	828.85
882.813	791.65
882.989	805.79
883.165	873.8
883.341	809.28
883.517	831.18
883.693	838.93
883.869	862.18
884.044	770.15
884.22	843.77
884.396	854.43
884.572	853.26
884.747	861.4
884.923	839.7
885.099	845.13
885.275	886.2
885.45	809.28
885.626	792.81
885.801	779.45
885.977	831.37
886.153	750.19
886.328	802.11
886.504	796.11
886.679	814.51
886.855	791.46
887.03	848.61
887.206	856.17
887.381	844.54
887.557	833.5
887.732	843.38
887.908	820.52
888.083	878.64
888.258	807.93
888.434	788.74
888.609	819.36
888.784	873.03
888.96	819.55
889.135	795.14
889.31	799.59
889.485	825.36
889.661	797.27
889.836	844.74
890.011	838.93
890.186	817.42
890.361	795.53
890.537	867.99
890.712	810.06
890.887	817.81
891.062	810.44
891.237	869.54
891.412	782.74
891.587	842.03
891.762	826.53
891.937	867.41
892.112	781.77
892.287	791.65
892.462	766.08
892.637	771.11
892.812	748.06
892.987	756.2
893.161	724.03
893.336	754.06
893.511	744.57
893.686	725.97
893.861	731.59
894.035	745.93
894.21	740.89
894.385	695.94
894.56	716.86
894.734	646.15
894.909	681.8
895.084	676.76
895.258	651.18
895.433	664.75
895.608	662.23
895.782	611.27
895.957	647.31
896.131	632.39
896.306	590.35
896.48	594.22
896.655	579.89
896.829	510.52
897.004	537.26
897.178	553.54
897.353	560.7
897.527	608.75
897.701	557.22
897.876	502.39
898.05	589.19
898.224	551.4
898.399	622.32
898.573	569.04
898.747	449.3
898.921	520.6
899.096	415.01
899.27	441.74
899.444	455.89
899.618	461.12
899.792	499.87
899.967	481.27
900.141	514.98
900.315	432.06
900.489	502.77
900.663	475.46
900.837	478.17
901.011	413.07
901.185	539.2
901.359	489.6
901.533	489.21
901.707	459.37
901.881	469.45
902.055	418.11
902.229	490.37
902.403	519.24
902.576	484.56
902.75	481.07
902.924	615.15
903.098	533
903.272	551.02
903.446	573.88
903.619	559.93
903.793	605.46
903.967	544.82
904.14	627.35
904.314	586.09
904.488	571.55
904.661	601.78
904.835	583.37
905.009	653.9
905.182	636.46
905.356	636.07
905.529	604.1
905.703	580.08
905.876	569.81
906.05	550.24
906.223	551.99
906.397	496.57
906.57	487.86
906.744	458.99
906.917	449.49
907.09	481.85
907.264	491.92
907.437	446.59
907.61	391.18
907.784	429.34
907.957	446.78
908.13	423.92
908.304	477.01
908.477	422.37
908.65	437.09
908.823	400.86
908.996	476.04
909.17	411.91
909.343	426.05
909.516	426.05
909.689	412.29
909.862	398.34
910.035	407.06
910.208	406.48
910.381	380.52
910.554	495.99
910.727	390.79
910.9	410.94
911.073	397.18
911.246	455.89
911.419	477.01
911.592	453.95
911.765	407.06
911.938	407.84
912.11	395.24
912.283	411.91
912.456	480.49
912.629	443.87
912.802	387.3
912.974	378.58
913.147	333.63
913.32	299.15
913.493	353.78
913.665	341.19
913.838	384.39
914.01	354.17
914.183	376.64
914.356	363.66
914.528	395.44
914.701	436.51
914.873	420.43
915.046	359.21
915.218	333.05
915.391	311.74
915.563	318.91
915.736	357.08
915.908	383.04
916.081	360.56
916.253	379.16
916.425	360.56
916.598	351.26
916.77	368.51
916.942	322.98
917.115	281.51
917.287	344.48
917.459	339.64
917.632	292.95
917.804	262.72
917.976	327.63
918.148	329.18
918.32	327.63
918.493	355.14
918.665	411.33
918.837	371.8
919.009	389.04
919.181	418.3
919.353	386.72
919.525	376.64
919.697	355.72
919.869	378
920.041	419.66
920.213	468.09
920.385	394.08
920.557	385.75
920.729	396.02
920.901	415.39
921.073	398.34
921.244	334.41
921.416	405.9
921.588	401.06
921.76	361.53
921.932	481.85
922.103	345.45
922.275	385.17
922.447	398.34
922.619	296.43
922.79	359.4
922.962	345.65
923.134	386.91
923.305	344.87
923.477	331.89
923.648	353.59
923.82	332.08
923.991	264.27
924.163	288.1
924.335	309.03
924.506	275.9
924.677	346.42
924.849	308.25
925.02	331.7
925.192	362.11
925.363	322.78
925.535	333.25
925.706	317.75
925.877	382.26
926.049	310
926.22	345.84
926.391	331.11
926.562	361.34
926.734	284.42
926.905	365.6
927.076	265.63
927.247	288.49
927.419	261.17
927.59	223.2
927.761	278.03
927.932	270.86
928.103	286.94
928.274	215.45
928.445	213.32
928.616	239.86
928.787	187.93
928.958	257.49
929.129	220.68
929.3	220.1
929.471	192
929.642	161.78
929.813	109.27
929.984	215.25
930.155	102.69
930.326	190.07
930.496	139.3
930.667	111.6
930.838	148.02
931.009	130
931.18	123.03
931.35	126.13
931.521	122.84
931.692	88.74
931.863	50.96
932.033	98.62
932.204	113.73
932.374	101.72
932.545	54.25
932.716	142.21
932.886	95.52
933.057	16.27
933.227	40.3
933.398	117.41
933.568	27.9
933.739	6.59
933.909	48.63
934.08	67.23
934.25	-0.77
934.421	8.14
934.591	66.84
934.761	6.97
934.932	-16.47
935.102	38.17
935.272	11.04
935.443	50.96
935.613	19.76
935.783	60.64
935.953	6.39
936.123	180.18
936.294	25.38
936.464	4.84
936.634	43.01
936.804	-13.17
936.974	-17.82
937.144	64.13
937.314	36.04
937.484	4.65
937.655	-8.33
937.825	54.83
937.995	-5.04
938.165	72.66
938.334	29.84
938.504	52.7
938.674	9.88
938.844	38.36
939.014	92.42
939.184	84.86
939.354	97.07
939.524	88.74
939.694	75.95
939.863	69.75
940.033	121.29
940.203	117.41
940.373	105.01
940.542	86.99
940.712	60.64
940.882	94.35
941.051	88.74
941.221	79.82
941.391	133.69
941.56	47.86
941.73	54.64
941.899	148.41
942.069	63.74
942.238	101.91
942.408	62
942.577	86.02
942.747	95.52
942.916	29.26
943.086	20.34
943.255	109.08
943.425	77.89
943.594	50.57
943.763	14.72
943.933	20.15
944.102	-1.94
944.271	44.37
944.441	27.71
944.61	53.67
944.779	46.69
944.948	121.87
945.117	9.88
945.287	42.04
945.456	18.99
945.625	33.32
945.794	55.02
945.963	31.39
946.132	88.74
946.301	28.48
946.47	50.96
946.639	-14.92
946.808	43.59
946.977	59.29
947.146	90.87
947.315	32.55
947.484	69.56
947.653	39.14
947.822	53.67
947.991	11.82
948.16	111.79
948.329	80.02
948.498	42.62
948.666	55.8
948.835	103.46
949.004	24.8
949.173	38.56
949.341	64.52
949.51	59.09
949.679	84.47
949.847	67.81
950.016	123.03
950.185	94.35
950.353	45.92
950.522	52.7
950.69	86.61
950.859	33.32
951.028	92.03
951.196	59.87
951.365	16.08
951.533	66.07
951.701	79.44
951.87	68.78
952.038	19.76
952.207	51.34
952.375	111.02
952.543	30.81
952.712	53.09
952.88	48.63
953.048	114.5
953.217	47.86
953.385	82.73
953.553	102.49
953.721	34.1
953.89	54.83
954.058	9.49
954.226	38.17
954.394	66.65
954.562	18.41
954.73	66.46
954.898	31.77
955.067	75.37
955.235	36.04
955.403	81.96
955.571	119.35
955.739	57.16
955.907	12.21
956.075	12.01
956.243	36.23
956.41	61.03
956.578	-20.92
956.746	3.87
956.914	43.98
957.082	88.35
957.25	46.89
957.418	14.92
957.585	35.65
957.753	87.96
957.921	12.21
958.089	81.96
958.256	105.01
958.424	45.72
958.592	70.91
958.759	7.36
958.927	79.63
959.095	15.69
959.262	55.99
959.43	89.32
959.597	22.09
959.765	58.9
959.932	23.64
960.1	82.54
960.267	42.24
960.435	43.21
960.602	97.65
960.77	20.54
960.937	13.95
961.104	73.24
961.272	15.5
961.439	38.75
961.606	46.5
961.774	97.07
961.941	61.61
962.108	93.19
962.275	56.38
962.443	98.04
962.61	92.42
962.777	128.45
962.944	95.9
963.111	90.67
963.278	81.57
963.446	97.07
963.613	55.22
963.78	86.41
963.947	75.17
964.114	59.87
964.281	156.55
964.448	77.89
964.615	61.42
964.782	61.61
964.949	107.34
965.116	79.05
965.282	128.26
965.449	37.39
965.616	30.22
965.783	93.97
965.95	79.44
966.117	18.21
966.283	70.52
966.45	77.5
966.617	53.28
966.784	104.82
966.95	105.4
967.117	91.45
967.284	18.79
967.45	50.57
967.617	126.52
967.784	125.55
967.95	147.25
968.117	92.22
968.283	114.31
968.45	171.27
968.616	104.62
968.783	142.02
968.949	80.21
969.116	72.66
969.282	69.75
969.449	96.68
969.615	65.68
969.781	57.35
969.948	62.19
970.114	14.34
970.28	148.22
970.447	83.51
970.613	136.4
970.779	98.62
970.945	107.72
971.112	100.17
971.278	55.99
971.444	109.85
971.61	147.44
971.776	53.67
971.942	96.1
972.108	94.55
972.275	86.41
972.441	92.8
972.607	167.4
972.773	58.71
972.939	88.54
973.105	83.89
973.271	40.69
973.437	33.71
973.602	74.4
973.768	76.92
973.934	66.07
974.1	92.22
974.266	9.69
974.432	89.12
974.598	41.66
974.763	105.98
974.929	57.74
975.095	134.27
975.261	33.71
975.426	24.02
975.592	59.09
975.758	109.47
975.923	27.71
976.089	79.63
976.255	94.55
976.42	86.22
976.586	98.42
976.751	92.42
976.917	154.03
977.082	74.98
977.248	31.97
977.413	23.06
977.579	61.81
977.744	67.81
977.91	24.22
978.075	48.63
978.24	98.62
978.406	62.19
978.571	44.95
978.736	44.56
978.902	83.89
979.067	37.59
979.232	-5.42
979.397	82.73
979.563	108.3
979.728	43.79
979.893	57.54
980.058	61.22
980.223	73.04
980.388	44.76
980.554	82.54
980.719	58.32
980.884	72.46
981.049	99.2
981.214	55.02
981.379	82.73
981.544	54.25
981.709	60.45
981.874	43.98
982.039	64.71
982.204	76.53
982.368	86.22
982.533	58.9
982.698	98.04
982.863	108.89
983.028	52.31
983.193	74.98
983.357	71.3
983.522	81.37
983.687	71.11
983.852	47.86
984.016	57.74
984.181	73.24
984.346	79.44
984.51	81.57
984.675	83.7
984.839	99.39
985.004	94.35
985.168	99.97
985.333	85.25
985.498	60.45
985.662	77.5
985.827	78.47
985.991	56.19
986.155	45.34
986.32	81.57
986.484	148.22
986.649	88.35
986.813	43.98
986.977	54.25
987.142	88.74
987.306	23.25
987.47	42.82
987.634	55.02
987.799	80.02
987.963	75.37
988.127	85.06
988.291	123.61
988.455	74.21
988.62	43.79
988.784	103.85
988.948	92.8
989.112	38.94
989.276	74.01
989.44	55.61
989.604	43.4
989.768	44.17
989.932	129.04
990.096	30.03
990.26	30.22
990.424	32.94
990.588	42.82
990.752	111.21
990.915	92.03
991.079	42.82
991.243	37.59
991.407	63.74
991.571	39.91
991.734	96.68
991.898	73.82
992.062	146.86
992.226	59.48
992.389	28.29
992.553	4.65
992.717	45.14
992.88	24.41
993.044	46.5
993.207	65.29
993.371	55.02
993.535	69.56
993.698	55.61
993.862	56.96
994.025	72.07
994.189	72.07
994.352	72.07
994.515	94.35
994.679	92.61
994.842	60.45
995.006	84.86
995.169	15.69
995.332	14.92
995.496	85.64
995.659	3.87
995.822	41.07
995.985	56.77
996.149	104.62
996.312	50.76
996.475	113.54
996.638	56.96
996.801	97.26
996.964	131.36
997.128	36.23
997.291	46.5
997.454	65.87
997.617	14.92
997.78	78.47
997.943	28.29
998.106	68.78
998.269	36.81
998.432	42.62
998.595	55.61
998.758	15.31
998.92	2.52
999.083	-10.07
999.246	20.73
999.409	7.94
999.572	13.76
999.735	37.2
999.897	59.29
1000.06	27.32
1000.223	3.1
1000.386	68.97
1000.548	88.74
1000.711	74.98
1000.874	42.62
1001.036	-8.14
1001.199	76.72
1001.361	20.34
1001.524	46.11
1001.687	81.76
1001.849	13.37
1002.012	42.24
1002.174	48.82
1002.337	52.51
1002.499	37.01
1002.661	85.06
1002.824	5.04
1002.986	13.17
1003.149	56.77
1003.311	-4.46
1003.473	111.4
1003.636	41.07
1003.798	52.7
1003.96	74.79
1004.123	25.38
1004.285	13.37
1004.447	51.15
1004.609	31
1004.771	102.88
1004.933	6.01
1005.096	7.36
1005.258	1.55
1005.42	16.66
1005.582	75.95
1005.744	33.71
1005.906	-10.46
1006.068	50.18
1006.23	-11.04
1006.392	-14.53
1006.554	12.98
1006.716	57.35
1006.878	52.89
1007.04	-9.11
1007.202	20.73
1007.363	41.27
1007.525	52.12
1007.687	61.42
1007.849	80.02
1008.011	-35.65
1008.172	9.49
1008.334	14.34
1008.496	59.09
1008.658	3.49
1008.819	-0.19
1008.981	-13.37
1009.143	16.27
1009.304	12.01
1009.466	68.97
1009.627	85.83
1009.789	105.98
1009.95	24.99
1010.112	10.46
1010.273	48.24
1010.435	-1.16
1010.596	7.75
1010.758	13.37
1010.919	8.52
1011.081	-6.97
1011.242	12.4
1011.403	42.62
1011.565	35.46
1011.726	7.36
1011.887	-28.48
1012.049	2.91
1012.21	80.41
1012.371	92.03
1012.532	-39.14
1012.693	3.49
1012.855	5.23
1013.016	40.88
1013.177	55.22
1013.338	25.77
1013.499	94.35
1013.66	52.89
1013.821	68.59
1013.982	57.54
1014.143	16.27
1014.304	-1.94
1014.465	62.77
1014.626	67.81
1014.787	24.61
1014.948	106.17
1015.109	-57.16
1015.27	50.76
1015.431	19.57
1015.592	14.34
1015.752	67.62
1015.913	28.67
1016.074	62.19
1016.235	17.63
1016.395	31.77
1016.556	20.34
1016.717	7.94
1016.877	52.7
1017.038	6.2
1017.199	29.45
1017.359	28.87
1017.52	40.3
1017.681	16.47
1017.841	6.97
1018.002	15.69
1018.162	-10.46
1018.323	68.78
1018.483	32.55
1018.644	14.53
1018.804	-27.71
1018.964	-34.29
1019.125	-7.94
1019.285	29.26
1019.446	-4.46
1019.606	-2.13
1019.766	-18.21
1019.926	27.51
1020.087	17.44
1020.247	-4.26
1020.407	18.6
1020.567	58.71
1020.728	14.14
1020.888	-10.27
1021.048	2.32
1021.208	-3.29
1021.368	-13.76
1021.528	71.11
1021.688	40.11
1021.848	59.87
1022.008	33.91
1022.168	0.19
1022.328	37.97
1022.488	47.08
1022.648	-26.74
1022.808	6.2
1022.968	13.56
1023.128	-10.85
1023.288	18.79
1023.448	26.93
1023.608	31.97
1023.767	34.87
1023.927	5.04
1024.087	-18.79
1024.247	-45.92
1024.406	-12.21
1024.566	-26.93
1024.726	-15.89
1024.885	38.75
1025.045	29.64
1025.205	6.2
1025.364	5.81
1025.524	25.19
1025.683	5.04
1025.843	23.44
1026.003	30.61
1026.162	71.49
1026.321	73.62
1026.481	15.69
1026.64	21.31
1026.8	21.12
1026.959	-5.23
1027.119	0.58
1027.278	9.88
1027.437	-13.37
1027.597	9.69
1027.756	30.42
1027.915	19.18
1028.074	42.24
1028.234	-9.88
1028.393	9.49
1028.552	-18.99
1028.711	-53.09
1028.87	53.09
1029.03	-38.94
1029.189	16.66
1029.348	-59.48
1029.507	-13.17
1029.666	27.32
1029.825	-24.61
1029.984	-6.01
1030.143	21.51
1030.302	-39.33
1030.461	-37.97
1030.62	20.73
1030.779	36.04
1030.938	-18.99
1031.097	-22.28
1031.255	45.72
1031.414	46.89
1031.573	47.27
1031.732	-54.64
1031.891	3.49
1032.049	46.89
1032.208	1.74
1032.367	-12.98
1032.525	-4.84
1032.684	8.14
1032.843	8.33
1033.001	-34.68
1033.16	167.98
1033.319	61.22
1033.477	17.24
1033.636	-10.85
1033.794	-15.5
1033.953	15.31
1034.111	20.92
1034.27	38.94
1034.428	10.46
1034.587	-11.24
1034.745	10.85
1034.903	13.17
1035.062	20.34
1035.22	-41.85
1035.378	56.96
1035.537	-13.17
1035.695	30.81
1035.853	0.19
1036.011	42.82
1036.17	7.94
1036.328	-56.96
1036.486	-3.49
1036.644	18.79
1036.802	-61.03
1036.96	-16.66
1037.119	11.43
1037.277	-5.81
1037.435	-27.12
1037.593	-24.8
1037.751	-10.27
1037.909	27.71
1038.067	27.71
