Data from pine_FLMT105791__53__17-20-53-078.txt Node

Date: Mon Mar 20 17:20:53 GMT 2023
User: antho
Spectrometer: FLMT10579
Trigger mode: 0
Integration Time (sec): 1.000000E-1
Scans to average: 10
Electric dark correction enabled: true
Nonlinearity correction enabled: false
Boxcar width: 0
XAxis mode: Wavelengths
Number of Pixels in Spectrum: 3648
>>>>>Begin Spectral Data<<<<<
345.248	-161.88
345.464	-161.88
345.681	-161.88
345.898	-184.93
346.114	-162.65
346.331	-25.09
346.548	23.73
346.764	-11.14
346.981	-16.57
347.197	-6.3
347.414	11.92
347.631	6.49
347.847	43.69
348.064	2.42
348.28	6.1
348.497	-40.4
348.713	5.13
348.93	33.03
349.146	13.08
349.363	13.47
349.579	15.6
349.796	20.05
350.012	-19.86
350.229	33.23
350.445	0.87
350.661	-18.31
350.878	-8.23
351.094	23.54
351.311	11.33
351.527	-0.1
351.743	-8.62
351.96	36.13
352.176	32.65
352.392	12.5
352.609	23.54
352.825	-9.98
353.041	-9.4
353.257	-0.87
353.474	11.92
353.69	10.95
353.906	27.03
354.122	-21.99
354.339	58.41
354.555	6.49
354.771	-17.92
354.987	55.12
355.203	83.02
355.42	-0.48
355.636	-17.53
355.852	-23.54
356.068	22.96
356.284	-29.93
356.5	54.54
356.716	15.4
356.932	27.61
357.148	15.98
357.364	-13.47
357.58	54.54
357.796	66.36
358.012	56.09
358.228	15.6
358.444	-63.06
358.66	80.89
358.876	39.23
359.092	12.11
359.308	32.45
359.524	21.02
359.74	3.97
359.956	-3
360.172	2.62
360.388	50.86
360.604	-9.78
360.819	81.47
361.035	8.43
361.251	38.46
361.467	-30.13
361.683	46.6
361.898	26.83
362.114	53.18
362.33	10.95
362.546	38.65
362.762	0.48
362.977	7.07
363.193	-32.26
363.409	63.06
363.624	-9.78
363.84	14.24
364.056	-16.37
364.271	22.38
364.487	15.02
364.703	-7.27
364.918	-26.64
365.134	-0.1
365.35	-8.82
365.565	117.51
365.781	3.58
365.996	23.73
366.212	72.36
366.427	3.58
366.643	-12.88
366.858	-2.81
367.074	-23.35
367.289	61.32
367.505	104.14
367.72	-36.13
367.936	-7.46
368.151	52.41
368.367	27.61
368.582	32.45
368.798	9.98
369.013	68.1
369.228	30.52
369.444	10.56
369.659	57.45
369.874	45.63
370.09	35.94
370.305	-27.61
370.52	-16.57
370.736	35.94
370.951	5.91
371.166	51.44
371.381	74.88
371.597	39.43
371.812	-20.05
372.027	-30.13
372.242	-11.33
372.458	104.91
372.673	18.7
372.888	1.65
373.103	21.41
373.318	109.56
373.533	32.26
373.749	26.06
373.964	-34.2
374.179	76.05
374.394	6.68
374.609	75.85
374.824	-2.23
375.039	69.85
375.254	-2.23
375.469	69.65
375.684	14.05
375.899	67.13
376.114	22.57
376.329	36.91
376.544	47.37
376.759	51.44
376.974	-2.42
377.189	-9.2
377.404	3.78
377.619	36.13
377.834	-35.94
378.049	-38.65
378.264	-9.78
378.478	37.1
378.693	6.1
378.908	51.44
379.123	18.5
379.338	21.6
379.553	46.01
379.767	18.5
379.982	23.35
380.197	52.02
380.412	50.28
380.626	31.29
380.841	90.77
381.056	47.95
381.271	65.78
381.485	16.37
381.7	-32.07
381.915	47.95
382.129	6.1
382.344	29.55
382.559	16.95
382.773	51.63
382.988	-14.24
383.202	28.77
383.417	11.72
383.632	111.89
383.846	13.47
384.061	12.3
384.275	-7.07
384.49	18.89
384.704	25.67
384.919	17.53
385.133	7.65
385.348	51.63
385.562	-22.96
385.777	43.3
385.991	51.83
386.206	20.05
386.42	12.11
386.634	74.3
386.849	28.77
387.063	23.93
387.277	-1.26
387.492	-7.65
387.706	-13.27
387.92	-20.05
388.135	39.43
388.349	20.25
388.563	15.6
388.778	8.23
388.992	52.21
389.206	45.24
389.42	88.83
389.635	14.05
389.849	17.34
390.063	58.03
390.277	20.25
390.491	88.25
390.706	42.72
390.92	63.45
391.134	45.05
391.348	59.19
391.562	-20.44
391.776	28.77
391.99	6.49
392.205	41.37
392.419	-4.75
392.633	36.91
392.847	45.05
393.061	7.85
393.275	73.14
393.489	30.32
393.703	30.71
393.917	74.5
394.131	-14.05
394.345	53.57
394.559	75.08
394.773	20.25
394.986	49.11
395.2	37.88
395.414	64.03
395.628	-20.83
395.842	1.65
396.056	10.56
396.27	-23.54
396.484	40.2
396.697	33.23
396.911	74.88
397.125	52.8
397.339	57.45
397.553	70.62
397.766	98.91
397.98	78.37
398.194	67.71
398.408	37.49
398.621	36.13
398.835	48.53
399.049	39.43
399.262	82.25
399.476	47.37
399.69	61.71
399.903	108.01
400.117	32.84
400.331	60.93
400.544	13.27
400.758	158.78
400.971	34.78
401.185	74.5
401.398	20.63
401.612	87.86
401.826	59
402.039	67.52
402.253	25.48
402.466	51.44
402.68	26.64
402.893	35.36
403.106	56.67
403.32	57.64
403.533	56.67
403.747	25.87
403.96	66.16
404.174	61.9
404.387	21.41
404.6	43.5
404.814	79.92
405.027	39.04
405.24	65.2
405.454	10.75
405.667	71.78
405.88	-7.85
406.094	53.96
406.307	80.11
406.52	108.79
406.733	42.53
406.947	-0.87
407.16	94.26
407.373	84.57
407.586	62.1
407.799	6.3
408.012	82.83
408.226	37.49
408.439	107.82
408.652	11.53
408.865	62.87
409.078	112.47
409.291	72.17
409.504	30.71
409.717	61.32
409.93	71.59
410.143	69.46
410.357	1.65
410.57	22.18
410.783	39.23
410.996	60.16
411.209	83.99
411.421	90.38
411.634	65
411.847	40.78
412.06	73.33
412.273	66.75
412.486	71.59
412.699	138.43
412.912	46.6
413.125	93.68
413.338	53.76
413.55	84.96
413.763	64.23
413.976	89.61
414.189	22.38
414.402	30.13
414.615	115.57
414.827	21.99
415.04	95.23
415.253	84.96
415.466	103.75
415.678	110.34
415.891	52.8
416.104	81.28
416.316	69.07
416.529	54.35
416.742	91.35
416.954	84.57
417.167	75.27
417.38	52.21
417.592	107.24
417.805	50.66
418.017	22.57
418.23	88.25
418.442	47.95
418.655	60.93
418.868	85.73
419.08	113.05
419.293	114.21
419.505	104.14
419.718	89.41
419.93	106.08
420.142	80.89
420.355	137.08
420.567	115.76
420.78	108.4
420.992	77.21
421.205	130.88
421.417	60.35
421.629	78.95
421.842	39.43
422.054	27.03
422.266	114.41
422.479	128.36
422.691	77.6
422.903	111.11
423.115	66.55
423.328	90.58
423.54	103.17
423.752	96.39
423.964	70.62
424.177	117.9
424.389	55.7
424.601	195.2
424.813	94.06
425.025	138.63
425.238	139.01
425.45	103.75
425.662	90.77
425.874	386.24
426.086	97.55
426.298	128.75
426.51	116.15
426.722	108.79
426.934	87.67
427.146	149.28
427.358	62.1
427.57	151.99
427.782	114.02
427.994	92.32
428.206	82.25
428.418	75.85
428.63	155.48
428.842	145.21
429.054	127.39
429.266	117.51
429.478	69.46
429.69	89.8
429.902	73.53
430.114	145.21
430.325	130.3
430.537	107.63
430.749	112.66
430.961	64.61
431.173	90.58
431.384	157.61
431.596	60.74
431.808	103.56
432.02	120.22
432.231	148.31
432.443	167.3
432.655	151.8
432.867	123.9
433.078	140.37
433.29	193.26
433.502	182.61
433.713	192.88
433.925	140.18
434.136	161.68
434.348	116.15
434.56	101.23
434.771	252.74
434.983	81.47
435.194	130.1
435.406	132.81
435.617	181.83
435.829	225.81
436.04	200.24
436.252	183.19
436.463	207.41
436.675	200.43
436.886	208.38
437.098	184.16
437.309	226.01
437.521	191.71
437.732	186.09
437.943	188.61
438.155	174.08
438.366	132.62
438.578	225.04
438.789	184.74
439	203.73
439.211	190.36
439.423	220.39
439.634	191.91
439.845	214.38
440.057	193.46
440.268	236.66
440.479	166.53
440.69	222.32
440.902	181.44
441.113	207.79
441.324	193.07
441.535	232.4
441.746	275.41
441.957	182.03
442.168	206.83
442.38	222.71
442.591	250.42
442.802	198.88
443.013	192.1
443.224	221.55
443.435	218.26
443.646	218.26
443.857	215.16
444.068	212.25
444.279	210.12
444.49	310.29
444.701	226.78
444.912	331.02
445.123	252.36
445.334	243.83
445.545	263.21
445.756	241.51
445.967	175.63
446.178	254.68
446.388	288.39
446.599	287.62
446.81	275.02
447.021	246.35
447.232	303.51
447.443	306.99
447.653	250.22
447.864	306.22
448.075	303.7
448.286	299.63
448.496	285.29
448.707	292.66
448.918	255.65
449.129	368.22
449.339	229.88
449.55	282.39
449.761	275.22
449.971	343.22
450.182	263.4
450.393	329.66
450.603	251
450.814	326.17
451.024	331.99
451.235	316.1
451.446	361.24
451.656	332.18
451.867	284.71
452.077	352.33
452.288	362.6
452.498	348.65
452.709	311.64
452.919	337.22
453.13	263.79
453.34	355.43
453.55	269.41
453.761	356.4
453.971	330.82
454.182	314.94
454.392	355.62
454.602	378.68
454.813	328.5
455.023	359.3
455.233	302.54
455.444	327.34
455.654	257.59
455.864	306.8
456.075	322.1
456.285	305.83
456.495	306.8
456.705	350.59
456.916	375.58
457.126	382.75
457.336	365.31
457.546	275.99
457.756	292.46
457.967	377.71
458.177	323.46
458.387	355.62
458.597	313.58
458.807	345.74
459.017	317.65
459.227	331.02
459.437	321.14
459.647	365.12
459.857	376.35
460.068	315.32
460.278	385.27
460.488	368.41
460.698	406.19
460.908	324.43
461.117	311.45
461.327	314.74
461.537	390.11
461.747	362.6
461.957	357.56
462.167	458.7
462.377	377.71
462.587	370.74
462.797	412.39
463.007	378.49
463.216	419.75
463.426	418.98
463.636	416.85
463.846	341.29
464.056	331.4
464.265	414.33
464.475	323.07
464.685	364.92
464.895	397.86
465.104	382.94
465.314	407.74
465.524	354.46
465.733	356.01
465.943	460.25
466.153	443.39
466.362	433.9
466.572	402.7
466.782	383.52
466.991	375.77
467.201	445.13
467.41	343.8
467.62	419.56
467.829	394.18
468.039	404.83
468.249	406.77
468.458	370.15
468.668	455.21
468.877	433.32
469.086	471.87
469.296	470.52
469.505	418.2
469.715	452.3
469.924	453.08
470.134	485.05
470.343	474.39
470.552	413.55
470.762	432.54
470.971	390.89
471.18	427.5
471.39	391.85
471.599	427.31
471.808	481.36
472.018	447.27
472.227	497.06
472.436	507.71
472.645	444.94
472.855	439.32
473.064	525.35
473.273	498.22
473.482	486.4
473.691	536.39
473.901	489.11
474.11	459.08
474.319	579.79
474.528	507.91
474.737	564.68
474.946	537.36
475.155	522.25
475.364	538.71
475.573	532.9
475.783	543.17
475.992	536.58
476.201	568.36
476.41	528.06
476.619	488.92
476.828	515.27
477.037	511.78
477.245	527.28
477.454	561.77
477.663	559.25
477.872	532.9
478.081	632.49
478.29	539.1
478.499	629.78
478.708	585.99
478.917	631.91
479.125	554.21
479.334	599.94
479.543	561.58
479.752	588.51
479.961	599.74
480.169	649.15
480.378	575.72
480.587	713.47
480.796	653.41
481.004	644.69
481.213	646.63
481.422	613.31
481.63	624.93
481.839	673.76
482.048	677.63
482.256	659.22
482.465	665.42
482.674	674.34
482.882	677.63
483.091	738.08
483.299	694.68
483.508	692.94
483.716	656.71
483.925	688.09
484.134	672.01
484.342	696.42
484.551	726.65
484.759	676.08
484.967	732.66
485.176	712.31
485.384	728.78
485.593	766.75
485.801	711.15
486.01	700.69
486.218	669.49
486.426	595.09
486.635	621.83
486.843	618.93
487.051	659.22
487.26	616.6
487.468	690.22
487.676	754.55
487.885	650.31
488.093	716.57
488.301	710.96
488.509	755.13
488.717	758.23
488.926	740.6
489.134	716.19
489.342	735.95
489.55	699.52
489.758	753.97
489.967	768.69
490.175	844.64
490.383	765.2
490.591	863.43
490.799	730.33
491.007	840.18
491.215	827.79
491.423	806.09
491.631	799.11
491.839	778.19
492.047	818.68
492.255	751.25
492.463	736.53
492.671	783.8
492.879	863.82
493.087	782.06
493.295	816.55
493.503	863.82
493.711	841.73
493.919	867.31
494.127	885.33
494.334	882.81
494.542	815.39
494.75	849.87
494.958	852.78
495.166	900.63
495.374	871.77
495.581	866.15
495.789	891.14
495.997	955.66
496.205	881.45
496.412	844.25
496.62	881.65
496.828	907.61
497.035	876.61
497.243	899.67
497.451	883.2
497.658	923.5
497.866	898.31
498.074	954.69
498.281	891.53
498.489	980.26
498.696	926.6
498.904	886.49
499.112	868.67
499.319	977.36
499.527	923.88
499.734	957.01
499.942	876.22
500.149	894.05
500.357	922.72
500.564	860.72
500.771	919.23
500.979	882.23
501.186	891.53
501.394	926.6
501.601	908.38
501.808	974.65
502.016	903.15
502.223	942.29
502.43	904.9
502.638	928.15
502.845	888.62
503.052	984.33
503.26	922.72
503.467	1006.23
503.674	950.81
503.881	969.8
504.089	1042.07
504.296	998.86
504.503	903.15
504.71	943.45
504.917	923.11
505.125	959.73
505.332	975.61
505.539	1007.19
505.746	1069.19
505.953	1009.33
506.16	1024.63
506.367	1087.41
506.574	1094.38
506.781	1066.87
506.988	1013.98
507.195	1037.42
507.402	1038.58
507.609	1080.24
507.816	1022.11
508.023	995.96
508.23	990.92
508.437	1011.84
508.644	1056.02
508.851	1082.56
509.058	1113.95
509.265	1079.66
509.472	1107.94
509.679	1143.01
509.885	1038.78
510.092	1076.36
510.299	1096.71
510.506	1073.26
510.713	1089.15
510.92	1094.19
511.126	1116.08
511.333	1146.5
511.54	1131.19
511.746	1208.5
511.953	1164.71
512.16	1217.41
512.367	1129.64
512.573	1112.79
512.78	1170.33
512.987	1142.43
513.193	1142.62
513.4	1075.39
513.606	1123.83
513.813	1162
514.02	1130.03
514.226	1223.22
514.433	1183.89
514.639	1132.36
514.846	1145.92
515.052	1109.69
515.259	1157.35
515.465	1145.14
515.672	1181.57
515.878	1238.34
516.085	1178.47
516.291	1241.24
516.497	1144.56
516.704	1157.16
516.91	1106.39
517.117	1100
517.323	1037.03
517.529	1073.65
517.736	1082.56
517.942	1091.48
518.148	1100.77
518.354	1171.69
518.561	1176.72
518.767	1160.26
518.973	1207.92
519.179	1211.21
519.386	1161.81
519.592	1181.95
519.798	1163.74
520.004	1250.35
520.21	1242.79
520.417	1265.46
520.623	1272.05
520.829	1311.96
521.035	1281.73
521.241	1301.11
521.447	1300.72
521.653	1421.23
521.859	1310.02
522.065	1334.24
522.271	1399.53
522.477	1378.03
522.683	1422.4
522.889	1377.83
523.095	1348.77
523.301	1364.46
523.507	1323.78
523.713	1368.53
523.919	1335.21
524.125	1460.76
524.331	1383.84
524.537	1488.08
524.742	1467.73
524.948	1468.7
525.154	1454.17
525.36	1544.26
525.566	1488.27
525.772	1517.33
525.977	1395.27
526.183	1502.99
526.389	1498.34
526.595	1424.91
526.8	1434.02
527.006	1390.81
527.212	1383.84
527.417	1331.33
527.623	1302.08
527.829	1415.61
528.034	1436.93
528.24	1446.03
528.446	1436.15
528.651	1511.33
528.857	1501.25
529.062	1557.82
529.268	1528.18
529.473	1551.43
529.679	1573.71
529.884	1641.52
530.09	1564.8
530.295	1570.03
530.501	1573.32
530.706	1573.91
530.912	1551.82
531.117	1567.9
531.323	1586.31
531.528	1631.06
531.733	1602.58
531.939	1590.57
532.144	1659.54
532.35	1625.83
532.555	1679.5
532.76	1634.16
532.966	1606.07
533.171	1604.91
533.376	1549.69
533.581	1524.31
533.787	1585.34
533.992	1620.99
534.197	1629.7
534.402	1620.99
534.607	1631.84
534.813	1715.53
535.018	1605.68
535.223	1610.14
535.428	1636.29
535.633	1714.18
535.838	1709.14
536.043	1669.04
536.249	1730.26
536.454	1683.57
536.659	1726.38
536.864	1670
537.069	1677.17
537.274	1701.97
537.479	1708.75
537.684	1700.04
537.889	1649.85
538.094	1733.17
538.299	1662.06
538.504	1715.34
538.708	1706.82
538.913	1747.89
539.118	1724.25
539.323	1712.43
539.528	1696.16
539.733	1667.29
539.938	1698.1
540.142	1731.23
540.347	1682.99
540.552	1647.34
540.757	1655.86
540.962	1703.72
541.166	1624.28
541.371	1614.4
541.576	1681.82
541.781	1606.07
541.985	1702.55
542.19	1677.37
542.395	1778.7
542.599	1801.75
542.804	1733.94
543.008	1783.15
543.213	1713.4
543.418	1669.81
543.622	1730.07
543.827	1664.77
544.031	1779.08
544.236	1769.2
544.44	1723.87
544.645	1825.58
544.849	1777.15
545.054	1816.09
545.258	1845.73
545.463	1800.78
545.667	1752.73
545.872	1781.22
546.076	1786.45
546.281	1777.73
546.485	1745.37
546.689	1779.08
546.894	1805.82
547.098	1792.06
547.302	1740.14
547.507	1763.97
547.711	1812.99
547.915	1835.27
548.119	1742.85
548.324	1766.68
548.528	1859.88
548.732	1782.38
548.936	1815.12
549.141	1871.11
549.345	1765.52
549.549	1848.64
549.753	1833.14
549.957	1908.31
550.161	1893.01
550.366	1835.66
550.57	1789.74
550.774	1796.13
550.978	1838.37
551.182	1866.08
551.386	1829.07
551.59	1805.43
551.794	1799.23
551.998	1847.09
552.202	1835.85
552.406	1804.27
552.61	1865.5
552.814	1810.86
553.018	1870.53
553.222	1792.06
553.426	1815.7
553.63	1919.16
553.833	1817.06
554.037	1758.93
554.241	1854.06
554.445	1832.17
554.649	1823.26
554.853	1800.4
555.056	1886.61
555.26	1843.6
555.464	1848.64
555.668	1842.44
555.871	1898.24
556.075	1862.59
556.279	1817.06
556.483	1752.35
556.686	1791.48
556.89	1829.65
557.094	1817.83
557.297	1741.5
557.501	1817.25
557.704	1758.55
557.908	1822.87
558.112	1758.55
558.315	1854.65
558.519	1799.62
558.722	1758.35
558.926	1777.34
559.129	1696.74
559.333	1695.77
559.536	1695.77
559.74	1702.75
559.943	1645.4
560.147	1701.78
560.35	1688.22
560.553	1701.78
560.757	1677.56
560.96	1804.27
561.164	1730.65
561.367	1828.3
561.57	1745.18
561.774	1748.28
561.977	1736.65
562.18	1709.92
562.384	1809.5
562.587	1705.85
562.79	1720.38
562.993	1713.79
563.197	1765.13
563.4	1849.22
563.603	1751.18
563.806	1818.61
564.009	1689.19
564.212	1764.36
564.416	1683.95
564.619	1744.21
564.822	1663.22
565.025	1732.2
565.228	1682.6
565.431	1689.57
565.634	1606.26
565.837	1664.19
566.04	1630.67
566.243	1643.07
566.446	1551.62
566.649	1696.74
566.852	1626.99
567.055	1610.14
567.258	1626.99
567.461	1727.74
567.664	1709.53
567.867	1631.06
568.07	1676.01
568.273	1631.64
568.475	1671.55
568.678	1621.95
568.881	1634.94
569.084	1629.7
569.287	1542.13
569.489	1552.4
569.692	1620.79
569.895	1621.18
570.098	1526.63
570.3	1576.04
570.503	1499.89
570.706	1534.77
570.909	1538.06
571.111	1451.26
571.314	1474.9
571.516	1491.76
571.719	1518.88
571.922	1521.98
572.124	1485.36
572.327	1520.24
572.529	1478.39
572.732	1464.24
572.935	1517.14
573.137	1588.05
573.34	1509.78
573.542	1559.96
573.745	1533.22
573.947	1509.19
574.15	1506.09
574.352	1461.92
574.554	1517.91
574.757	1474.51
574.959	1500.28
575.162	1456.11
575.364	1423.95
575.566	1532.25
575.769	1465.6
575.971	1478
576.173	1360.59
576.376	1451.26
576.578	1463.28
576.78	1515.2
576.982	1375.31
577.185	1442.74
577.387	1394.5
577.589	1402.63
577.791	1433.05
577.993	1443.51
578.196	1405.54
578.398	1435.76
578.6	1493.31
578.802	1375.9
579.004	1369.5
579.206	1407.09
579.408	1439.45
579.61	1364.46
579.812	1456.3
580.014	1401.66
580.216	1384.23
580.418	1421.43
580.62	1385.97
580.822	1356.52
581.024	1411.55
581.226	1480.13
581.428	1385.97
581.63	1507.64
581.832	1376.48
582.034	1464.83
582.236	1408.06
582.438	1455.91
582.64	1480.33
582.841	1506.48
583.043	1515.98
583.245	1438.86
583.447	1466.96
583.649	1446.23
583.85	1463.47
584.052	1444.48
584.254	1414.26
584.456	1491.95
584.657	1392.56
584.859	1422.01
585.061	1408.25
585.262	1396.24
585.464	1376.48
585.666	1441
585.867	1365.82
586.069	1431.31
586.27	1417.94
586.472	1387.33
586.674	1391.01
586.875	1375.51
587.077	1374.73
587.278	1373.18
587.48	1390.23
587.681	1484.01
587.883	1401.08
588.084	1356.13
588.285	1347.03
588.487	1339.86
588.688	1359.81
588.89	1284.25
589.091	1239.11
589.292	1250.74
589.494	1206.56
589.695	1237.37
589.896	1130.81
590.098	1173.04
590.299	1263.72
590.5	1213.73
590.702	1234.27
590.903	1265.65
591.104	1326.3
591.305	1273.02
591.507	1365.24
591.708	1290.26
591.909	1288.32
592.11	1352.26
592.311	1345.67
592.512	1277.08
592.714	1256.35
592.915	1240.27
593.116	1280.77
593.317	1271.27
593.518	1290.26
593.719	1266.04
593.92	1312.93
594.121	1336.95
594.322	1298.98
594.523	1271.85
594.724	1242.6
594.925	1265.46
595.126	1290.65
595.327	1296.07
595.528	1248.22
595.729	1288.71
595.929	1269.72
596.13	1279.8
596.331	1302.08
596.532	1284.25
596.733	1348.77
596.934	1313.12
597.135	1340.83
597.335	1322.42
597.536	1293.94
597.737	1313.7
597.938	1221.29
598.138	1295.68
598.339	1303.24
598.54	1285.8
598.74	1291.03
598.941	1256.55
599.142	1328.43
599.342	1304.02
599.543	1273.79
599.744	1303.82
599.944	1273.79
600.145	1266.24
600.345	1291.81
600.546	1325.33
600.746	1346.64
600.947	1341.22
601.147	1288.32
601.348	1331.92
601.548	1251.51
601.749	1286.38
601.949	1228.84
602.15	1260.04
602.35	1264.3
602.551	1326.49
602.751	1246.47
602.951	1243.95
603.152	1176.34
603.352	1314.48
603.552	1275.15
603.753	1306.34
603.953	1292
604.153	1304.79
604.354	1263.14
604.554	1271.08
604.754	1243.37
604.954	1265.07
605.155	1281.93
605.355	1285.8
605.555	1301.3
605.755	1322.42
605.955	1292.78
606.155	1295.68
606.356	1267.78
606.556	1309.25
606.756	1303.82
606.956	1237.56
607.156	1299.17
607.356	1224.58
607.556	1242.02
607.756	1259.07
607.956	1318.74
608.156	1281.54
608.356	1265.46
608.556	1309.44
608.756	1293.17
608.956	1215.09
609.156	1258.29
609.356	1212.37
609.556	1230.97
609.755	1246.67
609.955	1207.14
610.155	1258.68
610.355	1245.31
610.555	1215.67
610.755	1227.1
610.954	1152.89
611.154	1214.7
611.354	1276.31
611.554	1193
611.753	1199.78
611.953	1156.38
612.153	1228.07
612.352	1229.04
612.552	1202.69
612.752	1130.81
612.951	1184.09
613.151	1177.11
613.351	1131.77
613.55	1163.94
613.75	1183.89
613.949	1185.64
614.149	1164.32
614.348	1181.57
614.548	1188.93
614.747	1103.68
614.947	1123.25
615.146	1075.39
615.346	1205.2
615.545	1152.89
615.745	1144.56
615.944	1176.53
616.144	1143.59
616.343	1166.84
616.542	1138.17
616.742	1173.43
616.941	1157.93
617.14	1086.83
617.34	1129.06
617.539	1149.21
617.738	1133.91
617.938	1206.17
618.137	1159.87
618.336	1106.59
618.535	1153.09
618.734	1124.8
618.934	1155.22
619.133	1154.06
619.332	1153.28
619.531	1128.29
619.73	1128.67
619.929	1184.28
620.128	1165.29
620.328	1239.89
620.527	1109.69
620.726	1135.84
620.925	1137.59
621.124	1125.19
621.323	1151.54
621.522	1090.89
621.721	1067.64
621.92	1075.01
622.119	1159.87
622.318	1103.1
622.517	1093.22
622.715	1108.72
622.914	1048.08
623.113	1078.88
623.312	1049.04
623.511	1124.61
623.71	1066.87
623.909	1061.83
624.107	1130.81
624.306	1061.64
624.505	1049.04
624.704	1050.01
624.902	1040.13
625.101	1101.16
625.3	1068.61
625.499	1026.76
625.697	1059.51
625.896	1038.19
626.095	1073.07
626.293	1027.34
626.492	1018.24
626.69	1044.39
626.889	1028.31
627.088	1092.64
627.286	1022.5
627.485	1009.71
627.683	1003.13
627.882	1054.47
628.08	965.15
628.279	982.59
628.477	1060.48
628.676	958.76
628.874	975.23
629.073	964.57
629.271	966.12
629.469	1031.61
629.668	998.48
629.866	960.31
630.065	990.15
630.263	1019.59
630.461	954.88
630.66	987.63
630.858	1042.46
631.056	1016.3
631.254	1013.39
631.453	991.11
631.651	1035.48
631.849	1029.48
632.047	1004.68
632.245	998.67
632.444	974.84
632.642	1014.75
632.84	1023.47
633.038	991.7
633.236	967.86
633.434	1018.82
633.632	955.85
633.83	961.47
634.028	1036.26
634.227	1008.94
634.425	1069.78
634.623	1024.63
634.821	1010.88
635.019	1059.12
635.216	1029.09
635.414	1042.07
635.612	1031.22
635.81	983.56
636.008	1071.91
636.206	1032.77
636.404	1031.03
636.602	937.25
636.8	1008.94
636.997	1014.75
637.195	1022.11
637.393	1015.72
637.591	1067.45
637.789	1025.6
637.986	997.12
638.184	1009.91
638.382	1055.44
638.58	1024.44
638.777	1097.09
638.975	1009.71
639.173	1028.31
639.37	1041.29
639.568	1039.36
639.765	998.67
639.963	981.81
640.161	1069.58
640.358	1019.4
640.556	974.84
640.753	970.77
640.951	945.2
641.148	1005.64
641.346	974.84
641.543	974.06
641.741	998.28
641.938	935.7
642.136	976
642.333	952.75
642.531	1040.13
642.728	1018.24
642.925	1016.11
643.123	983.36
643.32	1005.84
643.517	961.66
643.715	998.86
643.912	963.41
644.109	990.15
644.306	993.25
644.504	929.11
644.701	944.42
644.898	986.85
645.095	914
645.293	927.37
645.49	978.91
645.687	982.78
645.884	980.07
646.081	888.04
646.278	907.03
646.475	889.59
646.672	935.12
646.87	933.96
647.067	903.15
647.264	939
647.461	878.93
647.658	862.47
647.855	930.08
648.052	884.55
648.249	829.72
648.446	887.46
648.642	868.08
648.839	876.61
649.036	835.34
649.233	854.13
649.43	867.5
649.627	867.12
649.824	864.98
650.021	844.06
650.217	830.3
650.414	844.83
650.611	894.05
650.808	905.67
651.004	861.5
651.201	900.25
651.398	943.06
651.595	885.33
651.791	846.58
651.988	918.65
652.185	823.33
652.381	872.35
652.578	808.41
652.775	884.55
652.971	817.71
653.168	852
653.364	877.77
653.561	803.18
653.757	862.66
653.954	862.85
654.15	818.29
654.347	908
654.543	853.55
654.74	806.28
654.936	815.97
655.133	852.2
655.329	866.73
655.525	839.22
655.722	859.17
655.918	777.8
656.115	835.92
656.311	716.38
656.507	717.93
656.704	706.11
656.9	746.02
657.096	698.56
657.292	727.23
657.489	785.55
657.685	774.31
657.881	741.37
658.077	757.26
658.273	766.17
658.47	862.47
658.666	827.98
658.862	814.8
659.058	780.32
659.254	878.93
659.45	771.99
659.646	830.3
659.842	803.95
660.038	839.22
660.234	785.16
660.43	754.16
660.626	884.36
660.822	853.36
661.018	853.55
661.214	816.16
661.41	795.43
661.606	840.18
661.802	828.75
661.998	807.25
662.194	789.42
662.39	830.3
662.586	825.65
662.781	811.51
662.977	839.8
663.173	807.64
663.369	806.67
663.564	823.52
663.76	819.65
663.956	796.2
664.152	838.63
664.347	750.29
664.543	756.1
664.739	799.5
664.934	735.17
665.13	720.26
665.326	791.75
665.521	771.79
665.717	725.1
665.912	754.94
666.108	693.32
666.304	751.45
666.499	755.9
666.695	698.94
666.89	740.6
667.086	819.07
667.281	778.96
667.477	830.88
667.672	789.04
667.867	781.87
668.063	756.68
668.258	727.62
668.454	736.92
668.649	837.28
668.844	790.97
669.04	780.32
669.235	731.11
669.43	746.41
669.626	693.13
669.821	751.45
670.016	717.35
670.211	731.88
670.407	681.31
670.602	743.89
670.797	733.62
670.992	778.19
671.187	693.52
671.382	776.44
671.578	726.65
671.773	712.89
671.968	685.57
672.163	743.7
672.358	753.39
672.553	715.41
672.748	702.04
672.943	748.15
673.138	727.04
673.333	711.34
673.528	689.26
673.723	728.01
673.918	728.78
674.113	695.26
674.308	793.88
674.503	744.67
674.698	754.74
674.892	725.49
675.087	744.09
675.282	758.62
675.477	725.68
675.672	723.55
675.867	701.27
676.061	672.98
676.256	691.39
676.451	705.53
676.646	715.41
676.84	709.02
677.035	648.38
677.23	661.16
677.424	731.11
677.619	751.25
677.814	748.54
678.008	774.31
678.203	654.38
678.397	689.84
678.592	724.13
678.787	769.47
678.981	680.92
679.176	699.91
679.37	677.44
679.565	679.18
679.759	680.54
679.954	729.56
680.148	759
680.342	724.52
680.537	737.31
680.731	710.96
680.926	742.15
681.12	763.46
681.314	694.1
681.509	722.19
681.703	737.69
681.897	729.75
682.092	682.86
682.286	694.49
682.48	761.33
682.674	721.22
682.869	674.72
683.063	710.57
683.257	777.6
683.451	694.1
683.645	759.59
683.839	694.49
684.034	697.78
684.228	728.97
684.422	704.37
684.616	675.5
684.81	716.38
685.004	677.63
685.198	689.45
685.392	717.35
685.586	686.35
685.78	719.29
685.974	754.55
686.168	711.34
686.362	764.62
686.556	650.31
686.75	631.71
686.944	611.76
687.138	628.03
687.331	557.12
687.525	560.41
687.719	508.68
687.913	548.01
688.107	556.54
688.301	544.53
688.494	573.39
688.688	525.15
688.882	521.66
689.076	485.63
689.269	578.82
689.463	676.47
689.657	578.24
689.85	569.71
690.044	602.07
690.238	606.72
690.431	603.43
690.625	621.06
690.818	614.47
691.012	644.5
691.205	673.95
691.399	623.19
691.593	674.34
691.786	726.65
691.98	744.28
692.173	739.82
692.366	710.57
692.56	738.66
692.753	789.81
692.947	680.34
693.14	752.03
693.333	772.76
693.527	703.01
693.72	739.82
693.914	744.67
694.107	746.8
694.3	784.58
694.493	735.95
694.687	776.44
694.88	730.72
695.073	821.78
695.266	769.85
695.46	804.15
695.653	863.43
695.846	828.75
696.039	744.28
696.232	775.09
696.425	834.57
696.618	847.93
696.812	835.92
697.005	925.63
697.198	990.34
697.391	925.43
697.584	947.71
697.777	992.47
697.97	953.72
698.163	990.15
698.356	925.63
698.549	1036.64
698.742	970.77
698.935	949.07
699.127	1003.51
699.32	940.16
699.513	963.6
699.706	1007.97
699.899	1003.71
700.092	984.53
700.285	1018.04
700.477	977.55
700.67	1029.09
700.863	1021.53
701.056	1124.02
701.248	1046.14
701.441	1096.32
701.634	1063.19
701.826	1162.77
702.019	1018.82
702.212	1109.3
702.404	1055.24
702.597	1087.02
702.79	1105.81
702.982	1095.74
703.175	1180.4
703.367	1162.58
703.56	1158.9
703.752	1264.49
703.945	1182.73
704.137	1240.27
704.33	1256.16
704.522	1248.41
704.715	1281.54
704.907	1307.31
705.1	1346.06
705.292	1345.67
705.484	1282.12
705.677	1355.75
705.869	1325.91
706.061	1402.63
706.254	1418.91
706.446	1332.88
706.638	1355.94
706.831	1475.87
707.023	1358.07
707.215	1512.88
707.407	1480.13
707.599	1463.28
707.792	1485.56
707.984	1509.58
708.176	1522.76
708.368	1494.47
708.56	1524.11
708.752	1503.96
708.944	1505.51
709.136	1561.51
709.329	1527.79
709.521	1688.8
709.713	1635.52
709.905	1633.19
710.097	1638.23
710.289	1553.37
710.481	1678.14
710.672	1656.05
710.864	1665.94
711.056	1733.17
711.248	1728.13
711.44	1719.22
711.632	1699.84
711.824	1743.82
712.016	1795.75
712.207	1761.07
712.399	1756.22
712.591	1842.05
712.783	1825.58
712.975	1813.18
713.166	1795.75
713.358	1812.41
713.55	1856.58
713.741	1883.13
713.933	1878.48
714.125	1880.8
714.316	1837.98
714.508	1946.68
714.7	1900.56
714.891	1914.9
715.083	1974.77
715.274	1920.33
715.466	1934.66
715.657	1965.08
715.849	1879.64
716.04	1928.66
716.232	1839.53
716.423	1950.94
716.615	1833.91
716.806	1829.46
716.998	1748.08
717.189	1746.73
717.381	1645.4
717.572	1634.35
717.763	1655.28
717.955	1632.22
718.146	1587.27
718.337	1552.79
718.528	1566.35
718.72	1456.49
718.911	1551.82
719.102	1487.3
719.293	1517.14
719.485	1500.67
719.676	1522.76
719.867	1488.27
720.058	1495.24
720.249	1483.04
720.44	1540.19
720.632	1561.51
720.823	1611.69
721.014	1768.43
721.205	1757.77
721.396	1785.09
721.587	1889.33
721.778	1925.94
721.969	1985.42
722.16	2017.97
722.351	2029.79
722.542	2118.14
722.733	2123.37
722.924	2049.56
723.115	2086.75
723.305	2078.42
723.496	2045.68
723.687	1977.67
723.878	2013.52
724.069	1992.59
724.26	1986.97
724.45	1942.61
724.641	1913.35
724.832	1961.79
725.023	1948.61
725.213	1914.51
725.404	1919.74
725.595	1928.27
725.785	1920.71
725.976	1998.21
726.167	1936.99
726.357	1977.67
726.548	2062.54
726.739	2003.83
726.929	2065.25
727.12	2069.9
727.31	2060.99
727.501	2017.59
727.691	2043.16
727.882	2057.69
728.072	2087.92
728.263	2081.52
728.453	2110.59
728.644	2166.77
728.834	2139.84
729.024	2119.5
729.215	2056.53
729.405	2110.2
729.596	2193.7
729.786	2203
729.976	2205.13
730.167	2215.02
730.357	2159.6
730.547	2202.81
730.737	2246.21
730.928	2271.2
731.118	2310.15
731.308	2240.01
731.498	2249.5
731.688	2321.38
731.879	2312.47
732.069	2369.24
732.259	2409.54
732.449	2447.32
732.639	2473.09
732.829	2499.05
733.019	2545.55
733.209	2624.4
733.399	2562.99
733.589	2691.63
733.779	2693.57
733.969	2688.73
734.159	2760.8
734.349	2797.23
734.539	2844.5
734.729	2799.55
734.919	2860.97
735.109	2888.67
735.299	2816.6
735.488	2833.65
735.678	2839.85
735.868	2839.08
736.058	2816.6
736.248	2802.65
736.437	2758.67
736.627	2806.53
736.817	2886.35
737.007	2844.11
737.196	2895.46
737.386	2857.87
737.576	2816.99
737.765	2872.01
737.955	2856.71
738.144	2963.65
738.334	2923.74
738.524	2891.19
738.713	2951.84
738.903	2935.56
739.092	2927.23
739.282	2946.02
739.471	2980.51
739.661	2924.52
739.85	2992.91
740.04	3051.81
740.229	2982.06
740.419	3037.08
740.608	3039.22
740.797	3026.62
740.987	3090.56
741.176	3083.78
741.365	3031.47
741.555	2996.59
741.744	3098.31
741.933	3030.3
742.123	3073.51
742.312	3139.58
742.501	3143.06
742.69	3135.9
742.88	3052.39
743.069	3184.53
743.258	3108
743.447	3191.69
743.636	3145.2
743.825	3137.83
744.014	3157.98
744.204	3195.57
744.393	3104.31
744.582	3211.46
744.771	3238.39
744.96	3167.67
745.149	3224.63
745.338	3120.4
745.527	3187.24
745.716	3205.84
745.905	3149.65
746.094	3226.57
746.283	3221.34
746.471	3229.09
746.66	3296.71
746.849	3262.61
747.038	3275.39
747.227	3176.97
747.416	3237.03
747.604	3192.66
747.793	3189.56
747.982	3209.91
748.171	3252.14
748.359	3264.16
748.548	3209.71
748.737	3248.27
748.926	3249.63
749.114	3159.73
749.303	3192.47
749.491	3195.38
749.68	3156.63
749.869	3210.49
750.057	3172.51
750.246	3139.58
750.434	3184.72
750.623	3152.56
750.811	3172.71
751	3177.94
751.188	3178.33
751.377	3207.58
751.565	3109.16
751.754	3139.19
751.942	3084.94
752.131	3179.68
752.319	3071.38
752.507	3094.63
752.696	3173.68
752.884	3177.36
753.072	3131.05
753.261	3130.08
753.449	3156.82
753.637	3125.82
753.825	3166.9
754.014	3129.5
754.202	3087.85
754.39	3200.99
754.578	3189.95
754.766	3100.05
754.955	3114.39
755.143	3187.63
755.331	3117.1
755.519	3134.73
755.707	3101.99
755.895	3089.01
756.083	3124.46
756.271	3064.6
756.459	3066.92
756.647	3143.26
756.835	3066.34
757.023	3032.24
757.211	3046.38
757.399	3043.09
757.587	3059.17
757.775	3008.22
757.963	3019.26
758.151	3057.82
758.339	2978.19
758.526	2976.25
758.714	2999.89
758.902	2922.19
759.09	2863.29
759.278	2644.94
759.465	2422.91
759.653	2118.92
759.841	1906.38
760.028	1631.06
760.216	1423.36
760.404	1377.64
760.591	1106.2
760.779	893.27
760.967	802.21
761.154	670.85
761.342	734.98
761.529	702.43
761.717	747.96
761.905	755.71
762.092	822.75
762.28	779.74
762.467	769.66
762.655	697.78
762.842	733.62
763.029	761.52
763.217	762.3
763.404	771.79
763.592	804.92
763.779	745.83
763.966	789.23
764.154	829.72
764.341	896.57
764.528	894.05
764.716	954.5
764.903	1027.93
765.09	1045.75
765.277	1113.76
765.465	1246.28
765.652	1291.23
765.839	1363.11
766.026	1496.6
766.213	1524.5
766.4	1613.82
766.588	1800.2
766.775	1816.67
766.962	1913.35
767.149	1933.11
767.336	2094.5
767.523	2048.01
767.71	2179.17
767.897	2283.99
768.084	2359.74
768.271	2355.48
768.458	2415.54
768.645	2458.36
768.832	2443.83
769.019	2459.33
769.206	2531.99
769.392	2610.07
769.579	2671.48
769.766	2599.02
769.953	2571.12
770.14	2679.81
770.327	2640.68
770.513	2692.6
770.7	2764.48
770.887	2701.13
771.073	2724.76
771.26	2707.71
771.447	2674.39
771.634	2647.46
771.82	2768.55
772.007	2664.7
772.193	2706.75
772.38	2777.46
772.567	2689.7
772.753	2686.21
772.94	2741.04
773.126	2756.54
773.313	2777.46
773.499	2729.03
773.686	2750.53
773.872	2727.86
774.059	2727.28
774.245	2654.05
774.432	2711.4
774.618	2634.67
774.804	2724.57
774.991	2650.37
775.177	2672.45
775.363	2649.01
775.55	2699.96
775.736	2640.1
775.922	2657.73
776.109	2665.09
776.295	2668.19
776.481	2659.67
776.667	2665.28
776.853	2663.93
777.04	2646.1
777.226	2605.22
777.412	2730
777.598	2582.94
777.784	2645.91
777.97	2627.89
778.156	2672.26
778.342	2620.92
778.528	2599.41
778.715	2553.49
778.901	2555.82
779.087	2608.32
779.272	2580.03
779.458	2535.28
779.644	2603.09
779.83	2589.33
780.016	2633.9
780.202	2525.59
780.388	2525.01
780.574	2475.61
780.76	2508.74
780.946	2603.09
781.131	2526.75
781.317	2510.09
781.503	2516.1
781.689	2512.8
781.874	2618.2
782.06	2477.74
782.246	2538.19
782.432	2481.61
782.617	2484.32
782.803	2547.87
782.989	2441.89
783.174	2458.94
783.36	2414.96
783.545	2459.33
783.731	2449.06
783.916	2358.97
784.102	2449.84
784.288	2398.11
784.473	2433.37
784.659	2367.3
784.844	2442.86
785.029	2391.71
785.215	2351.61
785.4	2367.69
785.586	2425.04
785.771	2341.53
785.956	2401.98
786.142	2379.89
786.327	2348.7
786.512	2356.06
786.698	2345.02
786.883	2303.95
787.068	2329.71
787.254	2340.18
787.439	2334.17
787.624	2310.15
787.809	2254.54
787.994	2297.94
788.18	2385.51
788.365	2229.74
788.55	2247.76
788.735	2288.06
788.92	2251.83
789.105	2268.88
789.29	2280.89
789.475	2223.35
789.66	2236.52
789.845	2195.06
790.03	2216.18
790.215	2200.68
790.4	2236.33
790.585	2242.91
790.77	2220.63
790.955	2123.57
791.14	2220.63
791.325	2209.59
791.51	2100.12
791.695	2189.05
791.879	2188.86
792.064	2116.2
792.249	2220.83
792.434	2156.7
792.618	2171.62
792.803	2220.83
792.988	2167.93
793.173	2155.34
793.357	2234
793.542	2136.74
793.727	2191.38
793.911	2170.07
794.096	2171.23
794.281	2206.88
794.465	2302.2
794.65	2210.56
794.834	2221.6
795.019	2264.42
795.203	2237.49
795.388	2217.73
795.572	2247.56
795.757	2223.93
795.941	2218.12
796.126	2233.61
796.31	2139.26
796.494	2208.62
796.679	2162.12
796.863	2180.72
797.048	2241.17
797.232	2202.03
797.416	2216.37
797.601	2186.34
797.785	2266.75
797.969	2275.66
798.153	2189.63
798.338	2235.75
798.522	2233.81
798.706	2248.73
798.89	2258.22
799.074	2382.03
799.258	2281.66
799.443	2212.5
799.627	2249.11
799.811	2290
799.995	2235.75
800.179	2215.98
800.363	2221.6
800.547	2271.98
800.731	2328.55
800.915	2181.5
801.099	2198.55
801.283	2215.98
801.467	2240.01
801.651	2203.39
801.835	2253.96
802.019	2210.95
802.202	2249.11
802.386	2195.83
802.57	2169.87
802.754	2226.64
802.938	2134.61
803.121	2189.83
803.305	2243.88
803.489	2196.61
803.673	2234.97
803.856	2227.03
804.04	2208.62
804.224	2210.37
804.407	2189.05
804.591	2202.62
804.775	2185.57
804.958	2217.73
805.142	2287.86
805.326	2206.88
805.509	2215.21
805.693	2238.26
805.876	2233.81
806.06	2215.98
806.243	2268.3
806.427	2279.92
806.61	2280.31
806.794	2246.6
806.977	2296.2
807.16	2232.45
807.344	2222.77
807.527	2248.92
807.71	2216.18
807.894	2221.99
808.077	2272.56
808.26	2167.74
808.444	2198.16
808.627	2239.43
808.81	2183.43
808.993	2178.4
809.177	2112.14
809.36	2141.58
809.543	2185.57
809.726	2104.39
809.909	2101.09
810.092	2073.77
810.276	2086.37
810.459	2088.5
810.642	2101.67
810.825	2042
811.008	2053.24
811.191	2009.26
811.374	2008.09
811.557	2043.55
811.74	2071.06
811.923	1897.46
812.106	1954.81
812.289	1901.34
812.472	1915.48
812.654	1964.69
812.837	1935.24
813.02	1856.39
813.203	1856.58
813.386	1752.93
813.569	1712.05
813.751	1705.65
813.934	1730.65
814.117	1681.05
814.3	1661.29
814.482	1632.61
814.665	1594.06
814.848	1571.77
815.03	1535.54
815.213	1554.72
815.396	1478.78
815.578	1505.71
815.761	1464.44
815.943	1557.82
816.126	1433.25
816.309	1433.63
816.491	1346.64
816.674	1283.09
816.856	1376.86
817.039	1370.66
817.221	1463.47
817.403	1374.15
817.586	1394.69
817.768	1421.04
817.951	1344.7
818.133	1350.71
818.315	1368.34
818.498	1404.96
818.68	1445.84
818.862	1407.67
819.045	1428.4
819.227	1435.76
819.409	1430.92
819.591	1459.21
819.774	1410.38
819.956	1366.6
820.138	1435.57
820.32	1447.78
820.502	1495.24
820.684	1570.22
820.866	1530.7
821.048	1591.73
821.231	1593.09
821.413	1614.98
821.595	1547.17
821.777	1556.27
821.959	1544.46
822.141	1615.95
822.323	1477.81
822.505	1457.85
822.686	1366.4
822.868	1342.38
823.05	1236.98
823.232	1229.04
823.414	1154.64
823.596	1269.53
823.778	1266.82
823.96	1286.38
824.141	1267.78
824.323	1288.13
824.505	1348
824.687	1388.88
824.868	1412.32
825.05	1525.08
825.232	1545.23
825.413	1609.36
825.595	1521.98
825.777	1480.52
825.958	1541.36
826.14	1509
826.321	1558.99
826.503	1530.7
826.685	1597.54
826.866	1598.9
827.048	1551.04
827.229	1525.28
827.411	1451.65
827.592	1453.01
827.773	1466.38
827.955	1390.62
828.136	1408.25
828.318	1355.75
828.499	1384.03
828.68	1383.06
828.862	1370.28
829.043	1422.4
829.224	1390.43
829.406	1379.58
829.587	1365.05
829.768	1360.4
829.949	1400.89
830.131	1404.76
830.312	1429.95
830.493	1407.48
830.674	1402.83
830.855	1360.4
831.036	1382.29
831.218	1442.35
831.399	1462.31
831.58	1407.28
831.761	1432.47
831.942	1430.34
832.123	1380.74
832.304	1366.79
832.485	1345.28
832.666	1379.38
832.847	1397.4
833.028	1384.42
833.209	1384.42
833.389	1384.03
833.57	1320.87
833.751	1344.32
833.932	1415.81
834.113	1363.69
834.294	1392.36
834.475	1397.21
834.655	1427.82
834.836	1424.14
835.017	1424.33
835.198	1362.33
835.378	1386.36
835.559	1450.49
835.74	1348.97
835.92	1376.86
836.101	1390.04
836.281	1403.21
836.462	1436.93
836.643	1459.4
836.823	1460.37
837.004	1458.43
837.184	1491.76
837.365	1468.7
837.545	1482.46
837.726	1438.86
837.906	1475.09
838.087	1462.5
838.267	1444.87
838.448	1390.62
838.628	1416.39
838.808	1415.42
838.989	1462.31
839.169	1413.1
839.349	1449.71
839.53	1462.89
839.71	1500.48
839.89	1409.41
840.07	1491.76
840.251	1431.7
840.431	1461.92
840.611	1427.43
840.791	1400.11
840.971	1441.58
841.151	1418.71
841.332	1388.88
841.512	1446.03
841.692	1381.13
841.872	1444.29
842.052	1435.76
842.232	1483.04
842.412	1356.52
842.592	1409.61
842.772	1458.82
842.952	1447.97
843.132	1364.85
843.312	1381.13
843.492	1352.07
843.672	1445.84
843.851	1367.76
844.031	1401.28
844.211	1402.44
844.391	1412.51
844.571	1419.3
844.751	1401.28
844.93	1390.43
845.11	1375.31
845.29	1407.28
845.47	1421.04
845.649	1423.17
845.829	1442.93
846.009	1380.74
846.188	1408.83
846.368	1375.31
846.547	1393.91
846.727	1390.43
846.907	1353.42
847.086	1386.94
847.266	1411.74
847.445	1389.26
847.625	1358.46
847.804	1334.63
847.984	1370.47
848.163	1333.27
848.343	1338.89
848.522	1355.94
848.701	1363.5
848.881	1329.78
849.06	1349.35
849.239	1376.48
849.419	1336.76
849.598	1285.03
849.777	1324.36
849.957	1279.02
850.136	1256.16
850.315	1222.64
850.494	1208.5
850.674	1250.54
850.853	1293.94
851.032	1298.78
851.211	1314.28
851.39	1265.27
851.569	1217.6
851.748	1229.81
851.927	1306.73
852.107	1282.9
852.286	1230.2
852.465	1214.89
852.644	1262.36
852.823	1221.09
853.002	1266.62
853.181	1258.68
853.359	1261.97
853.538	1201.52
853.717	1284.25
853.896	1151.15
854.075	1108.33
854.254	1121.51
854.433	1056.21
854.611	1107.94
854.79	1042.65
854.969	1092.64
855.148	1111.82
855.327	1055.05
855.505	1132.36
855.684	1124.41
855.863	1156.96
856.041	1105.23
856.22	1144.95
856.399	1135.26
856.577	1224
856.756	1209.47
856.934	1286.58
857.113	1303.63
857.291	1192.8
857.47	1205.4
857.648	1198.42
857.827	1206.95
858.005	1224.19
858.184	1182.54
858.362	1272.43
858.541	1208.89
858.719	1188.15
858.898	1168.59
859.076	1188.35
859.254	1218.19
859.433	1197.84
859.611	1162.58
859.789	1146.89
859.967	1196.1
860.146	1253.84
860.324	1149.99
860.502	1157.93
860.68	1151.73
860.859	1145.92
861.037	1138.94
861.215	1179.05
861.393	1163.36
861.571	1153.28
861.749	1134.29
861.927	1176.92
862.105	1155.41
862.283	1141.46
862.461	1142.04
862.639	1101.74
862.817	1140.69
862.995	1152.7
863.173	1135.84
863.351	1130.03
863.529	1137.39
863.707	1166.26
863.885	1143.98
864.063	1075.39
864.241	1054.28
864.418	1168.01
864.596	1100.19
864.774	1037.81
864.952	1136.81
865.129	1143.21
865.307	1065.13
865.485	1036.84
865.663	1087.79
865.84	1035.29
866.018	1051.37
866.196	925.05
866.373	957.01
866.551	944.81
866.728	874.48
866.906	932.41
867.084	986.46
867.261	1010.29
867.439	1014.94
867.616	1031.99
867.794	1010.1
867.971	1015.91
868.149	994.21
868.326	1077.14
868.503	1070.94
868.681	1034.71
868.858	1018.82
869.035	990.73
869.213	1069.58
869.39	970.96
869.567	1109.69
869.745	975.61
869.922	998.67
870.099	1008.16
870.276	1063.19
870.454	1056.6
870.631	1050.59
870.808	1019.21
870.985	1069.19
871.162	1045.17
871.339	1025.6
871.517	949.46
871.694	966.9
871.871	1011.07
872.048	1004.48
872.225	1002.35
872.402	1030.25
872.579	970.77
872.756	1007.97
872.933	957.4
873.11	961.66
873.287	1008.36
873.463	999.25
873.64	950.23
873.817	1002.55
873.994	931.05
874.171	969.03
874.348	1000.61
874.524	924.66
874.701	973.1
874.878	908.38
875.055	997.7
875.231	971.93
875.408	982.2
875.585	908.19
875.762	947.52
875.938	929.11
876.115	928.15
876.291	961.86
876.468	923.3
876.645	883.97
876.821	884.94
876.998	918.85
877.174	958.95
877.351	908.97
877.527	911.87
877.704	933.38
877.88	870.6
878.057	898.7
878.233	963.99
878.409	878.93
878.586	934.35
878.762	889.98
878.938	901.41
879.115	837.28
879.291	896.76
879.467	850.84
879.644	884.94
879.82	895.79
879.996	885.91
880.172	821
880.349	857.04
880.525	909.35
880.701	837.86
880.877	821.97
881.053	881.65
881.229	883.78
881.405	898.89
881.581	845.8
881.757	842.7
881.933	876.42
882.109	876.42
882.285	834.76
882.461	835.34
882.637	848.13
882.813	793.49
882.989	860.33
883.165	904.51
883.341	848.71
883.517	895.4
883.693	897.92
883.869	904.9
884.044	818.68
884.22	883
884.396	917.3
884.572	882.81
884.747	899.86
884.923	868.08
885.099	890.95
885.275	878.93
885.45	848.32
885.626	833.79
885.801	835.34
885.977	853.94
886.153	797.56
886.328	870.22
886.504	839.6
886.679	877.77
886.855	844.06
887.03	862.66
887.206	877.38
887.381	849.1
887.557	854.72
887.732	866.73
887.908	881.84
888.083	875.06
888.258	835.73
888.434	832.05
888.609	855.3
888.784	914
888.96	810.93
889.135	834.18
889.31	826.04
889.485	868.08
889.661	842.51
889.836	897.53
890.011	864.98
890.186	829.14
890.361	786.9
890.537	840.77
890.712	870.41
890.887	859.17
891.062	839.99
891.237	903.54
891.412	838.63
891.587	864.6
891.762	902.18
891.937	904.9
892.112	824.88
892.287	854.13
892.462	791.17
892.637	801.24
892.812	772.37
892.987	773.92
893.161	764.04
893.336	802.6
893.511	790.2
893.686	787.49
893.861	785.74
894.035	787.49
894.21	761.14
894.385	731.3
894.56	766.56
894.734	728.2
894.909	669.88
895.084	727.42
895.258	719.87
895.433	730.14
895.608	713.47
895.782	670.27
895.957	649.15
896.131	682.67
896.306	607.69
896.48	594.71
896.655	623.38
896.829	554.21
897.004	559.83
897.178	595.48
897.353	570.29
897.527	616.99
897.701	596.06
897.876	520.7
898.05	635.39
898.224	604.2
898.399	638.88
898.573	596.64
898.747	468.19
898.921	556.73
899.096	438.35
899.27	475.55
899.444	485.43
899.618	464.9
899.792	498.61
899.967	498.8
900.141	545.3
900.315	479.82
900.489	507.52
900.663	527.67
900.837	487.37
901.011	435.45
901.185	567.39
901.359	511.98
901.533	502.29
901.707	519.15
901.881	500.35
902.055	450.95
902.229	498.22
902.403	547.82
902.576	531.16
902.75	487.76
902.924	646.44
903.098	559.45
903.272	609.82
903.446	614.28
903.619	610.4
903.793	620.48
903.967	601.88
904.14	632.49
904.314	637.14
904.488	642.95
904.661	646.44
904.835	602.46
905.009	668.91
905.182	699.14
905.356	639.46
905.529	639.08
905.703	601.68
905.876	604.2
906.05	575.72
906.223	563.13
906.397	529.61
906.57	528.45
906.744	486.01
906.917	521.08
907.09	504.42
907.264	512.17
907.437	478.27
907.61	457.34
907.784	473.03
907.957	481.56
908.13	414.52
908.304	491.63
908.477	434.67
908.65	454.63
908.823	416.85
908.996	496.67
909.17	434.87
909.343	458.7
909.516	453.85
909.689	466.83
909.862	406.58
910.035	470.9
910.208	428.67
910.381	410.26
910.554	497.06
910.727	435.83
910.9	430.8
911.073	417.04
911.246	486.01
911.419	474.78
911.592	471.87
911.765	445.72
911.938	415.49
912.11	436.22
912.283	425.76
912.456	469.35
912.629	447.46
912.802	430.41
912.974	372.29
913.147	348.26
913.32	303.51
913.493	360.85
913.665	379.07
913.838	381.59
914.01	382.94
914.183	394.95
914.356	391.47
914.528	405.42
914.701	466.06
914.873	427.12
915.046	378.29
915.218	350.39
915.391	285.29
915.563	336.64
915.736	371.12
915.908	381.59
916.081	382.94
916.253	369.57
916.425	387.4
916.598	409.48
916.77	388.75
916.942	358.34
917.115	311.64
917.287	378.29
917.459	371.32
917.632	332.18
917.804	258.36
917.976	361.44
918.148	352.33
918.32	355.62
918.493	375.19
918.665	433.51
918.837	413.75
919.009	434.09
919.181	425.76
919.353	399.22
919.525	385.65
919.697	389.53
919.869	364.34
920.041	460.25
920.213	493.96
920.385	429.44
920.557	399.22
920.729	447.07
920.901	403.09
921.073	387.4
921.244	374.03
921.416	442.03
921.588	391.47
921.76	369.38
921.932	450.95
922.103	375.77
922.275	425.18
922.447	413.55
922.619	313.77
922.79	366.47
922.962	384.69
923.134	404.64
923.305	307.96
923.477	339.15
923.648	346.71
923.82	371.32
923.991	279.87
924.163	290.52
924.335	355.04
924.506	325.79
924.677	374.61
924.849	323.27
925.02	354.27
925.192	363.57
925.363	350
925.535	341.29
925.706	314.94
925.877	402.7
926.049	330.05
926.22	358.53
926.391	357.56
926.562	361.63
926.734	319.78
926.905	355.82
927.076	283.16
927.247	319
927.419	273.28
927.59	270.18
927.761	278.51
927.932	268.82
928.103	296.72
928.274	243.06
928.445	223.49
928.616	244.8
928.787	227.17
928.958	263.98
929.129	247.12
929.3	218.64
929.471	215.93
929.642	181.64
929.813	112.66
929.984	229.11
930.155	152.38
930.326	209.73
930.496	135.91
930.667	118.67
930.838	145.41
931.009	99.1
931.18	118.86
931.35	131.07
931.521	178.34
931.692	101.23
931.863	48.53
932.033	138.82
932.204	129.71
932.374	127.78
932.545	77.01
932.716	124.1
932.886	113.44
933.057	35.17
933.227	60.35
933.398	116.93
933.568	33.81
933.739	4.55
933.909	29.55
934.08	103.56
934.25	6.3
934.421	5.72
934.591	65.78
934.761	27.03
934.932	-17.73
935.102	29.35
935.272	11.33
935.443	46.98
935.613	43.3
935.783	73.91
935.953	5.13
936.123	162.46
936.294	26.06
936.464	38.85
936.634	22.38
936.804	-2.42
936.974	-21.99
937.144	71.98
937.314	56.67
937.484	32.84
937.655	7.07
937.825	79.34
937.995	1.26
938.165	45.82
938.334	15.98
938.504	55.12
938.674	-0.68
938.844	34.78
939.014	108.21
939.184	65.39
939.354	123.51
939.524	121.38
939.694	42.92
939.863	86.9
940.033	136.88
940.203	137.85
940.373	110.92
940.542	101.23
940.712	68.1
940.882	121.19
941.051	118.28
941.221	126.42
941.391	128.75
941.56	61.71
941.73	27.22
941.899	172.73
942.069	56.28
942.238	101.81
942.408	35.17
942.577	102.78
942.747	59.58
942.916	16.76
943.086	25.48
943.255	117.31
943.425	98.33
943.594	41.95
943.763	-25.28
943.933	46.79
944.102	-12.5
944.271	56.48
944.441	73.14
944.61	21.02
944.779	41.75
944.948	151.22
945.117	7.46
945.287	35.94
945.456	-17.92
945.625	38.07
945.794	79.34
945.963	3.2
946.132	75.85
946.301	41.75
946.47	88.64
946.639	12.5
946.808	36.52
946.977	75.08
947.146	88.83
947.315	37.68
947.484	97.16
947.653	44.85
947.822	23.73
947.991	16.57
948.16	129.33
948.329	102.01
948.498	45.63
948.666	63.26
948.835	87.86
949.004	39.43
949.173	21.02
949.341	58.41
949.51	65.39
949.679	107.43
949.847	91.55
950.016	137.85
950.185	117.12
950.353	44.66
950.522	49.31
950.69	104.53
950.859	37.1
951.028	92.13
951.196	77.79
951.365	39.23
951.533	28.19
951.701	76.24
951.87	80.5
952.038	28.19
952.207	57.64
952.375	121.38
952.543	52.8
952.712	84.38
952.88	12.3
953.048	115.76
953.217	55.7
953.385	53.76
953.553	127.97
953.721	27.8
953.89	69.65
954.058	16.18
954.226	17.53
954.394	70.62
954.562	30.32
954.73	58.22
954.898	66.94
955.067	107.05
955.235	34
955.403	87.48
955.571	131.84
955.739	80.5
955.907	20.05
956.075	35.75
956.243	27.22
956.41	71.2
956.578	-9.2
956.746	22.57
956.914	48.34
957.082	82.44
957.25	69.85
957.418	34.78
957.585	60.74
957.753	103.95
957.921	38.46
958.089	50.86
958.256	58.61
958.424	69.26
958.592	71.78
958.759	34.39
958.927	79.15
959.095	66.16
959.262	72.36
959.43	77.79
959.597	20.83
959.765	17.73
959.932	35.36
960.1	73.91
960.267	58.03
960.435	69.26
960.602	76.63
960.77	44.66
960.937	13.47
961.104	56.09
961.272	-4.75
961.439	33.62
961.606	86.12
961.774	92.32
961.941	39.04
962.108	65.2
962.275	66.94
962.443	93.48
962.61	81.47
962.777	134.17
962.944	74.3
963.111	70.23
963.278	92.51
963.446	58.03
963.613	58.22
963.78	74.69
963.947	82.44
964.114	71.4
964.281	175.05
964.448	96.2
964.615	50.28
964.782	71.2
964.949	83.41
965.116	63.45
965.282	114.02
965.449	67.91
965.616	20.05
965.783	99.88
965.95	74.5
966.117	36.52
966.283	58.03
966.45	63.65
966.617	73.72
966.784	96
966.95	101.62
967.117	118.48
967.284	65.78
967.45	52.99
967.617	142.89
967.784	101.43
967.95	126.23
968.117	64.81
968.283	117.12
968.45	180.09
968.616	71.2
968.783	135.91
968.949	66.36
969.116	133.98
969.282	113.05
969.449	96.97
969.615	100.26
969.781	53.18
969.948	92.9
970.114	27.42
970.28	114.21
970.447	91.35
970.613	127.39
970.779	76.05
970.945	90.19
971.112	93.87
971.278	97.16
971.444	74.69
971.61	112.66
971.776	66.75
971.942	105.88
972.108	92.9
972.275	60.93
972.441	103.56
972.607	157.81
972.773	57.64
972.939	90.58
973.105	68.88
973.271	54.15
973.437	53.96
973.602	45.43
973.768	100.65
973.934	60.93
974.1	82.44
974.266	10.37
974.432	93.48
974.598	56.86
974.763	84.18
974.929	69.07
975.095	136.69
975.261	22.18
975.426	50.47
975.592	67.91
975.758	149.86
975.923	44.85
976.089	52.21
976.255	118.67
976.42	92.71
976.586	116.35
976.751	84.57
976.917	178.93
977.082	96.2
977.248	17.53
977.413	25.48
977.579	61.9
977.744	91.16
977.91	13.85
978.075	57.25
978.24	92.51
978.406	89.22
978.571	59.19
978.736	41.37
978.902	95.61
979.067	52.99
979.232	28
979.397	87.67
979.563	109.37
979.728	34.97
979.893	50.86
980.058	77.6
980.223	101.62
980.388	73.91
980.554	92.32
980.719	37.49
980.884	77.79
981.049	119.25
981.214	48.15
981.379	90.19
981.544	63.06
981.709	37.88
981.874	57.06
982.039	74.5
982.204	100.65
982.368	73.91
982.533	47.76
982.698	113.05
982.863	123.71
983.028	62.48
983.193	74.5
983.357	73.14
983.522	107.24
983.687	44.85
983.852	67.71
984.016	45.82
984.181	90.19
984.346	74.11
984.51	73.14
984.675	69.85
984.839	87.28
985.004	88.25
985.168	91.35
985.333	53.57
985.498	47.37
985.662	96.2
985.827	65.39
985.991	58.22
986.155	62.29
986.32	111.89
986.484	142.31
986.649	110.73
986.813	12.88
986.977	56.28
987.142	81.08
987.306	55.9
987.47	40.98
987.634	64.03
987.799	63.45
987.963	91.93
988.127	105.5
988.291	141.53
988.455	83.6
988.62	70.81
988.784	109.37
988.948	79.73
989.112	26.83
989.276	72.17
989.44	64.81
989.604	52.99
989.768	86.51
989.932	148.31
990.096	30.9
990.26	21.22
990.424	26.06
990.588	63.84
990.752	124.1
990.915	80.5
991.079	37.68
991.243	38.65
991.407	71.4
991.571	58.22
991.734	78.95
991.898	71.4
992.062	148.89
992.226	42.33
992.389	15.4
992.553	-0.1
992.717	47.37
992.88	61.51
993.044	90.77
993.207	60.16
993.371	69.26
993.535	80.31
993.698	50.28
993.862	101.62
994.025	81.86
994.189	64.23
994.352	55.51
994.515	75.27
994.679	108.98
994.842	68.3
995.006	92.71
995.169	40.2
995.332	24.7
995.496	82.83
995.659	12.3
995.822	58.22
995.985	74.11
996.149	120.61
996.312	56.48
996.475	93.68
996.638	48.92
996.801	99.1
996.964	129.33
997.128	41.37
997.291	49.31
997.454	59
997.617	15.4
997.78	92.51
997.943	30.52
998.106	94.45
998.269	57.45
998.432	58.03
998.595	64.61
998.758	21.02
998.92	-13.85
999.083	14.05
999.246	36.33
999.409	-8.43
999.572	3.97
999.735	31.48
999.897	72.17
1000.06	30.32
1000.223	21.6
1000.386	62.29
1000.548	73.53
1000.711	50.47
1000.874	58.61
1001.036	-9.2
1001.199	83.21
1001.361	16.76
1001.524	46.6
1001.687	49.5
1001.849	10.17
1002.012	64.23
1002.174	49.11
1002.337	44.08
1002.499	34.58
1002.661	80.31
1002.824	9.4
1002.986	16.18
1003.149	41.37
1003.311	-1.45
1003.473	101.04
1003.636	55.31
1003.798	76.82
1003.96	48.92
1004.123	55.12
1004.285	22.18
1004.447	39.23
1004.609	25.28
1004.771	96.2
1004.933	13.47
1005.096	12.69
1005.258	-14.43
1005.42	45.63
1005.582	74.5
1005.744	63.06
1005.906	-4.94
1006.068	38.07
1006.23	13.66
1006.392	-30.52
1006.554	14.05
1006.716	71.01
1006.878	46.4
1007.04	-10.56
1007.202	41.75
1007.363	23.54
1007.525	36.13
1007.687	46.21
1007.849	94.06
1008.011	-8.23
1008.172	-11.33
1008.334	37.49
1008.496	52.8
1008.658	-16.95
1008.819	18.7
1008.981	-15.98
1009.143	19.86
1009.304	30.9
1009.466	59.38
1009.627	81.66
1009.789	120.61
1009.95	29.74
1010.112	8.04
1010.273	61.13
1010.435	22.96
1010.596	32.26
1010.758	20.25
1010.919	26.25
1011.081	-6.49
1011.242	27.61
1011.403	70.43
1011.565	24.9
1011.726	42.33
1011.887	9.59
1012.049	42.33
1012.21	62.1
1012.371	76.82
1012.532	-21.22
1012.693	39.43
1012.855	23.35
1013.016	41.17
1013.177	51.25
1013.338	11.33
1013.499	72.56
1013.66	63.06
1013.821	46.98
1013.982	32.26
1014.143	44.27
1014.304	-0.68
1014.465	36.52
1014.626	36.72
1014.787	13.47
1014.948	99.88
1015.109	-49.7
1015.27	51.05
1015.431	-1.26
1015.592	-4.36
1015.752	44.46
1015.913	55.12
1016.074	32.45
1016.235	21.41
1016.395	23.54
1016.556	40.59
1016.717	14.43
1016.877	44.46
1017.038	-22.57
1017.199	40.4
1017.359	27.03
1017.52	37.49
1017.681	10.56
1017.841	17.34
1018.002	25.87
1018.162	12.88
1018.323	61.32
1018.483	16.76
1018.644	3
1018.804	-19.86
1018.964	13.47
1019.125	18.5
1019.285	35.94
1019.446	-47.18
1019.606	-6.3
1019.766	-39.04
1019.926	59.77
1020.087	56.09
1020.247	-29.16
1020.407	44.85
1020.567	15.79
1020.728	-0.48
1020.888	-31.87
1021.048	-43.5
1021.208	-1.65
1021.368	0.68
1021.528	70.43
1021.688	22.38
1021.848	52.41
1022.008	6.3
1022.168	20.63
1022.328	30.71
1022.488	18.7
1022.648	-16.37
1022.808	14.63
1022.968	48.53
1023.128	37.49
1023.288	2.42
1023.448	7.27
1023.608	25.09
1023.767	45.43
1023.927	0.1
1024.087	-8.62
1024.247	-19.47
1024.406	23.54
1024.566	-21.41
1024.726	-30.32
1024.885	22.77
1025.045	44.46
1025.205	-0.1
1025.364	10.56
1025.524	8.62
1025.683	-1.45
1025.843	58.03
1026.003	13.47
1026.162	48.53
1026.321	46.6
1026.481	10.37
1026.64	5.72
1026.8	37.3
1026.959	23.35
1027.119	14.24
1027.278	-9.01
1027.437	-10.37
1027.597	2.62
1027.756	46.98
1027.915	3.58
1028.074	31.68
1028.234	-0.87
1028.393	1.84
1028.552	-2.03
1028.711	-63.26
1028.87	34.58
1029.03	-10.37
1029.189	-0.68
1029.348	-41.37
1029.507	-10.75
1029.666	14.63
1029.825	-18.89
1029.984	2.23
1030.143	32.65
1030.302	-29.93
1030.461	-40.59
1030.62	18.5
1030.779	11.33
1030.938	11.53
1031.097	-42.33
1031.255	34.58
1031.414	65
1031.573	62.68
1031.732	-34.39
1031.891	5.13
1032.049	71.98
1032.208	23.93
1032.367	-12.3
1032.525	-25.48
1032.684	-9.59
1032.843	-2.81
1033.001	-31.87
1033.16	158.97
1033.319	62.68
1033.477	38.85
1033.636	7.46
1033.794	-43.3
1033.953	36.13
1034.111	37.3
1034.27	-5.33
1034.428	20.25
1034.587	-26.06
1034.745	-7.46
1034.903	-10.17
1035.062	26.64
1035.22	-16.37
1035.378	33.81
1035.537	-22.57
1035.695	26.83
1035.853	5.33
1036.011	66.36
1036.17	8.62
1036.328	-34.39
1036.486	24.51
1036.644	19.28
1036.802	-79.92
1036.96	-21.99
1037.119	-15.98
1037.277	-16.95
1037.435	-29.93
1037.593	-38.46
1037.751	-22.57
1037.909	33.23
1038.067	33.23
