Data from pine_FLMT105791__3__17-19-37-080.txt Node

Date: Mon Mar 20 17:19:37 GMT 2023
User: antho
Spectrometer: FLMT10579
Trigger mode: 0
Integration Time (sec): 1.000000E-1
Scans to average: 10
Electric dark correction enabled: true
Nonlinearity correction enabled: false
Boxcar width: 0
XAxis mode: Wavelengths
Number of Pixels in Spectrum: 3648
>>>>>Begin Spectral Data<<<<<
345.248	-152.64
345.464	-152.64
345.681	-152.64
345.898	-178.8
346.114	-150.7
346.331	-22.83
346.548	22.7
346.764	10.88
346.981	-6.75
347.197	-12.95
347.414	23.09
347.631	-26.32
347.847	59.9
348.064	-18.37
348.28	24.83
348.497	-37.17
348.713	-17.02
348.93	31.61
349.146	33.55
349.363	10.49
349.579	5.84
349.796	11.85
350.012	0.61
350.229	52.54
350.445	-6.56
350.661	-14.69
350.878	5.84
351.094	12.04
351.311	25.22
351.527	19.41
351.743	-0.55
351.96	17.86
352.176	50.99
352.392	34.71
352.609	22.12
352.825	-12.76
353.041	20.57
353.257	14.56
353.474	1.39
353.69	7.2
353.906	14.56
354.122	-20.89
354.339	64.94
354.555	-3.84
354.771	-9.46
354.987	61.84
355.203	57.96
355.42	14.95
355.636	-10.62
355.852	-16.63
356.068	-15.85
356.284	-22.83
356.5	70.75
356.716	7.39
356.932	26.58
357.148	19.41
357.364	8.94
357.58	49.05
357.796	40.14
358.012	42.46
358.228	15.34
358.444	-47.44
358.66	45.76
358.876	28.51
359.092	-10.82
359.308	6.04
359.524	37.43
359.74	1.19
359.956	-15.66
360.172	29.09
360.388	42.27
360.604	-7.14
360.819	78.5
361.035	30.06
361.251	30.45
361.467	-2.29
361.683	61.06
361.898	-5.97
362.114	18.63
362.33	17.47
362.546	41.3
362.762	25.8
362.977	36.46
363.193	-11.98
363.409	13.4
363.624	-9.27
363.84	7.59
364.056	-31.94
364.271	41.11
364.487	22.12
364.703	0.42
364.918	-19.15
365.134	-2.68
365.35	-4.62
365.565	100.59
365.781	-7.14
365.996	14.76
366.212	53.31
366.427	8.17
366.643	9.33
366.858	-15.08
367.074	-55.57
367.289	48.08
367.505	117.64
367.72	-27.87
367.936	9.53
368.151	56.22
368.367	23.67
368.582	-2.49
368.798	-4.23
369.013	63.58
369.228	18.44
369.444	2.94
369.659	48.66
369.874	39.56
370.09	57.38
370.305	-29.03
370.52	-23.41
370.736	47.31
370.951	-6.94
371.166	40.14
371.381	81.79
371.597	43.24
371.812	-16.44
372.027	-19.34
372.242	9.14
372.458	98.65
372.673	9.91
372.888	26.96
373.103	39.56
373.318	105.82
373.533	44.98
373.749	-0.36
373.964	-34.07
374.179	70.75
374.394	-9.85
374.609	59.9
374.824	-24.19
375.039	45.56
375.254	-17.99
375.469	72.11
375.684	29.09
375.899	45.76
376.114	31.81
376.329	33.94
376.544	77.53
376.759	38.78
376.974	8.17
377.189	17.47
377.404	23.86
377.619	40.72
377.834	-14.89
378.049	-33.87
378.264	-12.56
378.478	14.37
378.693	-8.11
378.908	52.93
379.123	-14.11
379.338	73.46
379.553	52.34
379.767	18.24
379.982	12.82
380.197	25.8
380.412	6.04
380.626	37.43
380.841	85.28
381.056	18.44
381.271	69.39
381.485	-6.56
381.7	-8.3
381.915	16.31
382.129	-8.3
382.344	19.79
382.559	10.69
382.773	65.52
382.988	-18.37
383.202	33.16
383.417	-0.94
383.632	124.81
383.846	26.19
384.061	48.66
384.275	9.91
384.49	35.49
384.704	38.98
384.919	31.23
385.133	22.31
385.348	35.1
385.562	-21.47
385.777	76.37
385.991	23.86
386.206	16.31
386.42	0.81
386.634	58.16
386.849	35.1
387.063	53.31
387.277	-23.41
387.492	-26.12
387.706	-2.87
387.92	-15.47
388.135	58.74
388.349	39.75
388.563	43.04
388.778	21.73
388.992	61.84
389.206	51.18
389.42	99.23
389.635	22.12
389.849	70.56
390.063	69.01
390.277	47.31
390.491	74.62
390.706	45.76
390.92	49.44
391.134	32.58
391.348	69.59
391.562	-57.12
391.776	3.33
391.99	-3.26
392.205	63.97
392.419	-3.84
392.633	-4.42
392.847	78.31
393.061	-6.56
393.275	67.07
393.489	19.99
393.703	33.36
393.917	54.28
394.131	-6.17
394.345	44.79
394.559	70.56
394.773	11.27
394.986	19.79
395.2	10.69
395.414	41.11
395.628	1
395.842	19.6
396.056	16.11
396.27	-33.68
396.484	23.09
396.697	39.56
396.911	82.37
397.125	38.59
397.339	59.71
397.553	39.56
397.766	110.08
397.98	75.79
398.194	100.59
398.408	12.43
398.621	18.24
398.835	74.62
399.049	62.61
399.262	92.64
399.476	41.11
399.69	26.96
399.903	92.45
400.117	21.73
400.331	75.4
400.544	27.54
400.758	132.36
400.971	51.38
401.185	51.18
401.398	-7.91
401.612	109.89
401.826	62.81
402.039	93.81
402.253	33.94
402.466	39.36
402.68	33.16
402.893	38.59
403.106	62.81
403.32	33.94
403.533	53.89
403.747	53.31
403.96	34.91
404.174	54.09
404.387	-6.17
404.6	40.14
404.814	33.74
405.027	53.12
405.24	18.05
405.454	27.35
405.667	85.28
405.88	-43.75
406.094	36.07
406.307	63.97
406.52	53.89
406.733	-4.42
406.947	-13.53
407.16	102.52
407.373	71.14
407.586	15.14
407.799	3.71
408.012	89.54
408.226	59.9
408.439	95.16
408.652	-7.91
408.865	56.8
409.078	87.02
409.291	69.98
409.504	-3.26
409.717	51.18
409.93	38.78
410.143	45.95
410.357	1.19
410.57	-3.26
410.783	33.94
410.996	80.24
411.209	24.83
411.421	66.49
411.634	32.97
411.847	11.08
412.06	49.63
412.273	45.76
412.486	55.83
412.699	125.77
412.912	11.85
413.125	48.47
413.338	56.03
413.55	89.54
413.763	53.51
413.976	75.21
414.189	-4.62
414.402	52.54
414.615	94.39
414.827	20.57
415.04	59.71
415.253	56.03
415.466	96.13
415.678	123.26
415.891	58.35
416.104	34.52
416.316	34.13
416.529	34.71
416.742	76.56
416.954	78.69
417.167	64.55
417.38	56.8
417.592	96.32
417.805	6.23
418.017	12.82
418.23	76.17
418.442	46.14
418.655	45.56
418.868	68.62
419.08	90.9
419.293	82.76
419.505	70.17
419.718	71.91
419.93	117.06
420.142	33.36
420.355	92.26
420.567	106.98
420.78	84.89
420.992	55.44
421.205	121.71
421.417	15.34
421.629	23.28
421.842	5.46
422.054	17.47
422.266	83.15
422.479	100.97
422.691	45.18
422.903	76.76
423.115	20.96
423.328	83.92
423.54	69.59
423.752	64.94
423.964	65.52
424.177	76.76
424.389	79.86
424.601	183.9
424.813	75.59
425.025	87.8
425.238	98.46
425.45	75.21
425.662	55.83
425.874	356.91
426.086	69.2
426.298	94.58
426.51	81.41
426.722	57.96
426.934	44.01
427.146	67.26
427.358	44.01
427.57	106.01
427.782	71.91
427.994	62.42
428.206	34.71
428.418	28.13
428.63	93.61
428.842	98.65
429.054	102.91
429.266	90.9
429.478	55.44
429.69	63.78
429.902	26.58
430.114	106.21
430.325	94.39
430.537	69.39
430.749	85.86
430.961	45.37
431.173	58.93
431.384	74.04
431.596	8.75
431.808	51.38
432.02	87.22
432.231	89.93
432.443	125.97
432.655	98.65
432.867	89.54
433.078	102.33
433.29	143.21
433.502	109.69
433.713	147.67
433.925	114.73
434.136	134.69
434.348	77.92
434.56	61.64
434.771	206.57
434.983	57.38
435.194	52.93
435.406	85.86
435.617	139.34
435.829	161.23
436.04	146.7
436.252	150.96
436.463	171.11
436.675	133.72
436.886	121.51
437.098	125.77
437.309	169.56
437.521	104.27
437.732	130.23
437.943	115.51
438.155	105.82
438.366	60.87
438.578	160.26
438.789	111.82
439	140.69
439.211	96.13
439.423	113.37
439.634	153.87
439.845	162.2
440.057	111.05
440.268	164.52
440.479	107.17
440.69	125.58
440.902	141.08
441.113	141.66
441.324	111.44
441.535	140.69
441.746	165.1
441.957	97.1
442.168	113.76
442.38	157.94
442.591	158.71
442.802	115.12
443.013	100.39
443.224	152.12
443.435	150.19
443.646	147.67
443.857	159.1
444.068	118.22
444.279	122.09
444.49	205.6
444.701	172.08
444.912	247.06
445.123	196.1
445.334	186.22
445.545	157.94
445.756	151.93
445.967	128.1
446.178	199.98
446.388	229.62
446.599	219.35
446.81	190.49
447.021	143.21
447.232	224
447.443	227.69
447.653	137.01
447.864	183.7
448.075	191.65
448.286	177.12
448.496	180.99
448.707	211.41
448.918	170.53
449.129	272.44
449.339	171.69
449.55	194.75
449.761	197.85
449.971	235.82
450.182	157.74
450.393	187.97
450.603	172.85
450.814	204.05
451.024	227.69
451.235	238.54
451.446	241.25
451.656	232.14
451.867	198.04
452.077	219.74
452.288	249.58
452.498	258.1
452.709	179.83
452.919	211.41
453.13	184.48
453.34	219.74
453.55	167.82
453.761	230.59
453.971	233.11
454.182	227.69
454.392	211.8
454.602	264.5
454.813	223.81
455.023	253.65
455.233	173.05
455.444	216.45
455.654	131.97
455.864	222.26
456.075	194.94
456.285	210.64
456.495	193.59
456.705	242.41
456.916	256.17
457.126	279.8
457.336	214.7
457.546	160.26
457.756	180.22
457.967	262.75
458.177	195.52
458.387	208.89
458.597	177.31
458.807	217.22
459.017	245.12
459.227	228.27
459.437	212.77
459.647	283.68
459.857	257.33
460.068	196.1
460.278	301.89
460.488	239.89
460.698	287.75
460.908	243.38
461.117	172.85
461.327	190.49
461.537	226.14
461.747	202.11
461.957	248.61
462.167	327.66
462.377	287.17
462.587	262.37
462.797	267.79
463.007	251.9
463.216	245.12
463.426	296.85
463.636	296.66
463.846	209.09
464.056	214.9
464.265	313.71
464.475	201.92
464.685	245.32
464.895	293.75
465.104	229.43
465.314	285.42
465.524	243.38
465.733	244.15
465.943	335.99
466.153	305.96
466.362	295.88
466.572	271.28
466.782	254.23
466.991	287.75
467.201	330.37
467.41	220.71
467.62	304.99
467.829	259.46
468.039	280.19
468.249	262.56
468.458	244.54
468.668	295.5
468.877	285.62
469.086	328.05
469.296	323.78
469.505	249.38
469.715	374.35
469.924	295.11
470.134	346.06
470.343	372.03
470.552	271.47
470.762	282.32
470.971	244.74
471.18	311.58
471.39	270.7
471.599	266.63
471.808	350.91
472.018	272.25
472.227	323.78
472.436	363.5
472.645	295.5
472.855	290.46
473.064	358.66
473.273	305.57
473.482	325.72
473.691	358.27
473.901	346.45
474.11	322.62
474.319	418.72
474.528	317.78
474.737	417.56
474.946	338.31
475.155	351.88
475.364	376.87
475.573	314.48
475.783	362.53
475.992	342.19
476.201	407.87
476.41	352.46
476.619	317.39
476.828	345.87
477.037	363.31
477.245	342.19
477.454	380.94
477.663	326.88
477.872	353.43
478.081	437.13
478.29	335.99
478.499	445.07
478.708	382.88
478.917	431.7
479.125	393.34
479.334	410
479.543	376.87
479.752	372.41
479.961	409.23
480.169	421.43
480.378	390.05
480.587	496.61
480.796	435.19
481.004	421.24
481.213	434.41
481.422	425.5
481.63	390.24
481.839	431.31
482.048	483.04
482.256	409.61
482.465	450.69
482.674	462.31
482.882	483.82
483.091	496.99
483.299	447.59
483.508	478.98
483.716	457.86
483.925	442.94
484.134	441.58
484.342	434.8
484.551	483.24
484.759	496.41
484.967	483.04
485.176	490.41
485.384	492.73
485.593	499.71
485.801	481.88
486.01	477.04
486.218	438.29
486.426	386.75
486.635	442.74
486.843	428.6
487.051	447.98
487.26	448.17
487.468	469.87
487.676	496.22
487.885	436.35
488.093	466.77
488.301	481.69
488.509	484.01
488.717	522.18
488.926	484.21
489.134	499.51
489.342	518.31
489.55	474.13
489.758	524.89
489.967	469.87
490.175	616.15
490.383	513.07
490.591	582.24
490.799	461.73
491.007	550.47
491.215	541.17
491.423	506.49
491.631	530.51
491.839	537.1
492.047	564.42
492.255	519.47
492.463	489.63
492.671	502.23
492.879	563.64
493.087	526.64
493.295	560.35
493.503	563.26
493.711	585.15
493.919	596
494.127	591.35
494.334	618.28
494.542	516.56
494.75	571.01
494.958	564.81
495.166	625.06
495.374	589.99
495.581	613.24
495.789	591.35
495.997	644.63
496.205	597.35
496.412	575.66
496.62	581.47
496.828	617.5
497.035	566.74
497.243	605.88
497.451	600.65
497.658	597.35
497.866	590.96
498.074	660.71
498.281	602.59
498.489	684.73
498.696	611.69
498.904	606.27
499.112	593.67
499.319	674.47
499.527	583.21
499.734	634.75
499.942	572.36
500.149	575.85
500.357	640.56
500.564	591.35
500.771	623.51
500.979	605.88
501.186	578.95
501.394	624.67
501.601	607.24
501.808	626.61
502.016	599.29
502.223	599.1
502.43	628.35
502.638	618.47
502.845	580.31
503.052	670.4
503.26	636.88
503.467	700.82
503.674	630.87
503.881	618.86
504.089	709.73
504.296	665.75
504.503	590.38
504.71	640.56
504.917	576.62
505.125	640.95
505.332	608.01
505.539	670.2
505.746	692.87
505.953	714.18
506.16	679.5
506.367	745.96
506.574	744.99
506.781	726.97
506.988	680.28
507.195	728.33
507.402	686.87
507.609	731.82
507.816	665.94
508.023	686.28
508.23	679.31
508.437	645.4
508.644	686.28
508.851	751.77
509.058	719.03
509.265	729.1
509.472	721.55
509.679	819.39
509.885	692.87
510.092	720.19
510.299	729.68
510.506	712.25
510.713	736.66
510.92	695.2
511.126	753.9
511.333	753.13
511.54	782.19
511.746	787.81
511.953	784.51
512.16	833.53
512.367	738.98
512.573	704.69
512.78	722.52
512.987	759.13
513.193	750.22
513.4	643.27
513.606	754.87
513.813	781.03
514.02	769.98
514.226	852.91
514.433	821.33
514.639	729.88
514.846	770.57
515.052	751.38
515.259	746.15
515.465	785.1
515.672	790.71
515.878	858.91
516.085	796.91
516.291	812.03
516.497	746.73
516.704	753.13
516.91	698.68
517.117	710.7
517.323	658.19
517.529	724.26
517.736	729.1
517.942	732.98
518.148	758.36
518.354	763.2
518.561	769.21
518.767	766.5
518.973	789.36
519.179	819
519.386	777.54
519.592	791.88
519.798	781.61
520.004	883.71
520.21	813.19
520.417	881.97
520.623	921.69
520.829	906.38
521.035	883.33
521.241	865.69
521.447	896.5
521.653	1000.93
521.859	860.27
522.065	888.56
522.271	995.31
522.477	949.01
522.683	971.48
522.889	936.99
523.095	955.79
523.301	935.06
523.507	903.48
523.713	924.79
523.919	870.54
524.125	980.97
524.331	922.85
524.537	995.12
524.742	993.57
524.948	974.58
525.154	982.33
525.36	1070.87
525.566	977.87
525.772	1037.16
525.977	954.62
526.183	991.44
526.389	1031.93
526.595	950.36
526.8	956.95
527.006	907.54
527.212	909.09
527.417	891.46
527.623	879.06
527.829	953.27
528.034	956.56
528.24	979.23
528.446	948.04
528.651	1038.9
528.857	1005.97
529.062	1070.87
529.268	1005
529.473	1044.52
529.679	1008.29
529.884	1080.56
530.09	1071.26
530.295	1083.27
530.501	1066.8
530.706	1052.85
530.912	1030.57
531.117	1092.77
531.323	1059.44
531.528	1106.72
531.733	1091.02
531.939	1061.77
532.144	1092.57
532.35	1066.42
532.555	1112.53
532.76	1088.31
532.966	1107.69
533.171	1056.92
533.376	1040.07
533.581	1042
533.787	1051.5
533.992	1084.44
534.197	1129
534.402	1032.71
534.607	1074.94
534.813	1176.27
535.018	1104.2
535.223	1073.59
535.428	1134.62
535.633	1182.28
535.838	1176.47
536.043	1129.38
536.249	1215.41
536.454	1135.39
536.659	1147.6
536.864	1128.61
537.069	1141.59
537.274	1122.6
537.479	1141.4
537.684	1146.05
537.889	1118.92
538.094	1218.9
538.299	1155.15
538.504	1175.11
538.708	1177.05
538.913	1196.81
539.118	1153.02
539.323	1179.57
539.528	1130.55
539.733	1148.37
539.938	1164.26
540.142	1187.9
540.347	1126.67
540.552	1130.16
540.757	1161.55
540.962	1134.62
541.166	1105.94
541.371	1118.34
541.576	1160.97
541.781	1039.87
541.985	1169.49
542.19	1144.5
542.395	1212.7
542.599	1212.11
542.804	1172.4
543.008	1203.59
543.213	1150.5
543.418	1131.32
543.622	1192.74
543.827	1154.96
544.031	1245.83
544.236	1205.14
544.44	1211.92
544.645	1241.56
544.849	1196.23
545.054	1196.62
545.258	1266.75
545.463	1245.63
545.667	1182.86
545.872	1253
546.076	1193.9
546.281	1212.31
546.485	1175.3
546.689	1261.52
546.894	1236.14
547.098	1205.92
547.302	1185.77
547.507	1224.71
547.711	1226.84
547.915	1279.54
548.119	1183.44
548.324	1205.33
548.528	1256.48
548.732	1204.75
548.936	1233.04
549.141	1268.3
549.345	1236.14
549.549	1267.72
549.753	1242.73
549.957	1340.96
550.161	1303.37
550.366	1256.48
550.57	1189.83
550.774	1267.91
550.978	1237.5
551.182	1273.53
551.386	1220.06
551.59	1231.88
551.794	1204.95
551.998	1277.8
552.202	1262.49
552.406	1245.44
552.61	1247.57
552.814	1246.02
553.018	1292.52
553.222	1244.28
553.426	1209.21
553.63	1323.91
553.833	1246.21
554.037	1181.7
554.241	1289.23
554.445	1268.5
554.649	1231.88
554.853	1216.18
555.056	1280.31
555.26	1305.31
555.464	1272.18
555.668	1264.04
555.871	1310.34
556.075	1287.1
556.279	1248.15
556.483	1207.47
556.686	1233.04
556.89	1189.06
557.094	1270.24
557.297	1165.03
557.501	1258.42
557.704	1168.52
557.908	1275.66
558.112	1200.88
558.315	1259.39
558.519	1195.07
558.722	1228.97
558.926	1209.98
559.129	1143.33
559.333	1167.36
559.536	1189.06
559.74	1170.46
559.943	1147.21
560.147	1115.63
560.35	1170.65
560.553	1161.55
560.757	1091.22
560.96	1236.33
561.164	1155.35
561.367	1283.22
561.57	1180.73
561.774	1189.83
561.977	1184.6
562.18	1191.77
562.384	1274.7
562.587	1170.07
562.79	1172.01
562.993	1157.87
563.197	1255.32
563.4	1220.45
563.603	1228.97
563.806	1286.9
564.009	1141.59
564.212	1187.32
564.416	1100.9
564.619	1165.42
564.822	1129.77
565.025	1203.98
565.228	1168.33
565.431	1172.01
565.634	1067.97
565.837	1135.2
566.04	1132.87
566.243	1126.48
566.446	1041.81
566.649	1136.36
566.852	1093.15
567.055	1099.16
567.258	1176.08
567.461	1189.45
567.664	1203.2
567.867	1095.48
568.07	1153.41
568.273	1132.1
568.475	1181.7
568.678	1123.96
568.881	1121.44
569.084	1097.22
569.287	1039.87
569.489	1051.69
569.692	1105.75
569.895	1131.9
570.098	1036.19
570.3	1079.79
570.503	991.63
570.706	992.79
570.909	1016.04
571.111	974.97
571.314	1000.93
571.516	1039.68
571.719	1061.57
571.922	1025.92
572.124	1030.96
572.327	1038.13
572.529	997.06
572.732	1014.69
572.935	1069.32
573.137	1105.17
573.34	985.62
573.542	1060.22
573.745	1045.49
573.947	1042.39
574.15	1028.83
574.352	1005
574.554	1096.64
574.757	1000.16
574.959	984.27
575.162	997.83
575.364	1013.14
575.566	1076.49
575.769	968.38
575.971	997.44
576.173	900.76
576.376	982.52
576.578	1039.1
576.78	1037.55
576.982	914.71
577.185	997.44
577.387	936.8
577.589	970.32
577.791	960.24
577.993	984.07
578.196	982.33
578.398	977.87
578.6	1036.97
578.802	930.6
579.004	951.33
579.206	971.09
579.408	1002.67
579.61	952.49
579.812	994.92
580.014	964.89
580.216	960.63
580.418	941.06
580.62	953.46
580.822	872.09
581.024	953.46
581.226	1024.57
581.428	957.14
581.63	1038.71
581.832	953.27
582.034	1003.84
582.236	975.36
582.438	968.77
582.64	1002.87
582.841	1021.66
583.043	1054.99
583.245	1018.17
583.447	1029.02
583.649	974.97
583.85	992.79
584.052	1007.91
584.254	947.65
584.456	1008.87
584.657	942.81
584.859	977.68
585.061	942.61
585.262	948.04
585.464	928.08
585.666	965.47
585.867	917.43
586.069	990.47
586.27	954.04
586.472	948.42
586.674	953.07
586.875	926.53
587.077	918.59
587.278	945.71
587.48	939.51
587.681	1019.72
587.883	973.81
588.084	886.04
588.285	928.28
588.487	924.01
588.688	934.09
588.89	877.51
589.091	855.23
589.292	916.65
589.494	840.51
589.695	825.59
589.896	767.66
590.098	775.8
590.299	858.72
590.5	805.63
590.702	848.45
590.903	846.71
591.104	930.21
591.305	859.11
591.507	931.96
591.708	921.88
591.909	867.05
592.11	896.69
592.311	919.75
592.512	885.46
592.714	831.98
592.915	818.23
593.116	859.49
593.317	870.34
593.518	853.49
593.719	847.1
593.92	904.64
594.121	943.39
594.322	870.15
594.523	884.68
594.724	820.94
594.925	850.97
595.126	835.28
595.327	897.08
595.528	853.88
595.729	902.31
595.929	855.62
596.13	845.74
596.331	857.75
596.532	859.49
596.733	930.99
596.934	905.8
597.135	894.37
597.335	880.42
597.536	827.72
597.737	866.86
597.938	849.81
598.138	885.46
598.339	890.69
598.54	859.11
598.74	872.48
598.941	867.44
599.142	934.67
599.342	884.88
599.543	872.48
599.744	846.13
599.944	853.88
600.145	866.47
600.345	875.38
600.546	972.26
600.746	909.48
600.947	963.73
601.147	883.52
601.348	950.17
601.548	848.26
601.749	856.98
601.949	867.05
602.15	867.63
602.35	826.56
602.551	893.21
602.751	834.11
602.951	852.52
603.152	792.65
603.352	884.68
603.552	833.15
603.753	900.57
603.953	897.08
604.153	868.21
604.354	869.57
604.554	847.29
604.754	881.78
604.954	828.69
605.155	902.12
605.355	838.18
605.555	941.64
605.755	895.92
605.955	870.73
606.155	872.09
606.356	873.64
606.556	901.34
606.756	872.48
606.956	823.65
607.156	904.25
607.356	827.33
607.556	878.68
607.756	884.88
607.956	937.38
608.156	916.65
608.356	851.75
608.556	899.21
608.756	880.42
608.956	832.18
609.156	850.2
609.356	847.68
609.556	844.19
609.755	862.4
609.955	807.38
610.155	863.76
610.355	842.45
610.555	840.7
610.755	822.1
610.954	767.66
611.154	869.57
611.354	866.86
611.554	799.24
611.753	829.85
611.953	764.17
612.153	838.96
612.352	836.63
612.552	809.9
612.752	756.23
612.951	823.65
613.151	833.73
613.351	791.88
613.55	798.46
613.75	868.6
613.949	818.81
614.149	825.98
614.348	844.38
614.548	800.01
614.747	738.4
614.947	752.55
615.146	757.39
615.346	833.15
615.545	816.29
615.745	826.75
615.944	829.46
616.144	775.6
616.343	823.46
616.542	789.55
616.742	797.69
616.941	785.48
617.14	740.34
617.34	770.95
617.539	781.8
617.738	741.7
617.938	837.41
618.137	776.57
618.336	749.25
618.535	813.77
618.734	784.13
618.934	817.45
619.133	817.65
619.332	798.27
619.531	764.56
619.73	777.54
619.929	797.3
620.128	789.75
620.328	857.36
620.527	774.25
620.726	763.2
620.925	805.25
621.124	806.02
621.323	768.43
621.522	767.27
621.721	758.75
621.92	753.52
622.119	794.2
622.318	752.74
622.517	779.86
622.715	787.23
622.914	675.44
623.113	735.69
623.312	720
623.511	782.38
623.71	724.45
623.909	726
624.107	836.44
624.306	719.8
624.505	733.56
624.704	748.28
624.902	731.43
625.101	799.24
625.3	758.94
625.499	694.42
625.697	729.49
625.896	712.63
626.095	743.63
626.293	696.17
626.492	709.34
626.69	759.72
626.889	690.93
627.088	759.52
627.286	688.03
627.485	720
627.683	684.15
627.882	729.3
628.08	627.77
628.279	682.22
628.477	739.95
628.676	660.71
628.874	720.97
629.073	653.15
629.271	671.17
629.469	705.08
629.668	698.88
629.866	682.22
630.065	689
630.263	710.5
630.461	661.87
630.66	663.81
630.858	706.24
631.056	728.72
631.254	724.84
631.453	651.6
631.651	715.35
631.849	706.43
632.047	696.55
632.245	667.49
632.444	705.66
632.642	713.8
632.84	719.8
633.038	683.57
633.236	649.09
633.434	646.76
633.632	679.7
633.83	685.12
634.028	717.67
634.227	683.38
634.425	744.99
634.623	691.32
634.821	717.09
635.019	704.5
635.216	658.39
635.414	737.63
635.612	711.28
635.81	685.9
636.008	745.38
636.206	689.58
636.404	695.58
636.602	655.48
636.8	672.34
636.997	708.95
637.195	733.17
637.393	676.99
637.591	769.6
637.789	724.45
637.986	709.92
638.184	705.66
638.382	756.81
638.58	738.79
638.777	782.58
638.975	696.75
639.173	708.76
639.37	739.18
639.568	720.38
639.765	746.35
639.963	687.64
640.161	752.55
640.358	736.27
640.556	717.28
640.753	656.84
640.951	692.48
641.148	715.15
641.346	680.67
641.543	720.97
641.741	715.73
641.938	656.25
642.136	691.52
642.333	652.19
642.531	736.66
642.728	753.13
642.925	685.7
643.123	663.23
643.32	705.66
643.517	658.19
643.715	663.42
643.912	673.11
644.109	703.33
644.306	682.02
644.504	659.94
644.701	714.18
644.898	715.15
645.095	642.11
645.293	685.12
645.49	700.82
645.687	696.17
645.884	686.48
646.081	600.45
646.278	636.69
646.475	653.74
646.672	640.56
646.87	661.29
647.067	658.77
647.264	662.84
647.461	596.97
647.658	618.67
647.855	652.96
648.052	608.98
648.249	534.39
648.446	620.99
648.642	587.47
648.839	602.97
649.036	615.37
649.233	577.98
649.43	552.21
649.627	551.05
649.824	584.76
650.021	559.77
650.217	576.43
650.414	580.5
650.611	630.29
650.808	614.02
651.004	611.3
651.201	626.42
651.398	665.36
651.595	594.26
651.791	580.89
651.988	658.58
652.185	586.51
652.381	621.96
652.578	570.62
652.775	616.73
652.971	626.42
653.168	589.8
653.364	612.08
653.561	526.83
653.757	578.17
653.954	601.04
654.15	571.78
654.347	651.99
654.543	607.43
654.74	557.25
654.936	538.65
655.133	590.96
655.329	576.04
655.525	578.95
655.722	608.2
655.918	545.62
656.115	586.89
656.311	509.39
656.507	471.23
656.704	473.94
656.9	486.73
657.096	484.01
657.292	487.69
657.489	580.31
657.685	543.69
657.881	530.9
658.077	530.9
658.273	548.53
658.47	614.6
658.666	550.47
658.862	555.51
659.058	543.49
659.254	578.37
659.45	543.49
659.646	588.83
659.842	551.05
660.038	629.9
660.234	559.77
660.43	573.72
660.626	637.85
660.822	597.94
661.018	580.69
661.214	596.97
661.41	527.02
661.606	589.22
661.802	624.48
661.998	553.37
662.194	543.88
662.39	561.32
662.586	596.58
662.781	592.51
662.977	597.35
663.173	589.8
663.369	560.54
663.564	597.16
663.76	614.21
663.956	532.06
664.152	593.48
664.347	518.5
664.543	571.2
664.739	555.12
664.934	498.93
665.13	505.13
665.326	585.92
665.521	560.16
665.717	515.4
665.912	532.45
666.108	505.71
666.304	534.77
666.499	514.24
666.695	457.66
666.89	533.42
667.086	583.41
667.281	544.46
667.477	589.61
667.672	532.26
667.867	504.74
668.063	540.97
668.258	473.74
668.454	545.43
668.649	588.25
668.844	526.64
669.04	513.46
669.235	528.38
669.43	484.21
669.626	486.14
669.821	478.59
670.016	480.72
670.211	529.35
670.407	487.69
670.602	501.06
670.797	477.81
670.992	556.86
671.187	489.24
671.382	564.03
671.578	463.86
671.773	528.96
671.968	460.38
672.163	499.71
672.358	546.98
672.553	468.51
672.748	498.74
672.943	566.94
673.138	494.67
673.333	526.44
673.528	490.41
673.723	535.36
673.918	495.44
674.113	479.56
674.308	587.47
674.503	529.93
674.698	512.88
674.892	483.82
675.087	512.69
675.282	496.61
675.477	481.49
675.672	519.08
675.867	475.49
676.061	459.41
676.256	451.66
676.451	471.42
676.646	491.18
676.84	489.05
677.035	460.57
677.23	467.93
677.424	515.21
677.619	535.36
677.814	506.68
678.008	542.91
678.203	457.28
678.397	487.5
678.592	502.81
678.787	547.17
678.981	492.15
679.176	522.18
679.37	479.94
679.565	478.59
679.759	498.35
679.954	516.76
680.148	546.98
680.342	558.02
680.537	514.62
680.731	488.47
680.926	503
681.12	533.42
681.314	489.44
681.509	496.8
681.703	518.69
681.897	523.54
682.092	482.46
682.286	465.61
682.48	576.82
682.674	503.58
682.869	480.72
683.063	507.26
683.257	578.56
683.451	462.7
683.645	488.47
683.839	496.41
684.034	469.09
684.228	526.25
684.422	475.68
684.616	432.86
684.81	534.97
685.004	494.86
685.198	509.2
685.392	512.88
685.586	481.49
685.78	502.61
685.974	518.89
686.168	513.85
686.362	550.66
686.556	468.51
686.75	440.03
686.944	463.67
687.138	434.41
687.331	362.92
687.525	382.3
687.719	352.07
687.913	367.57
688.107	401.09
688.301	361.37
688.494	438.48
688.688	359.43
688.882	362.92
689.076	345.87
689.269	400.51
689.463	484.01
689.657	419.69
689.85	407.1
690.044	444.49
690.238	410.58
690.431	402.45
690.625	425.89
690.818	452.63
691.012	427.63
691.205	483.43
691.399	439.45
691.593	473.16
691.786	507.65
691.98	523.73
692.173	514.24
692.366	512.11
692.56	509.97
692.753	550.66
692.947	457.47
693.14	571.97
693.333	530.51
693.527	468.51
693.72	524.12
693.914	504.74
694.107	548.34
694.3	525.86
694.493	500.87
694.687	566.16
694.88	497.58
695.073	575.27
695.266	583.6
695.46	562.87
695.653	598.71
695.846	593.87
696.039	509.78
696.232	529.93
696.425	567.32
696.618	598.52
696.812	605.49
697.005	660.71
697.198	698.68
697.391	649.86
697.584	667.3
697.777	731.04
697.97	687.64
698.163	717.48
698.356	680.09
698.549	739.18
698.742	696.75
698.935	667.3
699.127	684.73
699.32	674.27
699.513	662.65
699.706	688.03
699.899	717.87
700.092	701.59
700.285	732.4
700.477	679.5
700.67	742.28
700.863	732.01
701.056	837.8
701.248	795.95
701.441	817.84
701.634	749.64
701.826	826.17
702.019	738.4
702.212	833.73
702.404	757.39
702.597	753.52
702.79	803.7
702.982	836.83
703.175	849.03
703.367	854.65
703.56	850.58
703.752	927.31
703.945	895.34
704.137	903.48
704.33	917.81
704.522	942.23
704.715	940.87
704.907	945.13
705.1	978.46
705.292	986.4
705.484	935.25
705.677	1001.9
705.869	1011.2
706.061	1014.49
706.254	1059.44
706.446	1032.71
706.638	1034.06
706.831	1086.18
707.023	1026.31
707.215	1124.93
707.407	1082.89
707.599	1092.57
707.792	1138.68
707.984	1123.38
708.176	1158.25
708.368	1123.57
708.56	1159.61
708.752	1113.69
708.944	1154.96
709.136	1180.92
709.329	1148.37
709.521	1294.07
709.713	1206.88
709.905	1225.87
710.097	1262.49
710.289	1245.25
710.481	1209.98
710.672	1235.17
710.864	1271.6
711.056	1328.75
711.248	1322.36
711.44	1314.61
711.632	1279.35
711.824	1345.41
712.016	1411.09
712.207	1387.46
712.399	1384.74
712.591	1455.07
712.783	1399.08
712.975	1422.52
713.166	1378.35
713.358	1422.52
713.55	1501.77
713.741	1502.35
713.933	1466.31
714.125	1502.35
714.316	1442.09
714.508	1527.92
714.7	1538.77
714.891	1506.42
715.083	1575.2
715.274	1515.33
715.466	1542.65
715.657	1600
715.849	1504.09
716.04	1533.54
716.232	1483.75
716.423	1565.9
716.615	1510.68
716.806	1498.28
716.998	1451.2
717.189	1378.16
717.381	1348.9
717.572	1317.32
717.763	1378.93
717.955	1329.91
718.146	1309.38
718.337	1296.39
718.528	1247.57
718.72	1170.27
718.911	1294.65
719.102	1234.98
719.293	1303.56
719.485	1265.4
719.676	1244.86
719.867	1216.76
720.058	1227.61
720.249	1216.96
720.44	1265.59
720.632	1298.33
720.823	1369.83
721.014	1430.86
721.205	1399.66
721.396	1492.27
721.587	1571.52
721.778	1592.44
721.969	1614.72
722.16	1697.26
722.351	1659.48
722.542	1810.79
722.733	1800.91
722.924	1701.91
723.115	1725.35
723.305	1705.2
723.496	1756.16
723.687	1657.15
723.878	1674.59
724.069	1655.41
724.26	1691.64
724.45	1606.58
724.641	1637.97
724.832	1657.93
725.023	1645.14
725.213	1623.05
725.404	1588.95
725.595	1645.72
725.785	1613.56
725.976	1702.1
726.167	1659.67
726.357	1685.83
726.548	1779.41
726.739	1712.37
726.929	1746.28
727.12	1783.48
727.31	1784.64
727.501	1743.37
727.691	1768.17
727.882	1762.36
728.072	1807.69
728.263	1798.39
728.453	1870.47
728.644	1868.34
728.834	1840.24
729.024	1820.87
729.215	1787.35
729.405	1854.77
729.596	1891.78
729.786	1892.36
729.976	1936.54
730.167	1978.97
730.357	1889.07
730.547	1903.6
730.737	1914.06
730.928	1999.89
731.118	2002.99
731.308	1957.85
731.498	1964.44
731.688	2094.25
731.879	2019.46
732.069	2117.11
732.259	2136.68
732.449	2141.71
732.639	2199.45
732.829	2234.52
733.019	2234.33
733.209	2316.09
733.399	2312.6
733.589	2349.22
733.779	2353.29
733.969	2402.5
734.159	2442.02
734.349	2419.94
734.539	2538.31
734.729	2513.71
734.919	2507.32
735.109	2525.72
735.299	2479.8
735.488	2531.92
735.678	2542.58
735.868	2551.1
736.058	2537.73
736.248	2491.62
736.437	2499.18
736.627	2468.57
736.817	2582.88
737.007	2539.48
737.196	2577.65
737.386	2577.65
737.576	2538.31
737.765	2631.31
737.955	2587.72
738.144	2672.19
738.334	2642.55
738.524	2611.74
738.713	2638.68
738.903	2595.08
739.092	2675.88
739.282	2617.36
739.471	2671.23
739.661	2656.89
739.85	2683.63
740.04	2703.19
740.229	2702.42
740.419	2694.09
740.608	2755.12
740.797	2733.61
740.987	2754.92
741.176	2765.58
741.365	2722.37
741.555	2688.28
741.744	2813.63
741.933	2767.32
742.123	2843.85
742.312	2839.79
742.501	2831.07
742.69	2814.79
742.88	2802.2
743.069	2872.72
743.258	2819.25
743.447	2895
743.636	2929.68
743.825	2804.33
744.014	2878.34
744.204	2901.4
744.393	2806.85
744.582	2895.39
744.771	2929.88
744.96	2910.7
745.149	2857.42
745.338	2858.58
745.527	2891.52
745.716	2889.97
745.905	2843.47
746.094	2914.38
746.283	2912.63
746.471	2903.72
746.66	2964.17
746.849	2871.75
747.038	2973.28
747.227	2917.67
747.416	2935.5
747.604	2904.5
747.793	2879.89
747.982	2913.8
748.171	2913.22
748.359	2971.73
748.548	2962.23
748.737	2941.12
748.926	2893.65
749.114	2837.27
749.303	2936.08
749.491	2905.85
749.68	2852.19
749.869	2959.33
750.057	2884.93
750.246	2891.9
750.434	2921.16
750.623	2880.47
750.811	2911.08
751	2920.38
751.188	2881.25
751.377	2907.4
751.565	2829.71
751.754	2844.05
751.942	2843.66
752.131	2918.25
752.319	2865.36
752.507	2800.84
752.696	2871.37
752.884	2881.83
753.072	2850.25
753.261	2846.76
753.449	2838.04
753.637	2813.44
753.825	2912.25
754.014	2821.38
754.202	2874.47
754.39	2903.72
754.578	2894.03
754.766	2818.09
754.955	2846.76
755.143	2908.57
755.331	2823.32
755.519	2835.52
755.707	2817.12
755.895	2824.48
756.083	2840.56
756.271	2775.46
756.459	2782.63
756.647	2827.77
756.835	2771.01
757.023	2808.01
757.211	2800.26
757.399	2784.37
757.587	2789.6
757.775	2768.29
757.963	2755.89
758.151	2767.13
758.339	2732.45
758.526	2714.82
758.714	2746.01
758.902	2662.31
759.09	2584.23
759.278	2450.35
759.465	2260.48
759.653	1906.51
759.841	1754.99
760.028	1489.17
760.216	1264.43
760.404	1226.65
760.591	968.38
760.779	819.2
760.967	731.43
761.154	598.13
761.342	653.74
761.529	664.39
761.717	734.92
761.905	721.35
762.092	771.73
762.28	726.2
762.467	739.57
762.655	672.34
762.842	690.35
763.029	694.42
763.217	707.98
763.404	725.81
763.592	728.52
763.779	703.33
763.966	762.04
764.154	801.56
764.341	834.31
764.528	839.93
764.716	861.04
764.903	968.38
765.09	992.79
765.277	1020.89
765.465	1147.79
765.652	1212.5
765.839	1259.78
766.026	1383.19
766.213	1401.21
766.4	1485.88
766.588	1644.56
766.775	1639.33
766.962	1732.33
767.149	1771.08
767.336	1940.99
767.523	1900.5
767.71	1994.08
767.897	2099.86
768.084	2177.17
768.271	2165.93
768.458	2230.84
768.645	2296.71
768.832	2210.11
769.019	2257.96
769.206	2295.36
769.392	2339.14
769.579	2440.86
769.766	2379.64
769.953	2380.6
770.14	2441.44
770.327	2454.42
770.513	2470.89
770.7	2515.84
770.887	2429.43
771.073	2545.48
771.26	2502.28
771.447	2474.38
771.634	2441.63
771.82	2549.94
772.007	2435.82
772.193	2478.06
772.38	2529.79
772.567	2526.11
772.753	2497.24
772.94	2526.11
773.126	2526.11
773.313	2550.33
773.499	2514.1
773.686	2516.42
773.872	2451.13
774.059	2507.51
774.245	2452.29
774.432	2474.18
774.618	2440.47
774.804	2515.26
774.991	2386.42
775.177	2458.88
775.363	2457.91
775.55	2513.32
775.736	2418
775.922	2418.39
776.109	2439.89
776.295	2488.52
776.481	2480.38
776.667	2440.86
776.853	2425.94
777.04	2427.88
777.226	2417.61
777.412	2512.93
777.598	2412.96
777.784	2393.97
777.97	2359.1
778.156	2436.6
778.342	2407.34
778.528	2378.28
778.715	2331.59
778.901	2369.75
779.087	2392.23
779.272	2370.53
779.458	2326.16
779.644	2353.87
779.83	2343.79
780.016	2436.21
780.202	2340.31
780.388	2316.86
780.574	2308.72
780.76	2327.13
780.946	2375.18
781.131	2371.3
781.317	2312.99
781.503	2273.27
781.689	2290.32
781.874	2420.32
782.06	2301.75
782.246	2313.76
782.432	2267.46
782.617	2303.88
782.803	2337.01
782.989	2249.05
783.174	2273.07
783.36	2241.11
783.545	2262.81
783.731	2271.91
783.916	2156.83
784.102	2255.25
784.288	2198.68
784.473	2219.41
784.659	2178.91
784.844	2263
785.029	2191.12
785.215	2206.62
785.4	2130.28
785.586	2261.84
785.771	2192.09
785.956	2235.1
786.142	2194.99
786.327	2133.38
786.512	2168.65
786.698	2189.57
786.883	2099.09
787.068	2153.15
787.254	2155.08
787.439	2117.88
787.624	2133
787.809	2111.88
787.994	2114.4
788.18	2204.29
788.365	2010.74
788.55	2069.45
788.735	2115.36
788.92	2065.77
789.105	2068.48
789.29	2090.76
789.475	2015.58
789.66	2057.43
789.845	2014.03
790.03	2026.43
790.215	2043.48
790.4	2088.82
790.585	2093.47
790.77	2016.17
790.955	1967.92
791.14	2010.74
791.325	2057.24
791.51	1942.74
791.695	2043.29
791.879	1980.71
792.064	1965.4
792.249	2072.74
792.434	2018.1
792.618	2012.68
792.803	2043.1
792.988	1970.44
793.173	1984.97
793.357	2017.52
793.542	1957.85
793.727	1978
793.911	2028.95
794.096	1998.73
794.281	2018.88
794.465	2113.43
794.65	2009.58
794.834	2017.52
795.019	2046
795.203	2062.86
795.388	2054.92
795.572	2088.63
795.757	2021.2
795.941	2046.2
796.126	2033.8
796.31	1985.94
796.494	2022.17
796.679	1999.89
796.863	1984.2
797.048	2078.17
797.232	2038.06
797.416	2011.52
797.601	2044.26
797.785	2096.38
797.969	2048.91
798.153	2023.33
798.338	2065.18
798.522	2065.77
798.706	2065.77
798.89	2059.76
799.074	2157.6
799.258	2116.72
799.443	2077.58
799.627	2079.72
799.811	2086.5
799.995	2046.97
800.179	2036.9
800.363	2046.39
800.547	2049.88
800.731	2073.71
800.915	2000.08
801.099	2038.45
801.283	2033.02
801.467	2065.18
801.651	2034.18
801.835	2074.87
802.019	2067.12
802.202	2070.8
802.386	2013.26
802.57	2010.55
802.754	2010.16
802.938	1981.29
803.121	1991.75
803.305	2078.36
803.489	2035.93
803.673	2062.28
803.856	2056.85
804.04	2002.6
804.224	2033.02
804.407	1978.77
804.591	2021.4
804.775	2008.8
804.958	2030.7
805.142	2110.52
805.326	2017.33
805.509	2054.14
805.693	2052.98
805.876	2067.7
806.06	2053.75
806.243	2057.82
806.427	2106.45
806.61	2132.8
806.794	2049.3
806.977	2105.1
807.16	2053.56
807.344	2089.4
807.527	2092.11
807.71	2030.5
807.894	2079.13
808.077	2059.18
808.26	2014.03
808.444	1975.67
808.627	2078.36
808.81	1988.85
808.993	1978.19
809.177	1959.2
809.36	2001.83
809.543	1987.69
809.726	1929.56
809.909	1944.48
810.092	1934.79
810.276	1929.95
810.459	1933.63
810.642	1932.08
810.825	1884.81
811.008	1896.24
811.191	1825.71
811.374	1851.67
811.557	1852.45
811.74	1905.54
811.923	1790.45
812.106	1768.56
812.289	1762.16
812.472	1749.18
812.654	1827.26
812.837	1753.83
813.02	1704.04
813.203	1677.3
813.386	1602.9
813.569	1624.6
813.751	1535.48
813.934	1586.05
814.117	1557.57
814.3	1508.55
814.482	1491.89
814.665	1481.04
814.848	1435.12
815.03	1403.34
815.213	1399.47
815.396	1403.73
815.578	1401.99
815.761	1341.93
815.943	1414.39
816.126	1301.82
816.309	1283.8
816.491	1220.45
816.674	1197.2
816.856	1272.37
817.039	1267.33
817.221	1326.04
817.403	1267.72
817.586	1264.43
817.768	1271.01
817.951	1252.61
818.133	1181.12
818.315	1260.36
818.498	1284.58
818.68	1340.18
818.862	1265.4
819.045	1318.48
819.227	1281.28
819.409	1288.84
819.591	1324.68
819.774	1274.7
819.956	1246.02
820.138	1352.58
820.32	1324.88
820.502	1363.04
820.684	1419.42
820.866	1401.79
821.048	1477.16
821.231	1469.61
821.413	1450.81
821.595	1451.01
821.777	1462.82
821.959	1412.45
822.141	1493.82
822.323	1358.01
822.505	1315.77
822.686	1285.93
822.868	1251.25
823.05	1163.87
823.232	1094.32
823.414	1104.2
823.596	1157.87
823.778	1140.43
823.96	1167.36
824.141	1175.3
824.323	1202.23
824.505	1266.75
824.687	1302.21
824.868	1318.09
825.05	1379.32
825.232	1411.87
825.413	1483.55
825.595	1413.81
825.777	1360.72
825.958	1435.7
826.14	1395.59
826.321	1407.99
826.503	1406.44
826.685	1438.61
826.866	1481.23
827.048	1449.65
827.229	1379.71
827.411	1329.33
827.592	1331.66
827.773	1312.48
827.955	1296.2
828.136	1312.09
828.318	1258.03
828.499	1284.77
828.68	1230.91
828.862	1292.33
829.043	1287.48
829.224	1279.15
829.406	1218.31
829.587	1279.54
829.768	1253.96
829.949	1276.25
830.131	1268.69
830.312	1299.3
830.493	1265.78
830.674	1295.81
830.855	1264.04
831.036	1254.55
831.218	1310.15
831.399	1342.31
831.58	1280.9
831.761	1304.53
831.942	1289.81
832.123	1271.6
832.304	1203.78
832.485	1242.53
832.666	1250.67
832.847	1285.16
833.028	1271.4
833.209	1291.75
833.389	1235.36
833.57	1216.18
833.751	1245.83
833.932	1300.27
834.113	1281.86
834.294	1259.39
834.475	1276.44
834.655	1311.31
834.836	1312.09
835.017	1322.94
835.198	1266.36
835.378	1269.46
835.559	1333.01
835.74	1278.96
835.92	1241.37
836.101	1272.95
836.281	1295.81
836.462	1293.1
836.643	1349.68
836.823	1343.86
837.004	1331.66
837.184	1396.56
837.365	1333.21
837.545	1349.87
837.726	1327.78
837.906	1392.88
838.087	1330.88
838.267	1341.54
838.448	1274.31
838.628	1294.65
838.808	1300.85
838.989	1371.76
839.169	1290
839.349	1370.6
839.53	1347.35
839.71	1358.78
839.89	1272.76
840.07	1360.53
840.251	1315.77
840.431	1386.68
840.611	1310.93
840.791	1313.25
840.971	1320.81
841.151	1301.24
841.332	1293.3
841.512	1337.66
841.692	1232.85
841.872	1313.64
842.052	1294.65
842.232	1337.08
842.412	1270.63
842.592	1326.23
842.772	1291.55
842.952	1316.93
843.132	1274.11
843.312	1255.13
843.492	1249.31
843.672	1330.49
843.851	1230.52
844.031	1304.34
844.211	1303.56
844.391	1255.13
844.571	1291.55
844.751	1314.61
844.93	1262.88
845.11	1240.79
845.29	1261.91
845.47	1296.01
845.649	1254.93
845.829	1342.89
846.009	1226.06
846.188	1272.56
846.368	1274.89
846.547	1266.56
846.727	1333.98
846.907	1239.82
847.086	1260.36
847.266	1300.46
847.445	1231.3
847.625	1242.15
847.804	1229.36
847.984	1228.39
848.163	1198.75
848.343	1237.11
848.522	1253.58
848.701	1259.2
848.881	1218.31
849.06	1253.19
849.239	1215.6
849.419	1204.56
849.598	1165.03
849.777	1191.97
849.957	1173.17
850.136	1113.5
850.315	1148.37
850.494	1106.91
850.674	1099.16
850.853	1192.93
851.032	1169.88
851.211	1193.71
851.39	1171.43
851.569	1147.02
851.748	1119.31
851.927	1189.83
852.107	1164.84
852.286	1111.75
852.465	1110.98
852.644	1188.09
852.823	1137.91
853.002	1138.88
853.181	1163.1
853.359	1149.15
853.538	1108.85
853.717	1166.39
853.896	1099.74
854.075	1017.98
854.254	1020.89
854.433	959.08
854.611	1015.66
854.79	939.71
854.969	1056.92
855.148	1021.86
855.327	984.07
855.505	1033.87
855.684	1035.42
855.863	1051.11
856.041	990.08
856.22	1061.96
856.399	1025.92
856.577	1103.23
856.756	1113.89
856.934	1188.87
857.113	1218.12
857.291	1099.35
857.47	1068.55
857.648	1096.84
857.827	1137.52
858.005	1141.78
858.184	1075.14
858.362	1156.7
858.541	1098.97
858.719	1085.21
858.898	1084.44
859.076	1100.52
859.254	1134.42
859.433	1073.2
859.611	1065.25
859.789	1049.37
859.967	1109.43
860.146	1147.98
860.324	1042.39
860.502	1061.38
860.68	1042
860.859	1063.12
861.037	1044.52
861.215	1072.81
861.393	1095.67
861.571	1045.88
861.749	1068.16
861.927	1101.68
862.105	1051.69
862.283	1071.26
862.461	1030.96
862.639	994.73
862.817	1029.8
862.995	1021.47
863.173	1090.05
863.351	1028.83
863.529	1050.92
863.707	1061.57
863.885	1046.07
864.063	982.91
864.241	992.79
864.418	1066.03
864.596	1017.01
864.774	974.39
864.952	1046.85
865.129	1049.95
865.307	992.79
865.485	945.71
865.663	1060.6
865.84	947.26
866.018	988.53
866.196	864.53
866.373	881
866.551	857.56
866.728	819.2
866.906	882.94
867.084	878.48
867.261	911.23
867.439	920.33
867.616	934.09
867.794	955.01
867.971	947.26
868.149	924.01
868.326	1000.74
868.503	957.14
868.681	981.36
868.858	951.52
869.035	890.88
869.213	987.17
869.39	917.23
869.567	1006.55
869.745	916.65
869.922	958.5
870.099	958.69
870.276	958.69
870.454	994.34
870.631	962.96
870.808	947.46
870.985	955.21
871.162	1012.36
871.339	960.44
871.517	907.35
871.694	886.62
871.871	934.48
872.048	916.46
872.225	904.06
872.402	950.36
872.579	894.76
872.756	973.42
872.933	891.27
873.11	892.43
873.287	913.94
873.463	918.59
873.64	859.49
873.817	912
873.994	896.89
874.171	871.31
874.348	926.73
874.524	862.98
874.701	893.98
874.878	822.3
875.055	908.51
875.231	874.41
875.408	924.4
875.585	820.55
875.762	867.63
875.938	879.06
876.115	857.17
876.291	828.5
876.468	862.21
876.645	799.05
876.821	845.35
876.998	853.3
877.174	834.89
877.351	833.73
877.527	799.82
877.704	845.55
877.88	850.58
878.057	845.35
878.233	883.91
878.409	854.26
878.586	847.29
878.762	848.06
878.938	848.84
879.115	743.83
879.291	818.23
879.467	788.58
879.644	783.74
879.82	837.41
879.996	778.7
880.172	754.48
880.349	808.54
880.525	844.38
880.701	771.73
880.877	764.95
881.053	808.54
881.229	809.9
881.405	831.6
881.581	782.58
881.757	789.55
881.933	810.86
882.109	829.66
882.285	817.84
882.461	759.91
882.637	789.55
882.813	756.81
882.989	814.55
883.165	812.61
883.341	734.92
883.517	803.31
883.693	817.84
883.869	769.4
884.044	768.63
884.22	801.18
884.396	861.63
884.572	791.1
884.747	860.46
884.923	802.34
885.099	851.94
885.275	850.2
885.45	785.1
885.626	783.74
885.801	786.06
885.977	777.54
886.153	732.01
886.328	810.48
886.504	754.29
886.679	811.64
886.855	745.18
887.03	747.32
887.206	806.21
887.381	780.06
887.557	810.48
887.732	793.23
887.908	815.13
888.083	816.1
888.258	803.31
888.434	776.57
888.609	794.01
888.784	846.32
888.96	793.62
889.135	761.27
889.31	765.92
889.485	765.33
889.661	803.5
889.836	822.1
890.011	817.45
890.186	781.61
890.361	773.86
890.537	819.39
890.712	791.49
890.887	785.48
891.062	782
891.237	832.37
891.412	766.5
891.587	782.96
891.762	833.73
891.937	815.9
892.112	729.68
892.287	743.83
892.462	737.05
892.637	748.28
892.812	698.68
892.987	706.24
893.161	721.74
893.336	733.56
893.511	720.77
893.686	709.53
893.861	710.5
894.035	720.58
894.21	682.22
894.385	678.54
894.56	700.43
894.734	649.09
894.909	653.93
895.084	637.27
895.258	642.5
895.433	673.69
895.608	621.77
895.782	578.37
895.957	607.43
896.131	594.45
896.306	551.63
896.48	541.75
896.655	569.07
896.829	498.54
897.004	492.73
897.178	514.62
897.353	512.88
897.527	566.36
897.701	557.83
897.876	493.12
898.05	568.29
898.224	541.94
898.399	566.16
898.573	524.51
898.747	445.07
898.921	495.64
899.096	418.14
899.27	448.75
899.444	430.15
899.618	473.36
899.792	463.09
899.967	464.83
900.141	503.39
900.315	438.09
900.489	473.36
900.663	480.91
900.837	462.51
901.011	422.21
901.185	533.61
901.359	463.86
901.533	462.51
901.707	489.05
901.881	473.94
902.055	406.51
902.229	476.84
902.403	520.44
902.576	459.21
902.75	451.85
902.924	598.13
903.098	495.83
903.272	537.87
903.446	595.42
903.619	543.3
903.793	568.29
903.967	544.27
904.14	623.32
904.314	615.76
904.488	567.71
904.661	608.79
904.835	570.42
905.009	616.54
905.182	660.52
905.356	610.34
905.529	574.3
905.703	574.3
905.876	529.16
906.05	527.99
906.223	508.81
906.397	480.53
906.57	478.39
906.744	434.61
906.917	457.47
907.09	460.38
907.264	460.38
907.437	435.77
907.61	390.82
907.784	455.73
907.957	428.41
908.13	395.08
908.304	450.49
908.477	399.35
908.65	427.83
908.823	374.35
908.996	467.16
909.17	430.54
909.343	386.75
909.516	409.81
909.689	423.76
909.862	379.97
910.035	396.44
910.208	400.9
910.381	397.21
910.554	491.57
910.727	412.52
910.9	395.08
911.073	369.9
911.246	438.29
911.419	434.61
911.592	427.05
911.765	409.61
911.938	401.86
912.11	412.13
912.283	386.75
912.456	416.4
912.629	424.53
912.802	376.68
912.974	366.6
913.147	305.38
913.32	302.28
913.493	294.72
913.665	350.52
913.838	343.93
914.01	342.19
914.183	339.67
914.356	344.32
914.528	391.4
914.701	444.68
914.873	401.86
915.046	351.68
915.218	333.28
915.391	272.25
915.563	280.58
915.736	343.16
915.908	379.2
916.081	338.31
916.253	333.08
916.425	356.91
916.598	355.75
916.77	333.47
916.942	328.82
917.115	267.79
917.287	336.18
917.459	321.85
917.632	292.4
917.804	260.62
917.976	323.98
918.148	301.89
918.32	327.47
918.493	356.14
918.665	395.47
918.837	328.05
919.009	412.13
919.181	379.2
919.353	387.33
919.525	352.85
919.697	368.93
919.869	357.69
920.041	412.71
920.213	476.07
920.385	396.83
920.557	359.24
920.729	396.25
920.901	375.13
921.073	364.66
921.244	348.39
921.416	400.12
921.588	382.49
921.76	350.52
921.932	425.31
922.103	370.67
922.275	355.36
922.447	340.45
922.619	282.32
922.79	345.1
922.962	344.51
923.134	350.33
923.305	311.58
923.477	293.56
923.648	280.38
923.82	312.16
923.991	278.83
924.163	290.65
924.335	299.57
924.506	296.08
924.677	353.81
924.849	286.39
925.02	328.43
925.192	331.92
925.363	315.45
925.535	316.81
925.706	311.19
925.877	341.22
926.049	288.13
926.22	313.9
926.391	311.19
926.562	315.65
926.734	287.36
926.905	339.28
927.076	253.26
927.247	285.03
927.419	261.78
927.59	251.71
927.761	283.29
927.932	270.31
928.103	274.57
928.274	211.02
928.445	215.09
928.616	243.77
928.787	229.62
928.958	257.13
929.129	250.74
929.3	220.52
929.471	183.51
929.642	137.01
929.813	91.48
929.984	202.69
930.155	100.97
930.326	195.72
930.496	137.79
930.667	101.36
930.838	139.92
931.009	112.41
931.18	114.34
931.35	119.38
931.521	124.22
931.692	75.59
931.863	48.08
932.033	98.26
932.204	107.95
932.374	108.72
932.545	38.78
932.716	117.64
932.886	105.43
933.057	44.79
933.227	42.66
933.398	141.66
933.568	51.96
933.739	-4.81
933.909	24.83
934.08	72.88
934.25	-23.8
934.421	5.46
934.591	65.91
934.761	29.29
934.932	-12.56
935.102	46.53
935.272	29.68
935.443	32.19
935.613	31.42
935.783	54.28
935.953	5.65
936.123	166.85
936.294	11.46
936.464	27.54
936.634	28.9
936.804	-2.49
936.974	-13.72
937.144	32.78
937.314	51.76
937.484	21.54
937.655	-2.1
937.825	59.32
937.995	1.58
938.165	68.23
938.334	30.64
938.504	44.21
938.674	33.16
938.844	45.76
939.014	91.87
939.184	78.89
939.354	112.79
939.524	110.66
939.694	59.13
939.863	57.96
940.033	125.39
940.203	94.39
940.373	96.52
940.542	100.01
940.712	106.01
940.882	124.81
941.051	100.01
941.221	109.69
941.391	144.57
941.56	60.29
941.73	51.76
941.899	157.16
942.069	60.09
942.238	86.83
942.408	49.44
942.577	101.56
942.747	49.63
942.916	10.49
943.086	27.93
943.255	88.19
943.425	92.64
943.594	56.41
943.763	-6.94
943.933	22.89
944.102	-10.24
944.271	47.5
944.441	57.38
944.61	35.29
944.779	39.56
944.948	141.66
945.117	15.14
945.287	38.59
945.456	-0.16
945.625	6.43
945.794	55.64
945.963	13.79
946.132	80.24
946.301	31.42
946.47	59.71
946.639	-5.97
946.808	33.74
946.977	50.6
947.146	73.66
947.315	24.25
947.484	71.14
947.653	41.49
947.822	25.61
947.991	42.85
948.16	107.37
948.329	102.52
948.498	40.14
948.666	70.36
948.835	59.71
949.004	4.49
949.173	10.11
949.341	48.28
949.51	80.63
949.679	72.88
949.847	61.84
950.016	122.29
950.185	106.79
950.353	19.6
950.522	32.97
950.69	102.14
950.859	38.59
951.028	99.81
951.196	35.68
951.365	27.16
951.533	41.69
951.701	51.96
951.87	65.13
952.038	19.21
952.207	56.99
952.375	120.74
952.543	41.69
952.712	52.34
952.88	16.5
953.048	105.62
953.217	37.04
953.385	50.02
953.553	99.62
953.721	21.15
953.89	33.55
954.058	-1.13
954.226	6.81
954.394	67.84
954.562	11.66
954.73	54.48
954.898	60.29
955.067	96.71
955.235	9.33
955.403	76.37
955.571	122.48
955.739	70.94
955.907	27.54
956.075	57.19
956.243	6.62
956.41	61.64
956.578	26.77
956.746	22.89
956.914	40.53
957.082	53.7
957.25	68.04
957.418	18.24
957.585	84.31
957.753	79.47
957.921	34.52
958.089	41.3
958.256	72.49
958.424	71.33
958.592	86.64
958.759	30.84
958.927	102.91
959.095	25.03
959.262	44.01
959.43	65.13
959.597	7.78
959.765	36.26
959.932	23.67
960.1	87.99
960.267	87.41
960.435	22.51
960.602	89.74
960.77	35.49
960.937	3.71
961.104	77.34
961.272	7.01
961.439	27.74
961.606	66.29
961.774	69.01
961.941	52.34
962.108	56.22
962.275	37.62
962.443	99.81
962.61	75.4
962.777	112.79
962.944	79.47
963.111	78.11
963.278	85.09
963.446	72.49
963.613	66.29
963.78	44.21
963.947	70.56
964.114	43.04
964.281	141.66
964.448	66.29
964.615	43.24
964.782	71.72
964.949	88.57
965.116	85.67
965.282	89.35
965.449	40.72
965.616	34.71
965.783	98.07
965.95	79.08
966.117	29.68
966.283	47.11
966.45	61.64
966.617	67.65
966.784	116.28
966.95	74.62
967.117	111.63
967.284	33.94
967.45	35.49
967.617	121.32
967.784	75.98
967.95	113.37
968.117	54.67
968.283	113.76
968.45	167.62
968.616	81.21
968.783	85.86
968.949	53.31
969.116	115.31
969.282	92.45
969.449	89.74
969.615	92.26
969.781	43.04
969.948	57.19
970.114	18.24
970.28	130.23
970.447	63
970.613	136.62
970.779	87.8
970.945	74.24
971.112	72.88
971.278	68.62
971.444	75.79
971.61	107.76
971.776	43.82
971.942	84.31
972.108	99.23
972.275	78.89
972.441	122.48
972.607	139.14
972.773	53.12
972.939	86.06
973.105	77.14
973.271	35.49
973.437	64.16
973.602	55.83
973.768	77.92
973.934	55.06
974.1	98.84
974.266	2.55
974.432	63
974.598	69.39
974.763	57.58
974.929	66.88
975.095	127.52
975.261	55.06
975.426	-8.11
975.592	55.06
975.758	112.41
975.923	33.16
976.089	69.98
976.255	100.39
976.42	69.59
976.586	88.77
976.751	74.04
976.917	162.59
977.082	91.29
977.248	1.97
977.413	20.38
977.579	88.96
977.744	62.81
977.91	43.63
978.075	49.83
978.24	80.63
978.406	46.53
978.571	40.33
978.736	47.31
978.902	89.35
979.067	28.13
979.232	5.46
979.397	80.24
979.563	104.07
979.728	35.49
979.893	47.69
980.058	66.29
980.223	94
980.388	80.24
980.554	82.18
980.719	39.75
980.884	75.59
981.049	114.73
981.214	45.76
981.379	49.24
981.544	40.33
981.709	52.73
981.874	32.97
982.039	30.84
982.204	83.15
982.368	67.84
982.533	29.29
982.698	102.52
982.863	93.81
983.028	35.49
983.193	69.78
983.357	70.36
983.522	51.57
983.687	30.45
983.852	61.26
984.016	62.81
984.181	47.69
984.346	84.12
984.51	78.69
984.675	46.14
984.839	57.58
985.004	56.99
985.168	115.51
985.333	67.84
985.498	58.16
985.662	81.99
985.827	102.91
985.991	62.81
986.155	65.52
986.32	95.36
986.484	120.54
986.649	65.13
986.813	22.7
986.977	94.39
987.142	75.01
987.306	21.93
987.47	25.03
987.634	70.17
987.799	78.5
987.963	66.68
988.127	108.92
988.291	156.58
988.455	69.98
988.62	31.81
988.784	109.31
988.948	78.89
989.112	5.84
989.276	62.23
989.44	51.38
989.604	49.24
989.768	68.04
989.932	121.9
990.096	30.26
990.26	17.86
990.424	21.93
990.588	57.19
990.752	127.71
990.915	89.93
991.079	48.08
991.243	34.33
991.407	106.98
991.571	57.96
991.734	101.17
991.898	89.35
992.062	148.25
992.226	59.71
992.389	43.82
992.553	-24.38
992.717	28.71
992.88	47.5
993.044	44.98
993.207	44.59
993.371	76.37
993.535	63.97
993.698	62.03
993.862	73.07
994.025	110.86
994.189	48.66
994.352	69.2
994.515	80.44
994.679	72.69
994.842	24.83
995.006	92.26
995.169	30.84
995.332	21.54
995.496	75.4
995.659	7.01
995.822	56.22
995.985	44.01
996.149	100.59
996.312	55.06
996.475	109.5
996.638	21.34
996.801	84.51
996.964	109.89
997.128	44.21
997.291	38.78
997.454	69.98
997.617	17.86
997.78	94.39
997.943	24.44
998.106	66.49
998.269	29.48
998.432	43.63
998.595	78.11
998.758	13.59
998.92	32.78
999.083	-1.71
999.246	25.41
999.409	13.01
999.572	-20.5
999.735	9.14
999.897	24.83
1000.06	33.74
1000.223	25.03
1000.386	58.16
1000.548	51.18
1000.711	92.26
1000.874	57.77
1001.036	-11.21
1001.199	60.09
1001.361	39.75
1001.524	38.2
1001.687	84.31
1001.849	11.08
1002.012	67.26
1002.174	63.97
1002.337	83.73
1002.499	42.27
1002.661	75.21
1002.824	18.83
1002.986	22.89
1003.149	27.35
1003.311	4.68
1003.473	113.76
1003.636	37.23
1003.798	67.84
1003.96	50.41
1004.123	26.77
1004.285	-0.16
1004.447	17.47
1004.609	37.23
1004.771	105.82
1004.933	-18.76
1005.096	18.44
1005.258	-5.2
1005.42	-0.74
1005.582	52.73
1005.744	42.08
1005.906	-24.96
1006.068	42.46
1006.23	-18.95
1006.392	-40.07
1006.554	-1.52
1006.716	47.5
1006.878	60.29
1007.04	4.88
1007.202	9.53
1007.363	47.31
1007.525	44.4
1007.687	29.87
1007.849	68.43
1008.011	-18.95
1008.172	14.37
1008.334	28.13
1008.496	38.59
1008.658	1
1008.819	16.11
1008.981	-9.85
1009.143	7.2
1009.304	57.38
1009.466	40.14
1009.627	86.25
1009.789	109.11
1009.95	26.77
1010.112	23.86
1010.273	41.69
1010.435	-1.52
1010.596	26.19
1010.758	11.27
1010.919	19.6
1011.081	-10.82
1011.242	44.4
1011.403	37.43
1011.565	16.11
1011.726	46.92
1011.887	-41.04
1012.049	32
1012.21	63.78
1012.371	92.26
1012.532	-24.77
1012.693	14.37
1012.855	-17.99
1013.016	28.32
1013.177	43.04
1013.338	36.26
1013.499	47.5
1013.66	47.31
1013.821	41.49
1013.982	25.99
1014.143	12.82
1014.304	-2.1
1014.465	19.99
1014.626	50.21
1014.787	14.18
1014.948	106.59
1015.109	-51.31
1015.27	57.19
1015.431	-4.81
1015.592	-21.28
1015.752	65.71
1015.913	23.67
1016.074	34.71
1016.235	3.71
1016.395	13.4
1016.556	18.63
1016.717	28.32
1016.877	44.98
1017.038	8.75
1017.199	32.97
1017.359	40.91
1017.52	33.16
1017.681	8.56
1017.841	45.56
1018.002	-0.94
1018.162	7.98
1018.323	81.41
1018.483	-0.16
1018.644	-6.17
1018.804	-42.2
1018.964	-36.59
1019.125	-24.96
1019.285	22.89
1019.446	-6.75
1019.606	-4.81
1019.766	-33.29
1019.926	31.23
1020.087	31.61
1020.247	-44.34
1020.407	70.36
1020.567	44.4
1020.728	10.11
1020.888	-16.44
1021.048	0.81
1021.208	3.52
1021.368	-20.5
1021.528	43.04
1021.688	42.85
1021.848	46.34
1022.008	24.83
1022.168	-2.87
1022.328	38.39
1022.488	40.33
1022.648	26.96
1022.808	22.12
1022.968	18.24
1023.128	8.17
1023.288	-13.14
1023.448	-0.36
1023.608	50.02
1023.767	42.85
1023.927	1.97
1024.087	-20.12
1024.247	-25.35
1024.406	2.36
1024.566	-21.09
1024.726	-35.23
1024.885	23.48
1025.045	31.42
1025.205	34.71
1025.364	15.34
1025.524	21.34
1025.683	20.96
1025.843	11.08
1026.003	-1.52
1026.162	59.71
1026.321	61.26
1026.481	20.57
1026.64	-0.55
1026.8	23.28
1026.959	21.34
1027.119	21.73
1027.278	2.16
1027.437	-28.25
1027.597	28.71
1027.756	28.71
1027.915	43.82
1028.074	38.98
1028.234	-2.1
1028.393	19.6
1028.552	-4.04
1028.711	-53.25
1028.87	39.17
1029.03	-30.58
1029.189	21.54
1029.348	-58.48
1029.507	-13.14
1029.666	-25.93
1029.825	-26.12
1029.984	-9.66
1030.143	26.58
1030.302	10.88
1030.461	-34.45
1030.62	9.14
1030.779	37.04
1030.938	-19.73
1031.097	-17.02
1031.255	16.11
1031.414	76.37
1031.573	56.41
1031.732	-35.04
1031.891	-16.05
1032.049	58.93
1032.208	13.98
1032.367	-11.79
1032.525	3.33
1032.684	27.54
1032.843	22.89
1033.001	-50.73
1033.16	133.52
1033.319	32.39
1033.477	31.81
1033.636	-6.75
1033.794	-29.22
1033.953	33.36
1034.111	32.97
1034.27	0.23
1034.428	26.38
1034.587	-21.86
1034.745	3.52
1034.903	12.43
1035.062	31.23
1035.22	-42.98
1035.378	29.68
1035.537	-40.07
1035.695	38.2
1035.853	-2.68
1036.011	33.16
1036.17	24.44
1036.328	-61.77
1036.486	14.18
1036.644	7.98
1036.802	-53.25
1036.96	-8.88
1037.119	-4.62
1037.277	2.74
1037.435	-32.9
1037.593	-11.79
1037.751	-8.88
1037.909	24.06
1038.067	24.06
