Data from pine_FLMT105791__63__17-21-03-077.txt Node

Date: Mon Mar 20 17:21:03 GMT 2023
User: antho
Spectrometer: FLMT10579
Trigger mode: 0
Integration Time (sec): 1.000000E-1
Scans to average: 10
Electric dark correction enabled: true
Nonlinearity correction enabled: false
Boxcar width: 0
XAxis mode: Wavelengths
Number of Pixels in Spectrum: 3648
>>>>>Begin Spectral Data<<<<<
345.248	-139.5
345.464	-139.5
345.681	-139.5
345.898	-187.55
346.114	-149.96
346.331	-31.39
346.548	24.8
346.764	-4.07
346.981	-0.97
347.197	-9.88
347.414	12.21
347.631	-9.69
347.847	56.57
348.064	-4.07
348.28	19.37
348.497	-51.54
348.713	-1.36
348.93	42.24
349.146	-3.87
349.363	15.89
349.579	4.84
349.796	-15.5
350.012	-19.18
350.229	27.9
350.445	11.43
350.661	-19.96
350.878	2.13
351.094	0.19
351.311	19.96
351.527	8.14
351.743	-15.89
351.96	36.04
352.176	41.27
352.392	6.59
352.609	48.05
352.825	-4.07
353.041	-1.36
353.257	2.91
353.474	8.33
353.69	7.94
353.906	14.53
354.122	-25.96
354.339	49.6
354.555	-7.94
354.771	-0.77
354.987	42.24
355.203	68.2
355.42	4.46
355.636	-42.24
355.852	-2.13
356.068	-17.63
356.284	-41.07
356.5	56.96
356.716	6.97
356.932	25.19
357.148	2.13
357.364	-6.39
357.58	48.24
357.796	60.06
358.012	52.31
358.228	5.62
358.444	-41.27
358.66	53.67
358.876	11.62
359.092	-17.82
359.308	36.62
359.524	23.06
359.74	-17.24
359.956	-20.92
360.172	-9.69
360.388	41.66
360.604	-21.7
360.819	101.72
361.035	30.81
361.251	27.12
361.467	-30.61
361.683	49.02
361.898	7.75
362.114	16.66
362.33	18.99
362.546	41.85
362.762	-5.81
362.977	9.88
363.193	-10.46
363.409	46.5
363.624	-34.1
363.84	-3.1
364.056	-13.76
364.271	10.07
364.487	3.87
364.703	12.4
364.918	-12.4
365.134	-2.13
365.35	-27.71
365.565	104.62
365.781	14.14
365.996	37.78
366.212	63.16
366.427	17.24
366.643	12.21
366.858	-12.21
367.074	-34.49
367.289	72.27
367.505	78.47
367.72	-37.2
367.936	-10.66
368.151	30.03
368.367	20.15
368.582	18.41
368.798	-13.56
369.013	59.87
369.228	31.97
369.444	18.21
369.659	61.03
369.874	18.99
370.09	72.85
370.305	-38.17
370.52	5.23
370.736	49.02
370.951	18.02
371.166	57.93
371.381	68.01
371.597	56.19
371.812	9.69
372.027	-22.67
372.242	-0.58
372.458	80.79
372.673	0.97
372.888	-0.97
373.103	54.44
373.318	104.82
373.533	41.85
373.749	43.4
373.964	-37.39
374.179	64.13
374.394	-17.63
374.609	65.49
374.824	-31.97
375.039	38.94
375.254	-5.42
375.469	63.55
375.684	5.23
375.899	58.71
376.114	9.88
376.329	7.36
376.544	34.87
376.759	44.76
376.974	8.91
377.189	18.99
377.404	-15.31
377.619	45.14
377.834	-42.82
378.049	-26.93
378.264	-16.27
378.478	23.64
378.693	-7.17
378.908	54.25
379.123	-13.56
379.338	56.19
379.553	38.56
379.767	26.54
379.982	59.48
380.197	27.9
380.412	4.07
380.626	22.09
380.841	95.71
381.056	34.87
381.271	65.87
381.485	-12.59
381.7	-3.29
381.915	-14.14
382.129	-5.23
382.344	11.62
382.559	-5.04
382.773	55.61
382.988	-39.52
383.202	19.37
383.417	-2.13
383.632	128.45
383.846	31.58
384.061	39.91
384.275	-18.99
384.49	39.91
384.704	68.59
384.919	27.51
385.133	-7.94
385.348	42.62
385.562	-33.91
385.777	49.21
385.991	3.68
386.206	-13.56
386.42	-12.4
386.634	43.79
386.849	31.97
387.063	25.96
387.277	-31.77
387.492	-6.39
387.706	-21.12
387.92	-2.52
388.135	29.64
388.349	17.82
388.563	1.16
388.778	20.92
388.992	36.81
389.206	46.5
389.42	73.04
389.635	9.88
389.849	46.11
390.063	42.43
390.277	17.44
390.491	86.8
390.706	37.59
390.92	38.36
391.134	8.33
391.348	35.65
391.562	-47.27
391.776	-6.01
391.99	-7.17
392.205	30.03
392.419	-30.61
392.633	24.8
392.847	73.82
393.061	-6.59
393.275	75.56
393.489	36.42
393.703	40.88
393.917	67.23
394.131	-18.21
394.345	54.64
394.559	53.28
394.773	-21.89
394.986	20.54
395.2	-0.58
395.414	45.34
395.628	-23.06
395.842	42.24
396.056	-15.69
396.27	-33.91
396.484	29.64
396.697	40.69
396.911	67.04
397.125	52.31
397.339	53.47
397.553	35.84
397.766	87.38
397.98	77.31
398.194	62.77
398.408	15.89
398.621	38.75
398.835	44.76
399.049	23.64
399.262	72.27
399.476	36.81
399.69	62.19
399.903	93.58
400.117	5.81
400.331	56.57
400.544	-10.85
400.758	107.72
400.971	28.09
401.185	52.7
401.398	-8.91
401.612	73.62
401.826	45.72
402.039	47.08
402.253	13.95
402.466	35.26
402.68	6.2
402.893	22.86
403.106	-6.2
403.32	28.29
403.533	23.64
403.747	26.93
403.96	12.01
404.174	56.19
404.387	-2.71
404.6	20.34
404.814	87.38
405.027	43.01
405.24	6.97
405.454	14.92
405.667	67.04
405.88	-26.93
406.094	28.09
406.307	76.72
406.52	35.46
406.733	1.55
406.947	-37.39
407.16	74.59
407.373	92.61
407.586	-11.82
407.799	-17.63
408.012	45.53
408.226	30.03
408.439	82.92
408.652	-7.56
408.865	20.34
409.078	58.9
409.291	46.11
409.504	13.56
409.717	37.78
409.93	57.74
410.143	37.78
410.357	-6.39
410.57	3.1
410.783	20.73
410.996	54.44
411.209	24.22
411.421	56.57
411.634	12.01
411.847	3.68
412.06	41.66
412.273	22.67
412.486	47.47
412.699	102.69
412.912	11.04
413.125	56.57
413.338	46.69
413.55	57.54
413.763	14.14
413.976	42.24
414.189	-4.65
414.402	12.79
414.615	94.35
414.827	0.39
415.04	62.97
415.253	33.91
415.466	53.28
415.678	112.57
415.891	24.8
416.104	3.49
416.316	43.01
416.529	0.97
416.742	56.19
416.954	80.99
417.167	46.31
417.38	38.36
417.592	78.86
417.805	26.74
418.017	-37.97
418.23	62.19
418.442	28.67
418.655	31.39
418.868	42.62
419.08	67.42
419.293	79.82
419.505	28.87
419.718	53.47
419.93	54.83
420.142	28.67
420.355	79.24
420.567	98.81
420.78	81.76
420.992	38.75
421.205	89.9
421.417	-17.63
421.629	25.38
421.842	3.29
422.054	-3.68
422.266	48.44
422.479	86.02
422.691	40.49
422.903	74.21
423.115	45.53
423.328	42.04
423.54	48.44
423.752	30.81
423.964	16.86
424.177	21.31
424.389	38.56
424.601	125.55
424.813	54.64
425.025	58.51
425.238	62
425.45	20.34
425.662	45.34
425.874	368.31
426.086	53.86
426.298	83.31
426.51	48.05
426.722	55.61
426.934	39.14
427.146	71.3
427.358	-13.37
427.57	80.6
427.782	37.2
427.994	37.78
428.206	17.82
428.418	7.17
428.63	65.29
428.842	78.08
429.054	66.07
429.266	89.9
429.478	42.82
429.69	51.54
429.902	14.53
430.114	77.89
430.325	77.31
430.537	50.37
430.749	45.34
430.961	-24.99
431.173	34.87
431.384	94.55
431.596	2.91
431.808	52.51
432.02	73.04
432.231	71.11
432.443	106.37
432.655	51.34
432.867	30.81
433.078	49.21
433.29	130.78
433.502	111.6
433.713	105.2
433.925	61.22
434.136	95.9
434.348	26.74
434.56	6.59
434.771	156.16
434.983	-9.3
435.194	47.66
435.406	54.83
435.617	69.94
435.829	122.64
436.04	82.73
436.252	103.27
436.463	105.4
436.675	109.66
436.886	79.63
437.098	89.7
437.309	132.72
437.521	73.04
437.732	84.09
437.943	77.31
438.155	96.87
438.366	58.12
438.578	119.74
438.789	108.5
439	131.75
439.211	76.14
439.423	87.57
439.634	79.24
439.845	110.24
440.057	120.12
440.268	119.35
440.479	60.45
440.69	84.67
440.902	60.26
441.113	99.2
441.324	95.32
441.535	108.3
441.746	170.11
441.957	58.51
442.168	67.23
442.38	136.4
442.591	122.64
442.802	75.56
443.013	81.18
443.224	97.65
443.435	75.76
443.646	95.52
443.857	93
444.068	71.49
444.279	79.82
444.49	171.47
444.701	85.83
444.912	206.92
445.123	135.62
445.334	113.92
445.545	120.9
445.756	96.68
445.967	82.15
446.178	127.29
446.388	158.68
446.599	139.69
446.81	138.53
447.021	89.32
447.232	140.66
447.443	155
447.653	108.11
447.864	141.82
448.075	81.76
448.286	154.42
448.496	145.12
448.707	163.33
448.918	120.12
449.129	212.73
449.339	107.14
449.55	137.75
449.761	130.59
449.971	190.65
450.182	149.38
450.393	165.85
450.603	115.28
450.814	174.37
451.024	145.12
451.235	164.3
451.446	173.02
451.656	188.9
451.867	127.87
452.077	142.21
452.288	200.33
452.498	186.19
452.709	115.28
452.919	176.31
453.13	110.05
453.34	172.82
453.55	96.87
453.761	165.07
453.971	168.37
454.182	173.99
454.392	162.94
454.602	198.78
454.813	186.97
455.023	161.78
455.233	109.27
455.444	145.7
455.654	72.07
455.864	146.09
456.075	134.85
456.285	130.78
456.495	140.47
456.705	154.61
456.916	189.1
457.126	213.9
457.336	172.05
457.546	99
457.756	155.77
457.967	205.37
458.177	145.12
458.387	200.53
458.597	153.06
458.807	146.28
459.017	149.57
459.227	151.12
459.437	137.56
459.647	199.75
459.857	202.47
460.068	150.35
460.278	202.66
460.488	195.1
460.698	230.37
460.908	180.96
461.117	118.96
461.327	146.28
461.537	172.82
461.747	162.75
461.957	167.2
462.167	282.1
462.377	209.44
462.587	192.39
462.797	210.22
463.007	175.92
463.216	200.53
463.426	237.34
463.636	211.96
463.846	144.34
464.056	157.32
464.265	256.91
464.475	160.81
464.685	176.5
464.895	208.86
465.104	172.63
465.314	183.67
465.524	177.67
465.733	132.52
465.943	241.6
466.153	247.03
466.362	221.45
466.572	205.18
466.782	162.94
466.991	218.16
467.201	241.22
467.41	160.04
467.62	203.82
467.829	198.2
468.039	193.55
468.249	168.37
468.458	188.9
468.668	228.62
468.877	225.72
469.086	240.25
469.296	235.6
469.505	180.38
469.715	271.25
469.924	223.58
470.134	218.93
470.343	265.82
470.552	207.7
470.762	207.5
470.971	168.95
471.18	231.14
471.39	210.99
471.599	189.48
471.808	212.54
472.018	167.4
472.227	236.57
472.436	247.03
472.645	203.43
472.855	201.88
473.064	290.43
473.273	232.88
473.482	266.79
473.691	267.76
473.901	244.7
474.11	237.34
474.319	331.11
474.528	249.74
474.737	279.38
474.946	244.32
475.155	248.58
475.364	299.15
475.573	249.35
475.783	250.71
475.992	276.86
476.201	286.16
476.41	276.86
476.619	218.55
476.828	263.88
477.037	219.13
477.245	262.53
477.454	285.2
477.663	271.83
477.872	257.88
478.081	316.97
478.29	226.3
478.499	349.52
478.708	266.4
478.917	354.94
479.125	307.48
479.334	305.35
479.543	284.61
479.752	305.15
479.961	307.09
480.169	297.79
480.378	282.87
480.587	424.69
480.796	352.81
481.004	316.2
481.213	317.75
481.422	303.41
481.63	302.83
481.839	342.55
482.048	383.43
482.256	314.84
482.465	320.26
482.674	340.8
482.882	356.11
483.091	389.82
483.299	325.11
483.508	379.94
483.716	329.76
483.925	337.9
484.134	308.45
484.342	314.84
484.551	367.34
484.759	366.76
484.967	367.73
485.176	383.62
485.384	382.26
485.593	360.95
485.801	353.2
486.01	342.16
486.218	338.28
486.426	277.25
486.635	325.5
486.843	286.55
487.051	345.65
487.26	326.46
487.468	359.98
487.676	389.04
487.885	335.57
488.093	351.07
488.301	369.48
488.509	362.89
488.717	394.47
488.926	386.72
489.134	345.84
489.342	388.27
489.55	328.98
489.758	368.31
489.967	327.63
490.175	485.53
490.383	349.52
490.591	423.53
490.799	322.01
491.007	427.21
491.215	385.75
491.423	392.14
491.631	397.96
491.839	424.69
492.047	413.46
492.255	378.78
492.463	334.8
492.671	369.48
492.879	443.68
493.087	392.92
493.295	417.53
493.503	423.53
493.711	410.55
493.919	456.27
494.127	464.02
494.334	443.87
494.542	399.51
494.75	424.89
494.958	411.91
495.166	479.72
495.374	440
495.581	430.89
495.789	446.78
495.997	499.29
496.205	418.88
496.412	432.83
496.62	452.4
496.828	454.92
497.035	455.11
497.243	455.31
497.451	453.37
497.658	450.07
497.866	447.75
498.074	542.3
498.281	454.92
498.489	532.61
498.696	492.89
498.904	447.75
499.112	449.49
499.319	500.84
499.527	468.48
499.734	491.92
499.942	441.94
500.149	451.62
500.357	465.19
500.564	431.86
500.771	507.04
500.979	426.44
501.186	461.7
501.394	472.16
501.601	474.29
501.808	487.86
502.016	450.46
502.223	472.55
502.43	485.14
502.638	490.57
502.845	469.64
503.052	555.47
503.26	458.41
503.467	558.38
503.674	485.14
503.881	519.24
504.089	562.25
504.296	541.72
504.503	469.06
504.71	478.17
504.917	445.81
505.125	514.79
505.332	511.69
505.539	513.24
505.746	554.31
505.953	522.92
506.16	519.63
506.367	578.14
506.574	566.71
506.781	578.14
506.988	502.77
507.195	531.64
507.402	539.78
507.609	562.25
507.816	534.94
508.023	538.04
508.23	522.73
508.437	489.21
508.644	549.66
508.851	588.02
509.058	546.75
509.265	559.35
509.472	597.9
509.679	652.73
509.885	551.4
510.092	560.9
510.299	542.3
510.506	570.97
510.713	571.55
510.92	570.39
511.126	600.42
511.333	607.01
511.54	601.78
511.746	634.72
511.953	601.2
512.16	625.03
512.367	537.45
512.573	575.04
512.78	611.66
512.987	602.75
513.193	577.95
513.4	516.53
513.606	577.75
513.813	609.72
514.02	612.24
514.226	676.18
514.433	621.15
514.639	558.77
514.846	596.94
515.052	548.3
515.259	582.02
515.465	615.73
515.672	595.77
515.878	688.58
516.085	596.16
516.291	659.13
516.497	590.35
516.704	614.37
516.91	553.15
517.117	547.92
517.323	513.43
517.529	581.63
517.736	579.3
517.942	582.4
518.148	583.57
518.354	619.8
518.561	573.69
518.767	619.41
518.973	635.1
519.179	683.35
519.386	581.63
519.592	595
519.798	623.28
520.004	678.12
520.21	614.18
520.417	677.92
520.623	684.32
520.829	693.62
521.035	680.44
521.241	689.16
521.447	697.1
521.653	802.11
521.859	685.48
522.065	717.64
522.271	789.91
522.477	736.43
522.683	765.5
522.889	741.66
523.095	743.21
523.301	716.09
523.507	696.72
523.713	727.13
523.919	725
524.125	785.06
524.331	704.27
524.537	803.08
524.742	768.79
524.948	784.1
525.154	799.59
525.36	843.38
525.566	752.13
525.772	831.95
525.977	748.06
526.183	791.46
526.389	817.23
526.595	754.65
526.8	768.79
527.006	734.69
527.212	702.53
527.417	717.64
527.623	700.98
527.829	812.96
528.034	751.93
528.24	777.31
528.446	736.05
528.651	810.44
528.857	795.72
529.062	856.75
529.268	777.12
529.473	821.68
529.679	806.18
529.884	881.55
530.09	856.36
530.295	900.92
530.501	879.42
530.706	859.46
530.912	815.87
531.117	844.93
531.323	848.23
531.528	894.92
531.733	899.37
531.939	849.19
532.144	883.68
532.35	902.28
532.555	898.99
532.76	892.59
532.966	902.09
533.171	862.76
533.376	822.26
533.581	842.8
533.787	851.91
533.992	876.71
534.197	884.26
534.402	841.25
534.607	884.65
534.813	981.52
535.018	873.41
535.223	872.06
535.428	902.86
535.633	942.97
535.838	903.83
536.043	908.87
536.249	979.2
536.454	921.07
536.659	950.33
536.864	912.55
537.069	918.75
537.274	934.44
537.479	942.39
537.684	964.09
537.889	905.19
538.094	997.99
538.299	904.99
538.504	933.86
538.708	949.17
538.913	960.6
539.118	944.32
539.323	939.48
539.528	898.79
539.733	929.21
539.938	956.53
540.142	959.44
540.347	920.11
540.552	924.56
540.757	932.31
540.962	938.51
541.166	878.26
541.371	901.51
541.576	919.72
541.781	814.71
541.985	916.62
542.19	926.69
542.395	995.86
542.599	1024.15
542.804	1004.39
543.008	1015.43
543.213	909.64
543.418	913.71
543.622	965.05
543.827	935.22
544.031	1019.5
544.236	997.22
544.44	943.36
544.645	1043.91
544.849	955.95
545.054	1009.42
545.258	1092.93
545.463	1015.24
545.667	971.06
545.872	993.54
546.076	1008.26
546.281	1002.25
546.485	964.67
546.689	1013.88
546.894	1019.5
547.098	1010.59
547.302	951.3
547.507	1000.51
547.711	1007.49
547.915	1056.5
548.119	971.64
548.324	980.17
548.528	1082.47
548.732	1008.45
548.936	1018.53
549.141	1005.35
549.345	986.56
549.549	1020.27
549.753	979.2
549.957	1055.73
550.161	1099.9
550.366	1042.36
550.57	994.12
550.774	994.31
550.978	993.54
551.182	1037.32
551.386	992.76
551.59	989.27
551.794	971.45
551.998	1027.44
552.202	1010.39
552.406	984.24
552.61	1028.8
552.814	1015.24
553.018	1087.12
553.222	1025.12
553.426	1002.64
553.63	1078.59
553.833	988.5
554.037	947.42
554.241	1085.37
554.445	1047.01
554.649	1007.1
554.853	1008.84
555.056	1022.4
555.26	1064.45
555.464	1011.55
555.668	1050.11
555.871	1075.49
556.075	1074.72
556.279	984.43
556.483	994.7
556.686	1018.72
556.89	1012.72
557.094	1026.47
557.297	955.17
557.501	1033.45
557.704	952.07
557.908	1028.8
558.112	991.4
558.315	1055.15
558.519	1005.55
558.722	980.36
558.926	973.97
559.129	934.44
559.333	925.34
559.536	936.96
559.74	930.57
559.943	928.24
560.147	921.07
560.35	963.7
560.553	918.17
560.757	908.29
560.96	1018.72
561.164	912.16
561.367	1008.45
561.57	956.53
561.774	991.02
561.977	945.49
562.18	942.58
562.384	1037.52
562.587	962.92
562.79	947.62
562.993	969.7
563.197	1013.69
563.4	986.95
563.603	1019.11
563.806	1042.55
564.009	955.56
564.212	1014.65
564.416	909.45
564.619	989.08
564.822	928.82
565.025	1013.49
565.228	925.53
565.431	964.67
565.634	900.54
565.837	934.25
566.04	898.21
566.243	880
566.446	832.34
566.649	968.54
566.852	890.27
567.055	914.29
567.258	931.73
567.461	1010
567.664	958.47
567.867	867.99
568.07	942.77
568.273	925.72
568.475	971.25
568.678	912.16
568.881	901.31
569.084	958.27
569.287	840.86
569.489	842.41
569.692	930.18
569.895	941.61
570.098	864.89
570.3	860.63
570.503	831.56
570.706	833.31
570.909	828.66
571.111	831.56
571.314	824.59
571.516	836.6
571.719	857.33
571.922	845.32
572.124	793.78
572.327	847.06
572.529	800.18
572.732	788.16
572.935	849
573.137	913.13
573.34	819.74
573.542	866.05
573.745	868.18
573.947	882.91
574.15	831.95
574.352	801.53
574.554	888.72
574.757	801.73
574.959	766.27
575.162	816.84
575.364	804.83
575.566	922.43
575.769	808.31
575.971	814.51
576.173	718.41
576.376	820.71
576.578	820.33
576.78	864.11
576.982	724.61
577.185	778.86
577.387	783.32
577.589	758.71
577.791	822.26
577.993	815.48
578.196	791.84
578.398	837.18
578.6	847.26
578.802	745.73
579.004	775.18
579.206	752.71
579.408	806.96
579.61	772.28
579.812	804.63
580.014	754.65
580.216	771.7
580.418	774.8
580.62	731.59
580.822	710.08
581.024	756.2
581.226	776.73
581.428	762.78
581.63	864.69
581.832	768.4
582.034	817.03
582.236	781.77
582.438	789.52
582.64	820.33
582.841	836.6
583.043	873.99
583.245	807.34
583.447	808.12
583.649	794.94
583.85	789.91
584.052	831.56
584.254	760.07
584.456	810.06
584.657	731.59
584.859	833.31
585.061	749.8
585.262	768.6
585.464	741.86
585.666	796.69
585.867	774.02
586.069	808.89
586.27	813.35
586.472	797.66
586.674	729.07
586.875	750.96
587.077	745.15
587.278	783.13
587.48	733.33
587.681	847.45
587.883	769.18
588.084	719
588.285	724.42
588.487	738.56
588.688	779.83
588.89	719.77
589.091	713.96
589.292	717.83
589.494	688.19
589.695	694
589.896	636.07
590.098	629.1
590.299	680.63
590.5	668.23
590.702	684.12
590.903	687.22
591.104	780.61
591.305	695.36
591.507	755.61
591.708	738.95
591.909	723.84
592.11	770.15
592.311	751.93
592.512	691.48
592.714	654.87
592.915	685.28
593.116	701.17
593.317	700.4
593.518	714.93
593.719	688.38
593.92	733.91
594.121	768.4
594.322	731.4
594.523	711.83
594.724	706.79
594.925	711.63
595.126	729.85
595.327	743.8
595.528	743.02
595.729	746.51
595.929	677.73
596.13	683.93
596.331	709.89
596.532	730.43
596.733	762.98
596.934	727.71
597.135	758.33
597.335	739.53
597.536	685.28
597.737	740.89
597.938	704.85
598.138	721.71
598.339	692.07
598.54	724.42
598.74	725.2
598.941	695.75
599.142	761.62
599.342	734.5
599.543	697.49
599.744	690.13
599.944	711.63
600.145	687.61
600.345	731.98
600.546	766.08
600.746	748.64
600.947	803.86
601.147	722.87
601.348	722.87
601.548	700.78
601.749	720.74
601.949	681.99
602.15	712.8
602.35	739.34
602.551	782.93
602.751	674.05
602.951	721.9
603.152	639.56
603.352	737.01
603.552	721.32
603.753	766.27
603.953	768.79
604.153	746.7
604.354	688.77
604.554	700.2
604.754	700.4
604.954	671.14
605.155	697.1
605.355	715.7
605.555	742.83
605.755	759.88
605.955	724.42
606.155	727.71
606.356	706.79
606.556	750.77
606.756	730.62
606.956	657.19
607.156	761.62
607.356	683.73
607.556	734.11
607.756	731.59
607.956	750.58
608.156	708.15
608.356	672.88
608.556	730.43
608.756	696.91
608.956	670.56
609.156	707.56
609.356	671.53
609.556	688.77
609.755	697.49
609.955	656.22
610.155	735.27
610.355	711.05
610.555	682.18
610.755	684.12
610.954	605.07
611.154	691.68
611.354	747.28
611.554	663.97
611.753	653.12
611.953	614.18
612.153	703.3
612.352	708.73
612.552	653.12
612.752	588.99
612.951	671.72
613.151	679.47
613.351	618.63
613.55	679.08
613.75	674.24
613.949	661.65
614.149	668.23
614.348	656.42
614.548	631.81
614.747	582.6
614.947	660.87
615.146	596.94
615.346	665.33
615.545	625.03
615.745	652.35
615.944	670.17
616.144	664.94
616.343	684.32
616.542	645.57
616.742	653.7
616.941	628.52
617.14	612.82
617.34	633.94
617.539	609.34
617.738	610.3
617.938	701.95
618.137	614.18
618.336	585.31
618.535	638.78
618.734	622.9
618.934	629.48
619.133	604.69
619.332	654.87
619.531	598.1
619.73	629.68
619.929	657.58
620.128	656.61
620.328	699.04
620.527	617.08
620.726	620.77
620.925	626.58
621.124	626.38
621.323	673.66
621.522	578.53
621.721	592.29
621.92	564.97
622.119	629.29
622.318	570.39
622.517	623.87
622.715	588.22
622.914	543.85
623.113	591.32
623.312	511.3
623.511	636.07
623.71	578.14
623.909	583.76
624.107	641.3
624.306	551.99
624.505	563.22
624.704	580.66
624.902	559.15
625.101	623.87
625.3	602.36
625.499	576.01
625.697	586.28
625.896	585.31
626.095	615.53
626.293	534.74
626.492	563.61
626.69	610.3
626.889	536.87
627.088	620.57
627.286	548.3
627.485	546.95
627.683	557.99
627.882	615.92
628.08	514.01
628.279	555.09
628.477	620.38
628.676	542.49
628.874	591.12
629.073	549.85
629.271	519.24
629.469	597.52
629.668	526.41
629.866	583.18
630.065	537.65
630.263	581.44
630.461	527.96
630.66	573.69
630.858	586.86
631.056	597.13
631.254	596.35
631.453	533.77
631.651	580.27
631.849	535.71
632.047	583.18
632.245	564.58
632.444	575.24
632.642	576.2
632.84	580.85
633.038	549.85
633.236	564
633.434	488.44
633.632	531.84
633.83	528.93
634.028	573.1
634.227	563.61
634.425	613.02
634.623	580.66
634.821	575.82
635.019	581.05
635.216	546.95
635.414	585.89
635.612	566.52
635.81	536.49
636.008	617.67
636.206	531.64
636.404	564.58
636.602	474.68
636.8	539.2
636.997	576.4
637.195	583.76
637.393	573.1
637.591	601.78
637.789	563.03
637.986	535.9
638.184	552.57
638.382	579.3
638.58	586.86
638.777	614.37
638.975	552.18
639.173	537.07
639.37	551.02
639.568	572.52
639.765	572.52
639.963	570
640.161	605.46
640.358	577.56
640.556	533.77
640.753	491.34
640.951	512.07
641.148	570.78
641.346	531.25
641.543	540.17
641.741	574.65
641.938	511.11
642.136	550.63
642.333	517.5
642.531	566.71
642.728	591.51
642.925	556.83
643.123	556.44
643.32	555.86
643.517	499.87
643.715	536.68
643.912	533.97
644.109	559.15
644.306	529.51
644.504	495.41
644.701	534.55
644.898	578.14
645.095	484.37
645.293	517.89
645.49	547.92
645.687	539.59
645.884	590.54
646.081	471.39
646.278	508.59
646.475	500.45
646.672	501.42
646.87	537.84
647.067	506.84
647.264	541.33
647.461	471.19
647.658	447.36
647.855	538.04
648.052	495.8
648.249	430.51
648.446	462.86
648.642	440.97
648.839	426.24
649.036	483.98
649.233	420.82
649.43	430.51
649.627	439.61
649.824	469.84
650.021	458.79
650.217	457.24
650.414	454.14
650.611	455.11
650.808	480.11
651.004	487.47
651.201	484.76
651.398	513.04
651.595	476.81
651.791	468.67
651.988	509.94
652.185	467.32
652.381	510.33
652.578	425.86
652.775	489.21
652.971	478.94
653.168	483.79
653.364	472.36
653.561	392.34
653.757	474.1
653.954	437.87
654.15	444.46
654.347	533
654.543	480.88
654.74	363.08
654.936	392.53
655.133	447.36
655.329	448.91
655.525	454.14
655.722	485.72
655.918	404.54
656.115	483.98
656.311	434.58
656.507	392.92
656.704	352.62
656.9	380.33
657.096	390.59
657.292	384.98
657.489	437.09
657.685	411.91
657.881	393.31
658.077	405.13
658.273	408.61
658.47	508.01
658.666	443.49
658.862	476.04
659.058	414.81
659.254	473.91
659.45	427.41
659.646	439.81
659.842	422.95
660.038	472.16
660.234	412.29
660.43	465.19
660.626	514.79
660.822	474.49
661.018	465.57
661.214	447.36
661.41	401.64
661.606	457.63
661.802	478.56
661.998	424.5
662.194	425.08
662.39	475.07
662.586	460.34
662.781	448.52
662.977	474.1
663.173	466.35
663.369	443.29
663.564	476.62
663.76	480.88
663.956	418.88
664.152	504.91
664.347	405.71
664.543	444.26
664.739	426.44
664.934	369.09
665.13	397.18
665.326	459.76
665.521	436.13
665.717	393.5
665.912	387.11
666.108	329.37
666.304	372.58
666.499	422.95
666.695	338.86
666.89	399.89
667.086	429.73
667.281	431.67
667.477	435.16
667.672	423.92
667.867	413.46
668.063	439.03
668.258	405.51
668.454	427.99
668.649	473.71
668.844	419.66
669.04	463.06
669.235	409.19
669.43	413.07
669.626	365.99
669.821	410.55
670.016	358.04
670.211	406.48
670.407	356.49
670.602	398.15
670.797	416.56
670.992	446.39
671.187	363.47
671.382	417.72
671.578	412.29
671.773	430.31
671.968	367.54
672.163	407.45
672.358	409
672.553	377.81
672.748	363.86
672.943	485.53
673.138	413.84
673.333	428.18
673.528	361.92
673.723	432.64
673.918	413.84
674.113	369.67
674.308	441.16
674.503	427.41
674.698	432.44
674.892	399.12
675.087	427.21
675.282	406.29
675.477	371.22
675.672	415.59
675.867	373.35
676.061	374.71
676.256	342.93
676.451	373.16
676.646	395.44
676.84	336.35
677.035	344.87
677.23	342.55
677.424	378.39
677.619	434.19
677.814	428.38
678.008	395.63
678.203	345.45
678.397	325.3
678.592	371.03
678.787	450.07
678.981	383.81
679.176	406.87
679.37	397.96
679.565	324.33
679.759	386.91
679.954	373.74
680.148	424.5
680.342	404.35
680.537	375.87
680.731	389.82
680.926	390.21
681.12	409
681.314	344.29
681.509	381.68
681.703	386.72
681.897	401.44
682.092	356.88
682.286	392.92
682.48	464.41
682.674	403.58
682.869	402.22
683.063	365.99
683.257	421.01
683.451	350.68
683.645	412.29
683.839	397.96
684.034	384.01
684.228	436.32
684.422	359.21
684.616	364.05
684.81	384.01
685.004	395.63
685.198	368.51
685.392	412.29
685.586	340.22
685.78	384.98
685.974	425.47
686.168	387.49
686.362	425.66
686.556	368.7
686.75	325.11
686.944	356.88
687.138	381.49
687.331	284.61
687.525	295.46
687.719	243.93
687.913	313.48
688.107	336.73
688.301	288.88
688.494	335.76
688.688	303.6
688.882	293.72
689.076	274.93
689.269	297.01
689.463	363.47
689.657	325.69
689.85	311.35
690.044	311.55
690.238	331.5
690.431	304.38
690.625	307.48
690.818	342.93
691.012	353.98
691.205	375.87
691.399	292.36
691.593	366.96
691.786	427.02
691.98	413.65
692.173	418.49
692.366	384.39
692.56	395.44
692.753	429.34
692.947	341
693.14	454.92
693.333	425.66
693.527	381.1
693.72	428.38
693.914	398.93
694.107	376.06
694.3	403.19
694.493	393.5
694.687	444.26
694.88	392.53
695.073	470.42
695.266	460.15
695.46	414.62
695.653	480.49
695.846	455.69
696.039	402.41
696.232	431.09
696.425	453.56
696.618	471
696.812	477.2
697.005	514.79
697.198	578.34
697.391	495.99
697.584	520.02
697.777	573.88
697.97	554.89
698.163	548.5
698.356	536.49
698.549	645.76
698.742	603.91
698.935	525.25
699.127	561.48
699.32	540.17
699.513	522.15
699.706	572.14
699.899	579.5
700.092	528.93
700.285	577.75
700.477	518.86
700.67	594.8
700.863	590.74
701.056	653.9
701.248	626.38
701.441	659.32
701.634	590.54
701.826	702.53
702.019	593.25
702.212	670.95
702.404	583.57
702.597	615.34
702.79	613.4
702.982	638.01
703.175	671.72
703.367	695.94
703.56	676.95
703.752	735.27
703.945	705.24
704.137	712.6
704.33	730.04
704.522	722.68
704.715	716.86
704.907	729.85
705.1	769.95
705.292	754.45
705.484	784.29
705.677	789.91
705.869	809.86
706.061	813.35
706.254	840.48
706.446	828.08
706.638	803.86
706.831	855.01
707.023	829.63
707.215	880
707.407	865.28
707.599	868.96
707.792	908.67
707.984	856.17
708.176	894.53
708.368	879.42
708.56	876.51
708.752	880.19
708.944	884.84
709.136	917.2
709.329	925.14
709.521	1029.38
709.713	997.02
709.905	967.19
710.097	979.78
710.289	974.35
710.481	1001.67
710.672	981.33
710.864	973.39
711.056	1065.61
711.248	1033.25
711.44	1062.12
711.632	1010.97
711.824	1038.49
712.016	1098.35
712.207	1085.37
712.399	1083.63
712.591	1152.41
712.783	1089.25
712.975	1118.89
713.166	1070.07
713.358	1094.48
713.55	1150.28
713.741	1170.04
713.933	1137.1
714.125	1129.93
714.316	1090.22
714.508	1202.78
714.7	1166.94
714.891	1176.24
715.083	1243.47
715.274	1182.05
715.466	1194.45
715.657	1208.79
715.849	1129.74
716.04	1198.91
716.232	1140.01
716.423	1224.29
716.615	1181.08
716.806	1120.63
716.998	1134
717.189	1101.45
717.381	1022.99
717.572	1000.51
717.763	1062.7
717.955	1034.42
718.146	1010
718.337	969.51
718.528	931.34
718.72	913.32
718.911	968.35
719.102	946.84
719.293	1013.1
719.485	944.91
719.676	953.04
719.867	932.31
720.058	922.04
720.249	916.04
720.44	950.52
720.632	982.88
720.823	1010.39
721.014	1075.49
721.205	1059.99
721.396	1144.66
721.587	1165
721.778	1198.13
721.969	1221.19
722.16	1246.57
722.351	1228.74
722.542	1329.11
722.733	1376.96
722.924	1277.57
723.115	1313.8
723.305	1334.34
723.496	1333.76
723.687	1255.09
723.878	1291.33
724.069	1265.94
724.26	1266.91
724.45	1211.7
724.641	1219.64
724.832	1294.81
725.023	1242.69
725.213	1228.36
725.404	1216.93
725.595	1243.08
725.785	1201.43
725.976	1288.03
726.167	1255.87
726.357	1293.46
726.548	1339.76
726.739	1241.14
726.929	1353.52
727.12	1357.97
727.31	1379.48
727.501	1345.57
727.691	1345.96
727.882	1362.43
728.072	1396.72
728.263	1375.02
728.453	1372.51
728.644	1377.54
728.834	1358.56
729.024	1345.57
729.215	1361.07
729.405	1431.02
729.596	1433.54
729.786	1454.46
729.976	1450.78
730.167	1485.65
730.357	1410.67
730.547	1434.12
730.737	1480.62
730.928	1512.58
731.118	1533.51
731.308	1493.98
731.498	1500.18
731.688	1598.8
731.879	1554.82
732.069	1594.35
732.259	1586.21
732.449	1589.31
732.639	1659.83
732.829	1680.56
733.019	1677.85
733.209	1765.04
733.399	1703.04
733.589	1757.87
733.779	1786.16
733.969	1760.58
734.159	1838.47
734.349	1869.27
734.539	1893.49
734.729	1889.23
734.919	1908.22
735.109	1979.13
735.299	1891.36
735.488	1913.06
735.678	1937.67
735.868	1972.35
736.058	1953.55
736.248	1923.33
736.437	1915.39
736.627	1885.35
736.817	1966.73
737.007	1931.27
737.196	2006.45
737.386	1944.45
737.576	1922.17
737.765	1975.06
737.955	1957.62
738.144	2062.25
738.334	2031.44
738.524	1971.57
738.713	2033.38
738.903	2040.74
739.092	2039.77
739.282	2094.99
739.471	2046.75
739.661	2043.26
739.85	2074.45
740.04	2117.08
740.229	2094.02
740.419	2098.48
740.608	2126.38
740.797	2110.1
740.987	2173.65
741.176	2177.53
741.365	2162.61
741.555	2068.83
741.744	2156.41
741.933	2108.94
742.123	2147.69
742.312	2174.23
742.501	2210.27
742.69	2194.96
742.88	2121.92
743.069	2204.26
743.258	2142.65
743.447	2205.42
743.636	2210.27
743.825	2169.39
744.014	2158.93
744.204	2216.47
744.393	2135.68
744.582	2211.62
744.771	2243.01
744.96	2162.22
745.149	2224.02
745.338	2176.75
745.527	2223.44
745.716	2175.78
745.905	2182.37
746.094	2211.43
746.283	2261.81
746.471	2227.51
746.66	2297.45
746.849	2270.91
747.038	2300.36
747.227	2243.21
747.416	2262.77
747.604	2213.37
747.793	2226.16
747.982	2270.52
748.171	2270.91
748.359	2285.64
748.548	2248.44
748.737	2255.02
748.926	2270.33
749.114	2161.44
749.303	2265.87
749.491	2236.42
749.68	2215.11
749.869	2266.46
750.057	2191.28
750.246	2204.65
750.434	2211.24
750.623	2226.93
750.811	2252.31
751	2249.79
751.188	2215.11
751.377	2229.45
751.565	2241.85
751.754	2160.28
751.942	2170.94
752.131	2250.37
752.319	2159.51
752.507	2157.18
752.696	2218.21
752.884	2246.89
753.072	2193.61
753.261	2242.43
753.449	2208.91
753.637	2178.49
753.825	2325.74
754.014	2207.94
754.202	2199.81
754.39	2263.94
754.578	2247.86
754.766	2206.2
754.955	2213.56
755.143	2278.47
755.331	2200.58
755.519	2184.5
755.707	2180.43
755.895	2171.13
756.083	2212.01
756.271	2155.83
756.459	2165.13
756.647	2221.89
756.835	2190.31
757.023	2151.37
757.211	2170.94
757.399	2161.44
757.587	2137.61
757.775	2117.46
757.963	2142.65
758.151	2133.16
758.339	2113.59
758.526	2071.16
758.714	2149.24
758.902	2039
759.09	1991.14
759.278	1891.94
759.465	1741.01
759.653	1501.73
759.841	1416.49
760.028	1197.94
760.216	1029.38
760.404	1002.45
760.591	833.5
760.779	686.25
760.967	625.61
761.154	495.61
761.342	526.99
761.529	490.18
761.717	552.57
761.905	514.01
762.092	558.77
762.28	511.11
762.467	570.97
762.655	511.11
762.842	540.94
763.029	511.11
763.217	544.04
763.404	538.42
763.592	566.32
763.779	535.71
763.966	563.61
764.154	599.07
764.341	648.47
764.528	612.24
764.716	652.54
764.903	677.34
765.09	740.11
765.277	748.06
765.465	882.91
765.652	939.29
765.839	962.34
766.026	1061.35
766.213	1059.22
766.4	1125.09
766.588	1284.74
766.775	1263.43
766.962	1292.1
767.149	1391.11
767.336	1465.31
767.523	1397.31
767.71	1502.32
767.897	1594.15
768.084	1631.55
768.271	1663.51
768.458	1740.82
768.645	1730.94
768.832	1743.14
769.019	1729
769.206	1752.44
769.392	1827.04
769.579	1925.46
769.766	1872.95
769.953	1803.98
770.14	1899.11
770.327	1876.25
770.513	1900.08
770.7	2009.55
770.887	1857.07
771.073	1914.8
771.26	1919.26
771.447	1868.3
771.634	1885.55
771.82	1972.54
772.007	1874.7
772.193	1916.94
772.38	1979.9
772.567	1906.09
772.753	1950.26
772.94	1950.26
773.126	1971.96
773.313	1995.21
773.499	1957.23
773.686	1933.79
773.872	1896.2
774.059	1907.64
774.245	1888.07
774.432	1933.98
774.618	1828.01
774.804	1929.92
774.991	1841.76
775.177	1948.9
775.363	1876.83
775.55	1927.2
775.736	1862.69
775.922	1899.5
776.109	1859.59
776.295	1908.99
776.481	1938.05
776.667	1902.4
776.853	1843.12
777.04	1883.22
777.226	1888.07
777.412	1955.1
777.598	1878.38
777.784	1855.32
777.97	1845.64
778.156	1866.37
778.342	1859.78
778.528	1843.7
778.715	1788.29
778.901	1840.79
779.087	1847.77
779.272	1808.63
779.458	1804.37
779.644	1820.45
779.83	1806.89
780.016	1940.96
780.202	1866.56
780.388	1817.35
780.574	1773.95
780.76	1773.17
780.946	1810.96
781.131	1839.44
781.317	1833.43
781.503	1752.06
781.689	1772.4
781.874	1901.05
782.06	1791
782.246	1779.18
782.432	1804.56
782.617	1802.04
782.803	1809.99
782.989	1743.53
783.174	1773.95
783.36	1704.98
783.545	1783.44
783.731	1785.96
783.916	1670.49
784.102	1764.65
784.288	1727.26
784.473	1716.79
784.659	1720.28
784.844	1786.93
785.029	1672.43
785.215	1681.92
785.4	1676.3
785.586	1761.36
785.771	1692.38
785.956	1721.64
786.142	1694.13
786.327	1659.64
786.512	1676.88
786.698	1692.58
786.883	1642.59
787.068	1667.39
787.254	1685.99
787.439	1650.92
787.624	1657.12
787.809	1625.35
787.994	1636.2
788.18	1678.63
788.365	1601.13
788.55	1594.54
788.735	1597.64
788.92	1630.77
789.105	1607.71
789.29	1634.26
789.475	1589.5
789.66	1598.03
789.845	1557.92
790.03	1560.25
790.215	1639.1
790.4	1669.33
790.585	1630.96
790.77	1576.52
790.955	1510.26
791.14	1567.8
791.325	1638.91
791.51	1496.12
791.695	1548.82
791.879	1542.62
792.064	1538.55
792.249	1597.25
792.434	1560.05
792.618	1552.3
792.803	1596.28
792.988	1529.44
793.173	1586.98
793.357	1595.7
793.542	1521.3
793.727	1592.41
793.911	1596.28
794.096	1579.81
794.281	1609.46
794.465	1645.69
794.65	1548.04
794.834	1560.44
795.019	1624.38
795.203	1616.82
795.388	1603.65
795.572	1659.64
795.757	1622.25
795.941	1618.95
796.126	1580.59
796.31	1545.52
796.494	1594.73
796.679	1592.6
796.863	1542.23
797.048	1602.48
797.232	1600.35
797.416	1576.71
797.601	1580.4
797.785	1614.5
797.969	1638.71
798.153	1591.63
798.338	1630.38
798.522	1627.09
798.706	1630
798.89	1642.2
799.074	1730.74
799.258	1673.2
799.443	1608.88
799.627	1628.83
799.811	1622.25
799.995	1610.43
800.179	1592.8
800.363	1578.46
800.547	1597.25
800.731	1631.55
800.915	1557.34
801.099	1590.08
801.283	1574.58
801.467	1619.92
801.651	1590.47
801.835	1664.68
802.019	1583.88
802.202	1582.33
802.386	1556.37
802.57	1572.65
802.754	1572.26
802.938	1564.7
803.121	1534.87
803.305	1646.46
803.489	1601.32
803.673	1598.22
803.856	1605
804.04	1606.36
804.224	1638.13
804.407	1614.88
804.591	1564.51
804.775	1578.46
804.958	1565.48
805.142	1669.33
805.326	1578.07
805.509	1629.03
805.693	1629.22
805.876	1665.84
806.06	1617.98
806.243	1647.82
806.427	1640.65
806.61	1661.38
806.794	1633.87
806.977	1669.71
807.16	1623.99
807.344	1661.19
807.527	1629.03
807.71	1549.98
807.894	1601.71
808.077	1654.8
808.26	1571.1
808.444	1567.42
808.627	1609.85
808.81	1592.8
808.993	1499.6
809.177	1544.17
809.36	1584.27
809.543	1615.27
809.726	1510.84
809.909	1502.32
810.092	1470.54
810.276	1496.7
810.459	1511.03
810.642	1470.74
810.825	1495.15
811.008	1519.95
811.191	1416.68
811.374	1434.12
811.557	1438.96
811.74	1523.82
811.923	1401.18
812.106	1412.8
812.289	1368.24
812.472	1375.61
812.654	1449.81
812.837	1380.84
813.02	1346.35
813.203	1328.72
813.386	1222.74
813.569	1296.56
813.751	1224.29
813.934	1261.68
814.117	1251.61
814.3	1182.63
814.482	1170.23
814.665	1160.55
814.848	1144.46
815.03	1108.82
815.213	1104.75
815.396	1122.57
815.578	1065.8
815.761	1073.75
815.943	1140.98
816.126	1044.69
816.309	1002.84
816.491	983.65
816.674	923.01
816.856	1002.45
817.039	959.05
817.221	1053.6
817.403	1002.64
817.586	997.41
817.768	1028.8
817.951	939.29
818.133	925.92
818.315	979.59
818.498	1017.75
818.68	1077.04
818.862	1022.6
819.045	1059.02
819.227	1006.9
819.409	988.5
819.591	1027.05
819.774	988.69
819.956	979.2
820.138	1053.6
820.32	1065.8
820.502	1049.14
820.684	1124.32
820.866	1110.75
821.048	1131.48
821.231	1159.58
821.413	1119.08
821.595	1128.97
821.777	1122.38
821.959	1130.32
822.141	1173.33
822.323	1075.88
822.505	1056.7
822.686	1000.7
822.868	966.99
823.05	887.36
823.232	919.33
823.414	895.69
823.596	895.89
823.778	891.43
823.96	905.38
824.141	904.8
824.323	908.87
824.505	954.01
824.687	1016.4
824.868	1008.07
825.05	1090.41
825.232	1106.1
825.413	1188.45
825.595	1122.18
825.777	1070.45
825.958	1107.65
826.14	1090.41
826.321	1146.4
826.503	1088.67
826.685	1115.98
826.866	1169.65
827.048	1145.63
827.229	1109.98
827.411	1042.17
827.592	1030.15
827.773	1040.23
827.955	1008.84
828.136	1039.07
828.318	955.37
828.499	1037.32
828.68	949.17
828.862	994.12
829.043	1050.3
829.224	1012.52
829.406	993.54
829.587	1010.78
829.768	1014.27
829.949	991.6
830.131	984.43
830.312	1062.32
830.493	987.14
830.674	1008.45
830.855	999.15
831.036	994.12
831.218	1033.45
831.399	1066.58
831.58	1013.1
831.761	1027.05
831.942	1019.3
832.123	999.93
832.304	965.44
832.485	969.51
832.666	1037.13
832.847	1023.57
833.028	996.64
833.209	990.82
833.389	983.07
833.57	933.28
833.751	1005.94
833.932	1017.75
834.113	1028.99
834.294	999.93
834.475	1009.04
834.655	1040.23
834.836	1046.82
835.017	1013.88
835.198	942
835.378	1006.52
835.559	1038.29
835.74	1032.67
835.92	984.04
836.101	982.88
836.281	1028.6
836.462	1032.29
836.643	1058.44
836.823	1079.37
837.004	1025.12
837.184	1106.3
837.365	1072.2
837.545	1069.1
837.726	1037.52
837.906	1076.07
838.087	1072.39
838.267	1019.5
838.448	1022.21
838.628	1013.88
838.808	1039.07
838.989	1129.55
839.169	991.21
839.349	1055.73
839.53	1066.58
839.71	1091.38
839.89	1009.62
840.07	1077.43
840.251	1021.82
840.431	1069.48
840.611	1077.04
840.791	1022.79
840.971	1072.97
841.151	1018.72
841.332	1021.82
841.512	1086.15
841.692	969.9
841.872	1044.88
842.052	1015.24
842.232	1026.09
842.412	967.77
842.592	1006.9
842.772	1050.5
842.952	1031.7
843.132	1017.17
843.312	991.4
843.492	979.59
843.672	1057.86
843.851	959.63
844.031	1025.5
844.211	1005.16
844.391	1007.87
844.571	1023.57
844.751	1053.98
844.93	1015.04
845.11	994.31
845.29	1034.61
845.47	1011.55
845.649	1018.53
845.829	1018.34
846.009	981.33
846.188	1044.49
846.368	1004.58
846.547	1019.89
846.727	1020.47
846.907	996.44
847.086	993.92
847.266	1032.29
847.445	1003.22
847.625	977.84
847.804	975.13
847.984	960.21
848.163	946.46
848.343	959.44
848.522	993.73
848.701	1022.02
848.881	956.34
849.06	981.52
849.239	985.2
849.419	967.38
849.598	936.96
849.777	939.87
849.957	945.68
850.136	884.46
850.315	880
850.494	885.81
850.674	892.98
850.853	946.84
851.032	910.81
851.211	949.75
851.39	923.79
851.569	881.16
851.748	883.49
851.927	934.06
852.107	902.67
852.286	884.26
852.465	870.7
852.644	947.23
852.823	936.77
853.002	902.86
853.181	884.46
853.359	917.97
853.538	896.08
853.717	910.81
853.896	846.48
854.075	800.56
854.254	813.74
854.433	768.01
854.611	844.16
854.79	762.2
854.969	820.33
855.148	812.58
855.327	768.01
855.505	820.33
855.684	796.11
855.863	811.8
856.041	765.3
856.22	820.13
856.399	800.56
856.577	864.69
856.756	841.64
856.934	955.76
857.113	924.76
857.291	847.45
857.47	850.16
857.648	865.47
857.827	867.6
858.005	899.37
858.184	827.3
858.362	942
858.541	853.26
858.719	847.64
858.898	868.96
859.076	858.69
859.254	913.13
859.433	855.01
859.611	857.91
859.789	820.13
859.967	904.99
860.146	933.67
860.324	808.89
860.502	837.38
860.68	813.74
860.859	816.45
861.037	832.92
861.215	852.29
861.393	850.55
861.571	797.66
861.749	812.38
861.927	846.09
862.105	843.58
862.283	825.94
862.461	779.83
862.639	773.05
862.817	792.43
862.995	793.39
863.173	781.77
863.351	814.71
863.529	806.57
863.707	818.19
863.885	827.11
864.063	741.28
864.241	770.15
864.418	864.11
864.596	795.91
864.774	752.51
864.952	781.58
865.129	817.23
865.307	773.63
865.485	739.15
865.663	832.14
865.84	706.4
866.018	782.74
866.196	687.61
866.373	708.53
866.551	677.53
866.728	654.87
866.906	647.7
867.084	693.62
867.261	723.45
867.439	716.67
867.616	744.18
867.794	719.38
867.971	740.11
868.149	755.03
868.326	787.78
868.503	763.56
868.681	703.3
868.858	731.01
869.035	695.75
869.213	795.14
869.39	738.18
869.567	797.85
869.745	698.27
869.922	751.74
870.099	766.66
870.276	761.43
870.454	774.99
870.631	770.73
870.808	746.12
870.985	756
871.162	797.66
871.339	760.07
871.517	677.34
871.694	681.6
871.871	723.84
872.048	711.63
872.225	687.8
872.402	764.91
872.579	676.57
872.756	727.33
872.933	680.63
873.11	721.71
873.287	720.35
873.463	673.08
873.64	685.28
873.817	722.1
873.994	696.33
874.171	702.33
874.348	721.32
874.524	627.74
874.701	679.28
874.878	620.18
875.055	692.07
875.231	696.13
875.408	722.1
875.585	640.14
875.762	683.15
875.938	664.94
876.115	679.47
876.291	665.91
876.468	685.48
876.645	638.01
876.821	652.54
876.998	687.03
877.174	659.71
877.351	637.43
877.527	628.32
877.704	683.15
877.88	644.21
878.057	634.91
878.233	694.2
878.409	630.65
878.586	660.29
878.762	645.76
878.938	654.28
879.115	584.34
879.291	658.93
879.467	593.06
879.644	592.87
879.82	640.53
879.996	618.05
880.172	563.42
880.349	587.64
880.525	631.42
880.701	601.39
880.877	604.69
881.053	618.63
881.229	615.53
881.405	652.15
881.581	576.59
881.757	610.3
881.933	612.82
882.109	632.39
882.285	588.8
882.461	585.5
882.637	610.5
882.813	581.44
882.989	621.73
883.165	664.36
883.341	599.26
883.517	642.66
883.693	633.94
883.869	642.08
884.044	568.26
884.22	621.93
884.396	661.45
884.572	598.1
884.747	669.01
884.923	635.68
885.099	648.28
885.275	682.77
885.45	599.45
885.626	645.57
885.801	611.08
885.977	577.56
886.153	559.54
886.328	648.67
886.504	609.92
886.679	634.13
886.855	602.94
887.03	641.88
887.206	659.71
887.381	639.17
887.557	629.29
887.732	621.93
887.908	648.47
888.083	620.96
888.258	613.6
888.434	598.87
888.609	636.27
888.784	647.89
888.96	576.59
889.135	586.67
889.31	598.29
889.485	600.81
889.661	589.19
889.836	650.99
890.011	603.52
890.186	615.53
890.361	578.92
890.537	616.12
890.712	609.72
890.887	600.62
891.062	627.93
891.237	650.6
891.412	594.03
891.587	604.1
891.762	629.48
891.937	669.2
892.112	578.14
892.287	604.69
892.462	595.58
892.637	544.43
892.812	565.35
892.987	548.11
893.161	547.72
893.336	573.1
893.511	589.77
893.686	556.64
893.861	564
894.035	553.92
894.21	567.49
894.385	495.99
894.56	552.76
894.734	494.64
894.909	498.32
895.084	517.31
895.258	503.16
895.433	502.58
895.608	501.03
895.782	433.8
895.957	454.34
896.131	483.79
896.306	417.14
896.48	451.24
896.655	439.03
896.829	421.98
897.004	396.79
897.178	405.9
897.353	420.04
897.527	453.56
897.701	394.08
897.876	381.29
898.05	438.06
898.224	415.01
898.399	468.67
898.573	415.98
898.747	343.51
898.921	425.86
899.096	334.6
899.27	337.31
899.444	322.2
899.618	362.89
899.792	353.39
899.967	319.3
900.141	392.73
900.315	329.18
900.489	345.65
900.663	367.73
900.837	370.06
901.011	315.42
901.185	427.6
901.359	366.96
901.533	362.69
901.707	377.23
901.881	337.7
902.055	316.39
902.229	327.82
902.403	377.61
902.576	353.01
902.75	371.61
902.924	442.71
903.098	411.33
903.272	433.22
903.446	431.09
903.619	399.89
903.793	478.56
903.967	406.68
904.14	440.97
904.314	428.76
904.488	447.56
904.661	456.08
904.835	433.8
905.009	476.23
905.182	498.9
905.356	467.12
905.529	448.14
905.703	421.21
905.876	440.97
906.05	396.02
906.223	403.58
906.397	352.23
906.57	364.44
906.744	322.59
906.917	359.98
907.09	350.1
907.264	376.84
907.437	339.83
907.61	310.19
907.784	346.61
907.957	347.78
908.13	296.82
908.304	367.73
908.477	305.93
908.65	334.21
908.823	272.99
908.996	367.73
909.17	341.58
909.343	315.81
909.516	314.26
909.689	320.07
909.862	290.23
910.035	318.52
910.208	298.95
910.381	285.58
910.554	371.03
910.727	316
910.9	312.13
911.073	298.95
911.246	377.61
911.419	378
911.592	319.88
911.765	308.45
911.938	311.93
912.11	298.76
912.283	312.51
912.456	358.04
912.629	328.98
912.802	275.12
912.974	290.81
913.147	266.98
913.32	221.45
913.493	260.78
913.665	277.64
913.838	266.4
914.01	263.5
914.183	280.74
914.356	245.67
914.528	291.59
914.701	328.98
914.873	294.3
915.046	262.53
915.218	250.9
915.391	209.05
915.563	227.85
915.736	268.92
915.908	254.97
916.081	268.53
916.253	243.54
916.425	268.34
916.598	288.68
916.77	277.45
916.942	232.3
917.115	200.33
917.287	290.62
917.459	237.15
917.632	214.87
917.804	195.1
917.976	251.29
918.148	244.9
918.32	244.9
918.493	272.41
918.665	293.72
918.837	255.17
919.009	326.27
919.181	326.46
919.353	294.11
919.525	261.17
919.697	271.63
919.869	277.64
920.041	329.37
920.213	380.91
920.385	329.18
920.557	260.78
920.729	294.3
920.901	328.4
921.073	281.13
921.244	260.78
921.416	315.03
921.588	265.05
921.76	248.38
921.932	316.58
922.103	258.85
922.275	280.16
922.447	283.06
922.619	220.48
922.79	247.03
922.962	243.35
923.134	298.76
923.305	250.13
923.477	258.46
923.648	208.08
923.82	251.68
923.991	192.78
924.163	210.6
924.335	235.79
924.506	196.85
924.677	274.54
924.849	215.83
925.02	260.78
925.192	306.9
925.363	218.93
925.535	244.32
925.706	198.2
925.877	255.55
926.049	216.42
926.22	240.25
926.391	259.43
926.562	261.17
926.734	220.87
926.905	273.76
927.076	170.3
927.247	216.42
927.419	193.55
927.59	211.38
927.761	187.16
927.932	220.1
928.103	201.3
928.274	192.97
928.445	147.83
928.616	179.02
928.787	179.22
928.958	196.46
929.129	190.45
929.3	201.88
929.471	163.91
929.642	111.6
929.813	80.41
929.984	172.05
930.155	92.42
930.326	142.99
930.496	126.52
930.667	55.22
930.838	103.07
931.009	97.26
931.18	95.9
931.35	109.47
931.521	126.32
931.692	71.3
931.863	47.08
932.033	85.44
932.204	72.85
932.374	79.05
932.545	54.25
932.716	90.67
932.886	121.67
933.057	0
933.227	26.93
933.398	139.11
933.568	18.99
933.739	6.39
933.909	13.95
934.08	47.66
934.25	-58.51
934.421	9.11
934.591	33.13
934.761	-5.04
934.932	-46.31
935.102	18.21
935.272	11.43
935.443	10.85
935.613	6.39
935.783	29.45
935.953	-23.83
936.123	165.85
936.294	-24.02
936.464	25.38
936.634	24.99
936.804	-26.54
936.974	-8.91
937.144	25.77
937.314	42.04
937.484	21.89
937.655	-0.19
937.825	38.56
937.995	0
938.165	43.79
938.334	8.91
938.504	5.23
938.674	-0.19
938.844	8.91
939.014	63.16
939.184	30.61
939.354	91.06
939.524	76.34
939.694	4.65
939.863	18.21
940.033	109.47
940.203	99
940.373	56.19
940.542	96.49
940.712	41.07
940.882	80.41
941.051	93.97
941.221	68.97
941.391	94.35
941.56	13.76
941.73	39.52
941.899	132.14
942.069	12.79
942.238	49.99
942.408	49.99
942.577	77.31
942.747	58.12
942.916	-6.59
943.086	5.62
943.255	78.08
943.425	59.09
943.594	23.44
943.763	-17.05
943.933	19.37
944.102	-24.61
944.271	21.7
944.441	44.17
944.61	23.25
944.779	41.85
944.948	108.3
945.117	12.21
945.287	28.09
945.456	12.98
945.625	17.44
945.794	44.17
945.963	20.34
946.132	61.03
946.301	49.99
946.47	57.16
946.639	-19.57
946.808	15.69
946.977	51.54
947.146	66.26
947.315	-0.58
947.484	64.32
947.653	36.81
947.822	26.16
947.991	7.17
948.16	133.1
948.329	69.75
948.498	45.53
948.666	40.3
948.835	44.17
949.004	-10.46
949.173	-15.69
949.341	57.74
949.51	44.17
949.679	67.23
949.847	78.66
950.016	125.74
950.185	103.65
950.353	-0.19
950.522	30.61
950.69	71.69
950.859	31
951.028	64.13
951.196	55.22
951.365	18.41
951.533	19.57
951.701	60.84
951.87	65.49
952.038	17.44
952.207	12.98
952.375	94.55
952.543	10.66
952.712	22.86
952.88	-6.59
953.048	99.39
953.217	28.87
953.385	36.23
953.553	99
953.721	-23.25
953.89	23.06
954.058	8.14
954.226	23.25
954.394	31.77
954.562	1.16
954.73	39.14
954.898	6.59
955.067	55.02
955.235	27.71
955.403	77.11
955.571	127.87
955.739	36.42
955.907	13.56
956.075	17.24
956.243	8.52
956.41	58.9
956.578	-29.64
956.746	-12.98
956.914	1.94
957.082	66.26
957.25	43.98
957.418	-22.86
957.585	39.72
957.753	82.15
957.921	13.37
958.089	19.76
958.256	46.69
958.424	52.89
958.592	30.81
958.759	18.02
958.927	85.25
959.095	17.63
959.262	46.31
959.43	53.47
959.597	7.56
959.765	41.46
959.932	9.11
960.1	70.33
960.267	49.41
960.435	31
960.602	43.98
960.77	-6.97
960.937	-29.64
961.104	42.43
961.272	-12.01
961.439	24.02
961.606	36.81
961.774	87.96
961.941	24.8
962.108	56.77
962.275	51.92
962.443	40.11
962.61	45.72
962.777	113.34
962.944	41.27
963.111	33.52
963.278	66.84
963.446	57.35
963.613	36.04
963.78	70.72
963.947	53.47
964.114	45.72
964.281	106.75
964.448	58.12
964.615	23.25
964.782	38.17
964.949	50.18
965.116	66.26
965.282	91.84
965.449	30.03
965.616	9.11
965.783	76.72
965.95	69.56
966.117	13.95
966.283	36.42
966.45	68.59
966.617	32.74
966.784	109.66
966.95	83.51
967.117	80.6
967.284	-6.59
967.45	7.56
967.617	86.22
967.784	67.62
967.95	123.8
968.117	56.38
968.283	77.69
968.45	164.49
968.616	57.74
968.783	99
968.949	58.9
969.116	105.59
969.282	84.47
969.449	69.56
969.615	45.53
969.781	16.27
969.948	44.76
970.114	20.15
970.28	107.72
970.447	21.51
970.613	101.14
970.779	39.14
970.945	80.41
971.112	72.66
971.278	68.59
971.444	67.04
971.61	71.88
971.776	19.96
971.942	83.12
972.108	81.57
972.275	52.7
972.441	73.04
972.607	110.82
972.773	24.02
972.939	73.24
973.105	62.39
973.271	4.46
973.437	56.77
973.602	18.41
973.768	74.4
973.934	55.22
974.1	52.89
974.266	-25.77
974.432	70.33
974.598	40.49
974.763	79.05
974.929	52.51
975.095	96.49
975.261	45.92
975.426	24.02
975.592	27.9
975.758	93.97
975.923	0.77
976.089	45.14
976.255	77.11
976.42	70.72
976.586	49.21
976.751	65.68
976.917	122.84
977.082	86.8
977.248	-1.16
977.413	-14.34
977.579	42.04
977.744	60.26
977.91	5.42
978.075	27.32
978.24	83.12
978.406	62
978.571	40.49
978.736	25.57
978.902	84.09
979.067	24.02
979.232	-21.51
979.397	57.93
979.563	97.45
979.728	2.32
979.893	40.3
980.058	38.36
980.223	60.84
980.388	53.47
980.554	38.36
980.719	25.38
980.884	37.2
981.049	94.35
981.214	17.05
981.379	65.87
981.544	16.47
981.709	45.92
981.874	38.94
982.039	33.13
982.204	80.79
982.368	60.06
982.533	16.08
982.698	67.42
982.863	113.92
983.028	36.04
983.193	75.56
983.357	68.2
983.522	37.97
983.687	28.67
983.852	32.36
984.016	34.29
984.181	34.68
984.346	52.7
984.51	79.63
984.675	40.3
984.839	98.42
985.004	39.33
985.168	79.63
985.333	64.71
985.498	33.32
985.662	64.91
985.827	87.77
985.991	36.42
986.155	38.56
986.32	84.09
986.484	92.8
986.649	56.19
986.813	-41.27
986.977	79.24
987.142	71.49
987.306	-3.29
987.47	1.55
987.634	58.12
987.799	37.97
987.963	72.07
988.127	54.83
988.291	117.8
988.455	31.97
988.62	31.97
988.784	61.61
988.948	78.86
989.112	12.4
989.276	39.33
989.44	63.55
989.604	14.53
989.768	35.07
989.932	123.22
990.096	25.96
990.26	-10.07
990.424	4.65
990.588	14.53
990.752	102.69
990.915	56.38
991.079	40.3
991.243	17.82
991.407	79.82
991.571	35.84
991.734	58.51
991.898	81.18
992.062	141.44
992.226	42.04
992.389	34.68
992.553	-4.46
992.717	37.2
992.88	45.34
993.044	39.14
993.207	33.32
993.371	48.63
993.535	54.44
993.698	38.75
993.862	81.37
994.025	109.08
994.189	74.79
994.352	49.79
994.515	50.37
994.679	94.16
994.842	10.66
995.006	84.09
995.169	8.14
995.332	16.47
995.496	49.6
995.659	3.1
995.822	36.81
995.985	2.13
996.149	85.64
996.312	33.32
996.475	103.07
996.638	15.11
996.801	88.15
996.964	105.4
997.128	39.52
997.291	52.51
997.454	45.72
997.617	-18.79
997.78	102.49
997.943	5.42
998.106	73.24
998.269	3.68
998.432	21.89
998.595	54.44
998.758	-21.89
998.92	15.31
999.083	-13.76
999.246	23.44
999.409	-0.77
999.572	-19.76
999.735	36.62
999.897	53.67
1000.06	20.54
1000.223	40.88
1000.386	68.59
1000.548	42.43
1000.711	17.24
1000.874	45.53
1001.036	-4.46
1001.199	79.44
1001.361	-3.29
1001.524	45.14
1001.687	61.61
1001.849	16.47
1002.012	39.91
1002.174	68.59
1002.337	73.43
1002.499	18.41
1002.661	50.57
1002.824	-15.31
1002.986	20.15
1003.149	9.69
1003.311	-24.99
1003.473	81.76
1003.636	11.43
1003.798	59.48
1003.96	53.09
1004.123	6.97
1004.285	38.94
1004.447	10.85
1004.609	35.46
1004.771	78.66
1004.933	4.07
1005.096	17.63
1005.258	-19.96
1005.42	24.61
1005.582	80.6
1005.744	28.48
1005.906	8.33
1006.068	51.54
1006.23	-15.89
1006.392	0.58
1006.554	15.5
1006.716	63.94
1006.878	61.42
1007.04	-1.36
1007.202	3.1
1007.363	39.72
1007.525	42.82
1007.687	64.32
1007.849	77.69
1008.011	-10.27
1008.172	-10.46
1008.334	-5.42
1008.496	49.6
1008.658	-13.76
1008.819	-26.74
1008.981	-34.29
1009.143	4.26
1009.304	12.98
1009.466	35.07
1009.627	83.89
1009.789	123.61
1009.95	27.32
1010.112	-12.21
1010.273	52.51
1010.435	-1.74
1010.596	48.82
1010.758	13.76
1010.919	26.54
1011.081	5.23
1011.242	34.68
1011.403	34.68
1011.565	7.94
1011.726	40.11
1011.887	-21.31
1012.049	29.06
1012.21	32.94
1012.371	86.22
1012.532	-33.32
1012.693	34.87
1012.855	-0.77
1013.016	17.63
1013.177	58.9
1013.338	-0.77
1013.499	72.27
1013.66	36.62
1013.821	54.64
1013.982	35.84
1014.143	19.76
1014.304	1.36
1014.465	36.62
1014.626	32.55
1014.787	-9.49
1014.948	101.72
1015.109	-51.73
1015.27	79.63
1015.431	5.42
1015.592	-24.41
1015.752	66.26
1015.913	10.46
1016.074	37.01
1016.235	16.86
1016.395	-7.75
1016.556	15.11
1016.717	-0.58
1016.877	42.43
1017.038	-0.58
1017.199	15.11
1017.359	19.96
1017.52	24.61
1017.681	22.86
1017.841	20.15
1018.002	12.98
1018.162	2.91
1018.323	70.72
1018.483	30.81
1018.644	34.87
1018.804	-15.69
1018.964	-19.76
1019.125	2.71
1019.285	8.14
1019.446	11.04
1019.606	-1.94
1019.766	-41.07
1019.926	43.59
1020.087	21.31
1020.247	-18.41
1020.407	27.51
1020.567	58.12
1020.728	2.71
1020.888	-21.12
1021.048	-19.18
1021.208	-9.49
1021.368	-19.37
1021.528	66.07
1021.688	46.89
1021.848	20.54
1022.008	27.71
1022.168	-17.05
1022.328	29.26
1022.488	34.1
1022.648	-1.36
1022.808	19.37
1022.968	26.74
1023.128	-14.14
1023.288	1.36
1023.448	10.66
1023.608	19.96
1023.767	28.67
1023.927	1.16
1024.087	-16.08
1024.247	-12.79
1024.406	-1.94
1024.566	-23.64
1024.726	0
1024.885	11.62
1025.045	40.88
1025.205	0.39
1025.364	4.07
1025.524	30.03
1025.683	8.33
1025.843	16.66
1026.003	-11.24
1026.162	75.56
1026.321	31.77
1026.481	15.31
1026.64	11.43
1026.8	-8.52
1026.959	0.77
1027.119	18.02
1027.278	5.42
1027.437	8.91
1027.597	4.46
1027.756	17.24
1027.915	12.59
1028.074	13.17
1028.234	-33.13
1028.393	28.09
1028.552	-5.81
1028.711	-66.07
1028.87	68.97
1029.03	-12.59
1029.189	13.95
1029.348	-46.5
1029.507	-8.91
1029.666	30.61
1029.825	-18.02
1029.984	-10.07
1030.143	-1.55
1030.302	9.11
1030.461	-29.45
1030.62	-4.84
1030.779	27.71
1030.938	-5.23
1031.097	-25.77
1031.255	46.89
1031.414	34.1
1031.573	44.17
1031.732	-41.66
1031.891	5.23
1032.049	46.31
1032.208	29.64
1032.367	-24.41
1032.525	-19.76
1032.684	2.32
1032.843	14.53
1033.001	-20.54
1033.16	143.18
1033.319	61.61
1033.477	29.26
1033.636	-18.02
1033.794	-43.98
1033.953	39.72
1034.111	36.42
1034.27	7.94
1034.428	8.91
1034.587	-11.43
1034.745	15.11
1034.903	23.64
1035.062	25.96
1035.22	-38.75
1035.378	53.47
1035.537	-34.49
1035.695	32.74
1035.853	3.87
1036.011	68.2
1036.17	33.32
1036.328	-48.05
1036.486	23.83
1036.644	30.61
1036.802	-70.14
1036.96	-22.09
1037.119	-32.74
1037.277	-23.25
1037.435	-43.59
1037.593	-21.31
1037.751	9.11
1037.909	41.85
1038.067	41.85
