Data from pine_FLMT105791__42__17-20-16-079.txt Node

Date: Mon Mar 20 17:20:16 GMT 2023
User: antho
Spectrometer: FLMT10579
Trigger mode: 0
Integration Time (sec): 1.000000E-1
Scans to average: 10
Electric dark correction enabled: true
Nonlinearity correction enabled: false
Boxcar width: 0
XAxis mode: Wavelengths
Number of Pixels in Spectrum: 3648
>>>>>Begin Spectral Data<<<<<
345.248	-158.29
345.464	-158.29
345.681	-158.29
345.898	-179.99
346.114	-195.3
346.331	-59.09
346.548	37.97
346.764	-27.32
346.981	5.81
347.197	-9.49
347.414	18.41
347.631	-18.21
347.847	49.41
348.064	12.01
348.28	34.1
348.497	-26.35
348.713	-17.24
348.93	39.91
349.146	23.44
349.363	-18.99
349.579	-12.21
349.796	2.32
350.012	-2.32
350.229	24.02
350.445	-31.58
350.661	-9.3
350.878	-3.68
351.094	34.68
351.311	35.26
351.527	25.19
351.743	-17.82
351.96	41.85
352.176	32.36
352.392	7.56
352.609	27.32
352.825	-10.85
353.041	2.13
353.257	0.77
353.474	-8.14
353.69	11.82
353.906	19.76
354.122	-41.46
354.339	72.85
354.555	-13.95
354.771	15.69
354.987	60.45
355.203	67.04
355.42	-31.58
355.636	-24.41
355.852	-31.19
356.068	-2.52
356.284	-27.9
356.5	52.31
356.716	17.63
356.932	5.42
357.148	32.55
357.364	12.01
357.58	32.94
357.796	76.53
358.012	53.09
358.228	15.69
358.444	-54.06
358.66	65.68
358.876	12.59
359.092	-48.82
359.308	-9.88
359.524	23.64
359.74	-11.82
359.956	-4.46
360.172	-3.29
360.388	28.09
360.604	13.56
360.819	63.74
361.035	37.78
361.251	31.77
361.467	-8.33
361.683	51.34
361.898	1.74
362.114	45.72
362.33	29.26
362.546	29.84
362.762	8.72
362.977	25.96
363.193	-20.34
363.409	67.42
363.624	-4.46
363.84	-36.42
364.056	-12.59
364.271	10.85
364.487	6.97
364.703	-4.07
364.918	-24.41
365.134	-7.17
365.35	4.26
365.565	109.85
365.781	23.44
365.996	35.46
366.212	69.56
366.427	26.16
366.643	-9.3
366.858	-18.99
367.074	-37.01
367.289	44.17
367.505	117.8
367.72	-35.65
367.936	-12.4
368.151	47.27
368.367	30.61
368.582	34.1
368.798	-6.97
369.013	50.76
369.228	2.13
369.444	-26.16
369.659	67.62
369.874	31.39
370.09	60.06
370.305	-42.24
370.52	-9.88
370.736	52.31
370.951	11.04
371.166	44.76
371.381	105.4
371.597	38.36
371.812	-14.92
372.027	-3.29
372.242	17.24
372.458	96.87
372.673	-23.06
372.888	-3.29
373.103	23.44
373.318	99
373.533	27.32
373.749	30.42
373.964	-52.7
374.179	58.9
374.394	-3.49
374.609	55.8
374.824	-35.26
375.039	39.91
375.254	12.4
375.469	61.03
375.684	19.76
375.899	53.28
376.114	14.53
376.329	14.72
376.544	30.81
376.759	52.31
376.974	23.64
377.189	18.99
377.404	9.11
377.619	25.38
377.834	-50.76
378.049	-17.63
378.264	-45.14
378.478	34.29
378.693	-5.42
378.908	53.09
379.123	15.5
379.338	49.41
379.553	30.81
379.767	11.82
379.982	37.39
380.197	51.54
380.412	0.58
380.626	42.62
380.841	104.82
381.056	38.56
381.271	81.18
381.485	12.79
381.7	3.29
381.915	31.77
382.129	-3.1
382.344	18.21
382.559	-0.97
382.773	52.12
382.988	-33.91
383.202	55.41
383.417	-17.05
383.632	103.07
383.846	17.82
384.061	18.99
384.275	-11.24
384.49	13.17
384.704	54.83
384.919	51.15
385.133	6.39
385.348	42.62
385.562	-13.56
385.777	61.03
385.991	1.16
386.206	-0.39
386.42	0.58
386.634	39.14
386.849	36.62
387.063	27.12
387.277	-24.02
387.492	-9.3
387.706	-39.14
387.92	-22.09
388.135	65.1
388.349	17.44
388.563	19.96
388.778	-0.19
388.992	45.53
389.206	45.14
389.42	88.35
389.635	23.83
389.849	23.25
390.063	45.34
390.277	21.89
390.491	97.84
390.706	45.53
390.92	70.33
391.134	7.56
391.348	40.49
391.562	-22.09
391.776	18.6
391.99	-0.19
392.205	72.07
392.419	-4.46
392.633	20.34
392.847	78.86
393.061	-26.16
393.275	103.07
393.489	30.61
393.703	29.84
393.917	61.81
394.131	21.31
394.345	57.16
394.559	38.36
394.773	9.88
394.986	21.12
395.2	22.47
395.414	78.27
395.628	-7.17
395.842	26.93
396.056	8.72
396.27	-13.95
396.484	13.17
396.697	20.73
396.911	67.62
397.125	26.35
397.339	81.18
397.553	58.12
397.766	74.21
397.98	61.22
398.194	63.94
398.408	36.04
398.621	20.54
398.835	61.03
399.049	43.4
399.262	88.74
399.476	34.87
399.69	49.02
399.903	93.58
400.117	46.11
400.331	49.79
400.544	-10.85
400.758	140.66
400.971	26.74
401.185	64.32
401.398	-7.17
401.612	70.52
401.826	65.68
402.039	31.19
402.253	17.82
402.466	71.3
402.68	38.75
402.893	46.31
403.106	45.72
403.32	25.38
403.533	76.72
403.747	17.24
403.96	54.83
404.174	55.02
404.387	0.77
404.6	33.71
404.814	59.87
405.027	35.84
405.24	56.96
405.454	37.39
405.667	81.76
405.88	-22.67
406.094	24.41
406.307	92.03
406.52	45.72
406.733	-3.68
406.947	-18.79
407.16	95.71
407.373	108.11
407.586	17.05
407.799	-4.84
408.012	54.25
408.226	43.01
408.439	85.64
408.652	4.46
408.865	49.02
409.078	73.24
409.291	64.71
409.504	7.75
409.717	63.16
409.93	47.86
410.143	45.14
410.357	-17.05
410.57	20.92
410.783	11.24
410.996	54.25
411.209	49.6
411.421	97.26
411.634	49.02
411.847	17.24
412.06	52.31
412.273	36.81
412.486	47.27
412.699	145.5
412.912	71.11
413.125	81.76
413.338	55.02
413.55	88.35
413.763	44.37
413.976	64.32
414.189	33.71
414.402	62.97
414.615	105.79
414.827	11.24
415.04	78.47
415.253	81.37
415.466	68.97
415.678	104.82
415.891	47.08
416.104	49.02
416.316	41.46
416.529	54.25
416.742	79.24
416.954	79.44
417.167	63.94
417.38	21.7
417.592	84.09
417.805	40.49
418.017	-15.89
418.23	113.15
418.442	43.79
418.655	48.63
418.868	78.86
419.08	96.29
419.293	90.48
419.505	80.41
419.718	68.39
419.93	81.96
420.142	64.91
420.355	94.74
420.567	109.66
420.78	94.16
420.992	51.92
421.205	134.07
421.417	-0.19
421.629	49.79
421.842	41.27
422.054	20.15
422.266	75.76
422.479	106.95
422.691	42.04
422.903	89.7
423.115	53.09
423.328	50.37
423.54	68.59
423.752	56.96
423.964	57.93
424.177	64.91
424.389	63.74
424.601	165.27
424.813	75.37
425.025	98.62
425.238	93.77
425.45	32.94
425.662	52.7
425.874	383.04
426.086	89.9
426.298	91.84
426.51	84.09
426.722	64.32
426.934	62.58
427.146	109.27
427.358	26.74
427.57	105.2
427.782	62.97
427.994	60.45
428.206	67.81
428.418	34.68
428.63	105.01
428.842	126.71
429.054	79.44
429.266	116.83
429.478	61.81
429.69	79.63
429.902	32.94
430.114	118.19
430.325	109.66
430.537	74.79
430.749	98.23
430.961	39.72
431.173	65.49
431.384	126.9
431.596	26.74
431.808	81.96
432.02	88.54
432.231	104.43
432.443	116.64
432.655	89.7
432.867	81.76
433.078	105.59
433.29	153.64
433.502	117.6
433.713	144.54
433.925	99.2
434.136	134.46
434.348	65.87
434.56	35.26
434.771	176.31
434.983	55.8
435.194	67.23
435.406	101.52
435.617	148.41
435.829	150.54
436.04	105.98
436.252	132.52
436.463	193.36
436.675	114.5
436.886	125.55
437.098	126.71
437.309	163.72
437.521	101.52
437.732	117.8
437.943	126.9
438.155	143.76
438.366	98.42
438.578	175.53
438.789	108.5
439	171.08
439.211	118.38
439.423	163.33
439.634	130.78
439.845	134.07
440.057	138.92
440.268	165.27
440.479	118.77
440.69	145.31
440.902	137.75
441.113	156.94
441.324	106.75
441.535	162.17
441.746	191.62
441.957	117.6
442.168	124.19
442.38	165.65
442.591	144.73
442.802	114.12
443.013	133.88
443.224	137.95
443.435	140.85
443.646	123.61
443.857	135.24
444.068	127.49
444.279	124.58
444.49	213.9
444.701	161.78
444.912	252.07
445.123	188.32
445.334	185.61
445.545	168.75
445.756	170.5
445.967	123.61
446.178	183.09
446.388	206.53
446.599	202.08
446.81	171.47
447.021	188.52
447.232	202.08
447.443	216.8
447.653	134.27
447.864	217
448.075	173.4
448.286	196.07
448.496	171.85
448.707	221.26
448.918	153.45
449.129	253.23
449.339	171.66
449.55	205.57
449.761	196.65
449.971	229.78
450.182	173.4
450.393	203.63
450.603	170.3
450.814	220.29
451.024	209.44
451.235	223.97
451.446	243.93
451.656	254.58
451.867	167.2
452.077	209.05
452.288	260.98
452.498	237.53
452.709	193.55
452.919	212.35
453.13	183.67
453.34	242.57
453.55	162.17
453.761	219.13
453.971	209.05
454.182	251.87
454.392	223
454.602	257.49
454.813	233.08
455.023	267.18
455.233	179.41
455.444	224.94
455.654	167.59
455.864	204.98
456.075	215.64
456.285	194.91
456.495	206.92
456.705	233.08
456.916	242.18
457.126	277.06
457.336	214.48
457.546	140.27
457.756	192.39
457.967	261.17
458.177	209.25
458.387	208.47
458.597	199.56
458.807	206.53
459.017	219.52
459.227	200.92
459.437	236.76
459.647	246.64
459.857	246.06
460.068	188.13
460.278	268.73
460.488	233.47
460.698	286.94
460.908	217
461.117	192.78
461.327	211.77
461.537	257.1
461.747	242.77
461.957	224.55
462.167	357.08
462.377	285.97
462.587	237.53
462.797	278.8
463.007	246.45
463.216	274.15
463.426	292.36
463.636	282.48
463.846	200.33
464.056	240.05
464.265	292.36
464.475	244.51
464.685	281.32
464.895	268.73
465.104	252.65
465.314	289.65
465.524	253.42
465.733	225.72
465.943	317.94
466.153	322.4
466.362	282.29
466.572	274.93
466.782	227.27
466.991	270.08
467.201	315.03
467.41	204.79
467.62	280.74
467.829	267.37
468.039	291.2
468.249	253.23
468.458	252.65
468.668	286.94
468.877	278.22
469.086	313.29
469.296	309.22
469.505	241.99
469.715	351.26
469.924	290.62
470.134	320.85
470.343	350.68
470.552	296.63
470.762	275.7
470.971	230.37
471.18	325.3
471.39	274.73
471.599	249.55
471.808	292.17
472.018	258.65
472.227	318.91
472.436	342.35
472.645	321.43
472.855	265.63
473.064	335.38
473.273	328.01
473.482	314.26
473.691	330.92
473.901	334.8
474.11	288.68
474.319	403.96
474.528	333.05
474.737	375.87
474.946	342.93
475.155	334.41
475.364	352.23
475.573	320.85
475.783	323.36
475.992	374.71
476.201	383.23
476.41	347.58
476.619	303.41
476.828	341.58
477.037	363.08
477.245	316.39
477.454	375.09
477.663	362.89
477.872	337.31
478.081	422.76
478.29	323.17
478.499	421.98
478.708	368.7
478.917	407.26
479.125	369.28
479.334	353.98
479.543	356.88
479.752	376.26
479.961	371.03
480.169	407.84
480.378	362.69
480.587	480.69
480.796	442.32
481.004	397.18
481.213	424.89
481.422	409.97
481.63	387.3
481.839	439.42
482.048	457.63
482.256	424.69
482.465	402.8
482.674	449.69
482.882	455.31
483.091	506.84
483.299	431.28
483.508	408.23
483.716	440.39
483.925	426.83
484.134	413.26
484.342	420.24
484.551	449.3
484.759	481.66
484.967	461.31
485.176	475.26
485.384	475.65
485.593	506.65
485.801	464.02
486.01	435.93
486.218	451.43
486.426	390.21
486.635	421.79
486.843	416.56
487.051	447.94
487.26	433.99
487.468	414.04
487.676	471.19
487.885	402.99
488.093	449.88
488.301	435.54
488.509	459.18
488.717	510.14
488.926	465.96
489.134	440.77
489.342	486.69
489.55	440
489.758	474.87
489.967	474.68
490.175	586.09
490.383	484.95
490.591	561.87
490.799	455.31
491.007	562.25
491.215	530.87
491.423	524.47
491.631	523.31
491.839	504.52
492.047	531.25
492.255	474.49
492.463	448.52
492.671	511.11
492.879	542.69
493.087	499.29
493.295	531.25
493.503	554.89
493.711	548.3
493.919	564.97
494.127	573.69
494.334	578.72
494.542	507.04
494.75	508.2
494.958	534.55
495.166	573.3
495.374	564.58
495.581	552.18
495.789	580.27
495.997	607.2
496.205	561.09
496.412	514.79
496.62	569.23
496.828	594.22
497.035	525.44
497.243	615.92
497.451	577.17
497.658	593.84
497.866	565.16
498.074	661.45
498.281	547.92
498.489	651.18
498.696	581.24
498.904	564.19
499.112	564.97
499.319	666.68
499.527	593.84
499.734	623.67
499.942	529.32
500.149	563.42
500.357	578.34
500.564	548.5
500.771	607.01
500.979	526.02
501.186	592.29
501.394	586.28
501.601	580.85
501.808	621.15
502.016	595.39
502.223	594.42
502.43	611.66
502.638	588.99
502.845	561.09
503.052	646.92
503.26	605.46
503.467	644.21
503.674	601.39
503.881	614.95
504.089	694
504.296	637.43
504.503	577.37
504.71	595.58
504.917	588.8
505.125	640.14
505.332	655.64
505.539	625.22
505.746	728.3
505.953	668.82
506.16	640.92
506.367	704.85
506.574	712.6
506.781	704.27
506.988	625.8
507.195	655.64
507.402	664.36
507.609	687.22
507.816	653.32
508.023	621.15
508.23	657.58
508.437	622.32
508.644	684.32
508.851	753.87
509.058	719
509.265	659.71
509.472	721.13
509.679	805.79
509.885	687.61
510.092	701.17
510.299	678.12
510.506	706.6
510.713	730.43
510.92	704.46
511.126	706.21
511.333	752.51
511.54	715.12
511.746	786.42
511.953	780.22
512.16	794.75
512.367	724.81
512.573	738.18
512.78	766.46
512.987	756.2
513.193	748.45
513.4	673.47
513.606	741.66
513.813	738.56
514.02	753.29
514.226	839.51
514.433	802.31
514.639	707.18
514.846	799.4
515.052	741.08
515.259	768.79
515.465	773.25
515.672	780.61
515.878	856.17
516.085	761.81
516.291	787.58
516.497	761.04
516.704	758.71
516.91	712.02
517.117	683.93
517.323	686.83
517.529	733.33
517.736	737.79
517.942	728.3
518.148	749.03
518.354	759.88
518.561	803.86
518.767	731.2
518.973	808.7
519.179	820.91
519.386	772.28
519.592	770.15
519.798	774.8
520.004	864.11
520.21	799.21
520.417	870.7
520.623	888.91
520.829	897.63
521.035	876.9
521.241	850.74
521.447	877.09
521.653	985.98
521.859	866.44
522.065	886.78
522.271	991.79
522.477	945.68
522.683	955.95
522.889	953.82
523.095	920.49
523.301	933.28
523.507	913.91
523.713	958.86
523.919	905.77
524.125	990.44
524.331	944.91
524.537	1010
524.742	976.68
524.948	1024.92
525.154	998.38
525.36	1107.65
525.566	1014.27
525.772	1031.9
525.977	954.21
526.183	1021.05
526.389	1031.9
526.595	973.19
526.8	992.95
527.006	914.1
527.212	925.34
527.417	903.44
527.623	892.59
527.829	985.4
528.034	1011.55
528.24	996.05
528.446	981.33
528.651	1076.46
528.857	1064.64
529.062	1094.09
529.268	1050.11
529.473	1047.4
529.679	1046.82
529.884	1118.89
530.09	1090.8
530.295	1128.77
530.501	1114.24
530.706	1079.95
530.912	1040.23
531.117	1084.4
531.323	1086.15
531.528	1119.28
531.733	1150.47
531.939	1077.43
532.144	1168.68
532.35	1145.63
532.555	1145.24
532.76	1131.68
532.966	1134.97
533.171	1138.46
533.376	1097.97
533.581	1053.4
533.787	1099.52
533.992	1148.53
534.197	1187.48
534.402	1120.25
534.607	1134.78
534.813	1241.14
535.018	1129.74
535.223	1110.37
535.428	1177.98
535.633	1187.09
535.838	1188.25
536.043	1175.46
536.249	1236.11
536.454	1179.92
536.659	1197.36
536.864	1161.32
537.069	1155.7
537.274	1188.45
537.479	1190
537.684	1179.15
537.889	1138.26
538.094	1245.79
538.299	1203.17
538.504	1207.05
538.708	1223.13
538.913	1208.98
539.118	1200.85
539.323	1236.88
539.528	1193.87
539.733	1203.36
539.938	1194.45
540.142	1222.35
540.347	1197.16
540.552	1154.73
540.757	1205.11
540.962	1172.17
541.166	1116.76
541.371	1145.63
541.576	1200.07
541.781	1060.38
541.985	1203.75
542.19	1186.12
542.395	1252.77
542.599	1268.08
542.804	1225.06
543.008	1284.16
543.213	1186.51
543.418	1180.89
543.622	1250.25
543.827	1165.2
544.031	1268.46
544.236	1288.42
544.44	1220.61
544.645	1320.19
544.849	1208.01
545.054	1246.18
545.258	1343.44
545.463	1296.94
545.667	1247.93
545.872	1234.56
546.076	1273.89
546.281	1276.02
546.485	1238.63
546.689	1274.66
546.894	1331.82
547.098	1233.2
547.302	1213.63
547.507	1247.15
547.711	1274.86
547.915	1297.91
548.119	1226.42
548.324	1230.88
548.528	1328.14
548.732	1290.36
548.936	1301.01
549.141	1325.62
549.345	1276.02
549.549	1291.33
549.753	1292.88
549.957	1328.33
550.161	1363.98
550.366	1274.28
550.57	1281.44
550.774	1313.99
550.978	1289.97
551.182	1334.34
551.386	1307.21
551.59	1270.01
551.794	1284.54
551.998	1302.76
552.202	1303.14
552.406	1235.33
552.61	1303.53
552.814	1323.68
553.018	1352.16
553.222	1314.96
553.426	1270.01
553.63	1389.17
553.833	1289.39
554.037	1239.01
554.241	1315.54
554.445	1287.84
554.649	1303.14
554.853	1287.06
555.056	1346.74
555.26	1349.84
555.464	1300.82
555.668	1298.49
555.871	1326.39
556.075	1347.71
556.279	1288.81
556.483	1238.43
556.686	1295.78
556.89	1284.74
557.094	1297.91
557.297	1235.14
557.501	1329.88
557.704	1209.37
557.908	1307.41
558.112	1241.92
558.315	1326.2
558.519	1287.06
558.722	1268.46
558.926	1249.09
559.129	1205.11
559.333	1196.97
559.536	1189.41
559.74	1216.35
559.943	1183.41
560.147	1165.58
560.35	1219.06
560.553	1207.63
560.757	1151.83
560.96	1260.33
561.164	1222.35
561.367	1301.59
561.57	1204.72
561.774	1210.15
561.977	1233.78
562.18	1213.63
562.384	1344.99
562.587	1215.76
562.79	1183.02
562.993	1190.38
563.197	1256.64
563.4	1273.5
563.603	1271.76
563.806	1334.14
564.009	1197.55
564.212	1233.2
564.416	1159.58
564.619	1212.08
564.822	1193.68
565.025	1276.41
565.228	1203.56
565.431	1198.52
565.634	1137.1
565.837	1166.36
566.04	1147.37
566.243	1135.75
566.446	1076.65
566.649	1171.2
566.852	1106.1
567.055	1136.52
567.258	1183.6
567.461	1245.99
567.664	1207.05
567.867	1107.07
568.07	1191.74
568.273	1140.98
568.475	1216.93
568.678	1140.78
568.881	1160.93
569.084	1121.02
569.287	1077.82
569.489	1071.03
569.692	1108.43
569.895	1115.98
570.098	1079.56
570.3	1070.07
570.503	1016.2
570.706	1087.31
570.909	1077.23
571.111	1021.82
571.314	1009.42
571.516	1052.82
571.719	1062.7
571.922	1071.62
572.124	1026.28
572.327	1047.79
572.529	1034.8
572.732	1020.27
572.935	1060.96
573.137	1096.61
573.34	1017.95
573.542	1083.82
573.745	1086.92
573.947	1053.02
574.15	1032.67
574.352	1002.84
574.554	1119.67
574.757	1024.34
574.959	997.8
575.162	997.6
575.364	1015.24
575.566	1100.87
575.769	947.23
575.971	1028.99
576.173	905.19
576.376	986.95
576.578	1033.45
576.78	1073.36
576.982	937.93
577.185	996.25
577.387	957.31
577.589	945.87
577.791	989.85
577.993	1003.03
578.196	975.13
578.398	1009.04
578.6	1038.29
578.802	913.13
579.004	945.68
579.206	943.16
579.408	978.62
579.61	934.06
579.812	1003.22
580.014	979.78
580.216	960.02
580.418	929.21
580.62	958.86
580.822	920.69
581.024	968.74
581.226	984.82
581.428	942.77
581.63	1046.43
581.832	960.99
582.034	1014.85
582.236	982.3
582.438	981.33
582.64	1051.27
582.841	1055.92
583.043	1052.63
583.245	1011.94
583.447	1001.67
583.649	983.85
583.85	965.05
584.052	1016.59
584.254	956.53
584.456	991.02
584.657	956.53
584.859	990.63
585.061	956.53
585.262	932.31
585.464	910.81
585.666	979
585.867	924.37
586.069	1021.44
586.27	967.19
586.472	943.74
586.674	945.49
586.875	947.04
587.077	946.46
587.278	977.07
587.48	956.53
587.681	1059.8
587.883	949.17
588.084	878.06
588.285	911.97
588.487	950.14
588.688	892.01
588.89	848.42
589.091	867.79
589.292	880.19
589.494	858.88
589.695	861.01
589.896	784.48
590.098	798.43
590.299	845.13
590.5	801.34
590.702	810.64
590.903	860.04
591.104	917.39
591.305	858.11
591.507	880.19
591.708	877.29
591.909	878.84
592.11	921.46
592.311	904.22
592.512	868.76
592.714	810.64
592.915	809.86
593.116	846.87
593.317	854.23
593.518	873.03
593.719	867.6
593.92	909.26
594.121	920.69
594.322	898.02
594.523	861.21
594.724	824.78
594.925	875.74
595.126	904.8
595.327	894.72
595.528	879.22
595.729	887.75
595.929	888.33
596.13	907.9
596.331	880.77
596.532	891.24
596.733	929.21
596.934	915.46
597.135	892.59
597.335	894.72
597.536	860.63
597.737	894.34
597.938	855.01
598.138	893.56
598.339	832.53
598.54	894.14
598.74	878.45
598.941	820.52
599.142	933.09
599.342	902.47
599.543	842.41
599.744	840.86
599.944	888.72
600.145	847.26
600.345	875.35
600.546	949.94
600.746	911.19
600.947	987.34
601.147	873.61
601.348	941.22
601.548	855.59
601.749	852.29
601.949	825.75
602.15	844.74
602.35	873.41
602.551	898.02
602.751	855.98
602.951	836.02
603.152	767.43
603.352	930.57
603.552	862.56
603.753	883.29
603.953	900.15
604.153	882.52
604.354	849.78
604.554	841.25
604.754	864.69
604.954	808.89
605.155	853.07
605.355	849.97
605.555	906.93
605.755	893.17
605.955	852.68
606.155	870.12
606.356	872.06
606.556	883.68
606.756	863.73
606.956	822.26
607.156	905.38
607.356	829.24
607.556	885.62
607.756	885.04
607.956	875.35
608.156	856.56
608.356	817.23
608.556	898.6
608.756	843.96
608.956	830.21
609.156	855.78
609.356	777.31
609.556	791.65
609.755	858.88
609.955	802.31
610.155	840.86
610.355	823.23
610.555	788.74
610.755	825.36
610.954	737.21
611.154	810.64
611.354	852.88
611.554	783.71
611.753	821.68
611.953	733.14
612.153	854.04
612.352	793.01
612.552	767.05
612.752	727.52
612.951	815.09
613.151	794.36
613.351	777.31
613.55	798.24
613.75	799.21
613.949	809.48
614.149	809.67
614.348	792.81
614.548	774.8
614.747	731.4
614.947	779.06
615.146	706.6
615.346	794.94
615.545	800.95
615.745	811.61
615.944	823.23
616.144	760.65
616.343	780.61
616.542	731.98
616.742	738.76
616.941	746.31
617.14	695.17
617.34	745.35
617.539	750.96
617.738	735.85
617.938	789.71
618.137	736.63
618.336	697.68
618.535	752.13
618.734	755.61
618.934	761.81
619.133	796.49
619.332	795.91
619.531	708.15
619.73	727.52
619.929	775.76
620.128	756.2
620.328	793.39
620.527	751.93
620.726	739.92
620.925	752.51
621.124	763.75
621.323	766.46
621.522	701.17
621.721	699.62
621.92	701.95
622.119	761.62
622.318	696.72
622.517	723.65
622.715	713.38
622.914	701.95
623.113	715.12
623.312	653.32
623.511	724.23
623.71	702.72
623.909	675.79
624.107	798.04
624.306	674.43
624.505	712.8
624.704	684.12
624.902	671.14
625.101	736.82
625.3	730.43
625.499	685.48
625.697	688.97
625.896	678.12
626.095	720.35
626.293	672.69
626.492	655.06
626.69	715.31
626.889	666.3
627.088	699.43
627.286	661.07
627.485	654.28
627.683	660.87
627.882	689.74
628.08	626.77
628.279	653.51
628.477	723.06
628.676	625.22
628.874	701.75
629.073	626
629.271	614.95
629.469	677.92
629.668	653.32
629.866	630.65
630.065	649.83
630.263	651.96
630.461	637.62
630.66	644.98
630.858	685.87
631.056	710.47
631.254	683.54
631.453	610.69
631.651	694.97
631.849	671.33
632.047	683.54
632.245	644.21
632.444	674.05
632.642	679.47
632.84	693.42
633.038	657.77
633.236	598.29
633.434	650.99
633.632	615.73
633.83	626.97
634.028	659.13
634.227	656.42
634.425	702.53
634.623	666.49
634.821	668.62
635.019	669.59
635.216	614.95
635.414	680.63
635.612	660.68
635.81	626
636.008	705.43
636.206	656.42
636.404	677.53
636.602	613.98
636.8	679.47
636.997	697.49
637.195	705.82
637.393	662.03
637.591	721.13
637.789	673.08
637.986	649.44
638.184	668.23
638.382	712.41
638.58	689.16
638.777	701.17
638.975	663.2
639.173	696.72
639.37	658.16
639.568	694.97
639.765	710.08
639.963	649.25
640.161	678.12
640.358	712.41
640.556	617.47
640.753	593.45
640.951	628.32
641.148	666.88
641.346	623.09
641.543	646.92
641.741	686.45
641.938	623.67
642.136	651.77
642.333	601.78
642.531	668.43
642.728	672.3
642.925	638.59
643.123	637.23
643.32	668.62
643.517	620.38
643.715	622.12
643.912	612.05
644.109	643.24
644.306	639.56
644.504	605.27
644.701	634.91
644.898	641.11
645.095	600.62
645.293	597.32
645.49	629.29
645.687	656.42
645.884	644.6
646.081	561.09
646.278	595.58
646.475	604.49
646.672	585.5
646.87	592.09
647.067	622.12
647.264	612.05
647.461	530.48
647.658	552.57
647.855	614.76
648.052	568.65
648.249	494.25
648.446	586.86
648.642	551.6
648.839	534.74
649.036	545.98
649.233	517.11
649.43	544.62
649.627	517.89
649.824	547.53
650.021	551.21
650.217	537.65
650.414	521.76
650.611	577.56
650.808	587.83
651.004	560.12
651.201	577.95
651.398	624.64
651.595	564.58
651.791	543.07
651.988	609.92
652.185	525.25
652.381	552.95
652.578	492.12
652.775	556.64
652.971	560.9
653.168	537.45
653.364	587.05
653.561	506.65
653.757	566.9
653.954	561.09
654.15	547.53
654.347	607.01
654.543	517.5
654.74	509.17
654.936	476.42
655.133	515.76
655.329	537.65
655.525	532.61
655.722	574.07
655.918	509.56
656.115	531.06
656.311	476.04
656.507	445.62
656.704	417.72
656.9	455.89
657.096	455.5
657.292	424.69
657.489	507.42
657.685	505.29
657.881	466.74
658.077	481.85
658.273	489.99
658.47	568.07
658.666	508.39
658.862	542.49
659.058	487.66
659.254	531.45
659.45	480.11
659.646	541.72
659.842	487.27
660.038	554.12
660.234	473.91
660.43	495.8
660.626	578.34
660.822	563.61
661.018	526.6
661.214	507.81
661.41	452.21
661.606	545.4
661.802	522.92
661.998	495.99
662.194	482.43
662.39	504.71
662.586	522.73
662.781	520.41
662.977	547.92
663.173	552.57
663.369	490.96
663.564	527.38
663.76	548.5
663.956	483.59
664.152	554.7
664.347	439.61
664.543	494.64
664.739	493.86
664.934	444.84
665.13	436.32
665.326	514.98
665.521	484.17
665.717	473.91
665.912	473.13
666.108	415.98
666.304	448.14
666.499	465.77
666.695	438.06
666.89	458.21
667.086	507.42
667.281	509.17
667.477	558.19
667.672	510.52
667.867	464.41
668.063	492.89
668.258	452.4
668.454	463.44
668.649	538.04
668.844	480.11
669.04	491.54
669.235	476.62
669.43	440.19
669.626	446.39
669.821	456.86
670.016	445.42
670.211	467.9
670.407	405.13
670.602	471.19
670.797	484.56
670.992	502
671.187	458.6
671.382	498.71
671.578	463.83
671.773	484.17
671.968	425.28
672.163	474.29
672.358	461.89
672.553	422.95
672.748	441.36
672.943	521.96
673.138	430.89
673.333	493.28
673.528	437.87
673.723	467.51
673.918	464.61
674.113	408.61
674.308	532.8
674.503	474.29
674.698	473.13
674.892	469.26
675.087	488.05
675.282	464.02
675.477	433.99
675.672	470.03
675.867	426.24
676.061	450.85
676.256	410.74
676.451	422.56
676.646	447.94
676.84	414.43
677.035	395.44
677.23	378
677.424	448.72
677.619	477.59
677.814	471.39
678.008	471.58
678.203	382.65
678.397	403.38
678.592	441.74
678.787	473.71
678.981	396.02
679.176	432.25
679.37	419.66
679.565	440.58
679.759	407.06
679.954	476.23
680.148	482.43
680.342	468.09
680.537	469.45
680.731	440.97
680.926	471.97
681.12	491.73
681.314	403.96
681.509	427.79
681.703	422.76
681.897	474.1
682.092	420.24
682.286	415.98
682.48	500.84
682.674	504.52
682.869	422.18
683.063	429.54
683.257	503.94
683.451	427.02
683.645	440.58
683.839	455.89
684.034	417.14
684.228	483.79
684.422	426.83
684.616	425.08
684.81	465.77
685.004	438.06
685.198	416.36
685.392	457.24
685.586	401.06
685.78	452.4
685.974	454.34
686.168	482.24
686.362	488.24
686.556	416.56
686.75	382.65
686.944	387.49
687.138	417.91
687.331	335.38
687.525	368.12
687.719	310.77
687.913	378.19
688.107	376.06
688.301	334.41
688.494	391.76
688.688	324.14
688.882	353.39
689.076	326.66
689.269	349.71
689.463	468.48
689.657	380.71
689.85	371.22
690.044	386.53
690.238	365.79
690.431	409.58
690.625	388.27
690.818	425.86
691.012	420.24
691.205	440.39
691.399	373.54
691.593	440.77
691.786	489.6
691.98	478.94
692.173	512.27
692.366	470.42
692.56	469.06
692.753	542.3
692.947	450.85
693.14	522.54
693.333	509.75
693.527	431.48
693.72	554.31
693.914	501.03
694.107	480.49
694.3	498.32
694.493	480.49
694.687	533.39
694.88	482.43
695.073	593.45
695.266	548.69
695.46	540.55
695.653	587.64
695.846	581.44
696.039	512.07
696.232	524.86
696.425	609.53
696.618	599.45
696.812	567.29
697.005	642.85
697.198	691.68
697.391	602.75
697.584	670.95
697.777	702.72
697.97	658.55
698.163	694.78
698.356	662.62
698.549	757.55
698.742	732.17
698.935	684.32
699.127	697.68
699.32	668.43
699.513	647.89
699.706	696.13
699.899	767.43
700.092	689.74
700.285	738.56
700.477	676.37
700.67	740.5
700.863	779.25
701.056	824.2
701.248	790.29
701.441	794.17
701.634	781.96
701.826	882.71
702.019	756
702.212	825.17
702.404	791.65
702.597	808.7
702.79	793.59
702.982	829.24
703.175	858.11
703.367	822.65
703.56	884.26
703.752	953.43
703.945	901.89
704.137	905.57
704.33	962.34
704.522	942
704.715	928.63
704.907	961.57
705.1	995.67
705.292	990.44
705.484	956.72
705.677	1038.49
705.869	1011.55
706.061	1026.09
706.254	1080.72
706.446	1016.4
706.638	989.47
706.831	1108.04
707.023	1034.61
707.215	1134.78
707.407	1100.87
707.599	1104.55
707.792	1141.75
707.984	1148.73
708.176	1131.48
708.368	1070.84
708.56	1159.96
708.752	1151.25
708.944	1153.18
709.136	1199.49
709.329	1176.82
709.521	1263.62
709.713	1238.43
709.905	1221
710.097	1262.84
710.289	1196.78
710.481	1259.16
710.672	1237.27
710.864	1277.57
711.056	1346.16
711.248	1302.56
711.44	1279.7
711.632	1267.49
711.824	1318.26
712.016	1359.14
712.207	1343.44
712.399	1384.91
712.591	1419.97
712.783	1376.19
712.975	1411.45
713.166	1342.28
713.358	1371.15
713.55	1450.97
713.741	1426.17
713.933	1440.32
714.125	1454.46
714.316	1433.54
714.508	1494.18
714.7	1447.68
714.891	1483.52
715.083	1563.54
715.274	1504.64
715.466	1506.58
715.657	1517.82
715.849	1413.77
716.04	1487.98
716.232	1451.36
716.423	1508.32
716.615	1419.59
716.806	1431.6
716.998	1392.27
717.189	1334.92
717.381	1296.94
717.572	1258
717.763	1325.81
717.955	1297.72
718.146	1255.87
718.337	1225.84
718.528	1182.83
718.72	1129.74
718.911	1213.63
719.102	1154.15
719.293	1245.6
719.485	1214.6
719.676	1176.43
719.867	1136.71
720.058	1140.01
720.249	1154.54
720.44	1191.16
720.632	1221.19
720.823	1256.64
721.014	1345.57
721.205	1341.51
721.396	1390.72
721.587	1469.77
721.778	1450
721.969	1505.03
722.16	1580.78
722.351	1524.4
722.542	1654.02
722.733	1640.65
722.924	1525.57
723.115	1629.03
723.305	1582.33
723.496	1618.37
723.687	1480.23
723.878	1542.23
724.069	1550.56
724.26	1544.55
724.45	1487.98
724.641	1486.04
724.832	1523.63
725.023	1502.7
725.213	1526.73
725.404	1524.4
725.595	1489.33
725.785	1453.88
725.976	1539.71
726.167	1543.58
726.357	1532.93
726.548	1640.85
726.739	1521.3
726.929	1595.7
727.12	1601.71
727.31	1618.56
727.501	1591.44
727.691	1610.81
727.882	1615.27
728.072	1654.6
728.263	1634.65
728.453	1653.25
728.644	1628.83
728.834	1650.34
729.024	1593.57
729.215	1614.88
729.405	1649.37
729.596	1695.48
729.786	1710.79
729.976	1717.96
730.167	1720.48
730.357	1708.27
730.547	1689.67
730.737	1721.44
730.928	1768.91
731.118	1798.56
731.308	1736.94
731.498	1758.26
731.688	1846.99
731.879	1823.55
732.069	1848.35
732.259	1858.23
732.449	1899.89
732.639	1946.97
732.829	1973.51
733.019	1968.08
733.209	2007.03
733.399	2041.9
733.589	2063.02
733.779	2082.59
733.969	2034.35
734.159	2075.61
734.349	2145.94
734.539	2174.23
734.729	2175.98
734.919	2183.14
735.109	2214.53
735.299	2158.93
735.488	2212.79
735.678	2229.64
735.868	2214.34
736.058	2166.09
736.248	2204.07
736.437	2134.51
736.627	2123.66
736.817	2259.87
737.007	2193.99
737.196	2241.46
737.386	2228.67
737.576	2218.79
737.765	2254.64
737.955	2225.96
738.144	2334.27
738.334	2283.89
738.524	2224.61
738.713	2302.69
738.903	2248.82
739.092	2317.41
739.282	2263.94
739.471	2318.96
739.661	2288.54
739.85	2315.47
740.04	2340.27
740.229	2342.79
740.419	2390.26
740.608	2386.38
740.797	2352.48
740.987	2394.91
741.176	2382.7
741.365	2372.43
741.555	2311.02
741.744	2408.08
741.933	2369.33
742.123	2375.15
742.312	2441.8
742.501	2424.94
742.69	2428.04
742.88	2336.98
743.069	2505.54
743.258	2443.15
743.447	2450.71
743.636	2432.11
743.825	2395.1
744.014	2412.35
744.204	2429.78
744.393	2401.5
744.582	2457.68
744.771	2493.33
744.96	2454.58
745.149	2468.92
745.338	2390.07
745.527	2487.71
745.716	2451.29
745.905	2422.62
746.094	2467.76
746.283	2458.65
746.471	2485.58
746.66	2541.96
746.849	2480.74
747.038	2549.33
747.227	2460.78
747.416	2477.83
747.604	2475.31
747.793	2485.39
747.982	2456.13
748.171	2474.35
748.359	2496.05
748.548	2483.84
748.737	2506.51
748.926	2444.51
749.114	2372.43
749.303	2470.47
749.491	2455.94
749.68	2406.34
749.869	2509.8
750.057	2440.25
750.246	2425.72
750.434	2456.91
750.623	2442.77
750.811	2437.34
751	2478.61
751.188	2431.92
751.377	2457.49
751.565	2431.92
751.754	2393.36
751.942	2402.08
752.131	2462.33
752.319	2386.58
752.507	2374.18
752.696	2426.49
752.884	2455.75
753.072	2390.65
753.261	2464.46
753.449	2445.67
753.637	2384.25
753.825	2502.44
754.014	2369.92
754.202	2421.84
754.39	2422.81
754.578	2436.57
754.766	2421.84
754.955	2405.37
755.143	2463.5
755.331	2388.32
755.519	2378.25
755.707	2377.67
755.895	2385.8
756.083	2398.01
756.271	2342.79
756.459	2363.33
756.647	2393.36
756.835	2371.47
757.023	2351.7
757.211	2387.74
757.399	2357.71
757.587	2335.62
757.775	2309.47
757.963	2294.16
758.151	2300.55
758.339	2278.66
758.526	2286.6
758.714	2305.4
758.902	2220.54
759.09	2184.5
759.278	2033.96
759.465	1901.44
759.653	1630.77
759.841	1490.69
760.028	1279.12
760.216	1106.1
760.404	1060.38
760.591	852.29
760.779	709.7
760.967	655.45
761.154	524.47
761.342	578.14
761.529	570.39
761.717	609.53
761.905	588.41
762.092	655.06
762.28	566.13
762.467	573.49
762.655	564.19
762.842	584.34
763.029	573.69
763.217	597.52
763.404	603.33
763.592	625.42
763.779	567.87
763.966	593.84
764.154	646.15
764.341	676.76
764.528	680.83
764.716	751.35
764.903	768.98
765.09	824.01
765.277	844.93
765.465	942.39
765.652	1029.57
765.839	1036.55
766.026	1161.32
766.213	1174.11
766.4	1251.8
766.588	1374.83
766.775	1374.06
766.962	1440.51
767.149	1462.4
767.336	1626.12
767.523	1543.2
767.71	1632.9
767.897	1747.21
768.084	1804.17
768.271	1815.02
768.458	1846.22
768.645	1892.91
768.832	1878.19
769.019	1869.47
769.206	1911.51
769.392	1971.57
769.579	2077.75
769.766	1989.01
769.953	1988.62
770.14	2029.5
770.327	1999.28
770.513	2088.98
770.7	2121.73
770.887	1989.2
771.073	2105.84
771.26	2074.84
771.447	2060.31
771.634	2058.18
771.82	2134.9
772.007	2032.8
772.193	2057.6
772.38	2126.38
772.567	2060.7
772.753	2076.78
772.94	2114.75
773.126	2106.61
773.313	2125.99
773.499	2092.28
773.686	2135.09
773.872	2087.63
774.059	2083.36
774.245	2040.16
774.432	2083.56
774.618	2050.04
774.804	2053.53
774.991	1986.49
775.177	2083.17
775.363	2020.59
775.55	2085.5
775.736	2021.75
775.922	2000.44
776.109	2054.3
776.295	2061.47
776.481	2060.89
776.667	2043.06
776.853	2051.4
777.04	2028.34
777.226	2008.77
777.412	2104.68
777.598	1987.27
777.784	1995.6
777.97	1978.74
778.156	2041.51
778.342	1988.43
778.528	2005.28
778.715	1976.03
778.901	1942.12
779.087	1989.78
779.272	1963.82
779.458	1933.79
779.644	1993.27
779.83	1932.82
780.016	2018.26
780.202	1997.92
780.388	1952.58
780.574	1898.92
780.76	1922.55
780.946	2011.68
781.131	1969.05
781.317	1967.31
781.503	1913.45
781.689	1919.84
781.874	2005.09
782.06	1930.3
782.246	1894.27
782.432	1902.99
782.617	1960.33
782.803	1994.63
782.989	1843.7
783.174	1878.38
783.36	1818.51
783.545	1880.12
783.731	1849.32
783.916	1825.29
784.102	1896.98
784.288	1858.62
784.473	1905.89
784.659	1846.99
784.844	1930.88
785.029	1804.95
785.215	1841.57
785.4	1819.29
785.586	1846.41
785.771	1784.22
785.956	1846.8
786.142	1821.22
786.327	1782.28
786.512	1793.71
786.698	1801.46
786.883	1766.78
787.068	1769.11
787.254	1786.35
787.439	1767.75
787.624	1759.42
787.809	1761.36
787.994	1734.04
788.18	1836.34
788.365	1688.89
788.55	1759.03
788.735	1748.57
788.92	1725.9
789.105	1734.04
789.29	1746.63
789.475	1669.91
789.66	1743.53
789.845	1674.94
790.03	1675.72
790.215	1733.46
790.4	1713.31
790.585	1761.36
790.77	1704.39
790.955	1645.5
791.14	1684.05
791.325	1765.23
791.51	1597.25
791.695	1645.11
791.879	1663.13
792.064	1620.31
792.249	1678.24
792.434	1668.36
792.618	1662.35
792.803	1698
792.988	1632.9
793.173	1675.91
793.357	1694.71
793.542	1676.3
793.727	1686.38
793.911	1696.64
794.096	1659.83
794.281	1693.16
794.465	1750.89
794.65	1687.73
794.834	1699.74
795.019	1694.71
795.203	1713.89
795.388	1726.48
795.572	1732.88
795.757	1688.7
795.941	1716.99
796.126	1748.37
796.31	1665.06
796.494	1670.88
796.679	1673.98
796.863	1657.12
797.048	1716.99
797.232	1717.96
797.416	1660.03
797.601	1693.93
797.785	1747.02
797.969	1751.28
798.153	1656.54
798.338	1736.36
798.522	1746.24
798.706	1719.89
798.89	1750.12
799.074	1806.69
799.258	1775.89
799.443	1712.14
799.627	1719.7
799.811	1744.31
799.995	1689.48
800.179	1705.17
800.363	1671.84
800.547	1702.84
800.731	1725.32
800.915	1654.21
801.099	1674.56
801.283	1716.21
801.467	1722.8
801.651	1654.21
801.835	1714.86
802.019	1705.36
802.202	1701.88
802.386	1639.49
802.57	1647.43
802.754	1711.18
802.938	1652.66
803.121	1693.54
803.305	1725.9
803.489	1698.58
803.673	1699.16
803.856	1688.7
804.04	1680.18
804.224	1697.61
804.407	1674.94
804.591	1666.61
804.775	1673.01
804.958	1673.98
805.142	1833.43
805.326	1701.88
805.509	1700.13
805.693	1752.64
805.876	1754.19
806.06	1683.86
806.243	1721.83
806.427	1775.89
806.61	1757.67
806.794	1693.54
806.977	1741.98
807.16	1732.29
807.344	1744.31
807.527	1720.48
807.71	1670.88
807.894	1681.14
808.077	1743.34
808.26	1694.71
808.444	1671.65
808.627	1735.78
808.81	1689.86
808.993	1612.36
809.177	1638.33
809.36	1654.6
809.543	1648.79
809.726	1570.9
809.909	1595.12
810.092	1605.58
810.276	1607.71
810.459	1592.8
810.642	1587.56
810.825	1551.33
811.008	1566.64
811.191	1516.27
811.374	1513.75
811.557	1536.42
811.74	1597.64
811.923	1491.27
812.106	1488.56
812.289	1445.74
812.472	1463.95
812.654	1508.52
812.837	1463.18
813.02	1416.49
813.203	1393.43
813.386	1340.15
813.569	1365.34
813.751	1309.54
813.934	1383.74
814.117	1319.03
814.3	1275.83
814.482	1250.64
814.665	1247.34
814.848	1201.23
815.03	1152.41
815.213	1173.91
815.396	1177.01
815.578	1135.55
815.761	1135.94
815.943	1189.41
816.126	1122.57
816.309	1069.68
816.491	1045.46
816.674	1016.01
816.856	1078.98
817.039	1035.77
817.221	1096.8
817.403	1047.4
817.586	1065.03
817.768	1080.72
817.951	1005.55
818.133	1015.62
818.315	1030.93
818.498	1059.41
818.68	1110.37
818.862	1086.92
819.045	1128.77
819.227	1076.85
819.409	1104.36
819.591	1088.08
819.774	1073.17
819.956	1069.29
820.138	1123.73
820.32	1075.88
820.502	1138.07
820.684	1175.46
820.866	1170.43
821.048	1221.96
821.231	1228.74
821.413	1184.18
821.595	1203.17
821.777	1188.83
821.959	1182.83
822.141	1225.64
822.323	1126.45
822.505	1123.15
822.686	1085.37
822.868	1045.07
823.05	977.84
823.232	948.2
823.414	895.69
823.596	971.25
823.778	918.75
823.96	970.67
824.141	958.47
824.323	970.09
824.505	1039.26
824.687	1087.7
824.868	1089.44
825.05	1168.68
825.232	1168.3
825.413	1226.81
825.595	1198.52
825.777	1104.94
825.958	1172.17
826.14	1149.11
826.321	1172.75
826.503	1159.96
826.685	1192.9
826.866	1209.95
827.048	1230.49
827.229	1174.3
827.411	1091.18
827.592	1093.32
827.773	1106.49
827.955	1073.75
828.136	1051.85
828.318	1035.39
828.499	1074.33
828.68	1009.81
828.862	1091.77
829.043	1105.72
829.224	1078.2
829.406	1001.67
829.587	1020.85
829.768	1041.97
829.949	1052.63
830.131	1048.56
830.312	1106.49
830.493	1047.01
830.674	1056.5
830.855	1063.48
831.036	1060.77
831.218	1091.38
831.399	1127.22
831.58	1063.87
831.761	1074.72
831.942	1077.04
832.123	1059.99
832.304	998.19
832.485	1020.27
832.666	1074.13
832.847	1049.72
833.028	1045.27
833.209	1037.71
833.389	1036.16
833.57	1001.87
833.751	1033.45
833.932	1083.43
834.113	1054.76
834.294	1003.61
834.475	1079.95
834.655	1121.8
834.836	1118.89
835.017	1100.87
835.198	1031.32
835.378	1072.58
835.559	1120.44
835.74	1056.12
835.92	1042.75
836.101	1048.37
836.281	1107.85
836.462	1076.07
836.643	1096.61
836.823	1086.73
837.004	1093.12
837.184	1167.33
837.365	1109.59
837.545	1098.35
837.726	1103
837.906	1165.78
838.087	1106.3
838.267	1099.52
838.448	1069.68
838.628	1078.98
838.808	1131.87
838.989	1123.54
839.169	1035
839.349	1119.47
839.53	1141.95
839.71	1171.59
839.89	1082.08
840.07	1162.29
840.251	1104.36
840.431	1128.19
840.611	1102.81
840.791	1047.79
840.971	1081.3
841.151	1080.33
841.332	1040.62
841.512	1150.08
841.692	1047.59
841.872	1103.39
842.052	1048.56
842.232	1117.73
842.412	1026.67
842.592	1048.56
842.772	1121.02
842.952	1094.09
843.132	1088.47
843.312	1046.82
843.492	1028.8
843.672	1089.25
843.851	1012.52
844.031	1080.33
844.211	1062.51
844.391	1069.68
844.571	1067.93
844.751	1096.8
844.93	1071.23
845.11	1034.42
845.29	1069.87
845.47	1074.13
845.649	1075.3
845.829	1088.28
846.009	1036.35
846.188	1069.29
846.368	1044.88
846.547	1056.12
846.727	1071.42
846.907	1012.33
847.086	1045.65
847.266	1086.53
847.445	1062.51
847.625	1009.23
847.804	1020.27
847.984	1054.95
848.163	1013.49
848.343	1022.6
848.522	1058.44
848.701	1044.69
848.881	1000.7
849.06	1038.87
849.239	1037.32
849.419	1036.94
849.598	979.2
849.777	981.91
849.957	1007.1
850.136	907.12
850.315	961.18
850.494	911.97
850.674	904.02
850.853	1000.7
851.032	971.64
851.211	1030.15
851.39	984.24
851.569	933.28
851.748	934.44
851.927	990.44
852.107	964.67
852.286	905.38
852.465	869.34
852.644	1005.55
852.823	952.85
853.002	976.87
853.181	947.23
853.359	976.49
853.538	892.21
853.717	978.62
853.896	884.46
854.075	870.12
854.254	840.09
854.433	769.18
854.611	856.94
854.79	822.07
854.969	856.17
855.148	888.91
855.327	825.75
855.505	877.48
855.684	841.44
855.863	874.77
856.041	834.86
856.22	879.03
856.399	835.83
856.577	937.35
856.756	885.42
856.934	1024.54
857.113	997.41
857.291	920.49
857.47	905.19
857.648	906.93
857.827	935.41
858.005	948.01
858.184	896.27
858.362	981.14
858.541	925.14
858.719	905.96
858.898	885.42
859.076	895.89
859.254	987.34
859.433	882.52
859.611	910.61
859.789	861.4
859.967	948.78
860.146	954.21
860.324	892.4
860.502	860.63
860.68	853.65
860.859	860.04
861.037	910.42
861.215	874.96
861.393	904.61
861.571	885.81
861.749	860.63
861.927	900.92
862.105	872.25
862.283	836.02
862.461	818.97
862.639	858.11
862.817	882.13
862.995	880
863.173	850.36
863.351	853.65
863.529	860.43
863.707	883.29
863.885	849.58
864.063	796.3
864.241	824.78
864.418	885.81
864.596	829.24
864.774	804.44
864.952	856.36
865.129	863.14
865.307	806.96
865.485	768.4
865.663	868.18
865.84	774.21
866.018	815.87
866.196	699.43
866.373	742.44
866.551	719.96
866.728	652.35
866.906	721.13
867.084	751.16
867.261	757.55
867.439	751.74
867.616	788.74
867.794	776.15
867.971	756.78
868.149	768.98
868.326	798.24
868.503	800.37
868.681	795.14
868.858	792.62
869.035	743.99
869.213	760.26
869.39	748.83
869.567	828.66
869.745	737.4
869.922	756.78
870.099	813.35
870.276	798.82
870.454	833.5
870.631	818
870.808	757.75
870.985	804.44
871.162	849
871.339	787.58
871.517	748.45
871.694	734.88
871.871	760.46
872.048	766.27
872.225	755.81
872.402	773.05
872.579	717.64
872.756	769.18
872.933	730.04
873.11	744.57
873.287	760.46
873.463	740.5
873.64	728.68
873.817	753.68
873.994	747.09
874.171	736.24
874.348	756.2
874.524	700.01
874.701	719.38
874.878	689.55
875.055	723.26
875.231	731.4
875.408	733.91
875.585	670.75
875.762	718.61
875.938	706.6
876.115	714.73
876.291	685.48
876.468	660.29
876.645	647.89
876.821	678.7
876.998	705.63
877.174	715.31
877.351	725.2
877.527	660.87
877.704	707.56
877.88	708.15
878.057	683.93
878.233	735.08
878.409	665.72
878.586	697.1
878.762	684.51
878.938	689.93
879.115	603.14
879.291	677.73
879.467	639.37
879.644	667.07
879.82	681.6
879.996	633.94
880.172	621.15
880.349	639.37
880.525	709.11
880.701	630.84
880.877	643.82
881.053	658.93
881.229	656.61
881.405	682.77
881.581	646.53
881.757	636.07
881.933	682.77
882.109	704.27
882.285	663
882.461	619.41
882.637	660.29
882.813	604.1
882.989	645.57
883.165	679.67
883.341	630.84
883.517	676.37
883.693	646.92
883.869	684.51
884.044	571.17
884.22	674.05
884.396	698.07
884.572	652.73
884.747	661.45
884.923	665.72
885.099	685.48
885.275	684.32
885.45	603.52
885.626	635.68
885.801	621.35
885.977	627.93
886.153	586.67
886.328	665.33
886.504	598.29
886.679	678.31
886.855	629.29
887.03	668.62
887.206	675.21
887.381	645.95
887.557	640.14
887.732	655.25
887.908	643.63
888.083	681.02
888.258	632.97
888.434	649.83
888.609	640.53
888.784	694
888.96	644.79
889.135	636.46
889.31	601.39
889.485	632
889.661	621.54
889.836	643.43
890.011	640.14
890.186	628.52
890.361	609.14
890.537	664.55
890.712	648.47
890.887	635.1
891.062	637.23
891.237	694.2
891.412	612.63
891.587	635.1
891.762	662.42
891.937	655.25
892.112	598.29
892.287	606.24
892.462	576.59
892.637	570
892.812	575.24
892.987	594.03
893.161	572.91
893.336	600.04
893.511	604.88
893.686	609.14
893.861	586.86
894.035	609.72
894.21	587.44
894.385	563.61
894.56	575.43
894.734	550.05
894.909	521.57
895.084	526.8
895.258	532.22
895.433	556.05
895.608	508.97
895.782	473.71
895.957	488.82
896.131	476.42
896.306	432.25
896.48	461.31
896.655	477.2
896.829	434.96
897.004	439.03
897.178	457.82
897.353	422.56
897.527	455.31
897.701	447.75
897.876	397.57
898.05	466.74
898.224	449.69
898.399	486.31
898.573	439.42
898.747	367.73
898.921	409.97
899.096	352.04
899.27	335.38
899.444	356.69
899.618	357.85
899.792	386.72
899.967	398.54
900.141	409
900.315	340.41
900.489	382.26
900.663	402.03
900.837	378.58
901.011	339.64
901.185	457.05
901.359	388.08
901.533	395.83
901.707	391.37
901.881	406.48
902.055	313.68
902.229	356.3
902.403	415.39
902.576	371.61
902.75	365.6
902.924	526.22
903.098	400.28
903.272	477.39
903.446	473.32
903.619	460.34
903.793	484.17
903.967	427.6
904.14	501.81
904.314	488.05
904.488	491.54
904.661	526.6
904.835	500.06
905.009	458.6
905.182	528.54
905.356	497.74
905.529	481.27
905.703	452.21
905.876	441.16
906.05	422.37
906.223	433.41
906.397	381.29
906.57	376.45
906.744	347.39
906.917	372.19
907.09	380.52
907.264	361.53
907.437	355.14
907.61	334.8
907.784	364.83
907.957	381.1
908.13	328.01
908.304	367.54
908.477	345.06
908.65	321.81
908.823	305.54
908.996	384.2
909.17	328.79
909.343	315.81
909.516	339.25
909.689	314.45
909.862	321.43
910.035	333.63
910.208	318.91
910.381	312.71
910.554	424.89
910.727	340.61
910.9	331.31
911.073	309.22
911.246	410.16
911.419	387.3
911.592	351.46
911.765	319.1
911.938	316.2
912.11	307.48
912.283	343.13
912.456	356.3
912.629	349.71
912.802	309.03
912.974	274.93
913.147	276.28
913.32	197.43
913.493	271.83
913.665	278.22
913.838	322.01
914.01	285.58
914.183	289.46
914.356	260.78
914.528	326.46
914.701	355.14
914.873	318.13
915.046	296.82
915.218	279.77
915.391	224.94
915.563	246.25
915.736	311.16
915.908	313.1
916.081	295.46
916.253	285.58
916.425	304.76
916.598	282.29
916.77	258.65
916.942	277.45
917.115	210.99
917.287	302.44
917.459	249.74
917.632	246.06
917.804	193.75
917.976	258.27
918.148	253.62
918.32	252.65
918.493	269.31
918.665	305.15
918.837	270.08
919.009	327.05
919.181	338.67
919.353	307.28
919.525	296.63
919.697	269.7
919.869	285.78
920.041	353.2
920.213	387.49
920.385	311.35
920.557	299.15
920.729	328.98
920.901	286.16
921.073	324.14
921.244	263.88
921.416	335.18
921.588	283.26
921.76	270.66
921.932	350.29
922.103	302.44
922.275	301.47
922.447	309.03
922.619	229.59
922.79	281.51
922.962	256.91
923.134	307.86
923.305	281.71
923.477	207.5
923.648	249.55
923.82	268.34
923.991	234.24
924.163	216.03
924.335	227.07
924.506	222.23
924.677	308.64
924.849	227.85
925.02	262.14
925.192	284.81
925.363	251.48
925.535	292.56
925.706	252.07
925.877	294.88
926.049	239.08
926.22	287.13
926.391	271.83
926.562	306.9
926.734	208.86
926.905	282.68
927.076	206.15
927.247	215.45
927.419	220.1
927.59	204.21
927.761	229.98
927.932	217.77
928.103	229.01
928.274	180.38
928.445	162.55
928.616	210.6
928.787	200.92
928.958	244.9
929.129	172.63
929.3	202.27
929.471	129.04
929.642	91.64
929.813	74.21
929.984	166.24
930.155	112.37
930.326	166.04
930.496	109.47
930.667	82.34
930.838	105.2
931.009	81.57
931.18	98.04
931.35	121.87
931.521	95.71
931.692	76.92
931.863	23.83
932.033	88.93
932.204	76.34
932.374	83.7
932.545	55.61
932.716	133.3
932.886	111.79
933.057	15.89
933.227	24.61
933.398	123.42
933.568	37.2
933.739	7.17
933.909	11.24
934.08	67.23
934.25	-6.97
934.421	8.91
934.591	61.03
934.761	10.27
934.932	-6.59
935.102	13.37
935.272	-6.97
935.443	44.17
935.613	12.21
935.783	39.91
935.953	-31.39
936.123	166.24
936.294	2.91
936.464	-5.62
936.634	20.92
936.804	-5.42
936.974	-1.94
937.144	38.17
937.314	28.48
937.484	0.58
937.655	-1.16
937.825	54.25
937.995	3.49
938.165	62.58
938.334	24.99
938.504	21.31
938.674	21.51
938.844	14.92
939.014	62
939.184	35.46
939.354	88.54
939.524	91.64
939.694	29.26
939.863	34.49
940.033	90.67
940.203	91.06
940.373	78.08
940.542	101.91
940.712	47.27
940.882	84.86
941.051	101.91
941.221	105.79
941.391	91.06
941.56	67.42
941.73	5.81
941.899	137.17
942.069	63.94
942.238	81.96
942.408	29.64
942.577	89.32
942.747	70.33
942.916	10.27
943.086	19.18
943.255	79.44
943.425	48.24
943.594	30.22
943.763	-13.95
943.933	-12.79
944.102	-28.29
944.271	36.62
944.441	55.99
944.61	34.87
944.779	42.43
944.948	112.18
945.117	21.12
945.287	25.38
945.456	-30.42
945.625	19.96
945.794	46.31
945.963	23.25
946.132	55.8
946.301	28.29
946.47	77.31
946.639	-19.96
946.808	23.44
946.977	41.07
947.146	84.67
947.315	8.52
947.484	65.68
947.653	24.41
947.822	14.53
947.991	29.45
948.16	135.24
948.329	49.41
948.498	42.04
948.666	39.72
948.835	76.34
949.004	-2.52
949.173	-13.76
949.341	34.29
949.51	68.01
949.679	116.64
949.847	90.29
950.016	113.92
950.185	103.46
950.353	27.51
950.522	38.36
950.69	74.01
950.859	17.63
951.028	66.26
951.196	43.4
951.365	19.76
951.533	67.04
951.701	84.86
951.87	79.63
952.038	-0.97
952.207	26.35
952.375	101.14
952.543	1.55
952.712	32.74
952.88	4.07
953.048	97.26
953.217	28.87
953.385	28.67
953.553	103.85
953.721	12.4
953.89	23.44
954.058	-0.58
954.226	18.02
954.394	49.41
954.562	-14.34
954.73	21.12
954.898	26.16
955.067	86.41
955.235	35.46
955.403	88.15
955.571	117.41
955.739	60.84
955.907	11.43
956.075	4.26
956.243	9.69
956.41	49.21
956.578	-13.95
956.746	-15.69
956.914	9.88
957.082	57.35
957.25	60.64
957.418	-0.39
957.585	39.52
957.753	85.25
957.921	5.81
958.089	45.92
958.256	51.15
958.424	63.74
958.592	64.13
958.759	13.76
958.927	80.79
959.095	18.02
959.262	47.47
959.43	48.82
959.597	-0.97
959.765	43.59
959.932	21.51
960.1	50.37
960.267	42.04
960.435	22.47
960.602	40.3
960.77	22.67
960.937	-4.84
961.104	43.4
961.272	-11.04
961.439	15.5
961.606	57.54
961.774	57.35
961.941	22.28
962.108	59.67
962.275	45.14
962.443	67.04
962.61	42.82
962.777	126.52
962.944	64.91
963.111	54.25
963.278	55.99
963.446	43.98
963.613	53.86
963.78	68.97
963.947	65.29
964.114	45.72
964.281	135.82
964.448	81.18
964.615	37.97
964.782	36.23
964.949	102.88
965.116	68.59
965.282	92.22
965.449	52.31
965.616	25.19
965.783	76.34
965.95	82.54
966.117	9.3
966.283	58.12
966.45	55.61
966.617	58.9
966.784	91.84
966.95	112.18
967.117	95.9
967.284	4.46
967.45	20.54
967.617	97.45
967.784	95.52
967.95	124.39
968.117	48.63
968.283	64.91
968.45	147.83
968.616	76.53
968.783	100.94
968.949	65.49
969.116	105.4
969.282	73.43
969.449	95.9
969.615	36.23
969.781	30.42
969.948	57.93
970.114	29.45
970.28	113.34
970.447	50.96
970.613	95.52
970.779	70.91
970.945	77.89
971.112	91.45
971.278	47.47
971.444	50.57
971.61	91.25
971.776	45.53
971.942	54.83
972.108	84.86
972.275	76.14
972.441	77.69
972.607	130.2
972.773	68.97
972.939	95.52
973.105	49.6
973.271	10.46
973.437	33.52
973.602	49.41
973.768	68.97
973.934	57.54
974.1	85.83
974.266	-4.65
974.432	62.39
974.598	50.76
974.763	122.06
974.929	31
975.095	104.62
975.261	32.16
975.426	19.18
975.592	32.36
975.758	122.84
975.923	-2.91
976.089	31.97
976.255	92.42
976.42	75.17
976.586	66.07
976.751	80.41
976.917	115.67
977.082	92.03
977.248	-10.85
977.413	6.39
977.579	59.48
977.744	75.37
977.91	30.81
978.075	25.19
978.24	71.3
978.406	28.48
978.571	33.52
978.736	16.86
978.902	83.12
979.067	15.11
979.232	9.69
979.397	61.03
979.563	107.92
979.728	26.16
979.893	37.59
980.058	24.8
980.223	64.91
980.388	52.51
980.554	67.42
980.719	24.99
980.884	26.35
981.049	94.35
981.214	41.66
981.379	49.6
981.544	44.76
981.709	46.89
981.874	54.25
982.039	23.83
982.204	70.14
982.368	75.56
982.533	18.41
982.698	96.1
982.863	94.55
983.028	45.53
983.193	49.6
983.357	73.24
983.522	53.86
983.687	43.79
983.852	47.08
984.016	35.65
984.181	62.19
984.346	49.79
984.51	68.2
984.675	48.44
984.839	94.35
985.004	43.59
985.168	90.87
985.333	66.65
985.498	50.18
985.662	74.98
985.827	49.41
985.991	45.92
986.155	22.28
986.32	60.26
986.484	105.59
986.649	45.92
986.813	1.36
986.977	63.36
987.142	70.52
987.306	45.14
987.47	18.6
987.634	26.93
987.799	46.5
987.963	39.72
988.127	88.93
988.291	95.71
988.455	70.72
988.62	43.4
988.784	74.79
988.948	82.15
989.112	14.92
989.276	60.64
989.44	24.02
989.604	27.32
989.768	21.51
989.932	114.89
990.096	5.62
990.26	7.17
990.424	-3.29
990.588	30.42
990.752	118.96
990.915	55.61
991.079	53.86
991.243	49.99
991.407	65.87
991.571	34.49
991.734	73.82
991.898	70.72
992.062	162.55
992.226	35.26
992.389	10.66
992.553	-1.16
992.717	27.9
992.88	32.94
993.044	49.02
993.207	38.56
993.371	75.76
993.535	54.25
993.698	43.98
993.862	55.22
994.025	98.62
994.189	69.17
994.352	54.64
994.515	57.54
994.679	67.42
994.842	51.73
995.006	78.27
995.169	14.53
995.332	14.34
995.496	75.95
995.659	-13.17
995.822	47.27
995.985	38.94
996.149	87.57
996.312	33.52
996.475	98.81
996.638	5.04
996.801	99.97
996.964	96.87
997.128	34.87
997.291	30.03
997.454	35.07
997.617	-17.44
997.78	85.44
997.943	17.44
998.106	66.84
998.269	10.85
998.432	19.76
998.595	45.72
998.758	-32.16
998.92	-12.01
999.083	-0.97
999.246	13.17
999.409	-14.53
999.572	-9.3
999.735	25.38
999.897	60.06
1000.06	-8.52
1000.223	9.11
1000.386	55.02
1000.548	66.46
1000.711	41.27
1000.874	50.76
1001.036	-9.3
1001.199	75.76
1001.361	41.27
1001.524	31.39
1001.687	70.52
1001.849	-3.49
1002.012	32.36
1002.174	16.66
1002.337	63.74
1002.499	19.18
1002.661	68.97
1002.824	-9.49
1002.986	11.62
1003.149	20.54
1003.311	13.17
1003.473	81.37
1003.636	7.56
1003.798	49.41
1003.96	34.68
1004.123	18.99
1004.285	20.34
1004.447	21.89
1004.609	38.36
1004.771	89.32
1004.933	-24.02
1005.096	7.17
1005.258	-22.47
1005.42	40.3
1005.582	48.82
1005.744	37.78
1005.906	4.26
1006.068	13.37
1006.23	4.84
1006.392	-36.23
1006.554	8.14
1006.716	59.48
1006.878	51.54
1007.04	-13.76
1007.202	-4.65
1007.363	12.01
1007.525	19.76
1007.687	62.39
1007.849	67.62
1008.011	-24.99
1008.172	-21.51
1008.334	-6.39
1008.496	32.55
1008.658	-41.85
1008.819	-6.2
1008.981	-15.69
1009.143	0
1009.304	0
1009.466	54.44
1009.627	74.4
1009.789	124.97
1009.95	41.85
1010.112	-21.31
1010.273	34.29
1010.435	-11.24
1010.596	21.7
1010.758	22.86
1010.919	-4.07
1011.081	-2.71
1011.242	14.92
1011.403	35.26
1011.565	3.1
1011.726	39.91
1011.887	-4.84
1012.049	19.37
1012.21	51.15
1012.371	75.95
1012.532	-53.09
1012.693	19.57
1012.855	6.01
1013.016	32.36
1013.177	55.22
1013.338	26.35
1013.499	63.94
1013.66	45.92
1013.821	43.59
1013.982	33.91
1014.143	29.26
1014.304	-6.59
1014.465	43.79
1014.626	57.93
1014.787	8.14
1014.948	104.62
1015.109	-53.67
1015.27	71.3
1015.431	6.59
1015.592	9.88
1015.752	89.32
1015.913	35.65
1016.074	40.11
1016.235	10.46
1016.395	3.87
1016.556	4.65
1016.717	27.71
1016.877	79.44
1017.038	-7.36
1017.199	23.06
1017.359	13.17
1017.52	18.21
1017.681	12.98
1017.841	16.27
1018.002	3.49
1018.162	-7.17
1018.323	63.36
1018.483	12.59
1018.644	9.11
1018.804	-24.61
1018.964	-32.36
1019.125	2.13
1019.285	18.99
1019.446	-20.34
1019.606	-9.49
1019.766	-34.1
1019.926	42.43
1020.087	37.2
1020.247	-5.42
1020.407	23.06
1020.567	39.72
1020.728	15.69
1020.888	-28.48
1021.048	-7.17
1021.208	-3.68
1021.368	-35.07
1021.528	61.03
1021.688	58.71
1021.848	52.31
1022.008	13.56
1022.168	21.51
1022.328	2.52
1022.488	36.62
1022.648	-8.33
1022.808	15.11
1022.968	50.57
1023.128	3.29
1023.288	-7.56
1023.448	19.18
1023.608	25.57
1023.767	47.86
1023.927	-21.12
1024.087	-19.76
1024.247	-32.94
1024.406	6.39
1024.566	2.52
1024.726	-37.78
1024.885	19.57
1025.045	34.68
1025.205	-9.49
1025.364	-10.85
1025.524	24.8
1025.683	-1.36
1025.843	21.7
1026.003	30.22
1026.162	68.78
1026.321	53.86
1026.481	8.33
1026.64	-21.12
1026.8	29.84
1026.959	5.23
1027.119	-4.65
1027.278	-16.08
1027.437	-2.52
1027.597	24.61
1027.756	24.41
1027.915	38.56
1028.074	29.45
1028.234	-19.37
1028.393	2.52
1028.552	-17.24
1028.711	-51.34
1028.87	29.84
1029.03	-29.84
1029.189	-6.01
1029.348	-41.27
1029.507	-18.02
1029.666	-14.14
1029.825	-8.72
1029.984	-15.11
1030.143	-1.36
1030.302	-7.94
1030.461	-56.77
1030.62	30.61
1030.779	13.56
1030.938	-11.04
1031.097	-33.32
1031.255	21.7
1031.414	54.83
1031.573	46.5
1031.732	-47.08
1031.891	7.17
1032.049	62.39
1032.208	-8.14
1032.367	-29.06
1032.525	0.39
1032.684	-4.84
1032.843	4.65
1033.001	-44.17
1033.16	162.55
1033.319	69.94
1033.477	36.04
1033.636	-42.82
1033.794	-41.27
1033.953	14.34
1034.111	29.84
1034.27	1.55
1034.428	19.96
1034.587	-35.46
1034.745	17.24
1034.903	-5.62
1035.062	20.73
1035.22	-32.94
1035.378	31.19
1035.537	-34.68
1035.695	19.76
1035.853	7.36
1036.011	28.48
1036.17	8.14
1036.328	-54.83
1036.486	18.79
1036.644	9.88
1036.802	-91.06
1036.96	-17.63
1037.119	-5.62
1037.277	-1.74
1037.435	-29.64
1037.593	-54.64
1037.751	-5.81
1037.909	36.81
1038.067	36.81
