Data from pine_FLMT105791__143__17-22-42-074.txt Node

Date: Mon Mar 20 17:22:42 GMT 2023
User: antho
Spectrometer: FLMT10579
Trigger mode: 0
Integration Time (sec): 1.000000E-1
Scans to average: 10
Electric dark correction enabled: true
Nonlinearity correction enabled: false
Boxcar width: 0
XAxis mode: Wavelengths
Number of Pixels in Spectrum: 3648
>>>>>Begin Spectral Data<<<<<
345.248	-147.15
345.464	-147.15
345.681	-147.15
345.898	-171.95
346.114	-164.2
346.331	-9.01
346.548	37.88
346.764	-8.43
346.981	-11.53
347.197	-38.85
347.414	28.38
347.631	1.84
347.847	34.2
348.064	4.75
348.28	24.12
348.497	-46.21
348.713	-17.15
348.93	29.55
349.146	20.44
349.363	6.49
349.579	-8.04
349.796	25.09
350.012	-0.29
350.229	27.42
350.445	6.1
350.661	-9.98
350.878	11.14
351.094	25.48
351.311	19.67
351.527	16.76
351.743	-36.13
351.96	28
352.176	45.05
352.392	23.15
352.609	25.48
352.825	-8.43
353.041	1.84
353.257	17.73
353.474	18.5
353.69	20.25
353.906	8.23
354.122	-26.25
354.339	81.47
354.555	-8.04
354.771	17.34
354.987	81.28
355.203	64.81
355.42	-14.24
355.636	6.3
355.852	-18.5
356.068	21.6
356.284	-29.55
356.5	57.06
356.716	9.2
356.932	-5.72
357.148	53.57
357.364	-8.62
357.58	38.46
357.796	31.48
358.012	51.25
358.228	33.23
358.444	-43.88
358.66	63.84
358.876	10.75
359.092	-1.84
359.308	41.17
359.524	22.77
359.74	16.18
359.956	-22.38
360.172	3.78
360.388	28.58
360.604	-6.1
360.819	84.38
361.035	4.17
361.251	39.23
361.467	3.58
361.683	34.78
361.898	15.98
362.114	32.65
362.33	15.6
362.546	55.9
362.762	1.07
362.977	-2.03
363.193	-28.38
363.409	19.28
363.624	-38.65
363.84	-20.63
364.056	-16.37
364.271	30.32
364.487	31.29
364.703	-13.47
364.918	-30.52
365.134	4.75
365.35	24.51
365.565	117.51
365.781	-2.62
365.996	13.66
366.212	56.48
366.427	32.26
366.643	-30.13
366.858	-31.29
367.074	-15.21
367.289	55.51
367.505	94.45
367.72	-45.43
367.936	16.18
368.151	41.95
368.367	13.85
368.582	17.92
368.798	-5.33
369.013	55.51
369.228	13.66
369.444	25.48
369.659	53.57
369.874	49.89
370.09	67.13
370.305	-40.59
370.52	-2.23
370.736	42.72
370.951	12.3
371.166	44.27
371.381	73.33
371.597	53.38
371.812	-8.23
372.027	-14.63
372.242	20.83
372.458	74.5
372.673	-1.65
372.888	5.33
373.103	17.53
373.318	97.16
373.533	21.41
373.749	22.77
373.964	-40.2
374.179	77.79
374.394	14.43
374.609	67.71
374.824	3.78
375.039	65.97
375.254	16.95
375.469	65.97
375.684	16.57
375.899	62.87
376.114	0.48
376.329	35.75
376.544	44.46
376.759	52.8
376.974	-3.78
377.189	-3.97
377.404	-0.48
377.619	39.23
377.834	-34
378.049	-22.77
378.264	-17.53
378.478	12.69
378.693	-28.77
378.908	16.57
379.123	4.55
379.338	79.73
379.553	31.48
379.767	34.2
379.982	66.36
380.197	40.98
380.412	22.38
380.626	31.68
380.841	92.32
381.056	35.55
381.271	77.79
381.485	1.65
381.7	-1.84
381.915	47.37
382.129	6.49
382.344	20.63
382.559	11.92
382.773	63.84
382.988	-14.43
383.202	40.59
383.417	-21.02
383.632	118.67
383.846	19.08
384.061	26.83
384.275	20.44
384.49	37.88
384.704	36.33
384.919	18.89
385.133	29.74
385.348	53.38
385.562	4.94
385.777	64.03
385.991	23.35
386.206	22.57
386.42	0.29
386.634	60.35
386.849	51.83
387.063	31.87
387.277	3
387.492	34.58
387.706	15.4
387.92	-20.05
388.135	47.37
388.349	29.74
388.563	25.09
388.778	14.24
388.992	51.83
389.206	65.39
389.42	85.15
389.635	47.37
389.849	45.05
390.063	66.75
390.277	8.62
390.491	93.29
390.706	20.05
390.92	49.89
391.134	39.04
391.348	62.68
391.562	-33.03
391.776	13.08
391.99	-43.69
392.205	71.98
392.419	0.29
392.633	16.95
392.847	53.18
393.061	27.22
393.275	101.81
393.489	23.54
393.703	28
393.917	47.37
394.131	31.1
394.345	37.49
394.559	39.43
394.773	9.59
394.986	52.41
395.2	36.72
395.414	78.95
395.628	4.17
395.842	17.92
396.056	14.43
396.27	-21.22
396.484	50.47
396.697	51.83
396.911	90.77
397.125	42.72
397.339	48.34
397.553	58.41
397.766	93.29
397.98	48.15
398.194	80.5
398.408	38.85
398.621	72.75
398.835	63.45
399.049	53.76
399.262	67.33
399.476	82.05
399.69	86.31
399.903	102.4
400.117	59.38
400.331	61.9
400.544	25.09
400.758	171.95
400.971	58.8
401.185	90.77
401.398	16.18
401.612	122.16
401.826	83.02
402.039	63.26
402.253	40.98
402.466	42.53
402.68	39.04
402.893	63.65
403.106	66.16
403.32	34
403.533	61.32
403.747	52.6
403.96	50.08
404.174	82.25
404.387	22.57
404.6	71.59
404.814	86.7
405.027	58.22
405.24	64.61
405.454	49.5
405.667	96.97
405.88	-5.52
406.094	56.67
406.307	70.43
406.52	56.28
406.733	13.47
406.947	12.69
407.16	118.09
407.373	104.53
407.586	33.62
407.799	31.1
408.012	77.98
408.226	84.96
408.439	95.03
408.652	20.05
408.865	85.35
409.078	79.34
409.291	75.08
409.504	26.64
409.717	78.37
409.93	76.43
410.143	64.42
410.357	-0.29
410.57	31.1
410.783	58.8
410.996	58.41
411.209	72.36
411.421	90.19
411.634	61.32
411.847	4.55
412.06	62.87
412.273	102.01
412.486	79.73
412.699	135.91
412.912	61.9
413.125	90
413.338	61.9
413.55	110.53
413.763	75.08
413.976	100.85
414.189	49.11
414.402	42.53
414.615	92.13
414.827	44.46
415.04	101.23
415.253	103.56
415.466	84.38
415.678	155.68
415.891	61.51
416.104	68.68
416.316	79.34
416.529	62.48
416.742	80.5
416.954	131.07
417.167	59.38
417.38	62.68
417.592	113.44
417.805	49.11
418.017	21.8
418.23	119.64
418.442	49.5
418.655	63.06
418.868	102.59
419.08	118.67
419.293	98.33
419.505	101.23
419.718	70.43
419.93	125.06
420.142	68.3
420.355	130.49
420.567	104.14
420.78	111.89
420.992	79.92
421.205	166.53
421.417	39.82
421.629	43.69
421.842	63.65
422.054	29.93
422.266	139.79
422.479	112.66
422.691	61.9
422.903	108.98
423.115	60.55
423.328	64.23
423.54	115.57
423.752	91.35
423.964	64.81
424.177	111.5
424.389	71.59
424.601	186.87
424.813	110.92
425.025	145.02
425.238	109.37
425.45	80.5
425.662	59.58
425.874	384.49
426.086	95.81
426.298	136.69
426.51	111.5
426.722	111.11
426.934	53.96
427.146	144.05
427.358	80.11
427.57	150.25
427.782	118.86
427.994	96.2
428.206	86.12
428.418	61.51
428.63	119.25
428.842	169.24
429.054	117.51
429.266	129.52
429.478	56.48
429.69	108.4
429.902	56.67
430.114	126.23
430.325	120.8
430.537	61.32
430.749	104.53
430.961	53.96
431.173	117.31
431.384	114.6
431.596	27.8
431.808	75.27
432.02	98.52
432.231	132.81
432.443	176.79
432.655	132.81
432.867	64.61
433.078	141.53
433.29	166.14
433.502	146.76
433.713	163.81
433.925	143.28
434.136	165.56
434.348	87.86
434.56	82.63
434.771	202.37
434.983	100.46
435.194	97.75
435.406	110.92
435.617	137.08
435.829	191.71
436.04	156.26
436.252	161.1
436.463	172.73
436.675	187.45
436.886	137.27
437.098	158.19
437.309	197.14
437.521	143.86
437.732	152.38
437.943	142.69
438.155	115.96
438.366	105.69
438.578	207.79
438.789	168.08
439	183.38
439.211	151.03
439.423	174.08
439.634	180.86
439.845	198.11
440.057	160.52
440.268	181.64
440.479	174.28
440.69	168.27
440.902	184.93
441.113	175.63
441.324	166.53
441.535	195.2
441.746	231.24
441.957	124.87
442.168	146.57
442.38	195.39
442.591	208.76
442.802	131.84
443.013	142.11
443.224	163.23
443.435	134.75
443.646	153.35
443.857	176.21
444.068	174.28
444.279	154.51
444.49	241.7
444.701	181.83
444.912	245.77
445.123	206.44
445.334	183.38
445.545	206.83
445.756	186.68
445.967	171.95
446.178	171.18
446.388	215.35
446.599	227.75
446.81	191.71
447.021	172.73
447.232	227.36
447.443	215.54
447.653	184.74
447.864	249.06
448.075	210.7
448.286	252.74
448.496	216.13
448.707	242.28
448.918	208.57
449.129	306.99
449.339	165.75
449.55	207.99
449.761	206.24
449.971	246.54
450.182	206.44
450.393	226.78
450.603	202.56
450.814	256.62
451.024	237.63
451.235	263.21
451.446	304.28
451.656	298.47
451.867	217.09
452.077	226.97
452.288	278.32
452.498	277.16
452.709	232.4
452.919	235.89
453.13	224.07
453.34	269.6
453.55	170.59
453.761	240.15
453.971	254.1
454.182	265.72
454.392	253.13
454.602	278.9
454.813	270.96
455.023	275.61
455.233	221.94
455.444	230.85
455.654	201.21
455.864	239.76
456.075	226.78
456.285	199.27
456.495	257.78
456.705	270.76
456.916	291.49
457.126	290.33
457.336	244.99
457.546	202.18
457.756	217.48
457.967	299.24
458.177	242.86
458.387	271.15
458.597	224.46
458.807	258.36
459.017	218.84
459.227	231.82
459.437	224.65
459.647	284.91
459.857	287.23
460.068	225.04
460.278	321.33
460.488	250.42
460.698	304.09
460.908	262.43
461.117	189
461.327	240.54
461.537	276.77
461.747	261.27
461.957	267.27
462.167	356.01
462.377	309.32
462.587	277.54
462.797	277.54
463.007	289.36
463.216	286.84
463.426	320.55
463.636	286.84
463.846	254.29
464.056	281.03
464.265	340.12
464.475	239.18
464.685	270.57
464.895	298.47
465.104	255.84
465.314	315.52
465.524	270.18
465.733	245.96
465.943	324.04
466.153	329.85
466.362	284.71
466.572	290.33
466.782	278.12
466.991	292.66
467.201	364.92
467.41	262.62
467.62	312.22
467.829	298.08
468.039	318.23
468.249	303.7
468.458	276.77
468.668	332.18
468.877	325.4
469.086	342.25
469.296	334.89
469.505	291.3
469.715	356.59
469.924	308.93
470.134	354.27
470.343	362.21
470.552	290.72
470.762	304.28
470.971	274.44
471.18	321.72
471.39	310.29
471.599	283.55
471.808	364.15
472.018	291.11
472.227	348.26
472.436	337.02
472.645	318.42
472.855	301.18
473.064	356.98
473.273	337.22
473.482	342.25
473.691	347.29
473.901	379.84
474.11	353.49
474.319	411.62
474.528	345.74
474.737	390.89
474.946	368.02
475.155	387.98
475.364	381.78
475.573	395.15
475.783	378.68
475.992	410.26
476.201	413.36
476.41	350.2
476.619	340.9
476.828	384.88
477.037	359.3
477.245	368.8
477.454	386.62
477.663	397.08
477.872	361.82
478.081	471.29
478.29	369.38
478.499	476.72
478.708	388.37
478.917	483.3
479.125	416.27
479.334	445.13
479.543	396.31
479.752	401.93
479.961	424.6
480.169	437.19
480.378	399.22
480.587	514.5
480.796	468.19
481.004	437.38
481.213	433.7
481.422	472.26
481.63	423.05
481.839	442.23
482.048	481.56
482.256	468.77
482.465	456.95
482.674	469.55
482.882	471.1
483.091	531.55
483.299	462.77
483.508	484.46
483.716	482.91
483.925	498.61
484.134	454.05
484.342	457.34
484.551	525.93
484.759	513.33
484.967	481.75
485.176	499.19
485.384	533.29
485.593	515.66
485.801	507.91
486.01	497.83
486.218	455.02
486.426	429.83
486.635	457.34
486.843	417.04
487.051	459.67
487.26	437.97
487.468	493.76
487.676	489.7
487.885	483.11
488.093	476.13
488.301	494.35
488.509	530
488.717	553.25
488.926	511.59
489.134	492.41
489.342	498.41
489.55	491.05
489.758	527.86
489.967	491.63
490.175	610.98
490.383	522.25
490.591	578.43
490.799	489.31
491.007	585.41
491.215	570.29
491.423	513.14
491.631	547.63
491.839	546.85
492.047	610.4
492.255	519.53
492.463	465.28
492.671	540.46
492.879	586.38
493.087	548.01
493.295	553.83
493.503	574.17
493.711	606.14
493.919	601.68
494.127	586.76
494.334	613.31
494.542	544.72
494.75	565.26
494.958	588.51
495.166	631.71
495.374	622.03
495.581	620.09
495.789	610.01
495.997	623.77
496.205	594.32
496.412	577.27
496.62	600.33
496.828	618.73
497.035	597.42
497.243	645.08
497.451	614.86
497.658	648.96
497.866	600.13
498.074	703.21
498.281	592.58
498.489	700.88
498.696	610.98
498.904	605.56
499.112	643.34
499.319	676.47
499.527	634.43
499.734	638.11
499.942	595.87
500.149	625.71
500.357	628.23
500.564	602.07
500.771	642.76
500.979	588.51
501.186	613.31
501.394	622.03
501.601	636.75
501.808	676.08
502.016	616.99
502.223	618.15
502.43	646.44
502.638	607.3
502.845	598.19
503.052	683.25
503.26	613.89
503.467	712.89
503.674	647.02
503.881	684.02
504.089	746.22
504.296	719.09
504.503	648.38
504.71	661.74
504.917	622.99
505.125	684.02
505.332	637.53
505.539	684.22
505.746	726.65
505.953	722.58
506.16	714.83
506.367	735.95
506.574	757.26
506.781	747.57
506.988	698.17
507.195	720.84
507.402	690.81
507.609	744.47
507.816	675.11
508.023	694.87
508.23	705.53
508.437	668.91
508.644	764.62
508.851	799.11
509.058	748.35
509.265	736.34
509.472	764.24
509.679	832.82
509.885	718.71
510.092	751.06
510.299	745.25
510.506	779.93
510.713	723.94
510.92	747.57
511.126	766.37
511.333	795.82
511.54	800.85
511.746	806.09
511.953	811.7
512.16	830.69
512.367	771.6
512.573	795.04
512.78	789.23
512.987	782.84
513.193	794.07
513.4	723.74
513.606	775.86
513.813	802.99
514.02	806.47
514.226	860.33
514.433	872.93
514.639	741.37
514.846	787.87
515.052	763.46
515.259	796.01
515.465	830.11
515.672	811.9
515.878	895.79
516.085	802.4
516.291	851.23
516.497	792.14
516.704	807.64
516.91	777.02
517.117	751.45
517.323	704.56
517.529	766.17
517.736	783.42
517.942	760.36
518.148	774.31
518.354	807.64
518.561	797.37
518.767	796.01
518.973	845.42
519.179	843.67
519.386	810.35
519.592	798.14
519.798	816.55
520.004	921.17
520.21	889.4
520.417	908.97
520.623	925.24
520.829	918.26
521.035	891.92
521.241	896.18
521.447	945
521.653	1046.72
521.859	902.57
522.065	944.42
522.271	1007.39
522.477	951.4
522.683	1025.79
522.889	955.85
523.095	962.05
523.301	935.51
523.507	922.91
523.713	973.29
523.919	899.86
524.125	1000.61
524.331	969.61
524.537	1030.06
524.742	1014.36
524.948	1051.95
525.154	1043.81
525.36	1110.85
525.566	1008.74
525.772	1085.47
525.977	971.16
526.183	1020.56
526.389	1022.11
526.595	984.91
526.8	1008.94
527.006	957.21
527.212	939.38
527.417	916.91
527.623	932.21
527.829	1000.22
528.034	1024.24
528.24	994.8
528.446	997.9
528.651	1065.9
528.857	1060.09
529.062	1121.12
529.268	1072.1
529.473	1050.4
529.679	1082.95
529.884	1147.08
530.09	1108.52
530.295	1140.3
530.501	1127.12
530.706	1117.44
530.912	1098.06
531.117	1119.76
531.323	1092.44
531.528	1121.31
531.733	1157.35
531.939	1082.95
532.144	1138.75
532.35	1086.63
532.555	1166.46
532.76	1154.64
532.966	1133.52
533.171	1103.87
533.376	1089.15
533.581	1076.94
533.787	1093.99
533.992	1141.27
534.197	1148.82
534.402	1115.11
534.607	1127.32
534.813	1210.63
535.018	1147.27
535.223	1129.64
535.428	1157.54
535.633	1214.5
535.838	1149.21
536.043	1175.76
536.249	1240.08
536.454	1182.92
536.659	1204.04
536.864	1124.8
537.069	1133.71
537.274	1181.57
537.479	1212.95
537.684	1198.42
537.889	1166.07
538.094	1280.38
538.299	1217.02
538.504	1212.37
538.708	1215.47
538.913	1214.7
539.118	1224.58
539.323	1270.11
539.528	1185.44
539.733	1196.29
539.938	1217.22
540.142	1216.25
540.347	1215.86
540.552	1156.38
540.757	1189.7
540.962	1194.35
541.166	1153.28
541.371	1134.49
541.576	1196.29
541.781	1115.31
541.985	1218.57
542.19	1219.15
542.395	1251.32
542.599	1271.85
542.804	1255.58
543.008	1282.12
543.213	1199.59
543.418	1195.13
543.622	1230.2
543.827	1180.02
544.031	1289.48
544.236	1273.4
544.44	1256.55
544.645	1281.73
544.849	1231.36
545.054	1268.75
545.258	1322.81
545.463	1312.73
545.667	1210.63
545.872	1252.29
546.076	1273.79
546.281	1219.54
546.485	1247.44
546.689	1295.1
546.894	1263.33
547.098	1271.27
547.302	1203.27
547.507	1261.97
547.711	1263.91
547.915	1311.77
548.119	1228.07
548.324	1234.46
548.528	1295.68
548.732	1273.6
548.936	1311.96
549.141	1279.22
549.345	1269.33
549.549	1289.87
549.753	1271.47
549.957	1364.85
550.161	1330.37
550.366	1278.05
550.57	1272.05
550.774	1280.38
550.978	1280.57
551.182	1276.89
551.386	1274.57
551.59	1260.42
551.794	1259.07
551.998	1320.87
552.202	1300.92
552.406	1257.9
552.61	1306.15
552.814	1348.97
553.018	1355.75
553.222	1275.53
553.426	1253.64
553.63	1358.46
553.833	1242.4
554.037	1228.45
554.241	1281.15
554.445	1313.9
554.649	1289.48
554.853	1255.58
555.056	1323.2
555.26	1358.26
555.464	1287.16
555.668	1302.27
555.871	1307.12
556.075	1336.18
556.279	1270.69
556.483	1226.71
556.686	1259.26
556.89	1258.68
557.094	1297.43
557.297	1224.19
557.501	1303.05
557.704	1216.05
557.908	1331.53
558.112	1228.84
558.315	1304.98
558.519	1269.92
558.722	1256.16
558.926	1234.46
559.129	1167.04
559.333	1150.18
559.536	1189.7
559.74	1175.56
559.943	1203.85
560.147	1199.39
560.35	1207.53
560.553	1220.12
560.757	1156.96
560.96	1238.34
561.164	1170.14
561.367	1263.72
561.57	1236.01
561.774	1217.02
561.977	1179.44
562.18	1199.39
562.384	1308.28
562.587	1218.57
562.79	1157.35
562.993	1181.95
563.197	1235.24
563.4	1274.57
563.603	1259.65
563.806	1268.17
564.009	1175.95
564.212	1211.79
564.416	1143.01
564.619	1228.45
564.822	1121.31
565.025	1229.62
565.228	1198.04
565.431	1176.72
565.634	1084.31
565.837	1149.99
566.04	1181.57
566.243	1187.77
566.446	1081.01
566.649	1175.56
566.852	1124.8
567.055	1153.28
567.258	1172.85
567.461	1209.85
567.664	1199.39
567.867	1084.11
568.07	1178.27
568.273	1175.37
568.475	1210.44
568.678	1136.04
568.881	1137.39
569.084	1155.41
569.287	1077.14
569.489	1095.35
569.692	1143.4
569.895	1157.93
570.098	1068.03
570.3	1051.37
570.503	1021.34
570.706	1049.04
570.909	1048.66
571.111	1019.01
571.314	1028.31
571.516	1024.05
571.719	1072.68
571.922	1036.45
572.124	1034.32
572.327	1057.18
572.529	994.21
572.732	995.57
572.935	1033.93
573.137	1085.86
573.34	1033.54
573.542	1073.07
573.745	1075.01
573.947	1047.3
574.15	1049.82
574.352	989.56
574.554	1045.36
574.757	1010.1
574.959	994.21
575.162	995.57
575.364	1027.34
575.566	1089.34
575.769	978.71
575.971	1017.85
576.173	933.76
576.376	1001.38
576.578	1019.4
576.78	1087.02
576.982	960.31
577.185	998.28
577.387	942.87
577.589	943.84
577.791	1035.87
577.993	1026.57
578.196	965.35
578.398	1019.01
578.6	1005.26
578.802	905.48
579.004	948.68
579.206	939.19
579.408	974.65
579.61	928.73
579.812	985.3
580.014	948.49
580.216	960.89
580.418	977.16
580.62	943.84
580.822	945.39
581.024	959.53
581.226	987.24
581.428	924.66
581.63	1035.29
581.832	949.85
582.034	1023.66
582.236	983.17
582.438	1034.32
582.64	1039.55
582.841	1031.03
583.043	1091.67
583.245	991.5
583.447	1038.39
583.649	989.18
583.85	976.78
584.052	1000.8
584.254	957.98
584.456	1009.71
584.657	960.31
584.859	1012.62
585.061	967.67
585.262	970.38
585.464	925.63
585.666	994.41
585.867	953.91
586.069	1005.45
586.27	965.15
586.472	981.43
586.674	962.83
586.875	948.68
587.077	951.4
587.278	972.9
587.48	956.05
587.681	1056.02
587.883	965.35
588.084	901.6
588.285	963.02
588.487	913.42
588.688	958.18
588.89	885.13
589.091	847.35
589.292	869.25
589.494	887.65
589.695	871.18
589.896	795.04
590.098	773.92
590.299	879.9
590.5	818.87
590.702	853.17
590.903	849.87
591.104	919.23
591.305	867.12
591.507	923.3
591.708	897.53
591.909	865.76
592.11	932.8
592.311	905.87
592.512	900.83
592.714	839.02
592.915	833.21
593.116	875.83
593.317	885.13
593.518	879.52
593.719	850.07
593.92	907.42
594.121	959.34
594.322	850.45
594.523	884.17
594.724	836.5
594.925	839.6
595.126	854.72
595.327	880.68
595.528	903.73
595.729	864.98
595.929	847.35
596.13	865.76
596.331	891.53
596.532	876.8
596.733	918.65
596.934	896.95
597.135	895.21
597.335	909.35
597.536	853.17
597.737	891.72
597.938	856.65
598.138	889.59
598.339	881.07
598.54	895.6
598.74	847.16
598.941	865.76
599.142	936.28
599.342	883.97
599.543	844.45
599.744	853.36
599.944	859.37
600.145	888.04
600.345	877.77
600.546	943.65
600.746	932.99
600.947	932.41
601.147	886.49
601.348	910.32
601.548	839.22
601.749	859.95
601.949	848.71
602.15	846
602.35	904.51
602.551	917.68
602.751	838.83
602.951	859.37
603.152	771.79
603.352	868.67
603.552	883.97
603.753	906.83
603.953	886.3
604.153	882.81
604.354	867.12
604.554	852.39
604.754	880.48
604.954	834.95
605.155	861.5
605.355	859.17
605.555	912.45
605.755	936.48
605.955	888.82
606.155	873.32
606.356	873.12
606.556	908.19
606.756	880.48
606.956	845.61
607.156	901.22
607.356	850.07
607.556	869.83
607.756	877
607.956	912.84
608.156	874.87
608.356	834.95
608.556	864.98
608.756	853.55
608.956	836.12
609.156	858.01
609.356	827.4
609.556	822.17
609.755	850.65
609.955	817.32
610.155	850.07
610.355	883
610.555	804.92
610.755	838.83
610.954	808.41
611.154	828.75
611.354	863.82
611.554	803.76
611.753	814.8
611.953	765.98
612.153	864.4
612.352	852.58
612.552	790.59
612.752	762.1
612.951	826.04
613.151	812.29
613.351	779.74
613.55	816.16
613.75	821.39
613.949	825.46
614.149	799.5
614.348	801.05
614.548	793.3
614.747	717.93
614.947	753.39
615.146	735.17
615.346	821.39
615.545	796.98
615.745	816.35
615.944	823.52
616.144	813.45
616.343	801.24
616.542	759.78
616.742	755.9
616.941	761.72
617.14	713.47
617.34	771.79
617.539	774.7
617.738	734.59
617.938	821.39
618.137	745.44
618.336	716.19
618.535	784
618.734	754.74
618.934	752.22
619.133	786.9
619.332	793.3
619.531	749.51
619.73	776.64
619.929	798.92
620.128	788.45
620.328	806.67
620.527	723.36
620.726	776.64
620.925	791.94
621.124	769.08
621.323	789.42
621.522	715.61
621.721	716.19
621.92	719.48
622.119	765.98
622.318	703.79
622.517	758.62
622.715	742.73
622.914	705.92
623.113	758.04
623.312	700.3
623.511	750.48
623.71	724.52
623.909	730.91
624.107	792.33
624.306	683.83
624.505	710.18
624.704	706.31
624.902	716.19
625.101	758.23
625.3	720.45
625.499	686.74
625.697	716.19
625.896	699.52
626.095	715.61
626.293	653.61
626.492	670.85
626.69	726.65
626.889	695.26
627.088	737.5
627.286	660.58
627.485	666.78
627.683	696.23
627.882	699.91
628.08	606.72
628.279	651.09
628.477	716.57
628.676	664.26
628.874	688.09
629.073	637.14
629.271	636.94
629.469	683.25
629.668	662.13
629.866	668.91
630.065	650.12
630.263	677.82
630.461	649.73
630.66	700.49
630.858	719.67
631.056	704.76
631.254	715.61
631.453	675.5
631.651	699.72
631.849	699.33
632.047	702.43
632.245	666.01
632.444	704.17
632.642	696.23
632.84	713.47
633.038	672.21
633.236	619.12
633.434	661.94
633.632	647.41
633.83	656.32
634.028	734.59
634.227	664.07
634.425	742.73
634.623	680.73
634.821	717.16
635.019	653.41
635.216	662.71
635.414	686.35
635.612	697.2
635.81	677.05
636.008	740.21
636.206	658.84
636.404	712.51
636.602	634.43
636.8	652.83
636.997	710.76
637.195	719.87
637.393	687.32
637.591	751.45
637.789	685.57
637.986	678.99
638.184	698.75
638.382	715.99
638.58	736.72
638.777	727.42
638.975	694.87
639.173	694.49
639.37	693.52
639.568	720.64
639.765	715.99
639.963	654.96
640.161	742.15
640.358	679.37
640.556	677.44
640.753	639.66
640.951	646.44
641.148	674.53
641.346	652.44
641.543	650.12
641.741	697.97
641.938	631.33
642.136	643.14
642.333	612.53
642.531	694.1
642.728	690.03
642.925	646.05
643.123	646.44
643.32	663.68
643.517	657.67
643.715	682.28
643.912	626.48
644.109	654.77
644.306	643.53
644.504	612.92
644.701	651.67
644.898	666.97
645.095	627.26
645.293	656.51
645.49	659.42
645.687	656.51
645.884	669.11
646.081	571.84
646.278	590.83
646.475	610.79
646.672	624.93
646.87	655.35
647.067	634.81
647.264	621.06
647.461	568.16
647.658	550.73
647.855	649.54
648.052	597.81
648.249	530.19
648.446	615.63
648.642	576.69
648.839	586.38
649.036	572.81
649.233	546.27
649.43	564.29
649.627	531.55
649.824	574.17
650.021	551.31
650.217	563.71
650.414	564.29
650.611	553.63
650.808	575.72
651.004	586.38
651.201	610.59
651.398	627.45
651.595	579.79
651.791	564.68
651.988	603.43
652.185	570.68
652.381	603.62
652.578	525.15
652.775	577.27
652.971	595.48
653.168	586.76
653.364	601.29
653.561	518.37
653.757	583.28
653.954	575.72
654.15	542.98
654.347	617.57
654.543	589.48
654.74	495.12
654.936	527.86
655.133	544.91
655.329	561.58
655.525	553.83
655.722	588.51
655.918	499.96
656.115	590.44
656.311	479.04
656.507	485.82
656.704	447.46
656.9	479.04
657.096	484.85
657.292	465.48
657.489	565.84
657.685	547.63
657.881	512.75
658.077	475.55
658.273	498.41
658.47	601.29
658.666	515.66
658.862	561
659.058	499.77
659.254	559.83
659.45	507.71
659.646	534.26
659.842	546.08
660.038	574.94
660.234	487.56
660.43	533.87
660.626	585.02
660.822	580.37
661.018	564.29
661.214	556.54
661.41	502.48
661.606	562.55
661.802	564.29
661.998	542.59
662.194	520.5
662.39	532.51
662.586	525.15
662.781	569.52
662.977	565.65
663.173	565.26
663.369	561.58
663.564	558.09
663.76	560.61
663.956	506.94
664.152	574.56
664.347	489.31
664.543	510.23
664.739	525.73
664.934	489.5
665.13	462.57
665.326	555.57
665.521	536.2
665.717	495.7
665.912	488.53
666.108	460.83
666.304	494.73
666.499	489.31
666.695	453.85
666.89	520.11
667.086	536.97
667.281	523.02
667.477	570.29
667.672	507.52
667.867	511.01
668.063	524.38
668.258	489.11
668.454	492.41
668.649	573.98
668.844	503.26
669.04	529.8
669.235	523.41
669.43	500.35
669.626	465.48
669.821	489.7
670.016	465.28
670.211	498.8
670.407	456.76
670.602	459.08
670.797	489.5
670.992	528.64
671.187	471.48
671.382	496.86
671.578	471.87
671.773	504.81
671.968	474
672.163	492.6
672.358	523.41
672.553	456.76
672.748	490.66
672.943	518.18
673.138	485.05
673.333	490.86
673.528	468
673.723	494.35
673.918	461.22
674.113	447.27
674.308	550.15
674.503	491.05
674.698	498.8
674.892	492.21
675.087	511.98
675.282	493.57
675.477	460.83
675.672	494.54
675.867	454.82
676.061	443.39
676.256	426.34
676.451	501.32
676.646	479.04
676.84	437
677.035	437.58
677.23	454.05
677.424	481.75
677.619	505.58
677.814	540.85
678.008	520.5
678.203	421.11
678.397	454.82
678.592	479.82
678.787	495.7
678.981	451.92
679.176	484.66
679.37	473.23
679.565	435.83
679.759	455.4
679.954	472.07
680.148	504.61
680.342	512.75
680.537	490.28
680.731	455.02
680.926	502.29
681.12	503.26
681.314	419.95
681.509	452.5
681.703	457.53
681.897	483.11
682.092	443.39
682.286	460.05
682.48	539.49
682.674	529.8
682.869	441.45
683.063	475.36
683.257	520.31
683.451	399.8
683.645	508.1
683.839	464.9
684.034	475.75
684.228	494.54
684.422	432.35
684.616	431.38
684.81	479.04
685.004	441.45
685.198	470.13
685.392	494.35
685.586	417.23
685.78	477.68
685.974	530.19
686.168	489.89
686.362	515.27
686.556	435.83
686.75	417.23
686.944	408.52
687.138	460.44
687.331	333.54
687.525	382.36
687.719	335.47
687.913	392.44
688.107	370.15
688.301	371.32
688.494	404.25
688.688	368.22
688.882	321.14
689.076	322.49
689.269	368.8
689.463	456.57
689.657	363.37
689.85	381.59
690.044	389.34
690.238	397.86
690.431	388.56
690.625	388.37
690.818	428.08
691.012	421.5
691.205	451.72
691.399	389.72
691.593	440.29
691.786	493.96
691.98	458.31
692.173	534.45
692.366	443.97
692.56	471.48
692.753	533.48
692.947	452.3
693.14	551.31
693.333	524.76
693.527	472.26
693.72	539.3
693.914	501.71
694.107	496.09
694.3	523.02
694.493	517.01
694.687	501.51
694.88	474.97
695.073	538.33
695.266	540.26
695.46	523.02
695.653	599.16
695.846	566.81
696.039	520.11
696.232	515.85
696.425	589.86
696.618	577.08
696.812	565.84
697.005	624.16
697.198	700.49
697.391	645.28
697.584	653.22
697.777	684.61
697.97	671.62
698.163	641.98
698.356	680.73
698.549	740.6
698.742	681.12
698.935	654.96
699.127	703.79
699.32	662.32
699.513	644.5
699.706	723.94
699.899	740.21
700.092	689.26
700.285	732.66
700.477	692.94
700.67	724.13
700.863	742.92
701.056	802.6
701.248	774.5
701.441	757.84
701.634	733.62
701.826	838.25
702.019	747.57
702.212	805.7
702.404	774.7
702.597	756.1
702.79	781.67
702.982	807.25
703.175	840.38
703.367	831.66
703.56	831.85
703.752	935.9
703.945	873.51
704.137	881.65
704.33	894.63
704.522	910.9
704.715	919.62
704.907	930.08
705.1	926.4
705.292	955.66
705.484	934.35
705.677	945
705.869	976.2
706.061	1036.06
706.254	1006.23
706.446	1032.77
706.638	1014.56
706.831	1049.43
707.023	1022.69
707.215	1129.64
707.407	1072.88
707.599	1088.18
707.792	1109.3
707.984	1071.71
708.176	1135.84
708.368	1084.5
708.56	1162.77
708.752	1105.04
708.944	1118.41
709.136	1124.41
709.329	1117.24
709.521	1216.05
709.713	1175.76
709.905	1180.02
710.097	1195.9
710.289	1212.76
710.481	1205.98
710.672	1210.24
710.864	1226.71
711.056	1259.26
711.248	1264.49
711.44	1238.14
711.632	1244.15
711.824	1261.78
712.016	1289.1
712.207	1323
712.399	1294.72
712.591	1347.42
712.783	1315.64
712.975	1353.42
713.166	1338.31
713.358	1306.73
713.55	1397.6
713.741	1366.01
713.933	1361.95
714.125	1383.06
714.316	1381.13
714.508	1421.23
714.7	1421.81
714.891	1410.58
715.083	1487.3
715.274	1398.76
715.466	1427.63
715.657	1485.94
715.849	1369.89
716.04	1423.36
716.232	1360.78
716.423	1474.32
716.615	1376.48
716.806	1356.13
716.998	1361.75
717.189	1296.85
717.381	1210.05
717.572	1197.45
717.763	1283.87
717.955	1215.09
718.146	1210.05
718.337	1165.1
718.528	1154.83
718.72	1062.22
718.911	1159.09
719.102	1107.17
719.293	1168.59
719.485	1140.3
719.676	1106.78
719.867	1105.04
720.058	1124.02
720.249	1096.32
720.44	1128.87
720.632	1179.82
720.823	1209.08
721.014	1314.48
721.205	1267.01
721.396	1322.81
721.587	1417.55
721.778	1425.3
721.969	1470.06
722.16	1478.39
722.351	1504.93
722.542	1580.88
722.733	1593.67
722.924	1496.79
723.115	1577.39
723.305	1568.29
723.496	1575.84
723.687	1496.79
723.878	1498.93
724.069	1465.6
724.26	1511.71
724.45	1440.03
724.641	1416.2
724.832	1449.71
725.023	1463.28
725.213	1455.91
725.404	1404.76
725.595	1437.9
725.785	1427.63
725.976	1468.51
726.167	1481.88
726.357	1465.6
726.548	1587.08
726.739	1486.53
726.929	1539.42
727.12	1567.51
727.31	1567.12
727.501	1511.13
727.691	1545.42
727.882	1547.75
728.072	1591.15
728.263	1589.02
728.453	1606.07
728.644	1586.89
728.834	1607.62
729.024	1596.96
729.215	1567.51
729.405	1620.4
729.596	1656.25
729.786	1695.19
729.976	1663.61
730.167	1668.07
730.357	1617.3
730.547	1651.21
730.737	1695.39
730.928	1708.95
731.118	1730.07
731.308	1664.58
731.498	1695.39
731.688	1794.2
731.879	1758.55
732.069	1827.13
732.259	1816.09
732.449	1804.46
732.639	1894.75
732.829	1896.49
733.019	1931.37
733.209	1974.96
733.399	1953.07
733.589	2048.78
733.779	2013.52
733.969	2019.14
734.159	2069.51
734.349	2105.55
734.539	2134.42
734.729	2112.33
734.919	2166.77
735.109	2175.3
735.299	2130.74
735.488	2165.61
735.678	2204.17
735.868	2155.53
736.058	2174.13
736.248	2131.32
736.437	2139.65
736.627	2091.6
736.817	2181.88
737.007	2155.15
737.196	2210.95
737.386	2163.48
737.576	2167.74
737.765	2215.4
737.955	2220.25
738.144	2302.01
738.334	2261.71
738.524	2196.61
738.713	2230.71
738.903	2219.47
739.092	2258.8
739.282	2266.75
739.471	2267.13
739.661	2227.03
739.85	2302.01
740.04	2310.73
740.229	2314.21
740.419	2336.3
740.608	2306.85
740.797	2361.88
740.987	2391.52
741.176	2374.28
741.365	2314.6
741.555	2309.76
741.744	2343.86
741.933	2399.27
742.123	2388.03
742.312	2381.44
742.501	2422.91
742.69	2415.74
742.88	2283.6
743.069	2420.77
743.258	2334.17
743.447	2471.15
743.636	2432.4
743.825	2400.24
744.014	2379.7
744.204	2424.46
744.393	2420.39
744.582	2441.89
744.771	2514.94
744.96	2431.62
745.149	2454.29
745.338	2392.1
745.527	2444.41
745.716	2414.19
745.905	2401.21
746.094	2473.28
746.283	2457.59
746.471	2438.99
746.66	2511.45
746.849	2437.63
747.038	2526.75
747.227	2484.13
747.416	2483.36
747.604	2441.31
747.793	2439.76
747.982	2483.74
748.171	2446.74
748.359	2474.44
748.548	2443.64
748.737	2472.89
748.926	2448.87
749.114	2368.46
749.303	2449.84
749.491	2455.26
749.68	2383.19
749.869	2462.82
750.057	2431.43
750.246	2405.08
750.434	2395.2
750.623	2438.79
750.811	2404.69
751	2439.18
751.188	2400.04
751.377	2415.93
751.565	2403.34
751.754	2393.84
751.942	2404.31
752.131	2486.26
752.319	2376.21
752.507	2355.09
752.696	2434.53
752.884	2462.43
753.072	2429.3
753.261	2412.25
753.449	2419.42
753.637	2357.42
753.825	2466.11
754.014	2395.39
754.202	2396.56
754.39	2424.07
754.578	2405.47
754.766	2375.05
754.955	2374.66
755.143	2427.17
755.331	2356.84
755.519	2393.65
755.707	2360.91
755.895	2378.54
756.083	2364.59
756.271	2337.46
756.459	2327.97
756.647	2376.99
756.835	2362.84
757.023	2348.12
757.211	2330.68
757.399	2332.23
757.587	2354.51
757.775	2267.13
757.963	2313.83
758.151	2309.95
758.339	2291.35
758.526	2254.73
758.714	2286.31
758.902	2210.56
759.09	2149.72
759.278	2039.48
759.465	1875.57
759.653	1624.86
759.841	1513.26
760.028	1250.54
760.216	1094.77
760.404	1056.99
760.591	834.57
760.779	736.72
760.967	619.51
761.154	513.14
761.342	550.15
761.529	555.38
761.717	605.17
761.905	582.11
762.092	644.31
762.28	569.33
762.467	613.69
762.655	523.02
762.842	579.79
763.029	578.04
763.217	566.23
763.404	585.99
763.592	617.18
763.779	556.35
763.966	578.24
764.154	627.45
764.341	691
764.528	707.86
764.716	730.72
764.903	756.87
765.09	780.51
765.277	831.08
765.465	963.21
765.652	988.01
765.839	1038.39
766.026	1159.67
766.213	1137.2
766.4	1202.3
766.588	1401.86
766.775	1324.55
766.962	1427.63
767.149	1449.71
767.336	1608.78
767.523	1513.65
767.71	1664
767.897	1723.48
768.084	1765.52
768.271	1782.77
768.458	1868.79
768.645	1886.61
768.832	1826.16
769.019	1867.05
769.206	1880.8
769.392	1949.97
769.579	2038.9
769.766	1976.9
769.953	1984.84
770.14	2034.83
770.327	2023.21
770.513	2065.83
770.7	2106.13
770.887	2047.42
771.073	2095.86
771.26	2083.07
771.447	2011.77
771.634	2041.03
771.82	2117.37
772.007	2012.74
772.193	2075.9
772.38	2140.81
772.567	2074.35
772.753	2098.57
772.94	2116.98
773.126	2102.06
773.313	2122.79
773.499	2077.26
773.686	2100.51
773.872	2062.73
774.059	2051.49
774.245	2021.85
774.432	2067.19
774.618	2003.06
774.804	2079.78
774.991	2004.41
775.177	2085.79
775.363	2036.57
775.55	2071.25
775.736	1985.42
775.922	2019.52
776.109	2040.45
776.295	2039.48
776.481	2030.76
776.667	2072.8
776.853	2031.54
777.04	1984.65
777.226	2031.92
777.412	2063.7
777.598	1977.67
777.784	1982.13
777.97	1994.92
778.156	1992.4
778.342	1983.68
778.528	1956.36
778.715	1915.09
778.901	1985.04
779.087	1998.02
779.272	1931.95
779.458	1949.39
779.644	1968.76
779.83	1951.91
780.016	2023.21
780.202	1946.68
780.388	1939.7
780.574	1887.19
780.76	1911.41
780.946	1987.36
781.131	1943.38
781.317	1968.76
781.503	1912.38
781.689	1904.63
781.874	2006.74
782.06	1944.74
782.246	1916.26
782.432	1922.46
782.617	1917.61
782.803	1958.3
782.989	1846.31
783.174	1879.25
783.36	1848.25
783.545	1877.9
783.731	1852.51
783.916	1819.19
784.102	1901.34
784.288	1846.9
784.473	1841.66
784.659	1877.9
784.844	1924.39
785.029	1828.3
785.215	1848.45
785.4	1809.31
785.586	1869.18
785.771	1801.95
785.956	1841.86
786.142	1823.45
786.327	1803.5
786.512	1823.45
786.698	1782.18
786.883	1765.33
787.068	1794
787.254	1781.41
787.439	1743.43
787.624	1793.23
787.809	1741.11
787.994	1730.26
788.18	1804.85
788.365	1709.53
788.55	1756.22
788.735	1755.25
788.92	1720.57
789.105	1714.57
789.29	1761.65
789.475	1708.17
789.66	1699.45
789.845	1715.53
790.03	1703.91
790.215	1735.68
790.4	1737.23
790.585	1760.68
790.77	1699.84
790.955	1619.63
791.14	1672.91
791.325	1769.78
791.51	1581.27
791.695	1674.07
791.879	1653.54
792.064	1626.02
792.249	1706.62
792.434	1664.19
792.618	1672.52
792.803	1680.27
792.988	1652.95
793.173	1641.33
793.357	1698.29
793.542	1615.95
793.727	1669.42
793.911	1720.96
794.096	1648.5
794.281	1701.39
794.465	1750.8
794.65	1671.55
794.834	1673.1
795.019	1727.74
795.203	1741.3
795.388	1722.32
795.572	1734.91
795.757	1699.26
795.941	1721.35
796.126	1716.12
796.31	1645.4
796.494	1699.45
796.679	1676.4
796.863	1660.12
797.048	1737.23
797.232	1668.45
797.416	1686.28
797.601	1639.78
797.785	1761.84
797.969	1728.52
798.153	1675.24
798.338	1678.53
798.522	1751.18
798.706	1709.92
798.89	1722.9
799.074	1794.78
799.258	1731.81
799.443	1712.05
799.627	1705.65
799.811	1711.08
799.995	1728.52
800.179	1660.32
800.363	1682.6
800.547	1730.45
800.731	1743.24
800.915	1624.47
801.099	1704.88
801.283	1685.5
801.467	1697.52
801.651	1673.49
801.835	1750.41
802.019	1764.75
802.202	1706.43
802.386	1681.82
802.57	1625.05
802.754	1676.2
802.938	1639.78
803.121	1670.39
803.305	1737.82
803.489	1693.84
803.673	1703.91
803.856	1675.04
804.04	1673.88
804.224	1715.92
804.407	1676.59
804.591	1679.5
804.775	1708.17
804.958	1716.7
805.142	1815.51
805.326	1710.5
805.509	1719.99
805.693	1700.04
805.876	1714.95
806.06	1734.33
806.243	1723.28
806.427	1734.91
806.61	1764.17
806.794	1699.26
806.977	1758.35
807.16	1732.58
807.344	1701.59
807.527	1688.6
807.71	1670.39
807.894	1727.93
808.077	1735.88
808.26	1669.04
808.444	1639.97
808.627	1700.23
808.81	1663.61
808.993	1659.54
809.177	1625.64
809.36	1658.96
809.543	1690.93
809.726	1576.04
809.909	1590.96
810.092	1610.14
810.276	1593.86
810.459	1592.51
810.642	1582.62
810.825	1591.15
811.008	1578.56
811.191	1501.44
811.374	1548.91
811.557	1512.49
811.74	1597.54
811.923	1496.6
812.106	1486.53
812.289	1468.12
812.472	1468.31
812.654	1524.11
812.837	1470.25
813.02	1435.57
813.203	1387.91
813.386	1334.24
813.569	1346.64
813.751	1292
813.934	1329.4
814.117	1299.56
814.3	1286.58
814.482	1281.54
814.665	1227.29
814.848	1201.33
815.03	1178.47
815.213	1183.31
815.396	1171.88
815.578	1137.59
815.761	1114.14
815.943	1201.72
816.126	1099.81
816.309	1088.18
816.491	1047.49
816.674	971.55
816.856	1066.68
817.039	1029.86
817.221	1111.62
817.403	1043.23
817.586	1067.06
817.768	1086.83
817.951	1025.6
818.133	1008.94
818.315	1021.14
818.498	1043.04
818.68	1107.75
818.862	1105.62
819.045	1098.26
819.227	1093.02
819.409	1066.87
819.591	1129.84
819.774	1052.73
819.956	1018.43
820.138	1112.79
820.32	1116.47
820.502	1131.97
820.684	1198.23
820.866	1156.57
821.048	1217.41
821.231	1211.6
821.413	1219.74
821.595	1197.07
821.777	1187.38
821.959	1201.91
822.141	1259.84
822.323	1137.2
822.505	1112.98
822.686	1065.71
822.868	1057.96
823.05	941.9
823.232	959.92
823.414	879.71
823.596	963.21
823.778	948.68
823.96	964.57
824.141	953.72
824.323	967.86
824.505	1024.24
824.687	1076.75
824.868	1110.46
825.05	1162.39
825.232	1180.6
825.413	1239.3
825.595	1220.12
825.777	1120.15
825.958	1196.29
826.14	1143.98
826.321	1211.21
826.503	1187.57
826.685	1176.92
826.866	1216.64
827.048	1195.71
827.229	1157.54
827.411	1121.12
827.592	1094.38
827.773	1123.44
827.955	1073.84
828.136	1071.33
828.318	1005.45
828.499	1087.02
828.68	1000.41
828.862	1058.34
829.043	1099.22
829.224	1071.91
829.406	1050.01
829.587	1047.11
829.768	1024.24
829.949	1064.93
830.131	1046.91
830.312	1087.41
830.493	1063.96
830.674	1094.77
830.855	1055.24
831.036	1055.63
831.218	1089.34
831.399	1090.7
831.58	1084.11
831.761	1061.44
831.942	1079.27
832.123	1044.98
832.304	1021.73
832.485	1045.94
832.666	1066.09
832.847	1051.18
833.028	1046.53
833.209	1061.25
833.389	1064.35
833.57	1000.03
833.751	1037.42
833.932	1070.94
834.113	1050.01
834.294	1035.09
834.475	1091.86
834.655	1092.25
834.836	1101.36
835.017	1087.6
835.198	1033.54
835.378	1062.03
835.559	1131
835.74	1067.64
835.92	1046.53
836.101	1044.01
836.281	1084.11
836.462	1081.21
836.643	1128.29
836.823	1111.04
837.004	1123.64
837.184	1163.94
837.365	1125.77
837.545	1138.17
837.726	1096.9
837.906	1156.38
838.087	1118.79
838.267	1100.19
838.448	1065.32
838.628	1086.24
838.808	1089.73
838.989	1154.06
839.169	1049.24
839.349	1092.25
839.53	1114.14
839.71	1144.76
839.89	1095.16
840.07	1155.41
840.251	1077.14
840.431	1135.65
840.611	1122.86
840.791	1093.8
840.971	1104.65
841.151	1082.37
841.332	1083.92
841.512	1127.51
841.692	1047.88
841.872	1116.47
842.052	1097.09
842.232	1106.59
842.412	1032.77
842.592	1118.79
842.772	1087.41
842.952	1109.49
843.132	1060.09
843.312	1061.25
843.492	1056.41
843.672	1102.32
843.851	1013.2
844.031	1076.36
844.211	1079.85
844.391	1036.84
844.571	1077.33
844.751	1093.99
844.93	1082.37
845.11	1027.54
845.29	1069.78
845.47	1075.01
845.649	1075.39
845.829	1121.89
846.009	1040.33
846.188	1055.44
846.368	1081.59
846.547	1066.87
846.727	1089.54
846.907	989.37
847.086	1089.93
847.266	1075.98
847.445	1069.19
847.625	1039.74
847.804	1019.21
847.984	1051.95
848.163	1000.22
848.343	1038.58
848.522	1062.03
848.701	1037.61
848.881	989.18
849.06	1032.96
849.239	1054.28
849.419	1039.36
849.598	970.19
849.777	1004.68
849.957	991.11
850.136	948.88
850.315	932.41
850.494	946.94
850.674	938.22
850.853	998.28
851.032	974.84
851.211	1012.62
851.39	1006.42
851.569	922.91
851.748	900.83
851.927	1005.06
852.107	990.92
852.286	921.17
852.465	912.65
852.644	981.43
852.823	994.21
853.002	962.25
853.181	968.06
853.359	947.33
853.538	904.51
853.717	996.35
853.896	907.42
854.075	868.86
854.254	841.15
854.433	780.9
854.611	874.87
854.79	763.46
854.969	869.25
855.148	861.88
855.327	821.2
855.505	853.75
855.684	844.64
855.863	865.95
856.041	842.7
856.22	905.48
856.399	856.65
856.577	903.54
856.756	927.56
856.934	991.7
857.113	1030.64
857.291	936.28
857.47	912.26
857.648	911.48
857.827	927.76
858.005	952.17
858.184	887.65
858.362	988.01
858.541	924.08
858.719	946.16
858.898	898.7
859.076	912.07
859.254	969.22
859.433	894.05
859.611	924.46
859.789	854.72
859.967	949.65
860.146	946.75
860.324	849.48
860.502	878.55
860.68	846.38
860.859	823.33
861.037	887.85
861.215	896.95
861.393	869.25
861.571	877.58
861.749	859.17
861.927	902.96
862.105	878.74
862.283	889.98
862.461	861.3
862.639	833.21
862.817	852.39
862.995	841.73
863.173	847.35
863.351	825.07
863.529	869.63
863.707	924.08
863.885	856.27
864.063	799.3
864.241	810.93
864.418	901.99
864.596	816.55
864.774	805.12
864.952	850.26
865.129	884.17
865.307	823.33
865.485	757.07
865.663	867.5
865.84	832.05
866.018	802.21
866.196	719.87
866.373	760.17
866.551	732.66
866.728	674.34
866.906	717.16
867.084	742.73
867.261	761.33
867.439	749.12
867.616	786.71
867.794	755.9
867.971	789.62
868.149	761.91
868.326	833.21
868.503	814.03
868.681	783.22
868.858	760.17
869.035	742.73
869.213	782.45
869.39	783.42
869.567	836.7
869.745	742.34
869.922	806.28
870.099	820.81
870.276	809.38
870.454	815.97
870.631	805.5
870.808	789.04
870.985	797.56
871.162	836.5
871.339	807.44
871.517	769.08
871.694	737.5
871.871	773.73
872.048	791.36
872.225	748.15
872.402	768.89
872.579	727.81
872.756	785.74
872.933	760.75
873.11	757.65
873.287	746.8
873.463	747.38
873.64	716.77
873.817	768.5
873.994	752.22
874.171	694.1
874.348	741.37
874.524	705.14
874.701	738.08
874.878	679.96
875.055	758.04
875.231	752.03
875.408	735.76
875.585	682.28
875.762	689.06
875.938	712.12
876.115	726.07
876.291	678.79
876.468	704.56
876.645	629.78
876.821	702.24
876.998	713.09
877.174	717.54
877.351	709.79
877.527	703.59
877.704	703.01
877.88	698.56
878.057	687.71
878.233	767.72
878.409	684.61
878.586	702.82
878.762	676.47
878.938	677.63
879.115	616.21
879.291	682.86
879.467	629.97
879.644	653.99
879.82	692.16
879.996	675.5
880.172	631.13
880.349	651.28
880.525	675.31
880.701	615.63
880.877	615.05
881.053	674.14
881.229	667.94
881.405	686.93
881.581	641.59
881.757	644.11
881.933	669.3
882.109	678.6
882.285	666.97
882.461	629
882.637	656.32
882.813	601.49
882.989	638.11
883.165	707.86
883.341	622.8
883.517	695.46
883.693	669.3
883.869	676.08
884.044	633.65
884.22	660.58
884.396	675.31
884.572	684.8
884.747	684.99
884.923	653.03
885.099	685.57
885.275	677.63
885.45	654.58
885.626	643.92
885.801	644.31
885.977	678.02
886.153	582.5
886.328	672.01
886.504	603.23
886.679	667.75
886.855	632.68
887.03	677.05
887.206	680.54
887.381	660.77
887.557	679.96
887.732	652.44
887.908	655.54
888.083	666.78
888.258	660.77
888.434	610.01
888.609	680.54
888.784	678.02
888.96	653.8
889.135	623.19
889.31	603.81
889.485	647.79
889.661	640.63
889.836	705.92
890.011	691.58
890.186	633.07
890.361	635.98
890.537	659.22
890.712	652.44
890.887	636.94
891.062	671.62
891.237	692.36
891.412	623.77
891.587	653.22
891.762	665.62
891.937	705.34
892.112	628.81
892.287	632.68
892.462	604.39
892.637	578.82
892.812	576.3
892.987	594.13
893.161	578.43
893.336	577.66
893.511	612.34
893.686	570.29
893.861	605.75
894.035	582.69
894.21	612.14
894.385	555.96
894.56	581.34
894.734	535.81
894.909	569.33
895.084	564.29
895.258	527.48
895.433	574.56
895.608	514.69
895.782	464.12
895.957	506.55
896.131	516.63
896.306	454.82
896.48	455.79
896.655	481.95
896.829	451.72
897.004	424.4
897.178	440.48
897.353	434.87
897.527	467.42
897.701	459.08
897.876	395.92
898.05	451.53
898.224	461.41
898.399	493.96
898.573	445.72
898.747	328.11
898.921	436.8
899.096	319.2
899.27	340.51
899.444	333.34
899.618	376.55
899.792	365.31
899.967	371.7
900.141	408.52
900.315	333.34
900.489	373.45
900.663	417.04
900.837	394.95
901.011	340.32
901.185	435.83
901.359	404.25
901.533	410.45
901.707	410.65
901.881	374.03
902.055	348.45
902.229	377.52
902.403	393.79
902.576	372.09
902.75	370.35
902.924	484.66
903.098	424.4
903.272	430.6
903.446	459.67
903.619	444.55
903.793	486.4
903.967	419.95
904.14	495.12
904.314	489.7
904.488	471.68
904.661	506.94
904.835	473.03
905.009	478.07
905.182	539.1
905.356	493.76
905.529	492.6
905.703	458.12
905.876	438.35
906.05	429.25
906.223	436.8
906.397	381
906.57	364.92
906.744	362.21
906.917	370.15
907.09	356.4
907.264	390.89
907.437	368.22
907.61	340.7
907.784	375.77
907.957	391.66
908.13	326.95
908.304	388.56
908.477	340.51
908.65	328.69
908.823	290.52
908.996	396.5
909.17	339.35
909.343	329.66
909.516	343.03
909.689	367.44
909.862	316.1
910.035	361.24
910.208	315.52
910.381	336.83
910.554	402.51
910.727	319.78
910.9	301.57
911.073	294.59
911.246	377.13
911.419	375.77
911.592	365.89
911.765	329.27
911.938	311.06
912.11	325.59
912.283	326.37
912.456	374.61
912.629	379.07
912.802	315.71
912.974	279.67
913.147	267.47
913.32	222.91
913.493	269.21
913.665	286.84
913.838	284.52
914.01	284.52
914.183	313.39
914.356	262.62
914.528	343.8
914.701	358.92
914.873	344.39
915.046	322.88
915.218	248.29
915.391	215.93
915.563	242.86
915.736	295.76
915.908	319.39
916.081	261.07
916.253	244.99
916.425	283.36
916.598	308.35
916.77	290.33
916.942	290.33
917.115	208.38
917.287	265.92
917.459	263.59
917.632	229.49
917.804	176.6
917.976	282
918.148	257.2
918.32	255.46
918.493	300.6
918.665	349.23
918.837	284.52
919.009	332.76
919.181	335.86
919.353	298.66
919.525	304.09
919.697	263.21
919.869	320.17
920.041	342.25
920.213	406.97
920.385	312.8
920.557	302.34
920.729	320.55
920.901	307.38
921.073	311.64
921.244	298.86
921.416	326.95
921.588	328.89
921.76	296.34
921.932	378.49
922.103	304.86
922.275	300.79
922.447	307.19
922.619	272.51
922.79	285.29
922.962	269.99
923.134	327.34
923.305	254.29
923.477	265.72
923.648	244.41
923.82	264.56
923.991	229.11
924.163	178.34
924.335	270.96
924.506	236.08
924.677	297.31
924.849	227.56
925.02	249.26
925.192	278.51
925.363	252.55
925.535	257.59
925.706	227.94
925.877	288.78
926.049	235.5
926.22	250.42
926.391	263.01
926.562	266.31
926.734	205.47
926.905	266.5
927.076	193.84
927.247	244.22
927.419	195.01
927.59	209.93
927.761	248.29
927.932	206.83
928.103	235.5
928.274	177.96
928.445	178.73
928.616	206.24
928.787	170.21
928.958	203.73
929.129	210.7
929.3	213.41
929.471	122.35
929.642	120.41
929.813	90
929.984	195.78
930.155	99.88
930.326	178.54
930.496	123.71
930.667	65.97
930.838	126.03
931.009	81.47
931.18	76.24
931.35	125.06
931.521	99.88
931.692	87.48
931.863	56.28
932.033	104.91
932.204	72.75
932.374	80.5
932.545	42.33
932.716	114.21
932.886	120.41
933.057	18.89
933.227	56.28
933.398	132.23
933.568	38.27
933.739	17.34
933.909	49.31
934.08	68.1
934.25	-30.13
934.421	31.29
934.591	51.44
934.761	-7.27
934.932	-29.93
935.102	35.17
935.272	-5.91
935.443	30.32
935.613	28.19
935.783	42.33
935.953	-28.19
936.123	170.01
936.294	-13.27
936.464	7.07
936.634	66.36
936.804	-1.65
936.974	-23.35
937.144	37.88
937.314	21.8
937.484	13.85
937.655	-30.9
937.825	63.65
937.995	4.55
938.165	68.88
938.334	24.12
938.504	49.31
938.674	19.08
938.844	14.82
939.014	73.91
939.184	63.06
939.354	76.43
939.524	55.7
939.694	62.1
939.863	55.12
940.033	108.01
940.203	99.3
940.373	79.34
940.542	76.82
940.712	22.38
940.882	69.65
941.051	111.89
941.221	80.7
941.391	103.75
941.56	22.18
941.73	18.31
941.899	154.9
942.069	30.71
942.238	55.31
942.408	102.2
942.577	50.08
942.747	54.54
942.916	16.95
943.086	8.62
943.255	81.47
943.425	66.55
943.594	21.02
943.763	-16.18
943.933	44.66
944.102	-7.85
944.271	51.05
944.441	56.48
944.61	34.97
944.779	30.13
944.948	101.81
945.117	10.95
945.287	30.9
945.456	7.07
945.625	12.88
945.794	53.18
945.963	30.52
946.132	52.02
946.301	3.2
946.47	72.56
946.639	-30.9
946.808	1.26
946.977	61.9
947.146	64.81
947.315	1.65
947.484	48.53
947.653	16.18
947.822	27.8
947.991	14.24
948.16	87.09
948.329	96
948.498	13.66
948.666	62.1
948.835	52.8
949.004	-10.75
949.173	-5.52
949.341	58.61
949.51	68.1
949.679	79.73
949.847	88.45
950.016	96.97
950.185	72.75
950.353	24.9
950.522	17.53
950.69	92.51
950.859	11.72
951.028	69.85
951.196	79.73
951.365	8.04
951.533	46.4
951.701	85.54
951.87	75.66
952.038	2.03
952.207	37.1
952.375	121.58
952.543	45.63
952.712	40.78
952.88	26.64
953.048	93.1
953.217	70.04
953.385	50.08
953.553	113.63
953.721	20.44
953.89	39.62
954.058	-12.69
954.226	16.37
954.394	53.57
954.562	-16.18
954.73	35.36
954.898	30.71
955.067	82.05
955.235	32.84
955.403	99.68
955.571	107.63
955.739	65
955.907	17.53
956.075	30.13
956.243	1.45
956.41	49.89
956.578	-3.39
956.746	-13.66
956.914	33.23
957.082	67.33
957.25	54.35
957.418	-10.75
957.585	48.53
957.753	92.71
957.921	-4.36
958.089	58.22
958.256	52.02
958.424	57.83
958.592	62.1
958.759	32.07
958.927	62.29
959.095	19.86
959.262	38.46
959.43	67.13
959.597	10.17
959.765	47.37
959.932	1.65
960.1	75.85
960.267	63.45
960.435	15.98
960.602	67.52
960.77	23.15
960.937	1.45
961.104	42.92
961.272	25.09
961.439	28.77
961.606	61.13
961.774	60.93
961.941	42.72
962.108	45.24
962.275	77.21
962.443	106.85
962.61	72.75
962.777	106.66
962.944	104.14
963.111	64.23
963.278	96.2
963.446	42.72
963.613	34.97
963.78	78.18
963.947	92.13
964.114	50.08
964.281	128.94
964.448	71.01
964.615	18.5
964.782	78.18
964.949	50.86
965.116	73.53
965.282	88.06
965.449	51.05
965.616	24.51
965.783	82.25
965.95	65.97
966.117	21.6
966.283	54.73
966.45	57.06
966.617	47.37
966.784	95.81
966.95	64.42
967.117	78.95
967.284	28.19
967.45	30.13
967.617	97.55
967.784	63.26
967.95	102.4
968.117	63.84
968.283	96.78
968.45	150.44
968.616	72.17
968.783	85.35
968.949	92.51
969.116	126.23
969.282	64.61
969.449	76.43
969.615	45.63
969.781	-0.1
969.948	53.18
970.114	-9.2
970.28	120.41
970.447	77.21
970.613	99.3
970.779	57.64
970.945	64.61
971.112	67.33
971.278	47.76
971.444	55.31
971.61	82.05
971.776	42.72
971.942	78.95
972.108	89.61
972.275	44.85
972.441	81.66
972.607	157.61
972.773	42.92
972.939	77.4
973.105	51.05
973.271	47.37
973.437	34.58
973.602	20.25
973.768	92.51
973.934	58.61
974.1	91.93
974.266	-26.25
974.432	72.17
974.598	59.58
974.763	89.41
974.929	32.84
975.095	143.47
975.261	50.86
975.426	5.13
975.592	21.41
975.758	112.28
975.923	12.69
976.089	15.6
976.255	75.46
976.42	77.21
976.586	83.8
976.751	63.26
976.917	127.39
977.082	58.8
977.248	14.63
977.413	-9.4
977.579	62.48
977.744	64.03
977.91	1.07
978.075	48.15
978.24	97.16
978.406	64.61
978.571	32.45
978.736	37.88
978.902	106.46
979.067	29.35
979.232	-24.7
979.397	52.6
979.563	104.53
979.728	37.68
979.893	47.76
980.058	49.5
980.223	87.28
980.388	48.34
980.554	60.74
980.719	28.97
980.884	56.09
981.049	96.2
981.214	51.44
981.379	47.18
981.544	35.75
981.709	31.48
981.874	80.11
982.039	66.75
982.204	89.03
982.368	28.77
982.533	33.42
982.698	79.15
982.863	93.68
983.028	37.3
983.193	74.11
983.357	72.95
983.522	100.65
983.687	40.78
983.852	29.55
984.016	40.98
984.181	54.35
984.346	62.29
984.51	97.36
984.675	42.53
984.839	76.43
985.004	71.4
985.168	86.12
985.333	82.83
985.498	60.16
985.662	77.6
985.827	69.65
985.991	42.92
986.155	-1.45
986.32	63.45
986.484	132.81
986.649	77.21
986.813	-0.68
986.977	61.9
987.142	81.66
987.306	22.96
987.47	-1.07
987.634	38.46
987.799	34.97
987.963	51.44
988.127	80.11
988.291	135.14
988.455	49.11
988.62	29.93
988.784	87.09
988.948	80.5
989.112	27.61
989.276	63.65
989.44	52.02
989.604	34
989.768	52.8
989.932	123.32
990.096	19.08
990.26	-10.37
990.424	-3.2
990.588	43.88
990.752	104.14
990.915	91.55
991.079	19.28
991.243	48.34
991.407	81.08
991.571	43.3
991.734	71.2
991.898	73.91
992.062	136.49
992.226	30.13
992.389	11.72
992.553	20.63
992.717	13.66
992.88	49.89
993.044	40.59
993.207	34.39
993.371	59.77
993.535	62.87
993.698	40.59
993.862	70.23
994.025	69.26
994.189	57.83
994.352	54.54
994.515	77.4
994.679	64.23
994.842	45.05
995.006	90.38
995.169	28
995.332	27.61
995.496	57.64
995.659	-9.01
995.822	31.87
995.985	34.39
996.149	97.75
996.312	44.08
996.475	120.03
996.638	23.15
996.801	60.74
996.964	99.1
997.128	13.85
997.291	27.22
997.454	47.76
997.617	-6.68
997.78	61.51
997.943	37.88
998.106	55.12
998.269	7.27
998.432	60.35
998.595	49.5
998.758	-9.01
998.92	21.8
999.083	-22.96
999.246	32.07
999.409	-21.22
999.572	-12.69
999.735	7.65
999.897	32.07
1000.06	24.9
1000.223	25.87
1000.386	51.63
1000.548	82.63
1000.711	57.06
1000.874	60.35
1001.036	11.92
1001.199	69.46
1001.361	29.74
1001.524	58.8
1001.687	78.18
1001.849	3.97
1002.012	41.95
1002.174	62.29
1002.337	71.01
1002.499	28.58
1002.661	80.7
1002.824	-11.14
1002.986	34.58
1003.149	35.17
1003.311	8.23
1003.473	116.93
1003.636	29.16
1003.798	67.13
1003.96	39.82
1004.123	13.27
1004.285	2.23
1004.447	13.08
1004.609	24.32
1004.771	98.91
1004.933	-30.9
1005.096	5.91
1005.258	-50.08
1005.42	23.54
1005.582	63.06
1005.744	40.4
1005.906	-3.39
1006.068	31.29
1006.23	16.57
1006.392	-21.22
1006.554	3
1006.716	52.6
1006.878	24.9
1007.04	-26.06
1007.202	23.15
1007.363	49.7
1007.525	29.55
1007.687	76.43
1007.849	74.69
1008.011	-41.37
1008.172	-31.1
1008.334	2.62
1008.496	35.94
1008.658	-15.6
1008.819	-3.58
1008.981	-45.43
1009.143	-12.11
1009.304	18.89
1009.466	36.72
1009.627	72.56
1009.789	110.34
1009.95	47.37
1010.112	2.03
1010.273	57.83
1010.435	15.6
1010.596	5.91
1010.758	36.13
1010.919	24.51
1011.081	0.29
1011.242	28.97
1011.403	43.3
1011.565	29.55
1011.726	55.7
1011.887	3.2
1012.049	-5.52
1012.21	56.28
1012.371	50.86
1012.532	-32.84
1012.693	37.3
1012.855	9.01
1013.016	33.42
1013.177	58.8
1013.338	15.21
1013.499	87.09
1013.66	47.37
1013.821	69.65
1013.982	46.21
1014.143	23.35
1014.304	14.05
1014.465	3.58
1014.626	38.27
1014.787	39.82
1014.948	94.06
1015.109	-20.63
1015.27	102.01
1015.431	6.1
1015.592	-3.97
1015.752	78.18
1015.913	32.65
1016.074	27.42
1016.235	-0.29
1016.395	33.03
1016.556	22.18
1016.717	5.72
1016.877	66.75
1017.038	-9.78
1017.199	51.44
1017.359	14.24
1017.52	20.05
1017.681	12.88
1017.841	25.87
1018.002	28.77
1018.162	11.14
1018.323	65.78
1018.483	26.64
1018.644	26.45
1018.804	-33.03
1018.964	-27.42
1019.125	7.85
1019.285	25.87
1019.446	-14.82
1019.606	-8.04
1019.766	-12.11
1019.926	31.87
1020.087	39.82
1020.247	-26.83
1020.407	22.18
1020.567	52.21
1020.728	6.68
1020.888	-15.6
1021.048	-28.58
1021.208	-7.07
1021.368	13.27
1021.528	68.1
1021.688	44.08
1021.848	72.56
1022.008	26.25
1022.168	4.55
1022.328	-11.53
1022.488	48.73
1022.648	12.5
1022.808	-10.37
1022.968	18.89
1023.128	-6.49
1023.288	-3.39
1023.448	1.84
1023.608	13.47
1023.767	38.85
1023.927	-18.89
1024.087	-19.28
1024.247	-3.58
1024.406	-0.87
1024.566	-2.81
1024.726	-32.26
1024.885	25.09
1025.045	28.97
1025.205	6.3
1025.364	3.58
1025.524	33.81
1025.683	13.66
1025.843	22.57
1026.003	28
1026.162	61.13
1026.321	54.35
1026.481	3.58
1026.64	1.65
1026.8	0.87
1026.959	5.91
1027.119	2.23
1027.278	12.88
1027.437	-8.23
1027.597	17.73
1027.756	17.73
1027.915	4.94
1028.074	39.04
1028.234	2.81
1028.393	21.41
1028.552	5.52
1028.711	-61.32
1028.87	54.15
1029.03	-33.81
1029.189	-8.82
1029.348	-75.85
1029.507	-20.05
1029.666	-8.62
1029.825	-27.8
1029.984	3.97
1030.143	3.39
1030.302	-1.45
1030.461	-83.99
1030.62	4.94
1030.779	34.2
1030.938	-24.51
1031.097	-5.33
1031.255	22.38
1031.414	34.2
1031.573	48.53
1031.732	-28.77
1031.891	-2.81
1032.049	69.26
1032.208	28.19
1032.367	-13.27
1032.525	-7.46
1032.684	-1.26
1032.843	1.84
1033.001	-50.47
1033.16	167.3
1033.319	41.95
1033.477	28
1033.636	-24.32
1033.794	-53.76
1033.953	45.05
1034.111	21.41
1034.27	-5.72
1034.428	8.82
1034.587	-34.58
1034.745	1.07
1034.903	-5.13
1035.062	30.32
1035.22	-58.03
1035.378	19.28
1035.537	-19.47
1035.695	-11.53
1035.853	23.35
1036.011	43.88
1036.17	11.72
1036.328	-33.23
1036.486	16.76
1036.644	13.66
1036.802	-79.15
1036.96	-14.82
1037.119	1.45
1037.277	-4.17
1037.435	-51.83
1037.593	-20.44
1037.751	-29.35
1037.909	40.98
1038.067	40.98
