Data from pine_FLMT105791__6__17-19-40-080.txt Node

Date: Mon Mar 20 17:19:40 GMT 2023
User: antho
Spectrometer: FLMT10579
Trigger mode: 0
Integration Time (sec): 1.000000E-1
Scans to average: 10
Electric dark correction enabled: true
Nonlinearity correction enabled: false
Boxcar width: 0
XAxis mode: Wavelengths
Number of Pixels in Spectrum: 3648
>>>>>Begin Spectral Data<<<<<
345.248	-186.5
345.464	-186.5
345.681	-186.5
345.898	-175.45
346.114	-169.84
346.331	-34.41
346.548	27.59
346.764	-22.59
346.981	8.61
347.197	-23.17
347.414	33.02
347.631	-23.36
347.847	57.62
348.064	11.9
348.28	10.35
348.497	-26.08
348.713	-19.49
348.93	35.73
349.146	39.02
349.363	3.76
349.579	2.79
349.796	-5.34
350.012	-17.16
350.229	21.01
350.445	18.49
350.661	-7.67
350.878	14.61
351.094	9.57
351.311	5.51
351.527	41.16
351.743	-18.91
351.96	24.88
352.176	38.25
352.392	30.89
352.609	26.24
352.825	-21.43
353.041	-8.06
353.257	0.47
353.474	14.81
353.69	-0.11
353.906	22.94
354.122	-26.66
354.339	51.23
354.555	-3.6
354.771	10.93
354.987	29.53
355.203	63.05
355.42	-27.24
355.636	-22.59
355.852	-2.63
356.068	13.26
356.284	-36.15
356.5	54.14
356.716	7.44
356.932	-16.78
357.148	8.8
357.364	13.84
357.58	51.62
357.796	54.14
358.012	29.72
358.228	38.25
358.444	-70.25
358.66	68.28
358.876	21.01
359.092	-39.25
359.308	20.04
359.524	58.98
359.74	-8.44
359.956	-7.67
360.172	-12.51
360.388	42.12
360.604	-2.05
360.819	58.01
361.035	19.46
361.251	42.12
361.467	3.18
361.683	43.48
361.898	22.94
362.114	35.92
362.33	9.19
362.546	38.83
362.762	-13.48
362.977	10.74
363.193	-45.26
363.409	52.97
363.624	-30.34
363.84	-13.48
364.056	1.05
364.271	34.57
364.487	3.76
364.703	-17.94
364.918	-27.63
365.134	-18.33
365.35	-1.28
365.565	94.63
365.781	24.69
365.996	45.42
366.212	82.81
366.427	3.57
366.643	-30.34
366.858	6.47
367.074	-40.41
367.289	46.19
367.505	94.82
367.72	-53.39
367.936	-0.31
368.151	14.61
368.367	17.13
368.582	20.23
368.798	-13.87
369.013	58.01
369.228	34.37
369.444	0.08
369.659	95.21
369.874	33.41
370.09	48.13
370.305	-84.59
370.52	-13.48
370.736	52.2
370.951	23.91
371.166	32.05
371.381	70.8
371.597	45.42
371.812	-46.61
372.027	-35.38
372.242	10.54
372.458	59.56
372.673	1.24
372.888	-5.73
373.103	26.43
373.318	95.79
373.533	40.96
373.749	42.12
373.964	-35.38
374.179	52.78
374.394	-35.18
374.609	58.01
374.824	-22.39
375.039	24.49
375.254	0.86
375.469	64.21
375.684	21.78
375.899	38.64
376.114	10.16
376.329	38.64
376.544	41.54
376.759	40.38
376.974	-17.74
377.189	-14.64
377.404	-5.93
377.619	45.03
377.834	-20.65
378.049	-28.98
378.264	-29.56
378.478	20.04
378.693	-25.69
378.908	12.67
379.123	-0.11
379.338	57.43
379.553	17.91
379.767	11.71
379.982	41.74
380.197	35.92
380.412	15.19
380.626	27.79
380.841	87.46
381.056	33.99
381.271	73.51
381.485	9.38
381.7	-11.35
381.915	22.94
382.129	20.81
382.344	34.96
382.559	11.9
382.773	52.2
382.988	-22.59
383.202	8.22
383.417	5.31
383.632	96.57
383.846	14.42
384.061	24.69
384.275	7.64
384.49	22.75
384.704	28.95
384.919	5.31
385.133	23.72
385.348	16.36
385.562	-30.14
385.777	38.25
385.991	14.03
386.206	-2.44
386.42	7.06
386.634	61.89
386.849	25.07
387.063	10.35
387.277	10.35
387.492	5.51
387.706	-7.09
387.92	-18.71
388.135	46.97
388.349	11.12
388.563	26.43
388.778	31.08
388.992	35.92
389.206	56.85
389.42	92.3
389.635	11.71
389.849	25.07
390.063	49.49
390.277	39.02
390.491	89.79
390.706	33.79
390.92	34.37
391.134	27.01
391.348	31.27
391.562	-30.92
391.776	1.82
391.99	7.06
392.205	49.49
392.419	-6.51
392.633	44.26
392.847	82.62
393.061	6.28
393.275	80.87
393.489	10.93
393.703	32.24
393.917	59.95
394.131	8.61
394.345	18.49
394.559	50.46
394.773	7.64
394.986	39.02
395.2	26.04
395.414	47.94
395.628	-35.57
395.842	27.59
396.056	18.49
396.27	-33.44
396.484	20.23
396.697	28.17
396.911	57.62
397.125	44.84
397.339	59.37
397.553	43.67
397.766	91.92
397.98	59.95
398.194	83.78
398.408	-10.77
398.621	-0.69
398.835	54.33
399.049	40.57
399.262	68.09
399.476	60.34
399.69	51.62
399.903	69.44
400.117	32.63
400.331	73.9
400.544	25.27
400.758	119.04
400.971	40.96
401.185	79.13
401.398	-2.24
401.612	83
401.826	45.22
402.039	69.64
402.253	-2.63
402.466	50.65
402.68	30.5
402.893	46.77
403.106	38.83
403.32	24.3
403.533	72.15
403.747	31.66
403.96	36.31
404.174	53.75
404.387	-3.6
404.6	39.02
404.814	60.72
405.027	42.9
405.24	42.32
405.454	-11.16
405.667	74.87
405.88	-28.98
406.094	66.34
406.307	59.17
406.52	59.56
406.733	15.39
406.947	-7.67
407.16	107.42
407.373	94.24
407.586	12.29
407.799	-0.5
408.012	69.44
408.226	49.87
408.439	78.16
408.652	-11.16
408.865	59.95
409.078	66.73
409.291	62.85
409.504	19.07
409.717	62.47
409.93	75.06
410.143	58.79
410.357	-16
410.57	-0.31
410.783	32.63
410.996	54.14
411.209	57.24
411.421	91.72
411.634	27.01
411.847	4.92
412.06	42.9
412.273	4.54
412.486	54.91
412.699	120.59
412.912	39.61
413.125	59.37
413.338	27.59
413.55	84.94
413.763	46
413.976	84.94
414.189	23.14
414.402	35.34
414.615	92.11
414.827	28.17
415.04	58.01
415.253	52.2
415.466	73.9
415.678	122.53
415.891	59.95
416.104	55.69
416.316	76.03
416.529	31.86
416.742	69.83
416.954	83.78
417.167	46.19
417.38	6.86
417.592	93.27
417.805	21.2
418.017	-10.38
418.23	76.42
418.442	39.02
418.655	42.71
418.868	63.82
419.08	90.56
419.293	106.45
419.505	76.8
419.718	80.87
419.93	96.18
420.142	64.02
420.355	99.86
420.567	106.25
420.78	104.32
420.992	56.65
421.205	144.81
421.417	8.41
421.629	24.11
421.842	17.52
422.054	3.76
422.266	94.82
422.479	63.82
422.691	51.42
422.903	91.34
423.115	39.99
423.328	58.2
423.54	42.9
423.752	59.37
423.964	45.22
424.177	73.12
424.389	57.04
424.601	160.31
424.813	70.6
425.025	93.08
425.238	60.92
425.45	56.27
425.662	67.31
425.874	360.64
426.086	61.89
426.298	84.55
426.51	89.79
426.722	79.13
426.934	45.61
427.146	85.14
427.358	36.12
427.57	101.22
427.782	64.99
427.994	45.61
428.206	62.85
428.418	45.81
428.63	66.54
428.842	115.17
429.054	67.5
429.266	102.77
429.478	45.22
429.69	69.05
429.902	26.24
430.114	95.02
430.325	86.3
430.537	59.17
430.749	68.47
430.961	39.8
431.173	67.12
431.384	97.54
431.596	-1.66
431.808	54.72
432.02	77.97
432.231	94.82
432.443	119.04
432.655	72.74
432.867	51.23
433.078	114.59
433.29	140.74
433.502	108.19
433.713	122.92
433.925	95.99
434.136	141.71
434.348	70.22
434.56	44.84
434.771	181.23
434.983	53.75
435.194	54.72
435.406	73.51
435.617	142.68
435.829	162.25
436.04	110.52
436.252	135.7
436.463	141.13
436.675	145.58
436.886	96.18
437.098	131.83
437.309	145.97
437.521	100.64
437.732	131.25
437.943	115.36
438.155	115.55
438.366	73.9
438.578	182.01
438.789	119.62
439	113.62
439.211	108.19
439.423	138.42
439.634	146.36
439.845	126.21
440.057	128.34
440.268	171.55
440.479	85.14
440.69	125.05
440.902	115.94
441.113	102.96
441.324	128.92
441.535	147.72
441.746	176
441.957	103.54
442.168	104.12
442.38	118.07
442.591	149.65
442.802	112.65
443.013	110.52
443.224	149.65
443.435	124.66
443.646	106.06
443.857	116.91
444.068	114.2
444.279	120.79
444.49	196.73
444.701	140.35
444.912	218.24
445.123	153.92
445.334	168.45
445.545	170.38
445.756	151.59
445.967	104.32
446.178	150.43
446.388	199.45
446.599	184.72
446.81	182.78
447.021	162.63
447.232	165.93
447.443	211.65
447.653	156.05
447.864	206.23
448.075	153.92
448.286	188.6
448.496	178.13
448.707	202.74
448.918	154.69
449.129	266.68
449.339	167.28
449.55	188.6
449.761	156.82
449.971	193.63
450.182	161.86
450.393	210.49
450.603	166.12
450.814	212.62
451.024	216.5
451.235	219.21
451.446	267.65
451.656	239.55
451.867	156.05
452.077	200.61
452.288	246.91
452.498	215.92
452.709	178.72
452.919	196.93
453.13	173.1
453.34	227.93
453.55	148.3
453.761	223.47
453.971	176.97
454.182	229.28
454.392	230.45
454.602	278.3
454.813	221.34
455.023	236.65
455.233	183.37
455.444	219.79
455.654	149.85
455.864	201.19
456.075	161.67
456.285	181.62
456.495	190.73
456.705	205.84
456.916	246.91
457.126	258.73
457.336	226.57
457.546	157.79
457.756	208.36
457.967	262.41
458.177	201.77
458.387	233.35
458.597	188.98
458.807	202.35
459.017	197.7
459.227	221.15
459.437	199.06
459.647	226.76
459.857	240.33
460.068	172.52
460.278	255.83
460.488	226.38
460.698	297.29
460.908	197.7
461.117	177.94
461.327	181.04
461.537	246.72
461.747	209.13
461.957	234.71
462.167	341.85
462.377	274.81
462.587	214.56
462.797	230.83
463.007	229.28
463.216	252.92
463.426	256.02
463.636	256.6
463.846	190.34
464.056	209.13
464.265	289.15
464.475	179.68
464.685	231.22
464.895	238.78
465.104	230.64
465.314	240.33
465.524	222.5
465.733	189.18
465.943	320.54
466.153	292.06
466.362	264.55
466.572	256.02
466.782	235.87
466.991	250.6
467.201	304.65
467.41	178.52
467.62	285.86
467.829	225.22
468.039	239.94
468.249	253.7
468.458	259.51
468.668	281.4
468.877	265.13
469.086	303.3
469.296	283.73
469.505	243.43
469.715	335.46
469.924	302.91
470.134	331
470.343	318.21
470.552	270.55
470.762	249.82
470.971	245.56
471.18	262.22
471.39	267.84
471.599	238
471.808	281.6
472.018	236.84
472.227	333.71
472.436	305.81
472.645	252.53
472.855	235.29
473.064	324.61
473.273	303.88
473.482	284.7
473.691	328.29
473.901	353.86
474.11	328.29
474.319	388.35
474.528	314.92
474.737	352.7
474.946	325.77
475.155	313.37
475.364	387.38
475.573	332.36
475.783	330.03
475.992	363.36
476.201	359.48
476.41	317.44
476.619	287.21
476.828	308.91
477.037	314.14
477.245	326.16
477.454	329.45
477.663	316.08
477.872	343.98
478.081	376.14
478.29	322.28
478.499	411.99
478.708	349.41
478.917	416.64
479.125	368.39
479.334	361.23
479.543	330.81
479.752	368.98
479.961	378.86
480.169	409.27
480.378	335.26
480.587	499.56
480.796	422.84
481.004	385.83
481.213	416.44
481.422	398.23
481.63	383.89
481.839	433.49
482.048	453.06
482.256	410.05
482.465	398.04
482.674	432.33
482.882	413.15
483.091	471.08
483.299	409.66
483.508	417.99
483.716	390.48
483.925	414.89
484.134	400.94
484.342	423.81
484.551	439.69
484.759	459.84
484.967	456.55
485.176	512.15
485.384	447.64
485.593	468.37
485.801	452.48
486.01	417.99
486.218	422.06
486.426	381.76
486.635	397.84
486.843	388.93
487.051	432.72
487.26	397.07
487.468	431.75
487.676	450.16
487.885	411.79
488.093	458.68
488.301	431.36
488.509	455.97
488.717	500.34
488.926	451.9
489.134	427.49
489.342	479.02
489.55	426.91
489.758	474.76
489.967	426.91
490.175	564.85
490.383	464.69
490.591	541.22
490.799	439.69
491.007	540.83
491.215	489.49
491.423	477.28
491.631	487.74
491.839	504.99
492.047	498.59
492.255	447.64
492.463	415.09
492.671	459.84
492.879	557.1
493.087	480.96
493.295	488.13
493.503	525.52
493.711	519.13
493.919	552.26
494.127	548.58
494.334	537.15
494.542	484.26
494.75	519.32
494.958	502.66
495.166	565.82
495.374	547.61
495.581	530.75
495.789	533.85
495.997	603.41
496.205	556.14
496.412	544.12
496.62	534.44
496.828	572.99
497.035	532.11
497.243	579.77
497.451	571.83
497.658	560.01
497.866	556.52
498.074	604.77
498.281	515.64
498.489	607.09
498.696	565.63
498.904	536.95
499.112	543.15
499.319	644.68
499.527	570.86
499.734	602.05
499.942	523.59
500.149	505.18
500.357	567.57
500.564	532.89
500.771	583.07
500.979	559.43
501.186	545.29
501.394	573.77
501.601	567.37
501.808	616.2
502.016	567.37
502.223	582.48
502.43	573.19
502.638	561.56
502.845	541.99
503.052	613.29
503.26	568.15
503.467	639.83
503.674	599.92
503.881	594.88
504.089	663.66
504.296	616.2
504.503	562.92
504.71	603.6
504.917	553.81
505.125	608.45
505.332	631.31
505.539	624.72
505.746	701.83
505.953	630.92
506.16	619.49
506.367	691.76
506.574	691.56
506.781	685.17
506.988	615.81
507.195	630.53
507.402	651.65
507.609	683.04
507.816	615.81
508.023	626.08
508.23	619.49
508.437	609.22
508.644	654.37
508.851	708.81
509.058	671.03
509.265	664.63
509.472	680.91
509.679	750.85
509.885	676.84
510.092	688.27
510.299	636.73
510.506	677.81
510.713	673.74
510.92	687.88
511.126	685.36
511.333	714.43
511.54	742.52
511.746	722.95
511.953	754.73
512.16	724.89
512.367	672.38
512.573	689.43
512.78	713.85
512.987	718.5
513.193	704.16
513.4	643.52
513.606	697.38
513.813	745.43
514.02	714.62
514.226	775.07
514.433	755.11
514.639	711.52
514.846	711.33
515.052	714.04
515.259	725.28
515.465	706.87
515.672	700.48
515.878	816.53
516.085	727.02
516.291	783.59
516.497	721.98
516.704	690.4
516.91	698.54
517.117	649.33
517.323	640.42
517.529	682.85
517.736	657.27
517.942	700.48
518.148	709
518.354	713.26
518.561	745.04
518.767	725.66
518.973	749.88
519.179	766.16
519.386	727.6
519.592	730.51
519.798	731.48
520.004	774.49
520.21	728.57
520.417	806.26
520.623	826.22
520.829	810.14
521.035	806.84
521.241	804.33
521.447	810.14
521.653	944.99
521.859	816.53
522.065	825.64
522.271	941.89
522.477	865.74
522.683	887.64
522.889	854.31
523.095	850.63
523.301	851.41
523.507	794.25
523.713	875.24
523.919	832.03
524.125	912.63
524.331	878.72
524.537	938.59
524.742	915.73
524.948	930.45
525.154	883.76
525.36	994.97
525.566	903.14
525.772	963.59
525.977	873.11
526.183	915.15
526.389	972.5
526.595	884.34
526.8	908.76
527.006	835.13
527.212	846.76
527.417	822.73
527.623	776.62
527.829	888.02
528.034	887.44
528.24	920.57
528.446	870.01
528.651	922.9
528.857	937.04
529.062	1025
529.268	944.02
529.473	990.71
529.679	920.57
529.884	1028.3
530.09	987.61
530.295	1022.29
530.501	1013.96
530.706	959.9
530.912	922.32
531.117	979.28
531.323	986.84
531.528	1019.77
531.733	1006.79
531.939	969.59
532.144	1035.85
532.35	1005.44
532.555	1039.73
532.76	1000.4
532.966	1021.32
533.171	1003.89
533.376	965.14
533.581	945.18
533.787	989.94
533.992	1041.08
534.197	1045.35
534.402	994.2
534.607	1004.85
534.813	1123.23
535.018	1007.95
535.223	1000.79
535.428	1035.47
535.633	1061.62
535.838	1062.01
536.043	1064.33
536.249	1140.86
536.454	1053.87
536.659	1092.23
536.864	1041.86
537.069	1058.33
537.274	1092.23
537.479	1063.37
537.684	1081.77
537.889	998.27
538.094	1147.65
538.299	1066.47
538.504	1107.93
538.708	1087.58
538.913	1107.93
539.118	1084.48
539.323	1144.35
539.528	1064.72
539.733	1068.6
539.938	1107.73
540.142	1081.38
540.347	1073.05
540.552	1034.5
540.757	1065.88
540.962	1062.98
541.166	1009.12
541.371	1055.81
541.576	1073.63
541.781	992.45
541.985	1070.15
542.19	1076.35
542.395	1167.41
542.599	1163.92
542.804	1109.67
543.008	1150.94
543.213	1056
543.418	1062.2
543.622	1139.12
543.827	1085.26
544.031	1165.86
544.236	1129.63
544.44	1118.97
544.645	1190.46
544.849	1100.37
545.054	1128.85
545.258	1231.15
545.463	1166.83
545.667	1116.26
545.872	1143.96
546.076	1138.73
546.281	1148.61
546.485	1100.56
546.689	1154.43
546.894	1192.98
547.098	1157.14
547.302	1090.88
547.507	1153.07
547.711	1141.83
547.915	1200.73
548.119	1098.43
548.324	1103.47
548.528	1206.16
548.732	1149.58
548.936	1186.98
549.141	1201.89
549.345	1151.52
549.549	1139.51
549.753	1166.05
549.957	1220.88
550.161	1237.16
550.366	1134.28
550.57	1158.11
550.774	1120.13
550.978	1104.44
551.182	1191.82
551.386	1139.51
551.59	1131.95
551.794	1131.18
551.998	1170.31
552.202	1151.91
552.406	1102.31
552.61	1175.35
552.814	1176.51
553.018	1233.09
553.222	1147.06
553.426	1128.66
553.63	1255.56
553.833	1154.43
554.037	1092.23
554.241	1220.88
554.445	1143.58
554.649	1113.35
554.853	1135.44
555.056	1213.71
555.26	1205.96
555.464	1181.55
555.668	1173.8
555.871	1192.79
556.075	1192.01
556.279	1148.42
556.483	1135.63
556.686	1151.91
556.89	1176.32
557.094	1190.08
557.297	1097.27
557.501	1191.04
557.704	1078.87
557.908	1206.54
558.112	1133.11
558.315	1224.56
558.519	1118.39
558.722	1177.87
558.926	1149.39
559.129	1086.03
559.333	1056.2
559.536	1090.49
559.74	1095.92
559.943	1067.24
560.147	1071.89
560.35	1123.04
560.553	1083.52
560.757	1079.45
560.96	1149.58
561.164	1089.13
561.367	1164.5
561.57	1055.03
561.774	1157.14
561.977	1101.73
562.18	1071.5
562.384	1159.46
562.587	1106.96
562.79	1074.22
562.993	1085.26
563.197	1158.5
563.4	1140.48
563.603	1155.4
563.806	1175.74
564.009	1084.68
564.212	1121.68
564.416	1036.05
564.619	1133.11
564.822	1023.45
565.025	1160.63
565.228	1074.8
565.431	1069.37
565.634	1003.5
565.837	1075.18
566.04	1066.47
566.243	1036.43
566.446	979.67
566.649	1069.76
566.852	992.07
567.055	1010.09
567.258	1074.6
567.461	1099.21
567.664	1133.5
567.867	986.25
568.07	1048.25
568.273	1071.31
568.475	1074.22
568.678	1036.24
568.881	1056.58
569.084	1048.64
569.287	956.22
569.489	954.29
569.692	1015.9
569.895	1037.98
570.098	991.49
570.3	986.25
570.503	941.5
570.706	964.55
570.909	943.82
571.111	953.51
571.314	912.82
571.516	953.51
571.719	982.57
571.922	927.16
572.124	927.55
572.327	989.35
572.529	934.91
572.732	924.84
572.935	949.83
573.137	1005.24
573.34	911.08
573.542	957.97
573.745	1000.4
573.947	975.79
574.15	972.89
574.352	909.14
574.554	1047.09
574.757	936.07
574.959	936.65
575.162	924.84
575.364	912.44
575.566	995.17
575.769	887.25
575.971	935.49
576.173	850.24
576.376	906.43
576.578	963.78
576.78	987.22
576.982	846.76
577.185	895.58
577.387	878.53
577.589	868.65
577.791	933.75
577.993	943.24
578.196	897.32
578.398	926.58
578.6	948.09
578.802	869.81
579.004	869.23
579.206	875.82
579.408	919.22
579.61	857.02
579.812	938.98
580.014	867.29
580.216	866.91
580.418	885.31
580.62	871.94
580.822	819.83
581.024	900.23
581.226	919.41
581.428	881.24
581.63	982.77
581.832	848.5
582.034	955.84
582.236	902.75
582.438	978.89
582.64	944.02
582.841	974.82
583.043	982.96
583.245	969.59
583.447	932
583.649	898.49
583.85	907.4
584.052	973.27
584.254	890.93
584.456	944.4
584.657	899.65
584.859	897.71
585.061	890.93
585.262	900.81
585.464	885.31
585.666	932.2
585.867	896.16
586.069	968.04
586.27	895.97
586.472	899.26
586.674	875.62
586.875	912.44
587.077	844.24
587.278	907.21
587.48	867.87
587.681	996.72
587.883	909.72
588.084	818.47
588.285	892.67
588.487	883.76
588.688	867.49
588.89	807.81
589.091	777.01
589.292	825.25
589.494	825.06
589.695	820.41
589.896	716.56
590.098	734.19
590.299	808.39
590.5	764.41
590.702	786.5
590.903	812.27
591.104	834.55
591.305	813.24
591.507	864.19
591.708	862.84
591.909	827.38
592.11	874.85
592.311	853.15
592.512	817.11
592.714	773.33
592.915	810.33
593.116	789.21
593.317	804.52
593.518	795.41
593.719	816.14
593.92	837.26
594.121	889.77
594.322	822.54
594.523	833.39
594.724	797.16
594.925	805.88
595.126	826.99
595.327	809.94
595.528	859.93
595.729	841.72
595.929	826.99
596.13	817.31
596.331	827.19
596.532	817.89
596.733	878.92
596.934	857.41
597.135	858.77
597.335	834.16
597.536	807.62
597.737	837.26
597.938	809.36
598.138	850.05
598.339	802
598.54	852.37
598.74	803.16
598.941	840.17
599.142	858.38
599.342	855.28
599.543	775.26
599.744	819.63
599.944	787.66
600.145	781.66
600.345	820.79
600.546	883.96
600.746	876.4
600.947	896.16
601.147	859.54
601.348	863.03
601.548	781.46
601.749	820.6
601.949	797.74
602.15	812.08
602.35	817.69
602.551	855.86
602.751	765.77
602.951	801.81
603.152	752.21
603.352	832.23
603.552	830.68
603.753	878.34
603.953	862.45
604.153	820.02
604.354	815.95
604.554	785.34
604.754	835.91
604.954	791.93
605.155	848.89
605.355	795.03
605.555	849.08
605.755	884.54
605.955	804.13
606.155	879.11
606.356	818.28
606.556	845.21
606.756	855.47
606.956	765.38
607.156	848.11
607.356	783.21
607.556	803.55
607.756	829.9
607.956	856.64
608.156	815.18
608.356	821.57
608.556	853.54
608.756	825.44
608.956	793.67
609.156	789.41
609.356	779.33
609.556	791.73
609.755	819.05
609.955	788.83
610.155	780.88
610.355	810.53
610.555	782.63
610.755	785.14
610.954	748.33
611.154	782.82
611.354	815.56
611.554	768.29
611.753	785.73
611.953	742.33
612.153	787.08
612.352	812.85
612.552	759.57
612.752	706.29
612.951	763.83
613.151	746.2
613.351	760.73
613.55	768.29
613.75	807.23
613.949	766.16
614.149	797.74
614.348	767.9
614.548	711.13
614.747	692.53
614.947	768.48
615.146	684.78
615.346	779.91
615.545	739.61
615.745	789.6
615.944	800.06
616.144	724.11
616.343	762.28
616.542	709
616.742	763.83
616.941	751.24
617.14	702.03
617.34	757.05
617.539	758.99
617.738	733.8
617.938	780.3
618.137	731.09
618.336	692.92
618.535	752.21
618.734	739.23
618.934	751.43
619.133	743.88
619.332	745.81
619.531	713.07
619.73	711.71
619.929	778.75
620.128	747.75
620.328	795.99
620.527	706.87
620.726	708.23
620.925	749.5
621.124	720.63
621.323	721.01
621.522	681.68
621.721	705.51
621.92	686.33
622.119	715.01
622.318	679.36
622.517	703.77
622.715	715.59
622.914	684.98
623.113	691.37
623.312	628.6
623.511	707.84
623.71	680.91
623.909	684.01
624.107	749.88
624.306	668.12
624.505	680.33
624.704	696.6
624.902	653.2
625.101	734.38
625.3	694.47
625.499	650.88
625.697	658.43
625.896	673.93
626.095	685.95
626.293	626.47
626.492	651.07
626.69	699.31
626.889	630.53
627.088	696.6
627.286	671.41
627.485	659.21
627.683	649.72
627.882	668.51
628.08	607.67
628.279	637.9
628.477	719.85
628.676	627.43
628.874	680.71
629.073	608.64
629.271	604.77
629.469	694.66
629.668	652.04
629.866	626.27
630.065	638.67
630.263	691.37
630.461	618.72
630.66	653.98
630.858	670.06
631.056	690.4
631.254	703.96
631.453	605.54
631.651	673.16
631.849	659.21
632.047	674.32
632.245	648.17
632.444	665.41
632.642	669.09
632.84	704.74
633.038	610.77
633.236	619.49
633.434	613.87
633.632	598.18
633.83	622.4
634.028	681.3
634.227	659.02
634.425	717.14
634.623	667.93
634.821	653.59
635.019	669.09
635.216	615.81
635.414	660.76
635.612	658.82
635.81	653.59
636.008	694.66
636.206	627.24
636.404	670.25
636.602	614.07
636.8	644.1
636.997	662.5
637.195	697.96
637.393	665.41
637.591	708.42
637.789	678
637.986	636.15
638.184	645.84
638.382	716.56
638.58	687.88
638.777	741.55
638.975	662.5
639.173	640.61
639.37	672.77
639.568	676.84
639.765	668.7
639.963	619.49
640.161	712.1
640.358	688.85
640.556	597.02
640.753	622.78
640.951	600.7
641.148	642.74
641.346	637.12
641.543	622.59
641.741	654.17
641.938	601.67
642.136	640.03
642.333	587.33
642.531	705.51
642.728	671.41
642.925	657.85
643.123	602.63
643.32	660.18
643.517	625.11
643.715	645.84
643.912	610.77
644.109	644.29
644.306	614.07
644.504	593.33
644.701	608.06
644.898	642.93
645.095	632.67
645.293	631.12
645.49	667.73
645.687	628.98
645.884	643.13
646.081	571.83
646.278	586.55
646.475	612.71
646.672	603.99
646.87	644.87
647.067	620.85
647.264	608.83
647.461	557.88
647.658	550.71
647.855	640.03
648.052	564.85
648.249	510.22
648.446	595.47
648.642	554.2
648.839	562.34
649.036	558.65
649.233	540.44
649.43	548.58
649.627	527.65
649.824	562.34
650.021	535.02
650.217	545.67
650.414	547.03
650.611	595.47
650.808	582.29
651.004	570.86
651.201	590.04
651.398	659.21
651.595	565.24
651.791	528.43
651.988	572.02
652.185	555.94
652.381	560.79
652.578	545.09
652.775	558.85
652.971	542.38
653.168	565.24
653.364	600.31
653.561	522.62
653.757	558.65
653.954	571.25
654.15	552.07
654.347	632.86
654.543	559.43
654.74	523.78
654.936	519.32
655.133	552.45
655.329	575.32
655.525	537.54
655.722	609.03
655.918	518.74
656.115	575.9
656.311	490.26
656.507	442.6
656.704	440.47
656.9	481.54
657.096	466.04
657.292	483.87
657.489	509.25
657.685	504.99
657.881	507.31
658.077	506.92
658.273	529.01
658.47	582.1
658.666	504.4
658.862	548.97
659.058	508.47
659.254	570.09
659.45	512.35
659.646	546.84
659.842	538.7
660.038	570.86
660.234	471.66
660.43	524.75
660.626	596.24
660.822	537.34
661.018	568.73
661.214	520.68
661.41	481.16
661.606	552.26
661.802	592.37
661.998	512.54
662.194	488.9
662.39	532.11
662.586	522.42
662.781	566.6
662.977	553.62
663.173	533.08
663.369	559.24
663.564	537.73
663.76	565.63
663.956	507.7
664.152	547.61
664.347	477.86
664.543	534.44
664.739	518.94
664.934	479.22
665.13	466.43
665.326	542.38
665.521	530.17
665.717	488.71
665.912	473.41
666.108	429.81
666.304	506.54
666.499	524.17
666.695	440.86
666.89	485.03
667.086	532.69
667.281	519.13
667.477	598.95
667.672	539.47
667.867	504.6
668.063	529.01
668.258	453.84
668.454	501.3
668.649	578.42
668.844	504.6
669.04	515.84
669.235	507.12
669.43	497.04
669.626	440.08
669.821	499.75
670.016	452.09
670.211	511.57
670.407	453.45
670.602	504.6
670.797	492.2
670.992	510.6
671.187	471.08
671.382	513.9
671.578	469.72
671.773	509.25
671.968	435.82
672.163	490.07
672.358	518.74
672.553	445.31
672.748	449.38
672.943	541.6
673.138	467.4
673.333	526.49
673.528	479.41
673.723	485.03
673.918	496.65
674.113	446.47
674.308	574.35
674.503	527.27
674.698	516.42
674.892	502.08
675.087	507.31
675.282	504.02
675.477	434.66
675.672	501.89
675.867	459.46
676.061	467.21
676.256	437.76
676.451	468.76
676.646	467.98
676.84	434.66
677.035	419.74
677.23	439.5
677.424	469.34
677.619	498.79
677.814	479.61
678.008	527.27
678.203	385.25
678.397	456.55
678.592	493.55
678.787	522.42
678.981	459.46
679.176	492
679.37	473.79
679.565	443.76
679.759	448.41
679.954	479.02
680.148	563.5
680.342	529.79
680.537	503.63
680.731	472.44
680.926	509.25
681.12	507.7
681.314	460.62
681.509	478.83
681.703	480.38
681.897	513.51
682.092	455.97
682.286	465.27
682.48	542.57
682.674	529.59
682.869	466.24
683.063	511.19
683.257	542.77
683.451	448.8
683.645	472.63
683.839	489.68
684.034	494.33
684.228	540.05
684.422	434.85
684.616	442.6
684.81	498.98
685.004	464.3
685.198	511.96
685.392	490.07
685.586	464.11
685.78	472.24
685.974	509.83
686.168	507.89
686.362	529.01
686.556	453.84
686.75	417.41
686.944	399.59
687.138	445.51
687.331	358.9
687.525	384.09
687.719	342.63
687.913	392.03
688.107	413.92
688.301	372.27
688.494	427.87
688.688	385.06
688.882	344.37
689.076	317.83
689.269	428.26
689.463	468.56
689.657	411.99
689.85	390.48
690.044	394.74
690.238	418.96
690.431	408.5
690.625	403.27
690.818	438.53
691.012	460.62
691.205	458.87
691.399	381.18
691.593	467.4
691.786	511.19
691.98	481.93
692.173	517.58
692.366	494.91
692.56	497.43
692.753	557.1
692.947	464.49
693.14	538.31
693.333	547.61
693.527	455.97
693.72	517.19
693.914	511.57
694.107	509.44
694.3	521.45
694.493	503.82
694.687	574.93
694.88	497.62
695.073	574.15
695.266	593.53
695.46	523.78
695.653	591.4
695.846	579.58
696.039	509.25
696.232	527.07
696.425	608.64
696.618	596.82
696.812	586.36
697.005	647.58
697.198	688.85
697.391	614.84
697.584	653.2
697.777	705.71
697.97	663.66
698.163	695.25
698.356	658.05
698.549	726.25
698.742	713.85
698.935	664.63
699.127	705.9
699.32	702.03
699.513	659.98
699.706	707.45
699.899	738.45
700.092	677.81
700.285	741.16
700.477	654.17
700.67	718.5
700.863	732.83
701.056	843.66
701.248	784.95
701.441	769.06
701.634	735.74
701.826	848.89
702.019	719.85
702.212	775.84
702.404	766.74
702.597	770.03
702.79	788.83
702.982	789.41
703.175	853.34
703.367	818.66
703.56	848.11
703.752	927.35
703.945	870.78
704.137	880.47
704.33	888.22
704.522	901.39
704.715	920.57
704.907	909.92
705.1	989.16
705.292	931.23
705.484	919.02
705.677	986.06
705.869	986.06
706.061	1031.98
706.254	1055.62
706.446	1008.54
706.638	1026.55
706.831	1096.11
707.023	999.62
707.215	1076.35
707.407	1104.83
707.599	1074.99
707.792	1096.11
707.984	1081.97
708.176	1133.7
708.368	1087.2
708.56	1136.99
708.752	1135.05
708.944	1139.9
709.136	1157.14
709.329	1152.68
709.521	1271.26
709.713	1222.04
709.905	1226.11
710.097	1260.41
710.289	1194.53
710.481	1222.82
710.672	1280.36
710.864	1257.5
711.056	1342.17
711.248	1279.59
711.44	1300.32
711.632	1303.81
711.824	1322.79
712.016	1388.47
712.207	1387.31
712.399	1337.13
712.591	1434.97
712.783	1393.9
712.975	1423.54
713.166	1362.9
713.358	1393.51
713.55	1461.9
713.741	1435.36
713.933	1446.79
714.125	1432.07
714.316	1438.46
714.508	1522.93
714.7	1488.25
714.891	1514.22
715.083	1567.3
715.274	1518.28
715.466	1500.07
715.657	1554.13
715.849	1434.59
716.04	1536.3
716.232	1447.57
716.423	1542.5
716.615	1457.45
716.806	1449.31
716.998	1425.29
717.189	1383.82
717.381	1329.19
717.572	1325.31
717.763	1339.26
717.955	1314.07
718.146	1288.69
718.337	1219.14
718.528	1217.59
718.72	1172.06
718.911	1249.75
719.102	1182.91
719.293	1250.33
719.485	1248.01
719.676	1232.89
719.867	1208.68
720.058	1198.99
720.249	1220.88
720.44	1215.65
720.632	1274.36
720.823	1318.14
721.014	1403.78
721.205	1396.42
721.396	1446.99
721.587	1512.47
721.778	1557.42
721.969	1601.98
722.16	1618.26
722.351	1601.4
722.542	1752.72
722.733	1725.98
722.924	1645.38
723.115	1709.32
723.305	1697.11
723.496	1698.86
723.687	1601.4
723.878	1627.17
724.069	1617.29
724.26	1663.79
724.45	1572.15
724.641	1557.03
724.832	1610.7
725.023	1571.37
725.213	1615.35
725.404	1596.95
725.595	1571.95
725.785	1568.08
725.976	1625.04
726.167	1634.14
726.357	1631.82
726.548	1701.38
726.739	1641.89
726.929	1671.34
727.12	1735.09
727.31	1762.41
727.501	1690.91
727.691	1724.43
727.882	1748.26
728.072	1749.81
728.263	1750.97
728.453	1793.79
728.644	1804.25
728.834	1757.56
729.024	1738.38
729.215	1742.26
729.405	1776.55
729.596	1862.57
729.786	1838.55
729.976	1899.58
730.167	1884.66
730.357	1817.24
730.547	1869.55
730.737	1877.88
730.928	1887.95
731.118	1956.15
731.308	1922.44
731.498	1880.98
731.688	1990.83
731.879	1972.23
732.069	2028.03
732.259	2060
732.449	2066.39
732.639	2134.21
732.829	2164.82
733.019	2158.04
733.209	2214.61
733.399	2211.9
733.589	2265.76
733.779	2304.7
733.969	2279.9
734.159	2334.54
734.349	2376.2
734.539	2426.18
734.729	2401.58
734.919	2421.73
735.109	2509.3
735.299	2418.24
735.488	2469.58
735.678	2455.25
735.868	2417.46
736.058	2472.88
736.248	2452.34
736.437	2383.75
736.627	2397.12
736.817	2517.24
737.007	2484.89
737.196	2537.98
737.386	2493.8
737.576	2447.3
737.765	2534.29
737.955	2488.76
738.144	2608.5
738.334	2601.14
738.524	2512.79
738.713	2574.79
738.903	2544.76
739.092	2588.74
739.282	2624
739.471	2590.87
739.661	2581.38
739.85	2597.65
740.04	2615.67
740.229	2646.09
740.419	2678.25
740.608	2728.43
740.797	2672.05
740.987	2733.66
741.176	2722.23
741.365	2662.75
741.555	2645.31
741.744	2705.95
741.933	2687.94
742.123	2747.42
742.312	2764.08
742.501	2775.12
742.69	2780.74
742.88	2707.5
743.069	2832.47
743.258	2748.19
743.447	2801.67
743.636	2789.65
743.825	2741.6
744.014	2829.18
744.204	2787.72
744.393	2751.29
744.582	2829.57
744.771	2850.49
744.96	2809.8
745.149	2869.86
745.338	2786.55
745.527	2845.07
745.716	2815.62
745.905	2814.07
746.094	2861.73
746.283	2848.75
746.471	2844.68
746.66	2891.56
746.849	2870.25
747.038	2920.63
747.227	2829.57
747.416	2912.1
747.604	2835.38
747.793	2867.73
747.982	2883.43
748.171	2854.75
748.359	2911.71
748.548	2890.79
748.737	2868.31
748.926	2862.11
749.114	2783.45
749.303	2899.31
749.491	2862.89
749.68	2798.95
749.869	2886.14
750.057	2826.47
750.246	2828.79
750.434	2847.2
750.623	2868.31
750.811	2811.74
751	2856.11
751.188	2806.7
751.377	2848.55
751.565	2789.27
751.754	2746.64
751.942	2772.8
752.131	2837.32
752.319	2769.89
752.507	2757.69
752.696	2826.08
752.884	2844.29
753.072	2783.84
753.261	2810.58
753.449	2826.85
753.637	2776.87
753.825	2836.93
754.014	2779.19
754.202	2785
754.39	2860.18
754.578	2834.41
754.766	2783.84
754.955	2729.59
755.143	2850.88
755.331	2769.12
755.519	2807.87
755.707	2753.04
755.895	2779.58
756.083	2804.96
756.271	2728.43
756.459	2782.29
756.647	2805.15
756.835	2724.55
757.023	2754
757.211	2748
757.399	2707.89
757.587	2737.73
757.775	2669.92
757.963	2701.3
758.151	2722.23
758.339	2672.63
758.526	2675.34
758.714	2682.51
758.902	2632.72
759.09	2543.21
759.278	2367.87
759.465	2208.02
759.653	1916.63
759.841	1769.96
760.028	1479.15
760.216	1270.09
760.404	1246.84
760.591	1034.69
760.779	840.36
760.967	763.06
761.154	631.7
761.342	677.61
761.529	642.93
761.717	697.96
761.905	660.95
762.092	734.38
762.28	695.25
762.467	701.45
762.655	643.71
762.842	665.6
763.029	715.78
763.217	660.76
763.404	720.05
763.592	732.45
763.779	669.28
763.966	706.87
764.154	765.38
764.341	812.46
764.528	820.79
764.716	884.34
764.903	907.98
765.09	943.05
765.277	956.8
765.465	1163.73
765.652	1152.88
765.839	1200.54
766.026	1338.87
766.213	1367.16
766.4	1445.44
766.588	1612.25
766.775	1602.76
766.962	1673.48
767.149	1733.73
767.336	1907.72
767.523	1837
767.71	1922.44
767.897	2041.01
768.084	2086.35
768.271	2108.05
768.458	2184.58
768.645	2203.76
768.832	2190.59
769.019	2213.64
769.206	2281.45
769.392	2286.69
769.579	2394.02
769.766	2315.94
769.953	2351.78
770.14	2394.8
770.327	2376.2
770.513	2420.76
770.7	2496.13
770.887	2447.5
771.073	2465.9
771.26	2394.6
771.447	2401.38
771.634	2403.32
771.82	2506.01
772.007	2392.08
772.193	2414.36
772.38	2525.77
772.567	2419.01
772.753	2433.93
772.94	2484.31
773.126	2468.03
773.313	2495.35
773.499	2511.04
773.686	2504.65
773.872	2419.6
774.059	2430.83
774.245	2387.82
774.432	2416.69
774.618	2320.4
774.804	2431.8
774.991	2378.52
775.177	2417.85
775.363	2403.71
775.55	2452.92
775.736	2379.1
775.922	2397.32
776.109	2406.03
776.295	2406.23
776.481	2416.88
776.667	2419.79
776.853	2384.92
777.04	2358.76
777.226	2379.1
777.412	2461.64
777.598	2357.21
777.784	2329.5
777.97	2348.49
778.156	2348.3
778.342	2337.64
778.528	2366.32
778.715	2268.47
778.901	2268.67
779.087	2370.58
779.272	2289.98
779.458	2302.77
779.644	2325.43
779.83	2277.39
780.016	2373.68
780.202	2312.26
780.388	2294.82
780.574	2210.93
780.76	2246.58
780.946	2314.59
781.131	2266.15
781.317	2270.41
781.503	2252.97
781.689	2221.97
781.874	2369.61
782.06	2264.6
782.246	2282.04
782.432	2237.09
782.617	2253.75
782.803	2301.8
782.989	2210.74
783.174	2250.65
783.36	2164.43
783.545	2228.95
783.731	2200.86
783.916	2175.67
784.102	2207.64
784.288	2184.77
784.473	2192.52
784.659	2149.12
784.844	2208.61
785.029	2144.48
785.215	2143.89
785.4	2074.92
785.586	2199.89
785.771	2111.93
785.956	2131.69
786.142	2125.49
786.327	2144.09
786.512	2118.13
786.698	2093.33
786.883	2075.89
787.068	2091.39
787.254	2109.99
787.439	2096.23
787.624	2097.59
787.809	2039.27
787.994	2074.34
788.18	2130.53
788.365	2015.63
788.55	2056.32
788.735	2054.58
788.92	2025.71
789.105	2022.8
789.29	2048.96
789.475	1986.38
789.66	1992.96
789.845	1950.92
790.03	1947.82
790.215	2029.78
790.4	2034.04
790.585	2050.31
790.77	2024.35
790.955	1944.14
791.14	1984.05
791.325	2021.64
791.51	1888.92
791.695	1990.25
791.879	1967.97
792.064	1930.38
792.249	1994.13
792.434	1949.95
792.618	1952.47
792.803	2003.81
792.988	1939.49
793.173	1957.51
793.357	1975.33
793.542	1947.05
793.727	1977.08
793.911	1993.35
794.096	1950.53
794.281	1976.69
794.465	2050.51
794.65	1945.88
794.834	1994.13
795.019	2035.2
795.203	2008.46
795.388	2019.7
795.572	2074.53
795.757	1983.66
795.941	2036.17
796.126	2011.95
796.31	1935.62
796.494	1982.7
796.679	1996.84
796.863	1953.83
797.048	2060
797.232	1975.14
797.416	1980.37
797.601	1972.62
797.785	2022.22
797.969	2039.66
798.153	1968.17
798.338	2003.43
798.522	2028.03
798.706	2076.66
798.89	2049.54
799.074	2116.38
799.258	2022.22
799.443	2058.84
799.627	2036.56
799.811	2091.78
799.995	2008.66
800.179	2007.5
800.363	2025.13
800.547	2039.08
800.731	2031.71
800.915	1961.58
801.099	2000.13
801.283	2015.44
801.467	2028.81
801.651	1977.66
801.835	2074.53
802.019	2010.79
802.202	2057.87
802.386	2001.68
802.57	1992.19
802.754	1969.33
802.938	1988.7
803.121	1980.56
803.305	2078.79
803.489	2005.75
803.673	1992.58
803.856	2020.28
804.04	1976.88
804.224	2032.1
804.407	1973.98
804.591	1974.56
804.775	1989.28
804.958	1985.21
805.142	2108.24
805.326	2012.34
805.509	2047.02
805.693	2022.8
805.876	2069.88
806.06	2002.85
806.243	2071.63
806.427	2070.46
806.61	2029.78
806.794	1987.35
806.977	2060.97
807.16	2046.83
807.344	2029.2
807.527	2033.26
807.71	1977.85
807.894	2029
808.077	2063.29
808.26	1967.78
808.444	1961.77
808.627	2037.91
808.81	1998.58
808.993	1914.3
809.177	1926.7
809.36	1969.52
809.543	1983.08
809.726	1873.04
809.909	1902.1
810.092	1856.95
810.276	1883.3
810.459	1912.56
810.642	1870.32
810.825	1871.49
811.008	1878.85
811.191	1810.84
811.374	1827.12
811.557	1813.36
811.74	1888.34
811.923	1757.95
812.106	1761.82
812.289	1744.97
812.472	1739.35
812.654	1762.6
812.837	1753.3
813.02	1672.31
813.203	1682.58
813.386	1559.75
813.569	1578.93
813.751	1514.22
813.934	1600.05
814.117	1513.83
814.3	1487.87
814.482	1490.77
814.665	1456.09
814.848	1409.2
815.03	1366.77
815.213	1423.54
815.396	1377.43
815.578	1388.47
815.761	1307.1
815.943	1380.92
816.126	1320.66
816.309	1302.45
816.491	1256.73
816.674	1203.25
816.856	1257.69
817.039	1231.54
817.221	1319.31
817.403	1281.33
817.586	1247.81
817.768	1305.36
817.951	1216.43
818.133	1218.75
818.315	1227.66
818.498	1251.3
818.68	1341.59
818.862	1283.46
819.045	1330.74
819.227	1280.75
819.409	1273
819.591	1342.75
819.774	1254.59
819.956	1250.91
820.138	1319.11
820.32	1313.69
820.502	1359.61
820.684	1426.84
820.866	1397.97
821.048	1462.48
821.231	1467.33
821.413	1431.1
821.595	1406.3
821.777	1444.66
821.959	1379.75
822.141	1466.75
822.323	1356.89
822.505	1307.87
822.686	1302.45
822.868	1220.3
823.05	1154.81
823.232	1116.06
823.414	1069.57
823.596	1139.31
823.778	1135.25
823.96	1126.14
824.141	1115.68
824.323	1194.92
824.505	1243.36
824.687	1252.08
824.868	1277.46
825.05	1370.84
825.232	1396.03
825.413	1437.1
825.595	1407.07
825.777	1351.86
825.958	1379.75
826.14	1360.57
826.321	1406.49
826.503	1384.79
826.685	1396.61
826.866	1421.22
827.048	1414.44
827.229	1356.31
827.411	1331.12
827.592	1299.74
827.773	1313.49
827.955	1282.3
828.136	1279.97
828.318	1250.14
828.499	1292.18
828.68	1242.39
828.862	1240.06
829.043	1252.46
829.224	1244.13
829.406	1240.45
829.587	1215.07
829.768	1230.76
829.949	1244.33
830.131	1242.39
830.312	1310.2
830.493	1240.06
830.674	1248.59
830.855	1254.01
831.036	1236.77
831.218	1339.26
831.399	1321.24
831.58	1265.64
831.761	1263.51
831.942	1257.5
832.123	1242
832.304	1199.96
832.485	1251.49
832.666	1233.09
832.847	1275.32
833.028	1246.07
833.209	1254.98
833.389	1243.55
833.57	1187.94
833.751	1199.96
833.932	1283.85
834.113	1242.97
834.294	1238.51
834.475	1262.15
834.655	1290.05
834.836	1286.95
835.017	1283.66
835.198	1227.28
835.378	1242.58
835.559	1299.93
835.74	1286.37
835.92	1245.29
836.101	1242
836.281	1284.24
836.462	1264.67
836.643	1277.26
836.823	1381.3
837.004	1314.46
837.184	1338.29
837.365	1339.26
837.545	1350.89
837.726	1298.96
837.906	1338.49
838.087	1333.06
838.267	1277.07
838.448	1255.18
838.628	1296.06
838.808	1240.84
838.989	1354.18
839.169	1263.7
839.349	1328.61
839.53	1353.21
839.71	1297.22
839.89	1287.34
840.07	1354.96
840.251	1328.22
840.431	1317.95
840.611	1306.71
840.791	1300.71
840.971	1323.57
841.151	1271.26
841.332	1270.48
841.512	1333.84
841.692	1231.73
841.872	1277.65
842.052	1282.3
842.232	1315.43
842.412	1220.69
842.592	1269.71
842.772	1285.98
842.952	1293.34
843.132	1261.57
843.312	1256.14
843.492	1221.27
843.672	1316.21
843.851	1186.01
844.031	1258.86
844.211	1272.23
844.391	1241.61
844.571	1247.23
844.751	1286.56
844.93	1272.03
845.11	1258.86
845.29	1251.3
845.47	1268.54
845.649	1228.83
845.829	1286.76
846.009	1229.21
846.188	1251.3
846.368	1264.86
846.547	1243.74
846.727	1289.27
846.907	1220.11
847.086	1260.21
847.266	1263.7
847.445	1220.3
847.625	1214.49
847.804	1235.03
847.984	1244.33
848.163	1190.66
848.343	1218.17
848.522	1218.36
848.701	1240.06
848.881	1176.32
849.06	1214.88
849.239	1227.28
849.419	1231.93
849.598	1148.42
849.777	1159.27
849.957	1194.53
850.136	1133.11
850.315	1087.97
850.494	1088.75
850.674	1088.17
850.853	1187.94
851.032	1124.01
851.211	1181.55
851.39	1174.38
851.569	1115.68
851.748	1118.39
851.927	1187.75
852.107	1167.8
852.286	1112
852.465	1092.43
852.644	1179.81
852.823	1159.08
853.002	1130.79
853.181	1137.76
853.359	1156.95
853.538	1092.23
853.717	1170.9
853.896	1060.85
854.075	1015.12
854.254	1019.97
854.433	933.94
854.611	990.52
854.79	944.4
854.969	1006.4
855.148	1029.27
855.327	966.49
855.505	1036.43
855.684	1022.68
855.863	1048.06
856.041	998.85
856.22	1081.38
856.399	1018.42
856.577	1118.78
856.756	1102.31
856.934	1229.21
857.113	1179.81
857.291	1098.05
857.47	1068.21
857.648	1090.3
857.827	1076.54
858.005	1129.63
858.184	1078.67
858.362	1154.23
858.541	1079.06
858.719	1071.12
858.898	1102.89
859.076	1083.52
859.254	1125.75
859.433	1063.17
859.611	1065.69
859.789	1021.71
859.967	1154.04
860.146	1167.02
860.324	1027.52
860.502	1067.05
860.68	994.78
860.859	1009.5
861.037	1019.38
861.215	1054.45
861.393	1074.8
861.571	1023.07
861.749	1019.38
861.927	1064.33
862.105	1064.53
862.283	1020.55
862.461	1013.96
862.639	985.67
862.817	1015.51
862.995	1010.09
863.173	1018.8
863.351	1017.83
863.529	1010.28
863.707	1055.42
863.885	1020.16
864.063	965.91
864.241	970.37
864.418	1079.83
864.596	972.5
864.774	943.82
864.952	1025.78
865.129	1015.7
865.307	1001.95
865.485	902.75
865.663	1046.9
865.84	917.67
866.018	960.68
866.196	823.89
866.373	876.98
866.551	860.51
866.728	794.44
866.906	837.46
867.084	875.24
867.261	934.72
867.439	945.37
867.616	943.05
867.794	904.11
867.971	899.65
868.149	917.09
868.326	980.05
868.503	998.27
868.681	980.64
868.858	913.99
869.035	872.91
869.213	931.62
869.39	945.37
869.567	961.26
869.745	894.22
869.922	917.09
870.099	967.07
870.276	984.7
870.454	948.86
870.631	966.88
870.808	930.07
870.985	954.87
871.162	980.83
871.339	981.02
871.517	901.01
871.694	921.93
871.871	906.43
872.048	891.71
872.225	902.94
872.402	923.67
872.579	842.11
872.756	898.87
872.933	886.09
873.11	919.41
873.287	897.13
873.463	897.91
873.64	855.86
873.817	933.94
873.994	860.71
874.171	840.36
874.348	901.78
874.524	849.27
874.701	899.07
874.878	808.98
875.055	885.12
875.231	868.65
875.408	884.34
875.585	804.52
875.762	872.52
875.938	845.21
876.115	851.02
876.291	834.55
876.468	852.57
876.645	810.14
876.821	820.41
876.998	848.11
877.174	874.85
877.351	858.57
877.527	814.98
877.704	846.76
877.88	826.61
878.057	803.74
878.233	891.71
878.409	801.23
878.586	818.28
878.762	839.59
878.938	811.3
879.115	757.83
879.291	805.1
879.467	771.19
879.644	789.79
879.82	827.77
879.996	772.74
880.172	736.71
880.349	784.76
880.525	819.44
880.701	773.33
880.877	776.43
881.053	821.96
881.229	781.85
881.405	831.84
881.581	759.38
881.757	772.94
881.933	769.26
882.109	785.92
882.285	789.6
882.461	748.14
882.637	764.03
882.813	747.17
882.989	754.53
883.165	839.01
883.341	733.03
883.517	810.53
883.693	800.84
883.869	830.48
884.044	748.72
884.22	800.64
884.396	822.15
884.572	761.7
884.747	823.7
884.923	787.66
885.099	825.06
885.275	837.84
885.45	752.01
885.626	777.39
885.801	764.03
885.977	773.33
886.153	717.72
886.328	755.89
886.504	736.51
886.679	786.89
886.855	742.33
887.03	773.33
887.206	816.34
887.381	789.99
887.557	796.58
887.732	796.19
887.908	759.38
888.083	770.61
888.258	767.9
888.434	744.65
888.609	789.6
888.784	837.84
888.96	762.86
889.135	742.71
889.31	737.87
889.485	770.81
889.661	765.58
889.836	822.34
890.011	787.08
890.186	737.48
890.361	740.2
890.537	755.89
890.712	767.32
890.887	814.21
891.062	761.51
891.237	838.62
891.412	746.01
891.587	791.34
891.762	780.49
891.937	819.63
892.112	730.12
892.287	758.79
892.462	724.31
892.637	698.54
892.812	684.4
892.987	726.63
893.161	699.12
893.336	710.55
893.511	734.38
893.686	696.8
893.861	689.05
894.035	676.45
894.21	696.41
894.385	653.98
894.56	692.15
894.734	654.17
894.909	647
895.084	618.91
895.258	628.6
895.433	630.15
895.608	625.88
895.782	578.22
895.957	624.72
896.131	595.66
896.306	520.1
896.48	542.77
896.655	558.07
896.829	485.61
897.004	502.85
897.178	525.72
897.353	505.37
897.527	552.65
897.701	527.27
897.876	462.94
898.05	572.41
898.224	550.9
898.399	562.14
898.573	507.7
898.747	416.25
898.921	495.3
899.096	408.5
899.27	429.62
899.444	424.77
899.618	429.81
899.792	458.1
899.967	449.96
900.141	490.65
900.315	440.86
900.489	460.42
900.663	486.77
900.837	494.14
901.011	390.09
901.185	508.09
901.359	448.22
901.533	448.41
901.707	480.77
901.881	458.49
902.055	395.71
902.229	456.55
902.403	504.21
902.576	469.92
902.75	445.51
902.924	573.96
903.098	485.03
903.272	511.19
903.446	561.95
903.619	522.62
903.793	568.15
903.967	559.24
904.14	615.62
904.314	587.52
904.488	545.29
904.661	567.18
904.835	552.07
905.009	600.7
905.182	609.8
905.356	586.55
905.529	566.79
905.703	547.42
905.876	547.22
906.05	517.58
906.223	520.1
906.397	423.42
906.57	463.33
906.744	441.05
906.917	466.62
907.09	475.34
907.264	439.11
907.437	415.47
907.61	379.83
907.784	410.82
907.957	421.29
908.13	387.58
908.304	434.07
908.477	404.62
908.65	419.93
908.823	367.81
908.996	495.3
909.17	386.41
909.343	401.72
909.516	413.54
909.689	397.84
909.862	391.84
910.035	391.26
910.208	376.92
910.381	362
910.554	491.81
910.727	392.42
910.9	365.88
911.073	391.06
911.246	454.22
911.419	419.54
911.592	399.59
911.765	374.79
911.938	389.9
912.11	396.1
912.283	375.95
912.456	418.38
912.629	386.03
912.802	401.14
912.974	345.92
913.147	312.6
913.32	306.59
913.493	326.16
913.665	342.82
913.838	361.03
914.01	315.5
914.183	358.13
914.356	328.09
914.528	353.86
914.701	441.05
914.873	398.43
915.046	362.97
915.218	317.63
915.391	266.29
915.563	294.19
915.736	319.96
915.908	351.93
916.081	330.23
916.253	343.21
916.425	363.94
916.598	363.94
916.77	329.45
916.942	272.68
917.115	267.45
917.287	345.34
917.459	328.68
917.632	271.52
917.804	242.85
917.976	318.79
918.148	303.1
918.32	315.11
918.493	354.64
918.665	386.99
918.837	330.81
919.009	399.39
919.181	380.99
919.353	374.59
919.525	358.13
919.697	337.59
919.869	369.36
920.041	416.64
920.213	451.12
920.385	368.59
920.557	348.24
920.729	389.32
920.901	390.68
921.073	387.19
921.244	330.42
921.416	387.38
921.588	376.53
921.76	362.19
921.932	388.93
922.103	345.14
922.275	326.93
922.447	360.64
922.619	287.02
922.79	342.04
922.962	343.59
923.134	386.41
923.305	305.23
923.477	290.7
923.648	311.05
923.82	327.51
923.991	263.19
924.163	287.6
924.335	291.67
924.506	276.17
924.677	356.58
924.849	282.37
925.02	301.94
925.192	319.57
925.363	310.66
925.535	294.19
925.706	277.91
925.877	353.48
926.049	282.56
926.22	314.34
926.391	309.3
926.562	336.81
926.734	259.7
926.905	337.01
927.076	232.58
927.247	296.32
927.419	245.56
927.59	240.91
927.761	225.6
927.932	249.43
928.103	249.82
928.274	193.25
928.445	210.1
928.616	225.22
928.787	224.25
928.958	240.52
929.129	228.31
929.3	218.63
929.471	170.77
929.642	164.96
929.813	101.22
929.984	198.09
930.155	102.77
930.326	168.25
930.496	147.72
930.667	61.5
930.838	138.42
931.009	85.52
931.18	107.03
931.35	101.02
931.521	116.52
931.692	88.43
931.863	28.37
932.033	104.12
932.204	104.9
932.374	90.17
932.545	57.82
932.716	110.71
932.886	87.27
933.057	13.84
933.227	61.3
933.398	136.29
933.568	26.43
933.739	7.25
933.909	11.12
934.08	77.19
934.25	-4.96
934.421	14.22
934.591	56.65
934.761	13.45
934.932	-23.75
935.102	18.49
935.272	12.09
935.443	31.08
935.613	11.9
935.783	24.49
935.953	15
936.123	176.58
936.294	-2.44
936.464	19.46
936.634	34.76
936.804	10.35
936.974	-0.5
937.144	33.21
937.314	35.92
937.484	10.35
937.655	9.77
937.825	86.88
937.995	10.35
938.165	77.97
938.334	23.33
938.504	49.1
938.674	2.02
938.844	27.4
939.014	56.46
939.184	69.64
939.354	103.93
939.524	84.55
939.694	44.45
939.863	46.19
940.033	136.67
940.203	104.51
940.373	86.49
940.542	84.94
940.712	32.44
940.882	114
941.051	106.25
941.221	105.09
941.391	111.87
941.56	45.61
941.73	54.72
941.899	182.59
942.069	58.2
942.238	76.8
942.408	50.07
942.577	90.95
942.747	38.83
942.916	1.82
943.086	38.25
943.255	100.25
943.425	76.8
943.594	48.52
943.763	0.27
943.933	15.58
944.102	-14.64
944.271	47.16
944.441	40.77
944.61	29.92
944.779	76.42
944.948	149.07
945.117	13.45
945.287	59.56
945.456	5.51
945.625	16.94
945.794	61.5
945.963	-7.28
946.132	68.28
946.301	31.27
946.47	64.4
946.639	-21.81
946.808	31.47
946.977	61.89
947.146	85.52
947.315	35.15
947.484	61.3
947.653	27.98
947.822	27.21
947.991	30.31
948.16	114.39
948.329	95.4
948.498	62.27
948.666	25.07
948.835	73.51
949.004	-2.05
949.173	1.82
949.341	24.11
949.51	72.15
949.679	108.19
949.847	61.11
950.016	134.54
950.185	98.12
950.353	19.65
950.522	27.4
950.69	77.77
950.859	36.89
951.028	71.57
951.196	89.4
951.365	37.47
951.533	37.09
951.701	58.98
951.87	56.65
952.038	42.32
952.207	60.72
952.375	88.62
952.543	23.52
952.712	32.63
952.88	33.41
953.048	100.64
953.217	75.45
953.385	57.62
953.553	92.5
953.721	15.58
953.89	73.7
954.058	0.47
954.226	27.4
954.394	58.79
954.562	4.15
954.73	27.21
954.898	31.47
955.067	73.51
955.235	33.41
955.403	63.44
955.571	113.42
955.739	51.42
955.907	34.37
956.075	28.17
956.243	11.9
956.41	67.31
956.578	-0.5
956.746	21.39
956.914	31.66
957.082	64.99
957.25	83
957.418	-5.15
957.585	66.54
957.753	71.96
957.921	-14.45
958.089	37.09
958.256	73.9
958.424	64.99
958.592	55.3
958.759	17.52
958.927	63.24
959.095	44.45
959.262	31.86
959.43	54.91
959.597	19.84
959.765	10.93
959.932	-4.18
960.1	89.59
960.267	40.38
960.435	33.21
960.602	81.84
960.77	4.34
960.937	-0.69
961.104	64.79
961.272	12.87
961.439	41.35
961.606	54.72
961.774	78.74
961.941	14.81
962.108	65.18
962.275	69.44
962.443	94.44
962.61	58.01
962.777	110.52
962.944	68.28
963.111	70.02
963.278	76.22
963.446	60.14
963.613	73.12
963.78	60.53
963.947	64.02
964.114	52.2
964.281	151.98
964.448	86.1
964.615	54.52
964.782	79.52
964.949	91.14
965.116	69.64
965.282	108.58
965.449	43.87
965.616	26.62
965.783	77.58
965.95	66.73
966.117	9.19
966.283	66.54
966.45	60.92
966.617	53.75
966.784	94.63
966.95	79.32
967.117	86.49
967.284	50.46
967.45	61.11
967.617	74.09
967.784	86.49
967.95	141.9
968.117	77.97
968.283	97.34
968.45	170.19
968.616	80.68
968.783	88.04
968.949	95.02
969.116	122.14
969.282	74.87
969.449	89.2
969.615	79.52
969.781	43.48
969.948	59.56
970.114	50.84
970.28	137.25
970.447	69.25
970.613	112.65
970.779	72.74
970.945	85.72
971.112	55.88
971.278	69.05
971.444	95.02
971.61	126.6
971.776	83.39
971.942	86.88
972.108	110.13
972.275	48.13
972.441	74.09
972.607	146.17
972.773	56.27
972.939	93.47
973.105	54.33
973.271	26.43
973.437	37.67
973.602	34.37
973.768	62.85
973.934	65.95
974.1	63.63
974.266	0.27
974.432	92.11
974.598	54.91
974.763	94.05
974.929	25.85
975.095	124.85
975.261	51.81
975.426	28.76
975.592	70.22
975.758	120.01
975.923	24.88
976.089	52
976.255	98.5
976.42	77.97
976.586	99.67
976.751	87.27
976.917	145
977.082	76.8
977.248	23.91
977.413	-6.12
977.579	37.28
977.744	60.72
977.91	46
978.075	32.44
978.24	70.02
978.406	54.33
978.571	35.73
978.736	35.15
978.902	98.12
979.067	25.85
979.232	-7.28
979.397	64.4
979.563	95.79
979.728	31.47
979.893	46
980.058	52
980.223	80.29
980.388	57.43
980.554	87.27
980.719	48.52
980.884	70.41
981.049	64.79
981.214	59.37
981.379	74.48
981.544	40.19
981.709	52.2
981.874	41.54
982.039	64.6
982.204	97.54
982.368	43.09
982.533	19.07
982.698	94.05
982.863	97.15
983.028	17.13
983.193	70.41
983.357	80.68
983.522	81.26
983.687	38.83
983.852	46.97
984.016	47.55
984.181	67.89
984.346	79.9
984.51	87.07
984.675	78.74
984.839	99.28
985.004	74.29
985.168	106.06
985.333	69.25
985.498	51.62
985.662	95.79
985.827	86.49
985.991	38.44
986.155	39.41
986.32	92.69
986.484	109.55
986.649	79.9
986.813	-17.74
986.977	77.77
987.142	99.47
987.306	33.99
987.47	38.44
987.634	54.72
987.799	79.52
987.963	86.1
988.127	84.55
988.291	120.98
988.455	64.02
988.62	52
988.784	53.75
988.948	65.76
989.112	19.65
989.276	62.66
989.44	49.1
989.604	35.34
989.768	28.56
989.932	140.35
990.096	2.21
990.26	36.31
990.424	11.32
990.588	52
990.752	132.02
990.915	89.01
991.079	47.16
991.243	17.71
991.407	85.14
991.571	65.57
991.734	64.79
991.898	80.68
992.062	183.37
992.226	25.66
992.389	39.02
992.553	13.84
992.717	38.25
992.88	30.69
993.044	29.14
993.207	45.22
993.371	68.67
993.535	87.07
993.698	34.37
993.862	96.95
994.025	124.47
994.189	62.27
994.352	66.34
994.515	73.51
994.679	71.19
994.842	27.59
995.006	98.5
995.169	28.17
995.332	28.17
995.496	73.12
995.659	25.66
995.822	36.51
995.985	64.99
996.149	85.52
996.312	63.82
996.475	122.34
996.638	25.85
996.801	97.73
996.964	97.73
997.128	45.22
997.291	41.93
997.454	56.65
997.617	-10.58
997.78	100.83
997.943	42.71
998.106	99.86
998.269	32.63
998.432	37.67
998.595	52.2
998.758	10.93
998.92	16.55
999.083	11.9
999.246	27.01
999.409	-0.11
999.572	-34.79
999.735	45.22
999.897	70.41
1000.06	-3.79
1000.223	30.69
1000.386	52.59
1000.548	63.44
1000.711	66.34
1000.874	30.31
1001.036	26.04
1001.199	74.09
1001.361	25.27
1001.524	57.82
1001.687	56.65
1001.849	46.97
1002.012	67.5
1002.174	33.41
1002.337	70.99
1002.499	20.04
1002.661	61.3
1002.824	6.09
1002.986	15.58
1003.149	53.36
1003.311	5.51
1003.473	95.02
1003.636	6.67
1003.798	48.32
1003.96	60.53
1004.123	30.89
1004.285	19.07
1004.447	41.35
1004.609	18.87
1004.771	87.27
1004.933	0.08
1005.096	20.23
1005.258	-20.07
1005.42	14.42
1005.582	76.8
1005.744	61.3
1005.906	3.96
1006.068	31.27
1006.23	-24.33
1006.392	-42.35
1006.554	15.39
1006.716	58.79
1006.878	46
1007.04	7.83
1007.202	13.06
1007.363	34.37
1007.525	39.61
1007.687	61.11
1007.849	64.6
1008.011	-14.84
1008.172	0.86
1008.334	17.52
1008.496	50.26
1008.658	-4.38
1008.819	-5.73
1008.981	-10.77
1009.143	6.28
1009.304	12.09
1009.466	45.42
1009.627	74.29
1009.789	114.78
1009.95	58.01
1010.112	10.16
1010.273	52.97
1010.435	8.22
1010.596	15
1010.758	2.02
1010.919	14.42
1011.081	-24.33
1011.242	-2.63
1011.403	43.87
1011.565	25.07
1011.726	21.59
1011.887	2.6
1012.049	-2.24
1012.21	46.77
1012.371	85.33
1012.532	-30.34
1012.693	38.25
1012.855	-20.84
1013.016	44.26
1013.177	42.12
1013.338	20.62
1013.499	91.72
1013.66	14.22
1013.821	39.02
1013.982	31.66
1014.143	45.22
1014.304	1.44
1014.465	35.73
1014.626	61.89
1014.787	11.71
1014.948	101.6
1015.109	-34.99
1015.27	49.87
1015.431	27.01
1015.592	11.51
1015.752	81.07
1015.913	19.65
1016.074	52.59
1016.235	6.67
1016.395	14.03
1016.556	23.52
1016.717	23.72
1016.877	33.02
1017.038	8.8
1017.199	24.49
1017.359	11.12
1017.52	33.41
1017.681	-1.08
1017.841	50.46
1018.002	-4.38
1018.162	-8.44
1018.323	61.11
1018.483	-1.86
1018.644	3.57
1018.804	4.54
1018.964	-29.56
1019.125	-3.41
1019.285	42.12
1019.446	-20.46
1019.606	-6.12
1019.766	-54.56
1019.926	33.6
1020.087	7.83
1020.247	-37.12
1020.407	39.61
1020.567	49.68
1020.728	-15.81
1020.888	-22.59
1021.048	-0.89
1021.208	3.96
1021.368	-16
1021.528	60.72
1021.688	21.78
1021.848	42.51
1022.008	11.51
1022.168	3.96
1022.328	16.36
1022.488	21.97
1022.648	1.63
1022.808	33.41
1022.968	8.8
1023.128	-27.04
1023.288	-3.99
1023.448	-1.28
1023.608	59.37
1023.767	16.36
1023.927	-7.48
1024.087	-6.51
1024.247	-7.28
1024.406	-24.91
1024.566	-27.24
1024.726	-39.83
1024.885	4.73
1025.045	53.17
1025.205	2.02
1025.364	41.93
1025.524	29.14
1025.683	-12.32
1025.843	36.7
1026.003	18.29
1026.162	53.55
1026.321	55.1
1026.481	8.22
1026.64	-6.51
1026.8	-16.39
1026.959	-6.12
1027.119	29.53
1027.278	-7.09
1027.437	-30.14
1027.597	24.88
1027.756	26.82
1027.915	37.28
1028.074	9.19
1028.234	8.99
1028.393	32.05
1028.552	0.27
1028.711	-88.27
1028.87	42.71
1029.03	-32.08
1029.189	5.51
1029.348	-45.06
1029.507	1.24
1029.666	-3.41
1029.825	-40.02
1029.984	-2.63
1030.143	21.01
1030.302	-26.08
1030.461	-48.74
1030.62	22.56
1030.779	25.27
1030.938	-13.87
1031.097	-55.33
1031.255	7.25
1031.414	37.28
1031.573	49.1
1031.732	-30.53
1031.891	-16.78
1032.049	54.72
1032.208	27.98
1032.367	-14.06
1032.525	-8.25
1032.684	-21.23
1032.843	28.56
1033.001	-29.37
1033.16	158.57
1033.319	47.74
1033.477	17.52
1033.636	-16.19
1033.794	-56.11
1033.953	24.11
1034.111	35.73
1034.27	-7.48
1034.428	7.83
1034.587	-30.53
1034.745	4.15
1034.903	-9.22
1035.062	4.92
1035.22	-28.4
1035.378	27.79
1035.537	-38.47
1035.695	58.98
1035.853	-4.57
1036.011	16.55
1036.17	29.14
1036.328	-58.82
1036.486	12.67
1036.644	24.11
1036.802	-83.42
1036.96	-20.46
1037.119	17.52
1037.277	-24.33
1037.435	-29.76
1037.593	-43.32
1037.751	6.09
1037.909	39.22
1038.067	39.22
