Data from pine_FLMT105791__0__17-19-34-080.txt Node

Date: Mon Mar 20 17:19:34 GMT 2023
User: antho
Spectrometer: FLMT10579
Trigger mode: 0
Integration Time (sec): 1.000000E-1
Scans to average: 10
Electric dark correction enabled: true
Nonlinearity correction enabled: false
Boxcar width: 0
XAxis mode: Wavelengths
Number of Pixels in Spectrum: 3648
>>>>>Begin Spectral Data<<<<<
345.248	-162.02
345.464	-162.02
345.681	-162.02
345.898	-189.34
346.114	-167.06
346.331	-38.99
346.548	12.74
346.764	-5.09
346.981	-10.32
347.197	-9.15
347.414	9.64
347.631	-23.69
347.847	70.48
348.064	19.71
348.28	26.3
348.497	-49.26
348.713	-2.37
348.93	27.46
349.146	4.02
349.363	5.96
349.579	42.19
349.796	12.35
350.012	-9.35
350.229	52.65
350.445	-21.17
350.661	-11.48
350.878	2.47
351.094	17.78
351.311	8.48
351.527	19.13
351.743	-15.35
351.96	44.13
352.176	24.94
352.392	41.03
352.609	32.89
352.825	15.65
353.041	2.08
353.257	7.12
353.474	8.67
353.69	15.65
353.906	25.53
354.122	-16.32
354.339	68.73
354.555	-5.86
354.771	-13.22
354.987	65.24
355.203	33.66
355.42	-16.71
355.636	-3.15
355.852	3.83
356.068	20.49
356.284	-26.2
356.5	58.08
356.716	13.32
356.932	-22.33
357.148	62.73
357.364	28.43
357.58	52.84
357.796	65.44
358.012	52.65
358.228	14.87
358.444	-54.49
358.66	60.79
358.876	19.33
359.092	2.86
359.308	41.61
359.524	42.38
359.74	6.35
359.956	-7.6
360.172	21.46
360.388	52.65
360.604	12.16
360.819	88.88
361.035	17.78
361.251	48.19
361.467	-15.55
361.683	40.06
361.898	65.63
362.114	31.53
362.33	2.08
362.546	32.69
362.762	31.73
362.977	8.67
363.193	-29.5
363.409	31.53
363.624	8.48
363.84	-27.75
364.056	-6.64
364.271	32.5
364.487	14.1
364.703	-10.7
364.918	-46.74
365.134	-7.02
365.35	18.75
365.565	88.49
365.781	-0.63
365.996	10.22
366.212	59.63
366.427	41.8
366.643	11
366.858	0.73
367.074	0.92
367.289	66.02
367.505	84.81
367.72	-27.37
367.936	-8.19
368.151	61.56
368.367	34.44
368.582	9.25
368.798	29.4
369.013	84.23
369.228	19.13
369.444	12.74
369.659	51.1
369.874	31.73
370.09	74.16
370.305	-34.73
370.52	-1.6
370.736	57.11
370.951	34.83
371.166	76.29
371.381	97.02
371.597	52.46
371.812	-12.84
372.027	-9.93
372.242	21.07
372.458	79.58
372.673	2.66
372.888	-4.5
373.103	28.63
373.318	106.71
373.533	40.83
373.749	43.35
373.964	-1.99
374.179	41.99
374.394	-32.6
374.609	82.88
374.824	10.03
375.039	82.88
375.254	-12.64
375.469	73.38
375.684	15.06
375.899	64.08
376.114	31.53
376.329	32.5
376.544	38.89
376.759	35.79
376.974	7.9
377.189	22.04
377.404	19.33
377.619	78.81
377.834	-33.76
378.049	-27.17
378.264	-18.84
378.478	33.86
378.693	6.93
378.908	28.82
379.123	-10.7
379.338	90.04
379.553	43.74
379.767	26.11
379.982	49.94
380.197	41.03
380.412	-9.54
380.626	36.96
380.841	68.34
381.056	47.42
381.271	65.63
381.485	-41.32
381.7	-39.96
381.915	55.36
382.129	-1.21
382.344	32.31
382.559	-3.34
382.773	61.76
382.988	-15.74
383.202	29.01
383.417	9.06
383.632	124.92
383.846	2.47
384.061	23.2
384.275	-1.6
384.49	-2.57
384.704	32.89
384.919	46.26
385.133	9.06
385.348	70.86
385.562	-2.37
385.777	80.36
385.991	19.52
386.206	11.38
386.42	11.19
386.634	44.51
386.849	57.69
387.063	48
387.277	-11.67
387.492	6.15
387.706	7.12
387.92	-10.12
388.135	57.11
388.349	38.51
388.563	15.06
388.778	46.06
388.992	51.49
389.206	55.56
389.42	106.71
389.635	29.01
389.849	66.41
390.063	67.57
390.277	30.95
390.491	74.54
390.706	28.24
390.92	43.74
391.134	23.59
391.348	50.71
391.562	-19.42
391.776	25.33
391.99	-13.03
392.205	62.53
392.419	-1.21
392.633	42.77
392.847	60.79
393.061	22.23
393.275	91.59
393.489	17.39
393.703	27.08
393.917	106.13
394.131	18.94
394.345	42.77
394.559	67.57
394.773	22.23
394.986	65.24
395.2	37.73
395.414	60.01
395.628	4.41
395.842	34.05
396.056	4.41
396.27	-4.5
396.484	17.39
396.697	67.38
396.911	72.41
397.125	41.03
397.339	54.01
397.553	74.74
397.766	105.35
397.98	90.43
398.194	75.71
398.408	34.83
398.621	45.68
398.835	98.57
399.049	30.95
399.262	60.4
399.476	51.49
399.69	59.82
399.903	91.59
400.117	30.56
400.331	62.53
400.544	54.2
400.758	128.6
400.971	30.76
401.185	69.12
401.398	7.31
401.612	89.85
401.826	67.96
402.039	49.94
402.253	34.63
402.466	44.71
402.68	26.49
402.893	63.5
403.106	59.04
403.32	38.31
403.533	57.11
403.747	46.26
403.96	67.57
404.174	69.7
404.387	-8.57
404.6	67.76
404.814	86.17
405.027	52.46
405.24	44.13
405.454	16.03
405.667	92.37
405.88	2.28
406.094	36.96
406.307	82.88
406.52	73.77
406.733	5.96
406.947	13.9
407.16	109.03
407.373	99.15
407.586	50.71
407.799	14.48
408.012	73.58
408.226	44.9
408.439	86.56
408.652	3.44
408.865	68.15
409.078	111.94
409.291	78.23
409.504	6.93
409.717	54.2
409.93	58.66
410.143	46.64
410.357	-4.5
410.57	16.03
410.783	18.75
410.996	53.43
411.209	31.34
411.421	71.44
411.634	31.14
411.847	33.86
412.06	83.65
412.273	51.68
412.486	34.63
412.699	146.23
412.912	70.67
413.125	85.39
413.338	64.08
413.55	76.09
413.763	73.96
413.976	89.66
414.189	30.37
414.402	34.63
414.615	89.46
414.827	39.09
415.04	56.91
415.253	60.98
415.466	83.84
415.678	110
415.891	65.83
416.104	54.01
416.316	53.81
416.529	41.8
416.742	75.9
416.954	78.81
417.167	55.94
417.38	48.39
417.592	76.48
417.805	26.88
418.017	2.08
418.23	77.64
418.442	44.13
418.655	39.67
418.868	75.32
419.08	81.33
419.293	105.74
419.505	73.58
419.718	54.98
419.93	94.89
420.142	49.55
420.355	102.44
420.567	110.39
420.78	99.73
420.992	52.46
421.205	111.36
421.417	43.35
421.629	72.03
421.842	18.94
422.054	26.88
422.266	93.53
422.479	98.57
422.691	29.4
422.903	81.91
423.115	55.36
423.328	60.59
423.54	84.62
423.752	57.88
423.964	41.03
424.177	77.84
424.389	57.88
424.601	147.39
424.813	81.91
425.025	95.66
425.238	76.09
425.45	62.34
425.662	71.83
425.874	370.78
426.086	80.94
426.298	95.66
426.51	97.99
426.722	75.9
426.934	49.16
427.146	107.29
427.358	31.73
427.57	109.81
427.782	68.15
427.994	56.14
428.206	57.88
428.418	15.06
428.63	108.06
428.842	103.41
429.054	75.32
429.266	117.75
429.478	41.8
429.69	94.89
429.902	52.84
430.114	91.4
430.325	98.76
430.537	74.35
430.749	101.67
430.961	42.96
431.173	81.13
431.384	99.73
431.596	-1.4
431.808	71.44
432.02	78.42
432.231	87.91
432.443	123.37
432.655	56.72
432.867	64.08
433.078	82.29
433.29	137.32
433.502	125.5
433.713	131.31
433.925	105.93
434.136	133.06
434.348	81.71
434.56	47.23
434.771	170.26
434.983	55.17
435.194	52.26
435.406	89.85
435.617	111.74
435.829	151.07
436.04	130.34
436.252	128.21
436.463	148.56
436.675	140.42
436.886	110.39
437.098	139.26
437.309	173.36
437.521	88.69
437.732	115.62
437.943	121.43
438.155	97.21
438.366	54.59
438.578	160.57
438.789	128.6
439	155.53
439.211	100.31
439.423	127.63
439.634	128.6
439.845	140.42
440.057	127.82
440.268	134.99
440.479	86.17
440.69	98.76
440.902	102.64
441.113	106.13
441.324	94.31
441.535	126.08
441.746	159.79
441.957	95.47
442.168	74.93
442.38	151.66
442.591	142.36
442.802	66.79
443.013	97.21
443.224	126.47
443.435	111.74
443.646	96.83
443.857	142.94
444.068	101.09
444.279	84.04
444.49	189.82
444.701	103.03
444.912	239.42
445.123	168.32
445.334	180.33
445.545	136.35
445.756	134.8
445.967	97.21
446.178	171.22
446.388	186.72
446.599	182.27
446.81	156.31
447.021	144.29
447.232	177.62
447.443	195.44
447.653	148.75
447.864	185.37
448.075	142.36
448.286	160.57
448.496	144.1
448.707	186.72
448.918	130.73
449.129	238.84
449.339	139.26
449.55	183.43
449.761	163.09
449.971	180.91
450.182	165.61
450.393	186.34
450.603	152.62
450.814	212.1
451.024	172.58
451.235	192.92
451.446	221.6
451.656	216.17
451.867	165.99
452.077	172.19
452.288	223.54
452.498	226.05
452.709	184.21
452.919	211.14
453.13	169.67
453.34	217.34
453.55	145.46
453.761	201.84
453.971	219.27
454.182	193.89
454.392	205.71
454.602	262.29
454.813	197.38
455.023	222.57
455.233	162.12
455.444	182.66
455.654	118.14
455.864	189.63
456.075	175.87
456.285	169.29
456.495	185.17
456.705	192.92
456.916	221.79
457.126	273.33
457.336	195.83
457.546	155.53
457.756	163.86
457.967	230.51
458.177	172.39
458.387	188.47
458.597	172.97
458.807	200.87
459.017	203.58
459.227	194.28
459.437	170.26
459.647	234.77
459.857	231.29
460.068	196.99
460.278	230.9
460.488	227.22
460.698	269.65
460.908	176.07
461.117	140.61
461.327	176.84
461.537	192.54
461.747	200.67
461.957	195.25
462.167	311.3
462.377	250.66
462.587	207.26
462.797	233.61
463.007	228.96
463.216	232.06
463.426	247.17
463.636	232.64
463.846	165.61
464.056	213.27
464.265	266.94
464.475	196.02
464.685	203.58
464.895	252.4
465.104	213.07
465.314	247.17
465.524	195.25
465.733	209.97
465.943	307.23
466.153	288.63
466.362	258.99
466.572	280.89
466.782	205.71
466.991	253.95
467.201	285.73
467.41	205.32
467.62	216.75
467.829	227.6
468.039	246.2
468.249	229.35
468.458	238.65
468.668	258.02
468.877	259.19
469.086	280.89
469.296	277.2
469.505	206.49
469.715	315.18
469.924	288.25
470.134	302.58
470.343	302
470.552	242.33
470.762	258.6
470.971	220.44
471.18	269.45
471.39	253.57
471.599	235.74
471.808	291.73
472.018	210.55
472.227	286.89
472.436	308.98
472.645	238.26
472.855	222.76
473.064	298.32
473.273	254.92
473.482	286.5
473.691	314.4
473.901	314.98
474.11	276.04
474.319	369.62
474.528	267.71
474.737	307.82
474.946	308.98
475.155	292.51
475.364	339.4
475.573	291.73
475.783	310.92
475.992	308.59
476.201	338.62
476.41	281.66
476.619	290.77
476.828	300.84
477.037	268.49
477.245	296.77
477.454	351.41
477.663	294.45
477.872	278.75
478.081	378.15
478.29	281.66
478.499	405.08
478.708	311.69
478.917	376.98
479.125	319.44
479.334	328.74
479.543	317.31
479.752	334.17
479.961	340.56
480.169	381.25
480.378	307.23
480.587	443.63
480.796	350.05
481.004	335.52
481.213	357.03
481.422	353.35
481.63	343.85
481.839	360.71
482.048	422.32
482.256	360.52
482.465	368.46
482.674	389.19
482.882	390.74
483.091	445.38
483.299	339.78
483.508	390.74
483.716	360.52
483.925	376.4
484.134	353.93
484.342	331.45
484.551	411.47
484.759	417.48
484.967	423.48
485.176	415.54
485.384	380.86
485.593	432.98
485.801	387.45
486.01	370.4
486.218	381.25
486.426	331.65
486.635	366.72
486.843	343.47
487.051	374.85
487.26	396.36
487.468	427.16
487.676	398.68
487.885	351.8
488.093	403.14
488.301	384.93
488.509	438.6
488.717	439.95
488.926	406.24
489.134	407.21
489.342	432.2
489.55	390.16
489.758	418.06
489.967	396.36
490.175	509.51
490.383	403.33
490.591	462.81
490.799	390.93
491.007	480.25
491.215	454.1
491.423	432.01
491.631	433.95
491.839	435.11
492.047	465.91
492.255	398.68
492.463	379.89
492.671	426.78
492.879	471.92
493.087	430.65
493.295	469.79
493.503	474.05
493.711	480.64
493.919	497.3
494.127	486.26
494.334	501.18
494.542	421.93
494.75	478.31
494.958	458.55
495.166	519.58
495.374	479.09
495.581	465.72
495.789	490.52
495.997	525.59
496.205	460.68
496.412	494.98
496.62	460.29
496.828	515.13
497.035	469.59
497.243	512.8
497.451	489.16
497.658	500.01
497.866	484.13
498.074	556.01
498.281	487.23
498.489	564.72
498.696	497.88
498.904	503.5
499.112	469.59
499.319	574.61
499.527	485.68
499.734	512.8
499.942	488.78
500.149	477.73
500.357	508.93
500.564	477.93
500.771	528.69
500.979	495.56
501.186	473.08
501.394	537.41
501.601	518.03
501.808	568.02
502.016	507.76
502.223	498.66
502.43	530.63
502.638	523.84
502.845	486.84
503.052	565.89
503.26	511.64
503.467	610.45
503.674	522.29
503.881	562.4
504.089	613.55
504.296	533.53
504.503	502.14
504.71	522.29
504.917	497.3
505.125	520.94
505.332	550.97
505.539	551.74
505.746	612.58
505.953	557.17
506.16	545.74
506.367	614.71
506.574	624.21
506.781	593.4
506.988	539.73
507.195	592.43
507.402	565.31
507.609	591.07
507.816	555.62
508.023	544.58
508.23	534.31
508.437	527.14
508.644	580.61
508.851	596.5
509.058	607.54
509.265	598.63
509.472	627.69
509.679	668.38
509.885	593.4
510.092	573.06
510.299	578.09
510.506	590.3
510.713	633.51
510.92	614.52
511.126	600.76
511.333	646.1
511.54	633.12
511.746	667.02
511.953	645.9
512.16	689.69
512.367	610.45
512.573	603.67
512.78	620.72
512.987	624.98
513.193	624.79
513.4	563.76
513.606	607.54
513.813	638.54
514.02	626.14
514.226	693.76
514.433	700.15
514.639	611.61
514.846	629.82
515.052	619.75
515.259	617.81
515.465	639.9
515.672	651.91
515.878	720.69
516.085	672.06
516.291	674
516.497	633.89
516.704	604.25
516.91	580.61
517.117	557.75
517.323	563.56
517.529	585.84
517.736	595.14
517.942	605.41
518.148	612.39
518.354	646.29
518.561	631.37
518.767	651.72
518.973	673.22
519.179	670.7
519.386	629.44
519.592	630.79
519.798	660.82
520.004	719.34
520.21	634.09
520.417	686.59
520.623	759.63
520.829	729.41
521.035	721.66
521.241	723.98
521.447	721.66
521.653	865.23
521.859	694.92
522.065	742
522.271	824.54
522.477	770.48
522.683	819.11
522.889	762.73
523.095	766.61
523.301	773.39
523.507	738.52
523.713	765.64
523.919	758.67
524.125	813.3
524.331	749.75
524.537	834.42
524.742	813.69
524.948	830.35
525.154	792.18
525.36	907.66
525.566	793.15
525.772	863.48
525.977	779.4
526.183	830.74
526.389	839.85
526.595	797.8
526.8	791.8
527.006	764.28
527.212	770.1
527.417	723.4
527.623	706.55
527.829	809.62
528.034	824.54
528.24	822.99
528.446	762.35
528.651	871.62
528.857	844.5
529.062	919.09
529.268	839.07
529.473	864.65
529.679	846.05
529.884	910.95
530.09	897.97
530.295	927.81
530.501	926.64
530.706	858.45
530.912	845.27
531.117	877.24
531.323	908.24
531.528	902.23
531.733	905.53
531.939	881.89
532.144	926.64
532.35	882.86
532.555	946.79
532.76	939.24
532.966	900.68
533.171	918.31
533.376	879.95
533.581	891.19
533.787	909.59
533.992	889.06
534.197	922.96
534.402	898.55
534.607	894.1
534.813	998.72
535.018	935.36
535.223	918.12
535.428	953.38
535.633	988.45
535.838	968.3
536.043	959.97
536.249	1052.97
536.454	949.89
536.659	973.53
536.864	940.4
537.069	954.35
537.274	936.53
537.479	944.08
537.684	952.03
537.889	954.54
538.094	1049.67
538.299	957.84
538.504	962.49
538.708	1006.08
538.913	1012.09
539.118	980.12
539.323	1003.95
539.528	949.51
539.733	944.86
539.938	963.07
540.142	1006.08
540.347	943.89
540.552	929.36
540.757	981.48
540.962	965.2
541.166	895.26
541.371	901.65
541.576	975.66
541.781	868.71
541.985	946.99
542.19	996.78
542.395	1006.66
542.599	1026.42
542.804	1010.73
543.008	1005.5
543.213	963.26
543.418	962.29
543.622	1000.46
543.827	957.06
544.031	1037.66
544.236	1026.23
544.44	991.16
544.645	1064.98
544.849	971.4
545.054	1015.77
545.258	1055.87
545.463	1082.03
545.667	996.39
545.872	1023.13
546.076	1013.06
546.281	1022.94
546.485	992.52
546.689	1023.71
546.894	1062.27
547.098	999.88
547.302	978.96
547.507	975.86
547.711	1003.37
547.915	1079.7
548.119	992.52
548.324	1014.22
548.528	1071.76
548.732	1022.94
548.936	1054.52
549.141	1062.85
549.345	1020.22
549.549	1006.66
549.753	1030.3
549.957	1118.26
550.161	1100.24
550.366	1034.17
550.57	1023.13
550.774	1051.22
550.978	1035.92
551.182	1052.77
551.386	1029.91
551.59	1030.11
551.794	1014.02
551.998	1051.42
552.202	1011.51
552.406	1033.98
552.61	1056.84
552.814	1045.61
553.018	1079.9
553.222	1029.91
553.426	1056.46
553.63	1113.8
553.833	1035.14
554.037	984.57
554.241	1095.59
554.445	1056.07
554.649	1043.86
554.853	1009.57
555.056	1036.11
555.26	1063.62
555.464	1058.2
555.668	1088.81
555.871	1071.95
556.075	1078.15
556.279	1013.44
556.483	1007.05
556.686	1025.07
556.89	1026.42
557.094	1053.36
557.297	962.68
557.501	1074.47
557.704	997.75
557.908	1087.07
558.112	993.87
558.315	1071.37
558.519	1023.32
558.722	1033.59
558.926	1025.07
559.129	965.78
559.333	966.56
559.536	941.95
559.74	980.51
559.943	952.8
560.147	954.16
560.35	973.73
560.553	956.29
560.757	952.41
560.96	1049.29
561.164	988.64
561.367	1064.01
561.57	985.74
561.774	1022.36
561.977	978.57
562.18	969.85
562.384	1092.88
562.587	979.34
562.79	976.63
562.993	997.36
563.197	1008.99
563.4	1057.04
563.603	1058.59
563.806	1103.34
564.009	990
564.212	1003.37
564.416	945.83
564.619	1011.31
564.822	968.3
565.025	1013.06
565.228	931.1
565.431	987.09
565.634	891.58
565.837	952.22
566.04	962.68
566.243	956.87
566.446	888.09
566.649	966.56
566.852	873.17
567.055	953.38
567.258	930.33
567.461	1023.32
567.664	990
567.867	898.55
568.07	960.36
568.273	954.35
568.475	992.91
568.678	926.06
568.881	950.48
569.084	932.07
569.287	870.65
569.489	875.69
569.692	955.71
569.895	937.69
570.098	883.05
570.3	867.55
570.503	825.9
570.706	851.28
570.909	861.74
571.111	836.75
571.314	836.75
571.516	868.33
571.719	878.4
571.922	881.89
572.124	874.53
572.327	880.15
572.529	835
572.732	805.75
572.935	905.91
573.137	909.4
573.34	863.1
573.542	893.71
573.745	895.64
573.947	869.68
574.15	872.01
574.352	811.17
574.554	924.71
574.757	832.68
574.959	821.83
575.162	830.55
575.364	859.61
575.566	935.17
575.769	819.5
575.971	811.56
576.173	748.98
576.376	846.24
576.578	832.48
576.78	888.48
576.982	780.17
577.185	802.45
577.387	785.4
577.589	773.2
577.791	831.32
577.993	832.68
578.196	797.42
578.398	856.12
578.6	859.61
578.802	756.92
579.004	761.18
579.206	798.19
579.408	850.89
579.61	806.52
579.812	845.85
580.014	815.24
580.216	754.79
580.418	803.42
580.62	770.29
580.822	740.26
581.024	788.7
581.226	853.8
581.428	825.7
581.63	877.24
581.832	819.7
582.034	858.45
582.236	817.56
582.438	832.87
582.64	845.46
582.841	850.7
583.043	897.39
583.245	832.29
583.447	829.38
583.649	798.19
583.85	829.58
584.052	846.05
584.254	793.73
584.456	854.57
584.657	779.2
584.859	828.03
585.061	806.91
585.262	798.58
585.464	761.57
585.666	819.11
585.867	775.33
586.069	867.94
586.27	795.28
586.472	792.38
586.674	797.61
586.875	776.3
587.077	779.59
587.278	788.12
587.48	741.62
587.681	890.22
587.883	801.48
588.084	727.08
588.285	767.77
588.487	786.37
588.688	777.27
588.89	727.67
589.091	715.65
589.292	739.68
589.494	716.24
589.695	698.41
589.896	637.38
590.098	638.93
590.299	678.65
590.5	657.53
590.702	691.63
590.903	751.88
591.104	790.83
591.305	739.1
591.507	791.02
591.708	759.05
591.909	698.6
592.11	791.22
592.311	755.95
592.512	722.63
592.714	682.52
592.915	679.04
593.116	697.44
593.317	707.52
593.518	711
593.719	710.04
593.92	753.24
594.121	782.69
594.322	725.53
594.523	748.59
594.724	678.26
594.925	709.65
595.126	723.21
595.327	731.73
595.528	711.59
595.729	761.38
595.929	726.31
596.13	733.67
596.331	724.95
596.532	737.35
596.733	786.76
596.934	775.52
597.135	783.85
597.335	773
597.536	698.8
597.737	751.3
597.938	690.85
598.138	738.13
598.339	729.02
598.54	747.23
598.74	703.84
598.941	743.36
599.142	809.81
599.342	725.15
599.543	711.39
599.744	732.12
599.944	713.91
600.145	682.72
600.345	746.07
600.546	804.2
600.746	757.7
600.947	804.78
601.147	764.67
601.348	765.25
601.548	677.87
601.749	745.88
601.949	702.29
602.15	680.97
602.35	715.07
602.551	777.27
602.751	681.55
602.951	743.94
603.152	637.38
603.352	739.1
603.552	760.22
603.753	761.57
603.953	779.98
604.153	743.94
604.354	742.2
604.554	720.5
604.754	734.45
604.954	682.52
605.155	710.62
605.355	720.69
605.555	758.47
605.755	758.67
605.955	744.33
606.155	729.6
606.356	733.87
606.556	758.86
606.756	750.53
606.956	717.59
607.156	789.28
607.356	664.12
607.556	734.83
607.756	708.29
607.956	771.26
608.156	736.19
608.356	717.59
608.556	719.72
608.756	734.83
608.956	671.09
609.156	695.5
609.356	681.75
609.556	678.45
609.755	697.83
609.955	664.7
610.155	696.86
610.355	713.52
610.555	688.92
610.755	696.09
610.954	646.29
611.154	715.85
611.354	730.96
611.554	719.53
611.753	699.96
611.953	652.88
612.153	717.79
612.352	700.93
612.552	649.78
612.752	613.55
612.951	691.44
613.151	695.12
613.351	648.81
613.55	695.12
613.75	709.26
613.949	679.04
614.149	686.79
614.348	695.7
614.548	652.49
614.747	602.51
614.947	687.75
615.146	620.14
615.346	702.87
615.545	678.07
615.745	691.44
615.944	694.54
616.144	692.21
616.343	702.48
616.542	614.13
616.742	676.13
616.941	644.94
617.14	595.72
617.34	664.89
617.539	661.21
617.738	625.95
617.938	732.7
618.137	674.58
618.336	624.01
618.535	693.57
618.734	667.02
618.934	675.35
619.133	638.93
619.332	669.54
619.531	632.73
619.73	649.2
619.929	674
620.128	677.87
620.328	703.25
620.527	642.03
620.726	631.18
620.925	690.47
621.124	607.16
621.323	670.32
621.522	628.86
621.721	612.77
621.92	622.85
622.119	656.95
622.318	611.22
622.517	627.69
622.715	644.55
622.914	552.71
623.113	626.92
623.312	589.33
623.511	648.81
623.71	628.86
623.909	620.91
624.107	699.38
624.306	581.97
624.505	606.77
624.704	598.63
624.902	621.88
625.101	649.78
625.3	624.79
625.499	602.31
625.697	584.49
625.896	588.75
626.095	620.72
626.293	545.54
626.492	579.64
626.69	593.79
626.889	581.58
627.088	652.3
627.286	559.69
627.485	571.31
627.683	573.06
627.882	611.61
628.08	552.32
628.279	582.36
628.477	651.33
628.676	572.09
628.874	614.13
629.073	585.26
629.271	531.01
629.469	592.62
629.668	573.44
629.866	574.22
630.065	533.92
630.263	613.94
630.461	574.61
630.66	576.93
630.858	600.57
631.056	638.93
631.254	630.99
631.453	530.04
631.651	615.87
631.849	579.26
632.047	577.32
632.245	569.37
632.444	610.84
632.642	589.52
632.84	589.72
633.038	577.12
633.236	553.1
633.434	561.04
633.632	524.81
633.83	579.26
634.028	599.41
634.227	570.73
634.425	625.76
634.623	556.39
634.821	572.09
635.019	579.84
635.216	583.91
635.414	577.9
635.612	597.86
635.81	575.19
636.008	656.37
636.206	554.07
636.404	600.37
636.602	542.25
636.8	580.03
636.997	606.38
637.195	597.47
637.393	605.02
637.591	641.84
637.789	611.61
637.986	582.94
638.184	593.98
638.382	631.76
638.58	618.78
638.777	676.71
638.975	594.56
639.173	585.84
639.37	611.81
639.568	606.57
639.765	634.47
639.963	584.29
640.161	617.23
640.358	619.94
640.556	575.19
640.753	569.76
640.951	546.32
641.148	605.02
641.346	561.04
641.543	591.27
641.741	594.76
641.938	568.79
642.136	557.56
642.333	551.55
642.531	637.38
642.728	633.31
642.925	590.49
643.123	565.31
643.32	568.99
643.517	542.64
643.715	570.34
643.912	536.05
644.109	561.82
644.306	588.75
644.504	536.24
644.701	538.18
644.898	578.48
645.095	542.06
645.293	558.14
645.49	566.27
645.687	576.54
645.884	603.09
646.081	494.01
646.278	529.46
646.475	517.84
646.672	566.08
646.87	580.61
647.067	560.27
647.264	562.98
647.461	501.95
647.658	486.45
647.855	550.19
648.052	542.64
648.249	453.9
648.446	532.76
648.642	492.84
648.839	495.17
649.036	496.53
649.233	430.07
649.43	453.9
649.627	459.91
649.824	490.13
650.021	479.86
650.217	460.88
650.414	485.48
650.611	514.16
650.808	533.34
651.004	524.04
651.201	546.9
651.398	552.52
651.595	524.81
651.791	491.88
651.988	533.14
652.185	483.74
652.381	519.78
652.578	445.76
652.775	511.64
652.971	499.82
653.168	508.73
653.364	546.71
653.561	452.35
653.757	499.04
653.954	504.08
654.15	454.29
654.347	574.41
654.543	484.32
654.74	470.56
654.936	476.18
655.133	494.2
655.329	504.08
655.525	462.23
655.722	504.47
655.918	457.78
656.115	505.83
656.311	400.81
656.507	436.46
656.704	375.63
656.9	413.8
657.096	434.53
657.292	425.03
657.489	483.16
657.685	452.93
657.881	455.26
658.077	462.04
658.273	448.86
658.47	531.79
658.666	475.02
658.862	496.91
659.058	470.18
659.254	511.83
659.45	446.73
659.646	496.72
659.842	467.85
660.038	521.91
660.234	453.71
660.43	494.78
660.626	546.32
660.822	508.15
661.018	482.19
661.214	473.86
661.41	432.2
661.606	476.96
661.802	498.85
661.998	464.17
662.194	444.6
662.39	483.16
662.586	514.93
662.781	494.39
662.977	522.29
663.173	510.86
663.369	493.43
663.564	483.35
663.76	519.58
663.956	493.62
664.152	522.68
664.347	419.03
664.543	486.06
664.739	458.74
664.934	418.25
665.13	422.32
665.326	491.29
665.521	479.48
665.717	393.06
665.912	405.27
666.108	394.81
666.304	443.25
666.499	451.77
666.695	376.98
666.89	444.21
667.086	467.27
667.281	447.7
667.477	495.56
667.672	457.2
667.867	456.03
668.063	449.45
668.258	403.33
668.454	417.28
668.649	531.98
668.844	445.57
669.04	456.23
669.235	421.74
669.43	414.18
669.626	414.38
669.821	426
670.016	399.46
670.211	427.16
670.407	397.13
670.602	422.32
670.797	420.96
670.992	451.58
671.187	409.53
671.382	465.53
671.578	417.67
671.773	464.56
671.968	382.99
672.163	423.48
672.358	466.69
672.553	400.04
672.748	382.6
672.943	506.99
673.138	409.34
673.333	452.55
673.528	414.96
673.723	459.71
673.918	428.71
674.113	395
674.308	498.08
674.503	465.91
674.698	454.1
674.892	420.58
675.087	433.36
675.282	444.41
675.477	413.21
675.672	468.63
675.867	399.46
676.061	381.44
676.256	370.98
676.451	410.11
676.646	419.22
676.84	403.53
677.035	390.16
677.23	404.3
677.424	427.94
677.619	459.52
677.814	460.68
678.008	438.4
678.203	398.68
678.397	399.46
678.592	423.68
678.787	477.54
678.981	406.05
679.176	449.64
679.37	432.59
679.565	432.98
679.759	430.26
679.954	425.61
680.148	451.96
680.342	463.98
680.537	476.76
680.731	391.32
680.926	449.06
681.12	456.61
681.314	398.68
681.509	415.73
681.703	454.68
681.897	435.69
682.092	422.71
682.286	408.18
682.48	480.64
682.674	478.7
682.869	399.26
683.063	422.32
683.257	495.75
683.451	394.61
683.645	451.58
683.839	408.37
684.034	408.18
684.228	469.79
684.422	372.14
684.616	400.04
684.81	451.19
685.004	409.15
685.198	449.45
685.392	445.76
685.586	383.38
685.78	449.25
685.974	452.35
686.168	425.81
686.362	472.5
686.556	381.05
686.75	367.88
686.944	356.83
687.138	427.16
687.331	312.27
687.525	343.08
687.719	301.62
687.913	333.58
688.107	370.78
688.301	325.25
688.494	364.39
688.688	340.56
688.882	299.29
689.076	314.4
689.269	343.27
689.463	398.3
689.657	340.75
689.85	327.38
690.044	376.21
690.238	357.03
690.431	349.86
690.625	360.13
690.818	391.13
691.012	389.38
691.205	385.9
691.399	324.48
691.593	381.25
691.786	421.16
691.98	425.61
692.173	460.49
692.366	423.48
692.56	446.93
692.753	492.84
692.947	405.08
693.14	484.13
693.333	451.58
693.527	394.23
693.72	477.73
693.914	443.05
694.107	447.31
694.3	441.89
694.493	411.66
694.687	508.54
694.88	451.77
695.073	526.75
695.266	494.2
695.46	487.42
695.653	529.85
695.846	534.5
696.039	413.99
696.232	460.1
696.425	517.26
696.618	526.36
696.812	491.1
697.005	549.81
697.198	604.06
697.391	543.03
697.584	543.22
697.777	617.42
697.97	597.08
698.163	624.4
698.356	575.96
698.549	633.51
698.742	618.97
698.935	596.5
699.127	612.58
699.32	574.02
699.513	573.25
699.706	636.02
699.899	610.45
700.092	600.37
700.285	649.78
700.477	564.34
700.67	635.05
700.863	630.99
701.056	722.05
701.248	694.92
701.441	695.12
701.634	643.77
701.826	759.25
702.019	662.18
702.212	731.93
702.404	643.58
702.597	680.2
702.79	725.53
702.982	729.8
703.175	765.06
703.367	754.98
703.56	735.22
703.752	818.53
703.945	749.37
704.137	801.1
704.33	792.18
704.522	796.64
704.715	815.43
704.907	793.15
705.1	818.73
705.292	816.6
705.484	800.13
705.677	849.73
705.869	860.77
706.061	913.47
706.254	929.74
706.446	890.03
706.638	898.16
706.831	946.99
707.023	906.69
707.215	989.22
707.407	984.77
707.599	961.52
707.792	967.33
707.984	996.39
708.176	1007.05
708.368	999.49
708.56	977.41
708.752	988.26
708.944	1007.63
709.136	1061.3
709.329	1034.76
709.521	1166.89
709.713	1114.19
709.905	1094.04
710.097	1137.05
710.289	1052.39
710.481	1095.4
710.672	1113.61
710.864	1131.44
711.056	1165.53
711.248	1139.77
711.44	1137.05
711.632	1171.35
711.824	1160.88
712.016	1242.65
712.207	1232.77
712.399	1220.56
712.591	1298.25
712.783	1234.7
712.975	1267.83
713.166	1231.22
713.358	1229.47
713.55	1317.63
713.741	1301.74
713.933	1289.92
714.125	1301.35
714.316	1292.44
714.508	1358.89
714.7	1350.76
714.891	1336.03
715.083	1421.86
715.274	1362.96
715.466	1360.83
715.657	1418.18
715.849	1337.39
716.04	1356.18
716.232	1284.11
716.423	1389.89
716.615	1331.19
716.806	1331.38
716.998	1295.54
717.189	1238.58
717.381	1194.4
717.572	1174.83
717.763	1236.83
717.955	1233.54
718.146	1173.09
718.337	1156.43
718.528	1145.97
718.72	1076.6
718.911	1158.95
719.102	1097.72
719.293	1135.7
719.485	1123.3
719.676	1120.78
719.867	1081.06
720.058	1095.2
720.249	1129.69
720.44	1144.8
720.632	1207
720.823	1198.08
721.014	1308.33
721.205	1310.85
721.396	1362.58
721.587	1432.13
721.778	1446.86
721.969	1460.42
722.16	1486.19
722.351	1505.37
722.542	1619.68
722.733	1635.37
722.924	1571.44
723.115	1586.74
723.305	1544.5
723.496	1567.75
723.687	1506.72
723.878	1509.63
724.069	1508.66
724.26	1554.58
724.45	1474.17
724.641	1446.08
724.832	1519.7
725.023	1475.14
725.213	1489.29
725.404	1480.37
725.595	1460.81
725.785	1442.59
725.976	1557.87
726.167	1533.65
726.357	1515.83
726.548	1632.27
726.739	1515.64
726.929	1587.32
727.12	1656.88
727.31	1653.97
727.501	1554.97
727.691	1614.64
727.882	1635.57
728.072	1634.98
728.263	1662.3
728.453	1690.2
728.644	1685.55
728.834	1669.67
729.024	1634.6
729.215	1695.24
729.405	1700.66
729.596	1765.76
729.786	1745.81
729.976	1755.69
730.167	1788.82
730.357	1716.36
730.547	1729.53
730.737	1768.67
730.928	1803.35
731.118	1845.98
731.308	1794.05
731.498	1809.36
731.688	1892.47
731.879	1877.56
732.069	1917.66
732.259	1938.59
732.449	1937.62
732.639	2014.73
732.829	2054.83
733.019	2077.5
733.209	2126.91
733.399	2111.6
733.589	2197.63
733.779	2191.23
733.969	2164.88
734.159	2206.54
734.349	2288.49
734.539	2302.25
734.729	2320.27
734.919	2332.86
735.109	2376.84
735.299	2321.82
735.488	2323.76
735.678	2330.73
735.868	2325.89
736.058	2375.68
736.248	2320.66
736.437	2279.78
736.627	2266.99
736.817	2372.97
737.007	2334.41
737.196	2402.61
737.386	2376.46
737.576	2336.93
737.765	2427.8
737.955	2358.82
738.144	2442.72
738.334	2391.76
738.524	2419.27
738.713	2424.5
738.903	2419.47
739.092	2430.32
739.282	2472.17
739.471	2458.02
739.661	2422.57
739.85	2470.42
740.04	2513.24
740.229	2468.87
740.419	2541.33
740.608	2528.55
740.797	2535.33
740.987	2635.5
741.176	2571.95
741.365	2502.2
741.555	2452.99
741.744	2568.65
741.933	2555.67
742.123	2588.41
742.312	2627.75
742.501	2619.22
742.69	2661.07
742.88	2584.73
743.069	2709.7
743.258	2637.63
743.447	2690.13
743.636	2645.38
743.825	2609.53
744.014	2653.51
744.204	2670.56
744.393	2613.6
744.582	2690.91
744.771	2713.19
744.96	2696.53
745.149	2711.06
745.338	2667.66
745.527	2684.9
745.716	2659.91
745.905	2666.69
746.094	2716.87
746.283	2752.71
746.471	2700.01
746.66	2793.59
746.849	2717.84
747.038	2730.04
747.227	2686.84
747.416	2746.51
747.604	2703.31
747.793	2691.29
747.982	2739.92
748.171	2741.09
748.359	2804.83
748.548	2717.06
748.737	2729.08
748.926	2730.43
749.114	2631.23
749.303	2707.96
749.491	2701.95
749.68	2640.53
749.869	2734.31
750.057	2700.01
750.246	2681.03
750.434	2672.5
750.623	2722.68
750.811	2646.34
751	2730.82
751.188	2700.4
751.377	2705.05
751.565	2679.67
751.754	2676.18
751.942	2676.38
752.131	2730.82
752.319	2633.75
752.507	2651.38
752.696	2688.58
752.884	2737.41
753.072	2665.72
753.261	2661.65
753.449	2680.25
753.637	2618.25
753.825	2722.29
754.014	2682.38
754.202	2650.99
754.39	2698.85
754.578	2737.99
754.766	2636.85
754.955	2619.03
755.143	2722.49
755.331	2620.19
755.519	2656.23
755.707	2638.6
755.895	2653.51
756.083	2633.56
756.271	2604.11
756.459	2620.58
756.647	2665.53
756.835	2614.57
757.023	2625.61
757.211	2599.46
757.399	2608.18
757.587	2599.65
757.775	2539.59
757.963	2638.4
758.151	2601.2
758.339	2502.39
758.526	2534.55
758.714	2601.2
758.902	2464.03
759.09	2397.19
759.278	2278.23
759.465	2097.27
759.653	1807.42
759.841	1678.97
760.028	1403.26
760.216	1221.72
760.404	1156.82
760.591	949.89
760.779	764.87
760.967	712.36
761.154	565.89
761.342	621.88
761.529	600.57
761.717	664.7
761.905	656.75
762.092	729.41
762.28	687.56
762.467	670.12
762.655	614.32
762.842	653.07
763.029	640.29
763.217	671.87
763.404	668.38
763.592	700.15
763.779	624.01
763.966	684.65
764.154	712.75
764.341	798.97
764.528	776.1
764.716	853.8
764.903	887.9
765.09	940.59
765.277	946.02
765.465	1088.62
765.652	1126.01
765.839	1181.23
766.026	1292.44
766.213	1310.46
766.4	1411.01
766.588	1597.98
766.775	1548.19
766.962	1633.82
767.149	1686.91
767.336	1823.11
767.523	1782.81
767.71	1906.42
767.897	1966.49
768.084	2031
768.271	2033.13
768.458	2099.78
768.645	2106.95
768.832	2094.17
769.019	2144.35
769.206	2142.02
769.392	2236.76
769.579	2330.54
769.766	2217.58
769.953	2224.75
770.14	2337.12
770.327	2273.58
770.513	2330.54
770.7	2370.64
770.887	2256.72
771.073	2356.5
771.26	2326.47
771.447	2290.82
771.634	2312.52
771.82	2379.56
772.007	2335.19
772.193	2322.21
772.38	2384.4
772.567	2310.39
772.753	2328.21
772.94	2388.47
773.126	2398.74
773.313	2397.38
773.499	2351.85
773.686	2344.68
773.872	2309.61
774.059	2322.79
774.245	2274.74
774.432	2312.13
774.618	2244.13
774.804	2340.03
774.991	2282.68
775.177	2325.5
775.363	2298.37
775.55	2313.1
775.736	2248.58
775.922	2285.59
776.109	2316.78
776.295	2307.29
776.481	2295.86
776.667	2316.59
776.853	2290.82
777.04	2230.37
777.226	2268.54
777.412	2355.14
777.598	2253.62
777.784	2250.13
777.97	2238.12
778.156	2269.7
778.342	2247.03
778.528	2214.87
778.715	2181.35
778.901	2206.34
779.087	2265.44
779.272	2219.33
779.458	2193.56
779.644	2224.94
779.83	2158.68
780.016	2330.54
780.202	2195.11
780.388	2180.38
780.574	2109.47
780.76	2150.93
780.946	2257.11
781.131	2165.85
781.317	2146.09
781.503	2105.4
781.689	2130.59
781.874	2275.71
782.06	2163.14
782.246	2131.17
782.432	2162.75
782.617	2168.95
782.803	2188.71
782.989	2095.33
783.174	2138.15
783.36	2084.48
783.545	2130.2
783.731	2103.66
783.916	2047.86
784.102	2123.42
784.288	2080.6
784.473	2077.89
784.659	2090.1
784.844	2129.43
785.029	2051.93
785.215	2084.67
785.4	2002.14
785.586	2138.15
785.771	2007.37
785.956	2081.96
786.142	2037.98
786.327	2024.61
786.512	2063.75
786.698	2020.15
786.883	1978.5
787.068	2018.6
787.254	2056.38
787.439	1981.79
787.624	1986.83
787.809	1987.22
787.994	1997.87
788.18	2002.14
788.365	1936.65
788.55	1925.02
788.735	1972.1
788.92	1960.09
789.105	1950.79
789.29	1975.59
789.475	1916.89
789.66	1922.7
789.845	1901.39
790.03	1881.43
790.215	1920.37
790.4	1972.69
790.585	1973.65
790.77	1915.14
790.955	1812.84
791.14	1872.71
791.325	1956.02
791.51	1782.81
791.695	1865.54
791.879	1857.6
792.064	1814.98
792.249	1890.54
792.434	1905.65
792.618	1887.63
792.803	1899.45
792.988	1859.15
793.173	1857.6
793.357	1894.99
793.542	1820.01
793.727	1884.34
793.911	1921.15
794.096	1849.85
794.281	1919.79
794.465	1980.24
794.65	1884.92
794.834	1897.9
795.019	1950.21
795.203	1975.01
795.388	1940.52
795.572	1959.9
795.757	1931.61
795.941	1922.89
796.126	1915.92
796.31	1849.08
796.494	1910.11
796.679	1884.34
796.863	1843.46
797.048	1932.58
797.232	1922.31
797.416	1895.57
797.601	1879.49
797.785	1992.64
797.969	1956.41
798.153	1915.92
798.338	1943.62
798.522	1951.37
798.706	1969.59
798.89	1936.26
799.074	2026.16
799.258	1990.9
799.443	1912.04
799.627	1940.72
799.811	1999.62
799.995	1923.86
800.179	1912.24
800.363	1896.16
800.547	1949.24
800.731	1985.09
800.915	1867.29
801.099	1909.33
801.283	1908.94
801.467	1949.82
801.651	1923.28
801.835	1995.55
802.019	1966.29
802.202	1954.28
802.386	1916.89
802.57	1886.47
802.754	1886.66
802.938	1872.52
803.121	1885.31
803.305	1963.58
803.489	1882.4
803.673	1926.19
803.856	1931.22
804.04	1888.99
804.224	1929.67
804.407	1891.51
804.591	1909.91
804.775	1917.08
804.958	1905.65
805.142	1980.63
805.326	1889.37
805.509	1920.18
805.693	1962.03
805.876	1950.6
806.06	1930.06
806.243	1947.3
806.427	1985.28
806.61	1962.8
806.794	1920.37
806.977	1970.75
807.16	1958.15
807.344	1950.99
807.527	1946.72
807.71	1918.82
807.894	1914.56
808.077	1977.14
808.26	1908.94
808.444	1902.16
808.627	1951.95
808.81	1887.44
808.993	1845.2
809.177	1837.84
809.36	1900.61
809.543	1886.27
809.726	1815.56
809.909	1825.63
810.092	1829.7
810.276	1817.11
810.459	1852.56
810.642	1765.76
810.825	1794.44
811.008	1819.24
811.191	1709.38
811.374	1681.48
811.557	1743.48
811.74	1818.08
811.923	1671.02
812.106	1675.09
812.289	1649.13
812.472	1663.66
812.654	1736.51
812.837	1653
813.02	1603.98
813.203	1628.98
813.386	1490.45
813.569	1491.22
813.751	1472.82
813.934	1503.82
814.117	1490.06
814.3	1441.24
814.482	1424.77
814.665	1430.39
814.848	1381.76
815.03	1312.59
815.213	1321.7
815.396	1327.12
815.578	1282.56
815.761	1248.46
815.943	1354.44
816.126	1237.22
816.309	1243.23
816.491	1157.59
816.674	1137.64
816.856	1220.37
817.039	1148.29
817.221	1228.31
817.403	1196.92
817.586	1231.22
817.768	1248.65
817.951	1117.49
818.133	1141.32
818.315	1170.96
818.498	1207.58
818.68	1281.59
818.862	1232.96
819.045	1255.05
819.227	1215.91
819.409	1205.64
819.591	1234.9
819.774	1252.53
819.956	1181.42
820.138	1273.84
820.32	1219.78
820.502	1270.35
820.684	1355.6
820.866	1327.7
821.048	1385.83
821.231	1406.75
821.413	1372.84
821.595	1360.25
821.777	1350.76
821.959	1353.28
822.141	1416.83
822.323	1258.92
822.505	1260.08
822.686	1226.95
822.868	1211.84
823.05	1064.01
823.232	1072.92
823.414	999.3
823.596	1090.94
823.778	1070.6
823.96	1098.89
824.141	1117.1
824.323	1127.95
824.505	1168.63
824.687	1226.57
824.868	1224.43
825.05	1313.36
825.232	1349.79
825.413	1409.66
825.595	1345.53
825.777	1293.02
825.958	1331.77
826.14	1291.66
826.321	1385.05
826.503	1291.86
826.685	1324.99
826.866	1334.87
827.048	1384.66
827.229	1350.37
827.411	1264.35
827.592	1220.17
827.773	1252.91
827.955	1198.28
828.136	1197.31
828.318	1186.65
828.499	1235.09
828.68	1185.68
828.862	1226.18
829.043	1234.51
829.224	1188.59
829.406	1171.93
829.587	1185.49
829.768	1162.82
829.949	1206.03
830.131	1183.17
830.312	1246.91
830.493	1162.24
830.674	1216.1
830.855	1183.36
831.036	1212.81
831.218	1262.41
831.399	1288.18
831.58	1213.97
831.761	1223.27
831.942	1217.07
832.123	1189.75
832.304	1157.2
832.485	1187.43
832.666	1188.2
832.847	1224.63
833.028	1208.16
833.209	1219.4
833.389	1173.48
833.57	1145.77
833.751	1153.52
833.932	1225.4
834.113	1210.68
834.294	1170.38
834.475	1209.9
834.655	1217.27
834.836	1256.4
835.017	1237.22
835.198	1139.96
835.378	1265.51
835.559	1242.45
835.74	1193.24
835.92	1184.52
836.101	1167.86
836.281	1213.2
836.462	1225.98
836.643	1262.21
836.823	1285.46
837.004	1251.56
837.184	1301.55
837.365	1273.45
837.545	1287.01
837.726	1230.44
837.906	1281.59
838.087	1234.51
838.267	1263.96
838.448	1219.2
838.628	1224.24
838.808	1262.99
838.989	1288.37
839.169	1208.93
839.349	1263.18
839.53	1261.63
839.71	1281.01
839.89	1237.8
840.07	1303.1
840.251	1239.93
840.431	1272.68
840.611	1248.07
840.791	1233.35
840.971	1272.68
841.151	1233.73
841.332	1233.54
841.512	1250.4
841.692	1188.78
841.872	1223.85
842.052	1203.9
842.232	1231.8
842.412	1185.49
842.592	1199.63
842.772	1247.68
842.952	1244.2
843.132	1214.36
843.312	1191.11
843.492	1171.15
843.672	1242.07
843.851	1129.11
844.031	1187.82
844.211	1191.69
844.391	1194.79
844.571	1269.19
844.751	1204.09
844.93	1200.99
845.11	1189.37
845.29	1198.47
845.47	1228.7
845.649	1216.49
845.829	1236.25
846.009	1166.5
846.188	1219.2
846.368	1194.79
846.547	1189.37
846.727	1259.11
846.907	1160.11
847.086	1218.04
847.266	1190.92
847.445	1176
847.625	1184.52
847.804	1146.74
847.984	1167.28
848.163	1169.99
848.343	1164.37
848.522	1205.64
848.701	1217.65
848.881	1133.18
849.06	1176.19
849.239	1177.93
849.419	1196.92
849.598	1114.97
849.777	1098.5
849.957	1109.74
850.136	1041.34
850.315	1039.79
850.494	1041.34
850.674	1063.04
850.853	1131.44
851.032	1088.23
851.211	1121.94
851.39	1105.28
851.569	1051.61
851.748	1110.7
851.927	1113.61
852.107	1081.06
852.286	1061.69
852.465	1055.68
852.644	1140.93
852.823	1111.29
853.002	1083.97
853.181	1087.26
853.359	1109.35
853.538	1050.26
853.717	1130.47
853.896	1053.36
854.075	946.79
854.254	956.29
854.433	905.53
854.611	964.23
854.79	891.19
854.969	948.73
855.148	994.84
855.327	933.81
855.505	969.08
855.684	965.01
855.863	997.36
856.041	958.81
856.22	993.87
856.399	998.14
856.577	1052.39
856.756	1059.56
856.934	1151.39
857.113	1101.6
857.291	1059.56
857.47	1000.27
857.648	1032.24
857.827	1069.82
858.005	1059.94
858.184	1014.8
858.362	1101.99
858.541	1038.63
858.719	1045.22
858.898	1049.29
859.076	1034.76
859.254	1095.2
859.433	1019.06
859.611	996.78
859.789	996.78
859.967	1067.11
860.146	1094.24
860.324	984.38
860.502	1004.72
860.68	958.23
860.859	993.1
861.037	1007.24
861.215	1018.48
861.393	1028.94
861.571	997.94
861.749	980.7
861.927	991.36
862.105	999.49
862.283	986.71
862.461	961.52
862.639	940.4
862.817	980.89
862.995	977.41
863.173	985.54
863.351	970.04
863.529	978.57
863.707	1018.48
863.885	980.51
864.063	908.63
864.241	913.86
864.418	1024.68
864.596	958.42
864.774	941.56
864.952	959
865.129	981.48
865.307	928.39
865.485	867.36
865.663	970.24
865.84	881.31
866.018	906.11
866.196	824.54
866.373	859.61
866.551	824.93
866.728	765.83
866.906	817.76
867.084	825.31
867.261	900.29
867.439	871.23
867.616	909.98
867.794	856.51
867.971	894.29
868.149	872.01
868.326	930.52
868.503	921.03
868.681	892.35
868.858	882.28
869.035	851.28
869.213	907.27
869.39	872.2
869.567	967.72
869.745	896.23
869.922	895.26
870.099	908.04
870.276	918.51
870.454	914.83
870.631	894.68
870.808	879.76
870.985	908.82
871.162	952.99
871.339	928.19
871.517	856.7
871.694	848.37
871.871	900.88
872.048	860.77
872.225	857.67
872.402	878.21
872.579	826.86
872.756	898.16
872.933	812.33
873.11	870.26
873.287	888.67
873.463	857.48
873.64	849.73
873.817	893.51
873.994	834.81
874.171	833.84
874.348	822.6
874.524	769.9
874.701	832.87
874.878	787.73
875.055	869.49
875.231	866.97
875.408	858.64
875.585	770.1
875.762	842.75
875.938	806.33
876.115	831.32
876.291	809.04
876.468	831.9
876.645	790.05
876.821	799.55
876.998	813.5
877.174	832.29
877.351	816.79
877.527	738.32
877.704	797.42
877.88	791.6
878.057	785.98
878.233	835.2
878.409	776.49
878.586	787.73
878.762	766.22
878.938	785.6
879.115	735.61
879.291	782.88
879.467	743.17
879.644	797.03
879.82	798
879.996	754.21
880.172	719.72
880.349	743.36
880.525	785.02
880.701	723.02
880.877	729.6
881.053	784.43
881.229	731.54
881.405	778.23
881.581	703.45
881.757	748.78
881.933	765.45
882.109	776.49
882.285	746.07
882.461	705.19
882.637	746.07
882.813	726.12
882.989	731.54
883.165	807.3
883.341	703.25
883.517	784.63
883.693	777.46
883.869	757.12
884.044	706.74
884.22	788.31
884.396	805.17
884.572	763.7
884.747	777.27
884.923	746.65
885.099	778.23
885.275	800.13
885.45	718.56
885.626	714.88
885.801	706.16
885.977	740.07
886.153	715.46
886.328	778.82
886.504	698.22
886.679	771.45
886.855	742.58
887.03	730.96
887.206	771.65
887.381	763.12
887.557	755.37
887.732	792.18
887.908	734.06
888.083	772.81
888.258	739.48
888.434	701.12
888.609	714.49
888.784	765.06
888.96	743.94
889.135	718.95
889.31	737.35
889.485	759.05
889.661	704.03
889.836	783.08
890.011	728.44
890.186	730.77
890.361	708.1
890.537	747.82
890.712	722.63
890.887	748.98
891.062	742.39
891.237	789.86
891.412	733.28
891.587	739.1
891.762	777.85
891.937	775.13
892.112	696.09
892.287	711.97
892.462	688.14
892.637	658.5
892.812	648.62
892.987	664.12
893.161	681.17
893.336	644.16
893.511	688.92
893.686	688.34
893.861	686.01
894.035	675.16
894.21	678.45
894.385	629.82
894.56	685.62
894.734	625.37
894.909	632.15
895.084	636.6
895.258	627.31
895.433	619.17
895.608	602.7
895.782	572.86
895.957	575.96
896.131	560.46
896.306	537.02
896.48	515.51
896.655	553.29
896.829	480.64
897.004	487.42
897.178	499.82
897.353	513.58
897.527	531.21
897.701	501.18
897.876	451.38
898.05	562.98
898.224	510.86
898.399	554.26
898.573	503.11
898.747	409.73
898.921	451.77
899.096	401.98
899.27	397.91
899.444	395.97
899.618	407.98
899.792	443.25
899.967	428.71
900.141	456.03
900.315	419.03
900.489	425.42
900.663	462.23
900.837	462.23
901.011	408.18
901.185	489.94
901.359	460.49
901.533	439.76
901.707	454.87
901.881	448.86
902.055	401.2
902.229	456.42
902.403	502.53
902.576	436.08
902.75	425.42
902.924	536.05
903.098	462.62
903.272	514.35
903.446	569.57
903.619	506.21
903.793	563.76
903.967	496.91
904.14	575.77
904.314	571.12
904.488	545.35
904.661	607.93
904.835	529.27
905.009	591.27
905.182	589.33
905.356	585.07
905.529	551.74
905.703	523.26
905.876	498.27
906.05	479.09
906.223	527.33
906.397	460.1
906.57	443.05
906.744	437.82
906.917	430.46
907.09	437.43
907.264	444.41
907.437	418.06
907.61	381.25
907.784	417.28
907.957	424.26
908.13	388.41
908.304	411.66
908.477	401.2
908.65	396.55
908.823	366.13
908.996	453.51
909.17	376.4
909.343	413.21
909.516	394.81
909.689	382.6
909.862	366.91
910.035	396.75
910.208	340.56
910.381	389.19
910.554	459.71
910.727	349.86
910.9	358.77
911.073	351.6
911.246	460.88
911.419	417.09
911.592	398.88
911.765	347.73
911.938	364.58
912.11	378.53
912.283	377.37
912.456	436.08
912.629	375.43
912.802	374.08
912.974	309.75
913.147	338.23
913.32	279.72
913.493	315.57
913.665	338.62
913.838	339.2
914.01	330.48
914.183	345.21
914.356	329.71
914.528	362.45
914.701	419.22
914.873	377.95
915.046	338.23
915.218	294.83
915.391	260.15
915.563	286.5
915.736	332.03
915.908	340.95
916.081	330.87
916.253	312.66
916.425	351.6
916.598	345.6
916.77	333
916.942	298.13
917.115	249.5
917.287	344.24
917.459	327.58
917.632	261.9
917.804	237.87
917.976	325.25
918.148	294.06
918.32	308.01
918.493	341.92
918.665	376.98
918.837	327.38
919.009	391.51
919.181	360.13
919.353	352.57
919.525	323.7
919.697	352.57
919.869	299.48
920.041	405.85
920.213	429.68
920.385	377.95
920.557	359.55
920.729	374.46
920.901	345.02
921.073	362.45
921.244	329.52
921.416	382.99
921.588	365.36
921.76	330.29
921.932	392.68
922.103	336.88
922.275	355.48
922.447	331.45
922.619	283.02
922.79	339.2
922.962	306.85
923.134	326.42
923.305	281.47
923.477	271.2
923.648	283.79
923.82	339.59
923.991	244.27
924.163	265.39
924.335	281.27
924.506	251.82
924.677	344.63
924.849	256.86
925.02	295.8
925.192	289.6
925.363	292.9
925.535	324.87
925.706	286.12
925.877	311.11
926.049	279.14
926.22	304.33
926.391	282.24
926.562	328.35
926.734	252.99
926.905	315.57
927.076	246.98
927.247	255.12
927.419	235.35
927.59	244.65
927.761	239.04
927.932	231.29
928.103	239.04
928.274	204.55
928.445	201.45
928.616	219.85
928.787	224.31
928.958	256.28
929.129	243.88
929.3	205.13
929.471	147.78
929.642	131.51
929.813	85.39
929.984	214.82
930.155	126.66
930.326	190.41
930.496	121.24
930.667	79.97
930.838	134.61
931.009	88.69
931.18	107.87
931.35	112.13
931.521	129.37
931.692	81.33
931.863	29.4
932.033	104.77
932.204	89.27
932.374	101.86
932.545	46.64
932.716	111.16
932.886	88.49
933.057	6.15
933.227	39.28
933.398	110.19
933.568	41.22
933.739	-11.09
933.909	-16.32
934.08	87.33
934.25	-23.69
934.421	-7.02
934.591	84.62
934.761	-1.4
934.932	-34.34
935.102	21.85
935.272	24.56
935.443	18.55
935.613	19.33
935.783	17.78
935.953	-1.6
936.123	165.22
936.294	-21.55
936.464	4.99
936.634	31.34
936.804	-31.44
936.974	-25.62
937.144	41.22
937.314	9.25
937.484	6.35
937.655	-4.31
937.825	71.06
937.995	-6.64
938.165	38.51
938.334	-15.74
938.504	31.73
938.674	16.61
938.844	27.66
939.014	78.03
939.184	49.55
939.354	116.2
939.524	82.88
939.694	35.41
939.863	36.76
940.033	132.09
940.203	130.73
940.373	95.66
940.542	73.19
940.712	70.67
940.882	88.3
941.051	105.93
941.221	96.44
941.391	120.07
941.56	48
941.73	26.3
941.899	137.9
942.069	36.57
942.238	83.84
942.408	51.49
942.577	79.58
942.747	51.1
942.916	1.31
943.086	35.6
943.255	78.23
943.425	50.33
943.594	19.52
943.763	-28.92
943.933	6.35
944.102	-26.98
944.271	42.38
944.441	50.13
944.61	20.3
944.779	54.98
944.948	115.81
945.117	-14.58
945.287	42.58
945.456	-35.12
945.625	25.33
945.794	42.96
945.963	-12.45
946.132	54.78
946.301	33.47
946.47	55.75
946.639	-12.06
946.808	13.9
946.977	47.81
947.146	89.46
947.315	8.86
947.484	71.25
947.653	30.56
947.822	9.83
947.991	27.27
948.16	109.03
948.329	85.39
948.498	41.8
948.666	29.01
948.835	87.72
949.004	-40.54
949.173	-2.37
949.341	28.04
949.51	41.61
949.679	68.15
949.847	50.91
950.016	118.52
950.185	107.48
950.353	-6.25
950.522	30.56
950.69	80.16
950.859	6.35
951.028	82.68
951.196	46.84
951.365	41.61
951.533	25.14
951.701	83.65
951.87	75.9
952.038	27.66
952.207	46.84
952.375	87.91
952.543	41.99
952.712	19.33
952.88	-0.24
953.048	90.04
953.217	31.53
953.385	45.48
953.553	91.98
953.721	-16.71
953.89	29.4
954.058	11.19
954.226	-5.67
954.394	65.83
954.562	-1.99
954.73	29.79
954.898	11.77
955.067	61.37
955.235	14.29
955.403	82.68
955.571	88.69
955.739	39.48
955.907	22.62
956.075	11.38
956.243	10.22
956.41	66.79
956.578	1.89
956.746	-2.18
956.914	31.73
957.082	66.79
957.25	74.93
957.418	15.45
957.585	34.83
957.753	85.59
957.921	20.1
958.089	42.77
958.256	68.73
958.424	51.88
958.592	53.81
958.759	33.66
958.927	58.27
959.095	22.23
959.262	42.19
959.43	33.47
959.597	-9.15
959.765	51.49
959.932	-0.05
960.1	59.43
960.267	8.48
960.435	29.98
960.602	67.76
960.77	22.04
960.937	-7.6
961.104	40.06
961.272	-5.86
961.439	-4.31
961.606	44.32
961.774	42.96
961.941	19.71
962.108	69.89
962.275	16.61
962.443	72.03
962.61	56.91
962.777	132.86
962.944	81.13
963.111	71.44
963.278	74.16
963.446	69.51
963.613	62.34
963.78	76.09
963.947	70.28
964.114	53.04
964.281	148.75
964.448	72.22
964.615	35.02
964.782	42.96
964.949	94.31
965.116	76.29
965.282	96.24
965.449	58.27
965.616	12.93
965.783	79.97
965.95	42.38
966.117	15.65
966.283	79.78
966.45	49.74
966.617	38.31
966.784	92.95
966.95	82.49
967.117	74.54
967.284	32.89
967.45	40.06
967.617	105.93
967.784	90.04
967.95	101.48
968.117	43.93
968.283	99.15
968.45	169.48
968.616	70.28
968.783	94.89
968.949	67.38
969.116	123.37
969.282	46.84
969.449	34.63
969.615	68.73
969.781	31.14
969.948	39.09
970.114	26.49
970.28	121.62
970.447	29.21
970.613	94.89
970.779	69.7
970.945	72.99
971.112	51.1
971.278	69.89
971.444	70.48
971.61	122.4
971.776	47.42
971.942	77.06
972.108	98.38
972.275	34.24
972.441	90.82
972.607	124.72
972.773	13.71
972.939	59.04
973.105	74.74
973.271	23.78
973.437	42.96
973.602	51.49
973.768	64.47
973.934	49.55
974.1	78.23
974.266	-21.75
974.432	53.62
974.598	51.68
974.763	56.72
974.929	35.99
975.095	101.09
975.261	43.54
975.426	35.41
975.592	45.09
975.758	122.21
975.923	-1.79
976.089	42.19
976.255	65.63
976.42	91.59
976.586	60.98
976.751	76.48
976.917	144.68
977.082	51.88
977.248	22.62
977.413	5.18
977.579	26.11
977.744	52.07
977.91	29.01
978.075	35.6
978.24	59.63
978.406	44.51
978.571	39.48
978.736	12.35
978.902	62.53
979.067	20.49
979.232	20.1
979.397	42.77
979.563	104.38
979.728	8.48
979.893	30.76
980.058	37.73
980.223	91.79
980.388	67.18
980.554	39.67
980.719	22.04
980.884	53.62
981.049	97.79
981.214	25.53
981.379	48.58
981.544	7.31
981.709	34.83
981.874	37.93
982.039	43.16
982.204	77.64
982.368	41.22
982.533	19.33
982.698	72.99
982.863	87.72
983.028	38.12
983.193	81.71
983.357	52.46
983.522	59.82
983.687	50.52
983.852	17.97
984.016	37.73
984.181	61.76
984.346	65.63
984.51	68.34
984.675	48.97
984.839	62.53
985.004	50.13
985.168	83.65
985.333	74.54
985.498	39.86
985.662	56.53
985.827	84.04
985.991	36.38
986.155	20.49
986.32	82.29
986.484	117.94
986.649	60.01
986.813	4.21
986.977	45.87
987.142	62.53
987.306	8.09
987.47	23.78
987.634	52.84
987.799	54.39
987.963	92.76
988.127	79.19
988.291	134.22
988.455	39.28
988.62	26.11
988.784	66.6
988.948	83.84
989.112	36.76
989.276	68.34
989.44	55.75
989.604	30.76
989.768	37.73
989.932	126.66
990.096	-6.64
990.26	16.42
990.424	16.61
990.588	32.31
990.752	107.68
990.915	87.72
991.079	22.62
991.243	16.42
991.407	77.84
991.571	32.69
991.734	78.81
991.898	59.04
992.062	144.29
992.226	44.32
992.389	34.05
992.553	9.06
992.717	19.33
992.88	30.18
993.044	30.56
993.207	11.96
993.371	74.54
993.535	59.43
993.698	58.46
993.862	53.62
994.025	87.72
994.189	35.99
994.352	47.61
994.515	57.3
994.679	83.84
994.842	35.6
995.006	46.06
995.169	11
995.332	13.32
995.496	48.78
995.659	-7.99
995.822	27.27
995.985	27.46
996.149	64.47
996.312	64.66
996.475	104.38
996.638	18.94
996.801	78.42
996.964	95.28
997.128	30.18
997.291	28.82
997.454	55.56
997.617	-11.09
997.78	86.17
997.943	13.13
998.106	75.13
998.269	42.96
998.432	46.26
998.595	35.02
998.758	-5.28
998.92	11.19
999.083	-28.53
999.246	12.93
999.409	-21.94
999.572	-37.83
999.735	23.78
999.897	60.01
1000.06	8.48
1000.223	27.85
1000.386	67.38
1000.548	76.68
1000.711	55.56
1000.874	43.16
1001.036	-9.74
1001.199	71.64
1001.361	28.43
1001.524	63.5
1001.687	63.5
1001.849	18.55
1002.012	39.86
1002.174	40.64
1002.337	41.8
1002.499	22.81
1002.661	71.44
1002.824	-6.83
1002.986	4.6
1003.149	53.62
1003.311	8.67
1003.473	85.59
1003.636	8.09
1003.798	26.69
1003.96	41.22
1004.123	23.01
1004.285	10.8
1004.447	36.38
1004.609	16.42
1004.771	98.76
1004.933	9.83
1005.096	-4.89
1005.258	-15.74
1005.42	9.25
1005.582	64.47
1005.744	33.86
1005.906	-25.04
1006.068	13.71
1006.23	6.15
1006.392	-20.2
1006.554	-10.32
1006.716	49.36
1006.878	23.39
1007.04	-17.29
1007.202	32.5
1007.363	32.89
1007.525	10.03
1007.687	27.85
1007.849	75.71
1008.011	-33.76
1008.172	-5.67
1008.334	-4.5
1008.496	63.5
1008.658	-16.13
1008.819	-8.19
1008.981	-20.97
1009.143	-6.83
1009.304	32.69
1009.466	27.85
1009.627	72.22
1009.789	121.62
1009.95	34.83
1010.112	6.35
1010.273	21.26
1010.435	11.19
1010.596	5.18
1010.758	9.25
1010.919	-1.99
1011.081	-5.86
1011.242	10.61
1011.403	42.58
1011.565	24.17
1011.726	16.61
1011.887	16.03
1012.049	0.92
1012.21	47.81
1012.371	83.26
1012.532	-49.84
1012.693	44.32
1012.855	10.8
1013.016	-1.02
1013.177	65.24
1013.338	1.89
1013.499	82.29
1013.66	25.72
1013.821	18.36
1013.982	16.03
1014.143	16.42
1014.304	-3.73
1014.465	19.91
1014.626	45.68
1014.787	19.71
1014.948	80.74
1015.109	-78.71
1015.27	60.01
1015.431	-0.05
1015.592	2.08
1015.752	65.05
1015.913	12.35
1016.074	24.56
1016.235	-11.48
1016.395	14.48
1016.556	4.41
1016.717	-0.24
1016.877	59.82
1017.038	-3.34
1017.199	38.89
1017.359	13.13
1017.52	5.96
1017.681	-4.12
1017.841	11
1018.002	2.08
1018.162	8.48
1018.323	57.69
1018.483	-4.12
1018.644	-29.69
1018.804	-25.04
1018.964	-35.7
1019.125	1.89
1019.285	21.46
1019.446	-30.85
1019.606	-29.69
1019.766	-44.61
1019.926	57.69
1020.087	19.52
1020.247	-22.33
1020.407	14.1
1020.567	66.02
1020.728	-4.5
1020.888	-17.49
1021.048	1.31
1021.208	-15.74
1021.368	-5.47
1021.528	35.02
1021.688	35.99
1021.848	58.08
1022.008	25.72
1022.168	11.19
1022.328	7.7
1022.488	39.48
1022.648	-10.9
1022.808	25.72
1022.968	17.78
1023.128	-38.02
1023.288	4.21
1023.448	47.23
1023.608	27.27
1023.767	34.83
1023.927	-0.82
1024.087	-23.1
1024.247	-30.08
1024.406	-5.47
1024.566	-38.99
1024.726	-37.05
1024.885	35.79
1025.045	31.14
1025.205	30.56
1025.364	8.28
1025.524	24.56
1025.683	3.25
1025.843	0.92
1026.003	-4.31
1026.162	52.07
1026.321	48.39
1026.481	15.26
1026.64	-8.77
1026.8	10.41
1026.959	30.76
1027.119	11.58
1027.278	-20
1027.437	-31.63
1027.597	22.23
1027.756	28.24
1027.915	16.81
1028.074	61.76
1028.234	-21.17
1028.393	18.55
1028.552	16.81
1028.711	-83.36
1028.87	44.71
1029.03	-34.34
1029.189	25.91
1029.348	-52.94
1029.507	-34.54
1029.666	26.11
1029.825	-9.74
1029.984	19.33
1030.143	31.92
1030.302	-1.02
1030.461	-46.74
1030.62	20.1
1030.779	23.2
1030.938	-38.99
1031.097	-14.77
1031.255	40.25
1031.414	43.54
1031.573	38.12
1031.732	-19.81
1031.891	7.31
1032.049	54.78
1032.208	42.58
1032.367	13.9
1032.525	0.92
1032.684	16.81
1032.843	0.15
1033.001	-46.55
1033.16	169.67
1033.319	61.56
1033.477	49.74
1033.636	-9.54
1033.794	-46.55
1033.953	42.96
1034.111	30.18
1034.27	-13.22
1034.428	5.57
1034.587	-22.33
1034.745	13.71
1034.903	-14.97
1035.062	23.98
1035.22	-33.18
1035.378	29.01
1035.537	-24.27
1035.695	14.1
1035.853	9.45
1036.011	37.34
1036.17	4.99
1036.328	-63.99
1036.486	3.83
1036.644	40.25
1036.802	-67.08
1036.96	-28.34
1037.119	-14.39
1037.277	-25.43
1037.435	-27.17
1037.593	-1.6
1037.751	10.22
1037.909	29.01
1038.067	29.01
