Data from pine_FLMT105791__159__17-23-13-074.txt Node

Date: Mon Mar 20 17:23:13 GMT 2023
User: antho
Spectrometer: FLMT10579
Trigger mode: 0
Integration Time (sec): 1.000000E-1
Scans to average: 10
Electric dark correction enabled: true
Nonlinearity correction enabled: false
Boxcar width: 0
XAxis mode: Wavelengths
Number of Pixels in Spectrum: 3648
>>>>>Begin Spectral Data<<<<<
345.248	-153.03
345.464	-153.03
345.681	-153.03
345.898	-180.73
346.114	-158.45
346.331	-15.66
346.548	9.53
346.764	-2.49
346.981	-6.94
347.197	-13.53
347.414	45.76
347.631	-37.17
347.847	43.24
348.064	-2.29
348.28	43.43
348.497	-56.93
348.713	-6.94
348.93	43.04
349.146	26.19
349.363	-10.43
349.579	18.63
349.796	-12.76
350.012	-24.19
350.229	40.53
350.445	2.74
350.661	-16.05
350.878	-0.16
351.094	10.49
351.311	33.94
351.527	20.57
351.743	-20.5
351.96	65.91
352.176	51.96
352.392	25.8
352.609	38.39
352.825	6.04
353.041	1.78
353.257	-6.56
353.474	-7.14
353.69	21.93
353.906	10.49
354.122	-36.59
354.339	66.88
354.555	28.71
354.771	-10.43
354.987	43.82
355.203	30.84
355.42	-26.12
355.636	-16.44
355.852	-14.11
356.068	-6.75
356.284	-39.88
356.5	72.69
356.716	34.91
356.932	7.59
357.148	29.09
357.364	-5.2
357.58	24.44
357.796	48.28
358.012	69.59
358.228	18.05
358.444	-48.21
358.66	52.54
358.876	31.61
359.092	-16.05
359.308	23.48
359.524	21.73
359.74	-7.72
359.956	10.11
360.172	9.72
360.388	31.42
360.604	-1.71
360.819	69.59
361.035	34.13
361.251	38.59
361.467	-17.79
361.683	34.13
361.898	32.58
362.114	43.82
362.33	9.72
362.546	44.59
362.762	12.24
362.977	8.17
363.193	-24.19
363.409	29.29
363.624	-25.35
363.84	-17.21
364.056	-19.92
364.271	30.64
364.487	5.46
364.703	-3.46
364.918	-8.3
365.134	-19.15
365.35	-15.47
365.565	86.06
365.781	9.53
365.996	26.19
366.212	56.99
366.427	2.16
366.643	-0.74
366.858	-5.97
367.074	-23.8
367.289	48.28
367.505	94.58
367.72	-45.11
367.936	-14.31
368.151	24.25
368.367	10.11
368.582	3.71
368.798	-10.62
369.013	76.76
369.228	-1.52
369.444	34.91
369.659	67.84
369.874	21.73
370.09	58.35
370.305	-53.44
370.52	-18.37
370.736	50.79
370.951	6.04
371.166	60.29
371.381	45.76
371.597	28.71
371.812	-44.34
372.027	-42.98
372.242	25.22
372.458	49.05
372.673	29.09
372.888	-11.98
373.103	31.03
373.318	90.32
373.533	38.98
373.749	39.36
373.964	-15.47
374.179	63.19
374.394	-23.02
374.609	46.34
374.824	15.92
375.039	58.74
375.254	-11.59
375.469	69.39
375.684	15.14
375.899	52.93
376.114	27.35
376.329	29.48
376.544	58.35
376.759	49.05
376.974	13.4
377.189	3.33
377.404	-9.85
377.619	37.81
377.834	-41.82
378.049	-21.09
378.264	3.52
378.478	19.79
378.693	-2.1
378.908	17.47
379.123	21.15
379.338	69.39
379.553	19.6
379.767	63.78
379.982	27.93
380.197	52.54
380.412	17.47
380.626	20.96
380.841	109.31
381.056	52.15
381.271	87.8
381.485	-4.42
381.7	-11.98
381.915	35.88
382.129	11.85
382.344	38.2
382.559	5.07
382.773	32.39
382.988	-44.53
383.202	19.21
383.417	-10.24
383.632	105.62
383.846	13.59
384.061	45.37
384.275	13.59
384.49	46.34
384.704	32
384.919	44.79
385.133	25.99
385.348	49.05
385.562	-37.17
385.777	49.63
385.991	9.72
386.206	13.98
386.42	11.27
386.634	63.39
386.849	26.96
387.063	18.63
387.277	-13.92
387.492	-10.62
387.706	-8.11
387.92	-24.77
388.135	23.09
388.349	1.19
388.563	36.46
388.778	10.88
388.992	32.97
389.206	46.14
389.42	91.48
389.635	4.68
389.849	36.46
390.063	37.81
390.277	12.04
390.491	65.71
390.706	35.68
390.92	50.21
391.134	38.59
391.348	47.69
391.562	-16.63
391.776	-13.72
391.99	-15.08
392.205	57.96
392.419	-2.49
392.633	0.61
392.847	75.79
393.061	5.26
393.275	74.62
393.489	26.38
393.703	31.23
393.917	75.79
394.131	-18.37
394.345	32.78
394.559	50.21
394.773	12.82
394.986	27.74
395.2	10.49
395.414	48.47
395.628	-6.94
395.842	30.45
396.056	21.93
396.27	-36.39
396.484	42.85
396.697	32
396.911	75.21
397.125	35.49
397.339	71.33
397.553	41.69
397.766	66.1
397.98	44.4
398.194	55.83
398.408	9.14
398.621	38.2
398.835	39.94
399.049	25.03
399.262	56.03
399.476	55.44
399.69	51.76
399.903	97.29
400.117	29.68
400.331	22.89
400.544	27.54
400.758	127.13
400.971	13.4
401.185	24.25
401.398	25.03
401.612	98.65
401.826	36.65
402.039	45.76
402.253	8.56
402.466	47.5
402.68	30.26
402.893	28.71
403.106	50.6
403.32	27.35
403.533	47.89
403.747	45.95
403.96	38.98
404.174	61.45
404.387	16.89
404.6	35.68
404.814	58.16
405.027	32.58
405.24	47.11
405.454	34.91
405.667	86.83
405.88	-44.14
406.094	39.17
406.307	64.16
406.52	36.65
406.733	-7.72
406.947	0.03
407.16	99.81
407.373	63.39
407.586	9.53
407.799	17.28
408.012	39.94
408.226	60.87
408.439	70.75
408.652	-11.01
408.865	37.43
409.078	63
409.291	65.52
409.504	5.46
409.717	25.99
409.93	35.29
410.143	36.65
410.357	-4.81
410.57	0.03
410.783	33.94
410.996	26.38
411.209	17.86
411.421	71.14
411.634	35.29
411.847	-14.5
412.06	46.92
412.273	39.94
412.486	34.33
412.699	122.87
412.912	30.26
413.125	54.09
413.338	60.09
413.55	77.14
413.763	38.98
413.976	69.01
414.189	10.88
414.402	15.92
414.615	85.09
414.827	-6.94
415.04	75.21
415.253	78.89
415.466	58.74
415.678	101.17
415.891	21.15
416.104	56.8
416.316	37.81
416.529	-10.82
416.742	54.28
416.954	71.14
417.167	23.48
417.38	26.19
417.592	78.89
417.805	24.25
418.017	-7.52
418.23	59.9
418.442	7.2
418.655	22.31
418.868	42.85
419.08	67.46
419.293	67.84
419.505	37.04
419.718	54.86
419.93	67.65
420.142	42.27
420.355	87.41
420.567	87.8
420.78	42.46
420.992	56.22
421.205	107.76
421.417	-22.83
421.629	13.4
421.842	-10.04
422.054	-14.69
422.266	69.98
422.479	56.41
422.691	23.09
422.903	85.86
423.115	34.71
423.328	37.81
423.54	76.56
423.752	46.53
423.964	7.01
424.177	46.34
424.389	34.52
424.601	143.41
424.813	34.13
425.025	59.51
425.238	39.36
425.45	46.92
425.662	31.03
425.874	338.7
426.086	50.02
426.298	45.37
426.51	62.61
426.722	50.99
426.934	26.96
427.146	54.28
427.358	9.33
427.57	73.46
427.782	16.89
427.994	36.26
428.206	24.25
428.418	2.36
428.63	55.83
428.842	83.54
429.054	59.13
429.266	71.14
429.478	5.07
429.69	60.87
429.902	-2.68
430.114	80.44
430.325	52.73
430.537	37.62
430.749	51.38
430.961	31.61
431.173	43.04
431.384	89.54
431.596	-4.23
431.808	29.09
432.02	56.99
432.231	70.36
432.443	63.19
432.655	33.74
432.867	10.69
433.078	51.96
433.29	123.64
433.502	85.86
433.713	102.72
433.925	77.92
434.136	69.01
434.348	61.26
434.56	2.36
434.771	130.23
434.983	9.91
435.194	45.95
435.406	42.85
435.617	74.04
435.829	119.19
436.04	79.47
436.252	93.03
436.463	89.35
436.675	71.14
436.886	79.86
437.098	66.1
437.309	118.02
437.521	49.83
437.732	76.56
437.943	68.43
438.155	38.98
438.366	-1.71
438.578	117.64
438.789	88.38
439	83.15
439.211	57.19
439.423	52.15
439.634	78.69
439.845	62.42
440.057	83.34
440.268	76.76
440.479	33.16
440.69	70.94
440.902	32.78
441.113	98.65
441.324	46.14
441.535	65.33
441.746	102.91
441.957	41.69
442.168	57.77
442.38	71.53
442.591	116.86
442.802	30.84
443.013	45.18
443.224	90.9
443.435	50.02
443.646	74.24
443.857	61.06
444.068	65.13
444.279	36.84
444.49	139.53
444.701	48.08
444.912	174.6
445.123	107.76
445.334	86.64
445.545	91.87
445.756	90.51
445.967	61.06
446.178	87.8
446.388	107.17
446.599	108.92
446.81	104.66
447.021	75.4
447.232	94.39
447.443	151.93
447.653	26.58
447.864	98.65
448.075	81.79
448.286	86.25
448.496	93.22
448.707	149.02
448.918	64.74
449.129	162.39
449.339	35.49
449.55	103.49
449.761	45.18
449.971	129.07
450.182	57.77
450.393	84.89
450.603	96.32
450.814	94.58
451.024	93.22
451.235	119.38
451.446	132.94
451.656	156.39
451.867	69.78
452.077	120.74
452.288	154.45
452.498	135.46
452.709	76.17
452.919	111.05
453.13	59.13
453.34	136.82
453.55	67.07
453.761	144.18
453.971	107.95
454.182	137.4
454.392	120.54
454.602	156.19
454.813	103.3
455.023	107.76
455.233	89.16
455.444	124.22
455.654	47.69
455.864	87.22
456.075	83.54
456.285	82.37
456.495	69.2
456.705	117.83
456.916	141.66
457.126	156.58
457.336	87.8
457.546	59.9
457.756	55.25
457.967	139.14
458.177	86.83
458.387	124.81
458.597	87.61
458.807	70.56
459.017	96.71
459.227	96.52
459.437	111.82
459.647	129.26
459.857	117.25
460.068	86.64
460.278	155.61
460.488	112.6
460.698	160.65
460.908	72.88
461.117	67.07
461.327	81.41
461.537	114.15
461.747	116.28
461.957	105.43
462.167	205.6
462.377	160.07
462.587	100.39
462.797	150.77
463.007	132.56
463.216	132.36
463.426	154.06
463.636	140.69
463.846	77.72
464.056	84.51
464.265	152.9
464.475	93.03
464.685	128.49
464.895	135.46
465.104	112.21
465.314	120.35
465.524	127.13
465.733	94.58
465.943	196.49
466.153	180.99
466.362	158.71
466.572	139.34
466.782	104.85
466.991	134.69
467.201	169.17
467.41	65.13
467.62	128.49
467.829	111.63
468.039	144.96
468.249	135.07
468.458	112.6
468.668	136.82
468.877	162
469.086	182.93
469.296	146.51
469.505	100.59
469.715	187.19
469.924	169.17
470.134	174.79
470.343	200.37
470.552	120.54
470.762	132.36
470.971	96.13
471.18	159.29
471.39	131.39
471.599	128.49
471.808	171.89
472.018	113.96
472.227	172.66
472.436	171.3
472.645	112.21
472.855	97.87
473.064	168.2
473.273	149.8
473.482	151.54
473.691	183.7
473.901	176.92
474.11	145.34
474.319	206.37
474.528	138.76
474.737	190.68
474.946	166.46
475.155	131.01
475.364	174.02
475.573	137.4
475.783	173.05
475.992	153.48
476.201	178.67
476.41	139.92
476.619	123.84
476.828	170.34
477.037	142.63
477.245	168.59
477.454	183.51
477.663	157.94
477.872	125.39
478.081	224.78
478.29	105.24
478.499	235.44
478.708	158.71
478.917	223.23
479.125	148.83
479.334	183.12
479.543	155.61
479.752	167.24
479.961	153.67
480.169	200.95
480.378	129.46
480.587	251.32
480.796	195.72
481.004	177.89
481.213	174.4
481.422	176.34
481.63	162.59
481.839	200.37
482.048	238.54
482.256	196.88
482.465	183.7
482.674	208.12
482.882	192.04
483.091	262.17
483.299	194.94
483.508	227.49
483.716	163.55
483.925	191.26
484.134	186.42
484.342	170.14
484.551	228.07
484.759	222.26
484.967	200.37
485.176	233.5
485.384	215.87
485.593	243.19
485.801	236.02
486.01	213.35
486.218	199.98
486.426	168.79
486.635	187.19
486.843	211.22
487.051	215.67
487.26	193.39
487.468	212.38
487.676	219.74
487.885	205.99
488.093	191.07
488.301	208.89
488.509	225.55
488.717	246.29
488.926	212.19
489.134	197.07
489.342	195.33
489.55	188.16
489.758	228.85
489.967	177.89
490.175	327.08
490.383	183.32
490.591	253.45
490.799	171.3
491.007	249.58
491.215	207.73
491.423	219.94
491.631	219.94
491.839	204.44
492.047	257.52
492.255	175.95
492.463	183.7
492.671	204.44
492.879	261.4
493.087	198.82
493.295	239.5
493.503	253.84
493.711	272.05
493.919	260.82
494.127	276.12
494.334	267.98
494.542	208.7
494.75	210.44
494.958	195.33
495.166	282.71
495.374	254.03
495.581	251.71
495.789	250.55
495.997	304.99
496.205	232.53
496.412	240.28
496.62	201.72
496.828	260.04
497.035	237.57
497.243	269.15
497.451	261.98
497.658	241.64
497.866	234.08
498.074	320.49
498.281	224.97
498.489	343.16
498.696	267.79
498.904	264.3
499.112	236.79
499.319	321.27
499.527	244.54
499.734	293.95
499.942	227.1
500.149	220.9
500.357	236.21
500.564	237.57
500.771	280.97
500.979	211.6
501.186	242.6
501.394	274.18
501.601	272.25
501.808	292.01
502.016	263.72
502.223	269.73
502.43	263.92
502.638	274.18
502.845	216.84
503.052	334.05
503.26	250.16
503.467	314.68
503.674	267.4
503.881	269.53
504.089	342.38
504.296	287.55
504.503	250.55
504.71	288.13
504.917	215.67
505.125	274.96
505.332	260.23
505.539	266.24
505.746	298.21
505.953	327.85
506.16	292.98
506.367	330.95
506.574	338.9
506.781	340.25
506.988	265.85
507.195	295.88
507.402	292.59
507.609	320.3
507.816	249
508.023	293.37
508.23	264.5
508.437	242.8
508.644	280.58
508.851	359.43
509.058	303.63
509.265	290.07
509.472	301.89
509.679	401.67
509.885	285.42
510.092	309.25
510.299	327.66
510.506	316.62
510.713	307.51
510.92	292.98
511.126	313.9
511.333	326.88
511.54	329.98
511.746	346.26
511.953	358.27
512.16	346.06
512.367	297.82
512.573	287.36
512.78	282.32
512.987	325.72
513.193	315.65
513.4	238.15
513.606	321.07
513.813	307.32
514.02	331.34
514.226	403.61
514.433	361.76
514.639	275.73
514.846	332.31
515.052	310.8
515.259	330.18
515.465	305.38
515.672	332.31
515.878	405.55
516.085	302.28
516.291	366.21
516.497	275.73
516.704	317.78
516.91	280.38
517.117	296.66
517.323	261.59
517.529	321.85
517.736	301.7
517.942	299.76
518.148	272.25
518.354	309.25
518.561	335.99
518.767	329.98
518.973	332.89
519.179	342.19
519.386	335.02
519.592	293.75
519.798	323.59
520.004	369.7
520.21	276.32
520.417	363.11
520.623	350.52
520.829	363.89
521.035	345.48
521.241	342.38
521.447	369.31
521.653	441.58
521.859	318.75
522.065	362.53
522.271	455.92
522.477	374.35
522.683	421.43
522.889	404.96
523.095	403.8
523.301	355.17
523.507	354.78
523.713	404
523.919	347.42
524.125	403.61
524.331	347.42
524.537	420.46
524.742	388.5
524.948	413.68
525.154	402.25
525.36	491.96
525.566	443.33
525.772	436.16
525.977	334.63
526.183	412.52
526.389	443.13
526.595	394.89
526.8	392.37
527.006	367.76
527.212	363.31
527.417	349.55
527.623	341.22
527.829	401.28
528.034	399.93
528.24	377.84
528.446	352.85
528.651	417.95
528.857	422.21
529.062	450.69
529.268	394.7
529.473	404.77
529.679	369.51
529.884	453.21
530.09	397.6
530.295	480.91
530.501	421.05
530.706	437.13
530.912	373
531.117	420.46
531.323	378.42
531.528	415.43
531.733	415.81
531.939	434.41
532.144	443.71
532.35	415.23
532.555	469.48
532.76	475.49
532.966	490.02
533.171	464.64
533.376	406.13
533.581	410
533.787	417.56
533.992	444.68
534.197	480.91
534.402	427.24
534.607	439.45
534.813	536.32
535.018	446.62
535.223	400.9
535.428	437.9
535.633	488.66
535.838	465.8
536.043	481.3
536.249	514.82
536.454	397.99
536.659	457.86
536.864	411.55
537.069	433.25
537.274	489.24
537.479	455.14
537.684	472.78
537.889	408.65
538.094	509.59
538.299	465.03
538.504	480.91
538.708	481.11
538.913	466.77
539.118	435.96
539.323	471.42
539.528	437.32
539.733	447.59
539.938	485.76
540.142	485.95
540.347	478.2
540.552	444.68
540.757	486.34
540.962	459.02
541.166	417.75
541.371	421.63
541.576	449.72
541.781	361.76
541.985	485.18
542.19	462.51
542.395	489.24
542.599	528.57
542.804	493.89
543.008	530.9
543.213	496.03
543.418	458.83
543.622	512.49
543.827	452.04
544.031	525.28
544.236	530.71
544.44	468.71
544.645	535.94
544.849	455.14
545.054	522.57
545.258	557.06
545.463	509.97
545.667	494.09
545.872	488.08
546.076	500.87
546.281	480.53
546.485	474.52
546.689	480.33
546.894	510.56
547.098	450.11
547.302	426.47
547.507	499.13
547.711	499.32
547.915	525.86
548.119	461.54
548.324	499.51
548.528	559.19
548.732	492.73
548.936	535.36
549.141	533.22
549.345	471.03
549.549	479.17
549.753	453.01
549.957	547.17
550.161	555.7
550.366	492.73
550.57	464.64
550.774	489.63
550.978	458.63
551.182	503.97
551.386	484.79
551.59	484.59
551.794	469.87
551.998	487.11
552.202	478.01
552.406	457.66
552.61	490.41
552.814	496.03
553.018	555.51
553.222	515.79
553.426	492.93
553.63	560.16
553.833	499.32
554.037	473.74
554.241	528.77
554.445	501.84
554.649	476.65
554.853	497.58
555.056	543.11
555.26	515.4
555.464	490.41
555.668	518.5
555.871	535.94
556.075	550.86
556.279	459.79
556.483	444.29
556.686	493.51
556.89	496.8
557.094	518.89
557.297	447.59
557.501	548.72
557.704	454.95
557.908	520.63
558.112	444.29
558.315	570.81
558.519	499.51
558.722	527.99
558.926	491.38
559.129	438.29
559.333	421.24
559.536	468.51
559.74	455.14
559.943	435.96
560.147	408.45
560.35	500.87
560.553	447.39
560.757	389.08
560.96	518.11
561.164	434.61
561.367	521.6
561.57	458.83
561.774	492.93
561.977	499.71
562.18	456.69
562.384	552.99
562.587	462.31
562.79	445.46
562.993	462.31
563.197	499.32
563.4	564.42
563.603	533.42
563.806	563.06
564.009	430.73
564.212	476.26
564.416	453.98
564.619	480.33
564.822	455.53
565.025	511.14
565.228	477.62
565.431	451.46
565.634	422.59
565.837	458.63
566.04	442.74
566.243	458.83
566.446	384.04
566.649	484.79
566.852	409.81
567.055	438.68
567.258	503.97
567.461	531.09
567.664	475.1
567.867	380.75
568.07	480.53
568.273	478.59
568.475	500.48
568.678	446.43
568.881	439.45
569.084	457.47
569.287	374.74
569.489	384.04
569.692	483.04
569.895	469.68
570.098	408.45
570.3	407.48
570.503	387.91
570.706	408.84
570.909	395.66
571.111	385.2
571.314	389.08
571.516	425.31
571.719	444.1
571.922	410.58
572.124	396.25
572.327	431.89
572.529	384.43
572.732	372.22
572.935	446.23
573.137	502.81
573.34	395.86
573.542	446.23
573.745	428.79
573.947	438.87
574.15	408.26
574.352	390.43
574.554	444.29
574.757	386.56
574.959	396.63
575.162	388.88
575.364	417.75
575.566	497.77
575.769	392.76
575.971	449.14
576.173	328.05
576.376	398.76
576.578	418.72
576.78	490.6
576.982	331.34
577.185	393.53
577.387	347.81
577.589	352.65
577.791	406.71
577.993	428.79
578.196	383.46
578.398	436.16
578.6	431.12
578.802	374.55
579.004	362.92
579.206	364.47
579.408	388.11
579.61	396.25
579.812	401.09
580.014	378.42
580.216	366.8
580.418	369.12
580.62	376.87
580.822	304.22
581.024	394.5
581.226	421.24
581.428	352.85
581.63	459.41
581.832	359.24
582.034	425.31
582.236	371.45
582.438	400.51
582.64	429.76
582.841	453.98
583.043	488.47
583.245	434.99
583.447	385.4
583.649	393.53
583.85	399.73
584.052	432.28
584.254	385.98
584.456	451.27
584.657	351.68
584.859	412.71
585.061	383.85
585.262	364.66
585.464	368.15
585.666	449.91
585.867	385.2
586.069	429.38
586.27	400.12
586.472	376.87
586.674	368.35
586.875	373.19
587.077	370.48
587.278	384.23
587.48	379.58
587.681	481.69
587.883	416.01
588.084	330.76
588.285	379.58
588.487	371.06
588.688	383.26
588.89	336.96
589.091	354.78
589.292	400.12
589.494	369.9
589.695	342.96
589.896	298.98
590.098	270.12
590.299	371.45
590.5	295.5
590.702	311.97
590.903	335.6
591.104	381.33
591.305	349.16
591.507	418.14
591.708	399.73
591.909	335.21
592.11	430.73
592.311	388.11
592.512	368.35
592.714	330.18
592.915	314.87
593.116	360.01
593.317	323.4
593.518	337.35
593.719	339.48
593.92	385.4
594.121	403.8
594.322	401.28
594.523	373.19
594.724	327.08
594.925	358.66
595.126	401.28
595.327	409.23
595.528	374.74
595.729	366.02
595.929	366.02
596.13	367.38
596.331	359.43
596.532	398.38
596.733	419.5
596.934	365.44
597.135	365.44
597.335	375.71
597.536	332.89
597.737	374.74
597.938	327.27
598.138	376.1
598.339	364.47
598.54	357.3
598.74	405.74
598.941	384.81
599.142	396.25
599.342	358.66
599.543	324.75
599.744	360.21
599.944	378.23
600.145	316.81
600.345	363.89
600.546	422.59
600.746	429.18
600.947	412.71
601.147	407.29
601.348	410
601.548	339.67
601.749	363.7
601.949	335.41
602.15	347.42
602.35	368.35
602.551	401.48
602.751	323.98
602.951	322.82
603.152	286.78
603.352	356.91
603.552	384.04
603.753	381.33
603.953	399.73
604.153	354.78
604.354	368.15
604.554	324.37
604.754	357.69
604.954	329.79
605.155	371.06
605.355	336.96
605.555	385.98
605.755	430.15
605.955	360.01
606.155	403.41
606.356	371.25
606.556	369.12
606.756	386.17
606.956	299.18
607.156	404.96
607.356	325.53
607.556	377.26
607.756	368.35
607.956	413.3
608.156	338.12
608.356	348.78
608.556	404.58
608.756	366.02
608.956	317.78
609.156	365.83
609.356	302.47
609.556	307.7
609.755	362.34
609.955	341.22
610.155	361.56
610.355	382.88
610.555	324.56
610.755	362.15
610.954	316.62
611.154	363.89
611.354	382.68
611.554	338.7
611.753	327.47
611.953	315.07
612.153	377.06
612.352	371.64
612.552	300.92
612.752	273.99
612.951	335.6
613.151	372.61
613.351	323.01
613.55	310.22
613.75	371.45
613.949	357.88
614.149	362.15
614.348	345.1
614.548	302.08
614.747	312.16
614.947	299.76
615.146	257.33
615.346	357.11
615.545	358.85
615.745	342
615.944	369.51
616.144	335.8
616.343	361.56
616.542	331.53
616.742	327.27
616.941	351.1
617.14	307.12
617.34	319.91
617.539	306.73
617.738	327.85
617.938	387.14
618.137	316.81
618.336	296.66
618.535	342.77
618.734	287.36
618.934	339.28
619.133	341.22
619.332	343.93
619.531	300.34
619.73	299.76
619.929	339.48
620.128	373.58
620.328	407.48
620.527	329.02
620.726	303.44
620.925	330.76
621.124	312.16
621.323	324.56
621.522	302.86
621.721	276.9
621.92	292.59
622.119	323.2
622.318	311.19
622.517	316.03
622.715	328.63
622.914	257.33
623.113	314.48
623.312	283.87
623.511	333.47
623.71	306.73
623.909	300.34
624.107	386.17
624.306	259.65
624.505	267.98
624.704	306.35
624.902	296.66
625.101	353.23
625.3	308.28
625.499	286.78
625.697	310.03
625.896	302.08
626.095	328.05
626.293	270.5
626.492	276.32
626.69	319.33
626.889	279.42
627.088	324.17
627.286	250.16
627.485	283.1
627.683	279.03
627.882	316.62
628.08	247.45
628.279	291.82
628.477	374.93
628.676	255.39
628.874	318.94
629.073	275.73
629.271	249.58
629.469	308.28
629.668	253.26
629.866	315.45
630.065	289.1
630.263	329.21
630.461	289.49
630.66	273.8
630.858	315.07
631.056	308.87
631.254	339.28
631.453	266.24
631.651	323.59
631.849	311.97
632.047	319.33
632.245	278.64
632.444	309.06
632.642	304.02
632.84	315.84
633.038	281.74
633.236	266.43
633.434	257.13
633.632	252.48
633.83	273.6
634.028	307.12
634.227	291.23
634.425	339.09
634.623	274.57
634.821	267.6
635.019	289.88
635.216	256.94
635.414	318.36
635.612	293.56
635.81	286.58
636.008	362.15
636.206	274.77
636.404	298.98
636.602	238.54
636.8	289.88
636.997	312.74
637.195	298.6
637.393	272.44
637.591	338.12
637.789	303.83
637.986	276.7
638.184	278.64
638.382	336.18
638.58	325.72
638.777	331.53
638.975	306.35
639.173	294.72
639.37	311.77
639.568	324.75
639.765	314.1
639.963	284.84
640.161	355.75
640.358	348.2
640.556	263.14
640.753	232.72
640.951	240.86
641.148	310.61
641.346	280.19
641.543	280
641.741	314.1
641.938	275.54
642.136	278.64
642.333	241.64
642.531	316.23
642.728	307.7
642.925	304.6
643.123	266.24
643.32	303.25
643.517	281.55
643.715	307.9
643.912	254.23
644.109	268.37
644.306	248.03
644.504	262.56
644.701	257.52
644.898	326.5
645.095	279.8
645.293	281.55
645.49	291.04
645.687	309.25
645.884	302.86
646.081	227.69
646.278	255.97
646.475	264.3
646.672	262.17
646.87	284.65
647.067	288.91
647.264	279.8
647.461	247.45
647.658	226.72
647.855	293.75
648.052	270.89
648.249	207.73
648.446	273.8
648.642	237.18
648.839	236.79
649.036	242.41
649.233	213.93
649.43	227.49
649.627	201.34
649.824	253.45
650.021	251.71
650.217	227.3
650.414	246.48
650.611	259.65
650.808	230.98
651.004	243.19
651.201	269.53
651.398	285.23
651.595	280.58
651.791	255.58
651.988	268.18
652.185	227.69
652.381	264.69
652.578	228.07
652.775	263.53
652.971	247.45
653.168	236.6
653.364	254.42
653.561	216.84
653.757	236.21
653.954	235.05
654.15	242.8
654.347	300.73
654.543	241.64
654.74	189.32
654.936	217.03
655.133	237.57
655.329	241.05
655.525	241.05
655.722	262.17
655.918	227.88
656.115	270.31
656.311	194.36
656.507	199.98
656.704	182.15
656.9	208.89
657.096	200.75
657.292	225.94
657.489	255.97
657.685	236.79
657.881	247.06
658.077	197.46
658.273	239.7
658.47	304.8
658.666	225.94
658.862	257.13
659.058	204.05
659.254	280.77
659.45	210.05
659.646	231.37
659.842	202.11
660.038	239.89
660.234	203.66
660.43	221.29
660.626	290.07
660.822	235.05
661.018	283.29
661.214	259.65
661.41	183.9
661.606	273.41
661.802	279.8
661.998	219.16
662.194	193
662.39	238.92
662.586	263.92
662.781	259.46
662.977	246.87
663.173	269.53
663.369	255.58
663.564	234.85
663.76	270.5
663.956	196.49
664.152	290.07
664.347	193.2
664.543	255.39
664.739	222.07
664.934	179.05
665.13	162.97
665.326	262.56
665.521	233.69
665.717	184.67
665.912	173.63
666.108	143.21
666.304	181.19
666.499	235.24
666.695	158.52
666.89	231.75
667.086	263.53
667.281	227.88
667.477	273.6
667.672	254.42
667.867	222.26
668.063	260.04
668.258	202.3
668.454	236.02
668.649	309.25
668.844	223.81
669.04	259.27
669.235	210.05
669.43	184.48
669.626	194.55
669.821	213.35
670.016	188.16
670.211	221.68
670.407	212.38
670.602	224.2
670.797	218.77
670.992	246.48
671.187	178.67
671.382	269.92
671.578	211.41
671.773	235.44
671.968	203.85
672.163	184.09
672.358	250.55
672.553	218.58
672.748	207.73
672.943	284.65
673.138	230.98
673.333	249.38
673.528	183.51
673.723	236.79
673.918	206.37
674.113	177.5
674.308	298.4
674.503	242.8
674.698	223.23
674.892	236.6
675.087	264.3
675.282	221.1
675.477	217.8
675.672	265.27
675.867	219.35
676.061	189.52
676.256	182.93
676.451	179.83
676.646	238.54
676.84	190.49
677.035	172.66
677.23	157.55
677.424	218
677.619	255.78
677.814	264.5
678.008	221.1
678.203	185.06
678.397	190.68
678.592	222.26
678.787	269.92
678.981	188.94
679.176	219.74
679.37	200.75
679.565	165.1
679.759	199.59
679.954	243.38
680.148	278.25
680.342	271.86
680.537	227.49
680.731	184.29
680.926	242.6
681.12	235.63
681.314	184.87
681.509	207.54
681.703	223.81
681.897	244.93
682.092	233.89
682.286	186.61
682.48	253.07
682.674	251.13
682.869	200.56
683.063	187.39
683.257	268.57
683.451	191.45
683.645	216.64
683.839	223.62
684.034	195.52
684.228	228.85
684.422	187
684.616	191.45
684.81	232.34
685.004	210.44
685.198	185.25
685.392	244.35
685.586	172.47
685.78	215.87
685.974	229.43
686.168	241.25
686.362	261.4
686.556	169.56
686.75	171.5
686.944	218.19
687.138	249.38
687.331	166.65
687.525	175.76
687.719	134.11
687.913	207.34
688.107	187
688.301	160.45
688.494	206.18
688.688	146.51
688.882	139.53
689.076	120.74
689.269	145.73
689.463	257.13
689.657	195.91
689.85	162.2
690.044	180.8
690.238	174.02
690.431	153.09
690.625	174.79
690.818	166.65
691.012	171.11
691.205	208.5
691.399	145.15
691.593	168.59
691.786	221.68
691.98	210.05
692.173	261.4
692.366	221.87
692.56	218.39
692.753	280.77
692.947	178.67
693.14	254.42
693.333	249.58
693.527	169.95
693.72	220.13
693.914	177.31
694.107	214.7
694.3	216.45
694.493	191.84
694.687	225.94
694.88	185.25
695.073	249
695.266	236.02
695.46	214.12
695.653	292.59
695.846	263.92
696.039	168.4
696.232	214.7
696.425	235.63
696.618	238.34
696.812	207.73
697.005	278.06
697.198	332.12
697.391	268.37
697.584	249.97
697.777	322.04
697.97	309.64
698.163	284.07
698.356	237.18
698.549	352.26
698.742	298.02
698.935	259.07
699.127	306.15
699.32	263.92
699.513	247.06
699.706	297.24
699.899	296.47
700.092	278.45
700.285	299.37
700.477	255.2
700.67	321.46
700.863	306.54
701.056	388.88
701.248	332.89
701.441	362.53
701.634	299.57
701.826	381.33
702.019	280.77
702.212	350.71
702.404	280.77
702.597	285.81
702.79	287.36
702.982	316.81
703.175	331.34
703.367	356.33
703.56	330.76
703.752	394.7
703.945	345.87
704.137	386.17
704.33	348.2
704.522	374.74
704.715	373.19
704.907	370.28
705.1	415.04
705.292	409.81
705.484	337.54
705.677	388.69
705.869	409.23
706.061	402.45
706.254	426.08
706.446	386.17
706.638	372.41
706.831	443.52
707.023	412.71
707.215	473.36
707.407	441.78
707.599	405.93
707.792	468.71
707.984	409.23
708.176	461.34
708.368	441.58
708.56	435.77
708.752	415.43
708.944	406.9
709.136	452.43
709.329	421.05
709.521	532.06
709.713	500.29
709.905	477.23
710.097	496.41
710.289	446.81
710.481	437.51
710.672	505.71
710.864	487.11
711.056	517.53
711.248	511.52
711.44	506.49
711.632	478.59
711.824	495.25
712.016	566.36
712.207	550.08
712.399	548.53
712.591	596.58
712.783	561.9
712.975	581.27
713.166	518.89
713.358	527.99
713.55	593.29
713.741	584.18
713.933	575.07
714.125	580.31
714.316	534.97
714.508	639.2
714.7	620.02
714.891	582.63
715.083	669.82
715.274	631.26
715.466	596.58
715.657	640.75
715.849	538.26
716.04	644.63
716.232	559.57
716.423	636.3
716.615	563.06
716.806	595.42
716.998	558.8
717.189	577.01
717.381	531.67
717.572	499.9
717.763	569.46
717.955	543.3
718.146	532.45
718.337	493.7
718.528	479.94
718.72	449.53
718.911	523.54
719.102	475.29
719.293	520.24
719.485	506.29
719.676	493.89
719.867	455.53
720.058	460.57
720.249	463.28
720.44	494.86
720.632	514.04
720.823	525.47
721.014	559.19
721.205	523.34
721.396	577.98
721.587	617.7
721.778	618.67
721.969	618.47
722.16	601.23
722.351	593.48
722.542	712.25
722.733	704.5
722.924	630.68
723.115	681.83
723.305	701.59
723.496	689.77
723.687	654.51
723.878	651.99
724.069	657.8
724.26	690.35
724.45	635.72
724.641	608.01
724.832	638.82
725.023	649.47
725.213	622.15
725.404	612.85
725.595	635.91
725.785	624.09
725.976	657.03
726.167	649.86
726.357	639.79
726.548	722.13
726.739	674.85
726.929	694.81
727.12	710.12
727.31	739.37
727.501	671.56
727.691	713.41
727.882	705.27
728.072	730.65
728.263	699.85
728.453	734.72
728.644	721.35
728.834	729.3
729.024	763.59
729.215	701.01
729.405	755.26
729.596	814.35
729.786	800.01
729.976	758.55
730.167	788
730.357	727.17
730.547	757.58
730.737	806.21
730.928	823.07
731.118	860.08
731.308	772.89
731.498	780.06
731.688	863.95
731.879	854.46
732.069	854.65
732.259	837.02
732.449	850.39
732.639	899.21
732.829	903.86
733.019	931.38
733.209	967.61
733.399	957.92
733.589	964.31
733.779	968.57
733.969	940.09
734.159	985.82
734.349	1028.25
734.539	1068.16
734.729	1025.73
734.919	1074.75
735.109	1067.19
735.299	1031.54
735.488	1068.16
735.678	1063.12
735.868	1091.02
736.058	1087.34
736.248	1037.74
736.437	1017.59
736.627	1003.26
736.817	1139.46
737.007	1084.63
737.196	1106.14
737.386	1044.72
737.576	1060.22
737.765	1096.45
737.955	1075.33
738.144	1141.01
738.334	1110.59
738.524	1067.39
738.713	1143.92
738.903	1092.57
739.092	1156.12
739.282	1146.63
739.471	1131.71
739.661	1125.51
739.85	1145.47
740.04	1167.94
740.229	1154.38
740.419	1156.32
740.608	1167.55
740.797	1162.32
740.987	1245.83
741.176	1189.83
741.365	1153.22
741.555	1125.32
741.744	1192.55
741.933	1217.73
742.123	1192.93
742.312	1247.38
742.501	1260.94
742.69	1260.16
742.88	1166.78
743.069	1262.88
743.258	1199.91
743.447	1257.65
743.636	1287.48
743.825	1234.01
744.014	1246.8
744.204	1267.91
744.393	1211.34
744.582	1244.86
744.771	1276.63
744.96	1254.74
745.149	1284
745.338	1236.14
745.527	1302.01
745.716	1243.7
745.905	1253
746.094	1252.8
746.283	1288.06
746.471	1323.33
746.66	1332.63
746.849	1298.53
747.038	1342.12
747.227	1237.11
747.416	1322.94
747.604	1270.24
747.793	1262.1
747.982	1271.6
748.171	1258.03
748.359	1348.51
748.548	1321
748.737	1294.46
748.926	1287.29
749.114	1213.08
749.303	1288.26
749.491	1274.11
749.68	1234.78
749.869	1338.63
750.057	1287.29
750.246	1274.31
750.434	1277.6
750.623	1297.36
750.811	1288.65
751	1338.63
751.188	1279.93
751.377	1327.59
751.565	1303.37
751.754	1257.06
751.942	1252.41
752.131	1327.2
752.319	1224.51
752.507	1223.55
752.696	1282.64
752.884	1336.69
753.072	1273.15
753.261	1286.9
753.449	1285.16
753.637	1233.62
753.825	1346.38
754.014	1248.73
754.202	1246.41
754.39	1314.99
754.578	1317.51
754.766	1267.33
754.955	1285.16
755.143	1336.89
755.331	1261.52
755.519	1245.83
755.707	1237.88
755.895	1273.92
756.083	1268.11
756.271	1243.89
756.459	1274.7
756.647	1337.28
756.835	1264.62
757.023	1246.21
757.211	1289.81
757.399	1294.46
757.587	1278.57
757.775	1235.17
757.963	1247.38
758.151	1293.68
758.339	1240.98
758.526	1215.02
758.714	1269.46
758.902	1194.48
759.09	1191.77
759.278	1110.01
759.465	1060.41
759.653	910.26
759.841	885.07
760.028	697.33
760.216	634.75
760.404	667.3
760.591	505.13
760.779	440.23
760.967	384.81
761.154	259.65
761.342	321.27
761.529	307.51
761.717	375.13
761.905	342.77
762.092	348.39
762.28	303.25
762.467	321.85
762.655	280.58
762.842	282.9
763.029	319.91
763.217	320.3
763.404	335.21
763.592	320.68
763.779	291.43
763.966	349.94
764.154	360.98
764.341	388.88
764.528	335.41
764.716	382.3
764.903	423.37
765.09	418.33
765.277	420.85
765.465	537.68
765.652	534.39
765.839	550.86
766.026	635.52
766.213	617.7
766.4	677.76
766.588	784.51
766.775	731.43
766.962	782
767.149	793.04
767.336	898.24
767.523	777.54
767.71	890.69
767.897	941.64
768.084	984.46
768.271	982.52
768.458	1036.58
768.645	1026.12
768.832	994.15
769.019	1000.74
769.206	1020.11
769.392	1084.24
769.579	1167.75
769.766	1082.69
769.953	1094.7
770.14	1126.09
770.327	1098.77
770.513	1165.23
770.7	1209.01
770.887	1131.9
771.073	1165.42
771.26	1152.25
771.447	1098.19
771.634	1136.94
771.82	1217.35
772.007	1092.57
772.193	1139.07
772.38	1190.61
772.567	1130.55
772.753	1135.78
772.94	1196.42
773.126	1164.07
773.313	1150.5
773.499	1184.6
773.686	1184.02
773.872	1155.93
774.059	1177.43
774.245	1089.67
774.432	1123.38
774.618	1089.86
774.804	1154.96
774.991	1104.39
775.177	1178.02
775.363	1132.68
775.55	1182.86
775.736	1136.17
775.922	1110.79
776.109	1116.4
776.295	1123.38
776.481	1139.85
776.667	1187.9
776.853	1118.34
777.04	1103.81
777.226	1123.38
777.412	1185.18
777.598	1130.35
777.784	1107.49
777.97	1080.17
778.156	1120.28
778.342	1109.82
778.528	1112.72
778.715	1056.92
778.901	1075.33
779.087	1118.54
779.272	1076.49
779.458	1035.8
779.644	1127.64
779.83	1061.96
780.016	1154.77
780.202	1070.29
780.388	1013.91
780.574	1048.01
780.76	1080.37
780.946	1120.09
781.131	1062.74
781.317	1059.44
781.503	1067.58
781.689	1045.1
781.874	1189.06
782.06	1077.46
782.246	1087.15
782.432	1060.02
782.617	1072.42
782.803	1134.62
782.989	1020.11
783.174	1062.35
783.36	1045.1
783.545	1090.64
783.731	1056.73
783.916	989.69
784.102	1091.8
784.288	1028.25
784.473	1058.47
784.659	1000.93
784.844	1095.29
785.029	1020.5
785.215	1032.12
785.4	975.94
785.586	1094.7
785.771	992.02
785.956	1047.04
786.142	1026.89
786.327	1004.03
786.512	1013.91
786.698	1017.01
786.883	964.89
787.068	980.2
787.254	1039.87
787.439	1001.51
787.624	989.89
787.809	966.06
787.994	1026.31
788.18	1060.02
788.365	928.86
788.55	998.22
788.735	971.09
788.92	998.02
789.105	970.51
789.29	1021.86
789.475	937.19
789.66	985.43
789.845	958.69
790.03	965.28
790.215	989.89
790.4	990.27
790.585	1031.16
790.77	973.03
790.955	913.16
791.14	965.86
791.325	1030.19
791.51	865.31
791.695	938.74
791.879	928.47
792.064	899.6
792.249	1001.12
792.434	945.33
792.618	905.61
792.803	932.73
792.988	924.59
793.173	940.87
793.357	958.11
793.542	911.23
793.727	961.79
793.911	972.84
794.096	902.89
794.281	925.37
794.465	994.73
794.65	948.42
794.834	929.24
795.019	985.62
795.203	952.88
795.388	999.77
795.572	994.73
795.757	947.26
795.941	998.99
796.126	1001.32
796.31	899.99
796.494	978.84
796.679	926.14
796.863	905.61
797.048	1018.37
797.232	1004.61
797.416	953.27
797.601	976.52
797.785	1006.94
797.969	986.79
798.153	912.58
798.338	941.45
798.522	976.91
798.706	973.42
798.89	982.91
799.074	1054.02
799.258	988.53
799.443	974.39
799.627	955.21
799.811	1019.53
799.995	981.36
800.179	946.87
800.363	933.7
800.547	992.99
800.731	1017.79
800.915	927.69
801.099	951.14
801.283	938.54
801.467	999.96
801.651	944.55
801.835	1013.14
802.019	952.88
802.202	967.41
802.386	949.59
802.57	949.01
802.754	927.11
802.938	929.83
803.121	924.4
803.305	1024.76
803.489	971.29
803.673	965.86
803.856	998.8
804.04	956.17
804.224	977.68
804.407	952.88
804.591	946.87
804.775	939.9
804.958	944.36
805.142	1057.31
805.326	986.21
805.509	991.24
805.693	1016.62
805.876	1007.13
806.06	978.46
806.243	974.77
806.427	1032.9
806.61	994.92
806.794	961.21
806.977	1018.95
807.16	976.13
807.344	976.32
807.527	986.01
807.71	944.94
807.894	981.75
808.077	988.72
808.26	982.72
808.444	929.63
808.627	995.7
808.81	962.96
808.993	934.09
809.177	898.44
809.36	940.09
809.543	982.52
809.726	885.26
809.909	898.44
810.092	908.13
810.276	897.66
810.459	939.32
810.642	907.93
810.825	881.39
811.008	886.04
811.191	830.82
811.374	839.54
811.557	856.2
811.74	936.61
811.923	843.03
812.106	829.08
812.289	825.4
812.472	825.01
812.654	900.38
812.837	820.94
813.02	812.61
813.203	800.79
813.386	719.03
813.569	719.42
813.751	725.62
813.934	771.15
814.117	749.64
814.3	740.34
814.482	710.7
814.665	691.32
814.848	721.35
815.03	633.59
815.213	681.05
815.396	690.74
815.578	664
815.761	621.38
815.943	704.3
816.126	614.02
816.309	606.27
816.491	578.95
816.674	572.94
816.856	603.75
817.039	570.62
817.221	650.83
817.403	612.85
817.586	578.56
817.768	641.53
817.951	575.46
818.133	573.72
818.315	607.43
818.498	591.93
818.68	663.81
818.862	617.89
819.045	637.27
819.227	648.7
819.409	615.18
819.591	626.22
819.774	614.79
819.956	577.59
820.138	658.97
820.32	635.33
820.502	652.19
820.684	661.29
820.866	671.17
821.048	677.76
821.231	684.93
821.413	664.97
821.595	693.65
821.777	657.42
821.959	668.07
822.141	721.55
822.323	604.33
822.505	644.44
822.686	650.64
822.868	641.53
823.05	587.28
823.232	569.07
823.414	517.92
823.596	565.39
823.778	537.87
823.96	539.23
824.141	544.85
824.323	572.56
824.505	568.49
824.687	612.85
824.868	613.44
825.05	661.29
825.232	680.67
825.413	750.8
825.595	683.77
825.777	619.44
825.958	654.7
826.14	668.27
826.321	683.38
826.503	651.99
826.685	684.15
826.866	718.25
827.048	682.8
827.229	622.74
827.411	610.14
827.592	594.06
827.773	596.77
827.955	599.68
828.136	606.65
828.318	573.14
828.499	605.69
828.68	567.32
828.862	643.66
829.043	637.07
829.224	622.54
829.406	561.51
829.587	575.66
829.768	562.87
829.949	611.69
830.131	606.65
830.312	674.85
830.493	581.08
830.674	621.77
830.855	602
831.036	556.86
831.218	622.35
831.399	637.65
831.58	596.97
831.761	608.59
831.942	633.39
832.123	581.27
832.304	548.92
832.485	591.35
832.666	597.55
832.847	602.39
833.028	628.35
833.209	621.57
833.389	587.28
833.57	568.1
833.751	595.81
833.932	632.04
834.113	622.93
834.294	571.39
834.475	625.64
834.655	618.28
834.836	639.2
835.017	616.15
835.198	550.27
835.378	603.94
835.559	644.44
835.74	580.89
835.92	589.22
836.101	576.24
836.281	602.78
836.462	619.64
836.643	633.39
836.823	672.53
837.004	660.71
837.184	663.23
837.365	662.07
837.545	678.92
837.726	618.86
837.906	689.38
838.087	638.62
838.267	637.27
838.448	608.4
838.628	667.88
838.808	629.9
838.989	672.72
839.169	612.66
839.349	658.19
839.53	644.24
839.71	661.68
839.89	598.9
840.07	677.95
840.251	579.34
840.431	639.4
840.611	625.84
840.791	611.69
840.971	634.94
841.151	612.08
841.332	615.57
841.512	652.77
841.692	566.55
841.872	647.15
842.052	600.07
842.232	643.66
842.412	600.45
842.592	622.35
842.772	614.02
842.952	626.03
843.132	599.87
843.312	585.34
843.492	558.02
843.672	661.1
843.851	566.74
844.031	596.58
844.211	621.19
844.391	589.41
844.571	628.55
844.751	628.94
844.93	643.27
845.11	617.7
845.29	636.88
845.47	634.55
845.649	620.02
845.829	632.42
846.009	584.18
846.188	605.88
846.368	606.46
846.547	591.74
846.727	625.45
846.907	555.89
847.086	625.25
847.266	624.48
847.445	583.6
847.625	604.33
847.804	580.69
847.984	607.62
848.163	563.64
848.343	566.16
848.522	604.91
848.701	607.82
848.881	559.38
849.06	595.03
849.239	585.15
849.419	616.15
849.598	550.86
849.777	580.89
849.957	578.76
850.136	556.09
850.315	545.43
850.494	539.04
850.674	539.81
850.853	599.87
851.032	554.54
851.211	592.9
851.39	571.2
851.569	523.34
851.748	529.16
851.927	557.06
852.107	563.64
852.286	532.06
852.465	513.27
852.644	547.76
852.823	523.15
853.002	537.49
853.181	549.11
853.359	538.26
853.538	512.11
853.717	588.06
853.896	482.85
854.075	490.21
854.254	492.15
854.433	456.89
854.611	521.02
854.79	451.08
854.969	512.88
855.148	509.39
855.327	487.31
855.505	494.86
855.684	482.08
855.863	484.01
856.041	415.62
856.22	490.21
856.399	452.43
856.577	539.62
856.756	544.66
856.934	627.77
857.113	615.76
857.291	523.73
857.47	504.16
857.648	519.66
857.827	549.69
858.005	558.41
858.184	503.39
858.362	563.26
858.541	508.81
858.719	521.79
858.898	511.91
859.076	483.04
859.254	578.17
859.433	496.8
859.611	500.68
859.789	485.95
859.967	585.54
860.146	605.88
860.324	474.71
860.502	505.52
860.68	477.81
860.859	484.79
861.037	519.66
861.215	509.39
861.393	514.82
861.571	494.67
861.749	483.82
861.927	532.26
862.105	512.11
862.283	498.54
862.461	485.37
862.639	458.83
862.817	479.75
862.995	482.85
863.173	466.58
863.351	486.53
863.529	504.16
863.707	537.68
863.885	516.76
864.063	444.1
864.241	462.12
864.418	534.77
864.596	469.68
864.774	438.87
864.952	501.45
865.129	490.99
865.307	464.25
865.485	408.45
865.663	513.27
865.84	473.74
866.018	505.91
866.196	364.08
866.373	465.61
866.551	400.7
866.728	362.73
866.906	411.94
867.084	415.23
867.261	460.38
867.439	428.41
867.616	477.81
867.794	443.52
867.971	421.82
868.149	428.02
868.326	484.79
868.503	460.57
868.681	436.93
868.858	433.83
869.035	424.92
869.213	482.08
869.39	426.47
869.567	522.37
869.745	425.89
869.922	449.53
870.099	469.09
870.276	477.23
870.454	476.65
870.631	461.54
870.808	430.15
870.985	479.36
871.162	532.64
871.339	493.31
871.517	411.55
871.694	398.38
871.871	464.06
872.048	459.99
872.225	434.41
872.402	467.93
872.579	400.51
872.756	435.19
872.933	398.57
873.11	411.55
873.287	455.92
873.463	423.95
873.64	424.14
873.817	465.03
873.994	427.05
874.171	415.04
874.348	443.13
874.524	386.36
874.701	430.15
874.878	351.3
875.055	435.58
875.231	404.38
875.408	453.21
875.585	355.75
875.762	421.24
875.938	416.78
876.115	441.97
876.291	409.42
876.468	402.25
876.645	360.6
876.821	399.35
876.998	409.61
877.174	464.25
877.351	416.2
877.527	395.66
877.704	413.88
877.88	408.26
878.057	384.04
878.233	451.08
878.409	382.3
878.586	402.83
878.762	403.22
878.938	396.25
879.115	328.63
879.291	412.13
879.467	350.91
879.644	349.16
879.82	428.79
879.996	361.95
880.172	351.49
880.349	409.23
880.525	414.85
880.701	331.92
880.877	330.76
881.053	413.88
881.229	418.53
881.405	399.73
881.581	347.42
881.757	349.94
881.933	399.73
882.109	421.82
882.285	358.66
882.461	322.43
882.637	365.83
882.813	340.06
882.989	360.01
883.165	417.56
883.341	370.67
883.517	417.95
883.693	403.61
883.869	400.31
884.044	328.43
884.22	373.58
884.396	404.96
884.572	403.41
884.747	423.56
884.923	389.85
885.099	387.53
885.275	424.53
885.45	375.51
885.626	344.32
885.801	358.66
885.977	376.48
886.153	315.45
886.328	408.45
886.504	374.74
886.679	416.78
886.855	355.56
887.03	393.34
887.206	414.07
887.381	380.94
887.557	382.68
887.732	382.88
887.908	398.57
888.083	412.33
888.258	361.37
888.434	379.39
888.609	390.82
888.784	397.02
888.96	360.21
889.135	327.47
889.31	338.51
889.485	399.93
889.661	357.5
889.836	408.45
890.011	352.26
890.186	347.23
890.361	362.34
890.537	406.51
890.712	358.85
890.887	351.3
891.062	355.95
891.237	415.81
891.412	357.3
891.587	370.09
891.762	392.56
891.937	372.41
892.112	307.7
892.287	372.03
892.462	328.24
892.637	312.55
892.812	324.37
892.987	335.99
893.161	316.42
893.336	347.61
893.511	348
893.686	342.58
893.861	327.66
894.035	353.04
894.21	342.77
894.385	274.96
894.56	346.26
894.734	300.73
894.909	298.4
895.084	318.36
895.258	306.54
895.433	337.93
895.608	309.06
895.782	275.35
895.957	286.58
896.131	300.15
896.306	265.66
896.48	277.48
896.655	281.55
896.829	210.25
897.004	215.67
897.178	276.9
897.353	260.62
897.527	298.79
897.701	270.12
897.876	211.02
898.05	291.82
898.224	245.12
898.399	311.19
898.573	272.83
898.747	193.78
898.921	242.41
899.096	202.89
899.27	202.89
899.444	205.99
899.618	206.95
899.792	192.62
899.967	216.06
900.141	230.01
900.315	181.38
900.489	211.8
900.663	231.17
900.837	222.07
901.011	212.19
901.185	291.62
901.359	239.5
901.533	249.58
901.707	226.14
901.881	204.44
902.055	151.93
902.229	209.28
902.403	267.98
902.576	224
902.75	211.6
902.924	330.57
903.098	228.27
903.272	272.25
903.446	290.65
903.619	235.24
903.793	259.46
903.967	241.44
904.14	267.21
904.314	297.05
904.488	264.11
904.661	304.02
904.835	273.41
905.009	328.05
905.182	323.78
905.356	317.39
905.529	274.18
905.703	247.64
905.876	283.87
906.05	211.99
906.223	261.78
906.397	209.47
906.57	214.51
906.744	169.37
906.917	222.65
907.09	210.05
907.264	228.07
907.437	215.67
907.61	190.1
907.784	228.46
907.957	227.88
908.13	199.01
908.304	238.73
908.477	187
908.65	205.6
908.823	170.34
908.996	252.1
909.17	201.92
909.343	174.21
909.516	176.34
909.689	212.77
909.862	181.77
910.035	186.8
910.208	140.89
910.381	188.35
910.554	273.6
910.727	211.02
910.9	174.02
911.073	174.4
911.246	242.8
911.419	244.93
911.592	212.96
911.765	165.88
911.938	208.31
912.11	196.1
912.283	199.2
912.456	235.05
912.629	205.79
912.802	194.36
912.974	151.54
913.147	150.19
913.32	122.48
913.493	157.55
913.665	184.48
913.838	182.35
914.01	175.57
914.183	160.65
914.356	147.86
914.528	185.45
914.701	247.45
914.873	220.71
915.046	169.95
915.218	171.11
915.391	94.97
915.563	144.57
915.736	184.09
915.908	183.32
916.081	169.95
916.253	145.54
916.425	139.72
916.598	134.49
916.77	188.35
916.942	129.07
917.115	90.32
917.287	205.79
917.459	178.67
917.632	124.81
917.804	104.66
917.976	143.41
918.148	169.95
918.32	142.24
918.493	149.02
918.665	199.4
918.837	162.97
919.009	211.41
919.181	200.75
919.353	165.49
919.525	153.09
919.697	161.42
919.869	158.13
920.041	186.03
920.213	248.03
920.385	188.74
920.557	162.39
920.729	180.6
920.901	187.77
921.073	197.07
921.244	143.99
921.416	204.05
921.588	171.89
921.76	180.41
921.932	234.08
922.103	140.5
922.275	143.02
922.447	183.51
922.619	110.47
922.79	190.87
922.962	167.04
923.134	186.03
923.305	146.51
923.477	131.39
923.648	118.8
923.82	144.37
923.991	114.34
924.163	94.77
924.335	142.82
924.506	129.26
924.677	182.15
924.849	114.34
925.02	135.66
925.192	170.72
925.363	149.41
925.535	134.69
925.706	118.99
925.877	202.5
926.049	138.76
926.22	148.83
926.391	148.06
926.562	149.61
926.734	137.21
926.905	177.7
927.076	120.54
927.247	130.81
927.419	99.62
927.59	117.44
927.761	116.47
927.932	120.74
928.103	147.47
928.274	100.78
928.445	104.27
928.616	117.83
928.787	93.81
928.958	125.19
929.129	128.68
929.3	108.14
929.471	123.26
929.642	58.74
929.813	39.56
929.984	128.1
930.155	54.67
930.326	92.84
930.496	48.66
930.667	10.49
930.838	67.26
931.009	46.92
931.18	58.16
931.35	45.18
931.521	40.91
931.692	39.56
931.863	-5.01
932.033	78.69
932.204	92.26
932.374	68.23
932.545	20.38
932.716	78.5
932.886	97.87
933.057	7.98
933.227	23.86
933.398	112.41
933.568	5.26
933.739	-3.07
933.909	32.97
934.08	55.44
934.25	7.59
934.421	6.43
934.591	37.04
934.761	-14.31
934.932	-38.91
935.102	24.64
935.272	8.56
935.443	-3.65
935.613	-0.74
935.783	34.52
935.953	-14.5
936.123	140.5
936.294	-25.54
936.464	6.62
936.634	-5.78
936.804	-28.84
936.974	-9.46
937.144	29.87
937.314	6.81
937.484	-15.47
937.655	-12.56
937.825	44.21
937.995	-3.84
938.165	63.19
938.334	2.36
938.504	-0.36
938.674	2.55
938.844	1.78
939.014	13.4
939.184	8.36
939.354	64.74
939.524	36.65
939.694	11.85
939.863	-14.31
940.033	72.3
940.203	81.41
940.373	54.67
940.542	66.68
940.712	27.16
940.882	50.99
941.051	75.4
941.221	55.06
941.391	63.97
941.56	15.14
941.73	-13.34
941.899	111.63
942.069	37.04
942.238	68.81
942.408	40.72
942.577	56.61
942.747	55.06
942.916	-13.34
943.086	-6.94
943.255	57.96
943.425	35.49
943.594	8.36
943.763	-35.04
943.933	-24.38
944.102	-10.24
944.271	16.69
944.441	32.39
944.61	-8.88
944.779	24.44
944.948	99.81
945.117	-17.02
945.287	8.94
945.456	-29.42
945.625	7.2
945.794	36.84
945.963	-3.65
946.132	40.53
946.301	-10.82
946.47	51.57
946.639	-46.08
946.808	-0.55
946.977	33.36
947.146	69.2
947.315	-1.52
947.484	49.44
947.653	8.17
947.822	27.35
947.991	3.91
948.16	81.02
948.329	82.18
948.498	1.78
948.666	9.53
948.835	36.26
949.004	-6.75
949.173	-7.33
949.341	29.09
949.51	50.6
949.679	66.29
949.847	51.76
950.016	110.66
950.185	87.99
950.353	-12.76
950.522	16.31
950.69	58.35
950.859	5.46
951.028	44.21
951.196	28.32
951.365	-9.27
951.533	8.17
951.701	61.26
951.87	32.39
952.038	-4.62
952.207	41.11
952.375	77.92
952.543	-5.39
952.712	18.83
952.88	-6.56
953.048	71.33
953.217	21.54
953.385	18.44
953.553	63.19
953.721	-26.51
953.89	25.03
954.058	-14.31
954.226	-15.47
954.394	18.63
954.562	-32.32
954.73	32
954.898	21.34
955.067	62.61
955.235	19.6
955.403	50.99
955.571	96.91
955.739	57.58
955.907	-9.85
956.075	16.31
956.243	-20.31
956.41	29.87
956.578	-28.45
956.746	13.01
956.914	-4.04
957.082	27.93
957.25	52.15
957.418	-27.67
957.585	52.93
957.753	68.04
957.921	-33.68
958.089	12.43
958.256	36.07
958.424	50.79
958.592	32.78
958.759	-7.14
958.927	36.65
959.095	-5.39
959.262	13.21
959.43	33.16
959.597	-5.2
959.765	54.86
959.932	-17.21
960.1	59.71
960.267	-1.52
960.435	2.94
960.602	28.32
960.77	-1.52
960.937	-33.49
961.104	34.71
961.272	-55.77
961.439	-18.76
961.606	11.27
961.774	22.89
961.941	0.03
962.108	34.71
962.275	23.28
962.443	65.13
962.61	29.48
962.777	95.36
962.944	42.66
963.111	43.24
963.278	46.53
963.446	37.23
963.613	31.23
963.78	32.97
963.947	38.01
964.114	19.99
964.281	107.95
964.448	57.58
964.615	23.48
964.782	38.39
964.949	81.21
965.116	52.93
965.282	90.32
965.449	-3.26
965.616	-3.07
965.783	56.22
965.95	30.84
966.117	-2.87
966.283	32.58
966.45	16.5
966.617	28.13
966.784	70.94
966.95	73.46
967.117	67.65
967.284	2.55
967.45	9.14
967.617	66.49
967.784	38.2
967.95	67.84
968.117	26.77
968.283	65.33
968.45	137.21
968.616	45.18
968.783	46.34
968.949	43.63
969.116	73.85
969.282	42.27
969.449	39.36
969.615	32.78
969.781	-2.68
969.948	5.26
970.114	-1.71
970.28	97.87
970.447	8.36
970.613	69.59
970.779	10.3
970.945	28.71
971.112	62.61
971.278	19.21
971.444	59.51
971.61	63.19
971.776	34.52
971.942	51.76
972.108	47.5
972.275	18.63
972.441	52.93
972.607	96.91
972.773	-7.91
972.939	50.02
973.105	42.08
973.271	-27.29
973.437	14.95
973.602	14.95
973.768	83.92
973.934	35.68
974.1	26.96
974.266	-33.49
974.432	37.81
974.598	40.72
974.763	50.6
974.929	20.38
975.095	85.67
975.261	22.89
975.426	8.17
975.592	40.91
975.758	103.11
975.923	-24.19
976.089	20.76
976.255	58.16
976.42	26.38
976.586	39.17
976.751	70.94
976.917	97.49
977.082	51.18
977.248	-3.65
977.413	-9.46
977.579	24.83
977.744	33.16
977.91	-13.72
978.075	12.04
978.24	48.86
978.406	8.75
978.571	24.64
978.736	9.53
978.902	31.42
979.067	-13.92
979.232	-36.39
979.397	26.96
979.563	65.52
979.728	21.15
979.893	32.39
980.058	14.37
980.223	57.77
980.388	23.48
980.554	47.31
980.719	27.35
980.884	31.03
981.049	75.01
981.214	19.6
981.379	47.89
981.544	-2.1
981.709	18.83
981.874	25.22
982.039	11.46
982.204	51.57
982.368	20.57
982.533	-8.88
982.698	63.58
982.863	65.52
983.028	-7.33
983.193	19.21
983.357	34.91
983.522	19.99
983.687	19.99
983.852	-6.17
984.016	14.95
984.181	24.64
984.346	10.49
984.51	21.34
984.675	31.81
984.839	48.66
985.004	16.69
985.168	64.55
985.333	40.53
985.498	23.28
985.662	35.1
985.827	44.98
985.991	27.35
986.155	21.34
986.32	59.9
986.484	76.17
986.649	44.4
986.813	-25.15
986.977	18.83
987.142	42.66
987.306	-2.49
987.47	14.18
987.634	18.83
987.799	40.14
987.963	29.29
988.127	47.31
988.291	83.34
988.455	13.98
988.62	21.93
988.784	31.81
988.948	36.65
989.112	4.1
989.276	52.15
989.44	39.17
989.604	-0.36
989.768	13.59
989.932	95.36
990.096	0.23
990.26	-4.23
990.424	-6.56
990.588	9.14
990.752	81.02
990.915	38.78
991.079	41.69
991.243	16.31
991.407	52.54
991.571	8.36
991.734	52.34
991.898	73.27
992.062	117.44
992.226	12.04
992.389	3.71
992.553	-16.24
992.717	14.95
992.88	-5.39
993.044	59.71
993.207	0.81
993.371	39.17
993.535	18.44
993.698	34.91
993.862	62.23
994.025	67.65
994.189	78.89
994.352	71.53
994.515	28.9
994.679	60.29
994.842	34.33
995.006	67.84
995.169	12.63
995.332	25.41
995.496	56.99
995.659	-13.53
995.822	23.86
995.985	32.58
996.149	83.15
996.312	35.68
996.475	56.99
996.638	4.88
996.801	60.09
996.964	106.79
997.128	10.88
997.291	26.96
997.454	51.57
997.617	-16.82
997.78	41.49
997.943	22.7
998.106	78.11
998.269	-5.97
998.432	44.01
998.595	26.77
998.758	-6.75
998.92	-24.57
999.083	-50.15
999.246	14.76
999.409	-21.09
999.572	-27.29
999.735	5.46
999.897	53.89
1000.06	7.59
1000.223	-12.95
1000.386	32.39
1000.548	35.29
1000.711	25.22
1000.874	55.06
1001.036	-36
1001.199	47.69
1001.361	24.06
1001.524	31.81
1001.687	31.23
1001.849	-1.52
1002.012	34.33
1002.174	24.83
1002.337	52.54
1002.499	42.46
1002.661	77.53
1002.824	-24.77
1002.986	-6.36
1003.149	25.41
1003.311	4.1
1003.473	73.27
1003.636	13.01
1003.798	44.59
1003.96	50.41
1004.123	18.63
1004.285	-20.5
1004.447	25.22
1004.609	43.63
1004.771	55.64
1004.933	-19.54
1005.096	-5.59
1005.258	-44.92
1005.42	-11.79
1005.582	41.49
1005.744	26.77
1005.906	-36
1006.068	32.78
1006.23	-42.01
1006.392	-12.76
1006.554	-22.25
1006.716	77.14
1006.878	10.88
1007.04	-41.82
1007.202	11.46
1007.363	44.21
1007.525	33.55
1007.687	36.84
1007.849	61.84
1008.011	-32.32
1008.172	1.58
1008.334	4.68
1008.496	41.88
1008.658	-39.69
1008.819	-9.27
1008.981	-22.25
1009.143	-6.17
1009.304	-12.17
1009.466	26.38
1009.627	54.28
1009.789	121.32
1009.95	32.78
1010.112	10.69
1010.273	16.69
1010.435	-11.4
1010.596	-12.76
1010.758	25.61
1010.919	28.9
1011.081	-22.44
1011.242	-5.01
1011.403	34.52
1011.565	18.83
1011.726	31.61
1011.887	-10.43
1012.049	4.68
1012.21	44.59
1012.371	66.49
1012.532	-61.19
1012.693	7.78
1012.855	-6.94
1013.016	13.98
1013.177	53.7
1013.338	4.68
1013.499	84.12
1013.66	55.06
1013.821	29.68
1013.982	25.03
1014.143	15.53
1014.304	-4.81
1014.465	20.38
1014.626	33.94
1014.787	3.71
1014.948	94.58
1015.109	-61.97
1015.27	50.02
1015.431	-12.17
1015.592	8.94
1015.752	47.31
1015.913	24.06
1016.074	20.38
1016.235	19.99
1016.395	17.86
1016.556	-7.91
1016.717	3.91
1016.877	59.51
1017.038	-16.05
1017.199	12.04
1017.359	16.69
1017.52	36.07
1017.681	1
1017.841	-0.94
1018.002	-0.55
1018.162	-1.13
1018.323	68.81
1018.483	5.84
1018.644	-12.37
1018.804	-18.57
1018.964	-19.73
1019.125	-4.81
1019.285	-9.46
1019.446	-6.17
1019.606	-31.35
1019.766	7.39
1019.926	18.44
1020.087	-0.16
1020.247	-48.79
1020.407	38.39
1020.567	56.03
1020.728	6.04
1020.888	-37.55
1021.048	7.78
1021.208	-9.27
1021.368	-10.43
1021.528	52.73
1021.688	34.13
1021.848	30.45
1022.008	0.81
1022.168	21.54
1022.328	5.84
1022.488	26.58
1022.648	-2.68
1022.808	11.27
1022.968	33.16
1023.128	-33.68
1023.288	-16.63
1023.448	7.01
1023.608	28.71
1023.767	25.03
1023.927	-24.77
1024.087	-20.31
1024.247	-26.32
1024.406	23.09
1024.566	-5.39
1024.726	-22.05
1024.885	-23.41
1025.045	53.7
1025.205	6.81
1025.364	-6.56
1025.524	26.96
1025.683	-0.74
1025.843	23.28
1026.003	6.23
1026.162	70.94
1026.321	57.19
1026.481	23.48
1026.64	-19.15
1026.8	-6.36
1026.959	18.63
1027.119	-11.79
1027.278	-5.01
1027.437	-13.34
1027.597	13.21
1027.756	12.43
1027.915	9.72
1028.074	19.41
1028.234	-31.55
1028.393	22.7
1028.552	19.02
1028.711	-79.79
1028.87	50.79
1029.03	-32.71
1029.189	21.34
1029.348	-47.82
1029.507	6.23
1029.666	-0.94
1029.825	-31.35
1029.984	-8.11
1030.143	12.82
1030.302	-11.4
1030.461	-35.23
1030.62	-3.26
1030.779	38.78
1030.938	-27.48
1031.097	-35.23
1031.255	30.06
1031.414	48.08
1031.573	54.09
1031.732	-44.92
1031.891	2.36
1032.049	30.45
1032.208	8.56
1032.367	-9.66
1032.525	-5.78
1032.684	-26.51
1032.843	25.22
1033.001	-49.95
1033.16	149.22
1033.319	31.81
1033.477	28.9
1033.636	-17.02
1033.794	-62.35
1033.953	54.86
1034.111	63.58
1034.27	-24.38
1034.428	14.18
1034.587	-13.14
1034.745	10.49
1034.903	19.6
1035.062	49.63
1035.22	-20.5
1035.378	41.69
1035.537	-50.92
1035.695	6.81
1035.853	7.2
1036.011	26.77
1036.17	25.61
1036.328	-57.9
1036.486	19.21
1036.644	44.21
1036.802	-89.29
1036.96	0.81
1037.119	4.1
1037.277	-35.42
1037.435	-38.52
1037.593	-25.35
1037.751	-25.74
1037.909	56.41
1038.067	56.41
