Data from pine_FLMT105791__109__17-22-08-076.txt Node

Date: Mon Mar 20 17:22:08 GMT 2023
User: antho
Spectrometer: FLMT10579
Trigger mode: 0
Integration Time (sec): 1.000000E-1
Scans to average: 10
Electric dark correction enabled: true
Nonlinearity correction enabled: false
Boxcar width: 0
XAxis mode: Wavelengths
Number of Pixels in Spectrum: 3648
>>>>>Begin Spectral Data<<<<<
345.248	-149.57
345.464	-149.57
345.681	-149.57
345.898	-157.13
346.114	-178.83
346.331	-30.61
346.548	53.47
346.764	-31.97
346.981	-12.79
347.197	-24.8
347.414	18.41
347.631	2.13
347.847	55.8
348.064	13.56
348.28	6.01
348.497	-45.34
348.713	-3.87
348.93	31.39
349.146	38.56
349.363	13.37
349.579	11.82
349.796	28.87
350.012	-20.34
350.229	44.95
350.445	-4.26
350.661	-24.8
350.878	10.07
351.094	27.71
351.311	12.79
351.527	33.91
351.743	-13.76
351.96	45.14
352.176	26.93
352.392	16.27
352.609	27.32
352.825	-17.05
353.041	12.98
353.257	14.14
353.474	1.74
353.69	7.36
353.906	27.9
354.122	-8.91
354.339	18.6
354.555	19.57
354.771	-21.89
354.987	57.74
355.203	51.15
355.42	-17.82
355.636	-25.77
355.852	-22.47
356.068	-0.97
356.284	-35.65
356.5	55.61
356.716	16.27
356.932	-2.52
357.148	37.59
357.364	-3.68
357.58	49.21
357.796	49.6
358.012	60.64
358.228	39.14
358.444	-58.9
358.66	49.21
358.876	12.01
359.092	15.31
359.308	27.12
359.524	31.77
359.74	-10.27
359.956	-20.92
360.172	5.42
360.388	41.07
360.604	6.39
360.819	95.32
361.035	-6.97
361.251	42.62
361.467	-15.5
361.683	35.26
361.898	12.01
362.114	24.41
362.33	16.27
362.546	32.36
362.762	7.94
362.977	12.21
363.193	-46.31
363.409	22.09
363.624	-7.17
363.84	15.11
364.056	-4.07
364.271	33.52
364.487	29.26
364.703	-19.96
364.918	-17.24
365.134	6.59
365.35	15.11
365.565	79.24
365.781	1.36
365.996	32.94
366.212	73.43
366.427	40.49
366.643	-4.07
366.858	12.59
367.074	-24.61
367.289	73.62
367.505	118.19
367.72	-26.74
367.936	-24.61
368.151	62
368.367	30.42
368.582	14.72
368.798	-2.32
369.013	50.96
369.228	15.11
369.444	37.39
369.659	56.77
369.874	43.01
370.09	49.99
370.305	-59.48
370.52	0.77
370.736	64.13
370.951	14.53
371.166	54.44
371.381	67.81
371.597	52.12
371.812	-22.67
372.027	-17.44
372.242	-6.97
372.458	77.11
372.673	8.91
372.888	-1.36
373.103	42.62
373.318	68.59
373.533	28.09
373.749	6.01
373.964	-24.22
374.179	50.37
374.394	-9.49
374.609	55.61
374.824	-28.29
375.039	69.17
375.254	-3.68
375.469	49.6
375.684	14.53
375.899	56.96
376.114	3.1
376.329	11.82
376.544	58.32
376.759	44.37
376.974	-11.24
377.189	14.72
377.404	-4.84
377.619	38.75
377.834	-37.01
378.049	-17.63
378.264	-6.39
378.478	-5.04
378.693	-5.04
378.908	40.69
379.123	-6.78
379.338	79.63
379.553	24.99
379.767	19.96
379.982	29.26
380.197	34.29
380.412	33.13
380.626	33.32
380.841	95.13
381.056	41.27
381.271	105.79
381.485	4.65
381.7	-28.67
381.915	11.24
382.129	11.04
382.344	48.24
382.559	-1.16
382.773	47.86
382.988	-11.62
383.202	11.62
383.417	-3.49
383.632	108.11
383.846	21.7
384.061	20.15
384.275	19.37
384.49	47.47
384.704	41.27
384.919	21.89
385.133	-0.19
385.348	30.22
385.562	-33.13
385.777	63.36
385.991	38.17
386.206	14.34
386.42	25.57
386.634	62.58
386.849	62
387.063	22.09
387.277	-24.61
387.492	21.89
387.706	-10.85
387.92	10.66
388.135	46.89
388.349	16.08
388.563	29.64
388.778	43.59
388.992	22.67
389.206	59.67
389.42	92.61
389.635	18.99
389.849	36.62
390.063	51.54
390.277	18.41
390.491	88.93
390.706	36.42
390.92	44.56
391.134	46.89
391.348	73.04
391.562	-26.16
391.776	41.66
391.99	-20.34
392.205	72.85
392.419	-0.97
392.633	15.69
392.847	51.54
393.061	9.69
393.275	101.72
393.489	60.84
393.703	40.49
393.917	63.16
394.131	15.5
394.345	55.02
394.559	68.59
394.773	9.88
394.986	47.27
395.2	24.99
395.414	68.39
395.628	17.05
395.842	29.06
396.056	10.85
396.27	-15.5
396.484	69.36
396.697	45.14
396.911	72.46
397.125	42.43
397.339	50.96
397.553	50.18
397.766	89.9
397.98	66.07
398.194	83.12
398.408	22.86
398.621	48.82
398.835	67.62
399.049	72.07
399.262	97.45
399.476	61.61
399.69	59.87
399.903	91.06
400.117	43.59
400.331	67.23
400.544	53.86
400.758	138.72
400.971	79.24
401.185	99.39
401.398	9.3
401.612	77.69
401.826	68.2
402.039	82.34
402.253	29.06
402.466	84.09
402.68	26.54
402.893	52.12
403.106	39.33
403.32	53.47
403.533	65.29
403.747	50.96
403.96	74.79
404.174	57.35
404.387	23.25
404.6	41.07
404.814	111.6
405.027	37.39
405.24	33.52
405.454	51.15
405.667	90.48
405.88	-12.4
406.094	58.32
406.307	90.48
406.52	71.3
406.733	25.96
406.947	3.49
407.16	116.83
407.373	83.89
407.586	49.6
407.799	7.75
408.012	111.21
408.226	54.44
408.439	107.92
408.652	12.98
408.865	59.29
409.078	75.56
409.291	51.34
409.504	33.13
409.717	64.32
409.93	63.16
410.143	62.97
410.357	-2.13
410.57	1.55
410.783	41.85
410.996	61.81
411.209	73.43
411.421	79.82
411.634	66.65
411.847	34.49
412.06	57.35
412.273	72.66
412.486	21.7
412.699	138.72
412.912	63.16
413.125	60.45
413.338	87.19
413.55	108.11
413.763	45.34
413.976	51.73
414.189	34.49
414.402	9.49
414.615	102.69
414.827	39.33
415.04	93.77
415.253	81.18
415.466	102.3
415.678	111.79
415.891	62.77
416.104	58.32
416.316	63.55
416.529	50.76
416.742	93.97
416.954	126.32
417.167	39.72
417.38	43.98
417.592	105.79
417.805	49.02
418.017	4.84
418.23	92.8
418.442	59.87
418.655	62.39
418.868	47.47
419.08	99.59
419.293	99.97
419.505	99.59
419.718	89.51
419.93	108.11
420.142	65.49
420.355	105.4
420.567	114.31
420.78	114.7
420.992	53.09
421.205	123.03
421.417	34.68
421.629	62.58
421.842	28.67
422.054	18.02
422.266	95.13
422.479	115.28
422.691	73.04
422.903	105.01
423.115	53.28
423.328	65.87
423.54	86.99
423.752	94.55
423.964	36.62
424.177	84.09
424.389	53.67
424.601	182.32
424.813	100.94
425.025	123.42
425.238	99.78
425.45	61.42
425.662	78.47
425.874	384.01
426.086	68.2
426.298	116.64
426.51	94.94
426.722	87.77
426.934	60.26
427.146	126.32
427.358	60.26
427.57	118.19
427.782	84.28
427.994	114.31
428.206	88.74
428.418	39.91
428.63	135.24
428.842	120.9
429.054	110.05
429.266	148.22
429.478	84.09
429.69	61.42
429.902	49.41
430.114	128.45
430.325	89.7
430.537	97.65
430.749	89.51
430.961	43.01
431.173	86.22
431.384	137.56
431.596	36.42
431.808	90.87
432.02	130.39
432.231	105.01
432.443	182.12
432.655	136.4
432.867	90.87
433.078	116.64
433.29	219.13
433.502	149.77
433.713	146.67
433.925	144.92
434.136	138.14
434.348	77.5
434.56	66.46
434.771	197.23
434.983	73.43
435.194	100.75
435.406	130.97
435.617	168.95
435.829	191.03
436.04	152.87
436.252	169.14
436.463	182.7
436.675	184.06
436.886	172.24
437.098	184.06
437.309	231.72
437.521	158.49
437.732	157.52
437.943	191.81
438.155	167.98
438.366	97.26
438.578	203.05
438.789	148.6
439	151.12
439.211	179.02
439.423	170.89
439.634	187.93
439.845	194.91
440.057	167.98
440.268	217.77
440.479	156.74
440.69	175.53
440.902	169.34
441.113	170.89
441.324	150.35
441.535	213.7
441.746	215.83
441.957	163.72
442.168	175.92
442.38	193.75
442.591	218.35
442.802	160.04
443.013	165.85
443.224	215.64
443.435	196.27
443.646	198.98
443.857	210.99
444.068	173.6
444.279	159.45
444.49	233.08
444.701	229.78
444.912	295.85
445.123	279.38
445.334	223.58
445.545	213.7
445.756	187.16
445.967	153.25
446.178	217.38
446.388	213.32
446.599	254.97
446.81	250.32
447.021	224.17
447.232	260.59
447.443	266.01
447.653	188.13
447.864	262.91
448.075	253.03
448.286	263.11
448.496	212.15
448.707	277.83
448.918	219.13
449.129	325.3
449.339	192
449.55	285.78
449.761	219.32
449.971	290.81
450.182	227.27
450.393	245.09
450.603	227.07
450.814	271.25
451.024	270.86
451.235	272.8
451.446	311.35
451.656	300.5
451.867	260.4
452.077	276.67
452.288	326.08
452.498	306.31
452.709	251.87
452.919	289.85
453.13	238.89
453.34	292.75
453.55	200.33
453.761	290.43
453.971	309.61
454.182	296.63
454.392	266.6
454.602	323.36
454.813	300.89
455.023	308.83
455.233	241.8
455.444	266.21
455.654	220.87
455.864	268.34
456.075	279.38
456.285	251.87
456.495	285.39
456.705	303.8
456.916	347.78
457.126	325.5
457.336	291.98
457.546	255.36
457.756	262.91
457.967	341.38
458.177	262.14
458.387	283.06
458.597	271.63
458.807	273.57
459.017	253.42
459.227	254.97
459.437	293.14
459.647	332.66
459.857	342.16
460.068	277.45
460.278	365.21
460.488	316.58
460.698	353.98
460.908	323.36
461.117	243.54
461.327	288.49
461.537	327.43
461.747	326.27
461.957	349.52
462.167	404.16
462.377	359.59
462.587	329.37
462.797	349.52
463.007	324.91
463.216	355.53
463.426	381.68
463.636	360.37
463.846	301.66
464.056	310
464.265	361.14
464.475	319.1
464.685	332.08
464.895	348.16
465.104	322.98
465.314	369.67
465.524	305.93
465.733	303.41
465.943	402.8
466.153	429.73
466.362	377.42
466.572	367.34
466.782	328.79
466.991	365.6
467.201	403.19
467.41	300.11
467.62	384.01
467.829	351.07
468.039	372.19
468.249	365.41
468.458	382.65
468.668	363.66
468.877	369.09
469.086	412.88
469.296	401.25
469.505	346.03
469.715	456.27
469.924	407.84
470.134	409.78
470.343	433.22
470.552	368.51
470.762	382.84
470.971	372.19
471.18	402.61
471.39	394.86
471.599	372.38
471.808	426.24
472.018	340.8
472.227	442.52
472.436	445.23
472.645	391.95
472.855	379.94
473.064	451.04
473.273	438.06
473.482	421.59
473.691	446.2
473.901	458.99
474.11	416.56
474.319	503.55
474.528	445.42
474.737	482.43
474.946	466.93
475.155	465.38
475.364	495.99
475.573	466.54
475.783	444.26
475.992	463.64
476.201	505.68
476.41	471
476.619	454.92
476.828	464.02
477.037	435.35
477.245	469.06
477.454	508.01
477.663	460.92
477.872	473.71
478.081	536.29
478.29	452.59
478.499	576.79
478.708	517.11
478.917	574.46
479.125	502
479.334	524.09
479.543	494.83
479.752	510.72
479.961	534.55
480.169	562.45
480.378	499.87
480.587	642.85
480.796	575.24
481.004	550.44
481.213	549.47
481.422	550.24
481.63	561.29
481.839	554.12
482.048	628.52
482.256	579.5
482.465	611.66
482.674	595.39
482.882	617.28
483.091	658.55
483.299	589.38
483.508	619.99
483.716	593.45
483.925	622.12
484.134	599.45
484.342	575.43
484.551	635.3
484.759	647.5
484.967	635.68
485.176	641.3
485.384	629.87
485.593	655.64
485.801	597.32
486.01	595.97
486.218	560.12
486.426	545.01
486.635	564.77
486.843	553.15
487.051	575.82
487.26	566.13
487.468	611.85
487.676	602.36
487.885	594.03
488.093	610.5
488.301	648.86
488.509	634.33
488.717	668.23
488.926	633.17
489.134	616.7
489.342	658.93
489.55	640.92
489.758	661.84
489.967	630.84
490.175	782.74
490.383	698.65
490.591	767.63
490.799	657.58
491.007	731.78
491.215	696.72
491.423	698.07
491.631	696.72
491.839	698.27
492.047	716.48
492.255	662.62
492.463	639.95
492.671	708.34
492.879	745.35
493.087	717.06
493.295	725.2
493.503	718.8
493.711	793.2
493.919	777.12
494.127	776.35
494.334	769.18
494.542	697.88
494.75	732.17
494.958	756.97
495.166	769.37
495.374	794.56
495.581	797.85
495.789	790.29
495.997	829.24
496.205	768.01
496.412	794.17
496.62	755.61
496.828	801.14
497.035	827.3
497.243	831.37
497.451	795.53
497.658	808.12
497.866	794.36
498.074	875.35
498.281	761.81
498.489	860.04
498.696	826.91
498.904	809.67
499.112	806.38
499.319	830.98
499.527	798.24
499.734	870.31
499.942	792.62
500.149	816.84
500.357	802.69
500.564	774.6
500.771	838.34
500.979	754.26
501.186	784.48
501.394	835.44
501.601	805.6
501.808	844.74
502.016	823.04
502.223	822.65
502.43	813.35
502.638	815.87
502.845	802.89
503.052	906.35
503.26	817.42
503.467	884.65
503.674	845.51
503.881	861.79
504.089	940.84
504.296	879.42
504.503	784.1
504.71	874.77
504.917	807.54
505.125	871.09
505.332	866.05
505.539	857.72
505.746	976.1
505.953	918.75
506.16	921.46
506.367	964.09
506.574	945.68
506.781	968.15
506.988	908.87
507.195	928.82
507.402	907.71
507.609	958.86
507.816	894.92
508.023	898.79
508.23	907.32
508.437	917.59
508.644	945.29
508.851	1027.25
509.058	963.31
509.265	972.61
509.472	954.79
509.679	1064.06
509.885	981.14
510.092	972.61
510.299	978.62
510.506	982.49
510.713	1004.77
510.92	978.62
511.126	998.57
511.333	1029.19
511.54	1023.76
511.746	1071.81
511.953	1062.32
512.16	1085.18
512.367	987.34
512.573	1025.12
512.78	1044.1
512.987	1005.55
513.193	1028.22
513.4	967.19
513.606	1007.29
513.813	1040.04
514.02	1013.1
514.226	1080.53
514.433	1095.64
514.639	995.28
514.846	1052.82
515.052	1024.92
515.259	1057.67
515.465	1059.99
515.672	1049.33
515.878	1127.03
516.085	1097
516.291	1119.67
516.497	1061.35
516.704	1055.53
516.91	994.89
517.117	954.59
517.323	951.49
517.529	1005.74
517.736	1019.3
517.942	982.3
518.148	1012.52
518.354	1046.62
518.561	1055.92
518.767	1037.52
518.973	1072.2
519.179	1109.59
519.386	1094.67
519.592	1100.1
519.798	1096.42
520.004	1166.75
520.21	1113.08
520.417	1217.7
520.623	1197.75
520.829	1209.37
521.035	1165.58
521.241	1210.73
521.447	1187.09
521.653	1320.97
521.859	1199.68
522.065	1236.3
522.271	1333.56
522.477	1249.28
522.683	1338.79
522.889	1250.44
523.095	1268.46
523.301	1230.29
523.507	1215.38
523.713	1253.16
523.919	1240.37
524.125	1335.11
524.331	1275.05
524.537	1374.64
524.742	1350.03
524.948	1370.76
525.154	1393.62
525.36	1485.27
525.566	1366.69
525.772	1435.67
525.977	1336.47
526.183	1395.56
526.389	1397.31
526.595	1338.6
526.8	1309.34
527.006	1251.41
527.212	1214.41
527.417	1239.59
527.623	1231.84
527.829	1317.67
528.034	1326.78
528.24	1372.89
528.446	1333.17
528.651	1409.51
528.857	1416.29
529.062	1462.79
529.268	1445.35
529.473	1426.95
529.679	1438.19
529.884	1512.97
530.09	1478.29
530.295	1474.03
530.501	1492.43
530.706	1499.22
530.912	1496.31
531.117	1511.23
531.323	1483.72
531.528	1511.23
531.733	1554.24
531.939	1506.38
532.144	1511.23
532.35	1497.67
532.555	1540.1
532.76	1550.17
532.966	1559.08
533.171	1520.14
533.376	1466.47
533.581	1439.54
533.787	1515.1
533.992	1513.17
534.197	1532.93
534.402	1500.77
534.607	1505.03
534.813	1611.59
535.018	1527.31
535.223	1558.7
535.428	1583.3
535.633	1610.04
535.838	1611.4
536.043	1589.89
536.249	1695.48
536.454	1596.09
536.659	1603.26
536.864	1583.5
537.069	1575.36
537.274	1594.54
537.479	1600.74
537.684	1598.03
537.889	1533.51
538.094	1673.2
538.299	1620.7
538.504	1653.83
538.708	1595.51
538.913	1657.51
539.118	1564.9
539.323	1624.96
539.528	1585.24
539.733	1596.48
539.938	1648.6
540.142	1596.09
540.347	1572.26
540.552	1550.56
540.757	1582.14
540.962	1590.28
541.166	1534.87
541.371	1544.75
541.576	1552.3
541.781	1478.68
541.985	1564.32
542.19	1570.52
542.395	1673.98
542.599	1738.88
542.804	1643.36
543.008	1689.48
543.213	1617.4
543.418	1596.28
543.622	1648.01
543.827	1577.3
544.031	1658.86
544.236	1699.16
544.44	1644.72
544.645	1750.12
544.849	1656.93
545.054	1667.19
545.258	1766.78
545.463	1708.85
545.667	1622.44
545.872	1708.46
546.076	1694.32
546.281	1700.52
546.485	1658.09
546.689	1712.53
546.894	1735.39
547.098	1702.26
547.302	1696.64
547.507	1686.18
547.711	1682.5
547.915	1747.99
548.119	1673.01
548.324	1664.68
548.528	1734.43
548.732	1683.08
548.936	1748.57
549.141	1752.25
549.345	1671.84
549.549	1692.77
549.753	1750.12
549.957	1808.24
550.161	1825.49
550.366	1727.84
550.57	1705.36
550.774	1712.34
550.978	1674.56
551.182	1726.48
551.386	1707.49
551.59	1681.14
551.794	1711.37
551.998	1721.83
552.202	1749.34
552.406	1699.16
552.61	1742.76
552.814	1717.96
553.018	1819.87
553.222	1738.88
553.426	1720.86
553.63	1777.63
553.833	1724.16
554.037	1695.09
554.241	1747.99
554.445	1766.78
554.649	1703.04
554.853	1744.11
555.056	1769.3
555.26	1793.52
555.464	1776.66
555.668	1792.94
555.871	1762.71
556.075	1770.66
556.279	1717.57
556.483	1689.67
556.686	1707.11
556.89	1763.87
557.094	1739.27
557.297	1687.34
557.501	1716.99
557.704	1616.05
557.908	1734.43
558.112	1658.28
558.315	1752.06
558.519	1681.73
558.722	1659.64
558.926	1661.77
559.129	1625.54
559.333	1592.8
559.536	1608.49
559.74	1592.21
559.943	1582.72
560.147	1628.83
560.35	1623.6
560.553	1650.34
560.757	1589.89
560.96	1685.21
561.164	1589.31
561.367	1702.65
561.57	1636.58
561.774	1630.38
561.977	1631.55
562.18	1612.17
562.384	1691.41
562.587	1627.48
562.79	1623.02
562.993	1616.82
563.197	1658.09
563.4	1712.92
563.603	1681.92
563.806	1719.31
564.009	1606.55
564.212	1651.7
564.416	1553.27
564.619	1614.3
564.822	1569.93
565.025	1649.95
565.228	1628.64
565.431	1617.21
565.634	1517.82
565.837	1549.01
566.04	1540.29
566.243	1529.63
566.446	1449.62
566.649	1545.13
566.852	1467.44
567.055	1544.17
567.258	1559.47
567.461	1599.96
567.664	1593.96
567.867	1475
568.07	1518.4
568.273	1528.08
568.475	1579.43
568.678	1521.88
568.881	1482.17
569.084	1488.17
569.287	1366.11
569.489	1415.13
569.692	1523.43
569.895	1507.55
570.098	1440.12
570.3	1432.95
570.503	1375.22
570.706	1421.33
570.909	1410.48
571.111	1378.32
571.314	1368.63
571.516	1409.51
571.719	1418.42
571.922	1391.69
572.124	1370.96
572.327	1413
572.529	1358.94
572.732	1350.61
572.935	1408.54
573.137	1457.56
573.34	1368.63
573.542	1453.1
573.745	1368.44
573.947	1410.67
574.15	1405.64
574.352	1391.3
574.554	1448.45
574.757	1365.14
574.959	1354.68
575.162	1353.52
575.364	1379.29
575.566	1440.51
575.769	1313.02
575.971	1363.59
576.173	1251.61
576.376	1348.09
576.578	1367.47
576.78	1408.74
576.982	1245.02
577.185	1324.07
577.387	1303.14
577.589	1268.27
577.791	1347.71
577.993	1354.1
578.196	1324.26
578.398	1315.54
578.6	1351.97
578.802	1265.75
579.004	1264.78
579.206	1297.72
579.408	1295.78
579.61	1256.84
579.812	1346.54
580.014	1291.13
580.216	1249.28
580.418	1327.56
580.62	1257.03
580.822	1227.19
581.024	1294.81
581.226	1298.11
581.428	1294.04
581.63	1373.86
581.832	1268.27
582.034	1333.56
582.236	1251.8
582.438	1349.64
582.64	1335.69
582.841	1390.14
583.043	1399.24
583.245	1318.84
583.447	1358.36
583.649	1297.53
583.85	1346.16
584.052	1392.27
584.254	1266.14
584.456	1362.24
584.657	1252.77
584.859	1313.02
585.061	1332.01
585.262	1289.78
585.464	1221.38
585.666	1306.44
585.867	1276.41
586.069	1350.61
586.27	1280.86
586.472	1297.53
586.674	1257.23
586.875	1288.23
587.077	1228.74
587.278	1253.74
587.48	1251.8
587.681	1373.28
587.883	1305.66
588.084	1223.32
588.285	1223.71
588.487	1223.32
588.688	1219.25
588.89	1165.97
589.091	1139.43
589.292	1136.33
589.494	1139.81
589.695	1090.02
589.896	1048.56
590.098	1047.2
590.299	1103.97
590.5	1062.51
590.702	1115.02
590.903	1137.3
591.104	1179.34
591.305	1180.11
591.507	1211.31
591.708	1179.73
591.909	1143.3
592.11	1244.05
592.311	1194.45
592.512	1193.87
592.714	1103.78
592.915	1124.51
593.116	1119.86
593.317	1171.2
593.518	1167.52
593.719	1140.98
593.92	1195.42
594.121	1205.11
594.322	1159.38
594.523	1155.7
594.724	1125.09
594.925	1158.03
595.126	1154.54
595.327	1157.25
595.528	1178.76
595.729	1156.48
595.929	1102.23
596.13	1147.18
596.331	1152.6
596.532	1169.46
596.733	1206.85
596.934	1173.72
597.135	1180.5
597.335	1171.78
597.536	1128.19
597.737	1193.68
597.938	1133.23
598.138	1157.06
598.339	1144.66
598.54	1190.96
598.74	1169.46
598.941	1150.08
599.142	1212.47
599.342	1177.98
599.543	1134.78
599.744	1146.79
599.944	1170.23
600.145	1088.28
600.345	1182.83
600.546	1246.57
600.746	1169.65
600.947	1243.08
601.147	1183.21
601.348	1203.17
601.548	1126.45
601.749	1155.12
601.949	1090.8
602.15	1108.04
602.35	1146.21
602.551	1183.41
602.751	1104.75
602.951	1123.15
603.152	1093.32
603.352	1170.04
603.552	1133.81
603.753	1207.24
603.953	1168.3
604.153	1174.11
604.354	1135.17
604.554	1143.3
604.754	1166.94
604.954	1098.74
605.155	1162.29
605.355	1114.05
605.555	1152.8
605.755	1223.71
605.955	1121.99
606.155	1137.68
606.356	1169.26
606.556	1152.8
606.756	1163.45
606.956	1094.48
607.156	1198.52
607.356	1095.83
607.556	1138.46
607.756	1137.3
607.956	1210.92
608.156	1158.8
608.356	1112.11
608.556	1166.94
608.756	1116.57
608.956	1109.78
609.156	1120.25
609.356	1111.14
609.556	1099.13
609.755	1121.8
609.955	1104.36
610.155	1093.51
610.355	1114.05
610.555	1066.58
610.755	1112.88
610.954	1023.76
611.154	1083.82
611.354	1123.15
611.554	1063.09
611.753	1078.78
611.953	1043.52
612.153	1115.79
612.352	1117.34
612.552	1058.25
612.752	996.44
612.951	1065.22
613.151	1062.32
613.351	1039.45
613.55	1072.58
613.75	1053.02
613.949	1026.86
614.149	1043.33
614.348	1069.1
614.548	1050.11
614.747	956.53
614.947	1053.21
615.146	981.72
615.346	1063.09
615.545	1022.6
615.745	1078.4
615.944	1053.98
616.144	1032.09
616.343	1049.72
616.542	1000.32
616.742	1031.12
616.941	1031.32
617.14	959.63
617.34	1023.37
617.539	1023.37
617.738	963.89
617.938	1077.82
618.137	1051.85
618.336	950.52
618.535	1062.9
618.734	997.02
618.934	1022.02
619.133	1017.37
619.332	1035.58
619.531	1007.49
619.73	999.15
619.929	1038.68
620.128	1035
620.328	1072.58
620.527	972.61
620.726	1010.39
620.925	1003.22
621.124	1003.61
621.323	999.35
621.522	951.88
621.721	963.89
621.92	929.99
622.119	1029.38
622.318	966.8
622.517	970.29
622.715	957.89
622.914	935.02
623.113	983.85
623.312	912.16
623.511	988.5
623.71	944.32
623.909	942.39
624.107	1024.34
624.306	902.67
624.505	928.24
624.704	928.05
624.902	936.57
625.101	1022.99
625.3	942.58
625.499	914.68
625.697	926.89
625.896	890.46
626.095	951.3
626.293	898.02
626.492	940.64
626.69	958.27
626.889	929.41
627.088	991.99
627.286	913.91
627.485	901.89
627.683	892.98
627.882	907.32
628.08	851.52
628.279	853.07
628.477	957.11
628.676	859.08
628.874	919.14
629.073	884.65
629.271	869.93
629.469	937.74
629.668	900.15
629.866	871.48
630.065	842.99
630.263	919.14
630.461	848.23
630.66	907.12
630.858	919.52
631.056	944.52
631.254	932.51
631.453	864.89
631.651	914.1
631.849	882.91
632.047	913.71
632.245	875.16
632.444	908.48
632.642	903.06
632.84	905.19
633.038	856.36
633.236	858.69
633.434	858.88
633.632	827.88
633.83	848.81
634.028	908.87
634.227	879.03
634.425	950.91
634.623	877.09
634.821	889.11
635.019	917.2
635.216	872.06
635.414	875.74
635.612	872.64
635.81	889.88
636.008	936.96
636.206	867.41
636.404	899.57
636.602	852.49
636.8	872.44
636.997	912.55
637.195	921.07
637.393	897.82
637.591	940.84
637.789	920.69
637.986	848.61
638.184	860.24
638.382	944.91
638.58	926.31
638.777	943.16
638.975	914.29
639.173	915.46
639.37	901.51
639.568	925.92
639.765	943.55
639.963	865.08
640.161	948.39
640.358	939.09
640.556	857.53
640.753	833.69
640.951	829.04
641.148	920.88
641.346	869.93
641.543	911.58
641.741	882.32
641.938	837.57
642.136	885.23
642.333	844.16
642.531	899.18
642.728	918.75
642.925	877.29
643.123	853.84
643.32	875.16
643.517	876.32
643.715	869.15
643.912	812.77
644.109	856.36
644.306	855.78
644.504	795.72
644.701	824.59
644.898	828.46
645.095	815.87
645.293	848.42
645.49	847.45
645.687	835.44
645.884	876.71
646.081	784.68
646.278	820.33
646.475	808.89
646.672	812.19
646.87	825.94
647.067	808.7
647.264	814.13
647.461	760.85
647.658	726.55
647.855	790.1
648.052	811.8
648.249	706.21
648.446	753.68
648.642	745.54
648.839	735.27
649.036	716.28
649.233	716.48
649.43	737.98
649.627	702.91
649.824	717.06
650.021	752.13
650.217	720.93
650.414	733.72
650.611	739.92
650.808	736.82
651.004	739.92
651.201	762.2
651.398	804.83
651.595	753.48
651.791	715.51
651.988	760.07
652.185	746.51
652.381	741.66
652.578	692.84
652.775	722.87
652.971	735.27
653.168	733.33
653.364	791.65
653.561	724.81
653.757	756.97
653.954	743.99
654.15	730.04
654.347	828.08
654.543	712.21
654.74	673.66
654.936	706.01
655.133	734.5
655.329	752.32
655.525	694.39
655.722	751.74
655.918	712.02
656.115	745.15
656.311	628.13
656.507	589.19
656.704	580.47
656.9	635.1
657.096	632.2
657.292	624.25
657.489	669.2
657.685	671.53
657.881	667.07
658.077	646.15
658.273	671.33
658.47	738.95
658.666	695.94
658.862	735.27
659.058	657.58
659.254	736.05
659.45	683.15
659.646	716.28
659.842	715.12
660.038	745.54
660.234	702.33
660.43	704.27
660.626	758.91
660.822	747.28
661.018	743.8
661.214	719.77
661.41	648.08
661.606	728.68
661.802	762.78
661.998	721.9
662.194	677.73
662.39	726.16
662.586	709.11
662.781	704.85
662.977	721.13
663.173	724.03
663.369	683.35
663.564	696.33
663.76	730.04
663.956	661.07
664.152	724.81
664.347	638.4
664.543	658.55
664.739	688.38
664.934	607.98
665.13	634.91
665.326	712.8
665.521	706.6
665.717	635.68
665.912	618.63
666.108	603.14
666.304	651.77
666.499	625.03
666.695	597.9
666.89	625.61
667.086	717.06
667.281	647.31
667.477	721.13
667.672	668.43
667.867	675.21
668.063	656.42
668.258	635.88
668.454	630.45
668.649	729.26
668.844	655.64
669.04	670.95
669.235	645.95
669.43	610.5
669.626	614.76
669.821	637.04
670.016	575.24
670.211	606.24
670.407	602.75
670.602	641.3
670.797	639.75
670.992	691.29
671.187	595.97
671.382	668.04
671.578	628.52
671.773	652.15
671.968	594.42
672.163	617.08
672.358	674.82
672.553	609.72
672.748	616.12
672.943	706.6
673.138	611.66
673.333	654.48
673.528	600.42
673.723	652.15
673.918	610.5
674.113	563.61
674.308	675.21
674.503	655.45
674.698	619.6
674.892	623.87
675.087	663.39
675.282	642.85
675.477	577.95
675.672	629.48
675.867	592.29
676.061	567.49
676.256	567.49
676.451	592.09
676.646	617.67
676.84	578.92
677.035	571.55
677.23	586.86
677.424	627.93
677.619	645.37
677.814	671.72
678.008	628.52
678.203	561.87
678.397	548.5
678.592	611.47
678.787	670.95
678.981	592.09
679.176	593.64
679.37	596.35
679.565	572.52
679.759	616.5
679.954	652.15
680.148	643.24
680.342	659.32
680.537	642.27
680.731	580.85
680.926	640.14
681.12	673.85
681.314	572.14
681.509	619.99
681.703	632
681.897	654.48
682.092	591.9
682.286	596.35
682.48	686.64
682.674	644.21
682.869	600.42
683.063	632
683.257	638.2
683.451	584.54
683.645	606.82
683.839	625.42
684.034	596.55
684.228	622.9
684.422	578.53
684.616	550.24
684.81	644.02
685.004	595
685.198	587.83
685.392	643.24
685.586	582.4
685.78	612.43
685.974	630.26
686.168	607.59
686.362	669.2
686.556	549.27
686.75	515.95
686.944	547.34
687.138	564.19
687.331	451.24
687.525	477.39
687.719	422.56
687.913	489.99
688.107	490.37
688.301	473.32
688.494	526.6
688.688	478.36
688.882	458.41
689.076	447.94
689.269	480.11
689.463	588.8
689.657	526.02
689.85	527.77
690.044	526.6
690.238	518.08
690.431	525.64
690.625	501.03
690.818	526.02
691.012	555.28
691.205	610.69
691.399	519.24
691.593	545.4
691.786	639.37
691.98	629.68
692.173	655.06
692.366	637.04
692.56	658.55
692.753	683.93
692.947	601.59
693.14	682.38
693.333	669.4
693.527	609.14
693.72	656.8
693.914	627.35
694.107	634.13
694.3	669.98
694.493	628.9
694.687	704.85
694.88	675.98
695.073	744.76
695.266	725.39
695.46	710.08
695.653	749.41
695.846	732.75
696.039	671.33
696.232	732.56
696.425	760.07
696.618	768.98
696.812	751.74
697.005	834.28
697.198	911.39
697.391	858.3
697.584	870.7
697.777	918.75
697.97	872.44
698.163	888.91
698.356	890.46
698.549	979.39
698.742	911.58
698.935	894.72
699.127	931.54
699.32	859.27
699.513	908.48
699.706	923.98
699.899	944.52
700.092	886.39
700.285	953.04
700.477	917.59
700.67	968.35
700.863	956.92
701.056	1029.96
701.248	1034.61
701.441	1050.5
701.634	1012.33
701.826	1086.34
702.019	987.14
702.212	1051.66
702.404	999.15
702.597	1029.38
702.79	1051.85
702.982	1089.63
703.175	1113.47
703.367	1138.46
703.56	1131.29
703.752	1193.48
703.945	1177.6
704.137	1199.1
704.33	1194.06
704.522	1245.99
704.715	1255.09
704.907	1269.43
705.1	1287.45
705.292	1273.11
705.484	1279.7
705.677	1314.77
705.869	1316.71
706.061	1348.87
706.254	1375.61
706.446	1332.59
706.638	1342.47
706.831	1432.37
707.023	1370.18
707.215	1471.7
707.407	1485.46
707.599	1418.62
707.792	1500.38
707.984	1500.77
708.176	1485.07
708.368	1441.29
708.56	1485.65
708.752	1503.87
708.944	1463.57
709.136	1533.7
709.329	1523.43
709.521	1662.74
709.713	1586.79
709.905	1632.51
710.097	1682.5
710.289	1574.78
710.481	1573.42
710.672	1626.51
710.864	1631.35
711.056	1715.83
711.248	1706.72
711.44	1700.33
711.632	1724.16
711.824	1757.87
712.016	1800.11
712.207	1765.42
712.399	1787.9
712.591	1848.74
712.783	1816.38
712.975	1852.61
713.166	1804.95
713.358	1834.59
713.55	1905.7
713.741	1880.32
713.933	1890
714.125	1859.59
714.316	1882.25
714.508	1945.8
714.7	1950.26
714.891	1933.6
715.083	1969.44
715.274	1909.57
715.466	1969.44
715.657	1977.19
715.849	1890.59
716.04	1924.49
716.232	1926.23
716.423	1944.83
716.615	1855.32
716.806	1802.62
716.998	1795.26
717.189	1729.19
717.381	1676.49
717.572	1602.48
717.763	1662.16
717.955	1639.49
718.146	1593.18
718.337	1560.25
718.528	1541.26
718.72	1475
718.911	1543.58
719.102	1475.97
719.293	1557.15
719.485	1529.25
719.676	1504.64
719.867	1492.43
720.058	1456.01
720.249	1486.23
720.44	1549.98
720.632	1554.82
720.823	1611.2
721.014	1700.91
721.205	1742.37
721.396	1810.76
721.587	1888.26
721.778	1905.7
721.969	1880.32
722.16	1987.46
722.351	1984.55
722.542	2112.43
722.733	2151.37
722.924	2068.64
723.115	2079.88
723.305	2055.27
723.496	2078.71
723.687	1946.97
723.878	1980.29
724.069	1944.25
724.26	1978.35
724.45	1889.42
724.641	1892.52
724.832	1931.85
725.023	1929.72
725.213	1922.75
725.404	1903.57
725.595	1909.38
725.785	1901.82
725.976	1963.05
726.167	1915.77
726.357	1969.44
726.548	2085.88
726.739	1956.65
726.929	2021.75
727.12	2060.11
727.31	2032.99
727.501	2001.22
727.691	2020.59
727.882	2036.48
728.072	2098.67
728.263	2070.96
728.453	2133.74
728.644	2102.93
728.834	2121.14
729.024	2082.2
729.215	2065.93
729.405	2115.14
729.596	2170.16
729.786	2211.04
729.976	2201.16
730.167	2234.68
730.357	2155.63
730.547	2178.11
730.737	2269.36
730.928	2259.48
731.118	2282.92
731.308	2252.12
731.498	2272.07
731.688	2328.65
731.879	2334.85
732.069	2350.74
732.259	2421.84
732.449	2448.77
732.639	2518.13
732.829	2486.36
733.019	2546.23
733.209	2615.78
733.399	2624.5
733.589	2669.84
733.779	2663.83
733.969	2657.05
734.159	2730.87
734.349	2760.12
734.539	2788.22
734.729	2769.04
734.919	2823.28
735.109	2838.98
735.299	2746.95
735.488	2769.42
735.678	2819.41
735.868	2832.39
736.058	2829.1
736.248	2760.7
736.437	2738.81
736.627	2755.67
736.817	2898.26
737.007	2860.1
737.196	2903.5
737.386	2856.8
737.576	2846.92
737.765	2890.13
737.955	2885.86
738.144	2961.81
738.334	2946.51
738.524	2857.38
738.713	2927.52
738.903	2925.58
739.092	2976.93
739.282	3000.95
739.471	2999.01
739.661	2931.2
739.85	2984.87
740.04	2999.21
740.229	3050.55
740.419	2999.98
740.608	3031.76
740.797	2992.23
740.987	3095.89
741.176	3102.47
741.365	3030.59
741.555	2968.01
741.744	3062.56
741.933	3032.14
742.123	3058.3
742.312	3106.54
742.501	3104.61
742.69	3139.48
742.88	3087.56
743.069	3181.14
743.258	3108.48
743.447	3147.23
743.636	3168.15
743.825	3149.75
744.014	3172.03
744.204	3164.28
744.393	3102.09
744.582	3204.39
744.771	3203.22
744.96	3144.13
745.149	3182.1
745.338	3140.26
745.527	3223.37
745.716	3128.82
745.905	3125.72
746.094	3225.31
746.283	3241.97
746.471	3227.83
746.66	3225.7
746.849	3223.57
747.038	3259.41
747.227	3180.17
747.416	3204
747.604	3152.07
747.793	3177.07
747.982	3207.29
748.171	3273.36
748.359	3220.27
748.548	3186.56
748.737	3149.55
748.926	3180.17
749.114	3127.08
749.303	3197.6
749.491	3194.12
749.68	3120.88
749.869	3213.88
750.057	3164.28
750.246	3148.2
750.434	3116.42
750.623	3146.84
750.811	3092.4
751	3201.48
751.188	3136.38
751.377	3170.48
751.565	3123.98
751.754	3101.7
751.942	3102.47
752.131	3154.98
752.319	3113.32
752.507	3063.14
752.696	3161.95
752.884	3135.99
753.072	3115.84
753.261	3119.72
753.449	3126.11
753.637	3070.7
753.825	3210.97
754.014	3052.49
754.202	3067.21
754.39	3168.93
754.578	3144.13
754.766	3074.19
754.955	3076.51
755.143	3137.54
755.331	3064.89
755.519	3056.56
755.707	3039.31
755.895	3044.16
756.083	3080.58
756.271	3031.95
756.459	3042.03
756.647	3081.36
756.835	3029.24
757.023	2999.98
757.211	3061.01
757.399	3031.95
757.587	2990.29
757.775	2993.78
757.963	3004.63
758.151	3009.09
758.339	2912.99
758.526	2955.81
758.714	2987.58
758.902	2876.95
759.09	2849.63
759.278	2637.48
759.465	2411.96
759.653	2112.62
759.841	1932.82
760.028	1631.35
760.216	1469.96
760.404	1385.1
760.591	1110.17
760.779	906.93
760.967	825.17
761.154	674.63
761.342	726.94
761.529	698.46
761.717	761.62
761.905	742.44
762.092	847.84
762.28	776.54
762.467	780.8
762.655	719.77
762.842	739.34
763.029	742.63
763.217	753.1
763.404	732.75
763.592	761.23
763.779	756.2
763.966	781.58
764.154	837.76
764.341	866.05
764.528	904.8
764.716	954.59
764.903	1000.7
765.09	1054.95
765.277	1084.4
765.465	1232.23
765.652	1280.09
765.839	1327.17
766.026	1470.35
766.213	1513.55
766.4	1589.89
766.588	1804.76
766.775	1764.26
766.962	1879.15
767.149	1911.51
767.336	2068.25
767.523	2026.4
767.71	2132.58
767.897	2277.89
768.084	2301.14
768.271	2331.94
768.458	2406.34
768.645	2471.63
768.832	2419.52
769.019	2462.91
769.206	2509.8
769.392	2570.44
769.579	2606.29
769.766	2592.14
769.953	2575.29
770.14	2603.58
770.327	2651.62
770.513	2667.71
770.7	2724.28
770.887	2654.92
771.073	2739.2
771.26	2665.96
771.447	2644.65
771.634	2643.29
771.82	2788.02
772.007	2655.31
772.193	2712.65
772.38	2725.25
772.567	2699.67
772.753	2689.79
772.94	2766.52
773.126	2731.25
773.313	2729.9
773.499	2740.75
773.686	2769.62
773.872	2688.44
774.059	2697.74
774.245	2661.12
774.432	2658.6
774.618	2588.46
774.804	2667.12
774.991	2610.94
775.177	2696.96
775.363	2686.89
775.55	2717.11
775.736	2638.06
775.922	2650.66
776.109	2646.59
776.295	2640.19
776.481	2667.32
776.667	2643.1
776.853	2596.79
777.04	2618.3
777.226	2602.03
777.412	2684.17
777.598	2617.91
777.784	2618.49
777.97	2626.24
778.156	2628.96
778.342	2625.47
778.528	2556.88
778.715	2544.09
778.901	2527.63
779.087	2585.56
779.272	2532.86
779.458	2529.76
779.644	2520.46
779.83	2528.21
780.016	2624.5
780.202	2517.36
780.388	2541.19
780.574	2483.65
780.76	2499.15
780.946	2568.51
781.131	2522.59
781.317	2513.48
781.503	2453.61
781.689	2476.28
781.874	2626.82
782.06	2483.06
782.246	2520.26
782.432	2494.88
782.617	2511.55
782.803	2573.16
782.989	2431.53
783.174	2443.73
783.36	2392.2
783.545	2463.69
783.731	2460.01
783.916	2387.55
784.102	2459.81
784.288	2377.08
784.473	2435.79
784.659	2378.83
784.844	2424.75
785.029	2381.54
785.215	2373.4
785.4	2310.82
785.586	2410.22
785.771	2343.18
785.956	2389.29
786.142	2374.76
786.327	2333.1
786.512	2346.28
786.698	2366.43
786.883	2297.84
787.068	2314.5
787.254	2340.66
787.439	2314.31
787.624	2284.09
787.809	2266.26
787.994	2251.15
788.18	2301.91
788.365	2238.36
788.55	2294.35
788.735	2239.14
788.92	2248.05
789.105	2217.44
789.29	2264.71
789.475	2204.26
789.66	2224.8
789.845	2180.24
790.03	2173.84
790.215	2220.34
790.4	2224.41
790.585	2238.36
790.77	2187.41
790.955	2103.51
791.14	2178.69
791.325	2220.34
791.51	2113.78
791.695	2168.42
791.879	2152.34
792.064	2098.48
792.249	2235.26
792.434	2112.04
792.618	2173.84
792.803	2203.1
792.988	2149.63
793.173	2156.79
793.357	2229.06
793.542	2107.78
793.727	2208.91
793.911	2206.2
794.096	2187.41
794.281	2181.21
794.465	2258.12
794.65	2210.66
794.834	2204.26
795.019	2272.85
795.203	2234.49
795.388	2222.47
795.572	2253.67
795.757	2214.53
795.941	2235.07
796.126	2185.08
796.31	2142.07
796.494	2181.4
796.679	2159.89
796.863	2150.79
797.048	2246.5
797.232	2192.25
797.416	2230.22
797.601	2208.91
797.785	2246.31
797.969	2225.19
798.153	2164.93
798.338	2239.72
798.522	2253.47
798.706	2249.99
798.89	2292.8
799.074	2349.19
799.258	2276.14
799.443	2304.62
799.627	2229.26
799.811	2274.98
799.995	2221.89
800.179	2250.37
800.363	2215.5
800.547	2237.01
800.731	2243.01
800.915	2160.28
801.099	2188.76
801.283	2198.26
801.467	2252.7
801.651	2190.7
801.835	2277.3
802.019	2224.8
802.202	2259.87
802.386	2150.79
802.57	2217.44
802.754	2206.78
802.938	2139.16
803.121	2175.59
803.305	2243.98
803.489	2213.37
803.673	2213.37
803.856	2236.42
804.04	2199.81
804.224	2246.31
804.407	2212.98
804.591	2160.48
804.775	2186.05
804.958	2195.16
805.142	2297.07
805.326	2213.37
805.509	2214.53
805.693	2239.14
805.876	2248.82
806.06	2244.56
806.243	2284.67
806.427	2292.8
806.61	2310.05
806.794	2224.8
806.977	2239.52
807.16	2249.21
807.344	2241.46
807.527	2218.41
807.71	2207.94
807.894	2236.62
808.077	2248.05
808.26	2143.04
808.444	2186.24
808.627	2260.26
808.81	2164.54
808.993	2132.58
809.177	2150.59
809.36	2149.82
809.543	2173.65
809.726	2091.31
809.909	2092.86
810.092	2072.32
810.276	2068.06
810.459	2073.1
810.642	2061.28
810.825	2046.36
811.008	2056.43
811.191	1957.82
811.374	1994.24
811.557	1966.53
811.74	2102.93
811.923	1949.48
812.106	1916.94
812.289	1875.86
812.472	1899.3
812.654	1939.8
812.837	1902.99
813.02	1839.05
813.203	1848.93
813.386	1712.14
813.569	1722.99
813.751	1699.74
813.934	1755.16
814.117	1676.69
814.3	1682.31
814.482	1621.08
814.665	1611.98
814.848	1572.65
815.03	1531.57
815.213	1495.15
815.396	1524.02
815.578	1444.77
815.761	1473.64
815.943	1515.1
816.126	1437.8
816.309	1437.41
816.491	1334.53
816.674	1313.41
816.856	1349.06
817.039	1332.98
817.221	1451.94
817.403	1405.44
817.586	1391.11
817.768	1413.77
817.951	1314.57
818.133	1305.08
818.315	1363.01
818.498	1400.99
818.68	1427.72
818.862	1408.35
819.045	1454.85
819.227	1419.39
819.409	1405.83
819.591	1433.15
819.774	1372.89
819.956	1363.4
820.138	1469.57
820.32	1420.55
820.502	1468.41
820.684	1554.43
820.866	1536.22
821.048	1580.4
821.231	1599.58
821.413	1588.34
821.595	1582.33
821.777	1575.16
821.959	1573.61
822.141	1629.61
822.323	1503.28
822.505	1480.04
822.686	1390.72
822.868	1380.06
823.05	1244.83
823.232	1223.71
823.414	1167.13
823.596	1232.04
823.778	1225.84
823.96	1280.28
824.141	1295.98
824.323	1245.21
824.505	1390.91
824.687	1382.77
824.868	1427.14
825.05	1525.37
825.232	1527.89
825.413	1608.1
825.595	1544.75
825.777	1456.79
825.958	1532.35
826.14	1503.67
826.321	1537.58
826.503	1527.12
826.685	1541.45
826.866	1572.26
827.048	1547.85
827.229	1490.11
827.411	1475.19
827.592	1431.6
827.773	1407.77
827.955	1396.34
828.136	1396.34
828.318	1341.31
828.499	1403.5
828.68	1352.55
828.862	1378.32
829.043	1394.4
829.224	1359.33
829.406	1350.61
829.587	1294.81
829.768	1375.99
829.949	1353.91
830.131	1382.39
830.312	1405.83
830.493	1341.12
830.674	1404.67
830.855	1349.26
831.036	1362.43
831.218	1446.52
831.399	1458.14
831.58	1349.45
831.761	1392.66
831.942	1393.82
832.123	1384.71
832.304	1330.66
832.485	1354.29
832.666	1367.66
832.847	1391.11
833.028	1387.62
833.209	1367.08
833.389	1366.69
833.57	1307.99
833.751	1333.17
833.932	1379.87
834.113	1388.59
834.294	1364.56
834.475	1381.22
834.655	1437.22
834.836	1403.7
835.017	1427.34
835.198	1330.46
835.378	1399.44
835.559	1441.09
835.74	1357.2
835.92	1363.01
836.101	1364.95
836.281	1421.14
836.462	1417.65
836.643	1427.72
836.823	1435.47
837.004	1424.24
837.184	1485.65
837.365	1442.06
837.545	1477.52
837.726	1405.83
837.906	1472.67
838.087	1445.16
838.267	1425.01
838.448	1377.54
838.628	1433.34
838.808	1413
838.989	1480.81
839.169	1337.63
839.349	1456.4
839.53	1436.44
839.71	1448.26
839.89	1407.19
840.07	1448.07
840.251	1402.92
840.431	1477.71
840.611	1414.55
840.791	1384.32
840.971	1428.5
841.151	1437.6
841.332	1416.49
841.512	1436.05
841.692	1338.21
841.872	1396.34
842.052	1402.73
842.232	1426.37
842.412	1338.02
842.592	1393.43
842.772	1412.61
842.952	1405.05
843.132	1395.95
843.312	1381.22
843.492	1388.39
843.672	1409.32
843.851	1320.77
844.031	1400.21
844.211	1384.32
844.391	1351.77
844.571	1440.32
844.751	1421.91
844.93	1397.5
845.11	1384.52
845.29	1374.64
845.47	1387.62
845.649	1372.89
845.829	1453.3
846.009	1396.72
846.188	1407.77
846.368	1381.03
846.547	1376.57
846.727	1405.05
846.907	1338.21
847.086	1389.17
847.266	1406.41
847.445	1381.61
847.625	1338.41
847.804	1326.2
847.984	1394.98
848.163	1336.86
848.343	1315.35
848.522	1332.98
848.701	1342.47
848.881	1342.09
849.06	1327.36
849.239	1350.61
849.419	1334.53
849.598	1285.9
849.777	1262.26
849.957	1273.31
850.136	1220.8
850.315	1216.73
850.494	1209.18
850.674	1219.64
850.853	1303.14
851.032	1242.31
851.211	1281.44
851.39	1278.93
851.569	1216.54
851.748	1229.33
851.927	1272.92
852.107	1257.23
852.286	1229.33
852.465	1195.61
852.644	1273.69
852.823	1278.93
853.002	1228.74
853.181	1245.6
853.359	1257.03
853.538	1214.21
853.717	1285.13
853.896	1183.6
854.075	1134.78
854.254	1114.05
854.433	1066
854.611	1116.18
854.79	1001.87
854.969	1097.38
855.148	1148.53
855.327	1100.1
855.505	1139.23
855.684	1108.62
855.863	1141.17
856.041	1094.09
856.22	1140.98
856.399	1144.27
856.577	1180.7
856.756	1169.65
856.934	1258.58
857.113	1288.81
857.291	1219.06
857.47	1188.83
857.648	1220.8
857.827	1169.46
858.005	1249.86
858.184	1191.93
858.362	1252.38
858.541	1169.65
858.719	1172.56
858.898	1165.78
859.076	1167.91
859.254	1245.41
859.433	1165.39
859.611	1166.94
859.789	1152.6
859.967	1223.32
860.146	1249.67
860.324	1130.9
860.502	1148.15
860.68	1150.28
860.859	1149.5
861.037	1127.42
861.215	1139.23
861.393	1162.29
861.571	1162.1
861.749	1157.25
861.927	1189.61
862.105	1146.98
862.283	1156.86
862.461	1133.62
862.639	1115.79
862.817	1122.96
862.995	1103.2
863.173	1099.13
863.351	1128.19
863.529	1141.17
863.707	1169.07
863.885	1132.65
864.063	1050.5
864.241	1089.44
864.418	1172.36
864.596	1101.65
864.774	1045.27
864.952	1083.05
865.129	1095.83
865.307	1056.89
865.485	1038.1
865.663	1134.2
865.84	1017.17
866.018	1046.43
866.196	975.52
866.373	985.79
866.551	946.65
866.728	886.59
866.906	929.6
867.084	965.44
867.261	996.64
867.439	1009.62
867.616	1004.39
867.794	961.37
867.971	995.28
868.149	1016.01
868.326	1045.46
868.503	1055.73
868.681	1025.89
868.858	1014.46
869.035	969.32
869.213	1047.98
869.39	1010
869.567	1090.99
869.745	1025.7
869.922	1019.11
870.099	1027.64
870.276	1058.44
870.454	1068.71
870.631	1041.2
870.808	1035.19
870.985	1031.51
871.162	1089.44
871.339	1044.3
871.517	992.37
871.694	987.92
871.871	1044.49
872.048	991.02
872.225	1015.82
872.402	991.02
872.579	955.17
872.756	1031.7
872.933	927.86
873.11	982.1
873.287	1011.75
873.463	967.38
873.64	955.56
873.817	981.14
873.994	995.09
874.171	946.65
874.348	977.07
874.524	889.49
874.701	953.04
874.878	905.77
875.055	967.57
875.231	964.47
875.408	987.53
875.585	916.62
875.762	944.32
875.938	903.64
876.115	937.93
876.291	925.53
876.468	934.64
876.645	887.17
876.821	930.57
876.998	906.35
877.174	930.37
877.351	913.13
877.527	907.9
877.704	922.82
877.88	928.05
878.057	895.69
878.233	934.25
878.409	904.8
878.586	913.71
878.762	913.52
878.938	929.99
879.115	868.38
879.291	905.77
879.467	847.45
879.644	860.04
879.82	863.73
879.996	847.64
880.172	816.45
880.349	887.17
880.525	898.79
880.701	846.09
880.877	830.59
881.053	875.74
881.229	872.83
881.405	872.06
881.581	834.28
881.757	841.64
881.933	893.17
882.109	913.32
882.285	858.49
882.461	802.89
882.637	861.01
882.813	835.24
882.989	855.01
883.165	926.69
883.341	826.72
883.517	885.42
883.693	846.29
883.869	871.48
884.044	818
884.22	876.9
884.396	911.19
884.572	892.01
884.747	902.67
884.923	891.24
885.099	893.37
885.275	890.66
885.45	851.91
885.626	850.55
885.801	831.18
885.977	844.54
886.153	794.75
886.328	890.27
886.504	840.28
886.679	856.94
886.855	811.03
887.03	853.65
887.206	865.86
887.381	873.8
887.557	879.61
887.732	884.26
887.908	875.16
888.083	903.06
888.258	860.63
888.434	866.24
888.609	843.96
888.784	895.11
888.96	828.46
889.135	830.59
889.31	821.49
889.485	843.96
889.661	836.21
889.836	901.51
890.011	861.59
890.186	857.53
890.361	823.23
890.537	864.89
890.712	831.95
890.887	844.74
891.062	845.71
891.237	908.09
891.412	830.59
891.587	849.39
891.762	876.9
891.937	868.38
892.112	800.76
892.287	847.26
892.462	766.08
892.637	760.07
892.812	787.78
892.987	799.79
893.161	730.62
893.336	773.63
893.511	777.7
893.686	799.01
893.861	770.73
894.035	798.04
894.21	755.42
894.385	738.95
894.56	741.86
894.734	706.01
894.909	691.29
895.084	679.28
895.258	661.84
895.433	743.6
895.608	668.82
895.782	672.3
895.957	659.9
896.131	681.99
896.306	607.4
896.48	605.85
896.655	615.73
896.829	568.65
897.004	560.9
897.178	555.28
897.353	555.86
897.527	586.67
897.701	576.59
897.876	512.66
898.05	609.53
898.224	592.67
898.399	630.65
898.573	559.15
898.747	487.66
898.921	535.13
899.096	447.75
899.27	475.65
899.444	480.3
899.618	470.22
899.792	504.32
899.967	503.16
900.141	532.42
900.315	458.79
900.489	530.29
900.663	543.07
900.837	502.77
901.011	446.97
901.185	521.37
901.359	496.38
901.533	492.31
901.707	485.53
901.881	495.41
902.055	462.67
902.229	490.18
902.403	510.91
902.576	499.29
902.75	484.76
902.924	618.83
903.098	554.31
903.272	612.24
903.446	617.47
903.619	570.59
903.793	626.38
903.967	603.33
904.14	660.68
904.314	619.02
904.488	634.33
904.661	657.19
904.835	638.4
905.009	645.76
905.182	670.75
905.356	681.41
905.529	618.83
905.703	584.73
905.876	587.83
906.05	547.72
906.223	576.79
906.397	542.88
906.57	543.07
906.744	504.52
906.917	495.8
907.09	493.09
907.264	492.12
907.437	475.26
907.61	434.77
907.784	450.27
907.957	461.89
908.13	436.9
908.304	467.51
908.477	420.63
908.65	438.45
908.823	416.17
908.996	497.74
909.17	452.79
909.343	438.26
909.516	445.81
909.689	440.58
909.862	425.47
910.035	409.19
910.208	391.18
910.381	399.31
910.554	521.96
910.727	427.79
910.9	430.7
911.073	428.76
911.246	505.87
911.419	456.86
911.592	456.66
911.765	417.33
911.938	402.61
912.11	449.49
912.283	387.88
912.456	460.15
912.629	452.21
912.802	396.21
912.974	376.06
913.147	394.66
913.32	316.39
913.493	346.81
913.665	382.26
913.838	360.37
914.01	363.86
914.183	384.01
914.356	358.24
914.528	412.29
914.701	452.79
914.873	419.27
915.046	356.88
915.218	344.87
915.391	280.35
915.563	323.95
915.736	365.21
915.908	373.93
916.081	374.13
916.253	346.81
916.425	356.3
916.598	381.68
916.77	378.39
916.942	341.38
917.115	270.66
917.287	364.63
917.459	354.75
917.632	326.27
917.804	263.69
917.976	358.04
918.148	353.39
918.32	348.16
918.493	377.81
918.665	430.51
918.837	359.79
919.009	425.47
919.181	415.01
919.353	382.65
919.525	401.06
919.697	402.22
919.869	385.17
920.041	443.29
920.213	487.86
920.385	417.33
920.557	403.77
920.729	414.23
920.901	415.39
921.073	401.06
921.244	377.81
921.416	446.01
921.588	401.44
921.76	377.03
921.932	461.31
922.103	382.65
922.275	385.75
922.447	388.85
922.619	325.3
922.79	392.34
922.962	337.31
923.134	405.51
923.305	345.06
923.477	343.51
923.648	319.68
923.82	374.13
923.991	300.11
924.163	296.24
924.335	338.86
924.506	328.01
924.677	403.96
924.849	319.1
925.02	340.41
925.192	351.65
925.363	331.89
925.535	343.9
925.706	314.26
925.877	388.27
926.049	306.51
926.22	357.08
926.391	340.03
926.562	364.05
926.734	309.8
926.905	371.8
927.076	283.06
927.247	316
927.419	277.45
927.59	251.68
927.761	270.28
927.932	277.45
928.103	289.65
928.274	226.1
928.445	211.77
928.616	216.8
928.787	240.83
928.958	277.25
929.129	240.05
929.3	229.98
929.471	182.9
929.642	147.25
929.813	120.9
929.984	197.23
930.155	109.66
930.326	195.68
930.496	144.73
930.667	88.15
930.838	184.25
931.009	103.65
931.18	142.21
931.35	139.3
931.521	128.45
931.692	100.17
931.863	40.49
932.033	87.38
932.204	110.44
932.374	124.97
932.545	51.34
932.716	124.58
932.886	127.29
933.057	41.27
933.227	84.09
933.398	147.64
933.568	52.7
933.739	-1.74
933.909	33.52
934.08	92.8
934.25	13.17
934.421	0.39
934.591	75.17
934.761	19.18
934.932	-12.79
935.102	36.62
935.272	35.07
935.443	47.66
935.613	8.33
935.783	60.64
935.953	16.66
936.123	165.27
936.294	13.76
936.464	29.84
936.634	4.07
936.804	2.91
936.974	-12.79
937.144	60.06
937.314	58.9
937.484	17.82
937.655	1.16
937.825	65.49
937.995	25.96
938.165	78.66
938.334	41.85
938.504	21.31
938.674	23.83
938.844	60.06
939.014	64.52
939.184	72.27
939.354	151.7
939.524	108.3
939.694	59.48
939.863	45.14
940.033	98.62
940.203	105.2
940.373	76.14
940.542	113.73
940.712	63.74
940.882	101.91
941.051	105.79
941.221	117.99
941.391	120.7
941.56	57.16
941.73	30.03
941.899	174.57
942.069	54.06
942.238	100.55
942.408	49.21
942.577	105.98
942.747	87.96
942.916	17.63
943.086	33.32
943.255	56.77
943.425	58.71
943.594	50.57
943.763	2.52
943.933	65.68
944.102	-17.63
944.271	54.83
944.441	53.28
944.61	32.94
944.779	64.71
944.948	121.48
945.117	22.86
945.287	37.59
945.456	12.59
945.625	29.64
945.794	45.14
945.963	62.97
946.132	69.75
946.301	20.34
946.47	85.25
946.639	-15.11
946.808	11.24
946.977	77.89
947.146	107.53
947.315	56.19
947.484	80.41
947.653	30.81
947.822	11.43
947.991	33.13
948.16	125.35
948.329	74.79
948.498	56.96
948.666	52.89
948.835	58.71
949.004	11.04
949.173	5.62
949.341	78.66
949.51	70.14
949.679	104.04
949.847	71.69
950.016	127.68
950.185	92.61
950.353	42.04
950.522	69.36
950.69	88.54
950.859	35.26
951.028	121.48
951.196	70.52
951.365	33.13
951.533	37.97
951.701	65.68
951.87	85.83
952.038	30.22
952.207	53.47
952.375	136.59
952.543	37.2
952.712	71.3
952.88	39.72
953.048	113.92
953.217	69.75
953.385	51.73
953.553	106.37
953.721	30.61
953.89	49.21
954.058	16.66
954.226	13.17
954.394	70.14
954.562	17.05
954.73	78.27
954.898	32.94
955.067	87.57
955.235	41.85
955.403	121.29
955.571	91.25
955.739	86.61
955.907	2.32
956.075	38.94
956.243	46.31
956.41	82.34
956.578	-6.78
956.746	21.89
956.914	46.31
957.082	62.97
957.25	70.14
957.418	28.09
957.585	60.84
957.753	132.14
957.921	37.39
958.089	48.63
958.256	81.57
958.424	84.28
958.592	50.57
958.759	33.52
958.927	50.18
959.095	46.31
959.262	59.29
959.43	56.19
959.597	55.99
959.765	61.81
959.932	36.23
960.1	62.39
960.267	52.51
960.435	65.29
960.602	97.07
960.77	28.87
960.937	16.27
961.104	64.13
961.272	13.95
961.439	28.09
961.606	80.41
961.774	103.07
961.941	44.95
962.108	87.77
962.275	90.09
962.443	89.7
962.61	99.78
962.777	146.67
962.944	83.7
963.111	60.84
963.278	85.44
963.446	63.16
963.613	65.49
963.78	68.59
963.947	102.88
964.114	78.86
964.281	139.89
964.448	93.97
964.615	44.17
964.782	73.43
964.949	80.99
965.116	91.45
965.282	104.82
965.449	65.29
965.616	41.46
965.783	117.22
965.95	46.89
966.117	49.21
966.283	71.11
966.45	85.44
966.617	79.82
966.784	124.39
966.95	104.82
967.117	108.69
967.284	39.72
967.45	57.35
967.617	138.72
967.784	108.89
967.95	138.53
968.117	64.91
968.283	109.66
968.45	186.38
968.616	89.51
968.783	94.35
968.949	94.35
969.116	132.91
969.282	82.73
969.449	89.7
969.615	68.2
969.781	43.59
969.948	53.67
970.114	18.6
970.28	146.28
970.447	96.87
970.613	144.34
970.779	79.44
970.945	118.57
971.112	60.06
971.278	75.95
971.444	84.86
971.61	139.11
971.776	86.02
971.942	105.59
972.108	122.84
972.275	60.06
972.441	69.75
972.607	151.51
972.773	70.33
972.939	101.33
973.105	80.02
973.271	45.14
973.437	64.91
973.602	41.66
973.768	114.12
973.934	74.59
974.1	106.17
974.266	-5.81
974.432	75.17
974.598	58.32
974.763	128.26
974.929	61.42
975.095	142.79
975.261	64.91
975.426	64.13
975.592	53.86
975.758	133.49
975.923	21.51
976.089	41.85
976.255	98.23
976.42	79.05
976.586	98.81
976.751	80.21
976.917	169.14
977.082	78.08
977.248	2.52
977.413	7.94
977.579	72.27
977.744	101.52
977.91	35.65
978.075	60.06
978.24	75.95
978.406	46.31
978.571	41.46
978.736	41.66
978.902	85.25
979.067	50.18
979.232	1.16
979.397	80.41
979.563	136.98
979.728	30.42
979.893	69.56
980.058	53.47
980.223	109.08
980.388	69.75
980.554	68.2
980.719	49.6
980.884	93.39
981.049	84.67
981.214	62.19
981.379	86.02
981.544	47.27
981.709	39.91
981.874	47.08
982.039	58.12
982.204	102.1
982.368	45.72
982.533	29.84
982.698	89.51
982.863	108.89
983.028	62.39
983.193	92.8
983.357	84.86
983.522	76.92
983.687	53.86
983.852	39.72
984.016	60.84
984.181	109.47
984.346	82.15
984.51	97.84
984.675	90.67
984.839	107.72
985.004	71.11
985.168	127.1
985.333	90.29
985.498	70.52
985.662	92.8
985.827	87.19
985.991	58.9
986.155	57.93
986.32	82.92
986.484	132.33
986.649	81.18
986.813	50.76
986.977	76.92
987.142	96.87
987.306	35.65
987.47	24.41
987.634	66.26
987.799	68.2
987.963	76.72
988.127	86.41
988.291	116.25
988.455	55.22
988.62	78.47
988.784	90.87
988.948	89.32
989.112	78.27
989.276	60.84
989.44	53.67
989.604	29.64
989.768	50.57
989.932	129.62
990.096	31.77
990.26	29.26
990.424	30.42
990.588	49.79
990.752	131.75
990.915	75.37
991.079	32.16
991.243	42.04
991.407	107.14
991.571	51.73
991.734	89.7
991.898	87.77
992.062	143.37
992.226	56.19
992.389	34.49
992.553	14.53
992.717	33.71
992.88	28.67
993.044	59.48
993.207	49.6
993.371	78.27
993.535	68.39
993.698	63.94
993.862	101.33
994.025	88.54
994.189	64.32
994.352	80.6
994.515	61.42
994.679	101.14
994.842	39.91
995.006	83.51
995.169	39.91
995.332	46.31
995.496	83.51
995.659	27.51
995.822	24.8
995.985	45.34
996.149	99.59
996.312	31.19
996.475	138.92
996.638	14.14
996.801	83.51
996.964	114.5
997.128	76.14
997.291	47.47
997.454	60.84
997.617	2.91
997.78	86.22
997.943	47.66
998.106	92.03
998.269	9.49
998.432	46.31
998.595	42.43
998.758	-1.74
998.92	31.77
999.083	-18.02
999.246	35.84
999.409	20.92
999.572	-7.36
999.735	41.27
999.897	70.14
1000.06	27.12
1000.223	65.49
1000.386	76.14
1000.548	52.51
1000.711	89.7
1000.874	50.57
1001.036	-20.54
1001.199	84.28
1001.361	-0.97
1001.524	85.83
1001.687	70.33
1001.849	12.21
1002.012	37.59
1002.174	31.19
1002.337	50.18
1002.499	23.64
1002.661	88.93
1002.824	3.68
1002.986	15.69
1003.149	61.61
1003.311	17.24
1003.473	83.12
1003.636	24.99
1003.798	54.64
1003.96	24.8
1004.123	24.41
1004.285	39.52
1004.447	45.92
1004.609	21.7
1004.771	104.43
1004.933	-9.11
1005.096	32.94
1005.258	-14.92
1005.42	18.02
1005.582	77.11
1005.744	22.67
1005.906	-0.97
1006.068	46.69
1006.23	8.72
1006.392	8.72
1006.554	31.77
1006.716	65.87
1006.878	81.96
1007.04	-16.86
1007.202	34.87
1007.363	37.59
1007.525	45.72
1007.687	41.07
1007.849	109.47
1008.011	-2.32
1008.172	20.73
1008.334	26.74
1008.496	50.96
1008.658	-6.01
1008.819	23.06
1008.981	-14.92
1009.143	13.76
1009.304	16.86
1009.466	24.22
1009.627	74.4
1009.789	157.9
1009.95	35.07
1010.112	-1.16
1010.273	22.09
1010.435	14.53
1010.596	21.7
1010.758	42.04
1010.919	46.89
1011.081	-0.77
1011.242	18.41
1011.403	51.92
1011.565	19.96
1011.726	41.07
1011.887	-8.14
1012.049	27.51
1012.21	62.97
1012.371	87.96
1012.532	-48.63
1012.693	49.79
1012.855	-19.18
1013.016	12.21
1013.177	59.67
1013.338	24.99
1013.499	94.35
1013.66	51.34
1013.821	70.91
1013.982	17.63
1014.143	34.68
1014.304	15.5
1014.465	47.66
1014.626	61.42
1014.787	32.36
1014.948	110.24
1015.109	-19.76
1015.27	63.16
1015.431	15.31
1015.592	6.2
1015.752	65.49
1015.913	20.34
1016.074	61.61
1016.235	8.72
1016.395	42.62
1016.556	33.52
1016.717	31.39
1016.877	58.71
1017.038	5.23
1017.199	54.64
1017.359	33.71
1017.52	58.71
1017.681	22.28
1017.841	15.69
1018.002	12.4
1018.162	4.46
1018.323	91.84
1018.483	1.16
1018.644	30.22
1018.804	-5.04
1018.964	-1.74
1019.125	-4.07
1019.285	52.89
1019.446	-16.08
1019.606	-19.57
1019.766	-14.34
1019.926	55.41
1020.087	50.76
1020.247	-20.15
1020.407	29.84
1020.567	53.67
1020.728	32.36
1020.888	-23.64
1021.048	-12.98
1021.208	-37.2
1021.368	-13.17
1021.528	65.49
1021.688	51.34
1021.848	26.35
1022.008	26.16
1022.168	-3.1
1022.328	32.36
1022.488	37.59
1022.648	11.24
1022.808	26.74
1022.968	26.54
1023.128	-13.37
1023.288	-7.75
1023.448	18.99
1023.608	41.85
1023.767	55.61
1023.927	-1.74
1024.087	8.14
1024.247	-24.02
1024.406	14.53
1024.566	-0.97
1024.726	-0.39
1024.885	6.78
1025.045	31.77
1025.205	8.52
1025.364	-3.29
1025.524	24.41
1025.683	-13.56
1025.843	37.2
1026.003	16.66
1026.162	36.62
1026.321	44.56
1026.481	28.67
1026.64	8.52
1026.8	35.07
1026.959	13.56
1027.119	25.96
1027.278	17.82
1027.437	1.55
1027.597	13.37
1027.756	17.44
1027.915	32.36
1028.074	41.07
1028.234	-10.66
1028.393	23.44
1028.552	-20.54
1028.711	-66.46
1028.87	33.13
1029.03	-10.66
1029.189	7.56
1029.348	-33.32
1029.507	-0.58
1029.666	4.26
1029.825	-23.83
1029.984	-9.11
1030.143	23.25
1030.302	-15.5
1030.461	-58.71
1030.62	17.24
1030.779	36.04
1030.938	-40.49
1031.097	-35.65
1031.255	39.72
1031.414	82.15
1031.573	52.31
1031.732	-24.8
1031.891	-11.43
1032.049	60.26
1032.208	20.73
1032.367	9.88
1032.525	15.89
1032.684	-0.58
1032.843	17.44
1033.001	-36.62
1033.16	143.37
1033.319	46.5
1033.477	33.52
1033.636	-7.17
1033.794	-48.05
1033.953	28.09
1034.111	25.96
1034.27	-6.01
1034.428	40.11
1034.587	-22.47
1034.745	13.95
1034.903	-5.42
1035.062	40.88
1035.22	-32.16
1035.378	47.66
1035.537	-9.69
1035.695	37.59
1035.853	-18.02
1036.011	63.16
1036.17	40.88
1036.328	-63.94
1036.486	21.31
1036.644	31.77
1036.802	-38.94
1036.96	-12.98
1037.119	1.55
1037.277	-22.67
1037.435	-43.98
1037.593	-26.74
1037.751	21.31
1037.909	26.93
1038.067	26.93
