Data from pine_FLMT105791__56__17-20-56-078.txt Node

Date: Mon Mar 20 17:20:56 GMT 2023
User: antho
Spectrometer: FLMT10579
Trigger mode: 0
Integration Time (sec): 1.000000E-1
Scans to average: 10
Electric dark correction enabled: true
Nonlinearity correction enabled: false
Boxcar width: 0
XAxis mode: Wavelengths
Number of Pixels in Spectrum: 3648
>>>>>Begin Spectral Data<<<<<
345.248	-171.55
345.464	-171.55
345.681	-171.55
345.898	-183.75
346.114	-174.26
346.331	-49.1
346.548	-1.63
346.764	10.96
346.981	10.77
347.197	15.61
347.414	8.44
347.631	-37.28
347.847	84.97
348.064	3.6
348.28	-0.08
348.497	-45.61
348.713	-0.66
348.93	18.13
349.146	31.69
349.363	-8.22
349.579	0.69
349.796	1.08
350.012	9.99
350.229	18.33
350.445	5.15
350.661	-25.66
350.878	-9.38
351.094	8.64
351.311	0.11
351.527	-1.05
351.743	-19.07
351.96	24.33
352.176	30.92
352.392	20.65
352.609	24.53
352.825	-6.28
353.041	-22.75
353.257	-5.7
353.474	-7.64
353.69	22.98
353.906	8.06
354.122	-31.47
354.339	55.14
354.555	2.44
354.771	19.49
354.987	49.52
355.203	53.39
355.42	-1.82
355.636	-8.61
355.852	-22.75
356.068	-4.34
356.284	-42.32
356.5	47.58
356.716	-7.06
356.932	-18.68
357.148	27.43
357.364	-0.08
357.58	22.59
357.796	47.39
358.012	14.06
358.228	21.62
358.444	-33.6
358.66	46.03
358.876	18.13
359.092	-8.41
359.308	16.58
359.524	28.98
359.74	12.32
359.956	0.31
360.172	9.41
360.388	34.99
360.604	5.73
360.819	73.16
361.035	24.53
361.251	25.88
361.467	3.99
361.683	25.3
361.898	26.08
362.114	16.39
362.33	29.37
362.546	48.36
362.762	20.07
362.977	1.86
363.193	-44.06
363.409	33.63
363.624	-20.42
363.84	-9.19
364.056	-29.34
364.271	18.71
364.487	29.37
364.703	-20.42
364.918	-31.47
365.134	4.18
365.35	5.54
365.565	90.98
365.781	-0.66
365.996	13.29
366.212	57.66
366.427	16.78
366.643	11.16
366.858	-27.4
367.074	-41.93
367.289	63.47
367.505	75.09
367.72	-35.92
367.936	10.77
368.151	48.94
368.367	17.36
368.582	21.43
368.798	-17.52
369.013	76.06
369.228	-0.08
369.444	-1.82
369.659	49.52
369.874	2.05
370.09	67.92
370.305	-81.65
370.52	-3.57
370.736	31.5
370.951	16.39
371.166	71.02
371.381	67.73
371.597	47.97
371.812	-26.43
372.027	-22.75
372.242	-5.89
372.458	92.92
372.673	-3.37
372.888	-20.62
373.103	29.76
373.318	79.74
373.533	22.78
373.749	32.47
373.964	-39.99
374.179	49.13
374.394	-6.28
374.609	40.61
374.824	-28.95
375.039	46.81
375.254	-4.73
375.469	64.05
375.684	22.98
375.899	56.49
376.114	9.22
376.329	10.77
376.544	34.02
376.759	28.21
376.974	7.86
377.189	30.34
377.404	-12.67
377.619	17.94
377.834	-47.55
378.049	-39.61
378.264	-31.27
378.478	-2.21
378.693	-30.11
378.908	24.14
379.123	5.15
379.338	74.12
379.553	38.28
379.767	18.33
379.982	31.89
380.197	38.47
380.412	13.87
380.626	14.45
380.841	108.03
381.056	9.61
381.271	62.11
381.485	-14.22
381.7	-20.23
381.915	13.48
382.129	1.08
382.344	18.71
382.559	12.13
382.773	36.34
382.988	-35.15
383.202	24.14
383.417	-11.71
383.632	105.9
383.846	52.81
384.061	33.44
384.275	-17.52
384.49	33.83
384.704	23.75
384.919	39.06
385.133	-8.99
385.348	46.22
385.562	6.51
385.777	26.85
385.991	25.3
386.206	-2.02
386.42	1.66
386.634	36.73
386.849	34.79
387.063	33.63
387.277	-15.97
387.492	-18.1
387.706	-8.41
387.92	-20.81
388.135	9.41
388.349	34.6
388.563	28.4
388.778	16.97
388.992	29.37
389.206	52.42
389.42	90.4
389.635	18.33
389.849	37.89
390.063	51.26
390.277	17.94
390.491	79.74
390.706	17.16
390.92	44.67
391.134	18.71
391.348	60.37
391.562	-37.47
391.776	6.12
391.99	-6.86
392.205	54.17
392.419	-5.89
392.633	16.19
392.847	65.6
393.061	-21.59
393.275	61.34
393.489	15.03
393.703	51.84
393.917	71.02
394.131	-20.23
394.345	73.16
394.559	64.24
394.773	13.68
394.986	38.09
395.2	18.33
395.414	42.74
395.628	0.89
395.842	20.84
396.056	4.57
396.27	-39.02
396.484	30.92
396.697	16.19
396.911	66.18
397.125	42.74
397.339	68.51
397.553	57.66
397.766	90.98
397.98	61.14
398.194	63.08
398.408	16.97
398.621	16.78
398.835	60.17
399.049	26.08
399.262	76.64
399.476	53.01
399.69	54.17
399.903	96.79
400.117	2.83
400.331	60.95
400.544	11.93
400.758	131.28
400.971	30.34
401.185	50.1
401.398	-3.37
401.612	70.44
401.826	30.53
402.039	57.07
402.253	-9.57
402.466	45.26
402.68	0.5
402.893	36.15
403.106	40.41
403.32	11.16
403.533	62.31
403.747	21.62
403.96	34.79
404.174	69.67
404.387	-10.54
404.6	24.91
404.814	71.99
405.027	17.74
405.24	59.01
405.454	6.89
405.667	86.52
405.88	-38.44
406.094	49.52
406.307	75.87
406.52	34.02
406.733	-15.77
406.947	-12.09
407.16	97.76
407.373	76.45
407.586	3.99
407.799	10.77
408.012	61.92
408.226	25.88
408.439	79.74
408.652	0.11
408.865	57.46
409.078	57.85
409.291	64.63
409.504	-13.84
409.717	34.99
409.93	29.95
410.143	60.95
410.357	-5.12
410.57	4.96
410.783	33.05
410.996	38.28
411.209	38.47
411.421	87.49
411.634	33.44
411.847	25.11
412.06	36.54
412.273	47.58
412.486	39.44
412.699	137.48
412.912	52.23
413.125	72.96
413.338	55.72
413.55	68.12
413.763	58.04
413.976	71.22
414.189	13.68
414.402	12.51
414.615	96.79
414.827	3.21
415.04	85.56
415.253	60.37
415.466	63.27
415.678	109.77
415.891	47.58
416.104	54.17
416.316	63.86
416.529	34.02
416.742	66.96
416.954	76.64
417.167	54.36
417.38	32.47
417.592	104.35
417.805	13.48
418.017	2.83
418.23	55.91
418.442	45.64
418.655	46.22
418.868	46.42
419.08	106.48
419.293	93.89
419.505	67.15
419.718	72.38
419.93	65.21
420.142	29.56
420.355	108.03
420.567	90.79
420.78	108.81
420.992	39.83
421.205	107.84
421.417	11.74
421.629	39.25
421.842	25.88
422.054	-17.71
422.266	68.12
422.479	84.78
422.691	36.34
422.903	90.01
423.115	41.96
423.328	52.04
423.54	59.98
423.752	41.19
423.964	56.69
424.177	67.34
424.389	53.2
424.601	191.15
424.813	76.45
425.025	83.81
425.238	109.39
425.45	58.04
425.662	47.77
425.874	343.05
426.086	75.48
426.298	69.28
426.51	73.16
426.722	65.6
426.934	34.02
427.146	101.64
427.358	13.09
427.57	115.78
427.782	45.64
427.994	70.06
428.206	63.47
428.418	18.71
428.63	85.75
428.842	106.29
429.054	53.2
429.266	100.09
429.478	40.22
429.69	74.51
429.902	29.95
430.114	107.64
430.325	60.56
430.537	53.97
430.749	67.15
430.961	24.33
431.173	106.09
431.384	96.41
431.596	17.94
431.808	49.91
432.02	87.49
432.231	127.21
432.443	126.63
432.655	88.07
432.867	45.45
433.078	94.47
433.29	157.63
433.502	102.61
433.713	103.96
433.925	95.44
434.136	122.76
434.348	44.67
434.56	26.85
434.771	168.29
434.983	49.71
435.194	72.96
435.406	86.33
435.617	135.15
435.829	154.53
436.04	113.46
436.252	146.78
436.463	158.21
436.675	120.62
436.886	96.6
437.098	105.9
437.309	161.12
437.521	93.89
437.732	127.99
437.943	106.48
438.155	113.46
438.366	66.18
438.578	172.35
438.789	125.66
439	130.7
439.211	103.57
439.423	153.37
439.634	117.14
439.845	142.71
440.057	157.24
440.268	171.19
440.479	77.42
440.69	138.06
440.902	97.37
441.113	133.22
441.324	131.28
441.535	144.07
441.746	184.56
441.957	96.02
442.168	95.05
442.38	150.46
442.591	147.75
442.802	92.53
443.013	100.28
443.224	127.6
443.435	127.79
443.646	129.34
443.857	116.17
444.068	105.32
444.279	103.57
444.49	209.36
444.701	161.31
444.912	265.74
445.123	161.89
445.334	153.37
445.545	157.24
445.756	127.6
445.967	95.63
446.178	154.14
446.388	184.75
446.599	180.3
446.81	169.25
447.021	141.94
447.232	190.57
447.443	222.34
447.653	121.21
447.864	182.24
448.075	167.12
448.286	189.99
448.496	183.98
448.707	193.86
448.918	139.42
449.129	264.19
449.339	138.25
449.55	192.5
449.761	171.19
449.971	209.94
450.182	166.74
450.393	190.95
450.603	153.56
450.814	212.07
451.024	187.47
451.235	202.97
451.446	220.98
451.656	244.43
451.867	189.4
452.077	215.56
452.288	232.03
452.498	246.37
452.709	165.77
452.919	211.1
453.13	158.79
453.34	235.32
453.55	124.69
453.761	189.6
453.971	192.89
454.182	225.63
454.392	229.9
454.602	252.76
454.813	195.6
455.023	237.65
455.233	178.17
455.444	210.52
455.654	138.84
455.864	200.64
456.075	194.64
456.285	174.49
456.495	205.49
456.705	201.22
456.916	258.57
457.126	233
457.336	195.6
457.546	152.01
457.756	177.59
457.967	225.83
458.177	214.4
458.387	234.74
458.597	159.95
458.807	180.1
459.017	195.8
459.227	182.82
459.437	191.73
459.647	247.72
459.857	228.93
460.068	158.02
460.278	260.9
460.488	224.86
460.698	286.47
460.908	201.61
461.117	162.28
461.327	178.75
461.537	219.82
461.747	214.01
461.957	223.5
462.167	333.75
462.377	260.9
462.587	237.65
462.797	240.75
463.007	245.98
463.216	234.16
463.426	255.67
463.636	286.67
463.846	178.75
464.056	216.72
464.265	279.11
464.475	193.09
464.685	240.36
464.895	254.7
465.104	237.45
465.314	273.1
465.524	220.6
465.733	167.7
465.943	294.61
466.153	279.11
466.362	293.25
466.572	243.65
466.782	239.58
466.991	233.77
467.201	314.95
467.41	191.92
467.62	264.97
467.829	217.88
468.039	254.89
468.249	240.36
468.458	245.01
468.668	263.8
468.877	249.47
469.086	291.12
469.296	290.73
469.505	229.51
469.715	318.44
469.924	230.09
470.134	292.67
470.343	303.52
470.552	228.15
470.762	266.32
470.971	219.43
471.18	302.16
471.39	277.56
471.599	233.58
471.808	280.27
472.018	234.93
472.227	303.33
472.436	276.98
472.645	274.27
472.855	261.48
473.064	315.53
473.273	277.56
473.482	301
473.691	304.3
473.901	288.99
474.11	295.97
474.319	380.44
474.528	278.14
474.737	360.1
474.946	312.24
475.155	307.78
475.364	350.41
475.573	302.36
475.783	304.3
475.992	327.93
476.201	368.43
476.41	294.8
476.619	251.98
476.828	311.27
477.037	292.48
477.245	314.95
477.454	343.43
477.663	300.23
477.872	303.33
478.081	377.15
478.29	281.82
478.499	383.15
478.708	351.57
478.917	387.03
479.125	329.87
479.334	329.29
479.543	323.28
479.752	331.61
479.961	345.76
480.169	370.36
480.378	334.13
480.587	475.18
480.796	363.39
481.004	369.59
481.213	395.36
481.422	376.95
481.63	342.66
481.839	388.58
482.048	428.29
482.256	387.61
482.465	371.72
482.674	388.38
482.882	409.89
483.091	458.52
483.299	402.33
483.508	435.46
483.716	397.49
483.925	413.76
484.134	373.46
484.342	384.31
484.551	425
484.759	398.65
484.967	437.4
485.176	427.13
485.384	421.32
485.593	424.23
485.801	421.71
486.01	404.27
486.218	388.19
486.426	368.81
486.635	374.24
486.843	383.35
487.051	373.85
487.26	373.66
487.468	419.19
487.676	414.34
487.885	400.78
488.093	408.53
488.301	401.75
488.509	432.75
488.717	460.07
488.926	437.59
489.134	418.61
489.342	451.93
489.55	411.24
489.758	437.79
489.967	403.3
490.175	510.06
490.383	426.36
490.591	510.06
490.799	414.34
491.007	483.51
491.215	445.93
491.423	445.15
491.631	448.44
491.839	476.15
492.047	496.69
492.255	440.89
492.463	417.06
492.671	451.35
492.879	474.21
493.087	479.64
493.295	486.81
493.503	488.55
493.711	494.75
493.919	482.54
494.127	526.72
494.334	503.66
494.542	474.21
494.75	511.22
494.958	493.59
495.166	508.7
495.374	482.93
495.581	502.89
495.789	478.47
495.997	568.37
496.205	482.74
496.412	499.98
496.62	498.43
496.828	510.64
497.035	471.89
497.243	529.82
497.451	525.17
497.658	537.37
497.866	513.74
498.074	563.92
498.281	512.38
498.489	599.18
498.696	534.66
498.904	525.94
499.112	524.59
499.319	583.68
499.527	511.61
499.734	582.52
499.942	509.28
500.149	513.16
500.357	506.96
500.564	514.12
500.771	524.01
500.979	499.01
501.186	498.24
501.394	543.38
501.601	550.94
501.808	571.28
502.016	512.96
502.223	529.82
502.43	528.46
502.638	528.27
502.845	495.91
503.052	592.79
503.26	528.46
503.467	591.43
503.674	550.55
503.881	564.5
504.089	635.22
504.296	594.34
504.503	551.91
504.71	535.24
504.917	539.89
505.125	554.42
505.332	582.9
505.539	580
505.746	612.74
505.953	564.69
506.16	580.19
506.367	629.21
506.574	629.21
506.781	658.27
506.988	555.97
507.195	624.56
507.402	620.3
507.609	617.39
507.816	556.75
508.023	571.86
508.23	563.53
508.437	574.38
508.644	613.52
508.851	641.03
509.058	642.77
509.265	612.35
509.472	660.6
509.679	754.76
509.885	592.98
510.092	636.57
510.299	663.31
510.506	613.13
510.713	643.16
510.92	622.24
511.126	642.77
511.333	671.83
511.54	638.32
511.746	708.07
511.953	684.04
512.16	693.53
512.367	669.32
512.573	644.13
512.78	668.54
512.987	640.84
513.193	670.67
513.4	576.7
513.606	633.47
513.813	691.79
514.02	640.45
514.226	751.85
514.433	730.54
514.639	653.82
514.846	667.77
515.052	651.1
515.259	690.24
515.465	666.22
515.672	668.35
515.878	763.86
516.085	687.72
516.291	720.66
516.497	667.57
516.704	658.27
516.91	632.89
517.117	625.53
517.323	586.2
517.529	644.32
517.736	622.24
517.942	669.32
518.148	665.83
518.354	667.18
518.561	651.3
518.767	662.53
518.973	711.94
519.179	705.93
519.386	657.3
519.592	660.79
519.798	661.95
520.004	742.16
520.21	678.42
520.417	763.09
520.623	720.66
520.829	792.54
521.035	758.63
521.241	747.59
521.447	798.16
521.653	877.98
521.859	752.24
522.065	768.71
522.271	865.19
522.477	825.28
522.683	837.29
522.889	797.96
523.095	772.2
523.301	781.88
523.507	780.72
523.713	826.64
523.919	778.4
524.125	840.98
524.331	771.42
524.537	862.29
524.742	827.61
524.948	852.21
525.154	854.73
525.36	939.59
525.566	870.62
525.772	906.27
525.977	814.05
526.183	877.4
526.389	893.29
526.595	821.99
526.8	837.88
527.006	798.55
527.212	764.25
527.417	755.92
527.623	739.45
527.829	825.48
528.034	848.92
528.24	832.64
528.446	821.21
528.651	875.27
528.857	864.81
529.062	942.31
529.268	847.76
529.473	888.44
529.679	902.01
529.884	966.14
530.09	974.47
530.295	968.85
530.501	928.16
530.706	922.54
530.912	881.08
531.117	902.39
531.323	950.25
531.528	971.76
531.733	914.6
531.939	895.81
532.144	970.59
532.35	916.15
532.555	976.99
532.76	959.36
532.966	968.07
533.171	968.85
533.376	939.4
533.581	888.44
533.787	936.3
533.992	944.44
534.197	1004.11
534.402	914.41
534.607	946.37
534.813	1073.28
535.018	951.02
535.223	948.31
535.428	940.37
535.633	998.88
535.838	1001.98
536.043	986.67
536.249	1058.55
536.454	985.71
536.659	1000.62
536.864	964.2
537.069	977.57
537.274	982.41
537.479	1004.5
537.684	999.85
537.889	948.89
538.094	1064.75
538.299	1002.17
538.504	1023.49
538.708	985.32
538.913	1032.98
539.118	1014.96
539.323	1039.57
539.528	982.99
539.733	980.86
539.938	1044.02
540.142	1026.78
540.347	1003.92
540.552	1010.5
540.757	1007.99
540.962	1020
541.166	1015.74
541.371	958.58
541.576	984.35
541.781	894.45
541.985	1016.51
542.19	993.84
542.395	1084.9
542.599	1116.68
542.804	1083.16
543.008	1082.19
543.213	1015.74
543.418	993.84
543.622	1058.75
543.827	1017.29
544.031	1064.56
544.236	1098.27
544.44	1025.62
544.645	1160.66
544.849	1033.75
545.054	1070.18
545.258	1109.7
545.463	1134.89
545.667	1040.73
545.872	1076.77
546.076	1086.65
546.281	1082.77
546.485	1071.73
546.689	1085.29
546.894	1092.27
547.098	1066.69
547.302	1039.95
547.507	1056.42
547.711	1092.27
547.915	1136.05
548.119	1037.24
548.324	1013.8
548.528	1102.34
548.732	1061.46
548.936	1103.89
549.141	1089.75
549.345	1036.47
549.549	1063.4
549.753	1077.15
549.957	1140.9
550.161	1125.4
550.366	1094.4
550.57	1061.65
550.774	1084.9
550.978	1090.91
551.182	1110.09
551.386	1120.17
551.59	1043.64
551.794	1082
551.998	1091.1
552.202	1076.57
552.406	1047.12
552.61	1086.45
552.814	1094.98
553.018	1164.92
553.222	1069.79
553.426	1076.38
553.63	1162.02
553.833	1081.03
554.037	1025.62
554.241	1092.65
554.445	1082.58
554.649	1062.62
554.853	1050.8
555.056	1133.34
555.26	1105.44
555.464	1089.75
555.668	1098.27
555.871	1131.98
556.075	1125.4
556.279	1063.2
556.483	1032.01
556.686	1098.66
556.89	1071.15
557.094	1116.1
557.297	1000.43
557.501	1141.67
557.704	1010.7
557.908	1095.17
558.112	1038.4
558.315	1152.13
558.519	1101.37
558.722	1064.56
558.926	1073.09
559.129	1035.69
559.333	981.25
559.536	1046.35
559.74	999.65
559.943	1036.85
560.147	967.88
560.35	1058.55
560.553	1039.37
560.757	1003.53
560.96	1097.11
561.164	966.14
561.367	1119.39
561.57	1039.76
561.774	1064.75
561.977	996.75
562.18	1009.54
562.384	1111.25
562.587	1032.59
562.79	1011.47
562.993	1030.07
563.197	1070.95
563.4	1093.23
563.603	1100.4
563.806	1148.26
564.009	994.04
564.212	1069.99
564.416	986.87
564.619	1055.07
564.822	1005.66
565.025	1059.33
565.228	988.22
565.431	1059.33
565.634	968.46
565.837	964.59
566.04	981.64
566.243	1002.75
566.446	912.08
566.649	987.06
566.852	942.5
567.055	976.79
567.258	1003.72
567.461	1028.72
567.664	1033.95
567.867	933.59
568.07	1017.87
568.273	977.96
568.475	1033.56
568.678	964.01
568.881	975.24
569.084	1012.05
569.287	928.55
569.489	941.34
569.692	962.46
569.895	971.76
570.098	920.99
570.3	930.87
570.503	881.86
570.706	893.48
570.909	913.63
571.111	877.01
571.314	871.39
571.516	921.19
571.719	921.96
571.922	882.24
572.124	882.63
572.327	863.06
572.529	837.88
572.732	845.04
572.935	897.16
573.137	962.26
573.34	873.14
573.542	948.89
573.745	910.14
573.947	916.34
574.15	869.65
574.352	860.54
574.554	958.19
574.757	876.43
574.959	894.45
575.162	858.8
575.364	848.92
575.566	972.53
575.769	869.26
575.971	873.72
576.173	784.01
576.376	852.6
576.578	916.73
576.78	927.39
576.982	809.78
577.185	859.96
577.387	837.88
577.589	781.69
577.791	842.72
577.993	884.18
578.196	857.83
578.398	879.53
578.6	868.29
578.802	805.71
579.004	811.14
579.206	809.01
579.408	853.57
579.61	845.82
579.812	848.34
580.014	821.41
580.216	816.18
580.418	835.55
580.62	778.78
580.822	782.08
581.024	822.76
581.226	868.88
581.428	811.72
581.63	929.13
581.832	803.78
582.034	863.26
582.236	850.47
582.438	860.16
582.64	908.59
582.841	911.5
583.043	943.66
583.245	880.69
583.447	887.28
583.649	841.75
583.85	860.54
584.052	909.76
584.254	824.12
584.456	902.98
584.657	803.97
584.859	844.85
585.061	856.86
585.262	830.9
585.464	806.49
585.666	874.88
585.867	850.08
586.069	873.72
586.27	870.43
586.472	848.73
586.674	839.81
586.875	840.39
587.077	818.89
587.278	847.37
587.48	825.28
587.681	944.05
587.883	858.22
588.084	795.25
588.285	840.59
588.487	792.93
588.688	839.62
588.89	767.16
589.091	741.39
589.292	774.52
589.494	739.45
589.695	766.77
589.896	663.89
590.098	700.12
590.299	774.52
590.5	735.77
590.702	732.67
590.903	729.57
591.104	792.73
591.305	747.01
591.507	843.3
591.708	794.28
591.909	755.73
592.11	799.9
592.311	798.35
592.512	771.81
592.714	714.65
592.915	740.03
593.116	763.28
593.317	781.11
593.518	756.89
593.719	759.6
593.92	788.47
594.121	816.76
594.322	771.81
594.523	786.53
594.724	754.18
594.925	761.73
595.126	812.3
595.327	813.08
595.528	799.9
595.729	780.91
595.929	786.15
596.13	762.31
596.331	768.32
596.532	788.28
596.733	843.88
596.934	802.03
597.135	799.9
597.335	804.36
597.536	755.73
597.737	786.53
597.938	779.95
598.138	807.46
598.339	780.14
598.54	783.43
598.74	812.88
598.941	789.83
599.142	810.95
599.342	768.51
599.543	759.02
599.744	758.44
599.944	773.75
600.145	773.55
600.345	778.4
600.546	844.08
600.746	814.82
600.947	872.17
601.147	771.81
601.348	840.98
601.548	767.35
601.749	766.19
601.949	735.38
602.15	731.51
602.35	782.85
602.551	832.64
602.751	735.38
602.951	757.66
603.152	721.63
603.352	807.26
603.552	804.16
603.753	788.47
603.953	793.51
604.153	762.9
604.354	752.05
604.554	766.77
604.754	781.11
604.954	729.96
605.155	790.02
605.355	743.71
605.555	799.32
605.755	817.15
605.955	809.01
606.155	798.16
606.356	752.05
606.556	813.66
606.756	784.01
606.956	709.62
607.156	803.78
607.356	717.75
607.556	785.37
607.756	790.41
607.956	820.05
608.156	770.26
608.356	749.72
608.556	800.1
608.756	752.24
608.956	722.4
609.156	746.04
609.356	739.45
609.556	727.44
609.755	754.37
609.955	701.09
610.155	730.93
610.355	776.46
610.555	719.3
610.755	744.1
610.954	699.93
611.154	739.65
611.354	774.13
611.554	716.01
611.753	728.6
611.953	685.01
612.153	764.06
612.352	744.88
612.552	711.55
612.752	655.37
612.951	707.48
613.151	727.63
613.351	710.97
613.55	736.55
613.75	743.33
613.949	720.85
614.149	764.06
614.348	690.63
614.548	703.8
614.747	656.92
614.947	699.15
615.146	666.99
615.346	746.62
615.545	699.73
615.745	726.08
615.944	755.53
616.144	693.15
616.343	732.87
616.542	667.38
616.742	692.18
616.941	671.45
617.14	631.15
617.34	670.67
617.539	700.9
617.738	673
617.938	733.64
618.137	675.32
618.336	635.8
618.535	687.53
618.734	684.43
618.934	700.32
619.133	686.56
619.332	701.09
619.531	645.68
619.73	663.7
619.929	728.8
620.128	701.67
620.328	705.35
620.527	662.73
620.726	665.25
620.925	681.13
621.124	673.38
621.323	683.46
621.522	650.91
621.721	629.21
621.92	634.83
622.119	687.14
622.318	659.05
622.517	655.75
622.715	665.83
622.914	608.48
623.113	661.76
623.312	601.31
623.511	678.81
623.71	656.14
623.909	635.22
624.107	685.2
624.306	609.06
624.505	607.9
624.704	638.9
624.902	622.62
625.101	679.78
625.3	633.09
625.499	631.92
625.697	650.72
625.896	580.58
626.095	663.89
626.293	603.25
626.492	612.16
626.69	614.68
626.889	588.72
627.088	668.93
627.286	585.81
627.485	598.6
627.683	616.42
627.882	648.97
628.08	559.46
628.279	606.35
628.477	637.35
628.676	598.6
628.874	628.82
629.073	610.61
629.271	532.53
629.469	652.07
629.668	621.27
629.866	592.2
630.065	572.83
630.263	629.6
630.461	576.9
630.66	602.86
630.858	651.3
631.056	670.09
631.254	633.47
631.453	597.44
631.651	645.1
631.849	615.65
632.047	623.79
632.245	632.89
632.444	629.02
632.642	642.58
632.84	613.9
633.038	582.9
633.236	568.57
633.434	559.27
633.632	563.34
633.83	570.89
634.028	630.37
634.227	623.2
634.425	685.4
634.623	586.97
634.821	593.17
635.019	632.7
635.216	593.37
635.414	645.87
635.612	623.98
635.81	592.98
636.008	676.87
636.206	602.28
636.404	627.85
636.602	597.44
636.8	581.16
636.997	635.02
637.195	649.17
637.393	594.14
637.591	633.67
637.789	613.13
637.986	597.82
638.184	586.78
638.382	606.35
638.58	629.21
638.777	678.81
638.975	590.65
639.173	624.56
639.37	613.13
639.568	609.84
639.765	622.04
639.963	581.55
640.161	672.03
640.358	604.99
640.556	566.24
640.753	567.4
640.951	557.72
641.148	614.49
641.346	569.92
641.543	578.45
641.741	629.99
641.938	566.05
642.136	541.83
642.333	554.42
642.531	637.54
642.728	647.81
642.925	574.77
643.123	576.12
643.32	611.77
643.517	586.39
643.715	617.59
643.912	549
644.109	590.85
644.306	574.96
644.504	539.7
644.701	589.1
644.898	609.06
645.095	539.51
645.293	561.59
645.49	568.76
645.687	575.74
645.884	605.57
646.081	510.06
646.278	548.81
646.475	540.47
646.672	525.94
646.87	593.56
647.067	546.29
647.264	562.56
647.461	515.67
647.658	493.01
647.855	555.39
648.052	561.59
648.249	446.12
648.446	559.46
648.642	513.16
648.839	508.51
649.036	496.3
649.233	495.72
649.43	492.04
649.627	477.12
649.824	525.56
650.021	509.86
650.217	501.72
650.414	508.7
650.611	541.25
650.808	542.61
651.004	527.88
651.201	566.05
651.398	586
651.595	536.6
651.791	523.62
651.988	556.75
652.185	533.11
652.381	524.2
652.578	442.24
652.775	508.31
652.971	510.44
653.168	499.98
653.364	530.59
653.561	448.06
653.757	518.77
653.954	501.34
654.15	488.74
654.347	555.01
654.543	513.74
654.74	474.99
654.936	474.41
655.133	499.4
655.329	528.85
655.525	514.71
655.722	531.37
655.918	480.8
656.115	529.62
656.311	450.96
656.507	416.67
656.704	409.11
656.9	453.68
657.096	437.59
657.292	430.81
657.489	484.48
657.685	471.5
657.881	455.03
658.077	466.46
658.273	473.82
658.47	544.16
658.666	502.11
658.862	492.62
659.058	463.75
659.254	520.91
659.45	479.06
659.646	522.07
659.842	486.42
660.038	521.1
660.234	462.39
660.43	495.52
660.626	535.82
660.822	495.52
661.018	519.74
661.214	515.48
661.41	444.57
661.606	504.24
661.802	527.69
661.998	460.65
662.194	438.18
662.39	473.44
662.586	511.99
662.781	506.18
662.977	549.19
663.173	508.31
663.369	495.14
663.564	511.41
663.76	526.72
663.956	468.01
664.152	542.99
664.347	415.7
664.543	470.14
664.739	465.3
664.934	418.22
665.13	401.75
665.326	524.2
665.521	476.54
665.717	440.5
665.912	436.43
666.108	392.45
666.304	449.03
666.499	483.12
666.695	401.17
666.89	456
667.086	488.16
667.281	473.44
667.477	533.89
667.672	457.55
667.867	487.39
668.063	466.85
668.258	451.54
668.454	469.18
668.649	521.1
668.844	483.51
669.04	507.92
669.235	455.23
669.43	423.06
669.626	448.83
669.821	431.2
670.016	403.11
670.211	444.38
670.407	414.34
670.602	452.71
670.797	450.19
670.992	480.02
671.187	432.17
671.382	504.24
671.578	466.85
671.773	454.64
671.968	425.19
672.163	460.84
672.358	472.08
672.553	428.88
672.748	406.21
672.943	503.47
673.138	442.05
673.333	479.06
673.528	401.94
673.723	455.03
673.918	416.48
674.113	396.13
674.308	522.26
674.503	470.73
674.698	471.5
674.892	451.54
675.087	492.62
675.282	457.94
675.477	445.73
675.672	471.89
675.867	418.22
676.061	379.47
676.256	413.96
676.451	398.26
676.646	417.06
676.84	416.86
677.035	384.12
677.23	412.02
677.424	462.78
677.619	458.13
677.814	454.64
678.008	469.95
678.203	381.6
678.397	375.6
678.592	419.96
678.787	494.17
678.981	413.38
679.176	430.43
679.37	421.13
679.565	390.71
679.759	410.47
679.954	429.26
680.148	476.54
680.342	481.77
680.537	446.31
680.731	424.61
680.926	442.63
681.12	494.75
681.314	433.53
681.509	413.57
681.703	413.38
681.897	443.41
682.092	426.74
682.286	420.74
682.48	497.85
682.674	451.93
682.869	434.11
683.063	421.9
683.257	490.87
683.451	418.99
683.645	449.03
683.839	435.08
684.034	433.53
684.228	465.88
684.422	391.68
684.616	414.73
684.81	460.84
685.004	396.91
685.198	424.42
685.392	446.51
685.586	407.76
685.78	434.49
685.974	434.88
686.168	441.66
686.362	478.28
686.556	391.87
686.75	385.86
686.944	410.86
687.138	419.19
687.331	363.97
687.525	385.86
687.719	309.33
687.913	369.78
688.107	374.82
688.301	345.56
688.494	371.14
688.688	335.3
688.882	313.4
689.076	293.83
689.269	369.98
689.463	421.32
689.657	338.01
689.85	354.67
690.044	356.22
690.238	377.53
690.431	356.41
690.625	352.73
690.818	387.99
691.012	375.21
691.205	397.68
691.399	342.85
691.593	421.13
691.786	478.09
691.98	450.19
692.173	482.54
692.366	431.2
692.56	436.24
692.753	470.34
692.947	391.48
693.14	506.18
693.333	485.06
693.527	407.56
693.72	464.53
693.914	432.56
694.107	430.81
694.3	459.29
694.493	420.93
694.687	501.72
694.88	447.67
695.073	507.34
695.266	493.2
695.46	495.33
695.653	518
695.846	511.41
696.039	425.78
696.232	458.13
696.425	515.67
696.618	525.94
696.812	515.09
697.005	569.92
697.198	627.66
697.391	557.14
697.584	567.79
697.777	635.02
697.97	586.2
698.163	624.95
698.356	583.29
698.549	660.21
698.742	620.1
698.935	613.9
699.127	624.37
699.32	579.03
699.513	586.39
699.706	646.45
699.899	612.16
700.092	608.48
700.285	645.1
700.477	590.85
700.67	635.99
700.863	664.08
701.056	736.74
701.248	691.02
701.441	693.92
701.634	642.77
701.826	751.27
702.019	651.88
702.212	699.54
702.404	657.88
702.597	649.36
702.79	682.49
702.982	692.76
703.175	732.09
703.367	728.8
703.56	724.73
703.752	814.24
703.945	754.18
704.137	775.3
704.33	800.68
704.522	790.41
704.715	783.24
704.907	813.08
705.1	823.93
705.292	836.13
705.484	813.46
705.677	875.46
705.869	840.78
706.061	864.81
706.254	889.22
706.446	872.94
706.638	870.81
706.831	934.94
707.023	894.45
707.215	987.45
707.407	943.47
707.599	946.18
707.792	960.13
707.984	945.99
708.176	962.07
708.368	935.33
708.56	995.2
708.752	954.71
708.944	967.11
709.136	998.69
709.329	983.38
709.521	1087.62
709.713	1032.4
709.905	1038.6
710.097	1082.39
710.289	1021.74
710.481	1028.33
710.672	1050.61
710.864	1066.3
711.056	1120.36
711.248	1127.14
711.44	1091.3
711.632	1073.47
711.824	1077.15
712.016	1165.89
712.207	1161.24
712.399	1131.21
712.591	1201.73
712.783	1152.13
712.975	1185.46
713.166	1155.23
713.358	1151.36
713.55	1217.23
713.741	1202.12
713.933	1232.73
714.125	1225.18
714.316	1166.28
714.508	1262.76
714.7	1262.38
714.891	1229.63
715.083	1333.09
715.274	1240.68
715.466	1298.03
715.657	1322.44
715.849	1193.98
716.04	1299.77
716.232	1226.34
716.423	1317.4
716.615	1235.64
716.806	1206.19
716.998	1191.08
717.189	1141.28
717.381	1094.4
717.572	1083.55
717.763	1111.83
717.955	1111.06
718.146	1069.6
718.337	1042.67
718.528	981.83
718.72	978.73
718.911	1014.19
719.102	955.87
719.293	1078.7
719.485	1029.3
719.676	1018.64
719.867	998.1
720.058	982.99
720.249	998.1
720.44	1027.36
720.632	1046.93
720.823	1027.94
721.014	1166.47
721.205	1137.41
721.396	1191.46
721.587	1265.09
721.778	1255.01
721.969	1285.82
722.16	1357.89
722.351	1260.24
722.542	1436.75
722.733	1425.12
722.924	1327.09
723.115	1406.52
723.305	1414.08
723.496	1437.33
723.687	1358.28
723.878	1316.04
724.069	1326.89
724.26	1360.02
724.45	1269.93
724.641	1306.55
724.832	1310.62
725.023	1338.91
725.213	1286.98
725.404	1341.43
725.595	1276.91
725.785	1279.04
725.976	1324.38
726.167	1335.23
726.357	1311.98
726.548	1437.14
726.739	1360.02
726.929	1399.16
727.12	1431.71
727.31	1445.85
727.501	1402.26
727.691	1441.4
727.882	1418.15
728.072	1479.95
728.263	1426.87
728.453	1452.25
728.644	1491.58
728.834	1445.27
729.024	1450.7
729.215	1445.08
729.405	1470.85
729.596	1525.48
729.786	1519.48
729.976	1494.87
730.167	1537.3
730.357	1499.14
730.547	1529.94
730.737	1547.38
730.928	1591.94
731.118	1601.63
731.308	1564.43
731.498	1558.81
731.688	1647.74
731.879	1643.48
732.069	1655.3
732.259	1696.76
732.449	1687.85
732.639	1783.36
732.829	1777.16
733.019	1779.68
733.209	1797.7
733.399	1791.89
733.589	1858.15
733.779	1871.71
733.969	1842.65
734.159	1906.97
734.349	1971.49
734.539	1985.05
734.729	1976.92
734.919	2025.16
735.109	2048.99
735.299	1977.5
735.488	2014.7
735.678	2033.88
735.868	2030.2
736.058	2040.27
736.248	2002.3
736.437	1982.34
736.627	1965.29
736.817	2080.38
737.007	2026.52
737.196	2051.12
737.386	2032.52
737.576	2032.13
737.765	2121.45
737.955	2041.43
738.144	2144.51
738.334	2128.62
738.524	2066.81
738.713	2083.09
738.903	2125.71
739.092	2124.94
739.282	2124.75
739.471	2136.95
739.661	2132.88
739.85	2151.87
740.04	2153.03
740.229	2171.24
740.419	2150.13
740.608	2197.01
740.797	2188.88
740.987	2240.41
741.176	2257.66
741.365	2185.39
741.555	2155.16
741.744	2245.06
741.933	2187.33
742.123	2253.01
742.312	2253.39
742.501	2264.05
742.69	2262.5
742.88	2231.5
743.069	2300.47
743.258	2236.73
743.447	2304.35
743.636	2268.89
743.825	2269.47
744.014	2271.99
744.204	2292.34
744.393	2260.37
744.582	2311.32
744.771	2306.29
744.96	2258.62
745.149	2311.52
745.338	2283.42
745.527	2296.02
745.716	2272.38
745.905	2262.89
746.094	2323.92
746.283	2327.99
746.471	2297.37
746.66	2375.84
746.849	2311.32
747.038	2371.77
747.227	2314.62
747.416	2345.42
747.604	2320.82
747.793	2288.85
747.982	2367.9
748.171	2347.36
748.359	2371
748.548	2329.54
748.737	2359.76
748.926	2314.23
749.114	2236.54
749.303	2312.1
749.491	2324.69
749.68	2236.54
749.869	2354.14
750.057	2283.62
750.246	2261.92
750.434	2319.07
750.623	2296.79
750.811	2296.79
751	2333.6
751.188	2279.36
751.377	2323.14
751.565	2275.09
751.754	2270.64
751.942	2267.15
752.131	2332.83
752.319	2269.09
752.507	2212.32
752.696	2279.36
752.884	2335.54
753.072	2270.25
753.261	2295.63
753.449	2289.82
753.637	2277.81
753.825	2352.98
754.014	2310.94
754.202	2316.17
754.39	2322.56
754.578	2329.15
754.766	2294.86
754.955	2252.62
755.143	2369.84
755.331	2301.06
755.519	2266.96
755.707	2309.97
755.895	2305.51
756.083	2306.29
756.271	2224.33
756.459	2251.46
756.647	2284.59
756.835	2252.23
757.023	2253.97
757.211	2254.75
757.399	2210.77
757.587	2183.26
757.775	2166.01
757.963	2209.22
758.151	2233.05
758.339	2145.67
758.526	2139.66
758.714	2225.88
758.902	2111.57
759.09	2080.76
759.278	1936.81
759.465	1782.2
759.653	1565.59
759.841	1451.86
760.028	1205.8
760.216	1094.2
760.404	1052.94
760.591	845.04
760.779	708.84
760.967	639.87
761.154	490.87
761.342	565.85
761.529	553.07
761.717	577.67
761.905	564.3
762.092	600.73
762.28	563.72
762.467	561.79
762.655	484.29
762.842	516.45
763.029	539.89
763.217	579.8
763.404	564.3
763.592	588.72
763.779	505.21
763.966	599.76
764.154	609.45
764.341	674.55
764.528	652.85
764.716	690.24
764.903	739.26
765.09	761.15
765.277	780.91
765.465	940.95
765.652	970.79
765.839	964.97
766.026	1087.42
766.213	1096.33
766.4	1164.92
766.588	1335.23
766.775	1284.85
766.962	1366.03
767.149	1389.47
767.336	1537.11
767.523	1429.77
767.71	1579.54
767.897	1639.02
768.084	1706.06
768.271	1695.6
768.458	1827.15
768.645	1785.3
768.832	1774.64
769.019	1784.14
769.206	1830.44
769.392	1889.15
769.579	1955.22
769.766	1939.14
769.953	1892.25
770.14	1959.67
770.327	1905.42
770.513	1965.87
770.7	2023.8
770.887	1947.85
771.073	2006.56
771.26	1968.2
771.447	1990.28
771.634	1935.45
771.82	2056.74
772.007	1965.1
772.193	1998.42
772.38	2022.64
772.567	1988.15
772.753	1969.17
772.94	2028.65
773.126	2040.27
773.313	2018.38
773.499	2007.92
773.686	2012.95
773.872	1977.69
774.059	2028.65
774.245	1966.84
774.432	2012.76
774.618	1930.22
774.804	1991.64
774.991	1940.1
775.177	1980.6
775.363	1916.47
775.55	1980.4
775.736	1937
775.922	1960.64
776.109	1972.85
776.295	1947.08
776.481	1939.52
776.667	1992.03
776.853	1916.47
777.04	1904.84
777.226	1940.1
777.412	2010.05
777.598	1917.24
777.784	1931.58
777.97	1911.24
778.156	1950.95
778.342	1915.11
778.528	1927.32
778.715	1865.9
778.901	1899.22
779.087	1907.94
779.272	1897.67
779.458	1876.36
779.644	1903.1
779.83	1881.98
780.016	1977.88
780.202	1894.38
780.388	1896.9
780.574	1809.91
780.76	1831.22
780.946	1887.6
781.131	1887.79
781.317	1867.45
781.503	1875.78
781.689	1855.05
781.874	1943.79
782.06	1832.96
782.246	1866.67
782.432	1839.74
782.617	1838.19
782.803	1898.25
782.989	1756.63
783.174	1826.37
783.36	1792.27
783.545	1827.92
783.731	1805.26
783.916	1735.12
784.102	1826.76
784.288	1773.09
784.473	1796.34
784.659	1775.42
784.844	1848.07
785.029	1761.28
785.215	1744.61
785.4	1708.38
785.586	1802.54
785.771	1753.72
785.956	1786.85
786.142	1761.08
786.327	1732.21
786.512	1723.88
786.698	1722.33
786.883	1692.88
787.068	1734.34
787.254	1729.31
787.439	1684.75
787.624	1733.38
787.809	1675.45
787.994	1716.13
788.18	1754.69
788.365	1650.84
788.55	1689.98
788.735	1699.86
788.92	1706.44
789.105	1666.53
789.29	1729.31
789.475	1645.61
789.66	1682.81
789.845	1623.91
790.03	1612.28
790.215	1688.04
790.4	1700.63
790.585	1713.03
790.77	1634.56
790.955	1547.57
791.14	1627.59
791.325	1696.56
791.51	1555.13
791.695	1611.9
791.879	1627.2
792.064	1570.63
792.249	1714.39
792.434	1618.87
792.618	1632.05
792.803	1611.9
792.988	1590.97
793.173	1658.01
793.357	1667.11
793.542	1586.9
793.727	1622.94
793.911	1647.35
794.096	1639.21
794.281	1625.46
794.465	1684.16
794.65	1602.02
794.834	1619.06
795.019	1696.56
795.203	1636.31
795.388	1648.13
795.572	1662.66
795.757	1652.97
795.941	1659.36
796.126	1609.76
796.31	1592.91
796.494	1626.62
796.679	1609.18
796.863	1598.33
797.048	1654.33
797.232	1638.05
797.416	1624.3
797.601	1623.13
797.785	1706.44
797.969	1701.21
798.153	1619.84
798.338	1657.23
798.522	1639.99
798.706	1647.35
798.89	1687.85
799.074	1717.88
799.258	1687.85
799.443	1689.59
799.627	1647.93
799.811	1695.01
799.995	1635.34
800.179	1602.21
800.363	1662.08
800.547	1663.82
800.731	1676.22
800.915	1608.99
801.099	1612.28
801.283	1609.18
801.467	1645.41
801.651	1577.41
801.835	1691.33
802.019	1646.38
802.202	1666.15
802.386	1641.54
802.57	1616.74
802.754	1611.31
802.938	1615.19
803.121	1602.02
803.305	1692.5
803.489	1668.47
803.673	1646.77
803.856	1675.06
804.04	1626.04
804.224	1680.29
804.407	1652.78
804.591	1616.16
804.775	1594.27
804.958	1666.73
805.142	1728.73
805.326	1647.74
805.509	1657.43
805.693	1689.2
805.876	1664.79
806.06	1655.3
806.243	1660.53
806.427	1702.96
806.61	1706.83
806.794	1698.69
806.977	1678.35
807.16	1679.9
807.344	1650.65
807.527	1690.56
807.71	1640.18
807.894	1694.63
808.077	1722.72
808.26	1649.87
808.444	1628.95
808.627	1687.07
808.81	1603.95
808.993	1596.59
809.177	1596.78
809.36	1582.25
809.543	1631.08
809.726	1536.14
809.909	1564.43
810.092	1561.91
810.276	1552.03
810.459	1590.97
810.642	1574.89
810.825	1528.97
811.008	1545.25
811.191	1461.55
811.374	1482.67
811.557	1497.2
811.74	1577.41
811.923	1423.19
812.106	1450.89
812.289	1394.32
812.472	1429
812.654	1466.78
812.837	1420.47
813.02	1385.21
813.203	1397.42
813.386	1289.31
813.569	1326.51
813.751	1237.96
813.934	1284.27
814.117	1293.76
814.3	1257.15
814.482	1249.98
814.665	1186.81
814.848	1199.99
815.03	1146.32
815.213	1155.82
815.396	1120.17
815.578	1116.87
815.761	1087.81
815.943	1165.12
816.126	1066.3
816.309	1077.54
816.491	996.75
816.674	952.57
816.856	1013.99
817.039	988.61
817.221	1066.89
817.403	1017.09
817.586	1024.45
817.768	1056.62
817.951	969.24
818.133	966.33
818.315	964.01
818.498	1022.9
818.68	1102.92
818.862	1070.18
819.045	1074.44
819.227	1067.66
819.409	1027.36
819.591	1048.29
819.774	1048.48
819.956	992.49
820.138	1077.15
820.32	1062.82
820.502	1092.27
820.684	1128.69
820.866	1160.66
821.048	1193.98
821.231	1166.86
821.413	1171.9
821.595	1131.4
821.777	1180.61
821.959	1169.77
822.141	1237.38
822.323	1112.61
822.505	1063.98
822.686	1063.59
822.868	1018.45
823.05	949.47
823.232	940.17
823.414	869.07
823.596	950.44
823.778	917.12
823.96	947.54
824.141	958.19
824.323	950.25
824.505	1020.97
824.687	1049.84
824.868	1078.7
825.05	1132.95
825.232	1129.47
825.413	1183.13
825.595	1152.33
825.777	1107.38
825.958	1149.23
826.14	1125.59
826.321	1139.15
826.503	1131.21
826.685	1139.54
826.866	1157.17
827.048	1146.52
827.229	1109.7
827.411	1120.55
827.592	1078.7
827.773	1071.34
827.955	1052.35
828.136	1068.82
828.318	1026
828.499	1050.42
828.68	973.31
828.862	1051.19
829.043	1053.32
829.224	1027.55
829.406	1009.34
829.587	1036.66
829.768	986.29
829.949	1053.52
830.131	1035.89
830.312	1074.64
830.493	1012.83
830.674	1059.91
830.855	1041.12
831.036	1015.15
831.218	1093.62
831.399	1112.8
831.58	1052.16
831.761	1037.82
831.942	1042.86
832.123	1044.22
832.304	970.4
832.485	1020.77
832.666	996.17
832.847	1028.91
833.028	1030.65
833.209	1036.66
833.389	1025.81
833.57	985.9
833.751	1027.94
833.932	1066.89
834.113	1049.84
834.294	1035.11
834.475	1057.97
834.655	1074.64
834.836	1069.02
835.017	1047.12
835.198	999.46
835.378	1037.82
835.559	1076.38
835.74	1021.16
835.92	1032.98
836.101	1000.43
836.281	1082.77
836.462	1075.8
836.643	1076.96
836.823	1070.76
837.004	1113.97
837.184	1153.1
837.365	1103.31
837.545	1126.37
837.726	1077.93
837.906	1145.93
838.087	1063.4
838.267	1062.04
838.448	1015.74
838.628	1095.17
838.808	1079.87
838.989	1129.66
839.169	1020.77
839.349	1118.62
839.53	1100.4
839.71	1080.45
839.89	1088.78
840.07	1119.58
840.251	1032.79
840.431	1092.65
840.611	1069.79
840.791	1040.15
840.971	1100.79
841.151	1061.27
841.332	1051.77
841.512	1101.76
841.692	994.81
841.872	1069.99
842.052	1055.84
842.232	1098.27
842.412	1009.15
842.592	1020.77
842.772	1071.15
842.952	1067.27
843.132	1052.16
843.312	1018.06
843.492	1020.97
843.672	1067.27
843.851	1022.32
844.031	1058.55
844.211	1035.5
844.391	1014.19
844.571	1043.83
844.751	1028.14
844.93	1066.89
845.11	1026.59
845.29	1049.06
845.47	1032.2
845.649	1057.78
845.829	1085.87
846.009	997.72
846.188	1040.54
846.368	1026.59
846.547	1031.04
846.727	1070.37
846.907	983.19
847.086	1031.24
847.266	1090.91
847.445	1022.9
847.625	1007.6
847.804	996.36
847.984	1037.05
848.163	988.61
848.343	988.22
848.522	1025.81
848.701	1032.4
848.881	983.57
849.06	987.64
849.239	1025.81
849.419	1002.37
849.598	966.72
849.777	982.41
849.957	969.24
850.136	898.13
850.315	894.45
850.494	915.76
850.674	926.61
850.853	964.97
851.032	923.32
851.211	978.54
851.39	956.64
851.569	899.88
851.748	935.14
851.927	972.53
852.107	945.99
852.286	915.37
852.465	870.81
852.644	939.01
852.823	934.36
853.002	924.48
853.181	960.32
853.359	967.49
853.538	901.43
853.717	973.89
853.896	862.09
854.075	816.95
854.254	832.84
854.433	766.58
854.611	832.26
854.79	786.73
854.969	813.27
855.148	831.68
855.327	802.81
855.505	852.02
855.684	817.73
855.863	826.25
856.041	813.85
856.22	853.38
856.399	800.87
856.577	923.51
856.756	892.13
856.934	977.18
857.113	1002.17
857.291	901.23
857.47	882.63
857.648	880.5
857.827	895.23
858.005	923.51
858.184	834
858.362	976.02
858.541	884.96
858.719	898.33
858.898	898.13
859.076	903.56
859.254	927.97
859.433	878.95
859.611	864.61
859.789	834.58
859.967	934.94
860.146	949.86
860.324	852.02
860.502	858.41
860.68	817.34
860.859	834.78
861.037	837.49
861.215	912.86
861.393	869.26
861.571	830.51
861.749	831.48
861.927	893.87
862.105	848.34
862.283	867.13
862.461	795.06
862.639	811.53
862.817	827.8
862.995	808.81
863.173	840.01
863.351	819.47
863.529	845.43
863.707	861.13
863.885	829.16
864.063	800.29
864.241	814.63
864.418	879.53
864.596	822.76
864.774	761.73
864.952	800.68
865.129	810.95
865.307	786.34
865.485	762.31
865.663	839.04
865.84	771.81
866.018	781.69
866.196	659.63
866.373	725.5
866.551	687.14
866.728	602.86
866.906	711.36
867.084	705.93
867.261	733.06
867.439	795.06
867.616	782.66
867.794	752.24
867.971	760.18
868.149	733.64
868.326	820.44
868.503	797.96
868.681	775.3
868.858	740.03
869.035	695.08
869.213	793.9
869.39	776.65
869.567	844.27
869.745	749.72
869.922	774.71
870.099	778.2
870.276	820.63
870.454	795.64
870.631	805.52
870.808	738.1
870.985	796.61
871.162	835.94
871.339	772.78
871.517	718.92
871.694	715.62
871.871	756.11
872.048	718.33
872.225	709.23
872.402	754.37
872.579	732.28
872.756	755.53
872.933	677.65
873.11	714.65
873.287	751.66
873.463	728.22
873.64	725.89
873.817	752.24
873.994	729.18
874.171	704.58
874.348	758.05
874.524	674.55
874.701	725.12
874.878	693.15
875.055	726.08
875.231	709.81
875.408	740.42
875.585	684.62
875.762	693.73
875.938	696.63
876.115	673.77
876.291	704.38
876.468	669.7
876.645	651.68
876.821	666.22
876.998	703.22
877.174	688.69
877.351	680.36
877.527	649.94
877.704	706.71
877.88	688.88
878.057	652.27
878.233	712.72
878.409	710.78
878.586	715.43
878.762	684.23
878.938	684.04
879.115	602.47
879.291	628.24
879.467	618.94
879.644	652.07
879.82	687.14
879.996	641.03
880.172	628.44
880.349	624.95
880.525	673.19
880.701	637.74
880.877	616.81
881.053	647.81
881.229	640.84
881.405	642.77
881.581	623.01
881.757	652.27
881.933	621.65
882.109	663.31
882.285	634.25
882.461	582.13
882.637	640.06
882.813	603.44
882.989	636.96
883.165	695.86
883.341	627.08
883.517	670.87
883.693	658.08
883.869	641.03
884.044	610.42
884.22	643.94
884.396	702.25
884.572	652.65
884.747	684.43
884.923	665.63
885.099	691.79
885.275	677.45
885.45	629.4
885.626	608.67
885.801	612.16
885.977	626.69
886.153	572.25
886.328	646.84
886.504	647.23
886.679	658.27
886.855	623.01
887.03	653.82
887.206	688.69
887.381	642.39
887.557	667.57
887.732	630.57
887.908	664.67
888.083	678.42
888.258	612.35
888.434	605.38
888.609	628.44
888.784	645.1
888.96	598.4
889.135	586
889.31	596.66
889.485	640.06
889.661	598.21
889.836	629.4
890.011	634.83
890.186	607.9
890.361	612.74
890.537	633.67
890.712	659.43
890.887	640.25
891.062	617.2
891.237	658.85
891.412	613.71
891.587	617.78
891.762	672.22
891.937	677.84
892.112	609.64
892.287	599.57
892.462	594.14
892.637	553.26
892.812	558.88
892.987	552.87
893.161	575.93
893.336	587.75
893.511	592.4
893.686	597.05
893.861	550.94
894.035	559.66
894.21	588.33
894.385	508.12
894.56	558.49
894.734	505.79
894.909	532.72
895.084	527.69
895.258	520.32
895.433	540.86
895.608	504.44
895.782	464.14
895.957	496.11
896.131	495.14
896.306	469.37
896.48	473.05
896.655	475.18
896.829	398.26
897.004	417.64
897.178	404.08
897.353	411.24
897.527	462.59
897.701	432.17
897.876	394
898.05	481.96
898.224	413.76
898.399	470.53
898.573	461.62
898.747	341.3
898.921	394.39
899.096	347.5
899.27	332.2
899.444	342.27
899.618	377.92
899.792	368.04
899.967	363.58
900.141	385.48
900.315	328.13
900.489	359.13
900.663	383.15
900.837	381.41
901.011	337.04
901.185	437.79
901.359	400.78
901.533	375.4
901.707	379.28
901.881	388.77
902.055	332
902.229	357.96
902.403	416.48
902.576	360.48
902.75	373.08
902.924	478.86
903.098	414.15
903.272	439.73
903.446	456
903.619	449.41
903.793	456.58
903.967	409.11
904.14	493.01
904.314	461.04
904.488	459.29
904.661	499.79
904.835	470.53
905.009	546.48
905.182	522.07
905.356	484.48
905.529	467.82
905.703	435.27
905.876	432.56
906.05	418.99
906.223	430.43
906.397	376.18
906.57	357.77
906.744	369.4
906.917	373.46
907.09	398.46
907.264	372.11
907.437	340.33
907.61	312.63
907.784	351.57
907.957	349.83
908.13	326.58
908.304	408.34
908.477	340.91
908.65	357.19
908.823	307.01
908.996	401.75
909.17	332.58
909.343	301.58
909.516	363.58
909.689	314.37
909.862	321.35
910.035	340.91
910.208	308.75
910.381	316.7
910.554	406.01
910.727	325.61
910.9	337.23
911.073	306.62
911.246	384.7
911.419	360.29
911.592	332.58
911.765	295.97
911.938	323.28
912.11	328.9
912.283	326
912.456	368.23
912.629	342.08
912.802	322.12
912.974	287.83
913.147	280.27
913.32	245.98
913.493	264.77
913.665	289.18
913.838	295.97
914.01	263.03
914.183	286.47
914.356	269.42
914.528	321.15
914.701	336.85
914.873	319.21
915.046	288.22
915.218	261.48
915.391	226.02
915.563	244.23
915.736	314.18
915.908	328.51
916.081	287.83
916.253	282.21
916.425	294.61
916.598	288.41
916.77	248.69
916.942	259.15
917.115	197.93
917.287	299.45
917.459	267.48
917.632	255.08
917.804	183.59
917.976	253.92
918.148	261.48
918.32	228.73
918.493	269.81
918.665	314.18
918.837	287.63
919.009	313.79
919.181	317.28
919.353	310.3
919.525	264.38
919.697	252.57
919.869	284.34
920.041	352.93
920.213	396.71
920.385	342.46
920.557	296.35
920.729	309.53
920.901	304.1
921.073	295.38
921.244	280.47
921.416	341.69
921.588	283.37
921.76	281.43
921.932	338.2
922.103	335.49
922.275	316.7
922.447	313.21
922.619	211.3
922.79	256.44
922.962	284.53
923.134	306.04
923.305	258.38
923.477	238.03
923.648	207.42
923.82	252.95
923.991	222.53
924.163	220.98
924.335	243.46
924.506	224.08
924.677	310.88
924.849	235.52
925.02	229.51
925.192	283.37
925.363	245.78
925.535	223.5
925.706	232.61
925.877	301
926.049	232.22
926.22	276.2
926.391	251.02
926.562	286.28
926.734	227.18
926.905	276.59
927.076	204.32
927.247	244.62
927.419	202.97
927.59	232.22
927.761	254.31
927.932	194.64
928.103	227.77
928.274	197.35
928.445	174.87
928.616	199.48
928.787	199.29
928.958	222.92
929.129	187.85
929.3	183.2
929.471	144.26
929.642	118.49
929.813	89.04
929.984	163.83
930.155	91.95
930.326	164.99
930.496	124.69
930.667	64.05
930.838	108.81
931.009	90.01
931.18	86.52
931.35	128.76
931.521	95.44
931.692	57.27
931.863	47.19
932.033	75.29
932.204	104.35
932.374	64.05
932.545	50.87
932.716	115.59
932.886	97.76
933.057	20.07
933.227	59.4
933.398	122.95
933.568	10.19
933.739	0.31
933.909	35.18
934.08	90.79
934.25	-12.67
934.421	8.64
934.591	49.32
934.761	17.36
934.932	-17.32
935.102	14.64
935.272	17.55
935.443	64.24
935.613	20.46
935.783	55.52
935.953	-0.47
936.123	154.92
936.294	-0.27
936.464	22.2
936.634	44.29
936.804	13.87
936.974	-37.47
937.144	55.91
937.314	45.26
937.484	4.18
937.655	20.46
937.825	58.62
937.995	13.87
938.165	48.36
938.334	21.81
938.504	35.96
938.674	-1.82
938.844	23.17
939.014	71.61
939.184	77.03
939.354	89.62
939.524	104.35
939.694	26.08
939.863	27.24
940.033	105.12
940.203	99.51
940.373	106.09
940.542	69.67
940.712	43.51
940.882	71.41
941.051	94.66
941.221	73.93
941.391	129.34
941.56	55.72
941.73	36.54
941.899	162.47
942.069	40.8
942.238	77.61
942.408	51.46
942.577	73.16
942.747	44.29
942.916	2.63
943.086	20.84
943.255	76.26
943.425	69.67
943.594	27.63
943.763	-37.09
943.933	31.69
944.102	-41.93
944.271	11.93
944.441	33.63
944.61	16.19
944.779	40.22
944.948	119.66
945.117	-2.41
945.287	-5.51
945.456	-2.41
945.625	25.49
945.794	38.28
945.963	-0.66
946.132	64.63
946.301	28.59
946.47	59.01
946.639	0.89
946.808	38.86
946.977	42.16
947.146	68.7
947.315	-4.34
947.484	64.24
947.653	29.95
947.822	29.76
947.991	-1.24
948.16	104.74
948.329	73.35
948.498	49.71
948.666	40.8
948.835	70.64
949.004	-5.31
949.173	-11.51
949.341	45.45
949.51	53.59
949.679	88.27
949.847	56.3
950.016	123.72
950.185	78.39
950.353	13.87
950.522	45.64
950.69	78.19
950.859	15.23
951.028	116.94
951.196	78.39
951.365	16.39
951.533	26.46
951.701	64.44
951.87	67.92
952.038	17.74
952.207	51.46
952.375	90.01
952.543	18.33
952.712	45.84
952.88	-9.19
953.048	85.75
953.217	48.16
953.385	6.51
953.553	110.16
953.721	8.25
953.89	45.64
954.058	-22.94
954.226	34.02
954.394	54.56
954.562	5.73
954.73	72.19
954.898	33.63
955.067	43.12
955.235	21.62
955.403	72.19
955.571	111.32
955.739	64.63
955.907	31.31
956.075	8.64
956.243	28.59
956.41	85.56
956.578	-21.2
956.746	-13.06
956.914	21.43
957.082	52.23
957.25	31.11
957.418	11.74
957.585	59.4
957.753	55.72
957.921	15.03
958.089	9.03
958.256	37.31
958.424	45.64
958.592	57.46
958.759	15.42
958.927	51.84
959.095	30.92
959.262	33.05
959.43	59.79
959.597	0.31
959.765	41.96
959.932	3.99
960.1	52.81
960.267	45.45
960.435	67.73
960.602	61.53
960.77	19.68
960.937	-13.06
961.104	34.21
961.272	21.23
961.439	42.16
961.606	71.22
961.774	66.76
961.941	33.24
962.108	52.04
962.275	33.83
962.443	95.24
962.61	45.45
962.777	120.04
962.944	62.69
963.111	89.04
963.278	88.46
963.446	43.51
963.613	39.25
963.78	57.66
963.947	86.14
964.114	66.96
964.281	142.9
964.448	67.34
964.615	56.49
964.782	77.81
964.949	51.26
965.116	94.47
965.282	95.24
965.449	49.91
965.616	15.61
965.783	84.01
965.95	55.52
966.117	-11.9
966.283	60.17
966.45	75.87
966.617	45.84
966.784	83.62
966.95	99.51
967.117	85.17
967.284	16.19
967.45	23.17
967.617	91.95
967.784	78.19
967.95	91.17
968.117	50.29
968.283	117.91
968.45	162.86
968.616	54.17
968.783	95.82
968.949	84.2
969.116	102.61
969.282	51.46
969.449	62.89
969.615	101.83
969.781	42.74
969.948	32.86
970.114	6.89
970.28	83.42
970.447	61.53
970.613	125.66
970.779	66.18
970.945	65.6
971.112	45.84
971.278	72.38
971.444	41.96
971.61	125.85
971.776	48.74
971.942	72.38
972.108	109
972.275	62.11
972.441	67.15
972.607	143.87
972.773	16.78
972.939	93.69
973.105	72.96
973.271	33.05
973.437	56.49
973.602	20.07
973.768	88.85
973.934	64.05
974.1	92.34
974.266	-7.06
974.432	75.87
974.598	38.28
974.763	81.1
974.929	58.62
975.095	132.64
975.261	22.78
975.426	25.3
975.592	52.62
975.758	118.88
975.923	0.69
976.089	16.19
976.255	85.75
976.42	78.39
976.586	69.28
976.751	77.22
976.917	158.21
977.082	70.64
977.248	9.99
977.413	-3.37
977.579	41.77
977.744	51.46
977.91	20.84
978.075	47.97
978.24	53.78
978.406	41.38
978.571	34.41
978.736	31.69
978.902	88.27
979.067	39.25
979.232	-9.38
979.397	45.45
979.563	97.18
979.728	0.5
979.893	16.58
980.058	27.82
980.223	91.56
980.388	50.49
980.554	51.65
980.719	28.98
980.884	60.37
981.049	93.5
981.214	26.66
981.379	60.17
981.544	22.39
981.709	44.29
981.874	53.59
982.039	49.32
982.204	91.56
982.368	34.21
982.533	24.14
982.698	74.71
982.863	79.16
983.028	35.18
983.193	39.06
983.357	33.63
983.522	46.81
983.687	40.41
983.852	30.34
984.016	68.51
984.181	59.59
984.346	69.28
984.51	75.48
984.675	29.56
984.839	69.86
985.004	42.93
985.168	101.83
985.333	70.06
985.498	42.35
985.662	59.98
985.827	55.52
985.991	65.6
986.155	43.9
986.32	82.46
986.484	103.57
986.649	55.72
986.813	13.29
986.977	71.61
987.142	47.39
987.306	-2.41
987.47	38.67
987.634	42.74
987.799	40.61
987.963	47.97
988.127	71.8
988.291	116.17
988.455	39.06
988.62	50.87
988.784	69.67
988.948	51.07
989.112	39.06
989.276	57.85
989.44	68.51
989.604	-4.92
989.768	56.88
989.932	115.01
990.096	31.89
990.26	-0.47
990.424	23.94
990.588	42.54
990.752	104.16
990.915	58.82
991.079	33.44
991.243	34.21
991.407	72.57
991.571	22.98
991.734	61.72
991.898	88.85
992.062	141.16
992.226	31.89
992.389	26.46
992.553	-18.49
992.717	3.79
992.88	56.88
993.044	38.47
993.207	13.48
993.371	91.76
993.535	53.2
993.698	21.04
993.862	66.76
994.025	82.65
994.189	43.71
994.352	55.91
994.515	56.3
994.679	69.67
994.842	49.91
995.006	73.54
995.169	19.1
995.332	28.4
995.496	86.91
995.659	-8.8
995.822	42.74
995.985	29.95
996.149	95.05
996.312	39.44
996.475	118.11
996.638	13.29
996.801	77.22
996.964	133.02
997.128	55.52
997.291	27.43
997.454	51.84
997.617	-27.79
997.78	77.42
997.943	33.83
998.106	67.15
998.269	22.98
998.432	26.66
998.595	40.61
998.758	4.18
998.92	18.52
999.083	13.48
999.246	21.04
999.409	5.93
999.572	-6.09
999.735	7.09
999.897	60.76
1000.06	32.47
1000.223	48.55
1000.386	46.03
1000.548	52.23
1000.711	48.94
1000.874	39.83
1001.036	-27.59
1001.199	88.46
1001.361	26.85
1001.524	28.98
1001.687	59.01
1001.849	-10.54
1002.012	31.69
1002.174	49.52
1002.337	56.88
1002.499	35.76
1002.661	74.51
1002.824	-3.18
1002.986	15.03
1003.149	31.31
1003.311	11.35
1003.473	80.52
1003.636	-9.38
1003.798	38.47
1003.96	51.65
1004.123	20.65
1004.285	7.86
1004.447	10.58
1004.609	25.3
1004.771	101.64
1004.933	-16.36
1005.096	-6.09
1005.258	-24.69
1005.42	13.48
1005.582	70.25
1005.744	37.89
1005.906	-17.71
1006.068	12.32
1006.23	-15.97
1006.392	-28.56
1006.554	3.41
1006.716	63.86
1006.878	60.37
1007.04	-15.39
1007.202	17.16
1007.363	44.67
1007.525	49.91
1007.687	42.16
1007.849	71.41
1008.011	-29.34
1008.172	-7.64
1008.334	-2.21
1008.496	56.49
1008.658	-12.29
1008.819	-3.76
1008.981	-9.96
1009.143	-10.74
1009.304	14.64
1009.466	44.09
1009.627	92.53
1009.789	133.8
1009.95	26.85
1010.112	10.19
1010.273	38.86
1010.435	1.47
1010.596	24.33
1010.758	15.03
1010.919	-1.63
1011.081	-17.52
1011.242	28.98
1011.403	58.62
1011.565	21.62
1011.726	77.03
1011.887	-21.2
1012.049	30.92
1012.21	48.16
1012.371	86.52
1012.532	-55.88
1012.693	21.43
1012.855	-5.89
1013.016	18.13
1013.177	53.78
1013.338	17.74
1013.499	85.56
1013.66	30.53
1013.821	39.25
1013.982	46.03
1014.143	45.26
1014.304	-14.42
1014.465	33.44
1014.626	63.66
1014.787	11.35
1014.948	98.34
1015.109	-54.52
1015.27	60.17
1015.431	-15.39
1015.592	-13.45
1015.752	69.28
1015.913	25.3
1016.074	49.32
1016.235	23.36
1016.395	13.09
1016.556	18.71
1016.717	-6.28
1016.877	60.56
1017.038	-20.42
1017.199	9.8
1017.359	20.46
1017.52	21.04
1017.681	-11.12
1017.841	2.24
1018.002	22.01
1018.162	-18.29
1018.323	52.23
1018.483	23.94
1018.644	13.68
1018.804	-38.25
1018.964	-44.64
1019.125	-11.9
1019.285	20.07
1019.446	2.83
1019.606	-20.81
1019.766	-43.48
1019.926	34.79
1020.087	8.64
1020.247	-19.84
1020.407	20.07
1020.567	55.52
1020.728	0.69
1020.888	-2.79
1021.048	-8.41
1021.208	-25.85
1021.368	-20.81
1021.528	35.18
1021.688	58.43
1021.848	16
1022.008	16.78
1022.168	29.37
1022.328	28.59
1022.488	43.51
1022.648	-6.47
1022.808	-5.12
1022.968	27.43
1023.128	5.54
1023.288	29.95
1023.448	19.68
1023.608	21.43
1023.767	38.86
1023.927	-39.02
1024.087	-16.94
1024.247	-39.02
1024.406	-4.54
1024.566	-16.55
1024.726	-10.54
1024.885	9.61
1025.045	30.53
1025.205	-5.89
1025.364	3.6
1025.524	28.21
1025.683	-25.07
1025.843	6.89
1026.003	-1.82
1026.162	78.19
1026.321	47.39
1026.481	-3.18
1026.64	4.38
1026.8	14.64
1026.959	8.64
1027.119	-5.31
1027.278	-22.36
1027.437	-19.07
1027.597	-16.55
1027.756	10.96
1027.915	14.06
1028.074	48.94
1028.234	-38.83
1028.393	9.22
1028.552	9.22
1028.711	-74.67
1028.87	34.41
1029.03	-37.47
1029.189	9.61
1029.348	-62.47
1029.507	-2.41
1029.666	-8.22
1029.825	-27.21
1029.984	6.51
1030.143	-2.79
1030.302	4.57
1030.461	-39.22
1030.62	19.1
1030.779	30.14
1030.938	-10.54
1031.097	-27.4
1031.255	22.59
1031.414	44.09
1031.573	67.54
1031.732	-43.48
1031.891	-10.16
1032.049	46.81
1032.208	37.89
1032.367	-32.05
1032.525	-0.86
1032.684	-20.23
1032.843	14.45
1033.001	-56.27
1033.16	136.9
1033.319	48.16
1033.477	19.1
1033.636	-19.26
1033.794	-35.92
1033.953	29.18
1034.111	36.73
1034.27	-24.69
1034.428	31.5
1034.587	-2.99
1034.745	11.16
1034.903	-2.21
1035.062	25.3
1035.22	-45.03
1035.378	32.66
1035.537	-35.73
1035.695	28.79
1035.853	16.19
1036.011	21.43
1036.17	13.29
1036.328	-63.82
1036.486	2.44
1036.644	14.64
1036.802	-70.41
1036.96	-4.73
1037.119	-0.66
1037.277	-23.91
1037.435	-25.46
1037.593	-21.39
1037.751	-1.05
1037.909	31.11
1038.067	31.11
