Data from pine_FLMT105791__148__17-22-47-074.txt Node

Date: Mon Mar 20 17:22:47 GMT 2023
User: antho
Spectrometer: FLMT10579
Trigger mode: 0
Integration Time (sec): 1.000000E-1
Scans to average: 10
Electric dark correction enabled: true
Nonlinearity correction enabled: false
Boxcar width: 0
XAxis mode: Wavelengths
Number of Pixels in Spectrum: 3648
>>>>>Begin Spectral Data<<<<<
345.248	-149.57
345.464	-149.57
345.681	-149.57
345.898	-157.13
346.114	-149.57
346.331	-27.9
346.548	34.1
346.764	-3.29
346.981	-19.96
347.197	-10.46
347.414	25.77
347.631	-38.56
347.847	58.32
348.064	5.81
348.28	27.32
348.497	-50.57
348.713	-0.58
348.93	31.97
349.146	17.05
349.363	-0.58
349.579	14.53
349.796	16.86
350.012	-6.01
350.229	65.49
350.445	0.77
350.661	-1.55
350.878	9.11
351.094	32.36
351.311	29.45
351.527	5.04
351.743	2.71
351.96	27.32
352.176	26.93
352.392	46.69
352.609	44.17
352.825	-5.42
353.041	5.62
353.257	9.88
353.474	22.09
353.69	24.61
353.906	47.27
354.122	-5.23
354.339	74.59
354.555	18.99
354.771	-8.33
354.987	93
355.203	73.62
355.42	-21.31
355.636	8.52
355.852	-15.89
356.068	23.06
356.284	-30.61
356.5	70.91
356.716	31
356.932	29.45
357.148	32.94
357.364	8.52
357.58	45.34
357.796	89.32
358.012	43.79
358.228	26.54
358.444	-57.54
358.66	55.02
358.876	13.95
359.092	-13.37
359.308	29.64
359.524	26.93
359.74	-3.49
359.956	11.04
360.172	30.61
360.388	49.02
360.604	-2.13
360.819	72.85
361.035	4.84
361.251	59.09
361.467	3.87
361.683	42.82
361.898	19.57
362.114	50.18
362.33	18.02
362.546	43.01
362.762	-5.23
362.977	-6.59
363.193	-8.72
363.409	20.73
363.624	-14.72
363.84	14.14
364.056	-1.16
364.271	11.24
364.487	45.34
364.703	-14.92
364.918	-13.56
365.134	9.3
365.35	22.28
365.565	111.79
365.781	16.86
365.996	31.97
366.212	63.74
366.427	20.34
366.643	14.92
366.858	-18.6
367.074	6.39
367.289	65.1
367.505	104.43
367.72	12.01
367.936	22.86
368.151	45.14
368.367	42.82
368.582	9.11
368.798	22.86
369.013	63.74
369.228	51.54
369.444	46.11
369.659	42.04
369.874	-2.13
370.09	55.22
370.305	-39.91
370.52	12.4
370.736	78.86
370.951	16.47
371.166	69.17
371.381	78.47
371.597	59.67
371.812	1.36
372.027	-5.42
372.242	10.46
372.458	72.85
372.673	-2.91
372.888	30.42
373.103	42.24
373.318	97.26
373.533	12.79
373.749	50.18
373.964	-11.62
374.179	60.26
374.394	18.41
374.609	52.31
374.824	-16.66
375.039	61.61
375.254	-8.14
375.469	67.62
375.684	34.49
375.899	73.24
376.114	26.16
376.329	27.9
376.544	46.69
376.759	59.29
376.974	1.36
377.189	29.06
377.404	6.59
377.619	67.42
377.834	-21.51
378.049	-25.19
378.264	-26.35
378.478	37.59
378.693	7.56
378.908	55.02
379.123	13.37
379.338	54.44
379.553	12.4
379.767	39.14
379.982	28.87
380.197	62.77
380.412	9.49
380.626	45.53
380.841	114.5
381.056	47.47
381.271	76.34
381.485	12.79
381.7	14.34
381.915	36.42
382.129	11.04
382.344	37.59
382.559	24.02
382.773	61.42
382.988	-33.91
383.202	3.87
383.417	9.3
383.632	121.09
383.846	13.95
384.061	21.89
384.275	28.09
384.49	64.71
384.704	30.03
384.919	27.32
385.133	-1.55
385.348	28.87
385.562	6.2
385.777	69.56
385.991	25.57
386.206	29.45
386.42	7.75
386.634	62.97
386.849	55.02
387.063	9.88
387.277	-12.98
387.492	13.76
387.706	-15.5
387.92	-12.21
388.135	78.66
388.349	18.41
388.563	43.59
388.778	37.2
388.992	32.36
389.206	70.33
389.42	94.74
389.635	47.08
389.849	28.87
390.063	70.33
390.277	7.36
390.491	82.54
390.706	52.7
390.92	57.93
391.134	28.29
391.348	37.2
391.562	-44.76
391.776	31.77
391.99	-0.97
392.205	67.04
392.419	-37.97
392.633	34.68
392.847	79.44
393.061	-22.09
393.275	78.86
393.489	31.19
393.703	36.23
393.917	58.71
394.131	6.59
394.345	58.32
394.559	73.82
394.773	29.26
394.986	42.62
395.2	31.77
395.414	61.22
395.628	-2.71
395.842	39.72
396.056	27.32
396.27	-24.99
396.484	36.23
396.697	32.94
396.911	75.95
397.125	45.14
397.339	52.51
397.553	51.34
397.766	89.32
397.98	62.19
398.194	69.75
398.408	6.2
398.621	71.88
398.835	92.22
399.049	33.91
399.262	77.31
399.476	62
399.69	87.19
399.903	105.01
400.117	21.7
400.331	49.02
400.544	16.27
400.758	157.32
400.971	56.96
401.185	88.54
401.398	18.21
401.612	79.44
401.826	93.19
402.039	62
402.253	19.76
402.466	53.67
402.68	30.42
402.893	52.7
403.106	54.64
403.32	39.72
403.533	59.09
403.747	28.29
403.96	62.97
404.174	53.28
404.387	15.11
404.6	56.19
404.814	66.84
405.027	53.09
405.24	65.68
405.454	26.16
405.667	93.39
405.88	-29.45
406.094	74.59
406.307	74.21
406.52	73.43
406.733	10.66
406.947	-21.51
407.16	117.99
407.373	82.54
407.586	17.24
407.799	8.52
408.012	69.17
408.226	38.36
408.439	85.83
408.652	-8.72
408.865	43.21
409.078	102.1
409.291	74.79
409.504	-4.46
409.717	61.81
409.93	81.76
410.143	50.18
410.357	-13.37
410.57	25.19
410.783	13.37
410.996	51.92
411.209	41.46
411.421	83.51
411.634	47.47
411.847	18.02
412.06	49.21
412.273	46.69
412.486	33.32
412.699	131.75
412.912	37.59
413.125	60.84
413.338	51.34
413.55	76.72
413.763	81.57
413.976	51.15
414.189	33.91
414.402	40.88
414.615	100.17
414.827	14.53
415.04	88.15
415.253	54.83
415.466	84.67
415.678	92.22
415.891	31.19
416.104	78.47
416.316	66.65
416.529	17.05
416.742	70.14
416.954	88.54
417.167	23.64
417.38	27.32
417.592	107.34
417.805	33.13
418.017	18.21
418.23	76.92
418.442	17.05
418.655	54.25
418.868	51.92
419.08	107.53
419.293	97.65
419.505	82.73
419.718	84.67
419.93	99
420.142	40.11
420.355	110.82
420.567	124.58
420.78	70.33
420.992	52.12
421.205	119.74
421.417	22.86
421.629	27.12
421.842	23.83
422.054	10.85
422.266	117.8
422.479	65.87
422.691	24.41
422.903	105.79
423.115	62.39
423.328	50.18
423.54	80.21
423.752	56.57
423.964	49.41
424.177	74.79
424.389	64.13
424.601	137.17
424.813	63.36
425.025	80.6
425.238	86.22
425.45	65.68
425.662	60.45
425.874	335.57
426.086	76.72
426.298	91.84
426.51	69.36
426.722	78.08
426.934	46.69
427.146	77.11
427.358	30.42
427.57	104.43
427.782	77.69
427.994	80.21
428.206	39.72
428.418	12.21
428.63	78.47
428.842	101.33
429.054	43.4
429.266	128.26
429.478	50.37
429.69	72.46
429.902	33.71
430.114	74.21
430.325	59.48
430.537	55.41
430.749	64.71
430.961	19.57
431.173	74.21
431.384	105.4
431.596	19.76
431.808	49.79
432.02	89.32
432.231	73.82
432.443	99.2
432.655	74.79
432.867	54.83
433.078	74.98
433.29	120.12
433.502	94.35
433.713	102.69
433.925	59.29
434.136	122.84
434.348	44.76
434.56	0.58
434.771	167.4
434.983	30.22
435.194	74.21
435.406	72.46
435.617	102.49
435.829	144.54
436.04	102.1
436.252	106.17
436.463	148.99
436.675	121.29
436.886	84.09
437.098	114.31
437.309	117.41
437.521	86.61
437.732	113.15
437.943	95.13
438.155	89.7
438.366	18.6
438.578	142.79
438.789	106.56
439	132.52
439.211	103.46
439.423	113.34
439.634	116.64
439.845	123.42
440.057	126.9
440.268	118.96
440.479	41.07
440.69	89.9
440.902	105.79
441.113	87.96
441.324	92.61
441.535	111.4
441.746	163.14
441.957	59.87
442.168	96.87
442.38	127.29
442.591	148.8
442.802	66.46
443.013	89.32
443.224	119.15
443.435	76.72
443.646	97.84
443.857	86.41
444.068	58.9
444.279	79.24
444.49	158.87
444.701	107.53
444.912	211.77
445.123	130.97
445.334	133.69
445.545	136.59
445.756	118.38
445.967	99
446.178	113.54
446.388	155.58
446.599	148.41
446.81	155.77
447.021	107.34
447.232	160.42
447.443	156.94
447.653	104.82
447.864	145.7
448.075	103.07
448.286	142.4
448.496	143.76
448.707	173.4
448.918	115.28
449.129	192
449.339	108.89
449.55	143.18
449.761	105.98
449.971	187.16
450.182	125.35
450.393	173.21
450.603	99.97
450.814	153.45
451.024	134.27
451.235	158.49
451.446	169.53
451.656	197.23
451.867	119.93
452.077	142.4
452.288	186
452.498	176.12
452.709	136.98
452.919	155.58
453.13	113.73
453.34	171.27
453.55	97.45
453.761	148.8
453.971	150.74
454.182	183.48
454.392	171.47
454.602	219.9
454.813	167.59
455.023	189.48
455.233	112.18
455.444	142.99
455.654	92.22
455.864	148.6
456.075	126.71
456.285	137.56
456.495	161.59
456.705	152.87
456.916	200.92
457.126	217.19
457.336	171.08
457.546	81.76
457.756	144.73
457.967	201.88
458.177	109.47
458.387	135.62
458.597	135.82
458.807	148.22
459.017	160.42
459.227	158.1
459.437	164.49
459.647	206.92
459.857	178.05
460.068	170.89
460.278	179.22
460.488	164.49
460.698	222.62
460.908	161.39
461.117	117.41
461.327	144.54
461.537	134.07
461.747	168.17
461.957	167.98
462.167	254.2
462.377	197.43
462.587	176.7
462.797	182.51
463.007	167.01
463.216	214.67
463.426	188.13
463.636	181.93
463.846	127.87
464.056	164.1
464.265	223
464.475	134.46
464.685	172.44
464.895	191.03
465.104	181.54
465.314	206.53
465.524	169.14
465.733	159.65
465.943	266.21
466.153	228.62
466.362	218.35
466.572	173.21
466.782	159.45
466.991	184.45
467.201	271.25
467.41	133.49
467.62	208.08
467.829	154.42
468.039	189.87
468.249	177.86
468.458	166.82
468.668	200.92
468.877	204.4
469.086	221.45
469.296	223.97
469.505	171.66
469.715	255.75
469.924	194.33
470.134	220.1
470.343	235.98
470.552	180.77
470.762	199.56
470.971	192.58
471.18	198.2
471.39	190.26
471.599	153.84
471.808	234.24
472.018	159.45
472.227	214.09
472.436	237.15
472.645	188.71
472.855	175.73
473.064	242.77
473.273	205.76
473.482	227.46
473.691	235.02
473.901	256.91
474.11	222.03
474.319	314.65
474.528	253.81
474.737	267.56
474.946	239.28
475.155	231.92
475.364	267.95
475.573	235.79
475.783	222.62
475.992	248.19
476.201	236.57
476.41	191.23
476.619	169.34
476.828	244.9
477.037	218.93
477.245	225.13
477.454	252.84
477.663	199.17
477.872	206.73
478.081	288.3
478.29	176.12
478.499	318.71
478.708	235.79
478.917	292.17
479.125	240.05
479.334	254.97
479.543	248
479.752	248.38
479.961	236.18
480.169	290.04
480.378	234.24
480.587	360.56
480.796	302.83
481.004	260.59
481.213	287.52
481.422	274.35
481.63	261.17
481.839	294.69
482.048	332.08
482.256	293.53
482.465	277.83
482.674	295.27
482.882	306.51
483.091	343.51
483.299	308.83
483.508	310.77
483.716	295.85
483.925	311.16
484.134	270.28
484.342	267.76
484.551	298.37
484.759	316.58
484.967	291.78
485.176	321.43
485.384	325.69
485.593	332.28
485.801	310.77
486.01	292.17
486.218	296.05
486.426	235.98
486.635	280.35
486.843	298.37
487.051	307.28
487.26	283.06
487.468	315.81
487.676	327.43
487.885	271.44
488.093	323.36
488.301	319.49
488.509	326.08
488.717	339.83
488.926	311.93
489.134	309.8
489.342	334.02
489.55	307.86
489.758	332.86
489.967	277.06
490.175	411.13
490.383	313.87
490.591	363.08
490.799	277.45
491.007	351.26
491.215	366.96
491.423	335.38
491.631	342.74
491.839	315.61
492.047	357.08
492.255	324.53
492.463	270.28
492.671	330.92
492.879	379.36
493.087	318.71
493.295	373.16
493.503	368.12
493.711	396.6
493.919	399.7
494.127	380.52
494.334	406.09
494.542	337.31
494.75	371.22
494.958	335.38
495.166	419.85
495.374	371.41
495.581	402.22
495.789	401.64
495.997	437.09
496.205	350.88
496.412	371.61
496.62	394.66
496.828	367.54
497.035	392.34
497.243	408.42
497.451	363.08
497.658	395.83
497.866	360.18
498.074	458.99
498.281	383.04
498.489	442.52
498.696	421.79
498.904	364.24
499.112	390.01
499.319	436.9
499.527	379.36
499.734	415.2
499.942	337.51
500.149	375.87
500.357	413.26
500.564	349.13
500.771	396.79
500.979	349.91
501.186	378.97
501.394	419.85
501.601	403.38
501.808	424.31
502.016	385.94
502.223	407.45
502.43	401.44
502.638	424.69
502.845	382.26
503.052	470.03
503.26	411.71
503.467	493.28
503.674	403.38
503.881	434.19
504.089	476.81
504.296	455.5
504.503	383.62
504.71	434.19
504.917	359.01
505.125	449.69
505.332	396.21
505.539	440.58
505.746	486.89
505.953	478.56
506.16	450.46
506.367	491.92
506.574	495.61
506.781	499.48
506.988	409.78
507.195	465.19
507.402	433.8
507.609	452.01
507.816	430.89
508.023	463.06
508.23	446.59
508.437	415.98
508.644	488.24
508.851	518.08
509.058	478.56
509.265	468.29
509.472	500.06
509.679	530.87
509.885	445.04
510.092	464.61
510.299	445.81
510.506	492.12
510.713	473.52
510.92	485.72
511.126	526.41
511.333	523.51
511.54	507.42
511.746	531.25
511.953	549.47
512.16	563.61
512.367	466.93
512.573	464.99
512.78	521.76
512.987	520.02
513.193	499.29
513.4	429.34
513.606	494.44
513.813	515.76
514.02	509.56
514.226	559.74
514.433	529.9
514.639	483.59
514.846	561.48
515.052	492.89
515.259	515.17
515.465	517.11
515.672	509.17
515.878	614.37
516.085	510.14
516.291	543.65
516.497	514.4
516.704	534.16
516.91	476.04
517.117	491.15
517.323	415.98
517.529	467.12
517.736	493.28
517.942	491.73
518.148	493.47
518.354	486.31
518.561	509.36
518.767	518.08
518.973	547.53
519.179	552.76
519.386	511.88
519.592	506.84
519.798	502.58
520.004	590.15
520.21	531.84
520.417	567.1
520.623	611.66
520.829	606.24
521.035	596.16
521.241	592.29
521.447	606.43
521.653	691.1
521.859	589.19
522.065	588.02
522.271	677.73
522.477	644.4
522.683	656.61
522.889	648.47
523.095	655.25
523.301	605.65
523.507	595
523.713	658.16
523.919	593.84
524.125	657
524.331	628.52
524.537	696.91
524.742	647.89
524.948	664.55
525.154	672.69
525.36	757.75
525.566	664.36
525.772	725.97
525.977	618.83
526.183	712.8
526.389	716.28
526.595	678.5
526.8	675.02
527.006	626.97
527.212	604.69
527.417	597.9
527.623	607.4
527.829	660.68
528.034	686.83
528.24	646.34
528.446	642.47
528.651	740.7
528.857	673.08
529.062	760.85
529.268	687.03
529.473	683.73
529.679	677.34
529.884	790.88
530.09	693.23
530.295	749.8
530.501	764.14
530.706	743.8
530.912	681.8
531.117	752.71
531.323	714.54
531.528	748.64
531.733	750.19
531.939	712.8
532.144	772.28
532.35	753.68
532.555	774.99
532.76	768.4
532.966	789.52
533.171	725.2
533.376	719.77
533.581	700.2
533.787	732.75
533.992	743.99
534.197	786.23
534.402	740.31
534.607	726.16
534.813	867.02
535.018	752.32
535.223	739.34
535.428	771.5
535.633	836.99
535.838	789.71
536.043	759.49
536.249	841.25
536.454	746.31
536.659	805.79
536.864	753.48
537.069	779.25
537.274	805.02
537.479	811.03
537.684	811.41
537.889	744.38
538.094	867.6
538.299	778.48
538.504	806.38
538.708	791.07
538.913	832.34
539.118	792.23
539.323	860.24
539.528	774.8
539.733	789.52
539.938	804.83
540.142	848.23
540.347	806.96
540.552	799.59
540.757	813.93
540.962	779.45
541.166	743.21
541.371	754.45
541.576	777.9
541.781	719.38
541.985	819.16
542.19	799.59
542.395	853.26
542.599	869.73
542.804	841.44
543.008	861.98
543.213	819.55
543.418	783.32
543.622	840.86
543.827	805.99
544.031	866.83
544.236	856.56
544.44	850.74
544.645	917.59
544.849	803.08
545.054	848.23
545.258	906.35
545.463	915.84
545.667	829.63
545.872	860.63
546.076	836.41
546.281	841.64
546.485	805.02
546.689	875.16
546.894	907.51
547.098	854.43
547.302	811.61
547.507	844.35
547.711	853.65
547.915	916.62
548.119	822.65
548.324	829.43
548.528	870.7
548.732	864.89
548.936	886.97
549.141	898.41
549.345	794.94
549.549	883.49
549.753	848.42
549.957	927.86
550.161	931.73
550.366	866.24
550.57	822.46
550.774	856.17
550.978	825.36
551.182	871.28
551.386	844.54
551.59	837.76
551.794	833.69
551.998	901.51
552.202	832.53
552.406	802.69
552.61	821.68
552.814	856.36
553.018	935.02
553.222	857.33
553.426	883.49
553.63	921.07
553.833	827.69
554.037	829.82
554.241	858.49
554.445	865.08
554.649	839.31
554.853	829.04
555.056	877.48
555.26	874.77
555.464	857.14
555.668	875.93
555.871	896.08
556.075	903.44
556.279	834.08
556.483	825.94
556.686	840.09
556.89	862.37
557.094	858.11
557.297	833.5
557.501	914.1
557.704	822.07
557.908	911.97
558.112	826.33
558.315	881.94
558.519	864.89
558.722	860.24
558.926	854.43
559.129	769.18
559.333	792.23
559.536	812.38
559.74	807.93
559.943	793.2
560.147	782.16
560.35	798.04
560.553	795.91
560.757	756.2
560.96	879.42
561.164	783.13
561.367	883.29
561.57	806.96
561.774	827.88
561.977	814.51
562.18	787.97
562.384	886.2
562.587	805.99
562.79	775.38
562.993	830.01
563.197	834.66
563.4	897.63
563.603	847.26
563.806	928.05
564.009	768.4
564.212	855.39
564.416	731.59
564.619	838.34
564.822	756
565.025	864.69
565.228	773.63
565.431	804.24
565.634	713.96
565.837	764.72
566.04	784.87
566.243	773.44
566.446	695.55
566.649	806.57
566.852	724.61
567.055	787.19
567.258	821.88
567.461	866.63
567.664	813.93
567.867	711.44
568.07	782.74
568.273	815.09
568.475	828.08
568.678	779.06
568.881	762.78
569.084	789.71
569.287	690.9
569.489	734.69
569.692	785.26
569.895	785.45
570.098	719.77
570.3	725.97
570.503	647.31
570.706	675.79
570.909	691.29
571.111	679.47
571.314	680.25
571.516	693.62
571.719	717.25
571.922	690.52
572.124	680.63
572.327	704.27
572.529	666.1
572.732	649.63
572.935	717.83
573.137	763.75
573.34	692.65
573.542	750.77
573.745	731.2
573.947	723.45
574.15	697.1
574.352	697.3
574.554	749.41
574.757	660.48
574.959	681.22
575.162	653.7
575.364	657.58
575.566	776.73
575.769	639.37
575.971	677.15
576.173	584.34
576.376	646.34
576.578	691.68
576.78	730.81
576.982	593.06
577.185	653.51
577.387	643.82
577.589	610.11
577.791	668.62
577.993	686.45
578.196	650.8
578.398	699.43
578.6	707.56
578.802	613.79
579.004	608.56
579.206	616.12
579.408	664.17
579.61	651.18
579.812	687.8
580.014	638.98
580.216	641.11
580.418	624.64
580.62	616.5
580.822	606.62
581.024	655.64
581.226	698.46
581.428	624.64
581.63	742.44
581.832	619.6
582.034	700.4
582.236	666.3
582.438	684.51
582.64	686.06
582.841	700.98
583.043	744.38
583.245	667.27
583.447	684.7
583.649	663.2
583.85	665.91
584.052	705.05
584.254	628.32
584.456	700.4
584.657	601.2
584.859	666.68
585.061	648.86
585.262	625.61
585.464	627.55
585.666	705.24
585.867	629.68
586.069	704.66
586.27	670.37
586.472	675.02
586.674	609.92
586.875	623.48
587.077	617.47
587.278	665.33
587.48	638.59
587.681	726.94
587.883	641.11
588.084	582.02
588.285	617.67
588.487	616.12
588.688	652.35
588.89	602.36
589.091	587.64
589.292	603.14
589.494	565.94
589.695	590.74
589.896	521.76
590.098	497.93
590.299	589.77
590.5	545.79
590.702	586.09
590.903	548.5
591.104	630.84
591.305	576.4
591.507	625.42
591.708	586.09
591.909	599.65
592.11	649.83
592.311	625.03
592.512	600.81
592.714	551.21
592.915	576.2
593.116	587.05
593.317	577.37
593.518	566.52
593.719	572.52
593.92	624.83
594.121	642.27
594.322	605.46
594.523	609.53
594.724	532.42
594.925	550.44
595.126	606.04
595.327	628.9
595.528	578.14
595.729	600.04
595.929	592.09
596.13	575.82
596.331	585.31
596.532	613.21
596.733	642.08
596.934	611.27
597.135	603.33
597.335	619.8
597.536	583.18
597.737	598.68
597.938	566.32
598.138	595.97
598.339	599.84
598.54	598.68
598.74	597.71
598.941	588.6
599.142	645.95
599.342	626.77
599.543	538.42
599.744	573.69
599.944	568.45
600.145	571.55
600.345	576.79
600.546	660.48
600.746	644.6
600.947	638.98
601.147	609.72
601.348	632.58
601.548	563.42
601.749	604.49
601.949	547.92
602.15	569.04
602.35	585.31
602.551	631.42
602.751	570.97
602.951	569.62
603.152	522.34
603.352	600.04
603.552	577.56
603.753	629.1
603.953	608.75
604.153	578.14
604.354	592.87
604.554	579.3
604.754	577.56
604.954	554.5
605.155	586.67
605.355	598.29
605.555	651.96
605.755	641.88
605.955	608.17
606.155	615.73
606.356	573.49
606.556	659.9
606.756	602.55
606.956	526.99
607.156	618.25
607.356	526.22
607.556	582.79
607.756	596.94
607.956	632.39
608.156	590.54
608.356	538.62
608.556	600.62
608.756	563.03
608.956	576.79
609.156	559.93
609.356	560.9
609.556	546.56
609.755	576.2
609.955	526.22
610.155	589.77
610.355	597.52
610.555	545.59
610.755	559.15
610.954	511.11
611.154	550.82
611.354	610.89
611.554	544.82
611.753	532.61
611.953	510.91
612.153	586.47
612.352	547.34
612.552	517.89
612.752	471.97
612.951	550.44
613.151	565.94
613.351	517.31
613.55	532.22
613.75	547.92
613.949	526.41
614.149	558.96
614.348	535.13
614.548	512.27
614.747	495.02
614.947	515.17
615.146	461.7
615.346	558.57
615.545	566.52
615.745	532.42
615.944	559.74
616.144	541.91
616.343	534.94
616.542	516.53
616.742	521.37
616.941	527.96
617.14	458.79
617.34	524.09
617.539	524.47
617.738	491.15
617.938	569.42
618.137	509.94
618.336	491.34
618.535	507.42
618.734	518.66
618.934	528.93
619.133	504.71
619.332	564.58
619.531	459.57
619.73	519.82
619.929	553.73
620.128	513.04
620.328	573.69
620.527	504.52
620.726	518.86
620.925	520.02
621.124	488.44
621.323	521.37
621.522	466.74
621.721	478.36
621.92	434.96
622.119	530.48
622.318	483.79
622.517	486.69
622.715	488.63
622.914	483.79
623.113	470.03
623.312	454.34
623.511	502.77
623.71	470.03
623.909	444.65
624.107	520.6
624.306	447.75
624.505	480.3
624.704	475.26
624.902	458.99
625.101	523.7
625.3	496.77
625.499	458.02
625.697	462.28
625.896	470.03
626.095	513.62
626.293	425.66
626.492	440.19
626.69	515.17
626.889	419.27
627.088	478.36
627.286	429.15
627.485	455.5
627.683	424.69
627.882	476.42
628.08	415.98
628.279	448.14
628.477	513.62
628.676	450.66
628.874	483.4
629.073	429.93
629.271	404.74
629.469	464.8
629.668	437.87
629.866	439.81
630.065	410.74
630.263	464.8
630.461	421.98
630.66	446.78
630.858	439.61
631.056	484.17
631.254	514.59
631.453	407.64
631.651	473.71
631.849	456.86
632.047	451.04
632.245	440
632.444	451.24
632.642	449.49
632.84	464.8
633.038	435.93
633.236	420.63
633.434	413.65
633.632	428.18
633.83	405.51
634.028	452.59
634.227	429.34
634.425	510.72
634.623	454.53
634.821	458.6
635.019	455.89
635.216	431.09
635.414	491.34
635.612	450.46
635.81	434.38
636.008	503.55
636.206	451.24
636.404	495.02
636.602	433.41
636.8	471.58
636.997	499.29
637.195	505.1
637.393	446.78
637.591	512.27
637.789	464.8
637.986	436.9
638.184	436.9
638.382	494.44
638.58	482.24
638.777	519.24
638.975	435.74
639.173	464.61
639.37	445.62
639.568	486.69
639.765	470.03
639.963	427.21
640.161	471.58
640.358	474.29
640.556	422.56
640.753	406.09
640.951	420.24
641.148	450.27
641.346	430.7
641.543	451.62
641.741	454.72
641.938	402.61
642.136	423.34
642.333	421.98
642.531	481.66
642.728	498.71
642.925	438.84
643.123	430.89
643.32	461.51
643.517	439.81
643.715	469.45
643.912	413.46
644.109	426.05
644.306	444.46
644.504	399.7
644.701	416.36
644.898	469.45
645.095	356.69
645.293	408.03
645.49	449.49
645.687	459.57
645.884	466.74
646.081	382.84
646.278	418.88
646.475	396.6
646.672	379.74
646.87	469.84
647.067	440.58
647.264	401.06
647.461	376.84
647.658	369.48
647.855	418.88
648.052	380.13
648.249	343.9
648.446	380.91
648.642	354.17
648.839	378.19
649.036	378.78
649.233	349.13
649.43	356.3
649.627	352.23
649.824	372.38
650.021	392.14
650.217	343.32
650.414	355.53
650.611	400.09
650.808	384.2
651.004	393.89
651.201	434.77
651.398	442.13
651.595	383.43
651.791	377.23
651.988	420.04
652.185	365.21
652.381	383.62
652.578	345.06
652.775	418.69
652.971	339.64
653.168	402.61
653.364	416.17
653.561	326.08
653.757	366.18
653.954	377.42
654.15	385.36
654.347	436.71
654.543	399.7
654.74	321.62
654.936	338.67
655.133	373.16
655.329	362.89
655.525	362.69
655.722	395.24
655.918	352.04
656.115	390.21
656.311	314.06
656.507	317.55
656.704	280.55
656.9	308.45
657.096	274.93
657.292	310.38
657.489	374.71
657.685	373.54
657.881	331.89
658.077	345.06
658.273	327.63
658.47	403.96
658.666	345.45
658.862	384.78
659.058	305.35
659.254	378
659.45	323.95
659.646	330.15
659.842	372.58
660.038	376.06
660.234	319.49
660.43	345.45
660.626	399.12
660.822	376.06
661.018	390.79
661.214	354.17
661.41	337.7
661.606	381.49
661.802	367.93
661.998	358.04
662.194	293.33
662.39	368.89
662.586	370.44
662.781	396.99
662.977	359.4
663.173	413.07
663.369	344.1
663.564	378
663.76	374.51
663.956	328.01
664.152	386.14
664.347	311.55
664.543	360.37
664.739	324.91
664.934	277.45
665.13	283.45
665.326	377.61
665.521	356.69
665.717	303.99
665.912	311.74
666.108	280.16
666.304	333.63
666.499	327.82
666.695	254.2
666.89	332.28
667.086	359.59
667.281	322.78
667.477	407.45
667.672	320.46
667.867	340.03
668.063	364.24
668.258	306.9
668.454	313.68
668.649	402.61
668.844	344.87
669.04	375.29
669.235	310.19
669.43	301.86
669.626	300.11
669.821	295.66
670.016	277.64
670.211	338.09
670.407	315.03
670.602	325.11
670.797	313.87
670.992	351.65
671.187	292.95
671.382	358.24
671.578	305.93
671.773	317.94
671.968	311.74
672.163	337.12
672.358	337.9
672.553	316.78
672.748	315.61
672.943	383.04
673.138	317.94
673.333	338.86
673.528	276.28
673.723	334.99
673.918	303.99
674.113	275.12
674.308	385.17
674.503	347
674.698	360.95
674.892	348.36
675.087	360.37
675.282	354.17
675.477	309.03
675.672	323.95
675.867	295.85
676.061	295.27
676.256	246.64
676.451	275.9
676.646	324.72
676.84	257.1
677.035	261.56
677.23	280.55
677.424	308.25
677.619	347.78
677.814	323.56
678.008	329.95
678.203	263.3
678.397	282.68
678.592	316.2
678.787	363.66
678.981	310
679.176	328.01
679.37	306.51
679.565	270.47
679.759	275.12
679.954	334.6
680.148	348.75
680.342	335.18
680.537	317.75
680.731	289.46
680.926	324.53
681.12	320.65
681.314	278.8
681.509	293.14
681.703	290.04
681.897	317.36
682.092	315.23
682.286	290.81
682.48	342.74
682.674	347.97
682.869	290.23
683.063	316
683.257	356.11
683.451	294.5
683.645	326.66
683.839	322.98
684.034	323.95
684.228	350.29
684.422	283.84
684.616	286.94
684.81	306.51
685.004	319.49
685.198	320.46
685.392	320.07
685.586	260.01
685.78	303.99
685.974	321.81
686.168	314.26
686.362	351.65
686.556	283.06
686.75	271.25
686.944	317.75
687.138	326.27
687.331	236.18
687.525	255.17
687.719	202.08
687.913	277.83
688.107	266.98
688.301	219.13
688.494	262.91
688.688	226.88
688.882	184.83
689.076	205.18
689.269	233.47
689.463	338.28
689.657	229.98
689.85	277.83
690.044	272.8
690.238	255.75
690.431	232.69
690.625	265.63
690.818	281.13
691.012	290.43
691.205	291.01
691.399	247.61
691.593	273.96
691.786	346.81
691.98	359.98
692.173	346.81
692.366	337.9
692.56	322.59
692.753	376.26
692.947	281.71
693.14	361.53
693.333	347.39
693.527	285
693.72	349.71
693.914	325.3
694.107	315.81
694.3	336.15
694.493	337.12
694.687	379.74
694.88	308.83
695.073	369.67
695.266	384.98
695.46	370.44
695.653	384.78
695.846	391.37
696.039	312.51
696.232	356.69
696.425	393.5
696.618	399.31
696.812	366.57
697.005	428.76
697.198	488.05
697.391	428.96
697.584	440.19
697.777	492.51
697.97	461.51
698.163	464.02
698.356	451.43
698.549	531.06
698.742	487.08
698.935	435.74
699.127	481.27
699.32	446.59
699.513	396.79
699.706	461.7
699.899	509.36
700.092	457.24
700.285	509.17
700.477	437.09
700.67	494.06
700.863	499.29
701.056	585.89
701.248	534.94
701.441	517.5
701.634	517.5
701.826	583.57
702.019	509.94
702.212	562.06
702.404	468.87
702.597	500.84
702.79	528.54
702.982	532.42
703.175	574.65
703.367	588.22
703.56	580.85
703.752	654.87
703.945	575.43
704.137	599.26
704.33	617.47
704.522	600.62
704.715	613.79
704.907	649.25
705.1	663.39
705.292	654.67
705.484	650.22
705.677	664.36
705.869	664.94
706.061	694.78
706.254	709.11
706.446	693.03
706.638	662.42
706.831	745.15
707.023	700.59
707.215	778.28
707.407	776.15
707.599	737.98
707.792	799.59
707.984	743.8
708.176	806.96
708.368	726.94
708.56	771.11
708.752	722.1
708.944	770.34
709.136	794.94
709.329	803.47
709.521	881.94
709.713	862.56
709.905	814.51
710.097	844.74
710.289	794.94
710.481	839.31
710.672	830.79
710.864	850.55
711.056	891.43
711.248	899.76
711.44	884.84
711.632	859.66
711.824	876.9
712.016	930.57
712.207	940.06
712.399	944.91
712.591	970.29
712.783	936.96
712.975	956.14
713.166	866.63
713.358	892.01
713.55	995.28
713.741	991.4
713.933	968.74
714.125	961.37
714.316	939.09
714.508	1031.12
714.7	1039.84
714.891	987.14
715.083	1072.58
715.274	1013.69
715.466	1027.44
715.657	1041.97
715.849	967.38
716.04	980.55
716.232	910.81
716.423	1036.55
716.615	955.95
716.806	967.57
716.998	953.82
717.189	904.99
717.381	864.5
717.572	849.58
717.763	907.32
717.955	906.16
718.146	857.72
718.337	822.26
718.528	796.88
718.72	765.88
718.911	823.43
719.102	791.84
719.293	841.06
719.485	815.68
719.676	834.08
719.867	748.06
720.058	778.48
720.249	816.64
720.44	811.41
720.632	824.98
720.823	882.71
721.014	934.64
721.205	902.47
721.396	971.45
721.587	1024.34
721.778	1029.77
721.969	1068.9
722.16	1106.68
722.351	1038.68
722.542	1181.08
722.733	1181.28
722.924	1056.5
723.115	1122.77
723.305	1162.29
723.496	1155.31
723.687	1081.69
723.878	1085.57
724.069	1047.59
724.26	1129.74
724.45	1062.7
724.641	1078.01
724.832	1040.62
725.023	1035
725.213	1044.49
725.404	1027.44
725.595	1042.17
725.785	1047.4
725.976	1081.5
726.167	1079.95
726.357	1047.01
726.548	1149.5
726.739	1066.38
726.929	1128.38
727.12	1153.76
727.31	1179.53
727.501	1115.79
727.691	1143.69
727.882	1113.08
728.072	1173.53
728.263	1182.05
728.453	1189.03
728.644	1200.26
728.834	1185.35
729.024	1157.64
729.215	1156.28
729.405	1226.03
729.596	1243.28
729.786	1265.17
729.976	1220.22
730.167	1251.61
730.357	1216.73
730.547	1181.66
730.737	1253.16
730.928	1271.18
731.118	1308.76
731.308	1266.53
731.498	1231.65
731.688	1355.84
731.879	1345.19
732.069	1358.17
732.259	1323.1
732.449	1355.65
732.639	1437.8
732.829	1414.55
733.019	1455.82
733.209	1480.81
733.399	1489.14
733.589	1518.4
733.779	1508.71
733.969	1508.32
734.159	1526.53
734.349	1596.09
734.539	1644.72
734.729	1585.24
734.919	1660.99
735.109	1658.09
735.299	1634.26
735.488	1632.13
735.678	1641.23
735.868	1634.84
736.058	1662.93
736.248	1605.39
736.437	1570.9
736.627	1564.9
736.817	1683.66
737.007	1658.28
737.196	1689.86
737.386	1650.15
737.576	1642.98
737.765	1685.6
737.955	1677.27
738.144	1768.14
738.334	1691.99
738.524	1659.25
738.713	1702.84
738.903	1723.96
739.092	1727.45
739.282	1699.94
739.471	1704.98
739.661	1707.69
739.85	1763.87
740.04	1749.54
740.229	1788.29
740.419	1799.91
740.608	1795.07
740.797	1802.43
740.987	1830.33
741.176	1833.24
741.365	1773.56
741.555	1744.5
741.744	1811.92
741.933	1797.78
742.123	1822.97
742.312	1827.23
742.501	1847.96
742.69	1864.24
742.88	1799.52
743.069	1877.41
743.258	1805.14
743.447	1882.06
743.636	1865.59
743.825	1810.57
744.014	1843.12
744.204	1856.29
744.393	1837.69
744.582	1841.18
744.771	1911.9
744.96	1881.29
745.149	1885.94
745.338	1831.69
745.527	1867.72
745.716	1829.36
745.905	1846.99
746.094	1900.27
746.283	1921.2
746.471	1909.57
746.66	1934.76
746.849	1911.51
747.038	1975.06
747.227	1888.84
747.416	1954.13
747.604	1852.8
747.793	1849.9
747.982	1897.75
748.171	1902.6
748.359	1929.92
748.548	1952
748.737	1893.1
748.926	1896.01
749.114	1832.07
749.303	1920.04
749.491	1891.17
749.68	1852.42
749.869	1939.6
750.057	1909.96
750.246	1857.45
750.434	1891.94
750.623	1854.55
750.811	1872.95
751	1895.82
751.188	1897.37
751.377	1897.56
751.565	1847.77
751.754	1801.85
751.942	1831.3
752.131	1863.07
752.319	1851.45
752.507	1846.02
752.696	1864.43
752.884	1918.87
753.072	1840.21
753.261	1839.44
753.449	1843.7
753.637	1818.51
753.825	1916.16
754.014	1858.04
754.202	1840.99
754.39	1900.85
754.578	1877.22
754.766	1843.89
754.955	1857.45
755.143	1953.94
755.331	1835.56
755.519	1847.96
755.707	1882.25
755.895	1850.29
756.083	1853.97
756.271	1800.3
756.459	1793.91
756.647	1851.25
756.835	1872.37
757.023	1830.33
757.211	1814.06
757.399	1803.4
757.587	1819.48
757.775	1779.96
757.963	1794.68
758.151	1819.09
758.339	1791.58
758.526	1755.35
758.714	1817.74
758.902	1723.96
759.09	1693.16
759.278	1598.22
759.465	1489.53
759.653	1212.86
759.841	1180.11
760.028	961.57
760.216	847.06
760.404	846.68
760.591	653.32
760.779	569.42
760.967	468.29
761.154	379.94
761.342	415.98
761.529	416.75
761.717	480.3
761.905	429.54
762.092	478.94
762.28	415.59
762.467	459.76
762.655	383.23
762.842	390.21
763.029	425.86
763.217	441.74
763.404	455.31
763.592	494.64
763.779	406.48
763.966	439.61
764.154	480.49
764.341	533.77
764.528	504.91
764.716	564.19
764.903	594.03
765.09	596.74
765.277	640.53
765.465	743.02
765.652	782.55
765.839	812.38
766.026	874.77
766.213	894.34
766.4	946.84
766.588	1077.43
766.775	1053.79
766.962	1112.5
767.149	1097.38
767.336	1245.6
767.523	1219.25
767.71	1279.89
767.897	1335.89
768.084	1398.47
768.271	1365.14
768.458	1458.92
768.645	1505.8
768.832	1431.21
769.019	1435.28
769.206	1451.75
769.392	1555.98
769.579	1654.6
769.766	1556.95
769.953	1528.67
770.14	1595.9
770.327	1583.3
770.513	1626.51
770.7	1694.32
770.887	1549.98
771.073	1643.36
771.26	1619.34
771.447	1577.68
771.634	1611.2
771.82	1691.99
772.007	1597.45
772.193	1595.31
772.38	1638.91
772.567	1615.08
772.753	1636.58
772.94	1665.06
773.126	1686.96
773.313	1668.16
773.499	1680.37
773.686	1649.37
773.872	1623.21
774.059	1631.74
774.245	1566.25
774.432	1586.98
774.618	1533.32
774.804	1642.01
774.991	1541.26
775.177	1633.29
775.363	1616.24
775.55	1618.56
775.736	1593.96
775.922	1566.25
776.109	1583.5
776.295	1594.73
776.481	1602.1
776.667	1656.54
776.853	1579.43
777.04	1599.58
777.226	1566.64
777.412	1640.65
777.598	1574
777.784	1552.11
777.97	1557.15
778.156	1605.39
778.342	1521.3
778.528	1555.02
778.715	1524.98
778.901	1551.92
779.087	1594.73
779.272	1538.55
779.458	1515.49
779.644	1532.54
779.83	1528.28
780.016	1597.45
780.202	1543.39
780.388	1509.48
780.574	1452.33
780.76	1491.47
780.946	1555.79
781.131	1511.62
781.317	1503.28
781.503	1496.7
781.689	1514.13
781.874	1600.74
782.06	1512
782.246	1501.35
782.432	1496.89
782.617	1493.79
782.803	1546.1
782.989	1449.81
783.174	1495.34
783.36	1448.65
783.545	1452.14
783.731	1442.64
783.916	1392.66
784.102	1500.38
784.288	1426.95
784.473	1473.25
784.659	1438.77
784.844	1483.91
785.029	1422.49
785.215	1423.07
785.4	1364.37
785.586	1484.88
785.771	1408.54
785.956	1486.43
786.142	1427.53
786.327	1409.9
786.512	1424.62
786.698	1383.55
786.883	1363.59
787.068	1383.74
787.254	1396.72
787.439	1379.09
787.624	1408.74
787.809	1385.1
787.994	1379.48
788.18	1430.63
788.365	1331.04
788.55	1352.16
788.735	1392.07
788.92	1363.79
789.105	1335.11
789.29	1401.95
789.475	1379.09
789.66	1361.85
789.845	1315.93
790.03	1305.66
790.215	1354.1
790.4	1352.74
790.585	1406.6
790.77	1350.42
790.955	1254.32
791.14	1311.67
791.325	1361.85
791.51	1257.23
791.695	1321.74
791.879	1282.03
792.064	1239.4
792.249	1358.94
792.434	1324.07
792.618	1273.69
792.803	1314.77
792.988	1255.09
793.173	1316.9
793.357	1310.51
793.542	1256.64
793.727	1259.55
793.911	1304.5
794.096	1291.91
794.281	1308.76
794.465	1395.17
794.65	1324.46
794.834	1322.13
795.019	1364.95
795.203	1364.95
795.388	1349.64
795.572	1358.17
795.757	1355.26
795.941	1344.41
796.126	1334.34
796.31	1276.6
796.494	1299.27
796.679	1305.08
796.863	1287.06
797.048	1361.07
797.232	1326.39
797.416	1304.89
797.601	1316.9
797.785	1391.3
797.969	1401.57
798.153	1287.06
798.338	1359.91
798.522	1351.39
798.706	1330.85
798.89	1350.42
799.074	1405.64
799.258	1356.62
799.443	1318.45
799.627	1341.12
799.811	1347.9
799.995	1340.73
800.179	1306.24
800.363	1324.26
800.547	1353.91
800.731	1365.92
800.915	1285.9
801.099	1315.93
801.283	1350.22
801.467	1311.09
801.651	1306.44
801.835	1367.86
802.019	1355.46
802.202	1337.82
802.386	1272.73
802.57	1301.59
802.754	1292.49
802.938	1276.02
803.121	1305.28
803.305	1374.06
803.489	1321.36
803.673	1350.81
803.856	1345.77
804.04	1347.71
804.224	1363.01
804.407	1297.14
804.591	1321.94
804.775	1326.59
804.958	1324.26
805.142	1420.75
805.326	1312.44
805.509	1349.84
805.693	1370.57
805.876	1419.78
806.06	1365.92
806.243	1347.9
806.427	1396.53
806.61	1369.21
806.794	1319.22
806.977	1353.91
807.16	1345.38
807.344	1346.93
807.527	1385.1
807.71	1324.07
807.894	1357.2
808.077	1363.01
808.26	1296.94
808.444	1296.94
808.627	1364.76
808.81	1314.96
808.993	1288.23
809.177	1281.25
809.36	1335.31
809.543	1370.76
809.726	1250.44
809.909	1282.8
810.092	1221.77
810.276	1233.78
810.459	1278.93
810.642	1256.26
810.825	1251.8
811.008	1210.73
811.191	1144.66
811.374	1181.08
811.557	1194.65
811.74	1296.75
811.923	1183.02
812.106	1162.29
812.289	1130.13
812.472	1165.97
812.654	1195.81
812.837	1127.22
813.02	1088.47
813.203	1116.37
813.386	1071.42
813.569	1070.45
813.751	990.82
813.934	1057.86
814.117	1035.39
814.3	1001.09
814.482	1006.9
814.665	991.4
814.848	954.4
815.03	935.61
815.213	934.44
815.396	956.34
815.578	928.44
815.761	865.66
815.943	942.97
816.126	837.76
816.309	835.63
816.491	817.03
816.674	790.1
816.856	846.68
817.039	785.65
817.221	902.67
817.403	820.52
817.586	843.96
817.768	868.96
817.951	797.66
818.133	786.61
818.315	802.11
818.498	848.23
818.68	905.57
818.862	901.7
819.045	848.03
819.227	854.23
819.409	802.31
819.591	854.81
819.774	836.6
819.956	792.04
820.138	907.71
820.32	849.39
820.502	902.67
820.684	915.84
820.866	914.49
821.048	960.79
821.231	944.71
821.413	930.37
821.595	917.97
821.777	931.34
821.959	911.19
822.141	980.55
822.323	884.26
822.505	849
822.686	860.04
822.868	826.72
823.05	757.55
823.232	770.34
823.414	701.75
823.596	771.89
823.778	757.94
823.96	733.91
824.141	746.7
824.323	775.96
824.505	819.55
824.687	831.76
824.868	814.32
825.05	929.79
825.232	918.75
825.413	964.28
825.595	921.46
825.777	866.83
825.958	924.17
826.14	932.7
826.321	914.1
826.503	894.72
826.685	930.96
826.866	937.74
827.048	910.03
827.229	876.51
827.411	912.94
827.592	822.46
827.773	879.03
827.955	829.82
828.136	824.78
828.318	803.28
828.499	818.19
828.68	790.88
828.862	829.43
829.043	856.75
829.224	856.75
829.406	791.84
829.587	805.6
829.768	838.34
829.949	841.64
830.131	810.44
830.312	847.64
830.493	825.17
830.674	865.66
830.855	824.78
831.036	825.75
831.218	882.32
831.399	895.31
831.58	849.19
831.761	841.25
831.942	872.25
832.123	824.39
832.304	769.95
832.485	789.91
832.666	825.75
832.847	825.75
833.028	817.61
833.209	826.33
833.389	805.79
833.57	797.66
833.751	803.66
833.932	846.29
834.113	849.78
834.294	779.45
834.475	849
834.655	861.4
834.836	875.16
835.017	842.8
835.198	794.17
835.378	838.73
835.559	844.35
835.74	830.59
835.92	791.26
836.101	799.98
836.281	871.67
836.462	849
836.643	871.48
836.823	902.28
837.004	861.4
837.184	915.26
837.365	890.85
837.545	878.45
837.726	851.71
837.906	897.82
838.087	850.16
838.267	878.45
838.448	805.41
838.628	880.97
838.808	867.79
838.989	926.69
839.169	816.45
839.349	880.58
839.53	895.69
839.71	899.96
839.89	859.46
840.07	909.06
840.251	835.63
840.431	889.11
840.611	842.8
840.791	794.56
840.971	886.39
841.151	861.98
841.332	855.98
841.512	882.13
841.692	794.94
841.872	878.64
842.052	839.51
842.232	900.34
842.412	802.5
842.592	803.66
842.772	868.76
842.952	871.28
843.132	834.28
843.312	840.28
843.492	825.94
843.672	873.8
843.851	757.55
844.031	833.89
844.211	835.24
844.391	778.86
844.571	840.28
844.751	837.57
844.93	849.58
845.11	808.7
845.29	858.69
845.47	863.53
845.649	829.04
845.829	852.1
846.009	811.22
846.188	827.49
846.368	812.96
846.547	788.94
846.727	876.51
846.907	790.1
847.086	830.98
847.266	835.05
847.445	810.44
847.625	811.61
847.804	787.78
847.984	804.44
848.163	790.88
848.343	795.72
848.522	796.3
848.701	825.94
848.881	789.33
849.06	800.18
849.239	805.99
849.419	816.26
849.598	749.03
849.777	768.98
849.957	792.23
850.136	734.11
850.315	721.71
850.494	743.21
850.674	734.3
850.853	775.18
851.032	754.06
851.211	813.93
851.39	780.8
851.569	735.27
851.748	725.97
851.927	771.89
852.107	777.31
852.286	709.5
852.465	691.1
852.644	781.58
852.823	766.08
853.002	747.67
853.181	772.28
853.359	762.98
853.538	737.98
853.717	784.29
853.896	721.32
854.075	674.63
854.254	670.95
854.433	608.75
854.611	659.9
854.79	631.81
854.969	717.45
855.148	686.64
855.327	632.78
855.505	697.88
855.684	652.35
855.863	690.32
856.041	664.55
856.22	630.84
856.399	648.67
856.577	734.5
856.756	710.08
856.934	822.84
857.113	830.21
857.291	718.22
857.47	704.27
857.648	730.23
857.827	712.6
858.005	756
858.184	692.45
858.362	816.06
858.541	701.17
858.719	729.46
858.898	698.65
859.076	700.78
859.254	787.78
859.433	684.32
859.611	668.43
859.789	691.68
859.967	751.16
860.146	760.26
860.324	685.87
860.502	717.64
860.68	644.79
860.859	666.49
861.037	671.33
861.215	712.02
861.393	698.85
861.571	692.65
861.749	684.32
861.927	700.59
862.105	710.66
862.283	704.27
862.461	647.5
862.639	656.03
862.817	664.36
862.995	683.73
863.173	658.35
863.351	674.05
863.529	679.67
863.707	723.65
863.885	685.87
864.063	634.52
864.241	604.69
864.418	687.8
864.596	640.72
864.774	629.48
864.952	662.23
865.129	669.2
865.307	638.98
865.485	598.87
865.663	682.77
865.84	595.97
866.018	640.53
866.196	533.97
866.373	596.94
866.551	561.67
866.728	511.3
866.906	555.67
867.084	582.99
867.261	603.52
867.439	597.52
867.616	649.83
867.794	612.63
867.971	616.89
868.149	623.67
868.326	653.51
868.503	639.95
868.681	644.21
868.858	623.28
869.035	578.14
869.213	642.47
869.39	600.23
869.567	629.48
869.745	584.54
869.922	619.6
870.099	652.73
870.276	637.04
870.454	644.79
870.631	624.25
870.808	588.6
870.985	636.85
871.162	675.98
871.339	649.25
871.517	585.12
871.694	592.09
871.871	629.87
872.048	605.65
872.225	576.98
872.402	614.57
872.579	567.87
872.756	590.35
872.933	540.94
873.11	591.32
873.287	597.13
873.463	579.3
873.64	574.27
873.817	596.55
873.994	579.89
874.171	556.83
874.348	588.41
874.524	530.48
874.701	593.06
874.878	497.16
875.055	573.49
875.231	564.19
875.408	587.44
875.585	508.78
875.762	565.55
875.938	579.5
876.115	558.19
876.291	571.94
876.468	524.67
876.645	544.43
876.821	552.37
876.998	572.33
877.174	568.84
877.351	551.21
877.527	520.21
877.704	567.68
877.88	561.09
878.057	538.04
878.233	572.52
878.409	533.97
878.586	539.39
878.762	507.62
878.938	508.97
879.115	453.37
879.291	507.81
879.467	483.4
879.644	510.72
879.82	542.88
879.996	506.46
880.172	477.39
880.349	502.97
880.525	547.53
880.701	490.18
880.877	481.07
881.053	494.25
881.229	501.22
881.405	551.02
881.581	484.56
881.757	514.21
881.933	516.34
882.109	526.22
882.285	537.26
882.461	457.24
882.637	501.03
882.813	497.54
882.989	510.52
883.165	522.34
883.341	507.42
883.517	533.77
883.693	541.33
883.869	519.63
884.044	490.37
884.22	524.86
884.396	541.52
884.572	524.09
884.747	567.29
884.923	544.43
885.099	514.21
885.275	550.24
885.45	505.87
885.626	471.97
885.801	482.43
885.977	477.78
886.153	457.24
886.328	504.13
886.504	490.37
886.679	540.55
886.855	479.72
887.03	538.04
887.206	502.58
887.381	533
887.557	496.19
887.732	514.59
887.908	516.34
888.083	568.45
888.258	461.89
888.434	510.14
888.609	532.8
888.784	544.82
888.96	508.78
889.135	491.92
889.31	471.97
889.485	507.04
889.661	480.3
889.836	497.16
890.011	490.37
890.186	486.11
890.361	478.17
890.537	525.64
890.712	527.57
890.887	496.57
891.062	507.42
891.237	540.55
891.412	478.36
891.587	522.15
891.762	539.59
891.937	530.87
892.112	462.86
892.287	524.47
892.462	447.75
892.637	444.65
892.812	446.39
892.987	479.33
893.161	460.15
893.336	442.91
893.511	454.34
893.686	489.99
893.861	453.56
894.035	450.85
894.21	478.36
894.385	411.71
894.56	437.29
894.734	389.43
894.909	427.6
895.084	438.64
895.258	428.76
895.433	453.95
895.608	402.22
895.782	371.99
895.957	377.61
896.131	421.79
896.306	356.49
896.48	348.94
896.655	341.38
896.829	330.15
897.004	305.54
897.178	365.99
897.353	321.62
897.527	389.63
897.701	348.36
897.876	289.65
898.05	360.56
898.224	339.64
898.399	399.31
898.573	375.09
898.747	245.48
898.921	340.22
899.096	267.76
899.27	268.73
899.444	285
899.618	287.13
899.792	284.61
899.967	294.5
900.141	332.66
900.315	261.75
900.489	295.27
900.663	320.65
900.837	311.74
901.011	227.46
901.185	348.55
901.359	307.09
901.533	303.41
901.707	309.61
901.881	297.4
902.055	239.86
902.229	276.09
902.403	336.73
902.576	274.93
902.75	294.11
902.924	384.59
903.098	310.96
903.272	349.13
903.446	359.4
903.619	343.51
903.793	344.48
903.967	337.51
904.14	400.86
904.314	395.83
904.488	375.29
904.661	398.15
904.835	372.96
905.009	391.95
905.182	409.78
905.356	368.31
905.529	349.52
905.703	364.83
905.876	338.09
906.05	346.42
906.223	313.1
906.397	288.3
906.57	304.57
906.744	299.92
906.917	286.16
907.09	311.74
907.264	309.03
907.437	276.86
907.61	255.94
907.784	278.61
907.957	298.56
908.13	248.77
908.304	297.98
908.477	242.77
908.65	298.18
908.823	225.33
908.996	300.11
909.17	257.49
909.343	272.02
909.516	294.69
909.689	275.7
909.862	238.5
910.035	261.95
910.208	242.96
910.381	255.55
910.554	347.39
910.727	258.46
910.9	253.81
911.073	262.72
911.246	291.59
911.419	300.11
911.592	300.7
911.765	238.5
911.938	199.17
912.11	274.93
912.283	267.56
912.456	305.73
912.629	274.73
912.802	252.84
912.974	223.78
913.147	211.96
913.32	197.04
913.493	212.93
913.665	241.41
913.838	230.56
914.01	233.27
914.183	214.09
914.356	201.5
914.528	237.34
914.701	305.35
914.873	262.33
915.046	209.25
915.218	206.53
915.391	165.65
915.563	178.83
915.736	236.37
915.908	260.01
916.081	212.54
916.253	216.8
916.425	203.43
916.598	252.84
916.77	226.68
916.942	209.05
917.115	150.93
917.287	235.79
917.459	209.83
917.632	207.7
917.804	154.22
917.976	211.57
918.148	189.29
918.32	199.56
918.493	240.25
918.665	269.5
918.837	200.33
919.009	274.93
919.181	262.72
919.353	211.96
919.525	243.93
919.697	223.58
919.869	200.14
920.041	259.23
920.213	298.56
920.385	258.65
920.557	209.25
920.729	244.51
920.901	247.42
921.073	201.11
921.244	205.57
921.416	242.18
921.588	219.71
921.76	216.61
921.932	315.81
922.103	217.97
922.275	233.47
922.447	242.38
922.619	148.99
922.79	199.95
922.962	204.98
923.134	238.5
923.305	189.68
923.477	175.34
923.648	203.43
923.82	225.13
923.991	138.72
924.163	145.5
924.335	175.34
924.506	162.36
924.677	251.68
924.849	166.82
925.02	180.57
925.192	228.23
925.363	193.94
925.535	207.7
925.706	174.57
925.877	233.66
926.049	182.12
926.22	208.47
926.391	200.92
926.562	215.06
926.734	179.02
926.905	209.83
927.076	165.85
927.247	191.81
927.419	160.04
927.59	173.99
927.761	179.41
927.932	156.55
928.103	173.99
928.274	135.04
928.445	128.07
928.616	137.37
928.787	196.27
928.958	193.36
929.129	190.07
929.3	179.99
929.471	137.95
929.642	111.6
929.813	71.49
929.984	144.54
930.155	65.49
930.326	125.74
930.496	97.84
930.667	35.07
930.838	107.14
931.009	53.28
931.18	74.4
931.35	101.72
931.521	102.88
931.692	69.94
931.863	10.66
932.033	68.59
932.204	76.72
932.374	100.75
932.545	13.76
932.716	98.81
932.886	104.82
933.057	0.97
933.227	45.14
933.398	107.34
933.568	31.97
933.739	-1.36
933.909	16.47
934.08	97.45
934.25	-16.27
934.421	12.01
934.591	35.84
934.761	28.09
934.932	-17.82
935.102	21.89
935.272	29.26
935.443	32.16
935.613	30.03
935.783	31
935.953	-10.07
936.123	160.04
936.294	8.52
936.464	38.94
936.634	20.54
936.804	-25.38
936.974	-49.99
937.144	39.14
937.314	22.67
937.484	21.89
937.655	4.65
937.825	55.99
937.995	-17.82
938.165	62
938.334	29.26
938.504	27.9
938.674	-1.36
938.844	8.33
939.014	44.76
939.184	28.87
939.354	79.63
939.524	57.35
939.694	0.19
939.863	23.25
940.033	120.32
940.203	74.01
940.373	78.86
940.542	98.04
940.712	37.59
940.882	71.11
941.051	85.83
941.221	92.22
941.391	80.79
941.56	18.79
941.73	31.39
941.899	126.13
942.069	38.94
942.238	60.26
942.408	30.61
942.577	66.07
942.747	37.97
942.916	-10.66
943.086	31.97
943.255	82.54
943.425	62.19
943.594	51.15
943.763	-34.1
943.933	2.71
944.102	-19.76
944.271	17.44
944.441	38.17
944.61	19.96
944.779	32.94
944.948	103.27
945.117	-15.69
945.287	33.91
945.456	-7.17
945.625	23.44
945.794	50.57
945.963	17.82
946.132	32.94
946.301	23.06
946.47	63.16
946.639	-16.27
946.808	3.29
946.977	52.12
947.146	69.94
947.315	18.21
947.484	57.16
947.653	27.9
947.822	0.19
947.991	-1.74
948.16	108.89
948.329	50.37
948.498	24.61
948.666	17.24
948.835	52.12
949.004	4.65
949.173	-17.24
949.341	40.11
949.51	64.52
949.679	85.64
949.847	65.1
950.016	96.68
950.185	63.74
950.353	22.67
950.522	27.71
950.69	51.92
950.859	11.62
951.028	56.96
951.196	40.11
951.365	24.41
951.533	60.84
951.701	58.71
951.87	69.17
952.038	1.55
952.207	43.59
952.375	99.97
952.543	45.34
952.712	43.4
952.88	17.24
953.048	93.58
953.217	53.09
953.385	31
953.553	68.59
953.721	1.36
953.89	37.2
954.058	-17.82
954.226	2.13
954.394	49.6
954.562	-23.64
954.73	36.42
954.898	18.99
955.067	59.87
955.235	35.84
955.403	49.79
955.571	109.66
955.739	51.34
955.907	4.84
956.075	10.85
956.243	-6.01
956.41	60.06
956.578	6.2
956.746	-7.36
956.914	13.76
957.082	70.14
957.25	58.12
957.418	5.42
957.585	33.52
957.753	74.21
957.921	-17.24
958.089	12.21
958.256	57.54
958.424	42.24
958.592	39.33
958.759	15.89
958.927	55.8
959.095	16.27
959.262	29.06
959.43	46.69
959.597	16.08
959.765	40.49
959.932	-2.91
960.1	89.9
960.267	24.99
960.435	40.69
960.602	72.46
960.77	16.08
960.937	-11.82
961.104	31.39
961.272	-24.41
961.439	15.89
961.606	79.44
961.774	66.07
961.941	42.04
962.108	51.15
962.275	40.11
962.443	78.66
962.61	50.96
962.777	93.39
962.944	60.64
963.111	49.99
963.278	54.64
963.446	27.51
963.613	57.93
963.78	46.11
963.947	73.82
964.114	49.6
964.281	117.6
964.448	61.03
964.615	27.9
964.782	49.02
964.949	51.92
965.116	54.25
965.282	107.53
965.449	25.96
965.616	10.07
965.783	76.92
965.95	64.13
966.117	7.36
966.283	51.54
966.45	40.3
966.617	54.64
966.784	78.27
966.95	85.83
967.117	86.02
967.284	-23.25
967.45	8.72
967.617	81.37
967.784	64.32
967.95	86.8
968.117	54.83
968.283	78.08
968.45	152.09
968.616	62
968.783	68.01
968.949	50.57
969.116	84.67
969.282	67.62
969.449	71.11
969.615	15.5
969.781	25.77
969.948	27.12
970.114	-4.65
970.28	110.24
970.447	54.44
970.613	77.89
970.779	60.64
970.945	65.29
971.112	47.86
971.278	57.16
971.444	49.79
971.61	96.1
971.776	12.79
971.942	90.67
972.108	75.56
972.275	54.25
972.441	37.39
972.607	112.57
972.773	31.77
972.939	66.84
973.105	33.91
973.271	17.44
973.437	40.49
973.602	5.42
973.768	61.03
973.934	62.19
974.1	58.9
974.266	-12.98
974.432	53.28
974.598	36.62
974.763	91.06
974.929	36.23
975.095	122.25
975.261	24.8
975.426	9.69
975.592	49.99
975.758	106.75
975.923	-5.62
976.089	55.02
976.255	88.74
976.42	52.89
976.586	64.91
976.751	36.62
976.917	126.9
977.082	73.04
977.248	13.56
977.413	-3.1
977.579	34.68
977.744	47.86
977.91	11.82
978.075	15.31
978.24	87.57
978.406	52.7
978.571	16.47
978.736	17.63
978.902	45.92
979.067	21.31
979.232	-23.25
979.397	43.4
979.563	89.9
979.728	8.72
979.893	49.99
980.058	30.42
980.223	51.15
980.388	32.55
980.554	22.67
980.719	24.61
980.884	68.2
981.049	73.62
981.214	20.73
981.379	55.02
981.544	16.66
981.709	52.51
981.874	28.29
982.039	32.94
982.204	76.92
982.368	37.2
982.533	2.71
982.698	61.61
982.863	91.84
983.028	49.99
983.193	62.58
983.357	62
983.522	61.03
983.687	22.47
983.852	45.72
984.016	43.59
984.181	74.59
984.346	36.04
984.51	61.81
984.675	40.3
984.839	76.14
985.004	61.03
985.168	79.24
985.333	87.77
985.498	24.61
985.662	59.87
985.827	61.03
985.991	54.06
986.155	27.32
986.32	88.74
986.484	81.18
986.649	49.79
986.813	-2.71
986.977	35.84
987.142	52.7
987.306	0.39
987.47	12.21
987.634	40.49
987.799	64.71
987.963	61.03
988.127	66.84
988.291	99.59
988.455	35.65
988.62	28.48
988.784	51.15
988.948	74.98
989.112	12.98
989.276	44.76
989.44	38.94
989.604	16.86
989.768	40.88
989.932	141.05
990.096	11.82
990.26	19.96
990.424	-2.91
990.588	28.87
990.752	114.7
990.915	69.17
991.079	9.11
991.243	40.3
991.407	53.28
991.571	49.79
991.734	58.32
991.898	70.72
992.062	136.4
992.226	37.39
992.389	23.06
992.553	-6.2
992.717	30.03
992.88	46.11
993.044	42.82
993.207	33.91
993.371	62.97
993.535	53.47
993.698	41.66
993.862	69.17
994.025	87.19
994.189	50.18
994.352	80.99
994.515	73.04
994.679	92.03
994.842	27.32
995.006	61.03
995.169	16.08
995.332	31
995.496	70.72
995.659	6.2
995.822	30.42
995.985	33.13
996.149	67.23
996.312	44.37
996.475	105.79
996.638	18.6
996.801	88.15
996.964	108.89
997.128	10.85
997.291	24.61
997.454	53.67
997.617	9.49
997.78	54.83
997.943	28.67
998.106	71.3
998.269	12.21
998.432	25.96
998.595	51.73
998.758	-32.36
998.92	23.25
999.083	-26.16
999.246	10.85
999.409	17.05
999.572	-18.41
999.735	11.24
999.897	51.73
1000.06	12.01
1000.223	-1.16
1000.386	52.89
1000.548	51.34
1000.711	32.36
1000.874	32.74
1001.036	-11.24
1001.199	64.71
1001.361	28.09
1001.524	44.56
1001.687	61.22
1001.849	14.92
1002.012	22.67
1002.174	2.71
1002.337	74.98
1002.499	18.41
1002.661	85.83
1002.824	-3.49
1002.986	10.66
1003.149	33.13
1003.311	-14.14
1003.473	84.86
1003.636	-12.4
1003.798	38.56
1003.96	45.53
1004.123	11.24
1004.285	2.71
1004.447	24.61
1004.609	32.55
1004.771	113.15
1004.933	-27.32
1005.096	4.46
1005.258	-36.62
1005.42	-3.29
1005.582	112.76
1005.744	51.34
1005.906	-8.33
1006.068	23.83
1006.23	-4.65
1006.392	-14.72
1006.554	7.56
1006.716	45.92
1006.878	48.44
1007.04	-15.11
1007.202	-5.42
1007.363	46.69
1007.525	38.36
1007.687	34.29
1007.849	87.96
1008.011	-5.23
1008.172	-18.41
1008.334	31.58
1008.496	51.73
1008.658	-13.17
1008.819	-19.37
1008.981	12.59
1009.143	24.41
1009.304	38.56
1009.466	43.98
1009.627	68.59
1009.789	127.49
1009.95	27.9
1010.112	2.52
1010.273	43.79
1010.435	12.59
1010.596	6.97
1010.758	13.17
1010.919	17.44
1011.081	-8.72
1011.242	24.02
1011.403	42.62
1011.565	21.31
1011.726	32.36
1011.887	4.26
1012.049	28.87
1012.21	31
1012.371	87.96
1012.532	-39.33
1012.693	25.38
1012.855	13.95
1013.016	35.07
1013.177	59.09
1013.338	22.47
1013.499	102.3
1013.66	36.42
1013.821	27.71
1013.982	33.71
1014.143	29.84
1014.304	-11.04
1014.465	11.24
1014.626	44.17
1014.787	13.37
1014.948	103.65
1015.109	-66.26
1015.27	54.64
1015.431	-15.31
1015.592	-15.5
1015.752	49.6
1015.913	23.44
1016.074	47.08
1016.235	39.91
1016.395	17.24
1016.556	4.07
1016.717	15.31
1016.877	62.97
1017.038	3.1
1017.199	29.06
1017.359	14.34
1017.52	35.84
1017.681	-3.29
1017.841	-0.97
1018.002	27.32
1018.162	13.37
1018.323	55.99
1018.483	33.32
1018.644	9.49
1018.804	-15.89
1018.964	-19.18
1019.125	12.98
1019.285	32.36
1019.446	-16.08
1019.606	-23.25
1019.766	-28.87
1019.926	39.72
1020.087	29.26
1020.247	-25.96
1020.407	34.68
1020.567	57.35
1020.728	27.12
1020.888	-5.04
1021.048	27.9
1021.208	-16.66
1021.368	6.97
1021.528	38.17
1021.688	45.14
1021.848	56.77
1022.008	24.41
1022.168	7.17
1022.328	29.06
1022.488	39.91
1022.648	5.23
1022.808	11.24
1022.968	26.93
1023.128	-17.82
1023.288	-18.79
1023.448	34.68
1023.608	28.29
1023.767	35.65
1023.927	10.27
1024.087	-12.01
1024.247	-7.94
1024.406	15.89
1024.566	-20.73
1024.726	-0.58
1024.885	38.17
1025.045	59.29
1025.205	8.52
1025.364	-26.74
1025.524	5.42
1025.683	0.58
1025.843	20.92
1026.003	30.81
1026.162	50.18
1026.321	26.16
1026.481	17.44
1026.64	-6.59
1026.8	14.34
1026.959	6.39
1027.119	31.58
1027.278	17.82
1027.437	-12.98
1027.597	16.47
1027.756	44.17
1027.915	29.06
1028.074	34.1
1028.234	-18.02
1028.393	41.85
1028.552	-14.72
1028.711	-43.01
1028.87	46.11
1029.03	-17.63
1029.189	12.01
1029.348	-56.77
1029.507	4.65
1029.666	-0.19
1029.825	4.26
1029.984	-19.37
1030.143	38.36
1030.302	-3.49
1030.461	-37.2
1030.62	20.15
1030.779	40.49
1030.938	-25.38
1031.097	-20.73
1031.255	18.02
1031.414	50.76
1031.573	81.76
1031.732	-51.54
1031.891	9.88
1032.049	43.59
1032.208	24.41
1032.367	-23.83
1032.525	12.01
1032.684	16.47
1032.843	22.86
1033.001	-15.11
1033.16	166.24
1033.319	37.97
1033.477	42.82
1033.636	-32.94
1033.794	-39.72
1033.953	20.73
1034.111	25.77
1034.27	13.95
1034.428	16.66
1034.587	0
1034.745	8.33
1034.903	37.2
1035.062	11.62
1035.22	-18.99
1035.378	20.54
1035.537	-1.16
1035.695	39.72
1035.853	8.72
1036.011	53.47
1036.17	20.54
1036.328	-55.02
1036.486	12.21
1036.644	29.84
1036.802	-52.12
1036.96	12.4
1037.119	9.11
1037.277	-7.75
1037.435	-37.78
1037.593	-15.11
1037.751	-0.39
1037.909	60.06
1038.067	60.06
