Data from pine_FLMT105791__30__17-20-04-079.txt Node

Date: Mon Mar 20 17:20:04 GMT 2023
User: antho
Spectrometer: FLMT10579
Trigger mode: 0
Integration Time (sec): 1.000000E-1
Scans to average: 10
Electric dark correction enabled: true
Nonlinearity correction enabled: false
Boxcar width: 0
XAxis mode: Wavelengths
Number of Pixels in Spectrum: 3648
>>>>>Begin Spectral Data<<<<<
345.248	-161.73
345.464	-161.73
345.681	-161.73
345.898	-165.99
346.114	-159.79
346.331	-19.91
346.548	17.1
346.764	-0.15
346.981	3.73
347.197	-21.07
347.414	13.42
347.631	-15.45
347.847	45.39
348.064	-10.8
348.28	20.2
348.497	-42.96
348.713	10.51
348.93	13.8
349.146	10.7
349.363	-7.51
349.579	39.96
349.796	5.09
350.012	-10.22
350.229	28.14
350.445	8.77
350.661	5.67
350.878	-4.8
351.094	19.23
351.311	0.82
351.527	13.03
351.743	-7.51
351.96	57.01
352.176	37.83
352.392	11.67
352.609	50.81
352.825	3.15
353.041	-4.8
353.257	-2.86
353.474	8.77
353.69	12.45
353.906	31.05
354.122	-11.96
354.339	60.5
354.555	4.7
354.771	-10.61
354.987	58.95
355.203	84.91
355.42	18.45
355.636	0.63
355.852	9.93
356.068	24.85
356.284	-29.98
356.5	52.17
356.716	20
356.932	0.24
357.148	25.24
357.364	-2.86
357.58	50.04
357.796	74.06
358.012	66.7
358.228	-0.34
358.444	-30.95
358.66	70.57
358.876	36.09
359.092	-11
359.308	23.88
359.524	34.92
359.74	13.42
359.956	-17.97
360.172	5.28
360.388	42.67
360.604	7.8
360.819	108.16
361.035	1.4
361.251	21.55
361.467	-3.44
361.683	37.83
361.898	11.67
362.114	51
362.33	33.37
362.546	61.85
362.762	-11.19
362.977	22.72
363.193	-7.51
363.409	64.95
363.624	-24.94
363.84	-13.9
364.056	-1.89
364.271	52.55
364.487	-1.31
364.703	-0.15
364.918	12.45
365.134	-10.8
365.35	21.36
365.565	120.17
365.781	18.26
365.996	28.72
366.212	95.57
366.427	26.59
366.643	3.15
366.858	-3.44
367.074	-33.28
367.289	66.7
367.505	103.12
367.72	-19.71
367.936	-18.75
368.151	41.51
368.367	49.84
368.582	33.76
368.798	1.21
369.013	83.94
369.228	22.91
369.444	36.09
369.659	55.85
369.874	64.76
370.09	70.18
370.305	-36.96
370.52	3.34
370.736	52.94
370.951	7.41
371.166	80.26
371.381	74.64
371.597	41.12
371.812	-6.54
372.027	2.57
372.242	38.99
372.458	76.58
372.673	19.04
372.888	4.89
373.103	25.62
373.318	89.95
373.533	43.25
373.749	34.34
373.964	-7.51
374.179	50.23
374.394	-31.73
374.609	61.85
374.824	2.57
375.039	67.47
375.254	28.72
375.469	85.68
375.684	8.57
375.899	76.77
376.114	21.55
376.329	27.37
376.544	63.4
376.759	59.53
376.974	19.42
377.189	-7.7
377.404	8.19
377.619	56.43
377.834	-6.15
378.049	-29.21
378.264	3.73
378.478	57.4
378.693	-6.93
378.908	39.77
379.123	-14.68
379.338	59.14
379.553	47.52
379.767	48.29
379.982	51.97
380.197	56.62
380.412	16.52
380.626	43.64
380.841	99.63
381.056	60.5
381.271	84.13
381.485	-7.51
381.7	0.82
381.915	8.19
382.129	-17
382.344	55.85
382.559	21.94
382.773	44.61
382.988	-52.84
383.202	33.18
383.417	2.76
383.632	141.68
383.846	47.9
384.061	20.59
384.275	-0.92
384.49	27.95
384.704	67.86
384.919	22.91
385.133	33.95
385.348	59.72
385.562	-23.39
385.777	54.69
385.991	14.77
386.206	29.89
386.42	-12.16
386.634	90.14
386.849	48.87
387.063	57.2
387.277	-19.71
387.492	27.75
387.706	-19.71
387.92	-9.45
388.135	57.98
388.349	61.85
388.563	54.49
388.778	11.09
388.992	51.39
389.206	82.2
389.42	117.65
389.635	29.5
389.849	50.04
390.063	78.13
390.277	57.01
390.491	69.8
390.706	85.49
390.92	83.36
391.134	14.77
391.348	51.59
391.562	-0.92
391.776	21.55
391.99	10.9
392.205	66.7
392.419	-4.21
392.633	30.27
392.847	73.48
393.061	24.46
393.275	94.4
393.489	53.72
393.703	40.93
393.917	51.59
394.131	6.83
394.345	74.06
394.559	41.32
394.773	25.04
394.986	48.29
395.2	32.79
395.414	69.22
395.628	41.7
395.842	28.92
396.056	44.22
396.27	-14.68
396.484	61.66
396.697	50.62
396.911	89.17
397.125	72.9
397.339	73.09
397.553	60.5
397.766	107.58
397.98	67.86
398.194	69.99
398.408	50.04
398.621	49.26
398.835	76.19
399.049	58.17
399.262	109.71
399.476	95.95
399.69	51.2
399.903	132.77
400.117	56.43
400.331	85.1
400.544	42.09
400.758	172.1
400.971	76.38
401.185	94.6
401.398	22.52
401.612	106.42
401.826	104.09
402.039	46.74
402.253	26.98
402.466	81.81
402.68	29.89
402.893	63.99
403.106	66.7
403.32	38.99
403.533	70.77
403.747	96.34
403.96	61.08
404.174	66.5
404.387	27.75
404.6	95.76
404.814	99.05
405.027	56.24
405.24	74.25
405.454	31.05
405.667	68.25
405.88	11.29
406.094	77.35
406.307	100.02
406.52	80.65
406.733	42.29
406.947	29.69
407.16	134.9
407.373	110.48
407.586	39.57
407.799	22.72
408.012	91.5
408.226	90.72
408.439	118.23
408.652	8.77
408.865	55.27
409.078	90.14
409.291	67.86
409.504	20.78
409.717	79.48
409.93	100.8
410.143	78.71
410.357	8.38
410.57	6.64
410.783	44.22
410.996	107.97
411.209	79.29
411.421	110.1
411.634	69.8
411.847	57.98
412.06	72.32
412.273	76.77
412.486	89.95
412.699	167.64
412.912	70.38
413.125	99.25
413.338	74.06
413.55	105.83
413.763	81.42
413.976	126.76
414.189	51.78
414.402	57.79
414.615	130.44
414.827	34.92
415.04	107.38
415.253	90.92
415.466	100.22
415.678	145.55
415.891	94.6
416.104	84.72
416.316	63.21
416.529	60.3
416.742	110.1
416.954	135.48
417.167	63.6
417.38	68.83
417.592	124.43
417.805	66.89
418.017	39.19
418.23	112.81
418.442	61.08
418.655	78.9
418.868	90.72
419.08	124.24
419.293	107.38
419.505	82.58
419.718	103.32
419.93	127.73
420.142	80.65
420.355	129.08
420.567	161.25
420.78	101.38
420.992	94.21
421.205	159.31
421.417	65.92
421.629	96.53
421.842	80.65
422.054	34.54
422.266	120.17
422.479	125.21
422.691	85.68
422.903	142.84
423.115	80.84
423.328	78.32
423.54	117.65
423.752	134.32
423.964	81.03
424.177	119.2
424.389	119.98
424.601	210.46
424.813	138.58
425.025	148.85
425.238	128.31
425.45	100.41
425.662	98.28
425.874	399.75
426.086	126.37
426.298	130.83
426.51	147.49
426.722	118.04
426.934	75.03
427.146	135.48
427.358	85.1
427.57	154.27
427.782	124.43
427.994	112.23
428.206	82.78
428.418	64.18
428.63	151.37
428.842	162.6
429.054	120.75
429.266	164.54
429.478	77.35
429.69	131.8
429.902	62.63
430.114	133.73
430.325	148.46
430.537	116.68
430.749	116.49
430.961	60.3
431.173	114.17
431.384	126.37
431.596	60.3
431.808	120.37
432.02	152.53
432.231	138
432.443	193.41
432.655	140.52
432.867	109.32
433.078	165.12
433.29	211.81
433.502	176.94
433.713	167.25
433.925	138.19
434.136	186.24
434.348	121.72
434.56	95.18
434.771	229.83
434.983	83.17
435.194	146.13
435.406	151.56
435.617	190.31
435.829	198.45
436.04	160.08
436.252	197.48
436.463	197.86
436.675	215.5
436.886	209.3
437.098	176.75
437.309	231.96
437.521	185.08
437.732	199.8
437.943	182.36
438.155	153.11
438.366	130.25
438.578	245.53
438.789	169.19
439	189.53
439.211	156.01
439.423	175.2
439.634	207.75
439.845	235.26
440.057	195.54
440.268	231.77
440.479	188.56
440.69	214.53
440.902	186.05
441.113	200.77
441.324	188.56
441.535	217.43
441.746	273.23
441.957	198.06
442.168	194.18
442.38	241.84
442.591	240.1
442.802	198.06
443.013	199.61
443.224	225.38
443.435	191.86
443.646	186.63
443.857	235.45
444.068	187.21
444.279	212.2
444.49	285.24
444.701	213.17
444.912	316.44
445.123	246.11
445.334	244.75
445.545	242.81
445.756	250.76
445.967	177.71
446.178	242.43
446.388	259.48
446.599	265.09
446.81	247.85
447.021	223.44
447.232	266.64
447.443	281.18
447.653	230.8
447.864	275.75
448.075	248.63
448.286	288.34
448.496	262.96
448.707	302.88
448.918	246.69
449.129	348.79
449.339	233.51
449.55	262.96
449.761	271.1
449.971	297.26
450.182	243.2
450.393	299.39
450.603	247.85
450.814	292.03
451.024	275.56
451.235	301.13
451.446	332.32
451.656	325.74
451.867	249.79
452.077	285.44
452.288	362.16
452.498	326.32
452.709	292.41
452.919	278.66
453.13	252.11
453.34	319.15
453.55	232.16
453.761	310.82
453.971	295.51
454.182	315.28
454.392	322.06
454.602	352.28
454.813	285.05
455.023	322.25
455.233	253.86
455.444	278.85
455.654	203.48
455.864	284.08
456.075	282.73
456.285	254.24
456.495	320.89
456.705	311.01
456.916	337.36
457.126	356.93
457.336	290.48
457.546	255.79
457.756	293.77
457.967	336.59
458.177	319.15
458.387	306.56
458.597	281.95
458.807	312.76
459.017	310.24
459.227	314.69
459.437	295.9
459.647	363.52
459.857	326.13
460.068	309.46
460.278	343.37
460.488	336.2
460.698	376.89
460.908	332.71
461.117	278.85
461.327	290.48
461.537	308.11
461.747	337.36
461.957	297.06
462.167	434.82
462.377	393.55
462.587	338.14
462.797	342.98
463.007	352.09
463.216	386.96
463.426	389.87
463.636	366.62
463.846	312.76
464.056	329.42
464.265	398.01
464.475	301.13
464.685	356.35
464.895	400.52
465.104	354.02
465.314	384.64
465.524	319.34
465.733	309.08
465.943	406.34
466.153	412.34
466.362	398.2
466.572	364.87
466.782	339.3
466.991	358.67
467.201	412.54
467.41	293.96
467.62	385.8
467.829	359.84
468.039	390.84
468.249	352.67
468.458	356.54
468.668	401.69
468.877	396.26
469.086	431.14
469.296	426.68
469.505	365.07
469.715	467.75
469.924	441.99
470.134	434.43
470.343	462.52
470.552	396.26
470.762	386.19
470.971	351.31
471.18	399.36
471.39	401.11
471.599	346.27
471.808	438.89
472.018	387.74
472.227	440.05
472.436	463.3
472.645	424.55
472.855	380.18
473.064	450.32
473.273	432.69
473.482	451.48
473.691	466.98
473.901	451.87
474.11	395.29
474.319	523.94
474.528	435.2
474.737	523.36
474.946	470.85
475.155	472.6
475.364	525.88
475.573	459.81
475.783	482.67
475.992	492.94
476.201	539.25
476.41	498.95
476.619	441.02
476.828	476.86
477.037	454.77
477.245	487.71
477.454	517.74
477.663	466.59
477.872	470.27
478.081	572.96
478.29	460.59
478.499	587.49
478.708	545.06
478.917	601.63
479.125	516
479.334	530.14
479.543	544.28
479.752	521.23
479.961	553.39
480.169	579.74
480.378	534.6
480.587	660.15
480.796	577.22
481.004	578
481.213	585.75
481.422	601.25
481.63	560.95
481.839	585.17
482.048	625.85
482.256	594.08
482.465	629.53
482.674	622.36
482.882	621.59
483.091	702.58
483.299	634.18
483.508	626.05
483.716	609.58
483.925	626.63
484.134	603.57
484.342	622.75
484.551	644.26
484.759	627.4
484.967	671.58
485.176	690.95
485.384	649.88
485.593	683.78
485.801	640.77
486.01	615.58
486.218	607.06
486.426	554.55
486.635	582.07
486.843	587.1
487.051	584.78
487.26	593.88
487.468	624.88
487.676	640.58
487.885	585.17
488.093	642.9
488.301	663.25
488.509	671.96
488.717	705.48
488.926	661.7
489.134	646.78
489.342	693.28
489.55	649.3
489.758	677.39
489.967	660.53
490.175	783.56
490.383	687.08
490.591	766.12
490.799	686.88
491.007	729.31
491.215	728.93
491.423	694.44
491.631	689.21
491.839	724.66
492.047	732.41
492.255	714.39
492.463	693.28
492.671	696.76
492.879	783.56
493.087	721.37
493.295	733.96
493.503	763.99
493.711	798.48
493.919	795.96
494.127	772.91
494.334	792.67
494.542	727.38
494.75	766.9
494.958	743.07
495.166	837.04
495.374	794.41
495.581	779.11
495.789	805.07
495.997	849.82
496.205	769.22
496.412	774.46
496.62	782.59
496.828	809.72
497.035	782.98
497.243	803.13
497.451	809.52
497.658	806.81
497.866	803.91
498.074	870.36
498.281	790.73
498.489	881.4
498.696	800.81
498.904	786.86
499.112	806.62
499.319	898.26
499.527	803.91
499.734	866.68
499.942	787.24
500.149	799.64
500.357	839.36
500.564	763.99
500.771	834.32
500.979	799.26
501.186	819.99
501.394	799.45
501.601	810.49
501.808	869.78
502.016	842.07
502.223	782.4
502.43	844.98
502.638	796.16
502.845	812.62
503.052	886.44
503.26	822.7
503.467	908.14
503.674	870.55
503.881	866.49
504.089	948.83
504.296	885.67
504.503	828.9
504.71	853.89
504.917	816.89
505.125	883.73
505.332	868.04
505.539	911.05
505.746	966.07
505.953	917.83
506.16	924.8
506.367	952.12
506.574	938.75
506.781	986.22
506.988	878.69
507.195	940.5
507.402	875.59
507.609	943.79
507.816	887.41
508.023	929.65
508.23	899.62
508.437	851.57
508.644	945.73
508.851	979.83
509.058	961.23
509.265	959.68
509.472	985.45
509.679	1036.98
509.885	943.6
510.092	977.5
510.299	930.81
510.506	975.37
510.713	1003.66
510.92	953.09
511.126	967.04
511.333	1013.35
511.54	1034.27
511.746	1009.47
511.953	1029.62
512.16	1059.65
512.367	994.17
512.573	978.47
512.78	995.72
512.987	984.28
513.193	1023.42
513.4	925.97
513.606	980.6
513.813	1025.94
514.02	1015.67
514.226	1099.76
514.433	1067.98
514.639	988.16
514.846	1018.58
515.052	993.39
515.259	1018
515.465	1028.85
515.672	1013.73
515.878	1100.73
516.085	1036.21
516.291	1091.23
516.497	1028.26
516.704	997.85
516.91	963.75
517.117	953.87
517.323	882.95
517.529	952.12
517.736	962.39
517.942	973.24
518.148	966.07
518.354	992.03
518.561	1043.18
518.767	997.07
518.973	1058.3
519.179	1067.4
519.386	1005.21
519.592	1040.47
519.798	1038.34
520.004	1140.83
520.21	1097.05
520.417	1122.62
520.623	1152.26
520.829	1159.24
521.035	1152.65
521.241	1165.44
521.447	1153.43
521.653	1296.8
521.859	1151.29
522.065	1192.18
522.271	1265.02
522.477	1204.57
522.683	1276.26
522.889	1174.16
523.095	1210.19
523.301	1170.86
523.507	1144.13
523.713	1222.98
523.919	1179.78
524.125	1249.52
524.331	1211.16
524.537	1300.67
524.742	1268.51
524.948	1272.58
525.154	1292.34
525.36	1373.33
525.566	1258.63
525.772	1318.5
525.977	1205.35
526.183	1274.32
526.389	1305.13
526.595	1241.77
526.8	1283.62
527.006	1203.61
527.212	1164.28
527.417	1162.14
527.623	1138.89
527.829	1252.24
528.034	1242.36
528.24	1246.42
528.446	1222.01
528.651	1328.57
528.857	1328.38
529.062	1390.57
529.268	1311.14
529.473	1337.29
529.679	1303.58
529.884	1371.39
530.09	1368.49
530.295	1430.68
530.501	1404.72
530.706	1348.92
530.912	1347.37
531.117	1356.09
531.323	1354.15
531.528	1416.53
531.733	1418.47
531.939	1378.75
532.144	1392.12
532.35	1405.68
532.555	1419.25
532.76	1383.02
532.966	1420.02
533.171	1373.33
533.376	1361.32
533.581	1299.9
533.787	1347.56
533.992	1371.2
534.197	1413.24
534.402	1378.75
534.607	1343.1
534.813	1507.6
535.018	1378.17
535.223	1369.45
535.428	1434.36
535.633	1437.27
535.838	1456.25
536.043	1429.13
536.249	1514.96
536.454	1460.52
536.659	1461.87
536.864	1438.23
537.069	1426.42
537.274	1482.21
537.479	1473.88
537.684	1451.6
537.889	1413.05
538.094	1560.68
538.299	1486.09
538.504	1495.39
538.708	1465.55
538.913	1499.26
539.118	1472.91
539.323	1511.28
539.528	1448.5
539.733	1448.31
539.938	1511.86
540.142	1536.08
540.347	1469.62
540.552	1417.12
540.757	1413.63
540.962	1409.56
541.166	1393.87
541.371	1396.38
541.576	1455.28
541.781	1353.57
541.985	1478.92
542.19	1464.58
542.395	1508.18
542.599	1544.8
542.804	1513.41
543.008	1541.89
543.213	1462.45
543.418	1446.37
543.622	1523.48
543.827	1450.25
544.031	1512.25
544.236	1565.91
544.44	1529.88
544.645	1581.61
544.849	1509.92
545.054	1534.53
545.258	1629.27
545.463	1581.61
545.667	1511.08
545.872	1549.64
546.076	1596.72
546.281	1548.67
546.485	1519.22
546.689	1536.66
546.894	1575.79
547.098	1554.87
547.302	1481.25
547.507	1536.27
547.711	1561.65
547.915	1592.07
548.119	1523.68
548.324	1542.66
548.528	1604.86
548.732	1563.59
548.936	1599.63
549.141	1621.13
549.345	1517.09
549.549	1595.17
549.753	1581.22
549.957	1645.54
550.161	1627.91
550.366	1548.09
550.57	1558.36
550.774	1554.09
550.978	1546.93
551.182	1602.92
551.386	1528.13
551.59	1569.98
551.794	1572.31
551.998	1576.96
552.202	1597.3
552.406	1540.53
552.61	1613.19
552.814	1588.97
553.018	1630.43
553.222	1564.17
553.426	1599.43
553.63	1652.52
553.833	1568.43
554.037	1524.06
554.241	1607.57
554.445	1574.44
554.649	1579.86
554.853	1540.73
555.056	1605.63
555.26	1619.39
555.464	1597.11
555.668	1589.36
555.871	1617.64
556.075	1621.71
556.279	1514.18
556.483	1542.86
556.686	1538.79
556.89	1532.78
557.094	1536.85
557.297	1498.49
557.501	1610.67
557.704	1471.75
557.908	1584.71
558.112	1471.56
558.315	1597.49
558.519	1525.23
558.722	1522.71
558.926	1492.68
559.129	1447.92
559.333	1445.79
559.536	1472.91
559.74	1484.35
559.943	1439.98
560.147	1448.31
560.35	1497.33
560.553	1455.09
560.757	1421.96
560.96	1537.05
561.164	1485.12
561.367	1545.57
561.57	1469.43
561.774	1541.7
561.977	1476.6
562.18	1477.76
562.384	1596.91
562.587	1458.38
562.79	1462.45
562.993	1470.98
563.197	1533.95
563.4	1550.03
563.603	1554.68
563.806	1586.45
564.009	1486.28
564.212	1510.31
564.416	1416.15
564.619	1481.83
564.822	1398.9
565.025	1495.97
565.228	1443.27
565.431	1455.48
565.634	1374.1
565.837	1465.75
566.04	1415.95
566.243	1419.25
566.446	1353.37
566.649	1457.8
566.852	1387.28
567.055	1426.22
567.258	1442.3
567.461	1511.08
567.664	1464.2
567.867	1365
568.07	1440.95
568.273	1419.05
568.475	1452.77
568.678	1384.57
568.881	1344.27
569.084	1386.89
569.287	1303.58
569.489	1327.02
569.692	1392.32
569.895	1394.83
570.098	1307.84
570.3	1302.61
570.503	1265.8
570.706	1306.68
570.909	1317.34
571.111	1254.17
571.314	1295.44
571.516	1277.42
571.719	1305.71
571.922	1317.53
572.124	1299.12
572.327	1304.35
572.529	1232.47
572.732	1234.61
572.935	1326.83
573.137	1374.49
573.34	1289.05
573.542	1339.42
573.745	1345.24
573.947	1348.92
574.15	1280.52
574.352	1271.81
574.554	1350.08
574.757	1258.24
574.959	1244.1
575.162	1261.92
575.364	1197.21
575.566	1363.84
575.769	1222.4
575.971	1292.15
576.173	1155.75
576.376	1265.41
576.578	1277.81
576.78	1321.02
576.982	1195.47
577.185	1253.59
577.387	1201.86
577.589	1207.87
577.791	1255.53
577.993	1240.42
578.196	1204.38
578.398	1218.33
578.6	1261.15
578.802	1195.86
579.004	1191.4
579.206	1182.68
579.408	1197.02
579.61	1190.43
579.812	1283.04
580.014	1202.25
580.216	1196.05
580.418	1216.97
580.62	1209.22
580.822	1166.99
581.024	1250.3
581.226	1247.01
581.428	1202.83
581.63	1278.01
581.832	1190.04
582.034	1261.92
582.236	1240.61
582.438	1258.24
582.64	1261.54
582.841	1295.64
583.043	1321.02
583.245	1259.99
583.447	1266.38
583.649	1217.56
583.85	1266.19
584.052	1305.9
584.254	1222.79
584.456	1297.38
584.657	1199.34
584.859	1272.19
585.061	1228.99
585.262	1168.15
585.464	1180.94
585.666	1263.28
585.867	1202.83
586.069	1249.72
586.27	1222.4
586.472	1224.14
586.674	1176.87
586.875	1177.45
587.077	1194.11
587.278	1221.62
587.48	1186.36
587.681	1287.5
587.883	1230.34
588.084	1149.94
588.285	1200.31
588.487	1190.24
588.688	1199.34
588.89	1088.91
589.091	1081.74
589.292	1127.66
589.494	1073.8
589.695	1054.03
589.896	1010.25
590.098	1023.42
590.299	1051.32
590.5	1015.28
590.702	1019.16
590.903	1099.18
591.104	1132.89
591.305	1072.05
591.507	1157.11
591.708	1160.21
591.909	1098.4
592.11	1173.96
592.311	1135.41
592.512	1080.58
592.714	1032.91
592.915	1053.26
593.116	1098.6
593.317	1086.97
593.518	1084.84
593.719	1134.83
593.92	1113.13
594.121	1141.61
594.322	1082.9
594.523	1092.59
594.724	1065.85
594.925	1071.28
595.126	1109.25
595.327	1099.76
595.528	1109.06
595.729	1111.38
595.929	1070.7
596.13	1090.46
596.331	1130.56
596.532	1110.22
596.733	1153.04
596.934	1160.79
597.135	1120.1
597.335	1111.19
597.536	1094.72
597.737	1122.23
597.938	1069.92
598.138	1105.96
598.339	1082.32
598.54	1131.14
598.74	1102.28
598.941	1084.06
599.142	1143.16
599.342	1118.55
599.543	1036.01
599.744	1045.12
599.944	1103.63
600.145	1111
600.345	1114.68
600.546	1192.56
600.746	1159.43
600.947	1147.61
601.147	1131.92
601.348	1174.74
601.548	1074.18
601.749	1098.79
601.949	1029.23
602.15	1046.28
602.35	1065.66
602.551	1137.15
602.751	1057.71
602.951	1082.51
603.152	1018.38
603.352	1124.56
603.552	1100.73
603.753	1099.56
603.953	1106.93
604.153	1105.38
604.354	1088.13
604.554	1074.18
604.754	1083.87
604.954	1057.91
605.155	1124.75
605.355	1097.24
605.555	1146.64
605.755	1157.88
605.955	1095.5
606.155	1142.77
606.356	1089.3
606.556	1145.68
606.756	1117.58
606.956	1078.06
607.156	1144.71
607.356	1065.27
607.556	1098.6
607.756	1101.31
607.956	1142.58
608.156	1123.01
608.356	1042.41
608.556	1105.38
608.756	1125.33
608.956	1061.4
609.156	1105.57
609.356	1036.79
609.556	1049.38
609.755	1046.28
609.955	1025.94
610.155	1068.76
610.355	1097.05
610.555	1027.49
610.755	1048.41
610.954	987
611.154	1060.81
611.354	1092.2
611.554	1023.03
611.753	1049.58
611.953	988.35
612.153	1072.83
612.352	1044.73
612.552	995.33
612.752	981.77
612.951	1030.59
613.151	1047.25
613.351	989.9
613.55	1011.41
613.75	1017.22
613.949	991.07
614.149	1037.56
614.348	990.29
614.548	977.5
614.747	957.74
614.947	998.82
615.146	924.61
615.346	1051.13
615.545	1026.33
615.745	1024.78
615.944	1018.97
616.144	1011.99
616.343	1028.26
616.542	959.87
616.742	946.31
616.941	994.55
617.14	938.37
617.34	995.52
617.539	989.13
617.738	944.95
617.938	1024.97
618.137	1004.82
618.336	935.65
618.535	1005.98
618.734	973.05
618.934	1011.22
619.133	993.39
619.332	978.67
619.531	954.83
619.73	979.44
619.929	1027.1
620.128	979.25
620.328	1018.58
620.527	958.9
620.726	981.77
620.925	981.57
621.124	956.77
621.323	986.03
621.522	914.92
621.721	957.35
621.92	909.3
622.119	973.24
622.318	940.3
622.517	931.97
622.715	938.75
622.914	885.28
623.113	965.49
623.312	898.07
623.511	964.52
623.71	925.77
623.909	893.22
624.107	994.94
624.306	886.05
624.505	873.65
624.704	886.05
624.902	912.4
625.101	964.52
625.3	947.86
625.499	915.31
625.697	913.57
625.896	898.45
626.095	937.4
626.293	889.93
626.492	893.22
626.69	964.72
626.889	884.31
627.088	940.3
627.286	836.84
627.485	878.89
627.683	908.92
627.882	906.79
628.08	852.92
628.279	854.09
628.477	908.34
628.676	829.29
628.874	875.4
629.073	868.62
629.271	834.91
629.469	865.32
629.668	868.42
629.866	844.79
630.065	843.24
630.263	881.6
630.461	823.67
630.66	889.15
630.858	873.46
631.056	905.24
631.254	888.19
631.453	844.01
631.651	887.99
631.849	877.92
632.047	897.68
632.245	833.16
632.444	853.89
632.642	882.76
632.84	895.74
633.038	897.29
633.236	816.31
633.434	817.66
633.632	852.92
633.83	815.53
634.028	884.31
634.227	854.86
634.425	953.48
634.623	880.63
634.821	868.81
635.019	878.89
635.216	880.24
635.414	898.65
635.612	871.91
635.81	869.39
636.008	932.36
636.206	868.81
636.404	897.87
636.602	854.47
636.8	889.93
636.997	866.1
637.195	882.76
637.393	862.42
637.591	935.07
637.789	891.29
637.986	865.71
638.184	842.27
638.382	910.08
638.58	924.42
638.777	948.44
638.975	871.52
639.173	855.05
639.37	880.82
639.568	875.2
639.765	887.22
639.963	855.05
640.161	901.55
640.358	886.44
640.556	824.06
640.753	844.4
640.951	833.74
641.148	878.11
641.346	839.17
641.543	880.63
641.741	873.27
641.938	820.96
642.136	856.22
642.333	802.16
642.531	887.8
642.728	902.52
642.925	832.77
643.123	842.27
643.32	877.72
643.517	829.48
643.715	841.3
643.912	833.16
644.109	848.08
644.306	845.17
644.504	790.34
644.701	838.78
644.898	850.79
645.095	806.42
645.293	832.58
645.49	820.76
645.687	840.91
645.884	852.73
646.081	785.11
646.278	794.99
646.475	786.86
646.672	798.67
646.87	805.26
647.067	793.25
647.264	810.49
647.461	737.45
647.658	758.18
647.855	782.4
648.052	769.22
648.249	674.48
648.446	777.94
648.642	737.64
648.839	722.73
649.036	754.69
649.233	720.4
649.43	717.3
649.627	700.83
649.824	739.39
650.021	732.99
650.217	729.12
650.414	731.83
650.611	760.7
650.808	769.03
651.004	738.42
651.201	787.44
651.398	792.86
651.595	734.35
651.791	755.86
651.988	774.65
652.185	747.91
652.381	755.08
652.578	668.28
652.775	757.6
652.971	735.9
653.168	734.35
653.364	803.13
653.561	714.59
653.757	741.91
653.954	759.34
654.15	684.17
654.347	779.3
654.543	729.12
654.74	671.19
654.936	713.81
655.133	757.41
655.329	733.77
655.525	700.06
655.722	728.93
655.918	648.33
656.115	713.81
656.311	635.35
656.507	610.55
656.704	597.37
656.9	636.31
657.096	583.81
657.292	620.43
657.489	684.75
657.685	683.98
657.881	641.16
658.077	676.61
658.273	681.84
658.47	747.14
658.666	694.83
658.862	711.68
659.058	687.08
659.254	719.43
659.45	667.51
659.646	694.44
659.842	686.69
660.038	747.91
660.234	695.21
660.43	712.65
660.626	778.14
660.822	731.64
661.018	726.99
661.214	703.35
661.41	657.43
661.606	749.08
661.802	725.24
661.998	710.33
662.194	682.43
662.39	743.46
662.586	720.4
662.781	726.21
662.977	726.41
663.173	742.68
663.369	706.26
663.564	697.15
663.76	738.03
663.956	689.59
664.152	750.24
664.347	655.3
664.543	676.03
664.739	697.34
664.934	634.57
665.13	617.13
665.326	708.97
665.521	687.27
665.717	639.41
665.912	662.86
666.108	595.63
666.304	667.31
666.499	629.92
666.695	610.93
666.89	665.96
667.086	693.47
667.281	697.73
667.477	727.76
667.672	695.21
667.867	649.88
668.063	673.32
668.258	615.97
668.454	678.36
668.649	721.56
668.844	679.52
669.04	675.84
669.235	635.93
669.43	601.25
669.626	612.1
669.821	681.84
670.016	610.35
670.211	612.87
670.407	591.36
670.602	668.28
670.797	633.02
670.992	677.39
671.187	619.65
671.382	665.96
671.578	658.98
671.773	642.13
671.968	594.08
672.163	625.85
672.358	677.78
672.553	635.54
672.748	622.36
672.943	733.19
673.138	625.27
673.333	677.78
673.528	609.38
673.723	684.94
673.918	627.4
674.113	588.65
674.308	723.5
674.503	666.73
674.698	687.46
674.892	646.78
675.087	666.73
675.282	627.6
675.477	617.33
675.672	658.6
675.867	602.6
676.061	576.45
676.256	594.85
676.451	628.56
676.646	616.75
676.84	584.2
677.035	576.45
677.23	607.83
677.424	633.99
677.619	635.73
677.814	665.38
678.008	678.74
678.203	543.51
678.397	586.72
678.592	618.49
678.787	674.68
678.981	616.36
679.176	651.23
679.37	647.36
679.565	607.25
679.759	596.6
679.954	625.66
680.148	689.01
680.342	690.56
680.537	657.63
680.731	608.22
680.926	662.08
681.12	637.09
681.314	601.44
681.509	634.96
681.703	639.03
681.897	653.17
682.092	606.86
682.286	601.05
682.48	703.93
682.674	653.17
682.869	613.06
683.063	621.59
683.257	692.11
683.451	616.16
683.645	627.01
683.839	631.66
684.034	645.42
684.228	651.62
684.422	596.98
684.616	575.48
684.81	654.91
685.004	607.64
685.198	635.54
685.392	652.01
685.586	585.17
685.78	633.8
685.974	641.55
686.168	650.26
686.362	682.43
686.556	583.42
686.75	569.08
686.944	566.95
687.138	562.11
687.331	487.13
687.525	466.59
687.719	456.71
687.913	475.7
688.107	517.93
688.301	514.64
688.494	546.8
688.688	475.89
688.882	466.59
689.076	473.18
689.269	518.9
689.463	579.16
689.657	496.43
689.85	541.57
690.044	545.25
690.238	533.05
690.431	516.77
690.625	531.69
690.818	564.82
691.012	561.14
691.205	580.32
691.399	558.23
691.593	588.65
691.786	631.86
691.98	635.35
692.173	693.28
692.366	648.71
692.56	671.96
692.753	693.28
692.947	640.96
693.14	678.74
693.333	674.87
693.527	609
693.72	657.63
693.914	633.02
694.107	625.85
694.3	678.94
694.493	626.63
694.687	691.53
694.88	633.02
695.073	739.19
695.266	723.89
695.46	692.5
695.653	757.79
695.846	729.51
696.039	688.04
696.232	705.48
696.425	760.51
696.618	758.76
696.812	732.8
697.005	804.29
697.198	893.42
697.391	797.9
697.584	851.76
697.777	880.05
697.97	848.27
698.163	859.32
698.356	848.27
698.549	904.65
698.742	886.25
698.935	842.85
699.127	864.94
699.32	843.62
699.513	872.3
699.706	889.35
699.899	893.03
700.092	859.9
700.285	921.51
700.477	831.03
700.67	879.47
700.863	912.21
701.056	1021.48
701.248	946.89
701.441	959.1
701.634	958.9
701.826	1023.42
702.019	919.19
702.212	1007.34
702.404	912.99
702.597	970.92
702.79	976.92
702.982	999.01
703.175	1018.19
703.367	1071.86
703.56	1039.11
703.752	1119.33
703.945	1096.85
704.137	1085.81
704.33	1107.7
704.522	1105.38
704.715	1125.91
704.907	1124.94
705.1	1160.01
705.292	1193.53
705.484	1100.34
705.677	1211.94
705.869	1184.62
706.061	1220.66
706.254	1216.97
706.446	1180.55
706.638	1190.24
706.831	1276.46
707.023	1238.87
707.215	1319.66
707.407	1309.97
707.599	1310.36
707.792	1336.9
707.984	1322.76
708.176	1328.38
708.368	1315.2
708.56	1374.69
708.752	1358.02
708.944	1323.34
709.136	1373.33
709.329	1336.71
709.521	1461.29
709.713	1452.38
709.905	1408.4
710.097	1497.13
710.289	1408.59
710.481	1413.05
710.672	1464
710.864	1436.88
711.056	1515.54
711.248	1495.39
711.44	1504.11
711.632	1473.69
711.824	1536.46
712.016	1567.85
712.207	1543.63
712.399	1539.56
712.591	1603.31
712.783	1590.13
712.975	1580.25
713.166	1533.17
713.358	1603.11
713.55	1633.14
713.741	1659.88
713.933	1651.36
714.125	1636.24
714.316	1623.65
714.508	1709.09
714.7	1690.11
714.891	1677.12
715.083	1737.38
715.274	1693.4
715.466	1705.61
715.657	1696.5
715.849	1633.53
716.04	1714.91
716.232	1622.1
716.423	1692.62
716.615	1616.87
716.806	1581.41
716.998	1561.07
717.189	1529.3
717.381	1456.83
717.572	1405.88
717.763	1468.65
717.955	1444.43
718.146	1405.88
718.337	1355.7
718.528	1336.52
718.72	1280.14
718.911	1301.06
719.102	1293.31
719.293	1382.05
719.485	1320.24
719.676	1292.34
719.867	1302.42
720.058	1299.7
720.249	1297.57
720.44	1334
720.632	1376.43
720.823	1395.22
721.014	1484.73
721.205	1527.55
721.396	1582.77
721.587	1639.15
721.778	1691.85
721.969	1689.14
722.16	1752.1
722.351	1763.34
722.542	1834.83
722.733	1882.5
722.924	1762.37
723.115	1828.83
723.305	1827.86
723.496	1819.53
723.687	1686.42
723.878	1703.09
724.069	1720.91
724.26	1698.24
724.45	1658.52
724.641	1657.36
724.832	1706.38
725.023	1693.98
725.213	1675.38
725.404	1666.08
725.595	1698.24
725.785	1682.16
725.976	1702.51
726.167	1722.46
726.357	1706.57
726.548	1814.68
726.739	1753.27
726.929	1791.82
727.12	1822.43
727.31	1824.76
727.501	1777.29
727.691	1817.01
727.882	1815.85
728.072	1833.48
728.263	1866.22
728.453	1894.12
728.644	1842.78
728.834	1866.03
729.024	1825.34
729.215	1809.65
729.405	1828.63
729.596	1935.78
729.786	1891.6
729.976	1911.95
730.167	1949.34
730.357	1880.17
730.547	1910.59
730.737	1952.25
730.928	1985.96
731.118	2042.34
731.308	1948.95
731.498	1961.55
731.688	2043.69
731.879	2058.61
732.069	2136.5
732.259	2112.09
732.449	2124.87
732.639	2196.56
732.829	2219.42
733.019	2266.89
733.209	2298.67
733.399	2288.2
733.589	2381.98
733.779	2382.95
733.969	2302.15
734.159	2408.52
734.349	2413.95
734.539	2490.48
734.729	2450.18
734.919	2529.61
735.109	2525.93
735.299	2493.77
735.488	2543.95
735.678	2515.47
735.868	2500.94
736.058	2484.47
736.248	2502.88
736.437	2415.69
736.627	2489.89
736.817	2565.84
737.007	2506.94
737.196	2546.27
737.386	2534.26
737.576	2492.8
737.765	2566.23
737.955	2547.05
738.144	2634.04
738.334	2628.81
738.524	2540.27
738.713	2609.24
738.903	2574.17
739.092	2611.76
739.282	2616.41
739.471	2625.32
739.661	2578.24
739.85	2671.24
740.04	2645.86
740.229	2697.01
740.419	2690.42
740.608	2713.48
740.797	2711.93
740.987	2741.96
741.176	2750.87
741.365	2692.75
741.555	2623
741.744	2744.67
741.933	2705.15
742.123	2734.4
742.312	2772.96
742.501	2793.5
742.69	2768.31
742.88	2706.89
743.069	2768.89
743.258	2736.15
743.447	2825.66
743.636	2812.68
743.825	2707.47
744.014	2795.43
744.204	2799.89
744.393	2743.9
744.582	2836.12
744.771	2837.28
744.96	2768.31
745.149	2788.26
745.338	2728.4
745.527	2798.15
745.716	2796.01
745.905	2766.57
746.094	2846.39
746.283	2831.47
746.471	2808.03
746.66	2881.65
746.849	2819.85
747.038	2859.76
747.227	2846.97
747.416	2874.68
747.604	2798.15
747.793	2801.83
747.982	2799.11
748.171	2822.75
748.359	2821.59
748.548	2859.18
748.737	2810.35
748.926	2822.56
749.114	2735.95
749.303	2847.36
749.491	2782.06
749.68	2731.3
749.869	2865.38
750.057	2797.76
750.246	2770.25
750.434	2801.25
750.623	2763.08
750.811	2774.7
751	2801.44
751.188	2789.62
751.377	2787.3
751.565	2771.41
751.754	2740.6
751.942	2762.88
752.131	2804.15
752.319	2775.28
752.507	2696.04
752.696	2735.18
752.884	2822.36
753.072	2753.97
753.261	2787.1
753.449	2779.93
753.637	2750.48
753.825	2804.93
754.014	2761.33
754.202	2761.33
754.39	2809
754.578	2748.93
754.766	2712.9
754.955	2729.95
755.143	2807.06
755.331	2738.08
755.519	2759.4
755.707	2687.71
755.895	2716.38
756.083	2716.97
756.271	2706.7
756.459	2688.48
756.647	2750.1
756.835	2687.52
757.023	2664.07
757.211	2675.31
757.399	2665.43
757.587	2677.64
757.775	2619.7
757.963	2653.8
758.151	2629
758.339	2596.46
758.526	2588.9
758.714	2603.43
758.902	2532.91
759.09	2421.7
759.278	2340.71
759.465	2184.94
759.653	1840.07
759.841	1711.81
760.028	1451.41
760.216	1245.07
760.404	1213.87
760.591	986.03
760.779	811.46
760.967	726.6
761.154	555.52
761.342	643.87
761.529	625.27
761.717	694.63
761.905	673.9
762.092	738.81
762.28	681.26
762.467	692.31
762.655	640.58
762.842	640.77
763.029	664.02
763.217	653.36
763.404	669.06
763.592	653.95
763.779	661.7
763.966	738.03
764.154	731.06
764.341	799.45
764.528	803.52
764.716	842.27
764.903	879.08
765.09	930.81
765.277	967.43
765.465	1152.46
765.652	1126.49
765.839	1199.54
766.026	1316.75
766.213	1318.5
766.4	1400.84
766.588	1573.66
766.775	1571.73
766.962	1670.92
767.149	1722.27
767.336	1858.67
767.523	1784.27
767.71	1910.59
767.897	1986.73
768.084	2045.44
768.271	2086.51
768.458	2148.32
768.645	2141.92
768.832	2147.35
769.019	2163.04
769.206	2166.92
769.392	2226.79
769.579	2326.18
769.766	2263.21
769.953	2313.58
770.14	2329.86
770.327	2271.93
770.513	2365.7
770.7	2395.73
770.887	2315.72
771.073	2415.5
771.26	2381.2
771.447	2337.8
771.634	2310.68
771.82	2439.13
772.007	2371.51
772.193	2386.05
772.38	2408.52
772.567	2358.53
772.753	2344.58
772.94	2432.93
773.126	2426.73
773.313	2421.89
773.499	2408.91
773.686	2403.87
773.872	2349.81
774.059	2417.05
774.245	2326.95
774.432	2393.99
774.618	2307.58
774.804	2372.48
774.991	2336.83
775.177	2367.64
775.363	2337.42
775.55	2393.02
775.736	2331.6
775.922	2313
776.109	2364.35
776.295	2347.1
776.481	2347.68
776.667	2359.89
776.853	2345.75
777.04	2238.02
777.226	2293.82
777.412	2366.48
777.598	2266.7
777.784	2300.41
777.97	2304.67
778.156	2318.62
778.342	2303.7
778.528	2312.42
778.715	2249.45
778.901	2253.33
779.087	2312.23
779.272	2260.11
779.458	2210.7
779.644	2255.07
779.83	2230.27
780.016	2345.36
780.202	2265.53
780.388	2236.47
780.574	2189.78
780.76	2227.75
780.946	2261.47
781.131	2229.5
781.317	2221.55
781.503	2171.95
781.689	2203.15
781.874	2292.66
782.06	2184.74
782.246	2204.31
782.432	2159.56
782.617	2187.65
782.803	2246.35
782.989	2119.06
783.174	2180.48
783.36	2094.46
783.545	2144.64
783.731	2153.74
783.916	2063.65
784.102	2146.77
784.288	2155.87
784.473	2130.3
784.659	2082.83
784.844	2161.49
785.029	2108.79
785.215	2081.67
785.4	2084.19
785.586	2120.22
785.771	2077.6
785.956	2116.93
786.142	2045.83
786.327	2055.13
786.512	2074.31
786.698	2077.41
786.883	2023.54
787.068	2044.86
787.254	2052.61
787.439	2031.88
787.624	2014.05
787.809	2017.54
787.994	2025.48
788.18	2034.78
788.365	1987.89
788.55	1968.33
788.735	1956.7
788.92	1965.81
789.105	1998.74
789.29	2019.48
789.475	1961.55
789.66	1947.6
789.845	1932.1
790.03	1904.58
790.215	1952.05
790.4	1978.01
790.585	2023.35
790.77	1936.75
790.955	1872.03
791.14	1975.3
791.325	2002.81
791.51	1812.36
791.695	1925.12
791.879	1898.38
792.064	1899.93
792.249	1963.87
792.434	1918.53
792.618	1937.13
792.803	1921.63
792.988	1865.25
793.173	1903.81
793.357	1958.64
793.542	1844.33
793.727	1873.78
793.911	1901.48
794.096	1894.7
794.281	1914.66
794.465	1999.52
794.65	1935.58
794.834	1923.96
795.019	1947.6
795.203	1969.88
795.388	1939.85
795.572	1992.35
795.757	1944.88
795.941	1960.38
796.126	1924.93
796.31	1861.38
796.494	1933.84
796.679	1911.75
796.863	1890.44
797.048	1999.13
797.232	1938.1
797.416	1908.46
797.601	1909.04
797.785	1983.25
797.969	1998.36
798.153	1938.49
798.338	1958.83
798.522	1970.26
798.706	1966.97
798.89	1984.99
799.074	2084.19
799.258	1993.71
799.443	1951.66
799.627	1946.82
799.811	2016.18
799.995	1945.85
800.179	1929.58
800.363	1913.11
800.547	1975.5
800.731	1985.38
800.915	1910.59
801.099	1959.61
801.283	1926.86
801.467	1951.86
801.651	1937.52
801.835	1967.36
802.019	1960.96
802.202	1944.3
802.386	1904.78
802.57	1922.41
802.754	1934.42
802.938	1925.9
803.121	1945.08
803.305	2005.53
803.489	1950.5
803.673	1914.66
803.856	1948.56
804.04	1926.09
804.224	1957.67
804.407	1922.6
804.591	1943.33
804.775	1934.23
804.958	1949.15
805.142	2049.7
805.326	1938.88
805.509	1963.48
805.693	1992.74
805.876	2009.59
806.06	1966.2
806.243	1977.05
806.427	1959.61
806.61	2009.21
806.794	1948.76
806.977	2025.48
807.16	2000.68
807.344	1980.53
807.527	1922.41
807.71	1953.8
807.894	1961.74
808.077	2011.73
808.26	1922.99
808.444	1926.09
808.627	1975.88
808.81	1964.26
808.993	1924.35
809.177	1894.9
809.36	1903.23
809.543	1930.35
809.726	1858.67
809.909	1837.16
810.092	1823.79
810.276	1842.58
810.459	1877.65
810.642	1829.22
810.825	1812.55
811.008	1821.47
811.191	1738.93
811.374	1724.98
811.557	1760.24
811.74	1849.37
811.923	1697.27
812.106	1698.82
812.289	1694.56
812.472	1719.56
812.654	1722.85
812.837	1710.06
813.02	1633.34
813.203	1643.61
813.386	1520.19
813.569	1534.53
813.751	1455.87
813.934	1532.2
814.117	1506.05
814.3	1455.09
814.482	1402
814.665	1366.55
814.848	1387.67
815.03	1364.22
815.213	1353.37
815.396	1348.34
815.578	1325.47
815.761	1280.14
815.943	1375.65
816.126	1244.29
816.309	1257.08
816.491	1186.56
816.674	1154.2
816.856	1201.09
817.039	1192.76
817.221	1263.67
817.403	1235.57
817.586	1227.44
817.768	1239.26
817.951	1173.96
818.133	1155.56
818.315	1158.85
818.498	1215.81
818.68	1271.22
818.862	1254.17
819.045	1266.38
819.227	1212.32
819.409	1237.32
819.591	1251.46
819.774	1231.31
819.956	1190.04
820.138	1300.09
820.32	1261.73
820.502	1283.24
820.684	1377.59
820.866	1360.93
821.048	1373.91
821.231	1399.68
821.413	1412.66
821.595	1369.45
821.777	1378.17
821.959	1346.01
822.141	1458.58
822.323	1323.34
822.505	1267.74
822.686	1218.33
822.868	1204.96
823.05	1109.83
823.232	1104.21
823.414	1044.73
823.596	1100.53
823.778	1070.5
823.96	1093.75
824.141	1113.71
824.323	1118.74
824.505	1171.83
824.687	1218.91
824.868	1275.1
825.05	1335.16
825.232	1344.46
825.413	1398.52
825.595	1362.48
825.777	1322.95
825.958	1351.44
826.14	1340.97
826.321	1372.55
826.503	1304.94
826.685	1336.71
826.866	1336.13
827.048	1378.75
827.229	1336.9
827.411	1304.74
827.592	1263.47
827.773	1252.62
827.955	1195.08
828.136	1228.99
828.318	1212.52
828.499	1230.34
828.68	1169.89
828.862	1236.93
829.043	1243.91
829.224	1215.81
829.406	1172.99
829.587	1190.04
829.768	1185.78
829.949	1244.68
830.131	1228.79
830.312	1269.67
830.493	1196.44
830.674	1219.69
830.855	1205.35
831.036	1219.11
831.218	1245.07
831.399	1268.51
831.58	1242.36
831.761	1240.81
831.942	1216.59
832.123	1215.81
832.304	1143.93
832.485	1176.68
832.666	1200.89
832.847	1221.24
833.028	1192.95
833.209	1211.74
833.389	1201.47
833.57	1134.05
833.751	1162.14
833.932	1255.34
834.113	1237.9
834.294	1224.53
834.475	1245.84
834.655	1256.31
834.836	1260.37
835.017	1236.16
835.198	1156.33
835.378	1238.67
835.559	1276.26
835.74	1229.76
835.92	1210.39
836.101	1209.03
836.281	1264.64
836.462	1230.92
836.643	1282.27
836.823	1281.11
837.004	1261.92
837.184	1301.06
837.365	1268.12
837.545	1308.81
837.726	1277.81
837.906	1323.54
838.087	1277.81
838.267	1262.31
838.448	1234.61
838.628	1287.69
838.808	1243.13
838.989	1299.12
839.169	1217.36
839.349	1303.77
839.53	1324.12
839.71	1312.1
839.89	1213.1
840.07	1322.57
840.251	1269.67
840.431	1288.66
840.611	1274.71
840.791	1228.02
840.971	1257.66
841.151	1208.64
841.332	1236.16
841.512	1284.4
841.692	1189.08
841.872	1269.29
842.052	1243.71
842.232	1275.87
842.412	1198.96
842.592	1239.26
842.772	1247.39
842.952	1271.42
843.132	1205.54
843.312	1234.22
843.492	1178.42
843.672	1263.67
843.851	1168.93
844.031	1230.54
844.211	1196.24
844.391	1177.06
844.571	1231.89
844.751	1243.52
844.93	1239.06
845.11	1224.14
845.29	1220.46
845.47	1249.52
845.649	1223.76
845.829	1231.12
846.009	1205.35
846.188	1275.1
846.368	1186.94
846.547	1210.97
846.727	1259.79
846.907	1189.08
847.086	1210
847.266	1251.07
847.445	1167.38
847.625	1166.6
847.804	1168.34
847.984	1199.34
848.163	1145.29
848.343	1146.06
848.522	1215.23
848.701	1198.38
848.881	1177.06
849.06	1178.61
849.239	1197.41
849.419	1175.9
849.598	1109.25
849.777	1143.93
849.957	1118.94
850.136	1045.9
850.315	1073.99
850.494	1087.36
850.674	1077.67
850.853	1129.59
851.032	1098.98
851.211	1133.86
851.39	1105.38
851.569	1095.3
851.748	1089.3
851.927	1109.06
852.107	1092.2
852.286	1066.43
852.465	1058.88
852.644	1121.26
852.823	1094.91
853.002	1086.58
853.181	1127.27
853.359	1115.06
853.538	1042.21
853.717	1120.88
853.896	1002.3
854.075	968.01
854.254	971.88
854.433	904.07
854.611	968.2
854.79	916.86
854.969	945.73
855.148	1030.59
855.327	953.67
855.505	1023.03
855.684	971.69
855.863	978.86
856.041	941.08
856.22	1006.95
856.399	991.26
856.577	1052.29
856.756	1077.67
856.934	1152.84
857.113	1167.96
857.291	1058.49
857.47	1026.52
857.648	1039.31
857.827	1048.03
858.005	1073.02
858.184	1011.41
858.362	1113.32
858.541	1065.27
858.719	1044.93
858.898	1000.95
859.076	1030.59
859.254	1098.01
859.433	1020.71
859.611	1026.71
859.789	1000.75
859.967	1075.73
860.146	1091.81
860.324	984.09
860.502	997.65
860.68	976.15
860.859	996.49
861.037	999.4
861.215	1062.95
861.393	1008.12
861.571	1015.09
861.749	1001.92
861.927	996.88
862.105	1024.78
862.283	1000.56
862.461	972.08
862.639	954.06
862.817	977.5
862.995	974.98
863.173	962
863.351	966.27
863.529	994.17
863.707	1058.1
863.885	1005.79
864.063	924.42
864.241	951.15
864.418	1028.46
864.596	953.67
864.774	927.52
864.952	983.51
865.129	1021.29
865.307	943.02
865.485	901.75
865.663	959.48
865.84	875.98
866.018	914.34
866.196	803.71
866.373	851.18
866.551	791.7
866.728	753.34
866.906	824.64
867.084	857.96
867.261	865.9
867.439	855.64
867.616	906.2
867.794	898.45
867.971	869.78
868.149	886.05
868.326	940.5
868.503	927.32
868.681	894.19
868.858	877.53
869.035	873.07
869.213	923.25
869.39	869.78
869.567	940.88
869.745	856.22
869.922	893.61
870.099	900
870.276	899.62
870.454	900.59
870.631	906.59
870.808	893.22
870.985	912.79
871.162	936.62
871.339	915.12
871.517	826.19
871.694	853.5
871.871	836.65
872.048	894.19
872.225	837.42
872.402	852.15
872.579	838.78
872.756	884.7
872.933	828.71
873.11	880.24
873.287	889.54
873.463	828.32
873.64	846.53
873.817	860.29
873.994	844.4
874.171	841.11
874.348	835.68
874.524	789.18
874.701	842.46
874.878	763.41
875.055	842.85
875.231	829.29
875.408	822.7
875.585	769.22
875.762	844.01
875.938	848.27
876.115	839.75
876.291	803.13
876.468	812.82
876.645	729.89
876.821	800.22
876.998	780.27
877.174	830.06
877.351	780.66
877.527	784.92
877.704	811.46
877.88	845.56
878.057	786.08
878.233	864.55
878.409	785.5
878.586	810.3
878.762	784.72
878.938	781.24
879.115	725.63
879.291	771.74
879.467	719.43
879.644	754.31
879.82	777.94
879.996	719.04
880.172	714.98
880.349	777.36
880.525	804.49
880.701	732.03
880.877	717.11
881.053	754.5
881.229	741.33
881.405	805.84
881.581	732.99
881.757	763.41
881.933	758.96
882.109	790.73
882.285	729.89
882.461	690.95
882.637	761.67
882.813	720.98
882.989	717.69
883.165	766.12
883.341	741.33
883.517	757.02
883.693	760.51
883.869	767.09
884.044	723.11
884.22	776.59
884.396	813.01
884.572	751.21
884.747	781.24
884.923	794.22
885.099	787.63
885.275	808.94
885.45	717.69
885.626	751.98
885.801	730.28
885.977	704.32
886.153	706.84
886.328	750.63
886.504	743.46
886.679	769.42
886.855	717.49
887.03	773.1
887.206	773.49
887.381	747.91
887.557	737.84
887.732	793.25
887.908	781.24
888.083	790.15
888.258	729.31
888.434	709.94
888.609	729.89
888.784	754.11
888.96	728.73
889.135	723.5
889.31	732.03
889.485	740.36
889.661	703.16
889.836	751.01
890.011	751.4
890.186	755.28
890.361	731.83
890.537	784.34
890.712	747.14
890.887	752.56
891.062	731.25
891.237	786.66
891.412	701.22
891.587	739.97
891.762	784.92
891.937	784.14
892.112	723.31
892.287	742.29
892.462	694.44
892.637	659.37
892.812	673.51
892.987	688.24
893.161	661.7
893.336	693.86
893.511	667.31
893.686	674.48
893.861	661.5
894.035	697.54
894.21	680.1
894.385	641.93
894.56	683.01
894.734	635.54
894.909	603.96
895.084	638.45
895.258	614.23
895.433	611.51
895.608	609.19
895.782	574.9
895.957	576.06
896.131	571.41
896.306	521.23
896.48	522.58
896.655	528.2
896.829	462.91
897.004	498.95
897.178	497.2
897.353	478.02
897.527	510.96
897.701	541.77
897.876	496.24
898.05	534.02
898.224	516.97
898.399	522.78
898.573	507.47
898.747	406.34
898.921	459.42
899.096	399.75
899.27	415.06
899.444	382.89
899.618	437.14
899.792	462.33
899.967	426.68
900.141	445.67
900.315	421.06
900.489	452.25
900.663	453.8
900.837	471.05
901.011	404.01
901.185	509.8
901.359	424.16
901.533	447.8
901.707	473.37
901.881	441.79
902.055	354.8
902.229	452.64
902.403	469.3
902.576	423.97
902.75	469.3
902.924	562.88
903.098	502.63
903.272	500.69
903.446	562.69
903.619	505.15
903.793	557.85
903.967	503.6
904.14	565.02
904.314	548.93
904.488	557.46
904.661	551.26
904.835	547.97
905.009	573.54
905.182	596.21
905.356	580.71
905.529	549.71
905.703	516.19
905.876	530.72
906.05	509.99
906.223	500.11
906.397	460.78
906.57	452.06
906.744	410.41
906.917	451.29
907.09	437.72
907.264	441.79
907.437	391.42
907.61	373.21
907.784	403.04
907.957	406.92
908.13	392
908.304	456.32
908.477	378.24
908.65	391.81
908.823	359.26
908.996	441.21
909.17	391.42
909.343	397.62
909.516	394.13
909.689	365.65
909.862	353.44
910.035	402.27
910.208	397.23
910.381	349.96
910.554	477.83
910.727	392.19
910.9	359.84
911.073	359.84
911.246	430.17
911.419	451.48
911.592	399.75
911.765	383.86
911.938	360.03
912.11	382.12
912.283	393.16
912.456	404.21
912.629	400.72
912.802	365.84
912.974	340.46
913.147	321.48
913.32	288.34
913.493	307.33
913.665	328.06
913.838	334.26
914.01	320.12
914.183	330.39
914.356	319.54
914.528	381.92
914.701	399.56
914.873	378.24
915.046	336.59
915.218	299.97
915.391	267.23
915.563	289.89
915.736	337.36
915.908	340.27
916.081	323.03
916.253	309.85
916.425	328.06
916.598	346.47
916.77	314.69
916.942	297.64
917.115	249.79
917.287	347.63
917.459	321.48
917.632	244.94
917.804	240.88
917.976	291.64
918.148	309.46
918.32	295.71
918.493	351.89
918.665	377.86
918.837	312.18
919.009	383.47
919.181	372.82
919.353	330.97
919.525	337.17
919.697	330.19
919.869	329.42
920.041	397.81
920.213	409.63
920.385	361.19
920.557	346.08
920.729	348.02
920.901	383.67
921.073	364.1
921.244	342.59
921.416	373.98
921.588	364.29
921.76	326.13
921.932	391.03
922.103	357.32
922.275	339.88
922.447	343.37
922.619	265.48
922.79	341.82
922.962	321.86
923.134	370.11
923.305	310.82
923.477	288.54
923.648	273.04
923.82	280.21
923.991	259.86
924.163	263.35
924.335	284.86
924.506	274.98
924.677	358.67
924.849	268.97
925.02	293.58
925.192	321.48
925.363	304.23
925.535	311.59
925.706	266.84
925.877	339.69
926.049	274.01
926.22	273.43
926.391	334.65
926.562	296.68
926.734	250.76
926.905	314.5
927.076	252.11
927.247	278.85
927.419	229.06
927.59	234.29
927.761	250.95
927.932	206.78
928.103	255.99
928.274	189.34
928.445	205.61
928.616	207.94
928.787	212.59
928.958	236.61
929.129	228.48
929.3	196.12
929.471	180.04
929.642	146.13
929.813	102.93
929.984	212.98
930.155	125.02
930.326	183.72
930.496	139.16
930.667	73.48
930.838	126.18
931.009	81.42
931.18	116.3
931.35	126.95
931.521	138.58
931.692	89.56
931.863	14.97
932.033	91.3
932.204	104.87
932.374	96.34
932.545	62.63
932.716	123.85
932.886	90.14
933.057	21.36
933.227	57.59
933.398	129.47
933.568	36.47
933.739	14.97
933.909	19.42
934.08	76.38
934.25	-23.2
934.421	7.99
934.591	71.73
934.761	12.64
934.932	-17.39
935.102	29.69
935.272	30.66
935.443	49.07
935.613	32.4
935.783	49.45
935.953	-3.83
936.123	144
936.294	14.19
936.464	2.18
936.634	30.85
936.804	-10.8
936.974	-5.96
937.144	22.52
937.314	52.55
937.484	24.65
937.655	11.09
937.825	72.7
937.995	28.72
938.165	54.3
938.334	33.57
938.504	65.54
938.674	34.54
938.844	31.44
939.014	98.08
939.184	69.41
939.354	134.7
939.524	98.86
939.694	38.41
939.863	64.57
940.033	122.69
940.203	111.65
940.373	113.39
940.542	102.73
940.712	39.77
940.882	88.4
941.051	91.88
941.221	111.07
941.391	102.35
941.56	50.23
941.73	42.67
941.899	145.75
942.069	67.28
942.238	79.68
942.408	43.64
942.577	110.48
942.747	47.52
942.916	22.72
943.086	59.34
943.255	95.18
943.425	54.49
943.594	25.82
943.763	-6.93
943.933	18.07
944.102	-22.23
944.271	58.56
944.441	55.85
944.61	41.9
944.779	48.29
944.948	131.22
945.117	16.13
945.287	36.47
945.456	-12.74
945.625	35.89
945.794	62.63
945.963	22.14
946.132	52.75
946.301	27.17
946.47	59.53
946.639	-11.38
946.808	14.58
946.977	66.12
947.146	87.43
947.315	17.87
947.484	74.83
947.653	52.94
947.822	41.7
947.991	19.23
948.16	116.3
948.329	108.16
948.498	24.07
948.666	53.52
948.835	84.91
949.004	-2.28
949.173	5.47
949.341	49.07
949.51	75.22
949.679	106.03
949.847	77.93
950.016	103.9
950.185	90.72
950.353	35.7
950.522	33.76
950.69	108.74
950.859	17.29
951.028	103.51
951.196	51.97
951.365	49.84
951.533	76.38
951.701	102.35
951.87	69.02
952.038	32.99
952.207	64.76
952.375	103.32
952.543	41.32
952.712	42.09
952.88	-3.63
953.048	69.8
953.217	35.5
953.385	45.77
953.553	97.7
953.721	32.79
953.89	60.89
954.058	-11
954.226	26.59
954.394	33.37
954.562	0.44
954.73	59.14
954.898	46.16
955.067	67.67
955.235	20.78
955.403	83.94
955.571	98.08
955.739	69.99
955.907	13.42
956.075	37.25
956.243	40.35
956.41	80.65
956.578	20.39
956.746	-7.7
956.914	18.84
957.082	62.44
957.25	49.07
957.418	24.65
957.585	57.59
957.753	93.82
957.921	21.55
958.089	41.32
958.256	78.32
958.424	57.2
958.592	43.64
958.759	43.84
958.927	86.27
959.095	26.01
959.262	33.37
959.43	60.69
959.597	20.39
959.765	64.95
959.932	60.89
960.1	103.12
960.267	60.11
960.435	37.44
960.602	71.35
960.77	50.81
960.937	11.29
961.104	54.49
961.272	-9.25
961.439	37.64
961.606	85.49
961.774	76.19
961.941	24.65
962.108	57.59
962.275	71.15
962.443	103.32
962.61	47.9
962.777	127.53
962.944	63.79
963.111	54.49
963.278	62.44
963.446	65.15
963.613	54.69
963.78	80.65
963.947	102.73
964.114	69.02
964.281	136.25
964.448	57.98
964.615	33.76
964.782	82.97
964.949	92.08
965.116	63.4
965.282	85.1
965.449	45.77
965.616	19.04
965.783	78.13
965.95	74.25
966.117	49.45
966.283	78.9
966.45	89.95
966.617	62.63
966.784	97.5
966.95	98.67
967.117	75.22
967.284	33.37
967.45	20.78
967.617	118.43
967.784	96.73
967.95	141.48
968.117	46.94
968.283	89.75
968.45	162.8
968.616	79.68
968.783	143.42
968.949	90.72
969.116	86.85
969.282	103.9
969.449	87.43
969.615	91.5
969.781	48.87
969.948	57.2
970.114	29.11
970.28	127.34
970.447	73.87
970.613	105.06
970.779	70.18
970.945	84.52
971.112	86.65
971.278	63.21
971.444	73.67
971.61	122.11
971.776	68.63
971.942	57.2
972.108	75.03
972.275	71.35
972.441	86.46
972.607	138.19
972.773	34.15
972.939	96.73
973.105	76.77
973.271	38.99
973.437	46.35
973.602	46.74
973.768	108.35
973.934	63.21
974.1	98.67
974.266	-0.53
974.432	77.16
974.598	70.96
974.763	86.07
974.929	65.73
975.095	140.9
975.261	35.31
975.426	47.13
975.592	43.45
975.758	124.43
975.923	20.78
976.089	39.57
976.255	87.82
976.42	89.37
976.586	65.54
976.751	76.77
976.917	133.73
977.082	106.8
977.248	32.21
977.413	13.03
977.579	63.21
977.744	76.19
977.91	39.77
978.075	66.5
978.24	101.96
978.406	29.5
978.571	36.09
978.736	43.06
978.902	95.57
979.067	22.72
979.232	-2.66
979.397	93.24
979.563	133.93
979.728	20
979.893	69.02
980.058	54.88
980.223	109.13
980.388	65.15
980.554	45
980.719	64.37
980.884	72.32
981.049	89.95
981.214	48.1
981.379	64.37
981.544	26.2
981.709	47.32
981.874	78.71
982.039	60.11
982.204	96.15
982.368	46.74
982.533	24.85
982.698	97.7
982.863	83.17
983.028	41.7
983.193	68.83
983.357	81.81
983.522	55.07
983.687	37.44
983.852	71.93
984.016	33.95
984.181	55.85
984.346	83.75
984.51	71.35
984.675	72.7
984.839	103.32
985.004	73.28
985.168	82.2
985.333	50.23
985.498	37.44
985.662	96.92
985.827	90.92
985.991	71.73
986.155	47.52
986.32	86.27
986.484	119.2
986.649	105.83
986.813	2.37
986.977	30.66
987.142	89.17
987.306	30.08
987.47	22.91
987.634	60.89
987.799	73.28
987.963	79.87
988.127	103.12
988.291	131.8
988.455	81.03
988.62	52.94
988.784	120.17
988.948	62.63
989.112	14.39
989.276	50.23
989.44	75.8
989.604	45.77
989.768	66.7
989.932	120.75
990.096	29.11
990.26	21.36
990.424	30.66
990.588	61.66
990.752	128.12
990.915	84.91
991.079	36.67
991.243	31.63
991.407	106.61
991.571	55.27
991.734	79.68
991.898	77.74
992.062	161.44
992.226	24.07
992.389	55.27
992.553	-4.21
992.717	20.2
992.88	54.69
993.044	56.04
993.207	42.87
993.371	107
993.535	91.69
993.698	54.1
993.862	92.85
994.025	104.28
994.189	69.99
994.352	63.6
994.515	72.32
994.679	86.07
994.842	64.95
995.006	95.57
995.169	4.89
995.332	-0.53
995.496	76.38
995.659	7.22
995.822	49.65
995.985	32.4
996.149	89.56
996.312	44.42
996.475	133.73
996.638	34.92
996.801	96.15
996.964	106.03
997.128	59.14
997.291	58.37
997.454	25.24
997.617	-6.93
997.78	76.97
997.943	50.42
998.106	86.85
998.269	35.31
998.432	53.52
998.595	37.05
998.758	3.92
998.92	17.29
999.083	4.7
999.246	36.28
999.409	-3.05
999.572	-18.94
999.735	28.72
999.897	70.18
1000.06	45.39
1000.223	38.22
1000.386	62.05
1000.548	62.05
1000.711	61.66
1000.874	89.17
1001.036	0.44
1001.199	76
1001.361	15.35
1001.524	47.13
1001.687	96.34
1001.849	11.29
1002.012	47.9
1002.174	40.74
1002.337	56.04
1002.499	38.02
1002.661	65.54
1002.824	2.76
1002.986	6.64
1003.149	41.7
1003.311	19.81
1003.473	102.15
1003.636	-11
1003.798	51.59
1003.96	65.34
1004.123	31.63
1004.285	29.89
1004.447	40.93
1004.609	30.47
1004.771	108.35
1004.933	-0.34
1005.096	9.35
1005.258	7.41
1005.42	15.16
1005.582	73.48
1005.744	48.49
1005.906	-17
1006.068	45.77
1006.23	-18.36
1006.392	-20.88
1006.554	30.08
1006.716	70.18
1006.878	52.17
1007.04	-10.03
1007.202	28.92
1007.363	8.38
1007.525	68.05
1007.687	59.14
1007.849	94.4
1008.011	-8.28
1008.172	15.35
1008.334	39.19
1008.496	41.9
1008.658	-11.19
1008.819	0.05
1008.981	11.09
1009.143	2.76
1009.304	33.95
1009.466	46.74
1009.627	70.96
1009.789	134.9
1009.95	26.2
1010.112	31.44
1010.273	54.3
1010.435	25.62
1010.596	14
1010.758	6.25
1010.919	18.84
1011.081	-9.25
1011.242	27.37
1011.403	67.28
1011.565	35.89
1011.726	29.69
1011.887	-6.93
1012.049	36.47
1012.21	70.18
1012.371	80.45
1012.532	-35.99
1012.693	13.03
1012.855	-0.73
1013.016	18.84
1013.177	46.35
1013.338	19.42
1013.499	88.2
1013.66	40.15
1013.821	25.43
1013.982	31.44
1014.143	30.08
1014.304	19.62
1014.465	32.99
1014.626	51
1014.787	16.71
1014.948	109.13
1015.109	-30.56
1015.27	69.6
1015.431	0.05
1015.592	-2.66
1015.752	77.93
1015.913	26.01
1016.074	25.43
1016.235	26.79
1016.395	34.15
1016.556	5.09
1016.717	16.9
1016.877	73.09
1017.038	4.89
1017.199	30.47
1017.359	32.6
1017.52	45.39
1017.681	19.23
1017.841	9.93
1018.002	15.74
1018.162	-5.96
1018.323	72.9
1018.483	29.11
1018.644	16.71
1018.804	-21.65
1018.964	-2.28
1019.125	23.1
1019.285	38.8
1019.446	-3.25
1019.606	-8.86
1019.766	-36.96
1019.926	42.09
1020.087	26.01
1020.247	-23.2
1020.407	18.65
1020.567	45.77
1020.728	2.95
1020.888	-7.7
1021.048	21.36
1021.208	-32.31
1021.368	15.16
1021.528	63.21
1021.688	54.49
1021.848	53.91
1022.008	13.61
1022.168	-4.99
1022.328	9.54
1022.488	47.13
1022.648	22.91
1022.808	14.97
1022.968	32.99
1023.128	12.06
1023.288	-3.05
1023.448	18.07
1023.608	44.42
1023.767	39.96
1023.927	26.01
1024.087	14.97
1024.247	-26.69
1024.406	8.38
1024.566	-18.36
1024.726	-9.45
1024.885	41.32
1025.045	65.73
1025.205	2.57
1025.364	7.22
1025.524	8.38
1025.683	-7.31
1025.843	45
1026.003	14.77
1026.162	56.04
1026.321	55.65
1026.481	10.51
1026.64	2.95
1026.8	1.99
1026.959	27.17
1027.119	20.97
1027.278	-16.03
1027.437	-25.14
1027.597	23.49
1027.756	21.17
1027.915	43.45
1028.074	26.2
1028.234	10.12
1028.393	12.64
1028.552	16.9
1028.711	-69.89
1028.87	65.73
1029.03	-16.42
1029.189	-3.83
1029.348	-38.31
1029.507	-13.13
1029.666	-16.23
1029.825	2.37
1029.984	6.05
1030.143	17.29
1030.302	2.76
1030.461	-42.38
1030.62	9.35
1030.779	5.47
1030.938	-17.58
1031.097	-11.58
1031.255	24.27
1031.414	47.13
1031.573	59.14
1031.732	-50.33
1031.891	20.97
1032.049	68.05
1032.208	23.3
1032.367	7.6
1032.525	-7.9
1032.684	17.49
1032.843	21.75
1033.001	-43.35
1033.16	148.65
1033.319	54.1
1033.477	20.59
1033.636	-3.83
1033.794	-28.04
1033.953	30.08
1034.111	27.56
1034.27	1.4
1034.428	35.12
1034.587	-9.83
1034.745	3.54
1034.903	21.94
1035.062	8.19
1035.22	-41.8
1035.378	45.39
1035.537	-22.62
1035.695	26.59
1035.853	1.21
1036.011	37.83
1036.17	29.3
1036.328	-47.23
1036.486	14.77
1036.644	25.62
1036.802	-79.78
1036.96	-1.7
1037.119	-20.49
1037.277	1.79
1037.435	-31.73
1037.593	-36.96
1037.751	12.25
1037.909	42.09
1038.067	42.09
