Data from pine_FLMT105791__29__17-20-03-079.txt Node

Date: Mon Mar 20 17:20:03 GMT 2023
User: antho
Spectrometer: FLMT10579
Trigger mode: 0
Integration Time (sec): 1.000000E-1
Scans to average: 10
Electric dark correction enabled: true
Nonlinearity correction enabled: false
Boxcar width: 0
XAxis mode: Wavelengths
Number of Pixels in Spectrum: 3648
>>>>>Begin Spectral Data<<<<<
345.248	-170.74
345.464	-170.74
345.681	-170.74
345.898	-179.65
346.114	-162.41
346.331	-32.4
346.548	25.91
346.764	-13.61
346.981	2.86
347.197	-12.45
347.414	4.8
347.631	-16.13
347.847	37.54
348.064	9.83
348.28	31.34
348.497	-16.32
348.713	-21.36
348.93	20.3
349.146	28.63
349.363	-13.03
349.579	3.44
349.796	7.51
350.012	13.51
350.229	23.39
350.445	-0.63
350.661	-13.42
350.878	-13.03
351.094	4.41
351.311	42.96
351.527	29.21
351.743	-18.84
351.96	43.16
352.176	46.45
352.392	29.98
352.609	33.86
352.825	-7.22
353.041	-5.09
353.257	12.55
353.474	44.13
353.69	11.58
353.906	18.36
354.122	2.28
354.339	47.23
354.555	33.28
354.771	-8.57
354.987	57.3
355.203	62.53
355.42	-1.21
355.636	6.35
355.852	-5.28
356.068	5.38
356.284	-40.15
356.5	76.87
356.716	8.09
356.932	-10.51
357.148	25.33
357.364	17.58
357.58	49.16
357.796	70.09
358.012	47.03
358.228	18.55
358.444	-37.83
358.66	40.83
358.876	12.93
359.092	-2.57
359.308	26.3
359.524	20.68
359.74	-11.87
359.956	-1.21
360.172	15.65
360.388	38.7
360.604	-7.22
360.819	81.91
361.035	12.55
361.251	29.59
361.467	-13.42
361.683	63.5
361.898	3.25
362.114	18.55
362.33	24.17
362.546	49.94
362.762	-8.77
362.977	33.86
363.193	-15.94
363.409	56.33
363.624	-16.71
363.84	-24.65
364.056	3.83
364.271	47.03
364.487	38.51
364.703	29.59
364.918	-17.68
365.134	6.93
365.35	27.46
365.565	124.53
365.781	50.33
365.996	10.61
366.212	73.38
366.427	41.8
366.643	-8.77
366.858	-8.96
367.074	13.9
367.289	56.91
367.505	118.91
367.72	-24.65
367.936	16.03
368.151	34.24
368.367	23.98
368.582	26.3
368.798	10.03
369.013	89.85
369.228	51.68
369.444	20.88
369.659	72.61
369.874	49.94
370.09	60.79
370.305	-51.78
370.52	5.57
370.736	79.39
370.951	19.52
371.166	61.37
371.381	103.99
371.597	50.71
371.812	-15.35
372.027	-13.22
372.242	39.28
372.458	74.35
372.673	2.28
372.888	25.53
373.103	36.38
373.318	96.83
373.533	54.98
373.749	52.84
373.964	-8.96
374.179	74.16
374.394	-2.76
374.609	64.28
374.824	-25.04
375.039	62.14
375.254	10.03
375.469	71.44
375.684	31.92
375.899	44.71
376.114	39.09
376.329	14.29
376.544	62.92
376.759	57.69
376.974	3.44
377.189	20.49
377.404	6.73
377.619	48.39
377.834	-11.09
378.049	-1.4
378.264	-12.25
378.478	49.16
378.693	-7.99
378.908	52.65
379.123	15.84
379.338	88.11
379.553	45.48
379.767	34.83
379.982	67.57
380.197	48.97
380.412	50.13
380.626	64.66
380.841	91.01
381.056	29.4
381.271	85.78
381.485	-4.12
381.7	10.61
381.915	33.66
382.129	34.05
382.344	43.54
382.559	49.55
382.773	69.51
382.988	-3.92
383.202	30.18
383.417	-8.38
383.632	135.96
383.846	39.28
384.061	16.03
384.275	19.71
384.49	56.33
384.704	27.66
384.919	25.33
385.133	34.44
385.348	50.71
385.562	2.66
385.777	63.89
385.991	30.95
386.206	15.06
386.42	15.84
386.634	84.81
386.849	53.04
387.063	44.71
387.277	-9.15
387.492	36.76
387.706	-11.29
387.92	12.93
388.135	57.49
388.349	40.83
388.563	35.21
388.778	36.57
388.992	63.31
389.206	64.86
389.42	102.44
389.635	30.95
389.849	66.6
390.063	58.46
390.277	65.44
390.491	107.48
390.706	66.02
390.92	85.01
391.134	36.96
391.348	57.11
391.562	-4.5
391.776	5.38
391.99	30.95
392.205	58.27
392.419	-5.47
392.633	36.96
392.847	104.58
393.061	33.28
393.275	122.01
393.489	37.73
393.703	39.67
393.917	91.79
394.131	2.08
394.345	62.34
394.559	42.96
394.773	30.95
394.986	59.43
395.2	37.93
395.414	70.09
395.628	11.96
395.842	52.46
396.056	23.78
396.27	6.73
396.484	52.26
396.697	23.98
396.911	91.59
397.125	72.22
397.339	80.55
397.553	105.35
397.766	102.06
397.98	91.01
398.194	68.15
398.408	55.36
398.621	76.87
398.835	93.14
399.049	28.24
399.262	72.22
399.476	101.86
399.69	55.75
399.903	122.98
400.117	45.87
400.331	93.73
400.544	20.88
400.758	172
400.971	56.91
401.185	92.56
401.398	29.79
401.612	121.04
401.826	85.98
402.039	97.41
402.253	39.86
402.466	56.33
402.68	47.03
402.893	72.22
403.106	78.23
403.32	77.45
403.533	83.65
403.747	68.73
403.96	83.84
404.174	83.26
404.387	39.67
404.6	58.66
404.814	90.24
405.027	60.98
405.24	53.04
405.454	42.19
405.667	98.57
405.88	15.26
406.094	73.77
406.307	99.93
406.52	100.12
406.733	15.45
406.947	22.81
407.16	100.31
407.373	102.83
407.586	45.68
407.799	57.3
408.012	118.91
408.226	64.28
408.439	124.72
408.652	38.31
408.865	100.12
409.078	87.33
409.291	108.64
409.504	40.06
409.717	89.27
409.93	78.61
410.143	77.26
410.357	34.24
410.57	37.93
410.783	78.61
410.996	98.38
411.209	67.96
411.421	127.82
411.634	47.42
411.847	73.96
412.06	100.7
412.273	91.98
412.486	70.28
412.699	165.41
412.912	78.03
413.125	101.67
413.338	88.88
413.55	99.93
413.763	85.59
413.976	100.31
414.189	65.63
414.402	80.74
414.615	131.31
414.827	62.92
415.04	117.56
415.253	112.91
415.466	130.54
415.678	162.31
415.891	82.49
416.104	76.09
416.316	95.28
416.529	65.44
416.742	121.82
416.954	131.89
417.167	107.29
417.38	105.16
417.592	136.54
417.805	66.02
418.017	55.36
418.23	123.17
418.442	63.5
418.655	68.15
418.868	101.09
419.08	135.57
419.293	147.39
419.505	123.37
419.718	121.04
419.93	139.84
420.142	101.48
420.355	155.72
420.567	147.97
420.78	123.56
420.992	116.01
421.205	170.26
421.417	48.97
421.629	90.63
421.842	60.59
422.054	62.14
422.266	139.26
422.479	152.24
422.691	84.81
422.903	127.82
423.115	82.1
423.328	110.58
423.54	115.23
423.752	112.13
423.964	94.89
424.177	106.51
424.389	115.81
424.601	218.5
424.813	134.8
425.025	153.79
425.238	117.17
425.45	90.82
425.662	87.91
425.874	409.92
426.086	110.39
426.298	146.81
426.51	154.76
426.722	112.52
426.934	99.15
427.146	165.8
427.358	94.11
427.57	162.31
427.782	136.16
427.994	120.07
428.206	97.21
428.418	79
428.63	166.57
428.842	170.84
429.054	135.57
429.266	176.84
429.478	127.63
429.69	120.66
429.902	64.66
430.114	161.15
430.325	141.97
430.537	117.36
430.749	101.48
430.961	59.04
431.173	105.35
431.384	139.06
431.596	47.42
431.808	136.35
432.02	154.56
432.231	171.03
432.443	180.91
432.655	160.18
432.867	99.34
433.078	179.36
433.29	226.44
433.502	182.66
433.713	206.68
433.925	184.79
434.136	192.92
434.348	123.56
434.56	104.58
434.771	239.81
434.983	122.21
435.194	156.31
435.406	177.23
435.617	202.03
435.829	210.17
436.04	218.3
436.252	222.95
436.463	236.9
436.675	199.7
436.886	210.94
437.098	200.09
437.309	234.77
437.521	196.61
437.732	190.41
437.943	217.53
438.155	165.99
438.366	137.51
438.578	237.87
438.789	168.51
439	199.51
439.211	163.28
439.423	207.07
439.634	221.6
439.845	223.15
440.057	209.97
440.268	225.28
440.479	200.87
440.69	197.77
440.902	195.06
441.113	202.42
441.324	198.54
441.535	218.69
441.746	282.24
441.957	197.19
442.168	199.7
442.38	238.45
442.591	255.7
442.802	204.74
443.013	206.87
443.224	263.84
443.435	228.57
443.646	197.38
443.857	204.94
444.068	204.55
444.279	193.51
444.49	292.12
444.701	230.9
444.912	347.15
445.123	269.26
445.334	273.52
445.545	276.43
445.756	266.35
445.967	205.9
446.178	249.3
446.388	280.69
446.599	266.94
446.81	260.93
447.021	231.87
447.232	285.73
447.443	296.97
447.653	237.87
447.864	289.6
448.075	268.1
448.286	292.9
448.496	261.7
448.707	308.59
448.918	274.88
449.129	364.78
449.339	233.8
449.55	295.61
449.761	252.79
449.971	330.68
450.182	258.8
450.393	314.98
450.603	288.25
450.814	309.75
451.024	317.89
451.235	314.6
451.446	361.29
451.656	341.14
451.867	268.49
452.077	293.09
452.288	358
452.498	367.1
452.709	298.32
452.919	327.58
453.13	272.17
453.34	307.23
453.55	239.81
453.761	327.58
453.971	324.87
454.182	316.15
454.392	325.25
454.602	377.95
454.813	348.12
455.023	339.78
455.233	300.26
455.444	319.25
455.654	239.81
455.864	303.94
456.075	289.6
456.285	284.95
456.495	305.88
456.705	295.8
456.916	339.4
457.126	374.66
457.336	353.35
457.546	254.92
457.756	297.35
457.967	351.99
458.177	332.81
458.387	329.9
458.597	292.12
458.807	302.39
459.017	329.52
459.227	324.48
459.437	311.11
459.647	362.26
459.857	354.9
460.068	301.03
460.278	355.48
460.488	348.7
460.698	423.1
460.908	323.12
461.117	281.08
461.327	303.55
461.537	328.93
461.747	334.36
461.957	330.1
462.167	458.16
462.377	383.18
462.587	340.17
462.797	376.4
463.007	369.43
463.216	379.7
463.426	375.05
463.636	395.78
463.846	301.03
464.056	341.72
464.265	391.71
464.475	339.4
464.685	349.28
464.895	386.28
465.104	357.42
465.314	384.54
465.524	340.95
465.733	327
465.943	432.78
466.153	415.15
466.362	407.21
466.572	379.31
466.782	352.18
466.991	385.31
467.201	425.23
467.41	332.62
467.62	409.92
467.829	374.08
468.039	400.62
468.249	370.59
468.458	365.94
468.668	414.38
468.877	402.95
469.086	458.55
469.296	431.62
469.505	379.11
469.715	461.46
469.924	425.61
470.134	449.64
470.343	463.01
470.552	410.31
470.762	428.13
470.971	372.91
471.18	411.66
471.39	409.53
471.599	390.55
471.808	440.15
472.018	407.21
472.227	480.83
472.436	484.9
472.645	430.07
472.855	419.22
473.064	508.15
473.273	440.92
473.482	475.41
473.691	483.74
473.901	477.73
474.11	471.92
474.319	571.51
474.528	466.49
474.737	525.2
474.946	496.91
475.155	484.71
475.364	504.86
475.573	475.79
475.783	509.12
475.992	521.71
476.201	542.83
476.41	487.81
476.619	478.31
476.828	524.04
477.037	492.07
477.245	501.95
477.454	531.4
477.663	515.13
477.872	519.39
478.081	566.27
478.29	477.54
478.499	607.74
478.708	533.34
478.917	587.39
479.125	539.54
479.334	550.97
479.543	523.07
479.752	548.06
479.961	536.63
480.169	594.76
480.378	543.41
480.587	683.49
480.796	604.25
481.004	587.59
481.213	603.86
481.422	583.13
481.63	598.82
481.839	598.05
482.048	657.34
482.256	622.66
482.465	623.24
482.674	624.01
482.882	630.99
483.091	686.79
483.299	630.21
483.508	644.35
483.716	631.37
483.925	669.93
484.134	631.76
484.342	604.64
484.551	657.72
484.759	660.05
484.967	683.3
485.176	694.15
485.384	658.69
485.593	705.39
485.801	658.69
486.01	618.78
486.218	613.55
486.426	575.19
486.635	579.26
486.843	610.26
487.051	611.61
487.26	610.06
487.468	628.08
487.676	656.17
487.885	624.01
488.093	657.53
488.301	670.12
488.509	692.79
488.717	697.05
488.926	703.06
489.134	666.44
489.342	677.1
489.55	644.94
489.758	699.19
489.967	691.63
490.175	820.08
490.383	707.9
490.591	785.6
490.799	694.54
491.007	750.53
491.215	749.17
491.423	726.5
491.631	720.5
491.839	730.38
492.047	763.9
492.255	677.87
492.463	663.15
492.671	707.32
492.879	766.61
493.087	756.73
493.295	759.63
493.503	768.16
493.711	789.08
493.919	783.47
494.127	794.51
494.334	812.53
494.542	710.23
494.75	777.07
494.958	764.87
495.166	852.44
495.374	806.13
495.581	829
495.789	815.82
495.997	859.41
496.205	798.19
496.412	761.38
496.62	806.72
496.828	821.25
497.035	813.3
497.243	843.72
497.451	791.02
497.658	827.64
497.866	823.57
498.074	875.11
498.281	803.23
498.489	909.4
498.696	846.82
498.904	778.82
499.112	811.95
499.319	904.94
499.527	821.25
499.734	874.72
499.942	761.96
500.149	830.35
500.357	843.53
500.564	810.59
500.771	862.51
500.979	816.01
501.186	808.85
501.394	827.25
501.601	824.35
501.808	852.83
502.016	809.23
502.223	813.11
502.43	835.2
502.638	822.02
502.845	823.18
503.052	920.64
503.26	870.46
503.467	940.98
503.674	884.21
503.881	873.17
504.089	970.63
504.296	912.31
504.503	870.85
504.71	884.99
504.917	838.1
505.125	900.1
505.332	889.45
505.539	909.21
505.746	981.09
505.953	935.56
506.16	937.3
506.367	982.25
506.574	989.61
506.781	969.27
506.988	884.99
507.195	933.62
507.402	967.33
507.609	957.06
507.816	882.08
508.023	884.02
508.23	927.03
508.437	897.19
508.644	970.24
508.851	1005.89
509.058	953.38
509.265	971.21
509.472	996.59
509.679	1056.26
509.885	991.55
510.092	969.08
510.299	980.12
510.506	985.54
510.713	977.99
510.92	982.83
511.126	1013.64
511.333	1043.47
511.54	1013.83
511.746	1078.35
511.953	1036.31
512.16	1066.53
512.367	1015.38
512.573	1024.68
512.78	994.65
512.987	977.02
513.193	1010.15
513.4	901.26
513.606	978.18
513.813	1037.66
514.02	1025.46
514.226	1119.04
514.433	1060.14
514.639	992.13
514.846	1026.04
515.052	1027.97
515.259	1016.54
515.465	1045.22
515.672	1011.31
515.878	1137.83
516.085	1034.76
516.291	1108.77
516.497	1015.57
516.704	1035.14
516.91	1012.86
517.117	927.81
517.323	942.34
517.529	970.43
517.736	950.86
517.942	985.16
518.148	980.12
518.354	1050.26
518.561	1017.51
518.767	1024.1
518.973	1071.95
519.179	1059.56
519.386	1050.26
519.592	1061.88
519.798	1043.67
520.004	1153.52
520.21	1097.92
520.417	1138.22
520.623	1148.68
520.829	1151.59
521.035	1153.91
521.241	1159.92
521.447	1159.33
521.653	1262.02
521.859	1146.16
522.065	1181.81
522.271	1293.41
522.477	1244.97
522.683	1252.53
522.889	1207.38
523.095	1228.31
523.301	1173.67
523.507	1190.53
523.713	1218.62
523.919	1172.51
524.125	1266.09
524.331	1222.3
524.537	1311.23
524.742	1244.78
524.948	1298.64
525.154	1301.55
525.36	1335.26
525.566	1304.65
525.772	1310.65
525.977	1222.3
526.183	1283.91
526.389	1349.59
526.595	1283.91
526.8	1242.07
527.006	1185.88
527.212	1179.1
527.417	1145.58
527.623	1158.37
527.829	1258.92
528.034	1231.8
528.24	1254.46
528.446	1222.69
528.651	1347.46
528.857	1325.18
529.062	1376.53
529.268	1375.36
529.473	1355.99
529.679	1338.94
529.884	1428.26
530.09	1384.08
530.295	1430.19
530.501	1426.32
530.706	1381.37
530.912	1341.07
531.117	1390.48
531.323	1397.45
531.528	1430.58
531.733	1417.79
531.939	1369.16
532.144	1433.1
532.35	1369.16
532.555	1447.24
532.76	1403.26
532.966	1408.49
533.171	1384.47
533.376	1329.06
533.581	1297.86
533.787	1380.4
533.992	1410.43
534.197	1428.84
534.402	1397.26
534.607	1398.03
534.813	1499.17
535.018	1391.25
535.223	1400.94
535.428	1454.02
535.633	1464.68
535.838	1476.69
536.043	1439.69
536.249	1566.59
536.454	1465.26
536.659	1483.67
536.864	1448.41
537.069	1479.79
537.274	1455.57
537.479	1524.74
537.684	1470.3
537.889	1439.49
538.094	1560
538.299	1494.13
538.504	1492.39
538.708	1501.69
538.913	1520.48
539.118	1472.24
539.323	1536.37
539.528	1453.83
539.733	1470.11
539.938	1461.97
540.142	1504.21
540.347	1464.68
540.552	1431.16
540.757	1444.72
540.962	1418.96
541.166	1391.83
541.371	1422.25
541.576	1444.92
541.781	1345.72
541.985	1503.62
542.19	1521.25
542.395	1550.7
542.599	1525.71
542.804	1518.15
543.008	1516.22
543.213	1438.33
543.418	1442.01
543.622	1514.09
543.827	1416.63
544.031	1550.12
544.236	1529.39
544.44	1502.85
544.645	1604.37
544.849	1494.32
545.054	1567.37
545.258	1628.2
545.463	1596.23
545.667	1512.73
545.872	1543.15
546.076	1551.29
546.281	1534.24
546.485	1512.92
546.689	1534.62
546.894	1605.15
547.098	1549.74
547.302	1484.64
547.507	1543.15
547.711	1584.8
547.915	1611.15
548.119	1538.69
548.324	1518.35
548.528	1607.47
548.732	1532.88
548.936	1577.05
549.141	1600.5
549.345	1577.83
549.549	1580.15
549.753	1588.68
549.957	1664.82
550.161	1609.8
550.366	1577.05
550.57	1537.72
550.774	1589.45
550.978	1560.59
551.182	1605.92
551.386	1566.79
551.59	1578.41
551.794	1560.97
551.998	1586.94
552.202	1583.25
552.406	1549.93
552.61	1624.33
552.814	1584.8
553.018	1649.9
553.222	1558.65
553.426	1553.42
553.63	1697.37
553.833	1575.31
554.037	1485.8
554.241	1603.4
554.445	1571.24
554.649	1586.74
554.853	1569.11
555.056	1619.1
555.26	1621.62
555.464	1601.08
555.668	1590.81
555.871	1644.09
556.075	1602.43
556.279	1558.65
556.483	1558.26
556.686	1559.62
556.89	1563.1
557.094	1617.74
557.297	1534.62
557.501	1582.29
557.704	1496.46
557.908	1593.14
558.112	1503.04
558.315	1617.16
558.519	1544.5
558.722	1543.73
558.926	1481.73
559.129	1460.03
559.333	1468.17
559.536	1470.88
559.74	1480.37
559.943	1433.29
560.147	1472.62
560.35	1469.14
560.553	1488.71
560.757	1461.39
560.96	1546.44
561.164	1494.91
561.367	1563.1
561.57	1539.85
561.774	1525.52
561.977	1482.51
562.18	1461.77
562.384	1552.45
562.587	1516.6
562.79	1465.46
562.993	1477.86
563.197	1502.07
563.4	1555.74
563.603	1522.22
563.806	1596.23
564.009	1472.24
564.212	1495.68
564.416	1428.45
564.619	1483.28
564.822	1432.32
565.025	1518.35
565.228	1476.11
565.431	1482.89
565.634	1404.43
565.837	1425.16
566.04	1431.94
566.243	1436.97
566.446	1374.2
566.649	1447.63
566.852	1415.86
567.055	1405.98
567.258	1466.62
567.461	1465.46
567.664	1482.51
567.867	1392.8
568.07	1449.18
568.273	1441.24
568.475	1477.08
568.678	1355.02
568.881	1388.54
569.084	1400.74
569.287	1306.58
569.489	1337.78
569.692	1429.81
569.895	1384.08
570.098	1334.68
570.3	1337.19
570.503	1270.93
570.706	1313.36
570.909	1301.93
571.111	1275.97
571.314	1296.51
571.516	1284.3
571.719	1324.21
571.922	1299.03
572.124	1275.2
572.327	1316.27
572.529	1274.61
572.732	1278.3
572.935	1318.98
573.137	1400.94
573.34	1315.69
573.542	1326.54
573.745	1328.09
573.947	1333.9
574.15	1280.81
574.352	1242.84
574.554	1341.26
574.757	1243.23
574.959	1248.26
575.162	1249.43
575.364	1240.13
575.566	1372.65
575.769	1251.17
575.971	1276.36
576.173	1170.96
576.376	1258.92
576.578	1283.72
576.78	1302.71
576.982	1186.27
577.185	1241.68
577.387	1172.7
577.589	1221.14
577.791	1278.68
577.993	1255.43
578.196	1222.69
578.398	1252.53
578.6	1278.1
578.802	1203.7
579.004	1197.12
579.206	1215.33
579.408	1220.75
579.61	1207.97
579.812	1260.28
580.014	1206.03
580.216	1191.11
580.418	1238.38
580.62	1206.22
580.822	1188.59
581.024	1187.43
581.226	1236.25
581.428	1200.02
581.63	1302.71
581.832	1196.15
582.034	1277.33
582.236	1223.66
582.438	1243.42
582.64	1298.25
582.841	1258.15
583.043	1324.41
583.245	1281.59
583.447	1281.59
583.649	1250.2
583.85	1272.29
584.052	1286.24
584.254	1228.5
584.456	1299.8
584.657	1217.46
584.859	1228.7
585.061	1193.43
585.262	1200.02
585.464	1170.57
585.666	1261.25
585.867	1191.88
586.069	1265.12
586.27	1204.28
586.472	1217.46
586.674	1202.54
586.875	1197.89
587.077	1171.15
587.278	1233.15
587.48	1204.09
587.681	1335.45
587.883	1205.83
588.084	1128.34
588.285	1230.05
588.487	1153.33
588.688	1206.8
588.89	1118.45
589.091	1089.59
589.292	1099.27
589.494	1036.11
589.695	1084.35
589.896	1018.09
590.098	1055.68
590.299	1084.74
590.5	1033.98
590.702	1039.41
590.903	1085.13
591.104	1147.32
591.305	1110.9
591.507	1163.21
591.708	1137.83
591.909	1125.04
592.11	1181.23
592.311	1109.35
592.512	1097.72
592.714	1055.68
592.915	1074.47
593.116	1088.81
593.317	1142.09
593.518	1103.54
593.719	1114.77
593.92	1118.26
594.121	1171.35
594.322	1108.19
594.523	1120.97
594.724	1052.58
594.925	1088.62
595.126	1132.4
595.327	1105.28
595.528	1120.2
595.729	1105.47
595.929	1101.99
596.13	1098.5
596.331	1154.3
596.532	1107.8
596.733	1162.82
596.934	1124.07
597.135	1133.57
597.335	1116.9
597.536	1094.82
597.737	1117.29
597.938	1112.25
598.138	1144.42
598.339	1109.74
598.54	1129.69
598.74	1115.35
598.941	1110.7
599.142	1147.32
599.342	1145
599.543	1057.42
599.744	1112.64
599.944	1111.29
600.145	1065.95
600.345	1108.19
600.546	1184.72
600.746	1171.15
600.947	1180.84
601.147	1118.07
601.348	1148.29
601.548	1107.02
601.749	1121.36
601.949	1071.76
602.15	1059.17
602.35	1085.52
602.551	1138.22
602.751	1048.51
602.951	1053.74
603.152	1022.74
603.352	1143.45
603.552	1100.05
603.753	1132.6
603.953	1148.1
604.153	1098.11
604.354	1094.04
604.554	1083.19
604.754	1131.44
604.954	1068.66
605.155	1141.12
605.355	1086.49
605.555	1138.99
605.755	1162.24
605.955	1119.42
606.155	1153.91
606.356	1119.81
606.556	1161.27
606.756	1127.95
606.956	1027.59
607.156	1148.87
607.356	1080.09
607.556	1135.5
607.756	1112.25
607.956	1145.39
608.156	1131.44
608.356	1033.98
608.556	1140.15
608.756	1059.75
608.956	1025.26
609.156	1093.27
609.356	1033.4
609.556	1062.46
609.755	1075.05
609.955	1056.26
610.155	1057.04
610.355	1071.95
610.555	1046.57
610.755	1061.69
610.954	1032.43
611.154	1074.67
611.354	1083.97
611.554	1051.03
611.753	1052
611.953	988.45
612.153	1063.24
612.352	1075.64
612.552	981.09
612.752	966.17
612.951	1035.72
613.151	1039.02
613.351	1032.24
613.55	1009.96
613.75	1012.28
613.949	987.87
614.149	1020.42
614.348	1021.19
614.548	996.78
614.747	985.54
614.947	1025.07
615.146	954.93
615.346	1029.72
615.545	1016.35
615.745	1000.46
615.944	1036.31
616.144	1003.17
616.343	1003.17
616.542	991.94
616.742	993.68
616.941	1002.21
617.14	925.68
617.34	971.59
617.539	979.93
617.738	956.68
617.938	1029.91
618.137	974.31
618.336	953.19
618.535	1013.06
618.734	977.02
618.934	998.33
619.133	993.29
619.332	999.88
619.531	954.93
619.73	1009.57
619.929	1028.75
620.128	990.39
620.328	1033.59
620.527	959.19
620.726	966.56
620.925	993.49
621.124	972.56
621.323	1024.1
621.522	942.14
621.721	927.42
621.92	943.11
622.119	1010.73
622.318	952.8
622.517	971.01
622.715	925.87
622.914	922.19
623.113	959.97
623.312	887.31
623.511	987.09
623.71	952.61
623.909	927.03
624.107	1025.84
624.306	915.6
624.505	899.33
624.704	939.82
624.902	920.64
625.101	980.7
625.3	930.33
625.499	899.33
625.697	908.24
625.896	898.94
626.095	940.4
626.293	886.73
626.492	866.97
626.69	942.73
626.889	888.67
627.088	968.88
627.286	895.26
627.485	868.33
627.683	862.51
627.882	923.74
628.08	841.01
628.279	876.46
628.477	943.31
628.676	866.39
628.874	910.95
629.073	836.75
629.271	831.32
629.469	898.36
629.668	872.2
629.866	894.87
630.065	811.95
630.263	910.76
630.461	816.21
630.66	862.13
630.858	913.66
631.056	930.52
631.254	913.08
631.453	823.96
631.651	913.66
631.849	868.71
632.047	864.45
632.245	875.69
632.444	867.55
632.642	920.83
632.84	917.54
633.038	875.3
633.236	850.31
633.434	871.23
633.632	852.05
633.83	834.61
634.028	890.41
634.227	853.41
634.425	970.04
634.623	899.71
634.821	896.03
635.019	881.89
635.216	850.5
635.414	904.56
635.612	891.96
635.81	894.68
636.008	918.7
636.206	883.05
636.404	883.83
636.602	851.08
636.8	864.26
636.997	924.9
637.195	914.63
637.393	903.39
637.591	934.78
637.789	866
637.986	887.51
638.184	892.35
638.382	921.8
638.58	915.21
638.777	926.06
638.975	892.55
639.173	890.22
639.37	891.58
639.568	884.8
639.765	912.69
639.963	861.16
640.161	902.23
640.358	888.86
640.556	842.56
640.753	806.52
640.951	840.81
641.148	881.11
641.346	849.53
641.543	860
641.741	879.76
641.938	853.99
642.136	844.3
642.333	800.71
642.531	915.21
642.728	897.97
642.925	841.98
643.123	874.72
643.32	874.91
643.517	864.06
643.715	868.52
643.912	847.6
644.109	853.02
644.306	853.6
644.504	821.25
644.701	881.5
644.898	862.71
645.095	804.97
645.293	803.42
645.49	841.2
645.687	843.33
645.884	898.16
646.081	773.39
646.278	782.69
646.475	794.7
646.672	799.55
646.87	830.55
647.067	816.79
647.264	823.38
647.461	765.25
647.658	764.09
647.855	832.48
648.052	759.63
648.249	709.84
648.446	751.3
648.642	728.44
648.839	740.65
649.036	752.08
649.233	710.23
649.43	715.46
649.627	728.05
649.824	748.2
650.021	736.38
650.217	707.52
650.414	748.4
650.611	792.77
650.808	793.35
651.004	746.27
651.201	759.05
651.398	820.47
651.595	762.93
651.791	731.15
651.988	795.28
652.185	728.83
652.381	783.08
652.578	717.01
652.775	778.04
652.971	740.45
653.168	724.95
653.364	777.85
653.561	698.02
653.757	743.36
653.954	777.07
654.15	698.02
654.347	792.96
654.543	754.98
654.74	724.18
654.936	708.68
655.133	741.62
655.329	753.24
655.525	732.9
655.722	745.3
655.918	701.12
656.115	708.1
656.311	661.21
656.507	615.1
656.704	602.7
656.9	637.19
657.096	619.75
657.292	629.44
657.489	698.22
657.685	686.98
657.881	685.43
658.077	675.35
658.273	686.01
658.47	753.05
658.666	676.32
658.862	703.45
659.058	687.75
659.254	733.09
659.45	682.33
659.646	725.92
659.842	689.69
660.038	752.08
660.234	676.9
660.43	708.49
660.626	782.5
660.822	772.03
661.018	750.72
661.214	723.98
661.41	669.35
661.606	732.51
661.802	784.24
661.998	726.12
662.194	685.82
662.39	735.61
662.586	723.79
662.781	747.82
662.977	701.32
663.173	738.32
663.369	682.33
663.564	712.94
663.76	750.14
663.956	725.34
664.152	766.22
664.347	662.37
664.543	685.04
664.739	704.03
664.934	639.7
665.13	643.97
665.326	730.18
665.521	724.76
665.717	677.87
665.912	643
666.108	620.33
666.304	665.28
666.499	669.15
666.695	628.08
666.89	667.41
667.086	747.62
667.281	696.28
667.477	742.78
667.672	695.31
667.867	708.1
668.063	682.72
668.258	650.36
668.454	659.47
668.649	744.33
668.844	684.07
669.04	686.2
669.235	676.9
669.43	684.85
669.626	641.25
669.821	661.02
670.016	611.03
670.211	638.74
670.407	641.25
670.602	662.18
670.797	652.49
670.992	695.7
671.187	655.59
671.382	683.1
671.578	616.26
671.773	669.15
671.968	629.82
672.163	673.8
672.358	665.47
672.553	623.24
672.748	619.56
672.943	679.81
673.138	633.31
673.333	670.9
673.528	635.25
673.723	680.97
673.918	653.07
674.113	614.71
674.308	727.67
674.503	669.54
674.698	692.99
674.892	658.89
675.087	692.4
675.282	685.04
675.477	618.2
675.672	688.34
675.867	641.06
676.061	612.39
676.256	638.15
676.451	641.64
676.646	640.09
676.84	626.72
677.035	620.91
677.23	591.85
677.424	636.02
677.619	671.48
677.814	670.9
678.008	668.57
678.203	564.34
678.397	619.75
678.592	649.39
678.787	706.74
678.981	646.49
679.176	669.54
679.37	623.24
679.565	617.62
679.759	618.59
679.954	674.58
680.148	702.09
680.342	693.76
680.537	624.21
680.731	654.43
680.926	680.39
681.12	669.15
681.314	612.19
681.509	626.92
681.703	638.35
681.897	662.57
682.092	622.07
682.286	637.96
682.48	726.12
682.674	668.96
682.869	647.84
683.063	632.34
683.257	700.74
683.451	619.75
683.645	664.12
683.839	655.98
684.034	624.98
684.228	674.58
684.422	613.16
684.616	616.26
684.81	690.66
685.004	639.12
685.198	638.15
685.392	688.72
685.586	649.59
685.78	639.51
685.974	655.2
686.168	637.57
686.362	731.54
686.556	614.32
686.75	594.56
686.944	560.07
687.138	596.69
687.331	487.61
687.525	525.59
687.719	466.11
687.913	533.34
688.107	512.61
688.301	528.11
688.494	567.82
688.688	490.52
688.882	476.96
689.076	468.43
689.269	516.68
689.463	616.84
689.657	531.4
689.85	543.03
690.044	534.31
690.238	528.11
690.431	543.03
690.625	566.86
690.818	581.97
691.012	567.82
691.205	600.18
691.399	549.42
691.593	620.91
691.786	638.35
691.98	655.4
692.173	683.3
692.366	654.04
692.56	689.11
692.753	711.97
692.947	611.61
693.14	711.59
693.333	718.75
693.527	623.43
693.72	684.46
693.914	658.3
694.107	658.5
694.3	690.27
694.493	674.19
694.687	726.7
694.88	649.2
695.073	734.45
695.266	721.27
695.46	719.72
695.653	757.7
695.846	767.38
696.039	671.09
696.232	723.02
696.425	792.96
696.618	790.44
696.812	758.47
697.005	842.17
697.198	906.3
697.391	848.37
697.584	855.93
697.777	909.01
697.97	858.83
698.163	871.23
698.356	837.33
698.549	957.26
698.742	917.34
698.935	880.92
699.127	917.73
699.32	857.48
699.513	872.4
699.706	932.84
699.899	927.81
700.092	914.63
700.285	922.96
700.477	860.19
700.67	919.28
700.863	922.38
701.056	1036.89
701.248	997.56
701.441	963.46
701.634	929.74
701.826	1073.7
702.019	933.23
702.212	988.64
702.404	970.24
702.597	986.71
702.79	995.62
702.982	1009.57
703.175	1064.4
703.367	1056.46
703.56	1072.92
703.752	1161.47
703.945	1088.62
704.137	1119.42
704.33	1097.92
704.522	1117.49
704.715	1123.3
704.907	1162.63
705.1	1188.78
705.292	1198.28
705.484	1195.95
705.677	1205.64
705.869	1203.51
706.061	1235.67
706.254	1248.65
706.446	1209.52
706.638	1226.57
706.831	1303.29
707.023	1239.35
707.215	1336.81
707.407	1312.78
707.599	1289.34
707.792	1328.67
707.984	1361.22
708.176	1343.98
708.368	1342.04
708.56	1391.64
708.752	1342.62
708.944	1354.44
709.136	1383.5
709.329	1380.4
709.521	1486.38
709.713	1445.5
709.905	1462.74
710.097	1507.69
710.289	1415.47
710.481	1452.47
710.672	1466.23
710.864	1487.54
711.056	1545.86
711.248	1528.42
711.44	1495.29
711.632	1506.53
711.824	1546.64
712.016	1601.66
712.207	1585
712.399	1562.91
712.591	1642.15
712.783	1577.44
712.975	1669.67
713.166	1564.46
713.358	1605.92
713.55	1664.63
713.741	1683.23
713.933	1644.67
714.125	1644.87
714.316	1619.48
714.508	1709.58
714.7	1701.83
714.891	1717.91
715.083	1767.12
715.274	1676.45
715.466	1682.45
715.657	1751.62
715.849	1640.6
716.04	1714.81
716.232	1642.54
716.423	1738.25
716.615	1623.75
716.806	1622.78
716.998	1563.1
717.189	1549.93
717.381	1471.66
717.572	1437.94
717.763	1470.69
717.955	1429.42
718.146	1448.6
718.337	1419.15
718.528	1355.41
718.72	1272.87
718.911	1336.61
719.102	1322.28
719.293	1365.48
719.485	1370.13
719.676	1383.31
719.867	1340.49
720.058	1328.67
720.249	1320.92
720.44	1321.31
720.632	1376.91
720.823	1430
721.014	1509.82
721.205	1543.54
721.396	1560
721.587	1690.78
721.778	1684.97
721.969	1698.73
722.16	1782.23
722.351	1774.29
722.542	1891.51
722.733	1862.06
722.924	1794.05
723.115	1851.21
723.305	1851.79
723.496	1861.67
723.687	1727.4
723.878	1738.25
724.069	1735.15
724.26	1765.57
724.45	1700.47
724.641	1689.43
724.832	1716.16
725.023	1700.28
725.213	1705.31
725.404	1686.13
725.595	1692.53
725.785	1699.7
725.976	1721.01
726.167	1741.16
726.357	1729.92
726.548	1801.8
726.739	1723.53
726.929	1843.46
727.12	1851.98
727.31	1865.54
727.501	1795.6
727.691	1852.18
727.882	1822.73
728.072	1859.34
728.263	1827.38
728.453	1912.24
728.644	1895.57
728.834	1893.44
729.024	1856.05
729.215	1830.86
729.405	1883.37
729.596	1939.36
729.786	1944.21
729.976	1954.86
730.167	1998.84
730.357	1905.26
730.547	1925.61
730.737	1962.22
730.928	1987.41
731.118	2041.85
731.308	1993.61
731.498	1975.4
731.688	2088.16
731.879	2099.78
732.069	2129.23
732.259	2148.22
732.449	2134.85
732.639	2220.1
732.829	2265.63
733.019	2286.17
733.209	2291.01
733.399	2297.21
733.589	2380.52
733.779	2373.94
733.969	2343.91
734.159	2448.92
734.349	2443.88
734.539	2468.68
734.729	2449.69
734.919	2536.1
735.109	2544.43
735.299	2495.61
735.488	2500.26
735.678	2495.61
735.868	2547.34
736.058	2527.38
736.248	2480.5
736.437	2496.38
736.627	2443.1
736.817	2596.16
737.007	2525.45
737.196	2584.93
737.386	2499.48
737.576	2516.73
737.765	2553.15
737.955	2553.35
738.144	2646.15
738.334	2627.16
738.524	2570.98
738.713	2607.21
738.903	2601.4
739.092	2626.97
739.282	2601.98
739.471	2627.94
739.661	2610.11
739.85	2683.16
740.04	2679.48
740.229	2634.72
740.419	2702.92
740.608	2695.36
740.797	2695.75
740.987	2758.52
741.176	2735.47
741.365	2685.48
741.555	2650.03
741.744	2760.85
741.933	2756.39
742.123	2735.47
742.312	2757.94
742.501	2785.07
742.69	2791.46
742.88	2705.44
743.069	2775.57
743.258	2700.79
743.447	2806.19
743.636	2823.24
743.825	2769.37
744.014	2819.75
744.204	2814.52
744.393	2776.35
744.582	2869.93
744.771	2862.18
744.96	2768.99
745.149	2842.61
745.338	2738.37
745.527	2826.34
745.716	2800.18
745.905	2757.75
746.094	2814.91
746.283	2826.34
746.471	2791.85
746.66	2903.25
746.849	2858.11
747.038	2915.85
747.227	2802.7
747.416	2897.44
747.604	2823.43
747.793	2790.88
747.982	2836.6
748.171	2814.13
748.359	2840.29
748.548	2855.59
748.737	2837.57
748.926	2824.98
749.114	2716.09
749.303	2817.04
749.491	2816.26
749.68	2756.78
749.869	2798.44
750.057	2796.31
750.246	2771.31
750.434	2782.16
750.623	2785.46
750.811	2751.36
751	2797.47
751.188	2751.36
751.377	2829.05
751.565	2744.57
751.754	2735.66
751.942	2765.11
752.131	2794.76
752.319	2725.39
752.507	2729.46
752.696	2836.6
752.884	2820.52
753.072	2725.98
753.261	2787.39
753.449	2763.76
753.637	2743.8
753.825	2824.59
754.014	2735.08
754.202	2771.31
754.39	2850.36
754.578	2789.33
754.766	2712.61
754.955	2738.76
755.143	2874.77
755.331	2705.24
755.519	2747.67
755.707	2712.03
755.895	2707.76
756.083	2736.63
756.271	2688.78
756.459	2721.71
756.647	2737.79
756.835	2686.64
757.023	2683.35
757.211	2702.14
757.399	2694.78
757.587	2653.9
757.775	2668.82
757.963	2656.81
758.151	2675.02
758.339	2613.8
758.526	2630.65
758.714	2635.5
758.902	2539.59
759.09	2516.15
759.278	2330.73
759.465	2152.29
759.653	1853.14
759.841	1703.96
760.028	1431.74
760.216	1266.28
760.404	1180.84
760.591	971.59
760.779	799.93
760.967	715.27
761.154	596.89
761.342	632.92
761.529	631.37
761.717	710.42
761.905	663.54
762.092	754.21
762.28	696.28
762.467	702.29
762.655	641.64
762.842	660.05
763.029	674.97
763.217	674.58
763.404	681.55
763.592	699.77
763.779	650.36
763.966	708.68
764.154	749.75
764.341	817.18
764.528	796.06
764.716	840.04
764.903	906.69
765.09	952.03
765.277	1001.04
765.465	1091.33
765.652	1156.24
765.839	1214.55
766.026	1327.31
766.213	1351.34
766.4	1460.42
766.588	1588.1
766.775	1599.14
766.962	1640.99
767.149	1689.04
767.336	1861.67
767.523	1763.83
767.71	1941.88
767.897	1968.81
768.084	2103.85
768.271	2060.84
768.458	2124.58
768.645	2160.62
768.832	2166.63
769.019	2184.84
769.206	2230.76
769.392	2276.87
769.579	2348.94
769.766	2306.51
769.953	2289.85
770.14	2339.06
770.327	2321.82
770.513	2387.3
770.7	2437.1
770.887	2332.67
771.073	2430.9
771.26	2386.92
771.447	2349.33
771.634	2368.51
771.82	2448.92
772.007	2348.17
772.193	2394.67
772.38	2410.36
772.567	2393.31
772.753	2354.37
772.94	2437.49
773.126	2415.59
773.313	2463.06
773.499	2426.83
773.686	2413.65
773.872	2373.74
774.059	2408.23
774.245	2374.52
774.432	2406.68
774.618	2333.44
774.804	2386.72
774.991	2331.7
775.177	2375.29
775.363	2326.08
775.55	2382.46
775.736	2287.14
775.922	2332.47
776.109	2336.74
776.295	2345.46
776.481	2395.05
776.667	2347.78
776.853	2304.96
777.04	2302.25
777.226	2307.09
777.412	2366.38
777.598	2301.28
777.784	2296.44
777.97	2269.12
778.156	2297.21
778.342	2260.01
778.528	2286.36
778.715	2203.83
778.901	2226.88
779.087	2270.67
779.272	2249.16
779.458	2242.38
779.644	2265.05
779.83	2228.43
780.016	2338.48
780.202	2266.99
780.388	2231.92
780.574	2191.23
780.76	2232.31
780.946	2295.86
781.131	2244.71
781.317	2194.14
781.503	2186.2
781.689	2185.03
781.874	2291.21
782.06	2162.75
782.246	2195.88
782.432	2160.04
782.617	2157.13
782.803	2260.79
782.989	2149.38
783.174	2166.43
783.36	2129.43
783.545	2148.8
783.731	2177.28
783.916	2092.42
784.102	2184.84
784.288	2107.73
784.473	2131.75
784.659	2085.25
784.844	2140.86
785.029	2076.73
785.215	2106.57
785.4	2068.01
785.586	2145.31
785.771	2079.05
785.956	2147.45
786.142	2068.78
786.327	2050.77
786.512	2055.61
786.698	2024.61
786.883	2018.02
787.068	2041.66
787.254	2041.85
787.439	2013.57
787.624	2037.01
787.809	2015.12
787.994	2058.32
788.18	2110.83
788.365	2003.3
788.55	2020.74
788.735	1990.32
788.92	1992.06
789.105	1999.23
789.29	1977.92
789.475	1951.57
789.66	1960.09
789.845	1932.97
790.03	1900.03
790.215	1957.96
790.4	1989.15
790.585	1995.35
790.77	1951.57
790.955	1894.41
791.14	1944.59
791.325	1991.67
791.51	1822.73
791.695	1952.73
791.879	1929.87
792.064	1854.11
792.249	1974.24
792.434	1932.39
792.618	1922.89
792.803	1956.6
792.988	1877.94
793.173	1896.35
793.357	1931.81
793.542	1899.84
793.727	1925.61
793.911	1932.19
794.096	1911.66
794.281	1921.92
794.465	2021.7
794.65	1931.81
794.834	1964.94
795.019	2028.87
795.203	1963.19
795.388	1942.85
795.572	2015.5
795.757	1936.46
795.941	1970.36
796.126	1924.83
796.31	1872.71
796.494	1949.05
796.679	1924.64
796.863	1869.22
797.048	1978.5
797.232	1962.22
797.416	1949.24
797.601	1906.04
797.785	2006.79
797.969	1990.32
798.153	1928.9
798.338	1967.26
798.522	2008.92
798.706	1975.59
798.89	1990.32
799.074	2065.3
799.258	2052.7
799.443	1968.62
799.627	1954.86
799.811	1955.05
799.995	1928.71
800.179	1952.34
800.363	1957.96
800.547	1976.37
800.731	1986.64
800.915	1917.86
801.099	1892.28
801.283	1932.58
801.467	1937.04
801.651	1920.96
801.835	2004.65
802.019	1962.8
802.202	1949.24
802.386	1923.28
802.57	1915.92
802.754	1926.96
802.938	1886.27
803.121	1921.54
803.305	1989.93
803.489	1932.97
803.673	1946.92
803.856	1960.48
804.04	1927.16
804.224	1953.31
804.407	1933.16
804.591	1954.67
804.775	1945.17
804.958	1945.56
805.142	2032.94
805.326	1910.69
805.509	1937.81
805.693	1982.57
805.876	1998.07
806.06	1990.12
806.243	1967.07
806.427	2015.12
806.61	2007.37
806.794	1961.84
806.977	2028.87
807.16	1982.76
807.344	2001.75
807.527	1945.17
807.71	1925.8
807.894	1947.69
808.077	2011.24
808.26	1923.09
808.444	1954.86
808.627	1975.59
808.81	1909.72
808.993	1872.52
809.177	1864.77
809.36	1926.38
809.543	1951.18
809.726	1811.68
809.909	1820.79
810.092	1830.67
810.276	1857.41
810.459	1838.03
810.642	1833.19
810.825	1822.34
811.008	1799.09
811.191	1714.23
811.374	1745.03
811.557	1765.18
811.74	1831.44
811.923	1727.79
812.106	1718.49
812.289	1699.7
812.472	1708.03
812.654	1760.92
812.837	1685.94
813.02	1611.54
813.203	1632.66
813.386	1514.47
813.569	1518.74
813.751	1502.85
813.934	1575.89
814.117	1464.87
814.3	1464.49
814.482	1458.09
814.665	1470.49
814.848	1383.69
815.03	1355.41
815.213	1357.15
815.396	1349.59
815.578	1300.77
815.761	1313.56
815.943	1340.29
816.126	1295.35
816.309	1270.35
816.491	1198.67
816.674	1136.09
816.856	1219.01
817.039	1189.37
817.221	1281.2
817.403	1225.6
817.586	1230.63
817.768	1221.92
817.951	1156.62
818.133	1163.4
818.315	1180.45
818.498	1220.75
818.68	1300
818.862	1234.51
819.045	1264.54
819.227	1222.11
819.409	1233.15
819.591	1248.65
819.774	1253.11
819.956	1218.43
820.138	1293.21
820.32	1319.76
820.502	1307.75
820.684	1362.96
820.866	1395.71
821.048	1413.73
821.231	1436.39
821.413	1390.48
821.595	1389.51
821.777	1421.86
821.959	1389.31
822.141	1440.27
822.323	1297.09
822.505	1266.67
822.686	1231.41
822.868	1209.71
823.05	1072.73
823.232	1093.65
823.414	1031.85
823.596	1109.93
823.778	1103.34
823.96	1089.78
824.141	1070.41
824.323	1121.55
824.505	1196.92
824.687	1219.2
824.868	1285.08
825.05	1358.12
825.232	1311.62
825.413	1433.68
825.595	1350.37
825.777	1270.55
825.958	1373.81
826.14	1295.54
826.321	1389.7
826.503	1355.41
826.685	1334.68
826.866	1384.86
827.048	1396.09
827.229	1345.72
827.411	1321.89
827.592	1258.34
827.773	1283.91
827.955	1202.35
828.136	1239.74
828.318	1199.05
828.499	1232.57
828.68	1196.34
828.862	1236.25
829.043	1293.6
829.224	1218.62
829.406	1204.28
829.587	1210.68
829.768	1221.53
829.949	1213.97
830.131	1229.47
830.312	1258.15
830.493	1208.55
830.674	1235.48
830.855	1191.5
831.036	1247.49
831.218	1272.48
831.399	1321.31
831.58	1225.6
831.761	1227.92
831.942	1263.18
832.123	1217.27
832.304	1165.73
832.485	1187.82
832.666	1241.68
832.847	1248.65
833.028	1232.18
833.209	1226.76
833.389	1202.35
833.57	1187.43
833.751	1206.61
833.932	1235.09
834.113	1207
834.294	1165.92
834.475	1210.29
834.655	1243.03
834.836	1272.68
835.017	1231.8
835.198	1216.68
835.378	1235.87
835.559	1286.05
835.74	1230.44
835.92	1194.79
836.101	1204.28
836.281	1273.65
836.462	1226.76
836.643	1273.06
836.823	1288.56
837.004	1246.91
837.184	1317.82
837.365	1256.6
837.545	1265.9
837.726	1272.29
837.906	1346.11
838.087	1279.07
838.267	1268.8
838.448	1230.83
838.628	1250.98
838.808	1251.56
838.989	1333.32
839.169	1252.14
839.349	1320.73
839.53	1309.88
839.71	1306.58
839.89	1249.43
840.07	1351.34
840.251	1235.67
840.431	1331
840.611	1253.88
840.791	1259.7
840.971	1268.03
841.151	1248.07
841.332	1262.02
841.512	1321.5
841.692	1192.66
841.872	1271.13
842.052	1246.71
842.232	1311.81
842.412	1198.86
842.592	1240.32
842.772	1275.58
842.952	1222.88
843.132	1250.2
843.312	1189.56
843.492	1196.53
843.672	1242.26
843.851	1192.85
844.031	1252.14
844.211	1235.48
844.391	1205.45
844.571	1206.22
844.751	1239.35
844.93	1245.75
845.11	1187.43
845.29	1207.19
845.47	1266.09
845.649	1226.95
845.829	1247.68
846.009	1212.62
846.188	1215.91
846.368	1184.91
846.547	1211.26
846.727	1279.07
846.907	1167.28
847.086	1222.11
847.266	1214.17
847.445	1225.02
847.625	1200.02
847.804	1167.47
847.984	1188.4
848.163	1194.6
848.343	1180.65
848.522	1221.33
848.701	1185.1
848.881	1147.13
849.06	1201.18
849.239	1177.74
849.419	1205.45
849.598	1136.67
849.777	1155.85
849.957	1120.78
850.136	1099.27
850.315	1062.66
850.494	1067.5
850.674	1088.23
850.853	1125.24
851.032	1125.43
851.211	1145
851.39	1092.1
851.569	1068.86
851.748	1096.95
851.927	1124.85
852.107	1120.39
852.286	1066.53
852.465	1053.74
852.644	1095.4
852.823	1129.11
853.002	1106.83
853.181	1127.75
853.359	1099.66
853.538	1040.37
853.717	1123.3
853.896	1053.94
854.075	1000.85
854.254	1022.55
854.433	918.31
854.611	1004.72
854.79	898.55
854.969	985.35
855.148	1002.4
855.327	938.46
855.505	969.27
855.684	955.32
855.863	997.75
856.041	982.06
856.22	1023.32
856.399	962.88
856.577	1074.86
856.756	1076.8
856.934	1132.02
857.113	1169.02
857.291	1055.68
857.47	1027.2
857.648	1062.85
857.827	1062.66
858.005	1089.78
858.184	1035.92
858.362	1109.54
858.541	1052.19
858.719	1042.51
858.898	1061.49
859.076	1043.67
859.254	1103.73
859.433	1043.09
859.611	1030.69
859.789	956.87
859.967	1087.84
860.146	1108.57
860.324	1009.57
860.502	1035.72
860.68	1016.54
860.859	973.34
861.037	1002.59
861.215	1033.01
861.393	1034.17
861.571	1002.21
861.749	1005.31
861.927	1020.61
862.105	1021
862.283	992.52
862.461	960.74
862.639	954.16
862.817	972.76
862.995	1021.58
863.173	958.81
863.351	1023.32
863.529	1004.34
863.707	1022.36
863.885	1009.37
864.063	928.19
864.241	970.43
864.418	1005.89
864.596	978.76
864.774	936.14
864.952	980.31
865.129	1004.72
865.307	958.03
865.485	942.53
865.663	962.1
865.84	902.23
866.018	930.71
866.196	815.82
866.373	870.26
866.551	843.91
866.728	785.21
866.906	841.01
867.084	860.77
867.261	869.88
867.439	870.65
867.616	901.07
867.794	896.42
867.971	897
868.149	892.93
868.326	962.29
868.503	931.1
868.681	927.23
868.858	859.22
869.035	871.62
869.213	927.61
869.39	885.76
869.567	978.18
869.745	882.08
869.922	901.65
870.099	927.61
870.276	933.43
870.454	903.78
870.631	930.91
870.808	897.78
870.985	931.49
871.162	986.9
871.339	889.25
871.517	866.97
871.694	853.99
871.871	872.4
872.048	861.16
872.225	873.95
872.402	888.28
872.579	856.7
872.756	903.39
872.933	830.35
873.11	858.45
873.287	895.45
873.463	876.66
873.64	843.14
873.817	903.39
873.994	868.71
874.171	840.43
874.348	861.35
874.524	799.74
874.701	848.76
874.878	751.3
875.055	826.86
875.231	880.92
875.408	865.61
875.585	811.95
875.762	843.53
875.938	844.11
876.115	793.15
876.291	816.6
876.468	807.49
876.645	769.32
876.821	780.37
876.998	775.33
877.174	827.25
877.351	812.14
877.527	794.32
877.704	855.54
877.88	807.1
878.057	779.01
878.233	843.14
878.409	780.56
878.586	812.91
878.762	787.92
878.938	774.75
879.115	729.8
879.291	816.21
879.467	733.09
879.644	766.42
879.82	818.34
879.996	764.09
880.172	741.23
880.349	739.68
880.525	800.13
880.701	742.39
880.877	711.2
881.053	740.84
881.229	765.45
881.405	772.42
881.581	743.36
881.757	755.76
881.933	746.27
882.109	792.18
882.285	740.84
882.461	706.74
882.637	712.17
882.813	733.67
882.989	727.67
883.165	780.17
883.341	747.43
883.517	785.4
883.693	770.29
883.869	783.27
884.044	744.52
884.22	764.67
884.396	812.33
884.572	715.85
884.747	800.13
884.923	790.25
885.099	793.54
885.275	796.83
885.45	724.57
885.626	728.63
885.801	737.74
885.977	717.4
886.153	692.79
886.328	740.26
886.504	749.37
886.679	776.88
886.855	739.1
887.03	763.32
887.206	792.77
887.381	786.37
887.557	760.22
887.732	748.98
887.908	794.32
888.083	774.55
888.258	767.77
888.434	728.63
888.609	749.75
888.784	762.73
888.96	718.75
889.135	722.24
889.31	728.05
889.485	719.53
889.661	728.83
889.836	783.08
890.011	799.74
890.186	745.1
890.361	732.7
890.537	752.66
890.712	745.3
890.887	759.25
891.062	747.62
891.237	776.3
891.412	712.36
891.587	732.9
891.762	767.97
891.937	790.63
892.112	735.03
892.287	746.65
892.462	697.25
892.637	687.17
892.812	659.85
892.987	689.89
893.161	643.58
893.336	697.64
893.511	674.77
893.686	704.22
893.861	679.81
894.035	672.84
894.21	693.37
894.385	637.77
894.56	662.18
894.734	632.34
894.909	623.62
895.084	620.91
895.258	610.45
895.433	632.15
895.608	599.02
895.782	570.92
895.957	600.18
896.131	565.5
896.306	507.38
896.48	543.22
896.655	527.14
896.829	479.86
897.004	497.11
897.178	524.62
897.353	497.69
897.527	545.54
897.701	501.95
897.876	460.49
898.05	537.99
898.224	512.61
898.399	577.32
898.573	494.01
898.747	409.92
898.921	464.17
899.096	386.67
899.27	408.95
899.444	416.9
899.618	446.15
899.792	475.79
899.967	433.56
900.141	498.08
900.315	408.95
900.489	426
900.663	455.84
900.837	422.9
901.011	404.11
901.185	522.88
901.359	453.13
901.533	429.68
901.707	455.84
901.881	456.03
902.055	360.71
902.229	416.12
902.403	494.01
902.576	430.65
902.75	449.64
902.924	558.91
903.098	474.24
903.272	533.34
903.446	548.26
903.619	500.98
903.793	557.75
903.967	515.51
904.14	600.18
904.314	564.53
904.488	555.04
904.661	583.32
904.835	566.47
905.009	597.27
905.182	620.52
905.356	567.82
905.529	568.21
905.703	529.27
905.876	517.45
906.05	533.53
906.223	505.83
906.397	463.01
906.57	461.46
906.744	424.65
906.917	441.31
907.09	420.96
907.264	435.5
907.437	389.58
907.61	401.59
907.784	412.25
907.957	422.9
908.13	360.71
908.304	430.26
908.477	413.41
908.65	425.61
908.823	347.34
908.996	467.08
909.17	377.37
909.343	374.85
909.516	391.32
909.689	391.9
909.862	368.85
910.035	408.37
910.208	363.81
910.381	373.3
910.554	461.46
910.727	388.41
910.9	365.75
911.073	350.83
911.246	426.2
911.419	445.76
911.592	424.45
911.765	384.15
911.938	383.96
912.11	402.95
912.283	385.51
912.456	415.35
912.629	376.79
912.802	362.26
912.974	345.21
913.147	315.95
913.32	271.2
913.493	310.33
913.665	327.38
913.838	353.93
914.01	326.22
914.183	343.66
914.356	305.49
914.528	358.38
914.701	414.18
914.873	372.33
915.046	333.2
915.218	321.18
915.391	283.79
915.563	288.25
915.736	332.81
915.908	363.42
916.081	346.76
916.253	338.82
916.425	347.92
916.598	345.79
916.77	336.1
916.942	316.34
917.115	255.12
917.287	335.72
917.459	302.2
917.632	294.83
917.804	240.39
917.976	314.79
918.148	304.72
918.32	315.18
918.493	356.25
918.665	390.93
918.837	333.78
919.009	379.89
919.181	351.41
919.353	366.33
919.525	355.48
919.697	344.43
919.869	331.07
920.041	411.86
920.213	464.36
920.385	372.72
920.557	343.85
920.729	380.47
920.901	364
921.073	357.03
921.244	330.1
921.416	361.48
921.588	357.42
921.76	342.11
921.932	391.32
922.103	363.62
922.275	338.43
922.447	340.56
922.619	286.89
922.79	336.1
922.962	324.09
923.134	367.49
923.305	287.28
923.477	278.37
923.648	296.97
923.82	309.17
923.991	281.27
924.163	265.39
924.335	285.53
924.506	276.24
924.677	341.33
924.849	260.15
925.02	324.09
925.192	304.91
925.363	315.57
925.535	306.65
925.706	253.18
925.877	324.09
926.049	285.92
926.22	319.44
926.391	302.78
926.562	325.25
926.734	274.69
926.905	311.69
927.076	252.4
927.247	276.43
927.419	242.33
927.59	240.97
927.761	246.79
927.932	232.45
928.103	258.99
928.274	218.69
928.445	194.28
928.616	223.15
928.787	214.62
928.958	246.2
929.129	242.33
929.3	219.47
929.471	178.2
929.642	152.43
929.813	111.94
929.984	188.86
930.155	148.94
930.326	173.16
930.496	149.14
930.667	87.72
930.838	158.63
931.009	100.7
931.18	113.29
931.35	111.94
931.521	133.25
931.692	69.7
931.863	41.41
932.033	119.3
932.204	96.05
932.374	83.26
932.545	56.91
932.716	119.49
932.886	111.16
933.057	16.23
933.227	82.88
933.398	139.26
933.568	48.39
933.739	27.08
933.909	24.56
934.08	86.17
934.25	-0.05
934.421	-11.87
934.591	61.56
934.761	28.04
934.932	-9.93
935.102	42.58
935.272	30.37
935.443	1.11
935.613	30.37
935.783	23.78
935.953	22.62
936.123	195.06
936.294	-9.15
936.464	39.86
936.634	54.39
936.804	-0.63
936.974	-5.09
937.144	52.65
937.314	55.94
937.484	17.97
937.655	13.71
937.825	86.36
937.995	15.65
938.165	86.94
938.334	46.06
938.504	48
938.674	24.94
938.844	38.89
939.014	87.72
939.184	70.09
939.354	127.44
939.524	111.74
939.694	63.11
939.863	64.08
940.033	134.61
940.203	95.28
940.373	90.04
940.542	105.93
940.712	65.63
940.882	125.89
941.051	119.88
941.221	106.13
941.391	110.77
941.56	60.01
941.73	16.81
941.899	167.54
942.069	64.47
942.238	97.99
942.408	42.77
942.577	104.96
942.747	79.39
942.916	29.01
943.086	57.69
943.255	110.58
943.425	82.29
943.594	66.99
943.763	-7.99
943.933	35.79
944.102	-18.84
944.271	47.03
944.441	95.66
944.61	37.93
944.779	61.76
944.948	149.14
945.117	23.01
945.287	39.86
945.456	-23.69
945.625	11.96
945.794	63.11
945.963	16.61
946.132	76.87
946.301	63.5
946.47	74.16
946.639	7.7
946.808	41.61
946.977	61.18
947.146	100.7
947.315	43.16
947.484	80.36
947.653	41.99
947.822	44.9
947.991	29.98
948.16	127.44
948.329	105.35
948.498	33.86
948.666	60.59
948.835	84.43
949.004	6.15
949.173	9.83
949.341	63.11
949.51	47.81
949.679	128.02
949.847	77.45
950.016	136.16
950.185	110.39
950.353	57.3
950.522	54.98
950.69	112.32
950.859	33.86
951.028	87.72
951.196	69.7
951.365	34.83
951.533	71.25
951.701	107.09
951.87	85.59
952.038	36.18
952.207	67.57
952.375	128.21
952.543	19.91
952.712	44.13
952.88	41.22
953.048	108.64
953.217	72.41
953.385	64.47
953.553	117.56
953.721	21.85
953.89	85.2
954.058	11.77
954.226	36.38
954.394	52.07
954.562	-12.06
954.73	52.65
954.898	43.16
955.067	94.5
955.235	38.31
955.403	79.78
955.571	111.36
955.739	83.65
955.907	42.38
956.075	43.16
956.243	17.2
956.41	87.91
956.578	1.89
956.746	18.36
956.914	28.04
957.082	66.02
957.25	83.84
957.418	46.84
957.585	49.55
957.753	91.98
957.921	41.03
958.089	48
958.256	65.83
958.424	69.89
958.592	56.33
958.759	34.24
958.927	93.92
959.095	33.28
959.262	39.09
959.43	69.89
959.597	19.33
959.765	44.32
959.932	21.65
960.1	63.89
960.267	53.04
960.435	49.74
960.602	86.36
960.77	29.01
960.937	-2.18
961.104	58.85
961.272	1.11
961.439	36.18
961.606	55.94
961.774	78.42
961.941	36.76
962.108	55.75
962.275	63.11
962.443	97.21
962.61	58.27
962.777	153.79
962.944	84.81
963.111	73.38
963.278	70.67
963.446	77.84
963.613	40.25
963.78	67.18
963.947	87.53
964.114	76.29
964.281	116.39
964.448	77.26
964.615	43.16
964.782	69.51
964.949	104.77
965.116	99.34
965.282	105.74
965.449	72.8
965.616	30.18
965.783	92.95
965.95	96.05
966.117	39.67
966.283	67.38
966.45	74.16
966.617	97.79
966.784	101.67
966.95	73.19
967.117	88.49
967.284	42.96
967.45	46.64
967.617	103.99
967.784	106.71
967.95	129.57
968.117	56.91
968.283	114.26
968.45	175.29
968.616	85.39
968.783	147.78
968.949	99.93
969.116	103.8
969.282	71.25
969.449	75.32
969.615	90.04
969.781	20.49
969.948	57.88
970.114	60.01
970.28	144.29
970.447	77.45
970.613	119.3
970.779	77.26
970.945	102.64
971.112	79
971.278	68.34
971.444	49.94
971.61	116.01
971.776	55.36
971.942	97.6
972.108	94.69
972.275	84.81
972.441	77.84
972.607	149.91
972.773	46.45
972.939	116.97
973.105	54.2
973.271	39.86
973.437	65.63
973.602	57.88
973.768	110.39
973.934	71.25
974.1	87.53
974.266	-1.4
974.432	99.34
974.598	52.46
974.763	119.49
974.929	67.96
975.095	133.44
975.261	55.75
975.426	44.13
975.592	64.47
975.758	151.66
975.923	22.23
976.089	69.51
976.255	82.49
976.42	89.66
976.586	68.34
976.751	95.47
976.917	152.04
977.082	86.36
977.248	38.7
977.413	21.84
977.579	73.96
977.744	71.64
977.91	37.54
978.075	55.36
978.24	120.07
978.406	74.93
978.571	41.22
978.736	50.91
978.902	88.69
979.067	35.6
979.232	26.49
979.397	73.96
979.563	111.16
979.728	49.74
979.893	68.93
980.058	45.87
980.223	101.67
980.388	76.29
980.554	63.31
980.719	41.03
980.884	73.58
981.049	88.11
981.214	48.97
981.379	42.77
981.544	9.64
981.709	67.96
981.874	41.99
982.039	47.61
982.204	90.63
982.368	60.79
982.533	36.38
982.698	94.5
982.863	112.13
983.028	52.07
983.193	78.03
983.357	79.97
983.522	81.52
983.687	44.13
983.852	59.43
984.016	69.12
984.181	71.44
984.346	91.4
984.51	99.73
984.675	77.64
984.839	83.26
985.004	70.48
985.168	99.54
985.333	93.53
985.498	52.84
985.662	85.01
985.827	82.49
985.991	63.11
986.155	50.52
986.32	107.48
986.484	110.77
986.649	87.14
986.813	3.44
986.977	80.74
987.142	84.23
987.306	15.06
987.47	32.69
987.634	102.06
987.799	51.49
987.963	68.15
988.127	78.42
988.291	102.06
988.455	61.76
988.62	74.35
988.784	77.84
988.948	76.29
989.112	26.3
989.276	80.55
989.44	53.81
989.604	34.83
989.768	34.63
989.932	156.5
990.096	17.2
990.26	27.08
990.424	47.23
990.588	32.89
990.752	115.04
990.915	121.82
991.079	54.78
991.243	52.84
991.407	80.74
991.571	41.8
991.734	71.83
991.898	80.55
992.062	116.2
992.226	56.53
992.389	60.4
992.553	15.45
992.717	34.63
992.88	46.26
993.044	67.57
993.207	32.69
993.371	86.36
993.535	72.99
993.698	60.01
993.862	80.55
994.025	104.77
994.189	77.45
994.352	53.23
994.515	59.24
994.679	76.68
994.842	18.55
995.006	87.72
995.169	48.39
995.332	17.58
995.496	67.38
995.659	8.67
995.822	23.59
995.985	30.37
996.149	110.97
996.312	52.26
996.475	122.01
996.638	58.85
996.801	106.71
996.964	126.27
997.128	57.88
997.291	49.16
997.454	50.52
997.617	7.9
997.78	82.29
997.943	28.24
998.106	104.58
998.269	16.03
998.432	70.09
998.595	84.81
998.758	-16.9
998.92	11.19
999.083	1.89
999.246	67.76
999.409	25.53
999.572	-0.82
999.735	12.93
999.897	56.33
1000.06	31.73
1000.223	15.45
1000.386	94.11
1000.548	79.19
1000.711	34.05
1000.874	59.24
1001.036	7.7
1001.199	60.98
1001.361	39.09
1001.524	46.45
1001.687	97.21
1001.849	6.73
1002.012	67.18
1002.174	63.69
1002.337	63.31
1002.499	42.77
1002.661	102.83
1002.824	17.39
1002.986	24.56
1003.149	44.32
1003.311	19.33
1003.473	91.79
1003.636	24.94
1003.798	59.24
1003.96	74.74
1004.123	50.33
1004.285	3.25
1004.447	57.49
1004.609	30.95
1004.771	98.38
1004.933	-4.89
1005.096	12.55
1005.258	18.55
1005.42	43.74
1005.582	57.3
1005.744	74.35
1005.906	-9.93
1006.068	45.48
1006.23	2.86
1006.392	-27.95
1006.554	10.61
1006.716	62.92
1006.878	53.62
1007.04	1.5
1007.202	23.01
1007.363	30.76
1007.525	42.77
1007.687	71.64
1007.849	58.08
1008.011	-38.8
1008.172	24.56
1008.334	10.03
1008.496	52.07
1008.658	4.6
1008.819	7.9
1008.981	10.8
1009.143	-13.22
1009.304	12.93
1009.466	48.39
1009.627	82.88
1009.789	128.6
1009.95	35.6
1010.112	3.25
1010.273	67.96
1010.435	10.8
1010.596	9.25
1010.758	-2.18
1010.919	25.72
1011.081	-5.47
1011.242	34.05
1011.403	70.48
1011.565	33.28
1011.726	63.5
1011.887	23.39
1012.049	-3.92
1012.21	59.24
1012.371	74.35
1012.532	-53.91
1012.693	33.08
1012.855	17.2
1013.016	23.39
1013.177	64.47
1013.338	37.15
1013.499	74.54
1013.66	62.73
1013.821	50.33
1013.982	18.75
1014.143	14.29
1014.304	16.03
1014.465	49.16
1014.626	60.59
1014.787	29.79
1014.948	130.15
1015.109	-52.55
1015.27	60.21
1015.431	10.41
1015.592	2.86
1015.752	57.49
1015.913	47.61
1016.074	43.54
1016.235	25.14
1016.395	29.79
1016.556	31.73
1016.717	22.62
1016.877	61.56
1017.038	23.01
1017.199	60.79
1017.359	18.36
1017.52	38.51
1017.681	19.13
1017.841	8.48
1018.002	4.99
1018.162	18.55
1018.323	80.94
1018.483	36.57
1018.644	31.14
1018.804	-20.97
1018.964	-19.23
1019.125	4.8
1019.285	37.34
1019.446	22.23
1019.606	-12.25
1019.766	-40.74
1019.926	40.83
1020.087	41.8
1020.247	-4.31
1020.407	48.97
1020.567	75.9
1020.728	-0.44
1020.888	-7.41
1021.048	-1.79
1021.208	-1.6
1021.368	10.8
1021.528	56.53
1021.688	61.95
1021.848	49.74
1022.008	7.7
1022.168	15.06
1022.328	29.98
1022.488	61.37
1022.648	-0.63
1022.808	18.55
1022.968	48.58
1023.128	9.06
1023.288	-1.21
1023.448	37.34
1023.608	31.73
1023.767	29.21
1023.927	-16.9
1024.087	-21.17
1024.247	-33.18
1024.406	-12.45
1024.566	-2.76
1024.726	3.25
1024.885	21.07
1025.045	12.74
1025.205	4.8
1025.364	4.6
1025.524	28.82
1025.683	33.47
1025.843	24.56
1026.003	1.11
1026.162	68.15
1026.321	67.38
1026.481	32.69
1026.64	17.58
1026.8	14.48
1026.959	33.47
1027.119	26.3
1027.278	6.54
1027.437	-7.22
1027.597	17.39
1027.756	14.87
1027.915	25.53
1028.074	42.96
1028.234	0.53
1028.393	0.34
1028.552	18.36
1028.711	-77.35
1028.87	55.75
1029.03	-37.64
1029.189	18.36
1029.348	-17.49
1029.507	3.44
1029.666	-26.01
1029.825	-27.56
1029.984	-0.82
1030.143	1.11
1030.302	10.41
1030.461	-48.68
1030.62	38.31
1030.779	33.28
1030.938	-6.83
1031.097	-6.44
1031.255	46.84
1031.414	60.79
1031.573	59.43
1031.732	-42.09
1031.891	29.98
1032.049	52.26
1032.208	40.06
1032.367	-15.74
1032.525	24.36
1032.684	-6.44
1032.843	15.26
1033.001	-25.04
1033.16	136.74
1033.319	34.24
1033.477	31.92
1033.636	-12.25
1033.794	-32.4
1033.953	38.31
1034.111	40.44
1034.27	-7.22
1034.428	21.46
1034.587	-12.84
1034.745	29.98
1034.903	8.09
1035.062	22.23
1035.22	-21.36
1035.378	58.46
1035.537	-33.37
1035.695	19.91
1035.853	20.3
1036.011	18.36
1036.17	38.51
1036.328	-63.79
1036.486	21.26
1036.644	8.86
1036.802	-50.23
1036.96	-19.62
1037.119	10.41
1037.277	-16.9
1037.435	-26.01
1037.593	-18.45
1037.751	5.57
1037.909	9.25
1038.067	9.25
