Data from pine_FLMT105791__80__17-21-20-077.txt Node

Date: Mon Mar 20 17:21:20 GMT 2023
User: antho
Spectrometer: FLMT10579
Trigger mode: 0
Integration Time (sec): 1.000000E-1
Scans to average: 10
Electric dark correction enabled: true
Nonlinearity correction enabled: false
Boxcar width: 0
XAxis mode: Wavelengths
Number of Pixels in Spectrum: 3648
>>>>>Begin Spectral Data<<<<<
345.248	-166.67
345.464	-166.67
345.681	-166.67
345.898	-202.32
346.114	-157.37
346.331	-34.15
346.548	-2.95
346.764	-31.44
346.981	-9.93
347.197	-17.1
347.414	28.24
347.631	-2.76
347.847	73.19
348.064	7.9
348.28	28.43
348.497	-42.29
348.713	2.86
348.93	38.51
349.146	28.82
349.363	13.51
349.579	2.08
349.796	-7.41
350.012	-11.29
350.229	24.36
350.445	8.48
350.661	-39.77
350.878	0.92
351.094	5.76
351.311	10.22
351.527	32.89
351.743	-2.18
351.96	15.65
352.176	42.19
352.392	30.37
352.609	22.04
352.825	-6.83
353.041	10.61
353.257	-5.09
353.474	-5.47
353.69	18.16
353.906	9.06
354.122	-10.7
354.339	42.58
354.555	-15.35
354.771	-1.6
354.987	60.98
355.203	46.06
355.42	17.58
355.636	-19.62
355.852	-10.9
356.068	0.34
356.284	-27.37
356.5	52.07
356.716	-19.81
356.932	5.76
357.148	18.55
357.364	7.51
357.58	46.64
357.796	35.6
358.012	32.89
358.228	27.66
358.444	-72.32
358.66	45.09
358.876	17.97
359.092	10.41
359.308	4.6
359.524	20.3
359.74	7.9
359.956	-7.6
360.172	14.48
360.388	20.49
360.604	-22.52
360.819	44.71
361.035	18.55
361.251	14.1
361.467	-24.46
361.683	26.88
361.898	6.35
362.114	54.78
362.33	-0.24
362.546	42.19
362.762	0.53
362.977	15.84
363.193	0.53
363.409	69.89
363.624	-27.17
363.84	-18.45
364.056	-22.72
364.271	5.76
364.487	21.07
364.703	-7.6
364.918	-8.57
365.134	-24.27
365.35	6.35
365.565	108.06
365.781	-10.9
365.996	7.12
366.212	69.12
366.427	17.58
366.643	-17.49
366.858	3.25
367.074	-29.89
367.289	42.38
367.505	90.24
367.72	-44.8
367.936	-0.63
368.151	18.55
368.367	9.25
368.582	40.64
368.798	1.5
369.013	51.49
369.228	17
369.444	35.6
369.659	51.1
369.874	31.34
370.09	50.71
370.305	-36.86
370.52	-10.32
370.736	58.08
370.951	5.18
371.166	21.07
371.381	83.84
371.597	51.49
371.812	-16.13
372.027	-40.15
372.242	24.94
372.458	77.26
372.673	-6.64
372.888	-0.82
373.103	24.56
373.318	87.33
373.533	18.16
373.749	31.73
373.964	-31.82
374.179	44.51
374.394	-15.94
374.609	55.75
374.824	-17.49
375.039	64.66
375.254	7.51
375.469	36.76
375.684	10.22
375.899	75.13
376.114	-7.22
376.329	1.7
376.544	51.49
376.759	39.09
376.974	-5.28
377.189	11.19
377.404	6.35
377.619	30.76
377.834	-21.75
378.049	-22.72
378.264	-25.62
378.478	12.93
378.693	-28.92
378.908	24.75
379.123	8.86
379.338	57.69
379.553	20.49
379.767	35.6
379.982	35.79
380.197	49.16
380.412	10.22
380.626	48.58
380.841	119.88
381.056	30.18
381.271	64.28
381.485	-26.98
381.7	-45.77
381.915	11.58
382.129	18.75
382.344	19.33
382.559	0.34
382.773	51.88
382.988	-26.59
383.202	18.75
383.417	-8.96
383.632	117.36
383.846	8.28
384.061	17.58
384.275	9.64
384.49	32.5
384.704	40.06
384.919	19.71
385.133	12.93
385.348	20.88
385.562	-40.54
385.777	75.71
385.991	18.36
386.206	-0.05
386.42	13.51
386.634	30.95
386.849	27.46
387.063	22.04
387.277	-19.42
387.492	-12.64
387.706	-30.47
387.92	-11.09
388.135	38.31
388.349	26.49
388.563	21.26
388.778	35.41
388.992	41.03
389.206	48.58
389.42	108.45
389.635	16.61
389.849	64.08
390.063	58.66
390.277	35.02
390.491	65.05
390.706	18.36
390.92	54.39
391.134	34.63
391.348	53.62
391.562	-41.12
391.776	23.59
391.99	-18.26
392.205	59.43
392.419	0.15
392.633	38.51
392.847	52.84
393.061	-20.2
393.275	100.89
393.489	25.72
393.703	35.41
393.917	81.13
394.131	3.63
394.345	62.34
394.559	81.71
394.773	16.03
394.986	35.41
395.2	33.47
395.414	49.94
395.628	-33.37
395.842	34.24
396.056	5.76
396.27	-21.94
396.484	51.29
396.697	23.78
396.911	83.84
397.125	55.56
397.339	43.54
397.553	58.08
397.766	102.44
397.98	72.03
398.194	75.9
398.408	1.7
398.621	30.95
398.835	50.71
399.049	33.08
399.262	74.93
399.476	57.69
399.69	33.86
399.903	97.02
400.117	18.36
400.331	58.66
400.544	25.91
400.758	137.9
400.971	36.96
401.185	65.05
401.398	15.26
401.612	84.43
401.826	41.41
402.039	25.53
402.253	5.18
402.466	57.3
402.68	20.68
402.893	30.18
403.106	39.48
403.32	49.94
403.533	34.44
403.747	20.49
403.96	14.48
404.174	63.11
404.387	-19.81
404.6	25.53
404.814	77.26
405.027	30.56
405.24	29.21
405.454	26.49
405.667	62.34
405.88	1.11
406.094	48.19
406.307	61.76
406.52	58.85
406.733	21.46
406.947	16.81
407.16	97.6
407.373	74.16
407.586	26.88
407.799	-1.6
408.012	58.27
408.226	80.16
408.439	94.11
408.652	0.15
408.865	68.93
409.078	86.36
409.291	54.78
409.504	16.03
409.717	79.78
409.93	37.34
410.143	74.74
410.357	-4.31
410.57	14.48
410.783	45.68
410.996	39.28
411.209	43.74
411.421	83.26
411.634	30.95
411.847	11.96
412.06	48.78
412.273	48.78
412.486	61.56
412.699	129.37
412.912	36.18
413.125	85.2
413.338	57.69
413.55	39.09
413.763	59.24
413.976	63.5
414.189	1.31
414.402	54.2
414.615	105.74
414.827	18.75
415.04	70.09
415.253	46.06
415.466	64.28
415.678	117.17
415.891	31.14
416.104	45.29
416.316	60.98
416.529	13.13
416.742	67.38
416.954	89.46
417.167	45.29
417.38	48.39
417.592	70.67
417.805	35.99
418.017	13.51
418.23	69.51
418.442	15.06
418.655	44.51
418.868	75.32
419.08	89.08
419.293	90.63
419.505	69.7
419.718	66.21
419.93	66.21
420.142	39.28
420.355	110.97
420.567	95.86
420.78	72.03
420.992	43.74
421.205	125.31
421.417	7.31
421.629	20.3
421.842	22.04
422.054	13.13
422.266	81.13
422.479	77.45
422.691	41.41
422.903	72.03
423.115	46.06
423.328	50.33
423.54	65.83
423.752	55.75
423.964	39.48
424.177	68.73
424.389	45.29
424.601	167.74
424.813	81.91
425.025	92.37
425.238	86.56
425.45	50.52
425.662	52.46
425.874	363.81
426.086	72.41
426.298	93.14
426.51	65.24
426.722	75.13
426.934	70.86
427.146	102.25
427.358	7.7
427.57	105.54
427.782	65.83
427.994	84.43
428.206	43.35
428.418	46.84
428.63	115.04
428.842	108.26
429.054	53.43
429.266	99.54
429.478	61.18
429.69	65.24
429.902	32.31
430.114	110.39
430.325	126.27
430.537	47.42
430.749	86.94
430.961	29.4
431.173	65.63
431.384	91.01
431.596	17.58
431.808	74.93
432.02	85.2
432.231	119.88
432.443	160.76
432.655	91.79
432.867	83.07
433.078	87.53
433.29	174.32
433.502	103.22
433.713	146.04
433.925	116.97
434.136	137.71
434.348	66.02
434.56	39.28
434.771	209.2
434.983	71.83
435.194	78.23
435.406	97.79
435.617	142.55
435.829	146.81
436.04	133.44
436.252	141.19
436.463	164.25
436.675	151.85
436.886	124.72
437.098	116.01
437.309	189.05
437.521	105.74
437.732	145.65
437.943	130.54
438.155	147.59
438.366	83.65
438.578	179.36
438.789	118.52
439	157.08
439.211	103.61
439.423	162.89
439.634	156.89
439.845	161.73
440.057	136.54
440.268	169.87
440.479	105.74
440.69	115.42
440.902	118.33
441.113	129.37
441.324	125.69
441.535	150.88
441.746	193.12
441.957	115.04
442.168	156.5
442.38	160.96
442.591	178.59
442.802	137.51
443.013	135.96
443.224	148.36
443.435	157.27
443.646	133.83
443.857	137.71
444.068	142.74
444.279	126.47
444.49	213.46
444.701	162.31
444.912	284.18
445.123	186.53
445.334	174.91
445.545	167.74
445.756	160.76
445.967	135.38
446.178	180.91
446.388	202.03
446.599	215.59
446.81	189.24
447.021	182.07
447.232	205.32
447.443	246.01
447.653	178.78
447.864	223.15
448.075	194.86
448.286	220.24
448.496	202.42
448.707	210.17
448.918	176.26
449.129	276.43
449.339	167.16
449.55	188.27
449.761	155.92
449.971	260.54
450.182	187.69
450.393	221.79
450.603	196.41
450.814	286.7
451.024	229.54
451.235	235.55
451.446	286.89
451.656	231.87
451.867	187.31
452.077	226.83
452.288	297.35
452.498	283.21
452.709	221.21
452.919	223.15
453.13	216.75
453.34	257.83
453.55	188.47
453.761	253.76
453.971	238.26
454.182	255.31
454.392	265.77
454.602	292.51
454.813	237.29
455.023	248.34
455.233	209.78
455.444	223.34
455.654	185.17
455.864	219.66
456.075	227.22
456.285	209.97
456.495	199.32
456.705	241.75
456.916	290.57
457.126	270.62
457.336	260.15
457.546	184.98
457.756	238.45
457.967	273.33
458.177	210.55
458.387	262.09
458.597	205.13
458.807	256.28
459.017	235.94
459.227	237.87
459.437	233.42
459.647	278.56
459.857	299.29
460.068	229.74
460.278	301.03
460.488	271.39
460.698	316.15
460.908	238.65
461.117	217.92
461.327	215.59
461.537	259.19
461.747	277.4
461.957	247.75
462.167	369.04
462.377	292.51
462.587	253.76
462.797	298.32
463.007	314.98
463.216	308.4
463.426	300.65
463.636	276.04
463.846	242.33
464.056	256.47
464.265	307.62
464.475	273.72
464.685	281.47
464.895	274.3
465.104	263.84
465.314	302.97
465.524	285.15
465.733	252.21
465.943	343.08
466.153	326.61
466.362	316.34
466.572	310.33
466.782	282.63
466.991	280.5
467.201	395
467.41	235.74
467.62	302.58
467.829	299.87
468.039	302.97
468.249	285.34
468.458	295.42
468.668	334.75
468.877	326.8
469.086	356.45
469.296	321.77
469.505	287.86
469.715	379.11
469.924	351.6
470.134	336.68
470.343	390.16
470.552	299.29
470.762	333.97
470.971	275.65
471.18	353.93
471.39	322.15
471.599	320.99
471.808	337.27
472.018	328.93
472.227	373.11
472.436	352.77
472.645	326.8
472.855	295.8
473.064	372.14
473.273	347.53
473.482	360.71
473.691	371.75
473.901	376.79
474.11	361.68
474.319	459.71
474.528	349.86
474.737	397.52
474.946	378.34
475.155	387.45
475.364	401.01
475.573	393.45
475.783	390.16
475.992	432.2
476.201	437.43
476.41	384.35
476.619	357.8
476.828	426
477.037	355.67
477.245	372.91
477.454	459.33
477.663	370.4
477.872	375.63
478.081	479.09
478.29	363.03
478.499	476.38
478.708	415.54
478.917	479.67
479.125	394.23
479.334	407.4
479.543	403.33
479.752	440.53
479.961	451
480.169	456.81
480.378	415.73
480.587	546.9
480.796	488.78
481.004	443.63
481.213	477.34
481.422	443.05
481.63	464.17
481.839	490.91
482.048	545.93
482.256	493.62
482.465	487.81
482.674	489.36
482.882	523.07
483.091	559.88
483.299	530.04
483.508	522.29
483.716	495.56
483.925	521.13
484.134	491.29
484.342	470.95
484.551	551.16
484.759	522.68
484.967	544.38
485.176	563.95
485.384	549.22
485.593	538.96
485.801	534.5
486.01	501.37
486.218	481.61
486.426	432.4
486.635	473.28
486.843	444.41
487.051	491.29
487.26	468.04
487.468	504.47
487.676	539.34
487.885	519.19
488.093	511.06
488.301	538.96
488.509	547.48
488.717	576.16
488.926	556.2
489.134	540.31
489.342	554.46
489.55	511.64
489.758	560.66
489.967	542.25
490.175	663.73
490.383	557.56
490.591	630.99
490.799	556.01
491.007	653.85
491.215	598.82
491.423	563.76
491.631	598.63
491.839	595.72
492.047	622.27
492.255	573.06
492.463	545.54
492.671	595.14
492.879	644.74
493.087	581.58
493.295	623.04
493.503	615.87
493.711	656.17
493.919	648.23
494.127	652.88
494.334	670.51
494.542	609.67
494.75	625.17
494.958	634.28
495.166	693.18
495.374	672.64
495.581	630.6
495.789	656.37
495.997	688.53
496.205	628.66
496.412	611.42
496.62	652.49
496.828	648.62
497.035	663.15
497.243	711
497.451	659.85
497.658	654.82
497.866	659.47
498.074	706.16
498.281	643
498.489	707.9
498.696	683.3
498.904	666.83
499.112	648.04
499.319	741.03
499.527	670.12
499.734	720.5
499.942	654.24
500.149	649.97
500.357	720.69
500.564	652.49
500.771	701.32
500.979	676.9
501.186	633.12
501.394	712.75
501.601	694.15
501.808	722.63
502.016	713.33
502.223	677.1
502.43	695.89
502.638	718.17
502.845	658.5
503.052	761.38
503.26	676.9
503.467	775.13
503.674	742.58
503.881	699.77
504.089	781.72
504.296	752.85
504.503	683.88
504.71	715.27
504.917	702.29
505.125	726.31
505.332	760.8
505.539	741.23
505.746	802.84
505.953	763.9
506.16	772.81
506.367	807.88
506.574	828.22
506.781	806.72
506.988	715.65
507.195	771.65
507.402	745.49
507.609	829.19
507.816	747.23
508.023	756.34
508.23	744.52
508.437	726.89
508.644	761.38
508.851	825.9
509.058	816.4
509.265	785.21
509.472	822.02
509.679	912.31
509.885	786.37
510.092	822.8
510.299	811.95
510.506	790.05
510.713	815.82
510.92	798.19
511.126	830.35
511.333	864.65
511.54	878.01
511.746	879.95
511.953	905.14
512.16	884.6
512.367	853.99
512.573	838.88
512.78	835.97
512.987	847.6
513.193	841.98
513.4	775.33
513.606	847.79
513.813	896.81
514.02	861.35
514.226	933.62
514.433	891.19
514.639	841.2
514.846	865.23
515.052	856.12
515.259	876.85
515.465	852.63
515.672	895.84
515.878	943.5
516.085	885.76
516.291	952.41
516.497	851.86
516.704	861.35
516.91	818.73
517.117	817.18
517.323	758.08
517.529	818.92
517.736	797.8
517.942	824.73
518.148	807.68
518.354	872.4
518.561	862.51
518.767	874.33
518.973	891.38
519.179	912.11
519.386	854.96
519.592	846.43
519.798	858.25
520.004	941.37
520.21	921.99
520.417	993.87
520.623	988.64
520.829	982.64
521.035	960.36
521.241	982.25
521.447	982.64
521.653	1106.83
521.859	987.09
522.065	976.24
522.271	1060.91
522.477	1077.19
522.683	1046.96
522.889	1073.89
523.095	1043.67
523.301	1017.51
523.507	988.06
523.713	1022.16
523.919	985.74
524.125	1064.01
524.331	1079.12
524.537	1135.7
524.742	1092.69
524.948	1106.64
525.154	1098.11
525.36	1183.17
525.566	1119.23
525.772	1125.43
525.977	1077.96
526.183	1120.59
526.389	1144.42
526.595	1071.18
526.8	1078.54
527.006	1026.62
527.212	999.49
527.417	978.96
527.623	985.54
527.829	1031.07
528.034	1054.52
528.24	1076.99
528.446	1058.2
528.651	1150.42
528.857	1136.47
529.062	1216.3
529.268	1131.82
529.473	1168.25
529.679	1153.91
529.884	1218.82
530.09	1185.49
530.295	1204.09
530.501	1193.24
530.706	1210.68
530.912	1124.07
531.117	1185.49
531.323	1162.63
531.528	1242.65
531.733	1209.71
531.939	1188.78
532.144	1229.47
532.35	1205.64
532.555	1236.06
532.76	1207
532.966	1204.28
533.171	1219.59
533.376	1140.15
533.581	1136.09
533.787	1197.31
533.992	1233.35
534.197	1261.63
534.402	1183.17
534.607	1226.57
534.813	1298.25
535.018	1198.86
535.223	1240.32
535.428	1252.91
535.633	1289.92
535.838	1251.56
536.043	1260.47
536.249	1375.75
536.454	1253.69
536.659	1297.67
536.864	1218.04
537.069	1220.56
537.274	1256.21
537.479	1281.98
537.684	1286.63
537.889	1237.8
538.094	1348.82
538.299	1276.16
538.504	1294.76
538.708	1265.51
538.913	1302.9
539.118	1312.59
539.323	1330.41
539.528	1257.95
539.733	1281.59
539.938	1309.68
540.142	1308.13
540.347	1233.73
540.552	1261.05
540.757	1286.63
540.962	1238.19
541.166	1224.43
541.371	1230.63
541.576	1271.9
541.781	1176.77
541.985	1235.67
542.19	1284.3
542.395	1330.41
542.599	1344.36
542.804	1295.73
543.008	1362.38
543.213	1257.76
543.418	1276.75
543.622	1300
543.827	1275.78
544.031	1355.79
544.236	1384.47
544.44	1339.33
544.645	1380.79
544.849	1319.18
545.054	1369.94
545.258	1409.46
545.463	1426.51
545.667	1294.38
545.872	1351.34
546.076	1364.32
546.281	1346.11
546.485	1324.8
546.689	1369.36
546.894	1362.58
547.098	1353.28
547.302	1321.89
547.507	1361.03
547.711	1359.86
547.915	1414.31
548.119	1321.31
548.324	1335.06
548.528	1398.81
548.732	1323.63
548.936	1371.68
549.141	1412.95
549.345	1321.89
549.549	1328.28
549.753	1366.64
549.957	1448.79
550.161	1415.08
550.366	1369.36
550.57	1331.19
550.774	1376.14
550.978	1345.91
551.182	1384.86
551.386	1365.29
551.59	1357.54
551.794	1325.38
551.998	1402.68
552.202	1365.48
552.406	1369.16
552.61	1351.73
552.814	1402.29
553.018	1423.99
553.222	1364.32
553.426	1379.63
553.63	1466.81
553.833	1355.21
554.037	1325.96
554.241	1374.98
554.445	1394.35
554.649	1364.32
554.853	1355.02
555.056	1400.94
555.26	1439.3
555.464	1402.49
555.668	1371.1
555.871	1433.68
556.075	1432.91
556.279	1367.61
556.483	1330.03
556.686	1393.58
556.89	1356.57
557.094	1384.66
557.297	1344.94
557.501	1390.48
557.704	1321.5
557.908	1388.15
558.112	1318.79
558.315	1418.38
558.519	1310.65
558.722	1343.39
558.926	1333.32
559.129	1294.57
559.333	1264.15
559.536	1272.87
559.74	1293.21
559.943	1264.93
560.147	1281.01
560.35	1318.01
560.553	1300.19
560.757	1266.28
560.96	1347.46
561.164	1283.53
561.367	1350.56
561.57	1286.05
561.774	1311.43
561.977	1308.71
562.18	1266.28
562.384	1369.55
562.587	1295.73
562.79	1283.33
562.993	1267.45
563.197	1358.31
563.4	1359.86
563.603	1345.53
563.806	1402.1
564.009	1268.22
564.212	1292.44
564.416	1232.18
564.619	1264.35
564.822	1259.7
565.025	1336.81
565.228	1291.47
565.431	1277.52
565.634	1180.65
565.837	1262.99
566.04	1213.78
566.243	1226.76
566.446	1168.25
566.649	1291.08
566.852	1206.22
567.055	1252.53
567.258	1268.61
567.461	1306
567.664	1296.7
567.867	1180.45
568.07	1273.06
568.273	1246.52
568.475	1283.14
568.678	1228.7
568.881	1235.09
569.084	1247.3
569.287	1154.88
569.489	1154.3
569.692	1253.88
569.895	1209.71
570.098	1128.72
570.3	1182.78
570.503	1154.1
570.706	1151.59
570.909	1151
571.111	1094.82
571.314	1129.5
571.516	1105.67
571.719	1164.76
571.922	1142.87
572.124	1127.95
572.327	1141.7
572.529	1109.74
572.732	1087.07
572.935	1137.25
573.137	1223.08
573.34	1113.8
573.542	1144.8
573.745	1160.69
573.947	1149.07
574.15	1115.55
574.352	1104.12
574.554	1193.82
574.757	1132.4
574.959	1115.74
575.162	1096.56
575.364	1087.65
575.566	1180.65
575.769	1069.82
575.971	1148.49
576.173	1016.16
576.376	1074.28
576.578	1130.08
576.78	1164.18
576.982	1043.28
577.185	1056.07
577.387	1042.89
577.589	1076.6
577.791	1128.72
577.993	1106.83
578.196	1091.91
578.398	1063.62
578.6	1135.12
578.802	1004.72
579.004	1025.46
579.206	1045.22
579.408	1098.5
579.61	1058.2
579.812	1085.9
580.014	1042.12
580.216	1050.45
580.418	1056.65
580.62	1060.33
580.822	1018.87
581.024	1055.29
581.226	1111.67
581.428	1054.32
581.63	1136.09
581.832	1061.3
582.034	1115.16
582.236	1063.43
582.438	1089.97
582.64	1168.83
582.841	1157.01
583.043	1179.1
583.245	1086.87
583.447	1097.92
583.649	1083.39
583.85	1092.3
584.052	1128.14
584.254	1081.84
584.456	1116.52
584.657	1035.34
584.859	1055.29
585.061	1070.21
585.262	1037.08
585.464	1025.84
585.666	1114.58
585.867	1044.83
586.069	1123.1
586.27	1080.67
586.472	1057.81
586.674	1023.91
586.875	1025.65
587.077	1030.88
587.278	1071.18
587.48	1069.05
587.681	1149.84
587.883	1067.31
588.084	988.84
588.285	1048.51
588.487	1026.42
588.688	1022.94
588.89	954.93
589.091	945.24
589.292	967.72
589.494	915.41
589.695	921.61
589.896	856.31
590.098	847.21
590.299	964.43
590.5	892.74
590.702	915.41
590.903	952.99
591.104	1016.35
591.305	971.01
591.507	1043.67
591.708	997.36
591.909	986.12
592.11	1062.07
592.311	1000.85
592.512	959.39
592.714	944.47
592.915	957.26
593.116	960.16
593.317	957.26
593.518	957.64
593.719	963.46
593.92	971.01
594.121	1019.84
594.322	960.36
594.523	1002.79
594.724	954.16
594.925	974.89
595.126	973.73
595.327	988.64
595.528	987.67
595.729	994.07
595.929	981.48
596.13	984.96
596.331	995.81
596.532	974.69
596.733	1034.17
596.934	993.87
597.135	989.42
597.335	1006.47
597.536	929.16
597.737	1001.24
597.938	970.63
598.138	990.19
598.339	942.53
598.54	983.99
598.74	944.66
598.941	974.11
599.142	1008.41
599.342	986.32
599.543	921.41
599.744	983.41
599.944	924.13
600.145	946.79
600.345	968.49
600.546	1047.35
600.746	1045.99
600.947	1069.24
601.147	969.46
601.348	1004.72
601.548	972.95
601.749	964.62
601.949	944.66
602.15	942.92
602.35	971.98
602.551	1008.79
602.751	924.71
602.951	951.44
603.152	903.39
603.352	980.51
603.552	960.55
603.753	985.16
603.953	996.97
604.153	972.37
604.354	977.02
604.554	974.69
604.754	994.07
604.954	921.03
605.155	1000.46
605.355	968.3
605.555	971.4
605.755	997.94
605.955	957.64
606.155	998.72
606.356	964.81
606.556	973.14
606.756	957.45
606.956	893.32
607.156	1018.29
607.356	946.21
607.556	978.76
607.756	974.5
607.956	1008.79
608.156	966.75
608.356	940.59
608.556	986.71
608.756	970.24
608.956	894.1
609.156	943.5
609.356	929.36
609.556	932.46
609.755	948.73
609.955	892.35
610.155	946.41
610.355	944.08
610.555	892.55
610.755	936.33
610.954	880.73
611.154	920.06
611.354	980.12
611.554	879.37
611.753	903.59
611.953	877.05
612.153	918.31
612.352	908.82
612.552	904.36
612.752	846.43
612.951	890.03
613.151	921.03
613.351	870.65
613.55	880.92
613.75	886.35
613.949	918.31
614.149	919.28
614.348	917.34
614.548	896.23
614.747	815.24
614.947	872.4
615.146	824.54
615.346	917.73
615.545	890.03
615.745	910.18
615.944	911.14
616.144	888.28
616.343	905.14
616.542	862.71
616.742	877.05
616.941	865.42
617.14	828.22
617.34	890.61
617.539	862.51
617.738	856.9
617.938	921.61
618.137	879.76
618.336	841.59
618.535	909.4
618.734	852.05
618.934	865.23
619.133	870.85
619.332	871.04
619.531	862.9
619.73	886.73
619.929	881.7
620.128	891.58
620.328	917.15
620.527	829.77
620.726	867.94
620.925	866.78
621.124	852.05
621.323	860
621.522	816.4
621.721	843.53
621.92	810.01
622.119	894.29
622.318	816.01
622.517	836.36
622.715	806.91
622.914	778.23
623.113	807.3
623.312	747.82
623.511	870.85
623.71	834.23
623.909	801.29
624.107	843.14
624.306	795.28
624.505	776.49
624.704	784.43
624.902	798.58
625.101	852.83
625.3	777.65
625.499	769.32
625.697	780.17
625.896	784.24
626.095	828.41
626.293	754.79
626.492	775.33
626.69	808.65
626.889	777.65
627.088	857.67
627.286	761.18
627.485	803.62
627.683	749.17
627.882	795.09
628.08	683.3
628.279	756.34
628.477	834.03
628.676	697.64
628.874	775.33
629.073	748.78
629.271	700.35
629.469	745.1
629.668	767.38
629.866	731.35
630.065	718.56
630.263	755.95
630.461	737.55
630.66	743.36
630.858	782.3
631.056	780.37
631.254	808.26
631.453	708.49
631.651	791.41
631.849	759.44
632.047	762.15
632.245	754.6
632.444	789.47
632.642	784.82
632.84	796.45
633.038	743.94
633.236	725.34
633.434	732.7
633.632	733.87
633.83	726.12
634.028	774.17
634.227	776.88
634.425	841.4
634.623	751.11
634.821	766.03
635.019	801.29
635.216	730.38
635.414	781.72
635.612	794.9
635.81	757.7
636.008	792.96
636.206	762.15
636.404	789.47
636.602	740.07
636.8	724.76
636.997	780.95
637.195	769.52
637.393	753.43
637.591	834.42
637.789	788.7
637.986	742.39
638.184	757.89
638.382	795.48
638.58	779.2
638.777	805.36
638.975	754.6
639.173	762.93
639.37	758.08
639.568	787.92
639.765	760.41
639.963	756.15
640.161	789.47
640.358	790.05
640.556	768.16
640.753	729.6
640.951	706.16
641.148	770.48
641.346	734.25
641.543	756.34
641.741	780.75
641.938	716.82
642.136	740.65
642.333	711.97
642.531	796.06
642.728	788.7
642.925	726.89
643.123	729.41
643.32	726.7
643.517	711.78
643.715	735.03
643.912	735.8
644.109	755.76
644.306	709.84
644.504	716.82
644.701	744.91
644.898	755.57
645.095	715.07
645.293	728.63
645.49	749.75
645.687	720.69
645.884	768.55
646.081	668.57
646.278	695.12
646.475	688.34
646.672	710.42
646.87	720.11
647.067	688.92
647.264	720.5
647.461	661.02
647.658	642.8
647.855	703.25
648.052	657.72
648.249	621.3
648.446	665.86
648.642	687.37
648.839	664.89
649.036	630.79
649.233	612.97
649.43	622.85
649.627	624.98
649.824	626.53
650.021	645.32
650.217	611.42
650.414	627.89
650.611	691.63
650.808	689.3
651.004	640.48
651.201	700.35
651.398	698.41
651.595	647.07
651.791	659.66
651.988	705.19
652.185	639.9
652.381	688.34
652.578	610.84
652.775	673.22
652.971	652.3
653.168	619.36
653.364	677.49
653.561	618.78
653.757	637.96
653.954	664.5
654.15	636.22
654.347	730.38
654.543	648.62
654.74	588.36
654.936	594.17
655.133	631.96
655.329	642.61
655.525	624.4
655.722	696.47
655.918	585.84
656.115	624.59
656.311	558.52
656.507	555.42
656.704	478.12
656.9	538.38
657.096	563.37
657.292	543.61
657.489	597.08
657.685	559.11
657.881	581
658.077	597.86
658.273	589.52
658.47	654.82
658.666	568.99
658.862	619.17
659.058	563.95
659.254	643
659.45	582.36
659.646	605.99
659.842	612.19
660.038	625.95
660.234	582.16
660.43	575.96
660.626	660.63
660.822	637.19
661.018	621.88
661.214	584.29
661.41	585.26
661.606	606.38
661.802	649.2
661.998	626.53
662.194	580.61
662.39	650.94
662.586	639.51
662.781	621.69
662.977	635.64
663.173	641.06
663.369	636.02
663.564	617.62
663.76	647.45
663.956	614.32
664.152	624.4
664.347	565.89
664.543	618.2
664.739	601.54
664.934	548.84
665.13	554.07
665.326	613.94
665.521	619.94
665.717	557.17
665.912	549.81
666.108	493.04
666.304	551.16
666.499	585.65
666.695	525.98
666.89	584.1
667.086	618.78
667.281	582.94
667.477	648.62
667.672	584.68
667.867	603.86
668.063	606.19
668.258	554.46
668.454	589.14
668.649	644.94
668.844	605.22
669.04	588.17
669.235	576.54
669.43	535.28
669.626	519.19
669.821	565.89
670.016	523.84
670.211	581.77
670.407	516.68
670.602	561.24
670.797	561.62
670.992	611.42
671.187	541.28
671.382	597.66
671.578	533.14
671.773	599.99
671.968	511.44
672.163	554.07
672.358	574.02
672.553	535.47
672.748	556.01
672.943	610.64
673.138	540.51
673.333	577.9
673.528	550.39
673.723	594.56
673.918	550.97
674.113	522.88
674.308	640.29
674.503	587.97
674.698	571.51
674.892	571.7
675.087	594.37
675.282	550.77
675.477	550.77
675.672	598.63
675.867	550.97
676.061	518.23
676.256	489.55
676.451	537.02
676.646	547.87
676.84	528.49
677.035	486.26
677.23	513.96
677.424	574.22
677.619	577.9
677.814	595.72
678.008	601.92
678.203	502.34
678.397	514.93
678.592	521.52
678.787	603.86
678.981	530.24
679.176	528.88
679.37	552.71
679.565	523.26
679.759	499.04
679.954	585.84
680.148	598.44
680.342	580.03
680.537	569.37
680.731	531.98
680.926	529.46
681.12	573.64
681.314	523.84
681.509	536.44
681.703	551.74
681.897	557.75
682.092	545.16
682.286	539.93
682.48	595.53
682.674	584.49
682.869	550.77
683.063	537.41
683.257	631.37
683.451	523.84
683.645	569.57
683.839	529.27
684.034	582.74
684.228	565.11
684.422	531.59
684.616	519.19
684.81	549.61
685.004	541.86
685.198	525.98
685.392	584.68
685.586	545.54
685.78	551.74
685.974	558.91
686.168	550.39
686.362	599.99
686.556	508.54
686.75	513.58
686.944	516.29
687.138	518.03
687.331	412.63
687.525	420.38
687.719	366.33
687.913	430.85
688.107	418.64
688.301	402.17
688.494	485.29
688.688	427.75
688.882	413.41
689.076	391.32
689.269	423.68
689.463	510.86
689.657	481.8
689.85	469.01
690.044	491.49
690.238	436.46
690.431	446.15
690.625	462.81
690.818	510.67
691.012	495.56
691.205	511.44
691.399	465.91
691.593	518.23
691.786	563.95
691.98	591.07
692.173	587.01
692.366	560.46
692.56	573.64
692.753	597.66
692.947	551.94
693.14	593.98
693.333	595.72
693.527	558.52
693.72	575.19
693.914	577.12
694.107	595.14
694.3	588.17
694.493	579.64
694.687	622.66
694.88	554.07
695.073	621.3
695.266	606.96
695.46	613.94
695.653	659.66
695.846	656.95
696.039	590.3
696.232	627.69
696.425	678.26
696.618	658.3
696.812	636.22
697.005	732.12
697.198	793.93
697.391	720.88
697.584	743.55
697.777	788.89
697.97	794.9
698.163	761.77
698.356	764.28
698.549	846.82
698.742	790.63
698.935	764.87
699.127	795.87
699.32	736.77
699.513	752.66
699.706	794.51
699.899	790.83
700.092	753.24
700.285	824.93
700.477	749.56
700.67	850.11
700.863	847.98
701.056	909.4
701.248	824.54
701.441	870.26
701.634	822.02
701.826	958.03
702.019	791.22
702.212	878.01
702.404	815.24
702.597	847.98
702.79	869.1
702.982	880.92
703.175	913.47
703.367	917.73
703.56	952.03
703.752	1025.07
703.945	944.47
704.137	973.92
704.33	1001.43
704.522	991.74
704.715	1001.82
704.907	1037.27
705.1	1045.22
705.292	1027.78
705.484	986.51
705.677	1073.89
705.869	1077.38
706.061	1073.89
706.254	1109.35
706.446	1056.07
706.638	1074.28
706.831	1151.78
707.023	1128.72
707.215	1184.33
707.407	1185.3
707.599	1151
707.792	1197.5
707.984	1189.95
708.176	1201.57
708.368	1173.48
708.56	1191.88
708.752	1200.8
708.944	1191.11
709.136	1252.91
709.329	1222.11
709.521	1326.73
709.713	1288.37
709.905	1292.25
710.097	1298.06
710.289	1275.78
710.481	1311.81
710.672	1307.36
710.864	1329.83
711.056	1390.09
711.248	1362.96
711.44	1391.83
711.632	1372.65
711.824	1392.41
712.016	1456.54
712.207	1415.08
712.399	1436.97
712.591	1495.68
712.783	1459.64
712.975	1478.63
713.166	1443.17
713.358	1462.55
713.55	1527.84
713.741	1514.67
713.933	1538.11
714.125	1498.78
714.316	1463.91
714.508	1552.06
714.7	1596.62
714.891	1534.82
715.083	1613.28
715.274	1547.22
715.466	1583.84
715.657	1624.33
715.849	1501.88
716.04	1568.92
716.232	1488.71
716.423	1546.25
716.615	1496.07
716.806	1480.57
716.998	1462.36
717.189	1429.61
717.381	1320.34
717.572	1356.38
717.763	1346.49
717.955	1314.53
718.146	1289.15
718.337	1266.28
718.528	1263.18
718.72	1207.77
718.911	1281.2
719.102	1249.62
719.293	1265.51
719.485	1259.11
719.676	1243.62
719.867	1190.92
720.058	1184.91
720.249	1227.34
720.44	1266.67
720.632	1311.81
720.823	1346.88
721.014	1408.88
721.205	1407.14
721.396	1464.87
721.587	1547.8
721.778	1576.47
721.969	1607.86
722.16	1658.43
722.351	1646.22
722.542	1766.54
722.733	1780.29
722.924	1680.13
723.115	1725.27
723.305	1727.4
723.496	1731.66
723.687	1603.79
723.878	1611.35
724.069	1629.56
724.26	1683.03
724.45	1604.57
724.641	1569.11
724.832	1596.23
725.023	1606.31
725.213	1607.67
725.404	1583.25
725.595	1608.25
725.785	1574.92
725.976	1614.64
726.167	1600.69
726.357	1618.71
726.548	1705.31
726.739	1648.55
726.929	1720.62
727.12	1736.9
727.31	1763.63
727.501	1686.91
727.691	1705.7
727.882	1710.16
728.072	1770.61
728.263	1732.63
728.453	1789.21
728.644	1797.73
728.834	1790.18
729.024	1748.71
729.215	1752.01
729.405	1771.38
729.596	1851.21
729.786	1859.92
729.976	1831.83
730.167	1885.5
730.357	1816.33
730.547	1875.04
730.737	1874.65
730.928	1892.67
731.118	1933.16
731.308	1863.61
731.498	1888.21
731.688	1953.31
731.879	1939.17
732.069	2022.67
732.259	2018.8
732.449	2042.24
732.639	2089.32
732.829	2099.78
733.019	2144.54
733.209	2191.04
733.399	2200.92
733.589	2240.64
733.779	2246.84
733.969	2215.06
734.159	2320.27
734.349	2384.4
734.539	2412.3
734.729	2354.56
734.919	2414.43
735.109	2446.98
735.299	2386.92
735.488	2380.14
735.678	2422.37
735.868	2367.54
736.058	2376.84
736.248	2390.79
736.437	2357.47
736.627	2349.72
736.817	2458.22
737.007	2412.88
737.196	2469.84
737.386	2454.15
737.576	2443.1
737.765	2464.42
737.955	2458.6
738.144	2553.35
738.334	2501.03
738.524	2431.48
738.713	2498.13
738.903	2454.92
739.092	2548.31
739.282	2523.12
739.471	2523.12
739.661	2541.72
739.85	2574.66
740.04	2581.83
740.229	2571.95
740.419	2610.31
740.608	2639.95
740.797	2611.66
740.987	2684.9
741.176	2611.66
741.365	2616.31
741.555	2579.31
741.744	2634.91
741.933	2591.51
742.123	2666.88
742.312	2681.61
742.501	2714.93
742.69	2705.44
742.88	2566.13
743.069	2745.35
743.258	2663.78
743.447	2758.33
743.636	2735.66
743.825	2718.23
744.014	2712.03
744.204	2715.32
744.393	2670.56
744.582	2751.55
744.771	2784.1
744.96	2730.04
745.149	2784.68
745.338	2722.88
745.527	2776.35
745.716	2726.17
745.905	2712.03
746.094	2814.32
746.283	2795.72
746.471	2795.14
746.66	2842.8
746.849	2816.84
747.038	2839.12
747.227	2738.18
747.416	2811.81
747.604	2736.44
747.793	2792.24
747.982	2812.58
748.171	2798.24
748.359	2836.22
748.548	2808.51
748.737	2762.01
748.926	2795.92
749.114	2747.48
749.303	2773.44
749.491	2775.96
749.68	2697.49
749.869	2827.5
750.057	2765.89
750.246	2691.49
750.434	2731.59
750.623	2707.18
750.811	2738.18
751	2800.96
751.188	2750.97
751.377	2779.84
751.565	2707.38
751.754	2722.88
751.942	2736.24
752.131	2770.54
752.319	2688.58
752.507	2642.86
752.696	2698.27
752.884	2742.44
753.072	2706.6
753.261	2733.53
753.449	2705.63
753.637	2693.62
753.825	2807.35
754.014	2713.38
754.202	2708.54
754.39	2769.96
754.578	2759.49
754.766	2714.93
754.955	2689.36
755.143	2781
755.331	2710.48
755.519	2710.28
755.707	2704.47
755.895	2699.04
756.083	2706.41
756.271	2671.73
756.459	2701.76
756.647	2727.91
756.835	2630.46
757.023	2670.18
757.211	2642.08
757.399	2670.95
757.587	2673.66
757.775	2602.17
757.963	2613.02
758.151	2633.36
758.339	2616.51
758.526	2620
758.714	2644.99
758.902	2540.56
759.09	2492.7
759.278	2334.02
759.465	2153.45
759.653	1839.39
759.841	1698.92
760.028	1446.27
760.216	1227.15
760.404	1182
760.591	959.78
760.779	802.65
760.967	703.45
761.154	561.62
761.342	648.04
761.529	622.85
761.717	678.45
761.905	677.68
762.092	731.73
762.28	697.83
762.467	680.78
762.655	612.97
762.842	686.59
763.029	656.37
763.217	667.8
763.404	651.14
763.592	696.28
763.779	629.24
763.966	690.85
764.154	734.25
764.341	791.22
764.528	789.67
764.716	806.13
764.903	879.37
765.09	896.23
765.277	956.87
765.465	1115.55
765.652	1153.91
765.839	1231.6
766.026	1297.09
766.213	1319.76
766.4	1411.98
766.588	1557.29
766.775	1521.45
766.962	1633.24
767.149	1690.2
767.336	1851.98
767.523	1795.79
767.71	1883.95
767.897	1977.92
768.084	2040.69
768.271	2067.62
768.458	2096.3
768.645	2163.33
768.832	2124.78
769.019	2185.23
769.206	2166.05
769.392	2226.88
769.579	2316.59
769.766	2264.86
769.953	2237.34
770.14	2336.35
770.327	2316.78
770.513	2330.54
770.7	2414.62
770.887	2335.96
771.073	2389.63
771.26	2352.04
771.447	2312.52
771.634	2348.75
771.82	2449.69
772.007	2325.31
772.193	2367.54
772.38	2397.77
772.567	2339.45
772.753	2387.89
772.94	2435.55
773.126	2392.54
773.313	2439.62
773.499	2358.44
773.686	2394.67
773.872	2338.09
774.059	2384.98
774.245	2302.44
774.432	2373.74
774.618	2303.8
774.804	2329.18
774.991	2293.72
775.177	2358.05
775.363	2349.14
775.55	2341.77
775.736	2305.35
775.922	2294.69
776.109	2335.38
776.295	2320.85
776.481	2329.18
776.667	2359.21
776.853	2325.5
777.04	2312.32
777.226	2295.86
777.412	2376.26
777.598	2260.98
777.784	2306.51
777.97	2283.07
778.156	2292.18
778.342	2280.36
778.528	2278.81
778.715	2183.29
778.901	2258.66
779.087	2306.51
779.272	2251.68
779.458	2217.78
779.644	2235.41
779.83	2218.74
780.016	2320.07
780.202	2202.28
780.388	2209.06
780.574	2166.82
780.76	2187.94
780.946	2245.09
781.131	2213.51
781.317	2233.28
781.503	2144.35
781.689	2174.38
781.874	2288.3
782.06	2196.85
782.246	2222.04
782.432	2192.2
782.617	2202.08
782.803	2246.64
782.989	2172.63
783.174	2181.74
783.36	2110.05
783.545	2151.51
783.731	2172.83
783.916	2069.95
784.102	2143.96
784.288	2098.43
784.473	2121.1
784.659	2069.75
784.844	2152.87
785.029	2082.35
785.215	2127.49
785.4	2052.51
785.586	2152.87
785.771	2055.61
785.956	2113.73
786.142	2057.74
786.327	2069.17
786.512	2072.27
786.698	2079.44
786.883	2014.73
787.068	2005.04
787.254	2032.55
787.439	2008.53
787.624	2019.38
787.809	1994.39
787.994	1998.84
788.18	2055.8
788.365	1954.09
788.55	1988.57
788.735	1979.47
788.92	2000
789.105	1961.45
789.29	2014.92
789.475	1953.31
789.66	1950.21
789.845	1955.83
790.03	1946.34
790.215	1961.25
790.4	1948.27
790.585	1994.77
790.77	1950.99
790.955	1886.08
791.14	1964.74
791.325	1985.09
791.51	1857.21
791.695	1927.35
791.879	1922.51
792.064	1857.21
792.249	1942.07
792.434	1873.49
792.618	1917.86
792.803	1942.07
792.988	1892.67
793.173	1911.07
793.357	1950.02
793.542	1862.83
793.727	1899.45
793.911	1949.24
794.096	1895.96
794.281	1967.84
794.465	1993.03
794.65	1931.22
794.834	1949.24
795.019	2000
795.203	2004.65
795.388	1978.11
795.572	1970.94
795.757	1965.52
795.941	1953.5
796.126	1940.91
796.31	1911.85
796.494	1925.22
796.679	1928.32
796.863	1918.44
797.048	1977.14
797.232	1963.97
797.416	1903.52
797.601	1905.65
797.785	2010.66
797.969	2005.62
798.153	1907.01
798.338	1968.62
798.522	1990.12
798.706	1974.24
798.89	1990.51
799.074	2092.03
799.258	2020.15
799.443	1964.74
799.627	1963.39
799.811	2012.99
799.995	1969.78
800.179	1925.61
800.363	1939.94
800.547	2006.79
800.731	1995.35
800.915	1902.94
801.099	1932
801.283	1927.35
801.467	1942.27
801.651	1944.59
801.835	2024.8
802.019	1940.33
802.202	1969.78
802.386	1912.43
802.57	1890.92
802.754	1946.14
802.938	1904.68
803.121	1934.71
803.305	1983.34
803.489	1940.33
803.673	1971.52
803.856	1946.53
804.04	1933.94
804.224	1948.47
804.407	1925.22
804.591	1917.86
804.775	1915.34
804.958	1944.59
805.142	2065.3
805.326	1938.78
805.509	1989.54
805.693	2029.45
805.876	1997.68
806.06	1932.77
806.243	1949.44
806.427	2011.44
806.61	1991.48
806.794	1955.25
806.977	2039.33
807.16	1992.84
807.344	1954.09
807.527	1981.99
807.71	1928.12
807.894	1980.44
808.077	2031.39
808.26	1911.27
808.444	1914.95
808.627	2022.87
808.81	1933.74
808.993	1885.11
809.177	1853.14
809.36	1869.81
809.543	1912.24
809.726	1835.32
809.909	1868.45
810.092	1817.88
810.276	1824.47
810.459	1864.77
810.642	1835.32
810.825	1769.64
811.008	1828.93
811.191	1747.36
811.374	1768.86
811.557	1750.26
811.74	1824.28
811.923	1754.53
812.106	1750.85
812.289	1664.43
812.472	1710.35
812.654	1739.03
812.837	1704.93
813.02	1616.58
813.203	1643.7
813.386	1541.4
813.569	1531.72
813.751	1481.34
813.934	1535.01
814.117	1510.6
814.3	1458.09
814.482	1431.55
814.665	1430.97
814.848	1392.8
815.03	1346.69
815.213	1360.83
815.396	1342.62
815.578	1308.91
815.761	1294.38
815.943	1333.71
816.126	1237.42
816.309	1244.39
816.491	1210.1
816.674	1156.04
816.856	1178.13
817.039	1220.95
817.221	1258.15
817.403	1254.66
817.586	1221.33
817.768	1222.5
817.951	1171.93
818.133	1159.92
818.315	1213.2
818.498	1238
818.68	1306
818.862	1237.42
819.045	1262.8
819.227	1233.73
819.409	1242.84
819.591	1256.79
819.774	1243.23
819.956	1174.45
820.138	1271.13
820.32	1255.05
820.502	1324.8
820.684	1329.06
820.866	1371.68
821.048	1382.14
821.231	1404.43
821.413	1411.4
821.595	1410.82
821.777	1397.64
821.959	1369.16
822.141	1421.86
822.323	1305.03
822.505	1250.2
822.686	1258.53
822.868	1197.89
823.05	1102.37
823.232	1120
823.414	1018.29
823.596	1128.14
823.778	1077.77
823.96	1123.49
824.141	1104.7
824.323	1137.44
824.505	1204.67
824.687	1244
824.868	1250.4
825.05	1349.59
825.232	1364.51
825.413	1422.64
825.595	1341.84
825.777	1307.55
825.958	1380.59
826.14	1322.28
826.321	1366.64
826.503	1322.08
826.685	1359.48
826.866	1392.8
827.048	1377.3
827.229	1336.23
827.411	1299.41
827.592	1240.52
827.773	1271.71
827.955	1252.53
828.136	1208.74
828.318	1177.16
828.499	1215.72
828.68	1159.14
828.862	1210.29
829.043	1262.41
829.224	1224.43
829.406	1187.82
829.587	1199.25
829.768	1195.76
829.949	1208.35
830.131	1237.8
830.312	1272.68
830.493	1193.82
830.674	1219.78
830.855	1188.98
831.036	1161.08
831.218	1258.15
831.399	1301.93
831.58	1222.5
831.761	1238.19
831.942	1238
832.123	1222.88
832.304	1188.4
832.485	1186.85
832.666	1207
832.847	1235.48
833.028	1199.05
833.209	1232.38
833.389	1200.41
833.57	1179.87
833.751	1179.87
833.932	1231.41
834.113	1199.83
834.294	1210.29
834.475	1213
834.655	1257.95
834.836	1279.85
835.017	1262.99
835.198	1204.67
835.378	1244.78
835.559	1281.59
835.74	1199.83
835.92	1216.68
836.101	1212.42
836.281	1271.13
836.462	1274.42
836.643	1276.36
836.823	1258.34
837.004	1246.33
837.184	1314.53
837.365	1299.8
837.545	1291.66
837.726	1240.52
837.906	1319.37
838.087	1273.84
838.267	1267.25
838.448	1280.81
838.628	1262.41
838.808	1272.29
838.989	1307.75
839.169	1220.37
839.349	1266.86
839.53	1290.7
839.71	1298.25
839.89	1259.5
840.07	1322.28
840.251	1224.82
840.431	1303.1
840.611	1302.71
840.791	1246.13
840.971	1302.9
841.151	1239.74
841.332	1205.83
841.512	1326.35
841.692	1211.65
841.872	1275.78
842.052	1244.2
842.232	1285.66
842.412	1205.25
842.592	1282.75
842.772	1246.52
842.952	1263.76
843.132	1205.25
843.312	1227.15
843.492	1241.1
843.672	1284.11
843.851	1177.16
844.031	1204.87
844.211	1239.35
844.391	1205.25
844.571	1251.36
844.751	1259.7
844.93	1239.35
845.11	1196.73
845.29	1257.76
845.47	1247.49
845.649	1232.38
845.829	1244
846.009	1213.58
846.188	1236.45
846.368	1217.07
846.547	1226.57
846.727	1282.95
846.907	1189.56
847.086	1193.05
847.266	1232.96
847.445	1214.55
847.625	1192.85
847.804	1181.42
847.984	1193.63
848.163	1152.55
848.343	1199.44
848.522	1203.51
848.701	1220.37
848.881	1130.66
849.06	1196.53
849.239	1181.42
849.419	1211.26
849.598	1137.25
849.777	1130.08
849.957	1133.18
850.136	1073.5
850.315	1087.84
850.494	1039.02
850.674	1066.34
850.853	1145.39
851.032	1107.99
851.211	1180.65
851.39	1138.6
851.569	1040.57
851.748	1070.6
851.927	1121.75
852.107	1113.22
852.286	1100.24
852.465	1075.44
852.644	1146.55
852.823	1100.24
853.002	1061.69
853.181	1133.95
853.359	1100.05
853.538	1054.32
853.717	1146.35
853.896	1016.54
854.075	1010.73
854.254	1008.99
854.433	913.66
854.611	966.94
854.79	931.68
854.969	984.19
855.148	965.98
855.327	951.06
855.505	1008.99
855.684	965.59
855.863	1019.26
856.041	1000.66
856.22	1014.61
856.399	972.76
856.577	1077.57
856.756	1061.69
856.934	1149.45
857.113	1161.08
857.291	1069.24
857.47	1055.87
857.648	1056.65
857.827	1063.82
858.005	1085.52
858.184	1017.71
858.362	1144.42
858.541	1074.86
858.719	1091.33
858.898	1014.8
859.076	1020.03
859.254	1089.59
859.433	1046.19
859.611	1018.67
859.789	1003.17
859.967	1080.09
860.146	1103.34
860.324	1005.11
860.502	1003.76
860.68	971.98
860.859	1010.15
861.037	1008.02
861.215	1008.41
861.393	1033.21
861.571	1004.53
861.749	985.74
861.927	1047.16
862.105	1004.53
862.283	995.42
862.461	967.72
862.639	991.55
862.817	1007.24
862.995	995.62
863.173	1005.31
863.351	981.09
863.529	1011.89
863.707	1029.52
863.885	1017.32
864.063	933.62
864.241	973.34
864.418	1010.15
864.596	963.65
864.774	915.6
864.952	969.85
865.129	993.1
865.307	951.83
865.485	939.63
865.663	1010.73
865.84	891.96
866.018	961.71
866.196	792.38
866.373	855.54
866.551	839.07
866.728	768.55
866.906	782.69
867.084	845.27
867.261	891.38
867.439	882.28
867.616	911.92
867.794	859.61
867.971	897.78
868.149	878.01
868.326	986.32
868.503	935.17
868.681	919.86
868.858	889.64
869.035	882.66
869.213	923.54
869.39	879.56
869.567	994.84
869.745	890.22
869.922	903.98
870.099	915.41
870.276	917.15
870.454	920.06
870.631	910.76
870.808	860.58
870.985	924.13
871.162	956.68
871.339	926.45
871.517	866.39
871.694	851.66
871.871	900.1
872.048	907.27
872.225	850.11
872.402	887.9
872.579	838.1
872.756	871.23
872.933	837.91
873.11	867.36
873.287	871.43
873.463	864.26
873.64	859.8
873.817	874.91
873.994	870.26
874.171	838.3
874.348	857.67
874.524	797.8
874.701	842.36
874.878	775.91
875.055	873.17
875.231	855.54
875.408	858.25
875.585	781.14
875.762	826.48
875.938	840.23
876.115	800.13
876.291	804.58
876.468	806.52
876.645	794.51
876.821	804.39
876.998	802.26
877.174	815.43
877.351	792.38
877.527	811.17
877.704	822.99
877.88	819.31
878.057	805.36
878.233	839.85
878.409	788.12
878.586	811.56
878.762	809.04
878.938	778.62
879.115	735.8
879.291	792.96
879.467	731.73
879.644	737.35
879.82	814.27
879.996	763.7
880.172	708.49
880.349	751.69
880.525	791.41
880.701	735.61
880.877	738.13
881.053	762.93
881.229	760.22
881.405	800.13
881.581	723.98
881.757	768.93
881.933	769.52
882.109	761.18
882.285	775.13
882.461	702.87
882.637	758.08
882.813	741.42
882.989	749.17
883.165	791.8
883.341	720.69
883.517	768.35
883.693	769.9
883.869	785.6
884.044	751.5
884.22	771.26
884.396	777.85
884.572	804.39
884.747	809.04
884.923	767.77
885.099	781.33
885.275	787.34
885.45	737.93
885.626	741.03
885.801	709.45
885.977	776.1
886.153	692.02
886.328	739.29
886.504	752.08
886.679	788.12
886.855	733.67
887.03	776.88
887.206	789.47
887.381	774.75
887.557	764.28
887.732	772.81
887.908	744.13
888.083	795.67
888.258	733.09
888.434	722.05
888.609	749.17
888.784	784.24
888.96	721.27
889.135	708.68
889.31	720.69
889.485	743.17
889.661	766.03
889.836	775.91
890.011	784.82
890.186	772.23
890.361	707.9
890.537	757.89
890.712	741.81
890.887	749.75
891.062	754.21
891.237	798.97
891.412	734.45
891.587	766.42
891.762	766.8
891.937	795.48
892.112	686.01
892.287	710.62
892.462	722.63
892.637	666.83
892.812	686.2
892.987	710.81
893.161	651.72
893.336	670.51
893.511	684.27
893.686	672.45
893.861	670.51
894.035	656.75
894.21	682.52
894.385	658.11
894.56	670.51
894.734	657.53
894.909	636.02
895.084	649.2
895.258	607.74
895.433	630.99
895.608	587.39
895.782	565.11
895.957	566.66
896.131	607.16
896.306	563.37
896.48	532.18
896.655	585.07
896.829	512.41
897.004	475.41
897.178	501.95
897.353	507.38
897.527	534.11
897.701	530.43
897.876	463.39
898.05	555.62
898.224	544.38
898.399	544.96
898.573	513.19
898.747	414.18
898.921	468.82
899.096	374.85
899.27	396.36
899.444	398.1
899.618	420.38
899.792	429.3
899.967	466.49
900.141	468.24
900.315	403.72
900.489	432.4
900.663	453.51
900.837	429.49
901.011	388.03
901.185	479.67
901.359	429.1
901.533	424.45
901.707	440.73
901.881	427.16
902.055	412.63
902.229	421.74
902.403	517.84
902.576	438.98
902.75	407.4
902.924	553.68
903.098	510.28
903.272	507.76
903.446	537.99
903.619	506.79
903.793	547.29
903.967	513.96
904.14	582.74
904.314	590.11
904.488	543.61
904.661	577.51
904.835	564.34
905.009	578.29
905.182	593.21
905.356	580.81
905.529	567.05
905.703	517.26
905.876	515.9
906.05	509.51
906.223	485.09
906.397	473.47
906.57	455.65
906.744	429.88
906.917	439.37
907.09	445.96
907.264	444.6
907.437	411.86
907.61	370.4
907.784	402.56
907.957	424.65
908.13	376.79
908.304	420.96
908.477	389.96
908.65	410.89
908.823	348.12
908.996	455.84
909.17	416.7
909.343	416.51
909.516	399.85
909.689	386.48
909.862	365.55
910.035	371.17
910.208	348.12
910.381	354.9
910.554	467.46
910.727	382.41
910.9	365.75
911.073	361.87
911.246	428.13
911.419	433.95
911.592	420.96
911.765	363.81
911.938	339.2
912.11	391.9
912.283	364.39
912.456	423.48
912.629	375.82
912.802	383.57
912.974	325.83
913.147	322.15
913.32	262.87
913.493	301.81
913.665	324.09
913.838	337.85
914.01	320.02
914.183	345.79
914.356	282.63
914.528	382.6
914.701	389.38
914.873	371.36
915.046	333.2
915.218	291.35
915.391	245.04
915.563	267.71
915.736	321.77
915.908	375.05
916.081	319.44
916.253	323.32
916.425	307.04
916.598	355.48
916.77	313.82
916.942	290.77
917.115	244.65
917.287	335.91
917.459	289.8
917.632	284.57
917.804	254.15
917.976	290.18
918.148	318.28
918.32	335.33
918.493	323.32
918.665	387.45
918.837	314.79
919.009	399.07
919.181	368.46
919.353	357.22
919.525	367.88
919.697	331.07
919.869	359.35
920.041	394.03
920.213	419.8
920.385	356.83
920.557	340.37
920.729	358.77
920.901	370.01
921.073	339.4
921.244	313.24
921.416	386.67
921.588	349.08
921.76	343.27
921.932	413.8
922.103	322.54
922.275	329.52
922.447	355.48
922.619	257.64
922.79	343.08
922.962	316.53
923.134	384.15
923.305	282.63
923.477	287.28
923.648	276.82
923.82	334.55
923.991	268.1
924.163	255.12
924.335	278.37
924.506	267.13
924.677	334.36
924.849	284.18
925.02	272.55
925.192	310.72
925.363	270.42
925.535	323.32
925.706	292.9
925.877	320.22
926.049	299.68
926.22	308.2
926.391	306.65
926.562	306.07
926.734	252.79
926.905	343.47
927.076	243.3
927.247	269.45
927.419	246.01
927.59	218.5
927.761	236.9
927.932	229.35
928.103	265.77
928.274	221.79
928.445	196.6
928.616	227.02
928.787	213.85
928.958	229.74
929.129	222.95
929.3	243.69
929.471	161.54
929.642	136.54
929.813	100.7
929.984	202.03
930.155	123.56
930.326	168.71
930.496	129.76
930.667	89.46
930.838	129.37
931.009	97.99
931.18	140.03
931.35	120.46
931.521	122.4
931.692	66.99
931.863	25.91
932.033	106.13
932.204	98.96
932.374	87.53
932.545	50.91
932.716	131.12
932.886	106.71
933.057	29.01
933.227	64.66
933.398	112.71
933.568	23.59
933.739	17.97
933.909	34.63
934.08	59.82
934.25	-21.17
934.421	12.35
934.591	18.75
934.761	13.51
934.932	-32.4
935.102	35.21
935.272	39.48
935.443	44.71
935.613	30.95
935.783	32.11
935.953	14.87
936.123	178.2
936.294	5.18
936.464	21.65
936.634	31.14
936.804	-3.73
936.974	-31.24
937.144	30.76
937.314	35.21
937.484	5.57
937.655	0.92
937.825	51.68
937.995	6.93
938.165	49.74
938.334	21.26
938.504	53.23
938.674	22.62
938.844	23.01
939.014	82.1
939.184	79
939.354	116.59
939.524	80.16
939.694	42.58
939.863	26.69
940.033	114.46
940.203	131.12
940.373	85.01
940.542	101.86
940.712	66.79
940.882	106.9
941.051	94.31
941.221	85.59
941.391	112.32
941.56	62.53
941.73	47.03
941.899	131.7
942.069	45.87
942.238	61.37
942.408	59.63
942.577	97.79
942.747	36.96
942.916	3.63
943.086	52.84
943.255	91.01
943.425	46.45
943.594	53.81
943.763	-4.12
943.933	28.82
944.102	-16.9
944.271	33.08
944.441	52.65
944.61	21.84
944.779	35.79
944.948	128.41
945.117	6.54
945.287	33.66
945.456	-9.93
945.625	19.71
945.794	50.33
945.963	20.49
946.132	58.85
946.301	22.81
946.47	72.8
946.639	-4.5
946.808	8.86
946.977	62.53
947.146	112.52
947.315	35.41
947.484	80.74
947.653	28.82
947.822	2.47
947.991	2.66
948.16	98.57
948.329	99.54
948.498	26.3
948.666	34.24
948.835	98.18
949.004	0.15
949.173	22.43
949.341	53.04
949.51	62.34
949.679	84.23
949.847	55.36
950.016	136.35
950.185	98.38
950.353	22.62
950.522	52.26
950.69	95.08
950.859	40.64
951.028	60.98
951.196	57.3
951.365	15.45
951.533	66.6
951.701	81.52
951.87	67.38
952.038	17.2
952.207	55.36
952.375	95.66
952.543	41.61
952.712	72.61
952.88	48.97
953.048	86.94
953.217	36.18
953.385	30.37
953.553	95.28
953.721	17.78
953.89	52.46
954.058	5.18
954.226	41.41
954.394	63.31
954.562	13.32
954.73	53.23
954.898	37.73
955.067	88.69
955.235	50.13
955.403	71.06
955.571	132.47
955.739	68.73
955.907	3.63
956.075	1.89
956.243	1.89
956.41	59.43
956.578	-9.54
956.746	9.25
956.914	34.05
957.082	60.79
957.25	51.68
957.418	13.32
957.585	33.66
957.753	97.41
957.921	21.65
958.089	54.98
958.256	72.41
958.424	70.67
958.592	47.23
958.759	24.56
958.927	80.55
959.095	18.55
959.262	40.25
959.43	56.91
959.597	25.53
959.765	29.4
959.932	0.15
960.1	90.24
960.267	39.67
960.435	37.93
960.602	89.66
960.77	24.17
960.937	-8.38
961.104	40.06
961.272	-3.54
961.439	30.95
961.606	83.46
961.774	54.98
961.941	41.22
962.108	73.38
962.275	70.48
962.443	114.46
962.61	69.89
962.777	124.34
962.944	74.16
963.111	70.48
963.278	56.91
963.446	60.79
963.613	52.46
963.78	73.96
963.947	61.37
964.114	41.22
964.281	141.19
964.448	87.14
964.615	50.91
964.782	46.84
964.949	80.36
965.116	75.32
965.282	80.55
965.449	58.85
965.616	19.13
965.783	99.54
965.95	82.49
966.117	13.51
966.283	52.65
966.45	68.54
966.617	63.11
966.784	105.16
966.95	86.36
967.117	87.33
967.284	48.19
967.45	61.56
967.617	106.71
967.784	104.58
967.95	113.29
968.117	66.02
968.283	120.46
968.45	161.34
968.616	67.57
968.783	103.8
968.949	80.16
969.116	111.36
969.282	69.31
969.449	94.5
969.615	68.15
969.781	28.04
969.948	51.49
970.114	23.2
970.28	118.52
970.447	60.59
970.613	111.55
970.779	69.12
970.945	97.21
971.112	81.71
971.278	73.19
971.444	74.93
971.61	121.82
971.776	51.88
971.942	87.53
972.108	83.65
972.275	55.36
972.441	75.13
972.607	144.68
972.773	45.29
972.939	65.83
973.105	53.43
973.271	28.82
973.437	54.01
973.602	55.75
973.768	65.44
973.934	56.33
974.1	95.08
974.266	-12.45
974.432	69.12
974.598	49.74
974.763	96.44
974.929	27.66
975.095	115.62
975.261	36.96
975.426	36.38
975.592	61.76
975.758	130.34
975.923	4.21
976.089	48
976.255	107.09
976.42	58.85
976.586	102.25
976.751	69.51
976.917	133.44
977.082	67.96
977.248	20.88
977.413	8.67
977.579	39.86
977.744	69.51
977.91	32.11
978.075	47.23
978.24	68.93
978.406	41.8
978.571	55.75
978.736	27.08
978.902	90.82
979.067	43.54
979.232	17
979.397	63.5
979.563	68.93
979.728	31.92
979.893	67.38
980.058	28.24
980.223	75.13
980.388	54.2
980.554	66.41
980.719	33.86
980.884	52.84
981.049	77.06
981.214	48.19
981.379	83.84
981.544	28.82
981.709	54.59
981.874	55.17
982.039	57.69
982.204	95.66
982.368	46.84
982.533	30.76
982.698	79.19
982.863	82.1
983.028	24.56
983.193	82.68
983.357	64.47
983.522	61.56
983.687	58.46
983.852	35.02
984.016	45.29
984.181	84.23
984.346	59.43
984.51	99.34
984.675	77.64
984.839	76.68
985.004	59.24
985.168	96.63
985.333	76.09
985.498	60.4
985.662	76.87
985.827	117.75
985.991	50.52
986.155	47.42
986.32	82.29
986.484	110.77
986.649	90.24
986.813	11.96
986.977	51.68
987.142	108.64
987.306	24.94
987.47	21.65
987.634	54.59
987.799	103.22
987.963	57.3
988.127	83.84
988.291	128.21
988.455	61.76
988.62	31.14
988.784	84.04
988.948	70.28
989.112	13.51
989.276	84.43
989.44	66.79
989.604	48.58
989.768	25.91
989.932	120.27
990.096	38.12
990.26	7.51
990.424	24.56
990.588	58.27
990.752	141.58
990.915	83.84
991.079	19.91
991.243	22.23
991.407	69.7
991.571	53.43
991.734	83.84
991.898	72.22
992.062	148.17
992.226	42.58
992.389	17.39
992.553	-8.19
992.717	47.81
992.88	41.8
993.044	58.85
993.207	31.14
993.371	73.19
993.535	44.9
993.698	37.93
993.862	71.06
994.025	93.34
994.189	77.06
994.352	60.79
994.515	59.24
994.679	104.96
994.842	52.65
995.006	78.42
995.169	22.62
995.332	10.8
995.496	76.09
995.659	13.71
995.822	43.93
995.985	19.52
996.149	95.47
996.312	29.59
996.475	121.24
996.638	38.31
996.801	97.99
996.964	107.29
997.128	22.43
997.291	52.84
997.454	66.41
997.617	-10.12
997.78	100.31
997.943	22.62
998.106	87.91
998.269	28.63
998.432	31.34
998.595	18.75
998.758	-25.04
998.92	26.3
999.083	-1.6
999.246	47.61
999.409	-1.02
999.572	-9.74
999.735	26.3
999.897	50.33
1000.06	17.2
1000.223	40.44
1000.386	91.59
1000.548	66.21
1000.711	77.45
1000.874	57.88
1001.036	-11.87
1001.199	78.61
1001.361	8.67
1001.524	37.93
1001.687	86.36
1001.849	12.35
1002.012	63.31
1002.174	52.46
1002.337	67.18
1002.499	27.85
1002.661	90.43
1002.824	17.97
1002.986	4.8
1003.149	45.68
1003.311	11.96
1003.473	83.84
1003.636	12.93
1003.798	50.91
1003.96	59.43
1004.123	47.81
1004.285	9.45
1004.447	46.06
1004.609	16.03
1004.771	90.63
1004.933	-4.31
1005.096	-18.84
1005.258	-20.59
1005.42	14.1
1005.582	75.32
1005.744	35.41
1005.906	-5.28
1006.068	36.57
1006.23	-5.09
1006.392	-14.77
1006.554	16.42
1006.716	45.48
1006.878	58.66
1007.04	-5.47
1007.202	12.16
1007.363	33.86
1007.525	37.15
1007.687	39.86
1007.849	63.89
1008.011	-33.18
1008.172	11.58
1008.334	10.22
1008.496	56.14
1008.658	-8.19
1008.819	-13.61
1008.981	-22.72
1009.143	-3.15
1009.304	-19.23
1009.466	23.2
1009.627	75.13
1009.789	128.02
1009.95	30.37
1010.112	25.91
1010.273	54.01
1010.435	-11.09
1010.596	23.78
1010.758	19.71
1010.919	3.44
1011.081	-2.37
1011.242	7.51
1011.403	34.24
1011.565	11.38
1011.726	56.14
1011.887	3.63
1012.049	31.53
1012.21	30.95
1012.371	69.51
1012.532	-25.04
1012.693	22.43
1012.855	12.93
1013.016	23.39
1013.177	47.23
1013.338	21.26
1013.499	79.19
1013.66	52.65
1013.821	37.93
1013.982	28.63
1014.143	14.48
1014.304	-15.74
1014.465	66.02
1014.626	62.53
1014.787	30.76
1014.948	101.67
1015.109	-20.78
1015.27	77.26
1015.431	-26.79
1015.592	7.7
1015.752	68.54
1015.913	41.41
1016.074	25.53
1016.235	40.25
1016.395	-5.09
1016.556	31.73
1016.717	8.09
1016.877	62.14
1017.038	13.13
1017.199	23.98
1017.359	25.14
1017.52	17.58
1017.681	1.7
1017.841	4.41
1018.002	19.13
1018.162	13.51
1018.323	81.71
1018.483	-5.09
1018.644	18.55
1018.804	-38.02
1018.964	-12.25
1019.125	5.18
1019.285	35.02
1019.446	-8.19
1019.606	-20.2
1019.766	-43.06
1019.926	28.63
1020.087	20.49
1020.247	-46.94
1020.407	24.94
1020.567	74.35
1020.728	5.76
1020.888	-30.85
1021.048	-15.74
1021.208	-6.83
1021.368	-9.93
1021.528	66.21
1021.688	45.48
1021.848	48.58
1022.008	26.49
1022.168	55.36
1022.328	8.48
1022.488	33.08
1022.648	-2.18
1022.808	6.73
1022.968	21.07
1023.128	2.86
1023.288	-0.63
1023.448	23.98
1023.608	49.16
1023.767	37.93
1023.927	-9.93
1024.087	-12.45
1024.247	-53.14
1024.406	-0.44
1024.566	-32.02
1024.726	-6.05
1024.885	18.94
1025.045	59.82
1025.205	2.28
1025.364	5.76
1025.524	12.55
1025.683	-0.24
1025.843	5.57
1026.003	-1.21
1026.162	58.27
1026.321	46.26
1026.481	22.43
1026.64	-17.87
1026.8	29.79
1026.959	11.77
1027.119	5.18
1027.278	1.31
1027.437	17.97
1027.597	-9.74
1027.756	-10.9
1027.915	17.2
1028.074	11.77
1028.234	-20
1028.393	25.14
1028.552	8.09
1028.711	-51.39
1028.87	20.88
1029.03	-26.79
1029.189	18.36
1029.348	-52.17
1029.507	1.7
1029.666	0.73
1029.825	-13.61
1029.984	-18.65
1030.143	-2.95
1030.302	6.73
1030.461	-52.94
1030.62	41.22
1030.779	34.24
1030.938	-16.32
1031.097	-21.17
1031.255	40.06
1031.414	66.21
1031.573	35.79
1031.732	-9.93
1031.891	-16.9
1032.049	70.28
1032.208	31.34
1032.367	-3.92
1032.525	7.7
1032.684	8.86
1032.843	13.32
1033.001	-45.19
1033.16	145.46
1033.319	30.37
1033.477	21.84
1033.636	-20.78
1033.794	-43.64
1033.953	43.16
1034.111	27.46
1034.27	-9.74
1034.428	23.39
1034.587	-7.41
1034.745	15.06
1034.903	-15.55
1035.062	30.95
1035.22	-38.8
1035.378	24.94
1035.537	-42.67
1035.695	20.3
1035.853	-1.02
1036.011	19.13
1036.17	4.99
1036.328	-34.73
1036.486	2.47
1036.644	35.79
1036.802	-88.78
1036.96	-19.04
1037.119	-9.74
1037.277	-10.12
1037.435	-47.71
1037.593	-37.05
1037.751	11.38
1037.909	18.94
1038.067	18.94
