Data from pine_FLMT105791__123__17-22-22-075.txt Node

Date: Mon Mar 20 17:22:22 GMT 2023
User: antho
Spectrometer: FLMT10579
Trigger mode: 0
Integration Time (sec): 1.000000E-1
Scans to average: 10
Electric dark correction enabled: true
Nonlinearity correction enabled: false
Boxcar width: 0
XAxis mode: Wavelengths
Number of Pixels in Spectrum: 3648
>>>>>Begin Spectral Data<<<<<
345.248	-157.82
345.464	-157.82
345.681	-157.82
345.898	-183.4
346.114	-146.39
346.331	-47.77
346.548	46
346.764	20.23
346.981	-9.41
347.197	-3.79
347.414	18.87
347.631	-38.28
347.847	54.52
348.064	-3.02
348.28	9.38
348.497	-52.04
348.713	5.31
348.93	32.24
349.146	32.44
349.363	5.12
349.579	3.96
349.796	5.7
350.012	2.79
350.229	-2.44
350.445	-11.74
350.661	-18.71
350.878	-1.08
351.094	28.37
351.311	16.36
351.527	33.02
351.743	-15.03
351.96	35.15
352.176	49.87
352.392	23.91
352.609	15.77
352.825	27.01
353.041	24.49
353.257	-10.77
353.474	19.26
353.69	20.23
353.906	18.68
354.122	-17.94
354.339	51.23
354.555	22.94
354.771	5.12
354.987	68.09
355.203	53.94
355.42	-14.06
355.636	-3.6
355.852	5.31
356.068	2.21
356.284	-28.59
356.5	34.57
356.716	26.62
356.932	1.05
357.148	11.9
357.364	19.84
357.58	32.24
357.796	39.8
358.012	17.32
358.228	21.01
358.444	-30.53
358.66	83
358.876	3.57
359.092	-4.57
359.308	26.43
359.524	33.21
359.74	-23.36
359.956	-7.67
360.172	0.66
360.388	28.37
360.604	-2.05
360.819	103.54
361.035	12.67
361.251	44.45
361.467	-8.83
361.683	37.09
361.898	28.17
362.114	51.04
362.33	28.17
362.546	63.63
362.762	8.41
362.977	36.51
363.193	-15.23
363.409	44.06
363.624	-12.32
363.84	-0.69
364.056	5.89
364.271	10.35
364.487	24.69
364.703	26.04
364.918	2.41
365.134	4.54
365.35	-17.94
365.565	82.42
365.781	45.22
365.996	52.39
366.212	73.32
366.427	30.31
366.643	-14.64
366.858	-2.05
367.074	-16.97
367.289	69.25
367.505	103.54
367.72	-24.14
367.936	-5.93
368.151	28.37
368.367	7.44
368.582	30.11
368.798	-4.76
369.013	59.56
369.228	0.27
369.444	40.77
369.659	63.05
369.874	32.63
370.09	65.37
370.305	-28.01
370.52	2.41
370.736	62.27
370.951	35.54
371.166	73.51
371.381	71.77
371.597	58.01
371.812	-16.58
372.027	-7.48
372.242	-16.39
372.458	70.8
372.673	-7.28
372.888	18.29
373.103	23.52
373.318	93.08
373.533	56.46
373.749	39.41
373.964	-16.58
374.179	57.24
374.394	-6.12
374.609	45.22
374.824	-11.74
375.039	62.85
375.254	-3.41
375.469	65.18
375.684	25.66
375.899	42.12
376.114	13.06
376.329	26.04
376.544	70.02
376.759	40.96
376.974	-34.02
377.189	35.92
377.404	3.37
377.619	55.3
377.834	-13.87
378.049	-39.83
378.264	-26.85
378.478	34.96
378.693	-8.06
378.908	41.54
379.123	5.7
379.338	58.4
379.553	15.19
379.767	2.79
379.982	72.74
380.197	46.39
380.412	6.28
380.626	25.85
380.841	102.19
381.056	46.19
381.271	63.24
381.485	-5.73
381.7	-1.47
381.915	48.91
382.129	21.39
382.344	49.49
382.559	17.32
382.773	59.17
382.988	-7.28
383.202	47.74
383.417	1.24
383.632	89.79
383.846	56.07
384.061	21.2
384.275	7.06
384.49	26.24
384.704	47.36
384.919	30.11
385.133	45.81
385.348	37.28
385.562	-12.71
385.777	64.79
385.991	23.14
386.206	-8.25
386.42	-3.02
386.634	53.55
386.849	33.79
387.063	30.5
387.277	-5.54
387.492	7.25
387.706	-7.86
387.92	-21.43
388.135	77.39
388.349	31.27
388.563	27.79
388.778	16.94
388.992	58.4
389.206	56.65
389.42	100.64
389.635	21.97
389.849	38.64
390.063	88.82
390.277	32.05
390.491	92.69
390.706	36.7
390.92	68.47
391.134	17.91
391.348	52.59
391.562	-23.36
391.776	7.25
391.99	-14.06
392.205	43.67
392.419	2.02
392.633	-9.22
392.847	101.6
393.061	6.28
393.275	103.15
393.489	39.61
393.703	58.59
393.917	70.8
394.131	6.67
394.345	54.72
394.559	74.67
394.773	30.11
394.986	66.73
395.2	20.42
395.414	60.72
395.628	-7.28
395.842	40.77
396.056	17.52
396.27	-4.57
396.484	38.64
396.697	57.04
396.911	93.47
397.125	50.65
397.339	61.11
397.553	55.3
397.766	95.79
397.98	83.78
398.194	64.02
398.408	15.19
398.621	32.44
398.835	72.54
399.049	46.58
399.262	91.14
399.476	89.4
399.69	84.94
399.903	112.07
400.117	34.18
400.331	70.99
400.544	9.19
400.758	146.36
400.971	43.87
401.185	75.84
401.398	11.32
401.612	101.6
401.826	52
402.039	68.09
402.253	43.29
402.466	74.29
402.68	43.29
402.893	46.77
403.106	71.77
403.32	62.66
403.533	69.05
403.747	27.21
403.96	64.21
404.174	74.67
404.387	7.83
404.6	62.85
404.814	71.96
405.027	46.97
405.24	83.59
405.454	47.94
405.667	83
405.88	-10.38
406.094	76.22
406.307	101.6
406.52	72.35
406.733	27.79
406.947	31.66
407.16	106.45
407.373	84.94
407.586	33.02
407.799	6.47
408.012	114
408.226	52.97
408.439	122.14
408.652	12.09
408.865	65.76
409.078	108.19
409.291	81.26
409.504	16.74
409.717	66.73
409.93	95.21
410.143	86.49
410.357	12.09
410.57	22.36
410.783	53.55
410.996	76.8
411.209	51.42
411.421	103.54
411.634	73.12
411.847	38.83
412.06	53.75
412.273	56.07
412.486	77.58
412.699	155.47
412.912	54.14
413.125	101.41
413.338	71.77
413.55	77.19
413.763	62.47
413.976	86.69
414.189	48.71
414.402	55.88
414.615	99.28
414.827	71.77
415.04	110.9
415.253	96.18
415.466	102.38
415.678	128.73
415.891	93.85
416.104	63.24
416.316	63.05
416.529	42.51
416.742	94.05
416.954	122.14
417.167	66.34
417.38	59.95
417.592	103.15
417.805	63.05
418.017	39.22
418.23	109.94
418.442	70.41
418.655	72.35
418.868	72.35
419.08	140.74
419.293	125.44
419.505	87.07
419.718	101.99
419.93	128.73
420.142	74.87
420.355	120.2
420.567	121.75
420.78	136.48
420.992	77.39
421.205	148.68
421.417	61.5
421.629	82.81
421.842	67.7
422.054	29.92
422.266	136.09
422.479	109.55
422.691	82.81
422.903	109.94
423.115	99.28
423.328	106.06
423.54	91.53
423.752	108.77
423.964	74.87
424.177	113.62
424.389	74.48
424.601	226.57
424.813	115.36
425.025	110.9
425.238	124.08
425.45	88.43
425.662	87.85
425.874	412.18
426.086	97.54
426.298	153.14
426.51	126.79
426.722	140.55
426.934	107.61
427.146	143.84
427.358	63.05
427.57	150.62
427.782	96.37
427.994	106.64
428.206	94.82
428.418	61.5
428.63	136.29
428.842	145.39
429.054	105.67
429.266	147.91
429.478	90.17
429.69	119.04
429.902	74.29
430.114	145.2
430.325	126.6
430.537	98.31
430.749	80.87
430.961	51.81
431.173	103.74
431.384	129.89
431.596	43.29
431.808	99.67
432.02	137.64
432.231	167.48
432.443	172.32
432.655	156.82
432.867	116.72
433.078	174.84
433.29	190.53
433.502	162.63
433.713	167.87
433.925	153.92
434.136	214.56
434.348	120.4
434.56	102.77
434.771	250.4
434.983	105.29
435.194	123.3
435.406	140.35
435.617	194.22
435.829	229.48
436.04	207.97
436.252	198.48
436.463	207.97
436.675	204.68
436.886	188.6
437.098	192.08
437.309	211.85
437.521	165.93
437.732	198.67
437.943	190.34
438.155	190.15
438.366	114.78
438.578	227.73
438.789	162.83
439	220.37
439.211	189.95
439.423	196.35
439.634	217.08
439.845	209.33
440.057	205.84
440.268	232.77
440.479	167.09
440.69	198.28
440.902	195.77
441.113	178.91
441.324	201.77
441.535	194.8
441.746	258.93
441.957	199.83
442.168	218.82
442.38	263.19
442.591	256.41
442.802	205.65
443.013	196.35
443.224	238.58
443.435	201
443.646	209.13
443.857	194.41
444.068	190.92
444.279	219.21
444.49	280.24
444.701	233.16
444.912	309.88
445.123	288.76
445.334	239.36
445.545	247.5
445.756	250.6
445.967	225.22
446.178	238.58
446.388	253.31
446.599	281.4
446.81	276.36
447.021	252.34
447.232	284.11
447.443	314.34
447.653	220.37
447.864	275.98
448.075	257.76
448.286	295.35
448.496	275.2
448.707	319.76
448.918	269.78
449.129	342.43
449.339	228.7
449.55	297.68
449.761	262.8
449.971	315.5
450.182	268.23
450.393	294
450.603	290.12
450.814	316.28
451.024	310.46
451.235	318.99
451.446	373.04
451.656	336.23
451.867	265.13
452.077	299.23
452.288	333.52
452.498	370.91
452.709	295.74
452.919	303.68
453.13	292.25
453.34	330.61
453.55	255.05
453.761	319.96
453.971	288.38
454.182	320.15
454.392	326.54
454.602	360.45
454.813	306.59
455.023	322.28
455.233	259.12
455.444	301.16
455.654	240.91
455.864	309.11
456.075	298.65
456.285	288.18
456.495	322.86
456.705	328.09
456.916	362
457.126	367.81
457.336	322.86
457.546	257.38
457.756	291.48
457.967	372.46
458.177	303.3
458.387	314.92
458.597	303.88
458.807	297.29
459.017	328.68
459.227	333.71
459.437	313.95
459.647	355.03
459.857	367.23
460.068	330.23
460.278	380.6
460.488	334.49
460.698	381.57
460.908	352.7
461.117	306.01
461.327	310.46
461.537	347.47
461.747	349.99
461.957	362.97
462.167	431.36
462.377	382.54
462.587	323.64
462.797	361.81
463.007	370.72
463.216	360.06
463.426	400.17
463.636	363.36
463.846	313.95
464.056	351.15
464.265	386.8
464.475	328.09
464.685	371.3
464.895	379.44
465.104	331.97
465.314	400.94
465.524	338.75
465.733	318.02
465.943	457.13
466.153	438.92
466.362	414.51
466.572	384.67
466.782	346.31
466.991	396.88
467.201	440.08
467.41	312.98
467.62	391.64
467.829	379.44
468.039	395.33
468.249	370.53
468.458	377.11
468.668	421.48
468.877	430.39
469.086	442.02
469.296	419.35
469.505	377.89
469.715	455
469.924	436.59
470.134	440.27
470.343	460.04
470.552	424.77
470.762	379.24
470.971	369.75
471.18	397.26
471.39	410.44
471.599	366.07
471.808	461.2
472.018	411.21
472.227	459.46
472.436	447.83
472.645	430.39
472.855	410.63
473.064	489.87
473.273	456.74
473.482	473.02
473.691	493.94
473.901	456.36
474.11	422.64
474.319	562.92
474.528	458.68
474.737	533.66
474.946	510.41
475.155	484.64
475.364	517.19
475.573	501.89
475.783	494.91
475.992	514.87
476.201	536.18
476.41	496.46
476.619	479.02
476.828	465.85
477.037	459.84
477.245	500.53
477.454	531.72
477.663	496.65
477.872	503.44
478.081	573.96
478.29	478.44
478.499	593.33
478.708	553.04
478.917	581.71
479.125	518.16
479.334	567.57
479.543	547.8
479.752	544.51
479.961	556.72
480.169	598.76
480.378	526.49
480.587	697.18
480.796	596.63
481.004	582.48
481.213	619.88
481.422	601.28
481.63	579.97
481.839	630.73
482.048	689.82
482.256	609.22
482.465	635.77
482.674	620.07
482.882	656.5
483.091	697.18
483.299	624.33
483.508	631.89
483.716	620.07
483.925	636.15
484.134	592.37
484.342	634.8
484.551	663.47
484.759	648.55
484.967	674.51
485.176	684.98
485.384	688.46
485.593	707.45
485.801	674.51
486.01	647.2
486.218	607.09
486.426	534.05
486.635	576.09
486.843	589.27
487.051	645.26
487.26	591.4
487.468	634.8
487.676	685.75
487.885	633.25
488.093	676.06
488.301	691.76
488.509	685.36
488.717	709.58
488.926	676.65
489.134	687.69
489.342	723.53
489.55	674.13
489.758	701.64
489.967	677.81
490.175	802.97
490.383	697.57
490.591	805.1
490.799	693.7
491.007	745.81
491.215	777.2
491.423	731.67
491.631	735.93
491.839	741.94
492.047	785.34
492.255	696.21
492.463	684.78
492.671	731.09
492.879	827.96
493.087	755.5
493.295	785.73
493.503	756.86
493.711	806.46
493.919	826.22
494.127	802.39
494.334	819.63
494.542	738.26
494.75	814.01
494.958	791.15
495.166	844.24
495.374	832.03
495.581	824.09
495.789	826.61
495.997	892.87
496.205	798.13
496.412	831.26
496.62	776.81
496.828	840.75
497.035	826.8
497.243	882.41
497.451	838.62
497.658	847.72
497.866	856.06
498.074	904.69
498.281	785.34
498.489	924.84
498.696	838.81
498.904	796.77
499.112	804.52
499.319	933.94
499.527	850.82
499.734	923.29
499.942	833.78
500.149	824.67
500.357	886.09
500.564	808.39
500.771	863.42
500.979	816.53
501.186	823.7
501.394	865.74
501.601	854.31
501.808	877.56
502.016	854.7
502.223	861.09
502.43	844.04
502.638	847.72
502.845	845.21
503.052	936.46
503.26	871.94
503.467	957
503.674	874.85
503.881	897.71
504.089	962.81
504.296	938.4
504.503	855.09
504.71	893.45
504.917	862.26
505.125	917.09
505.332	909.53
505.539	930.26
505.746	1002.72
505.953	963.39
506.16	974.44
506.367	1007.95
506.574	1000.01
506.781	1014.35
506.988	938.01
507.195	966.1
507.402	973.85
507.609	1026.36
507.816	934.91
508.023	951.19
508.23	950.6
508.437	918.64
508.644	995.55
508.851	1023.07
509.058	985.09
509.265	1018.42
509.472	1015.9
509.679	1093.2
509.885	994.59
510.092	988.39
510.299	1023.45
510.506	1017.64
510.713	1045.93
510.92	998.46
511.126	1027.52
511.333	1043.99
511.54	1094.95
511.746	1115.48
511.953	1136.02
512.16	1089.72
512.367	1063.17
512.573	1099.98
512.78	1086.42
512.987	1090.1
513.193	1081.38
513.4	996.33
513.606	1071.7
513.813	1061.04
514.02	1068.6
514.226	1142.41
514.433	1084.48
514.639	1038.95
514.846	1084.29
515.052	1041.86
515.259	1074.8
515.465	1110.83
515.672	1118.58
515.878	1209.84
516.085	1112.19
516.291	1135.83
516.497	1105.41
516.704	1092.62
516.91	1074.99
517.117	1018.8
517.323	979.09
517.529	1025.2
517.736	1018.8
517.942	1046.51
518.148	1053.1
518.354	1081.77
518.561	1079.06
518.767	1087.2
518.973	1133.7
519.179	1144.55
519.386	1121.49
519.592	1102.5
519.798	1138.35
520.004	1185.23
520.21	1165.66
520.417	1216.23
520.623	1272.03
520.829	1249.56
521.035	1245.29
521.241	1271.26
521.447	1281.14
521.653	1380.53
521.859	1256.73
522.065	1306.52
522.271	1387.31
522.477	1309.42
522.683	1321.82
522.889	1309.62
523.095	1313.3
523.301	1292.37
523.507	1274.94
523.713	1311.36
523.919	1304.58
524.125	1370.84
524.331	1328.41
524.537	1425.48
524.742	1399.71
524.948	1433.81
525.154	1441.17
525.36	1524.68
525.566	1410.95
525.772	1464.42
525.977	1364.64
526.183	1445.82
526.389	1456.48
526.595	1385.18
526.8	1372.78
527.006	1303.22
527.212	1286.37
527.417	1313.49
527.623	1260.99
527.829	1397.77
528.034	1376.65
528.24	1400.49
528.446	1400.68
528.651	1478.95
528.857	1477.98
529.062	1550.83
529.268	1483.22
529.473	1527.97
529.679	1476.24
529.884	1577.76
530.09	1546.96
530.295	1576.02
530.501	1560.91
530.706	1566.72
530.912	1475.08
531.117	1498.91
531.323	1542.89
531.528	1600.24
531.733	1576.8
531.939	1581.06
532.144	1574.47
532.35	1604.89
532.555	1582.61
532.76	1605.08
532.966	1627.75
533.171	1554.32
533.376	1554.32
533.581	1518.09
533.787	1562.07
533.992	1643.06
534.197	1623.49
534.402	1591.52
534.607	1584.93
534.813	1680.06
535.018	1574.66
535.223	1584.93
535.428	1624.65
535.633	1684.13
535.838	1655.26
536.043	1647.32
536.249	1739.54
536.454	1654.1
536.659	1696.34
536.864	1607.21
537.069	1633.37
537.274	1664.76
537.479	1653.13
537.684	1696.92
537.889	1600.43
538.094	1756.59
538.299	1662.82
538.504	1686.07
538.708	1710.48
538.913	1702.73
539.118	1694.98
539.323	1681.03
539.528	1654.1
539.733	1644.99
539.938	1718.23
540.142	1654.1
540.347	1692.85
540.552	1628.91
540.757	1626.39
540.962	1635.31
541.166	1584.35
541.371	1609.15
541.576	1640.15
541.781	1570.01
541.985	1718.04
542.19	1670.57
542.395	1736.06
542.599	1774.42
542.804	1690.72
543.008	1773.64
543.213	1681.42
543.418	1647.32
543.622	1676.38
543.827	1619.81
544.031	1756.79
544.236	1722.88
544.44	1695.76
544.645	1773.26
544.849	1721.52
545.054	1740.9
545.258	1802.9
545.463	1803.29
545.667	1705.44
545.872	1738.57
546.076	1761.05
546.281	1736.83
546.485	1726.76
546.689	1751.75
546.894	1804.45
547.098	1734.7
547.302	1726.37
547.507	1731.41
547.711	1772.09
547.915	1797.28
548.119	1731.02
548.324	1729.86
548.528	1823.82
548.732	1737.99
548.936	1789.14
549.141	1809.1
549.345	1762.21
549.549	1789.72
549.753	1793.6
549.957	1824.4
550.161	1833.9
550.366	1839.9
550.57	1753.88
550.774	1762.41
550.978	1805.61
551.182	1795.34
551.386	1784.69
551.59	1773.84
551.794	1789.72
551.998	1802.51
552.202	1759.89
552.406	1739.93
552.61	1801.15
552.814	1786.04
553.018	1887.76
553.222	1803.87
553.426	1737.99
553.63	1866.25
553.833	1804.45
554.037	1723.07
554.241	1844.17
554.445	1795.15
554.649	1784.11
554.853	1807.55
555.056	1830.22
555.26	1863.35
555.464	1862.96
555.668	1837.19
555.871	1844.36
556.075	1848.82
556.279	1794.76
556.483	1766.28
556.686	1785.27
556.89	1739.35
557.094	1819.56
557.297	1721.14
557.501	1795.15
557.704	1724.82
557.908	1781.78
558.112	1719.2
558.315	1799.41
558.519	1744.77
558.722	1708.93
558.926	1738.77
559.129	1663.4
559.333	1636.28
559.536	1656.43
559.74	1640.15
559.943	1643.83
560.147	1642.67
560.35	1665.53
560.553	1683.94
560.757	1616.13
560.96	1760.66
561.164	1674.06
561.367	1782.94
561.57	1696.34
561.774	1734.31
561.977	1703.51
562.18	1662.63
562.384	1751.75
562.587	1692.66
562.79	1665.73
562.993	1651.78
563.197	1728.11
563.4	1767.64
563.603	1752.72
563.806	1754.07
564.009	1663.4
564.212	1706.22
564.416	1627.75
564.619	1689.36
564.822	1604.89
565.025	1721.52
565.228	1626.98
565.431	1660.3
565.634	1565.36
565.837	1590.16
566.04	1580.67
566.243	1555.29
566.446	1538.05
566.649	1623.3
566.852	1520.22
567.055	1577.96
567.258	1640.73
567.461	1703.51
567.664	1637.44
567.867	1550.83
568.07	1628.14
568.273	1589.58
568.475	1646.54
568.678	1550.06
568.881	1546.18
569.084	1584.55
569.287	1470.43
569.489	1491.93
569.692	1528.75
569.895	1555.87
570.098	1461.71
570.3	1448.54
570.503	1440.98
570.706	1459.38
570.909	1455.32
571.111	1402.04
571.314	1430.13
571.516	1487.67
571.719	1454.35
571.922	1453.96
572.124	1407.65
572.327	1452.02
572.529	1385.95
572.732	1411.92
572.935	1472.95
573.137	1528.17
573.34	1400.87
573.542	1478.37
573.745	1495.62
573.947	1463.65
574.15	1447.76
574.352	1453.77
574.554	1494.65
574.757	1425.67
574.959	1377.43
575.162	1385.37
575.364	1392.15
575.566	1495.62
575.769	1369.68
575.971	1430.52
576.173	1260.99
576.376	1367.74
576.578	1423.54
576.78	1435.36
576.982	1302.64
577.185	1362.12
577.387	1318.72
577.589	1335
577.791	1365.03
577.993	1393.9
578.196	1355.92
578.398	1393.12
578.6	1387.31
578.802	1332.29
579.004	1281.52
579.206	1305.94
579.408	1369.1
579.61	1321.05
579.812	1339.07
580.014	1314.85
580.216	1319.69
580.418	1333.06
580.62	1337.13
580.822	1272.61
581.024	1305.94
581.226	1383.44
581.428	1306.32
581.63	1447.57
581.832	1302.45
582.034	1388.67
582.236	1363.48
582.438	1384.99
582.64	1423.35
582.841	1408.43
583.043	1424.9
583.245	1381.89
583.447	1364.06
583.649	1305.55
583.85	1377.62
584.052	1403.59
584.254	1334.81
584.456	1384.21
584.657	1309.62
584.859	1334.03
585.061	1344.11
585.262	1313.11
585.464	1301.29
585.666	1358.83
585.867	1322.99
586.069	1358.06
586.27	1339.65
586.472	1315.43
586.674	1307.1
586.875	1276.87
587.077	1292.18
587.278	1316.79
587.48	1289.27
587.681	1392.35
587.883	1332.09
588.084	1245.49
588.285	1283.07
588.487	1245.88
588.688	1269.32
588.89	1207.51
589.091	1161.6
589.292	1155.59
589.494	1152.3
589.695	1142.41
589.896	1100.76
590.098	1109.48
590.299	1122.46
590.5	1105.02
590.702	1129.82
590.903	1180.58
591.104	1211.97
591.305	1228.44
591.507	1266.8
591.708	1216.81
591.909	1198.99
592.11	1221.27
592.311	1236.77
592.512	1190.08
592.714	1137.38
592.915	1158.88
593.116	1152.3
593.317	1194.34
593.518	1172.06
593.719	1228.24
593.92	1242.58
594.121	1260.79
594.322	1206.16
594.523	1222.82
594.724	1125.56
594.925	1168.76
595.126	1183.68
595.327	1212.16
595.528	1197.44
595.729	1169.35
595.929	1180.58
596.13	1189.11
596.331	1183.88
596.532	1215.07
596.733	1234.06
596.934	1206.74
597.135	1208.87
597.335	1231.54
597.536	1161.21
597.737	1212.94
597.938	1162.18
598.138	1236.58
598.339	1177.1
598.54	1209.84
598.74	1183.1
598.941	1179.23
599.142	1293.15
599.342	1188.33
599.543	1158.69
599.744	1179.81
599.944	1164.89
600.145	1189.69
600.345	1201.12
600.546	1248.01
600.746	1250.33
600.947	1294.31
601.147	1195.11
601.348	1237.74
601.548	1171.09
601.749	1157.33
601.949	1165.86
602.15	1163.53
602.35	1176.13
602.551	1229.02
602.751	1127.5
602.951	1182.71
603.152	1117.23
603.352	1187.94
603.552	1192.79
603.753	1215.07
603.953	1204.03
604.153	1172.83
604.354	1161.98
604.554	1177.29
604.754	1205.58
604.954	1153.85
605.155	1179.42
605.355	1141.06
605.555	1188.33
605.755	1239.09
605.955	1178.84
606.155	1204.22
606.356	1203.06
606.556	1216.62
606.756	1211.58
606.956	1090.49
607.156	1199.76
607.356	1130.79
607.556	1193.76
607.756	1171.09
607.956	1212.55
608.156	1178.65
608.356	1134.86
608.556	1235.99
608.756	1166.44
608.956	1094.75
609.156	1156.95
609.356	1089.33
609.556	1099.98
609.755	1167.02
609.955	1124.98
610.155	1122.65
610.355	1143
610.555	1104.44
610.755	1142.41
610.954	1046.12
611.154	1137.76
611.354	1174
611.554	1114.32
611.753	1117.42
611.953	1087.2
612.153	1141.64
612.352	1090.49
612.552	1059.1
612.752	1015.51
612.951	1090.68
613.151	1098.82
613.351	1060.46
613.55	1103.66
613.75	1128.08
613.949	1099.6
614.149	1072.67
614.348	1049.42
614.548	1022.1
614.747	1000.98
614.947	1047.48
615.146	1019.19
615.346	1095.14
615.545	1095.53
615.745	1076.35
615.944	1115.68
616.144	1047.28
616.343	1083.52
616.542	1052.32
616.742	1038.76
616.941	1014.35
617.14	983.35
617.34	1042.25
617.539	1028.3
617.738	1032.37
617.938	1119.75
618.137	1042.63
618.336	1014.93
618.535	1090.49
618.734	1020.74
618.934	1033.92
619.133	1068.4
619.332	1068.4
619.531	1026.75
619.73	1066.47
619.929	1093.2
620.128	1071.7
620.328	1098.63
620.527	1044.96
620.726	1022.48
620.925	1034.11
621.124	1067.24
621.323	1074.41
621.522	980.05
621.721	978.5
621.92	992.45
622.119	1051.16
622.318	990.13
622.517	1025
622.715	1018.42
622.914	943.82
623.113	998.85
623.312	954.09
623.511	1021.9
623.71	981.6
623.909	982.96
624.107	1046.7
624.306	957.97
624.505	960.68
624.704	953.7
624.902	972.89
625.101	1035.85
625.3	970.17
625.499	948.09
625.697	933.17
625.896	929.1
626.095	986.64
626.293	925.61
626.492	951.57
626.69	968.82
626.889	954.48
627.088	1001.95
627.286	929.87
627.485	915.92
627.683	919.61
627.882	951.57
628.08	876.79
628.279	908.17
628.477	959.52
628.676	903.33
628.874	935.3
629.073	898.68
629.271	895.77
629.469	945.18
629.668	914.76
629.866	916.12
630.065	878.92
630.263	953.7
630.461	891.51
630.66	901.97
630.858	970.75
631.056	969.59
631.254	957.77
631.453	897.91
631.651	930.26
631.849	926.77
632.047	931.81
632.245	919.99
632.444	920.77
632.642	951.19
632.84	950.41
633.038	913.6
633.236	895.19
633.434	869.23
633.632	882.99
633.83	879.5
634.028	957.39
634.227	895
634.425	943.24
634.623	888.02
634.821	933.36
635.019	932.2
635.216	880.47
635.414	970.95
635.612	913.79
635.81	911.47
636.008	1008.92
636.206	881.63
636.404	946.15
636.602	859.35
636.8	939.17
636.997	944.79
637.195	897.32
637.393	925.61
637.591	999.62
637.789	917.86
637.986	938.98
638.184	942.27
638.382	990.71
638.58	952.54
638.777	974.82
638.975	936.27
639.173	914.57
639.37	917.86
639.568	922.12
639.765	938.2
639.963	878.72
640.161	949.05
640.358	959.52
640.556	880.86
640.753	839.59
640.951	878.53
641.148	898.49
641.346	865.94
641.543	890.16
641.741	913.41
641.938	847.72
642.136	913.41
642.333	860.51
642.531	914.57
642.728	949.44
642.925	893.64
643.123	881.24
643.32	893.84
643.517	905.66
643.715	906.04
643.912	876.79
644.109	887.44
644.306	871.94
644.504	839.97
644.701	893.64
644.898	910.89
645.095	841.52
645.293	838.23
645.49	889.96
645.687	882.79
645.884	887.44
646.081	801.23
646.278	820.02
646.475	843.66
646.672	802.78
646.87	857.8
647.067	843.27
647.264	880.27
647.461	792.12
647.658	766.35
647.855	813.82
648.052	791.73
648.249	739.03
648.446	796.38
648.642	779.72
648.839	789.02
649.036	779.33
649.233	737.68
649.43	758.79
649.627	739.81
649.824	769.26
650.021	755.11
650.217	744.07
650.414	767.71
650.611	794.44
650.808	797.16
651.004	789.79
651.201	803.55
651.398	866.91
651.595	780.88
651.791	761.7
651.988	814.4
652.185	747.75
652.381	782.82
652.578	710.94
652.775	762.28
652.971	764.99
653.168	768.87
653.364	783.59
653.561	720.24
653.757	748.33
653.954	777.78
654.15	748.14
654.347	800.45
654.543	770.42
654.74	709.97
654.936	695.05
655.133	765.77
655.329	750.27
655.525	730.7
655.722	783.59
655.918	704.16
656.115	717.72
656.311	636.93
656.507	625.3
656.704	576.87
656.9	640.22
657.096	617.94
657.292	643.32
657.489	701.25
657.685	697.96
657.881	697.38
658.077	691.76
658.273	707.26
658.47	753.37
658.666	708.61
658.862	778.17
659.058	694.28
659.254	749.88
659.45	679.75
659.646	735.16
659.842	702.22
660.038	749.5
660.234	700.28
660.43	702.41
660.626	811.3
660.822	763.64
661.018	755.5
661.214	726.83
661.41	676.26
661.606	748.91
661.802	775.65
661.998	713.65
662.194	703.19
662.39	733.8
662.586	756.47
662.781	760.93
662.977	766.35
663.173	737.87
663.369	750.46
663.564	733.8
663.76	756.47
663.956	715.2
664.152	744.85
664.347	646.03
664.543	690.98
664.739	691.95
664.934	665.21
665.13	653.59
665.326	742.52
665.521	726.25
665.717	679.55
665.912	638.28
666.108	635.57
666.304	668.31
666.499	661.92
666.695	606.51
666.89	666.38
667.086	719.27
667.281	708.03
667.477	738.65
667.672	673.55
667.867	695.25
668.063	685.95
668.258	662.7
668.454	669.86
668.649	769.64
668.844	677.61
669.04	744.26
669.235	661.34
669.43	648.55
669.626	623.37
669.821	673.74
670.016	655.72
670.211	639.45
670.407	647.97
670.602	669.67
670.797	642.16
670.992	709.97
671.187	602.25
671.382	691.76
671.578	639.45
671.773	684.59
671.968	635.57
672.163	654.56
672.358	682.07
672.553	613.48
672.748	627.63
672.943	687.11
673.138	647.78
673.333	678.97
673.528	629.57
673.723	674.71
673.918	615.42
674.113	608.45
674.308	714.43
674.503	687.3
674.698	678.39
674.892	639.83
675.087	684.01
675.282	647.2
675.477	622.4
675.672	678.2
675.867	626.66
676.061	612.9
676.256	582.1
676.451	610.38
676.646	657.47
676.84	585.97
677.035	598.95
677.23	574.35
677.424	645.84
677.619	676.06
677.814	682.26
678.008	655.53
678.203	579
678.397	585.39
678.592	644.29
678.787	685.36
678.981	642.35
679.176	642.74
679.37	603.22
679.565	609.03
679.759	615.42
679.954	637.9
680.148	690.21
680.342	681.1
680.537	688.66
680.731	608.83
680.926	658.43
681.12	659.6
681.314	603.22
681.509	643.13
681.703	641.19
681.897	666.18
682.092	612.52
682.286	615.03
682.48	653.59
682.674	668.9
682.869	616.58
683.063	629.18
683.257	705.32
683.451	628.98
683.645	662.7
683.839	645.26
684.034	605.54
684.228	653.59
684.422	572.6
684.616	598.18
684.81	642.93
685.004	629.37
685.198	624.92
685.392	628.98
685.586	583.07
685.78	650.49
685.974	650.88
686.168	662.5
686.362	673.16
686.556	573.38
686.75	550.52
686.944	542.77
687.138	553.81
687.331	478.25
687.525	497.24
687.719	424
687.913	510.6
688.107	508.86
688.301	476.12
688.494	511.77
688.688	455.58
688.882	477.09
689.076	468.37
689.269	499.37
689.463	583.65
689.657	518.16
689.85	531.53
690.044	534.05
690.238	529.2
690.431	540.25
690.625	518.74
690.818	551.87
691.012	577.83
691.205	576.87
691.399	532.3
691.593	586.17
691.786	650.49
691.98	629.76
692.173	652.04
692.366	668.12
692.56	648.17
692.753	692.15
692.947	594.3
693.14	693.11
693.333	704.55
693.527	615.81
693.72	668.51
693.914	661.73
694.107	650.68
694.3	699.9
694.493	677.23
694.687	692.73
694.88	657.85
695.073	745.81
695.266	709.97
695.46	718.11
695.653	763.25
695.846	774.88
696.039	672.38
696.232	746.98
696.425	776.62
696.618	787.28
696.812	780.3
697.005	862.45
697.198	934.91
697.391	839.78
697.584	881.24
697.777	936.85
697.97	902.36
698.163	901.59
698.356	897.13
698.549	988.19
698.742	932.39
698.935	884.15
699.127	957.77
699.32	891.71
699.513	878.72
699.706	944.21
699.899	958.74
700.092	924.84
700.285	963
700.477	918.83
700.67	960.87
700.863	984.51
701.056	1084.68
701.248	1028.68
701.441	1041.67
701.634	1035.27
701.826	1163.53
702.019	1030.43
702.212	1078.28
702.404	1091.07
702.597	1022.87
702.79	1083.32
702.982	1083.32
703.175	1109.67
703.367	1147.26
703.56	1161.01
703.752	1262.54
703.945	1215.65
704.137	1201.31
704.33	1213.71
704.522	1242.97
704.715	1265.25
704.907	1292.37
705.1	1337.13
705.292	1316.01
705.484	1291.99
705.677	1291.02
705.869	1369.29
706.061	1365.22
706.254	1404.36
706.446	1341.97
706.638	1350.89
706.831	1453.38
707.023	1407.85
707.215	1494.26
707.407	1460.16
707.599	1437.69
707.792	1523.52
707.984	1479.34
708.176	1526.62
708.368	1470.62
708.56	1512.08
708.752	1517.7
708.944	1484.18
709.136	1556.26
709.329	1539.6
709.521	1657.39
709.713	1609.73
709.905	1654.68
710.097	1697.11
710.289	1593.46
710.481	1607.6
710.672	1633.18
710.864	1637.24
711.056	1716.1
711.248	1713.58
711.44	1719.01
711.632	1740.12
711.824	1787.98
712.016	1816.46
712.207	1791.66
712.399	1795.92
712.591	1896.28
712.783	1814.14
712.975	1883.69
713.166	1778.29
713.358	1835.64
713.55	1895.9
713.741	1935.62
713.933	1887.18
714.125	1887.95
714.316	1869.94
714.508	1946.47
714.7	1935.03
714.891	1930.58
715.083	1973.59
715.274	1914.3
715.466	1960.22
715.657	1958.87
715.849	1870.52
716.04	1932.52
716.232	1929.22
716.423	1972.04
716.615	1843.2
716.806	1860.83
716.998	1811.62
717.189	1739.74
717.381	1669.21
717.572	1646.35
717.763	1699.44
717.955	1646.54
718.146	1621.75
718.337	1548.31
718.528	1560.71
718.72	1470.62
718.911	1548.31
719.102	1466.94
719.293	1584.93
719.485	1539.79
719.676	1523.52
719.867	1515.18
720.058	1469.85
720.249	1510.73
720.44	1555.68
720.632	1564.78
720.823	1602.56
721.014	1697.89
721.205	1722.88
721.396	1795.73
721.587	1887.37
721.778	1922.25
721.969	1949.57
722.16	1976.88
722.351	1981.15
722.542	2084.8
722.733	2132.66
722.924	2068.14
723.115	2111.15
723.305	2045.66
723.496	2045.66
723.687	1923.6
723.878	1969.33
724.069	1939.49
724.26	1990.45
724.45	1941.43
724.641	1919.15
724.832	1973.59
725.023	1904.62
725.213	1905
725.404	1919.73
725.595	1911.4
725.785	1889.12
725.976	1952.86
726.167	1923.22
726.357	1938.72
726.548	2080.54
726.739	1958.48
726.929	2045.66
727.12	2039.66
727.31	2080.93
727.501	2006.33
727.691	2035.59
727.882	1999.94
728.072	2068.91
728.263	2088.29
728.453	2122.97
728.644	2108.05
728.834	2102.04
729.024	2091.19
729.215	2077.83
729.405	2117.93
729.596	2158.04
729.786	2146.22
729.976	2156.1
730.167	2172.18
730.357	2141.57
730.547	2135.95
730.737	2209.77
730.928	2209.96
731.118	2259.56
731.308	2226.43
731.498	2232.44
731.688	2320.59
731.879	2315.55
732.069	2379.3
732.259	2379.88
732.449	2411.85
732.639	2495.74
732.829	2481.21
733.019	2516.66
733.209	2556.77
733.399	2581.96
733.589	2646.67
733.779	2663.14
733.969	2646.86
734.159	2758.46
734.349	2740.64
734.539	2752.07
734.729	2736.57
734.919	2749.35
735.109	2847.97
735.299	2810.97
735.488	2776.09
735.678	2788.49
735.868	2803.02
736.058	2800.89
736.248	2726.49
736.437	2728.43
736.627	2756.91
736.817	2904.16
737.007	2818.91
737.196	2861.15
737.386	2840.22
737.576	2843.13
737.765	2830.15
737.955	2856.5
738.144	2967.71
738.334	2917.33
738.524	2867.15
738.713	2895.25
738.903	2854.95
739.092	2908.42
739.282	2918.5
739.471	2942.71
739.661	2944.26
739.85	2952.59
740.04	2971.19
740.229	2995.8
740.419	3003.55
740.608	3012.66
740.797	2904.16
740.987	3080.08
741.176	3048.31
741.365	2968.68
741.555	2965.58
741.744	3028.93
741.933	2982.24
742.123	3034.94
742.312	3067.68
742.501	3094.22
742.69	3118.44
742.88	3027.57
743.069	3136.85
743.258	3046.76
743.447	3124.45
743.636	3115.34
743.825	3107.98
744.014	3108.17
744.204	3111.47
744.393	3091.12
744.582	3181.6
744.771	3169.79
744.96	3115.34
745.149	3176.18
745.338	3115.15
745.527	3185.09
745.716	3147.5
745.905	3084.15
746.094	3168.62
746.283	3185.29
746.471	3154.67
746.66	3230.62
746.849	3192.07
747.038	3202.14
747.227	3163.59
747.416	3186.84
747.604	3157.77
747.793	3144.79
747.982	3199.62
748.171	3201.56
748.359	3205.43
748.548	3167.65
748.737	3120.77
748.926	3137.82
749.114	3046.37
749.303	3141.11
749.491	3151.19
749.68	3074.46
749.869	3184.51
750.057	3093.45
750.246	3070.01
750.434	3107.98
750.623	3080.66
750.811	3088.41
751	3149.83
751.188	3127.74
751.377	3124.45
751.565	3135.49
751.754	3071.56
751.942	3032.03
752.131	3115.92
752.319	3051.99
752.507	2982.43
752.696	3111.85
752.884	3105.66
753.072	3049.47
753.261	3067.49
753.449	3107.59
753.637	2998.32
753.825	3124.25
754.014	3033.39
754.202	3034.94
754.39	3140.53
754.578	3131.62
754.766	3066.71
754.955	2998.32
755.143	3120.96
755.331	3045.59
755.519	3054.7
755.707	3001.61
755.895	3032.61
756.083	3024.28
756.271	2959.18
756.459	3047.53
756.647	3041.91
756.835	2964.99
757.023	2963.83
757.211	2961.31
757.399	2977.78
757.587	2986.5
757.775	2924.5
757.963	2940.19
758.151	2928.57
758.339	2879.75
758.526	2883.81
758.714	2922.37
758.902	2814.07
759.09	2766.02
759.278	2595.32
759.465	2378.33
759.653	2039.27
759.841	1857.34
760.028	1559.55
760.216	1396.42
760.404	1332.48
760.591	1051.16
760.779	917.86
760.967	804.52
761.154	647.58
761.342	693.7
761.529	721.6
761.717	762.86
761.905	747.95
762.092	813.82
762.28	771
762.467	773.71
762.655	719.46
762.842	721.98
763.029	721.01
763.217	769.64
763.404	747.95
763.592	795.41
763.779	732.25
763.966	791.54
764.154	801.42
764.341	854.51
764.528	848.5
764.716	928.13
764.903	1008.73
765.09	1044.57
765.277	1072.86
765.465	1253.82
765.652	1278.81
765.839	1319.31
766.026	1491.16
766.213	1485.73
766.4	1568.66
766.588	1733.54
766.775	1737.02
766.962	1859.09
767.149	1881.37
767.336	2024.16
767.523	1991.03
767.71	2107.28
767.897	2227.59
768.084	2292.3
768.271	2318.27
768.458	2379.49
768.645	2445.17
768.832	2412.23
769.019	2442.07
769.206	2440.91
769.392	2514.73
769.579	2584.09
769.766	2554.25
769.953	2574.21
770.14	2621.29
770.327	2597.46
770.513	2644.92
770.7	2699.56
770.887	2622.06
771.073	2644.15
771.26	2669.34
771.447	2630.01
771.634	2593
771.82	2731.53
772.007	2603.66
772.193	2690.26
772.38	2699.17
772.567	2661.78
772.753	2646.47
772.94	2689.49
773.126	2690.65
773.313	2709.44
773.499	2696.07
773.686	2703.82
773.872	2629.42
774.059	2630.2
774.245	2651.32
774.432	2658.1
774.618	2575.18
774.804	2628.84
774.991	2576.73
775.177	2632.72
775.363	2634.27
775.55	2657.32
775.736	2570.33
775.922	2591.84
776.109	2600.56
776.295	2617.99
776.481	2618.96
776.667	2627.29
776.853	2560.64
777.04	2526.93
777.226	2579.44
777.412	2633.69
777.598	2578.86
777.784	2548.24
777.97	2560.84
778.156	2591.64
778.342	2565.1
778.528	2535.07
778.715	2466.87
778.901	2511.04
779.087	2537.39
779.272	2518.99
779.458	2499.81
779.644	2522.28
779.83	2500.58
780.016	2594.16
780.202	2511.24
780.388	2452.92
780.574	2389.37
780.76	2473.85
780.946	2499.03
781.131	2501.16
781.317	2463.96
781.503	2456.21
781.689	2438.97
781.874	2555.8
782.06	2436.65
782.246	2405.26
782.432	2454.28
782.617	2487.21
782.803	2503.68
782.989	2409.72
783.174	2447.88
783.36	2337.64
783.545	2387.43
783.731	2406.42
783.916	2303.93
784.102	2416.69
784.288	2338.03
784.473	2395.18
784.659	2319.82
784.844	2362.05
785.029	2349.85
785.215	2329.12
785.4	2276.03
785.586	2375.23
785.771	2279.13
785.956	2342.1
786.142	2341.9
786.327	2310.71
786.512	2285.91
786.698	2296.18
786.883	2230.11
787.068	2242.51
787.254	2231.47
787.439	2248.52
787.624	2279.13
787.809	2171.21
787.994	2220.81
788.18	2272.15
788.365	2165.21
788.55	2206.67
788.735	2238.25
788.92	2167.34
789.105	2196.79
789.29	2225.46
789.475	2162.3
789.66	2174.89
789.845	2107.66
790.03	2139.63
790.215	2170.44
790.4	2218.29
790.585	2146.41
790.77	2111.54
790.955	2075.11
791.14	2087.13
791.325	2206.86
791.51	2058.65
791.695	2105.92
791.879	2125.68
792.064	2075.69
792.249	2185.94
792.434	2127.23
792.618	2110.57
792.803	2141.18
792.988	2094.29
793.173	2107.08
793.357	2152.22
793.542	2116.19
793.727	2128.39
793.911	2150.29
794.096	2099.33
794.281	2191.94
794.465	2227.21
794.65	2134.21
794.834	2197.95
795.019	2222.94
795.203	2213.84
795.388	2171.99
795.572	2208.61
795.757	2152.03
795.941	2165.59
796.126	2159.2
796.31	2109.02
796.494	2201.44
796.679	2128.98
796.863	2116.38
797.048	2208.8
797.232	2167.72
797.416	2155.13
797.601	2161.72
797.785	2209.57
797.969	2194.85
798.153	2113.67
798.338	2161.14
798.522	2207.83
798.706	2228.17
798.89	2208.22
799.074	2271.57
799.258	2238.44
799.443	2194.85
799.627	2199.11
799.811	2204.34
799.995	2162.88
800.179	2174.89
800.363	2174.7
800.547	2198.92
800.731	2257.24
800.915	2092.94
801.099	2163.85
801.283	2145.25
801.467	2179.74
801.651	2122.97
801.835	2196.01
802.019	2202.41
802.202	2212.29
802.386	2132.08
802.57	2138.47
802.754	2114.44
802.938	2094.68
803.121	2173.34
803.305	2229.53
803.489	2176.44
803.673	2218.49
803.856	2180.9
804.04	2141.57
804.224	2183.81
804.407	2165.59
804.591	2127.43
804.775	2176.83
804.958	2160.36
805.142	2267.12
805.326	2132.85
805.509	2146.41
805.693	2178.77
805.876	2201.05
806.06	2140.02
806.243	2199.31
806.427	2227.01
806.61	2266.54
806.794	2189.62
806.977	2243.09
807.16	2168.89
807.344	2195.62
807.527	2221.2
807.71	2149.71
807.894	2188.46
808.077	2220.42
808.26	2145.44
808.444	2153.58
808.627	2213.64
808.81	2126.65
808.993	2090.81
809.177	2082.28
809.36	2128.39
809.543	2137.5
809.726	2043.73
809.909	2065.81
810.092	2028.03
810.276	2039.85
810.459	2048.38
810.642	2019.51
810.825	2000.33
811.008	2007.5
811.191	1939.49
811.374	1943.17
811.557	1954.41
811.74	2021.83
811.923	1919.53
812.106	1928.64
812.289	1853.08
812.472	1863.54
812.654	1895.9
812.837	1854.82
813.02	1834.09
813.203	1817.82
813.386	1700.6
813.569	1699.05
813.751	1631.63
813.934	1685.49
814.117	1662.24
814.3	1636.08
814.482	1576.02
814.665	1548.9
814.848	1522.16
815.03	1476.63
815.213	1487.09
815.396	1494.45
815.578	1436.14
815.761	1449.5
815.943	1510.15
816.126	1439.43
816.309	1382.47
816.491	1316.21
816.674	1252.66
816.856	1321.63
817.039	1338.1
817.221	1405.33
817.403	1362.51
817.586	1367.35
817.768	1391.38
817.951	1306.32
818.133	1258.66
818.315	1316.98
818.498	1351.47
818.68	1403.78
818.862	1387.31
819.045	1383.24
819.227	1376.27
819.409	1337.91
819.591	1428.58
819.774	1418.31
819.956	1335.97
820.138	1405.72
820.32	1401.65
820.502	1444.85
820.684	1477.21
820.866	1486.51
821.048	1573.11
821.231	1591.52
821.413	1549.48
821.595	1516.54
821.777	1509.37
821.959	1546.57
822.141	1619.23
822.323	1479.15
822.505	1409.2
822.686	1409.2
822.868	1335.97
823.05	1226.89
823.232	1237.74
823.414	1156.17
823.596	1223.4
823.778	1195.31
823.96	1273.39
824.141	1244.71
824.323	1228.83
824.505	1353.99
824.687	1365.03
824.868	1399.32
825.05	1498.52
825.232	1513.25
825.413	1554.51
825.595	1513.63
825.777	1422.96
825.958	1497.55
826.14	1480.7
826.321	1516.73
826.503	1485.15
826.685	1514.02
826.866	1544.83
827.048	1531.65
827.229	1455.32
827.411	1436.52
827.592	1376.46
827.773	1392.54
827.955	1335.58
828.136	1341.97
828.318	1305.36
828.499	1331.12
828.68	1323.57
828.862	1379.56
829.043	1374.91
829.224	1328.61
829.406	1304.58
829.587	1322.21
829.768	1335.39
829.949	1338.1
830.131	1302.45
830.312	1405.91
830.493	1338.87
830.674	1348.56
830.855	1313.11
831.036	1324.54
831.218	1393.32
831.399	1411.14
831.58	1339.84
831.761	1355.92
831.942	1372.78
832.123	1387.31
832.304	1277.26
832.485	1342.94
832.666	1330.93
832.847	1368.9
833.028	1368.32
833.209	1341.97
833.389	1318.14
833.57	1288.89
833.751	1308.46
833.932	1382.85
834.113	1357.86
834.294	1323.76
834.475	1393.9
834.655	1383.82
834.836	1423.15
835.017	1343.91
835.198	1308.46
835.378	1376.46
835.559	1393.32
835.74	1362.32
835.92	1353.21
836.101	1358.83
836.281	1405.14
836.462	1376.46
836.643	1470.82
836.823	1396.8
837.004	1445.63
837.184	1453.77
837.365	1414.44
837.545	1414.82
837.726	1390.99
837.906	1433.04
838.087	1393.9
838.267	1386.73
838.448	1345.66
838.628	1398.94
838.808	1394.48
838.989	1441.56
839.169	1317.76
839.349	1440.2
839.53	1428.19
839.71	1422.57
839.89	1363.29
840.07	1429.55
840.251	1378.59
840.431	1442.34
840.611	1407.46
840.791	1358.83
840.971	1405.72
841.151	1411.72
841.332	1342.94
841.512	1414.63
841.692	1317.56
841.872	1368.71
842.052	1347.01
842.232	1421.02
842.412	1335.19
842.592	1384.6
842.772	1411.34
842.952	1401.84
843.132	1373.55
843.312	1372.59
843.492	1324.73
843.672	1370.07
843.851	1282.11
844.031	1320.47
844.211	1385.95
844.391	1326.47
844.571	1389.25
844.751	1392.35
844.93	1354.18
845.11	1338.1
845.29	1348.17
845.47	1394.67
845.649	1351.66
845.829	1387.12
846.009	1334.42
846.188	1374.14
846.368	1335.58
846.547	1331.9
846.727	1367.55
846.907	1305.55
847.086	1357.28
847.266	1373.75
847.445	1345.46
847.625	1312.91
847.804	1286.37
847.984	1333.84
848.163	1292.37
848.343	1300.32
848.522	1333.26
848.701	1327.83
848.881	1294.12
849.06	1317.56
849.239	1309.42
849.419	1314.27
849.598	1250.53
849.777	1257.31
849.957	1245.29
850.136	1220.69
850.315	1189.3
850.494	1197.63
850.674	1186.2
850.853	1250.72
851.032	1223.59
851.211	1257.11
851.39	1248.2
851.569	1187.17
851.748	1191.82
851.927	1275.71
852.107	1207.9
852.286	1187.36
852.465	1170.9
852.644	1249.17
852.823	1275.32
853.002	1221.66
853.181	1199.96
853.359	1219.53
853.538	1162.95
853.717	1226.69
853.896	1128.46
854.075	1096.69
854.254	1059.3
854.433	1013.77
854.611	1089.33
854.79	1010.47
854.969	1062.98
855.148	1120.33
855.327	1013.57
855.505	1121.88
855.684	1068.21
855.863	1107.93
856.041	1088.36
856.22	1137.57
856.399	1070.15
856.577	1165.86
856.756	1177.29
856.934	1269.9
857.113	1268.74
857.291	1173.41
857.47	1141.45
857.648	1192.01
857.827	1213.71
858.005	1199.38
858.184	1156.36
858.362	1266.41
858.541	1184.65
858.719	1190.85
858.898	1151.33
859.076	1150.16
859.254	1238.9
859.433	1171.09
859.611	1138.35
859.789	1144.55
859.967	1189.88
860.146	1209.84
860.324	1105.02
860.502	1124.98
860.68	1062.01
860.859	1124.4
861.037	1134.08
861.215	1140.86
861.393	1136.41
861.571	1135.44
861.749	1092.43
861.927	1144.93
862.105	1135.44
862.283	1107.15
862.461	1121.1
862.639	1043.6
862.817	1074.22
862.995	1093.59
863.173	1126.14
863.351	1105.21
863.529	1129.43
863.707	1077.51
863.885	1116.26
864.063	1022.87
864.241	1070.73
864.418	1127.88
864.596	1080.61
864.774	1057.94
864.952	1050
865.129	1129.43
865.307	1018.42
865.485	986.06
865.663	1092.82
865.84	1034.3
866.018	1052.9
866.196	919.99
866.373	944.99
866.551	928.13
866.728	867.29
866.906	927.35
867.084	936.65
867.261	1006.79
867.439	994.97
867.616	994.2
867.794	953.51
867.971	989.35
868.149	982.96
868.326	1044.38
868.503	1015.32
868.681	998.65
868.858	990.52
869.035	957.19
869.213	1045.15
869.39	1000.59
869.567	1044.96
869.745	975.02
869.922	981.8
870.099	1027.72
870.276	1037.98
870.454	1035.47
870.631	1030.43
870.808	976.37
870.985	1030.82
871.162	1070.73
871.339	1012.02
871.517	926
871.694	959.32
871.871	989.55
872.048	979.28
872.225	951.57
872.402	976.95
872.579	908.17
872.756	961.07
872.933	935.49
873.11	930.07
873.287	974.24
873.463	965.14
873.64	917.67
873.817	967.85
873.994	988
874.171	929.87
874.348	968.62
874.524	903.33
874.701	930.84
874.878	882.02
875.055	954.87
875.231	931.62
875.408	959.32
875.585	907.01
875.762	923.48
875.938	916.7
876.115	882.41
876.291	904.69
876.468	889.96
876.645	846.95
876.821	868.46
876.998	876.4
877.174	907.59
877.351	902.36
877.527	866.91
877.704	876.01
877.88	914.18
878.057	881.44
878.233	910.31
878.409	865.16
878.586	884.54
878.762	881.44
878.938	897.13
879.115	831.64
879.291	890.35
879.467	815.95
879.644	833.58
879.82	878.53
879.996	838.81
880.172	818.28
880.349	856.83
880.525	858.19
880.701	800.84
880.877	841.72
881.053	857.41
881.229	857.02
881.405	905.46
881.581	820.21
881.757	807.81
881.933	857.02
882.109	879.89
882.285	850.44
882.461	814.98
882.637	873.3
882.813	818.66
882.989	826.03
883.165	870.78
883.341	826.03
883.517	876.21
883.693	861.29
883.869	861.48
884.044	792.7
884.22	849.08
884.396	888.22
884.572	855.67
884.747	886.67
884.923	849.08
885.099	883.96
885.275	900.81
885.45	839.01
885.626	839.78
885.801	835.91
885.977	825.06
886.153	757.63
886.328	848.5
886.504	814.98
886.679	894.42
886.855	843.07
887.03	849.66
887.206	851.79
887.381	869.42
887.557	869.81
887.732	840.75
887.908	843.07
888.083	874.07
888.258	847.92
888.434	818.28
888.609	835.52
888.784	897.91
888.96	814.21
889.135	818.66
889.31	838.62
889.485	844.82
889.661	810.53
889.836	886.28
890.011	883.57
890.186	844.62
890.361	780.88
890.537	818.47
890.712	809.56
890.887	801.61
891.062	817.31
891.237	877.76
891.412	799.87
891.587	850.82
891.762	837.84
891.937	890.16
892.112	793.86
892.287	796.38
892.462	794.25
892.637	772.36
892.812	762.86
892.987	732.25
893.161	726.25
893.336	763.06
893.511	774.68
893.686	796.77
893.861	747.56
894.035	778.94
894.21	766.16
894.385	708.03
894.56	771.78
894.734	685.75
894.909	673.16
895.084	698.73
895.258	683.43
895.433	697.76
895.608	648.36
895.782	604.57
895.957	639.83
896.131	644.87
896.306	566.79
896.48	616.78
896.655	600.12
896.829	564.27
897.004	556.91
897.178	538.12
897.353	571.83
897.527	627.82
897.701	572.41
897.876	497.24
898.05	633.63
898.224	585.58
898.399	605.54
898.573	579.19
898.747	474.37
898.921	535.02
899.096	435.24
899.27	425.74
899.444	476.7
899.618	470.69
899.792	492
899.967	476.7
900.141	521.45
900.315	452.87
900.489	475.34
900.663	512.93
900.837	475.34
901.011	441.44
901.185	524.55
901.359	487.55
901.533	492
901.707	507.89
901.881	514.29
902.055	435.62
902.229	442.02
902.403	543.93
902.576	508.47
902.75	517
902.924	620.65
903.098	537.34
903.272	589.65
903.446	617.17
903.619	574.74
903.793	636.73
903.967	587.13
904.14	631.7
904.314	635.38
904.488	617.36
904.661	617.75
904.835	607.87
905.009	668.51
905.182	678.39
905.356	627.63
905.529	623.95
905.703	587.91
905.876	588.1
906.05	558.85
906.223	536.57
906.397	494.91
906.57	484.64
906.744	479.41
906.917	493.17
907.09	490.84
907.264	476.7
907.437	447.83
907.61	417.61
907.784	460.23
907.957	491.42
908.13	419.93
908.304	456.16
908.477	413.15
908.65	441.82
908.823	395.33
908.996	509.44
909.17	429.04
909.343	429.04
909.516	471.86
909.689	440.27
909.862	418.96
910.035	413.73
910.208	381.57
910.381	409.86
910.554	506.34
910.727	420.32
910.9	399.59
911.073	413.15
911.246	442.99
911.419	472.82
911.592	444.73
911.765	383.12
911.938	405.79
912.11	409.08
912.283	427.49
912.456	481.16
912.629	426.71
912.802	402.88
912.974	348.83
913.147	345.73
913.32	293.8
913.493	317.44
913.665	342.63
913.838	357.74
914.01	333.91
914.183	366.07
914.356	374.01
914.528	409.66
914.701	451.71
914.873	413.73
915.046	386.99
915.218	365.88
915.391	293.61
915.563	310.66
915.736	360.45
915.908	380.99
916.081	384.28
916.253	367.62
916.425	331.19
916.598	382.73
916.77	361.03
916.942	322.09
917.115	277.72
917.287	385.25
917.459	330.61
917.632	306.2
917.804	271.13
917.976	345.14
918.148	346.89
918.32	349.41
918.493	358.13
918.665	447.06
918.837	360.26
919.009	424.97
919.181	414.31
919.353	381.38
919.525	363.16
919.697	388.16
919.869	396.49
920.041	434.27
920.213	492
920.385	426.32
920.557	389.51
920.729	424.58
920.901	418.96
921.073	377.31
921.244	381.38
921.416	397.46
921.588	387.38
921.76	356.77
921.932	454.22
922.103	396.88
922.275	381.96
922.447	395.13
922.619	313.95
922.79	375.76
922.962	363.36
923.134	396.68
923.305	347.47
923.477	325.38
923.648	322.48
923.82	324.61
923.991	273.65
924.163	306.2
924.335	353.28
924.506	300.78
924.677	368.2
924.849	296.32
925.02	331.58
925.192	334.29
925.363	330.61
925.535	351.34
925.706	289.73
925.877	392.81
926.049	326.35
926.22	351.73
926.391	367.43
926.562	356.58
926.734	311.63
926.905	362.97
927.076	267.45
927.247	301.16
927.419	270.75
927.59	262.03
927.761	279.27
927.932	269
928.103	287.21
928.274	243.81
928.445	221.73
928.616	251.18
928.787	232.77
928.958	259.51
929.129	231.61
929.3	227.54
929.471	187.24
929.642	168.83
929.813	114.97
929.984	215.92
930.155	111.87
930.326	177.55
930.496	143.26
930.667	65.76
930.838	162.05
931.009	98.5
931.18	117.88
931.35	132.22
931.521	138.61
931.692	75.06
931.863	34.18
932.033	99.47
932.204	110.9
932.374	123.3
932.545	45.61
932.716	117.3
932.886	135.51
933.057	23.52
933.227	83.2
933.398	107.8
933.568	33.99
933.739	38.83
933.909	22.56
934.08	71.96
934.25	9.19
934.421	16.36
934.591	67.5
934.761	25.07
934.932	-9.41
935.102	50.46
935.272	25.46
935.443	22.75
935.613	15.58
935.783	58.59
935.953	-10.19
936.123	173.29
936.294	25.66
936.464	1.05
936.634	31.27
936.804	-15.03
936.974	3.18
937.144	50.65
937.314	43.48
937.484	54.14
937.655	5.51
937.825	57.43
937.995	25.07
938.165	71.38
938.334	-3.99
938.504	56.27
938.674	10.35
938.844	50.46
939.014	81.45
939.184	73.7
939.354	114
939.524	110.71
939.694	46.58
939.863	80.29
940.033	132.6
940.203	97.73
940.373	106.84
940.542	101.6
940.712	39.41
940.882	110.52
941.051	110.13
941.221	95.6
941.391	122.72
941.56	53.17
941.73	50.46
941.899	184.14
942.069	62.66
942.238	105.67
942.408	64.6
942.577	106.06
942.747	56.65
942.916	20.04
943.086	32.63
943.255	94.82
943.425	83.39
943.594	53.94
943.763	-3.21
943.933	10.93
944.102	-12.13
944.271	50.46
944.441	58.01
944.61	33.6
944.779	69.44
944.948	157.79
945.117	1.44
945.287	52.78
945.456	-11.35
945.625	17.71
945.794	44.84
945.963	11.12
946.132	70.02
946.301	21.78
946.47	62.27
946.639	-10.77
946.808	10.74
946.977	73.12
947.146	100.64
947.315	44.26
947.484	47.74
947.653	23.72
947.822	23.91
947.991	23.52
948.16	108
948.329	84.17
948.498	64.02
948.666	49.1
948.835	77.58
949.004	-13.48
949.173	11.9
949.341	47.36
949.51	81.65
949.679	89.2
949.847	77.58
950.016	123.11
950.185	114
950.353	28.56
950.522	40.96
950.69	92.3
950.859	40.19
951.028	110.32
951.196	60.72
951.365	28.95
951.533	34.76
951.701	70.8
951.87	94.82
952.038	3.76
952.207	49.49
952.375	86.1
952.543	45.81
952.712	67.89
952.88	26.82
953.048	112.07
953.217	58.79
953.385	59.95
953.553	85.33
953.721	33.41
953.89	60.92
954.058	0.66
954.226	40.38
954.394	70.22
954.562	-3.79
954.73	38.06
954.898	47.16
955.067	62.85
955.235	58.2
955.403	87.65
955.571	138.42
955.739	78.74
955.907	33.02
956.075	25.85
956.243	30.11
956.41	56.46
956.578	-19.29
956.746	17.91
956.914	21.2
957.082	89.79
957.25	50.07
957.418	27.79
957.585	52.97
957.753	75.45
957.921	31.47
958.089	72.15
958.256	44.06
958.424	56.27
958.592	85.52
958.759	22.94
958.927	99.28
959.095	32.44
959.262	57.04
959.43	76.8
959.597	9.38
959.765	55.69
959.932	33.99
960.1	79.32
960.267	52.59
960.435	54.14
960.602	80.29
960.77	48.32
960.937	7.44
961.104	56.27
961.272	23.33
961.439	30.5
961.606	72.35
961.774	94.82
961.941	35.73
962.108	83.39
962.275	62.27
962.443	102.96
962.61	83.39
962.777	148.88
962.944	92.69
963.111	62.08
963.278	60.34
963.446	83.97
963.613	77.39
963.78	82.81
963.947	85.33
964.114	65.57
964.281	130.86
964.448	67.89
964.615	67.31
964.782	69.44
964.949	86.3
965.116	117.69
965.282	89.01
965.449	69.64
965.616	12.29
965.783	98.7
965.95	65.95
966.117	29.34
966.283	77.97
966.45	58.79
966.617	47.55
966.784	111.68
966.95	86.69
967.117	108
967.284	52.59
967.45	36.12
967.617	116.52
967.784	100.25
967.95	114.78
968.117	81.84
968.283	105.67
968.45	176.58
968.616	88.62
968.783	109.74
968.949	79.32
969.116	112.45
969.282	41.93
969.449	97.73
969.615	70.02
969.781	14.03
969.948	64.21
970.114	49.49
970.28	136.87
970.447	72.54
970.613	115.17
970.779	53.94
970.945	87.85
971.112	89.4
971.278	72.54
971.444	95.02
971.61	110.52
971.776	71.96
971.942	94.63
972.108	82.04
972.275	84.75
972.441	95.6
972.607	151.98
972.773	49.1
972.939	82.23
973.105	68.09
973.271	67.31
973.437	67.89
973.602	25.07
973.768	100.83
973.934	74.09
974.1	77.77
974.266	15
974.432	96.57
974.598	87.07
974.763	98.31
974.929	65.57
975.095	137.84
975.261	53.36
975.426	39.41
975.592	64.4
975.758	111.49
975.923	9.38
976.089	53.36
976.255	126.21
976.42	75.64
976.586	119.24
976.751	105.67
976.917	169.8
977.082	106.25
977.248	12.87
977.413	15.39
977.579	42.32
977.744	83.39
977.91	50.26
978.075	45.81
978.24	88.43
978.406	68.67
978.571	73.32
978.736	43.87
978.902	80.68
979.067	33.99
979.232	40.96
979.397	76.42
979.563	144.42
979.728	32.82
979.893	50.07
980.058	43.87
980.223	98.5
980.388	82.23
980.554	71.38
980.719	52.59
980.884	69.25
981.049	95.21
981.214	32.24
981.379	81.45
981.544	36.12
981.709	75.25
981.874	39.99
982.039	86.69
982.204	77.58
982.368	60.53
982.533	55.1
982.698	82.42
982.863	100.64
983.028	66.34
983.193	83.78
983.357	86.1
983.522	72.15
983.687	70.02
983.852	47.94
984.016	54.33
984.181	77.97
984.346	72.74
984.51	99.86
984.675	62.27
984.839	81.65
985.004	90.56
985.168	112.65
985.333	85.72
985.498	76.42
985.662	85.52
985.827	107.03
985.991	63.63
986.155	20.04
986.32	101.8
986.484	89.4
986.649	106.25
986.813	16.16
986.977	85.91
987.142	82.62
987.306	26.62
987.47	35.54
987.634	65.18
987.799	77
987.963	88.43
988.127	80.87
988.291	140.93
988.455	53.94
988.62	43.87
988.784	85.72
988.948	117.3
989.112	42.51
989.276	75.64
989.44	60.14
989.604	46.97
989.768	51.62
989.932	147.52
990.096	11.9
990.26	30.11
990.424	38.83
990.588	44.64
990.752	134.93
990.915	105.48
991.079	44.64
991.243	56.65
991.407	83
991.571	71.96
991.734	89.01
991.898	76.8
992.062	124.85
992.226	71.57
992.389	15
992.553	20.04
992.717	11.12
992.88	68.28
993.044	54.14
993.207	44.84
993.371	77.19
993.535	91.34
993.698	64.99
993.862	82.81
994.025	120.01
994.189	77
994.352	83.59
994.515	73.7
994.679	67.12
994.842	68.67
995.006	90.37
995.169	44.06
995.332	35.92
995.496	98.89
995.659	-3.21
995.822	79.9
995.985	70.8
996.149	99.86
996.312	37.28
996.475	111.87
996.638	58.59
996.801	72.54
996.964	120.59
997.128	46.97
997.291	47.74
997.454	56.85
997.617	-6.89
997.78	76.8
997.943	43.09
998.106	115.75
998.269	29.72
998.432	44.06
998.595	39.99
998.758	16.16
998.92	30.89
999.083	-3.02
999.246	70.6
999.409	-0.11
999.572	-9.8
999.735	23.72
999.897	81.07
1000.06	18.68
1000.223	36.31
1000.386	85.72
1000.548	82.42
1000.711	54.33
1000.874	56.65
1001.036	8.02
1001.199	67.89
1001.361	28.76
1001.524	54.91
1001.687	77
1001.849	6.47
1002.012	64.6
1002.174	42.51
1002.337	65.95
1002.499	28.37
1002.661	92.69
1002.824	13.45
1002.986	37.67
1003.149	61.5
1003.311	51.62
1003.473	81.26
1003.636	7.25
1003.798	68.47
1003.96	46.97
1004.123	54.14
1004.285	61.11
1004.447	43.09
1004.609	36.89
1004.771	114.78
1004.933	-3.41
1005.096	10.93
1005.258	18.1
1005.42	2.21
1005.582	60.92
1005.744	23.72
1005.906	-17.16
1006.068	60.34
1006.23	-6.7
1006.392	1.82
1006.554	8.61
1006.716	83.97
1006.878	37.86
1007.04	-21.81
1007.202	50.46
1007.363	45.61
1007.525	27.4
1007.687	64.79
1007.849	78.35
1008.011	-3.02
1008.172	15
1008.334	26.24
1008.496	30.69
1008.658	-13.87
1008.819	-3.21
1008.981	-0.89
1009.143	-6.12
1009.304	23.14
1009.466	39.22
1009.627	71.57
1009.789	116.91
1009.95	26.04
1010.112	25.07
1010.273	29.92
1010.435	31.47
1010.596	-3.6
1010.758	14.22
1010.919	18.68
1011.081	-8.06
1011.242	9.77
1011.403	21.59
1011.565	8.8
1011.726	54.91
1011.887	-1.28
1012.049	5.51
1012.21	59.56
1012.371	77.58
1012.532	-18.71
1012.693	30.69
1012.855	-0.31
1013.016	38.64
1013.177	65.37
1013.338	41.93
1013.499	87.27
1013.66	67.5
1013.821	90.95
1013.982	39.99
1014.143	45.03
1014.304	7.25
1014.465	43.48
1014.626	52.59
1014.787	11.12
1014.948	94.05
1015.109	-64.05
1015.27	68.47
1015.431	-13.09
1015.592	-0.11
1015.752	57.04
1015.913	38.64
1016.074	54.14
1016.235	11.51
1016.395	11.71
1016.556	19.46
1016.717	4.92
1016.877	78.35
1017.038	-5.54
1017.199	20.42
1017.359	25.07
1017.52	24.11
1017.681	17.91
1017.841	14.42
1018.002	33.02
1018.162	15
1018.323	95.79
1018.483	23.14
1018.644	28.76
1018.804	-39.06
1018.964	-12.9
1019.125	-6.89
1019.285	30.5
1019.446	15
1019.606	-12.71
1019.766	-14.84
1019.926	41.74
1020.087	50.65
1020.247	-32.86
1020.407	52
1020.567	53.75
1020.728	29.53
1020.888	-25.69
1021.048	-19.1
1021.208	-2.05
1021.368	-15.23
1021.528	67.89
1021.688	19.26
1021.848	45.81
1022.008	23.52
1022.168	4.92
1022.328	17.52
1022.488	26.82
1022.648	0.47
1022.808	42.12
1022.968	23.33
1023.128	-7.67
1023.288	8.61
1023.448	21.39
1023.608	31.66
1023.767	40.57
1023.927	-2.83
1024.087	-0.31
1024.247	-41.38
1024.406	11.12
1024.566	-41.38
1024.726	-11.35
1024.885	25.27
1025.045	53.75
1025.205	0.47
1025.364	23.52
1025.524	9.96
1025.683	10.54
1025.843	60.53
1026.003	14.61
1026.162	52.97
1026.321	35.54
1026.481	0.86
1026.64	7.06
1026.8	25.85
1026.959	35.73
1027.119	-4.38
1027.278	-10.19
1027.437	-31.89
1027.597	6.09
1027.756	26.62
1027.915	34.96
1028.074	18.29
1028.234	-9.41
1028.393	18.49
1028.552	42.51
1028.711	-60.17
1028.87	26.62
1029.03	-20.46
1029.189	-6.51
1029.348	-41.96
1029.507	-12.32
1029.666	-13.29
1029.825	-37.31
1029.984	-14.45
1030.143	20.81
1030.302	-19.29
1030.461	-36.73
1030.62	20.42
1030.779	49.29
1030.938	0.66
1031.097	-29.76
1031.255	27.98
1031.414	81.26
1031.573	35.92
1031.732	-26.66
1031.891	4.92
1032.049	51.81
1032.208	38.44
1032.367	-20.84
1032.525	9.19
1032.684	0.66
1032.843	19.46
1033.001	-27.04
1033.16	158.37
1033.319	58.59
1033.477	32.05
1033.636	-1.47
1033.794	-47.77
1033.953	51.81
1034.111	37.67
1034.27	-1.08
1034.428	29.34
1034.587	-3.99
1034.745	7.44
1034.903	19.07
1035.062	32.44
1035.22	-32.47
1035.378	50.07
1035.537	-9.22
1035.695	26.04
1035.853	14.22
1036.011	27.98
1036.17	27.01
1036.328	-48.74
1036.486	8.41
1036.644	15.58
1036.802	-41.38
1036.96	-36.15
1037.119	-7.86
1037.277	-13.68
1037.435	-23.94
1037.593	-40.22
1037.751	-5.93
1037.909	41.54
1038.067	41.54
