Data from pine_FLMT105791__99__17-21-39-076.txt Node

Date: Mon Mar 20 17:21:39 GMT 2023
User: antho
Spectrometer: FLMT10579
Trigger mode: 0
Integration Time (sec): 1.000000E-1
Scans to average: 10
Electric dark correction enabled: true
Nonlinearity correction enabled: false
Boxcar width: 0
XAxis mode: Wavelengths
Number of Pixels in Spectrum: 3648
>>>>>Begin Spectral Data<<<<<
345.248	-168.61
345.464	-168.61
345.681	-168.61
345.898	-163.96
346.114	-130.05
346.331	-35.12
346.548	6.15
346.764	-1.79
346.981	-9.74
347.197	-7.99
347.414	41.8
347.631	-12.06
347.847	59.63
348.064	-3.92
348.28	6.93
348.497	-47.32
348.713	3.44
348.93	4.02
349.146	11
349.363	-31.63
349.579	7.7
349.796	8.09
350.012	-10.9
350.229	24.94
350.445	-4.7
350.661	-6.05
350.878	9.25
351.094	-0.63
351.311	-13.22
351.527	19.71
351.743	-27.37
351.96	39.67
352.176	31.14
352.392	27.85
352.609	29.98
352.825	-4.7
353.041	6.93
353.257	-22.91
353.474	15.45
353.69	12.93
353.906	24.94
354.122	-19.23
354.339	51.68
354.555	-7.6
354.771	-15.35
354.987	41.99
355.203	58.85
355.42	-24.27
355.636	11.38
355.852	-27.37
356.068	-6.44
356.284	-25.62
356.5	84.81
356.716	23.78
356.932	4.02
357.148	39.28
357.364	24.75
357.58	53.23
357.796	37.15
358.012	48.97
358.228	20.1
358.444	-65.73
358.66	53.62
358.876	2.47
359.092	1.11
359.308	-0.44
359.524	16.61
359.74	-0.44
359.956	-16.9
360.172	20.49
360.388	61.18
360.604	-13.42
360.819	53.81
361.035	26.88
361.251	39.67
361.467	-34.54
361.683	40.83
361.898	27.66
362.114	43.93
362.33	29.01
362.546	24.17
362.762	7.51
362.977	18.36
363.193	-16.9
363.409	49.55
363.624	-30.47
363.84	9.06
364.056	-6.44
364.271	22.23
364.487	24.75
364.703	-7.22
364.918	-17.87
365.134	1.89
365.35	6.54
365.565	117.75
365.781	24.56
365.996	21.65
366.212	49.16
366.427	26.3
366.643	-10.12
366.858	-19.62
367.074	-17.68
367.289	64.66
367.505	104.58
367.72	-26.98
367.936	3.83
368.151	47.42
368.367	42.58
368.582	45.29
368.798	-15.35
369.013	42.19
369.228	35.79
369.444	18.94
369.659	64.86
369.874	52.26
370.09	76.09
370.305	-69.8
370.52	1.7
370.736	56.14
370.951	30.95
371.166	76.09
371.381	72.03
371.597	54.78
371.812	-13.03
372.027	-22.91
372.242	21.85
372.458	110
372.673	27.85
372.888	0.92
373.103	14.87
373.318	113.1
373.533	39.86
373.749	12.74
373.964	-37.05
374.179	53.62
374.394	-23.88
374.609	69.12
374.824	-15.74
375.039	54.39
375.254	-4.89
375.469	70.67
375.684	38.7
375.899	43.74
376.114	-5.86
376.329	35.41
376.544	43.35
376.759	30.95
376.974	-4.7
377.189	-1.79
377.404	5.76
377.619	40.25
377.834	-13.42
378.049	-26.4
378.264	-9.93
378.478	16.42
378.693	7.51
378.908	46.64
379.123	24.56
379.338	46.45
379.553	30.56
379.767	11.96
379.982	54.2
380.197	40.25
380.412	23.01
380.626	28.04
380.841	89.66
381.056	27.66
381.271	76.29
381.485	-27.56
381.7	18.75
381.915	11.77
382.129	10.8
382.344	47.61
382.559	4.6
382.773	46.06
382.988	-38.22
383.202	50.33
383.417	2.47
383.632	124.72
383.846	51.1
384.061	37.34
384.275	31.14
384.49	21.85
384.704	56.91
384.919	35.6
385.133	49.74
385.348	59.43
385.562	-34.73
385.777	26.3
385.991	49.36
386.206	20.3
386.42	13.13
386.634	65.24
386.849	61.18
387.063	29.59
387.277	2.47
387.492	-3.54
387.706	-7.6
387.92	8.86
388.135	37.73
388.349	25.33
388.563	42.19
388.778	42.19
388.992	51.29
389.206	37.73
389.42	100.12
389.635	16.81
389.849	47.23
390.063	79.19
390.277	36.57
390.491	97.79
390.706	70.86
390.92	56.53
391.134	26.69
391.348	58.08
391.562	9.45
391.776	26.49
391.99	-4.31
392.205	42.19
392.419	-10.9
392.633	25.33
392.847	83.46
393.061	4.99
393.275	111.55
393.489	16.03
393.703	32.5
393.917	100.12
394.131	10.61
394.345	50.33
394.559	57.11
394.773	36.38
394.986	37.15
395.2	30.37
395.414	42.77
395.628	-4.12
395.842	23.01
396.056	14.68
396.27	-24.65
396.484	28.82
396.697	51.49
396.911	80.36
397.125	65.24
397.339	92.37
397.553	41.22
397.766	73.58
397.98	67.96
398.194	76.29
398.408	28.63
398.621	54.78
398.835	77.45
399.049	42.96
399.262	89.46
399.476	85.01
399.69	77.84
399.903	125.11
400.117	33.08
400.331	57.11
400.544	24.36
400.758	170.64
400.971	89.08
401.185	73.58
401.398	40.25
401.612	111.94
401.826	71.64
402.039	85.01
402.253	17.39
402.466	85.01
402.68	29.4
402.893	63.31
403.106	61.95
403.32	47.61
403.533	80.94
403.747	81.71
403.96	71.83
404.174	73.38
404.387	26.69
404.6	72.03
404.814	105.35
405.027	36.57
405.24	56.14
405.454	49.16
405.667	105.16
405.88	26.69
406.094	85.01
406.307	105.35
406.52	70.86
406.733	12.55
406.947	15.06
407.16	123.37
407.373	89.66
407.586	2.47
407.799	22.62
408.012	106.9
408.226	63.31
408.439	116.59
408.652	29.98
408.865	43.93
409.078	86.36
409.291	94.69
409.504	47.81
409.717	72.22
409.93	106.51
410.143	94.11
410.357	27.08
410.57	1.11
410.783	29.59
410.996	88.88
411.209	54.98
411.421	105.35
411.634	81.71
411.847	34.63
412.06	92.18
412.273	48.97
412.486	69.7
412.699	153.59
412.912	67.38
413.125	93.14
413.338	95.86
413.55	95.28
413.763	86.36
413.976	122.4
414.189	58.85
414.402	98.18
414.615	123.76
414.827	42.38
415.04	117.94
415.253	101.48
415.466	106.32
415.678	144.68
415.891	100.31
416.104	112.13
416.316	86.56
416.529	67.57
416.742	106.51
416.954	118.72
417.167	62.14
417.38	92.37
417.592	128.02
417.805	57.88
418.017	35.21
418.23	113.1
418.442	72.99
418.655	93.14
418.868	112.71
419.08	153.21
419.293	121.04
419.505	113.29
419.718	141.39
419.93	105.54
420.142	90.24
420.355	132.86
420.567	121.62
420.78	133.64
420.992	89.85
421.205	181.49
421.417	72.99
421.629	85.98
421.842	105.35
422.054	78.81
422.266	130.92
422.479	138.67
422.691	80.74
422.903	147.39
423.115	100.7
423.328	101.28
423.54	125.11
423.752	107.68
423.964	73.58
424.177	95.08
424.389	100.89
424.601	218.89
424.813	135.38
425.025	147.97
425.238	151.66
425.45	99.93
425.662	106.13
425.874	395.78
426.086	116.78
426.298	125.89
426.51	123.37
426.722	130.15
426.934	138.29
427.146	182.85
427.358	95.28
427.57	149.33
427.782	138.67
427.994	111.94
428.206	145.84
428.418	94.5
428.63	170.64
428.842	210.94
429.054	129.18
429.266	150.3
429.478	120.85
429.69	133.44
429.902	106.32
430.114	161.34
430.325	177.42
430.537	163.47
430.749	123.37
430.961	67.76
431.173	130.92
431.384	151.66
431.596	87.91
431.808	147.78
432.02	189.05
432.231	190.41
432.443	202.22
432.655	171.22
432.867	141.39
433.078	164.64
433.29	243.88
433.502	212.3
433.713	219.47
433.925	176.46
434.136	224.12
434.348	131.7
434.56	123.37
434.771	269.07
434.983	147.39
435.194	170.64
435.406	201.45
435.617	204.55
435.829	269.26
436.04	231.29
436.252	240.97
436.463	262.09
436.675	248.14
436.886	221.79
437.098	215.98
437.309	282.82
437.521	218.3
437.732	241.36
437.943	226.05
438.155	220.05
438.366	167.54
438.578	267.32
438.789	206.68
439	268.29
439.211	219.27
439.423	233.22
439.634	274.1
439.845	255.31
440.057	268.68
440.268	285.34
440.479	227.6
440.69	263.06
440.902	267.32
441.113	254.73
441.324	249.69
441.535	262.48
441.746	333.97
441.957	247.75
442.168	253.76
442.38	311.3
442.591	295.03
442.802	254.34
443.013	240.78
443.224	290.38
443.435	266.35
443.646	280.89
443.857	292.9
444.068	249.69
444.279	288.63
444.49	335.52
444.701	284.95
444.912	365.36
445.123	328.74
445.334	313.63
445.545	315.95
445.756	301.03
445.967	262.48
446.178	333
446.388	341.92
446.599	330.87
446.81	314.02
447.021	286.12
447.232	348.7
447.443	360.52
447.653	278.95
447.864	345.6
448.075	353.73
448.286	343.85
448.496	366.33
448.707	385.12
448.918	327.77
449.129	419.22
449.339	325.06
449.55	359.55
449.761	334.17
449.971	342.11
450.182	335.33
450.393	369.04
450.603	355.67
450.814	393.26
451.024	390.74
451.235	402.36
451.446	449.45
451.656	418.83
451.867	353.73
452.077	389.38
452.288	424.06
452.498	413.02
452.709	360.9
452.919	384.54
453.13	367.49
453.34	392.48
453.55	322.54
453.761	397.33
453.971	397.52
454.182	413.02
454.392	406.63
454.602	437.43
454.813	405.08
455.023	446.35
455.233	331.26
455.444	392.29
455.654	318.47
455.864	390.74
456.075	366.52
456.285	388.03
456.495	400.81
456.705	386.28
456.916	467.08
457.126	493.23
457.336	423.68
457.546	363.42
457.756	391.9
457.967	469.01
458.177	399.07
458.387	404.5
458.597	385.51
458.807	430.26
459.017	394.42
459.227	399.07
459.437	424.45
459.647	432.2
459.857	414.96
460.068	402.17
460.278	471.92
460.488	443.05
460.698	473.28
460.908	423.29
461.117	402.17
461.327	397.52
461.537	473.08
461.747	444.21
461.957	451.58
462.167	583.32
462.377	497.69
462.587	450.61
462.797	499.43
463.007	457.78
463.216	509.31
463.426	527.53
463.636	487.42
463.846	422.32
464.056	437.43
464.265	512.8
464.475	446.73
464.685	482.19
464.895	507.76
465.104	460.49
465.314	521.71
465.524	470.95
465.733	459.71
465.943	539.54
466.153	544.19
466.362	538.76
466.572	476.38
466.782	496.14
466.991	512.99
467.201	547.29
467.41	448.48
467.62	497.49
467.829	501.95
468.039	540.31
468.249	502.34
468.458	505.44
468.668	536.83
468.877	541.48
469.086	572.28
469.296	553.1
469.505	528.11
469.715	599.99
469.924	559.49
470.134	560.27
470.343	579.64
470.552	518.42
470.762	552.52
470.971	523.46
471.18	540.89
471.39	501.37
471.599	527.53
471.808	591.27
472.018	529.66
472.227	622.27
472.436	608.32
472.645	618.39
472.855	572.86
473.064	619.17
473.273	614.91
473.482	619.94
473.691	624.4
473.901	642.42
474.11	591.07
474.319	709.26
474.528	598.82
474.737	669.93
474.946	653.85
475.155	668.38
475.364	650.17
475.573	629.63
475.783	681.17
475.992	667.99
476.201	702.29
476.41	656.37
476.619	622.27
476.828	646.87
477.037	624.98
477.245	688.92
477.454	715.07
477.663	664.12
477.872	678.07
478.081	747.23
478.29	656.17
478.499	786.57
478.708	687.95
478.917	773.78
479.125	731.35
479.334	718.17
479.543	712.94
479.752	740.26
479.961	735.8
480.169	790.63
480.378	723.4
480.587	881.5
480.796	806.13
481.004	761.38
481.213	817.56
481.422	806.72
481.63	801.68
481.839	859.03
482.048	855.54
482.256	853.21
482.465	840.04
482.674	864.45
482.882	877.43
483.091	886.54
483.299	828.03
483.508	872.4
483.716	844.5
483.925	871.43
484.134	846.24
484.342	833.84
484.551	894.87
484.759	876.66
484.967	869.68
485.176	900.88
485.384	881.11
485.593	886.93
485.801	890.8
486.01	862.32
486.218	809.43
486.426	745.49
486.635	784.63
486.843	783.47
487.051	790.83
487.26	800.9
487.468	844.11
487.676	889.64
487.885	855.93
488.093	910.95
488.301	908.04
488.509	905.91
488.717	926.64
488.926	954.16
489.134	927.42
489.342	964.23
489.55	913.86
489.758	949.51
489.967	955.71
490.175	1076.99
490.383	984.19
490.591	1030.11
490.799	964.43
491.007	1047.35
491.215	995.23
491.423	994.65
491.631	991.55
491.839	1001.62
492.047	1021.97
492.255	943.5
492.463	924.51
492.671	934.78
492.879	1011.89
493.087	1028.75
493.295	1062.27
493.503	1034.95
493.711	1078.15
493.919	1088.81
494.127	1085.71
494.334	1094.62
494.542	1033.01
494.75	1078.74
494.958	1072.73
495.166	1161.27
495.374	1133.18
495.581	1117.49
495.789	1132.6
495.997	1178.32
496.205	1069.82
496.412	1085.9
496.62	1110.7
496.828	1130.27
497.035	1105.09
497.243	1148.1
497.451	1125.43
497.658	1160.5
497.866	1131.44
498.074	1220.75
498.281	1108.38
498.489	1193.24
498.696	1142.29
498.904	1115.35
499.112	1109.74
499.319	1225.98
499.527	1160.69
499.734	1241.48
499.942	1101.02
500.149	1120.39
500.357	1159.72
500.564	1133.18
500.771	1167.08
500.979	1122.33
501.186	1121.17
501.394	1166.7
501.601	1119.62
501.808	1156.04
502.016	1154.88
502.223	1143.06
502.43	1185.68
502.638	1147.32
502.845	1149.07
503.052	1246.71
503.26	1163.79
503.467	1246.91
503.674	1221.92
503.881	1204.28
504.089	1269.77
504.296	1236.83
504.503	1121.17
504.71	1209.32
504.917	1165.15
505.125	1224.05
505.332	1236.64
505.539	1246.33
505.746	1332.16
505.953	1332.16
506.16	1297.67
506.367	1347.66
506.574	1370.71
506.781	1331.58
506.988	1269.96
507.195	1290.89
507.402	1285.08
507.609	1335.45
507.816	1279.65
508.023	1273.06
508.23	1279.85
508.437	1247.49
508.644	1320.53
508.851	1352.5
509.058	1361.03
509.265	1334.48
509.472	1361.61
509.679	1440.85
509.885	1351.34
510.092	1376.91
510.299	1355.79
510.506	1375.75
510.713	1374.2
510.92	1349.98
511.126	1374.98
511.333	1433.87
511.54	1427.29
511.746	1476.31
511.953	1451.89
512.16	1510.4
512.367	1439.11
512.573	1433.29
512.78	1406.36
512.987	1383.31
513.193	1433.87
513.4	1358.7
513.606	1418.18
513.813	1422.06
514.02	1423.8
514.226	1503.43
514.433	1480.37
514.639	1394.74
514.846	1455.57
515.052	1413.92
515.259	1443.37
515.465	1454.61
515.672	1435.23
515.878	1545.28
516.085	1519.9
516.291	1533.85
516.497	1469.52
516.704	1485.02
516.91	1406.17
517.117	1346.88
517.323	1325.38
517.529	1342.62
517.736	1333.9
517.942	1340.29
518.148	1386.41
518.354	1448.6
518.561	1458.09
518.767	1453.06
518.973	1459.84
519.179	1474.37
519.386	1433.1
519.592	1476.5
519.798	1472.62
520.004	1583.84
520.21	1551.09
520.417	1656.1
520.623	1622.97
520.829	1662.88
521.035	1659.78
521.241	1632.47
521.447	1678.38
521.653	1740
521.859	1651.84
522.065	1715
522.271	1782.23
522.477	1740.38
522.683	1777
522.889	1730.11
523.095	1728.18
523.301	1725.85
523.507	1662.3
523.713	1716.16
523.919	1726.43
524.125	1804.9
524.331	1766.73
524.537	1869.22
524.742	1823.69
524.948	1830.67
525.154	1833.19
525.36	1940.33
525.566	1825.63
525.772	1901.58
525.977	1775.84
526.183	1851.79
526.389	1858.76
526.595	1777.19
526.8	1770.03
527.006	1743.48
527.212	1682.84
527.417	1641.96
527.623	1667.15
527.829	1759.18
528.034	1832.03
528.24	1818.08
528.446	1794.24
528.651	1881.24
528.857	1880.27
529.062	1962.42
529.268	1925.99
529.473	1952.54
529.679	1919.6
529.884	2000.2
530.09	1956.41
530.295	1987.22
530.501	2004.27
530.706	2003.88
530.912	1941.88
531.117	2005.04
531.323	2000.2
531.528	1986.83
531.733	2008.53
531.939	1988.38
532.144	2019.57
532.35	1998.26
532.555	2036.04
532.76	1973.65
532.966	2003.88
533.171	1978.5
533.376	1916.31
533.581	1933.94
533.787	1969
533.992	2001.55
534.197	2024.8
534.402	1996.52
534.607	2004.85
534.813	2110.05
535.018	1978.69
535.223	2050.38
535.428	2057.55
535.633	2134.66
535.838	2130.2
536.043	2104.43
536.249	2219.52
536.454	2136.79
536.659	2177.48
536.864	2096.49
537.069	2088.16
537.274	2091.84
537.479	2127.1
537.684	2120.13
537.889	2031.97
538.094	2210.41
538.299	2116.64
538.504	2152.87
538.708	2117.8
538.913	2181.16
539.118	2140.66
539.323	2154.81
539.528	2087.77
539.733	2099.59
539.938	2106.18
540.142	2136.79
540.347	2077.7
540.552	2081.57
540.757	2044.76
540.962	2084.67
541.166	2045.34
541.371	2025.19
541.576	2091.45
541.781	2018.02
541.985	2141.63
542.19	2139.5
542.395	2175.54
542.599	2218.74
542.804	2164.11
543.008	2212.16
543.213	2148.61
543.418	2117.8
543.622	2178.25
543.827	2133.3
544.031	2228.04
544.236	2213.32
544.44	2218.16
544.645	2255.36
544.849	2194.53
545.054	2284.43
545.258	2296.44
545.463	2266.41
545.667	2166.24
545.872	2215.45
546.076	2250.71
546.281	2256.53
546.485	2207.7
546.689	2245.87
546.894	2245.29
547.098	2231.53
547.302	2186.78
547.507	2220.1
547.711	2238.12
547.915	2293.34
548.119	2208.09
548.324	2186.39
548.528	2252.65
548.732	2205.38
548.936	2287.72
549.141	2285.2
549.345	2248.78
549.549	2271.06
549.753	2277.26
549.957	2375.1
550.161	2345.07
550.366	2317.94
550.57	2274.74
550.774	2273.38
550.978	2308.64
551.182	2283.65
551.386	2246.64
551.59	2240.64
551.794	2284.43
551.998	2273.38
552.202	2266.41
552.406	2240.44
552.61	2297.79
552.814	2289.08
553.018	2360.18
553.222	2309.81
553.426	2249.55
553.63	2392.34
553.833	2281.91
554.037	2265.63
554.241	2305.74
554.445	2291.98
554.649	2275.32
554.853	2302.83
555.056	2310.58
555.26	2357.47
555.464	2273.38
555.668	2301.28
555.871	2304.38
556.075	2366.57
556.279	2267.96
556.483	2239.28
556.686	2253.43
556.89	2261.18
557.094	2283.07
557.297	2201.11
557.501	2291.21
557.704	2181.16
557.908	2275.32
558.112	2228.43
558.315	2283.07
558.519	2242.58
558.722	2220.49
558.926	2235.79
559.129	2118.38
559.333	2122.84
559.536	2125.75
559.74	2128.07
559.943	2101.33
560.147	2136.6
560.35	2131.56
560.553	2167.79
560.757	2093.58
560.96	2247.81
561.164	2150.93
561.367	2284.43
561.57	2173.41
561.774	2154.42
561.977	2151.13
562.18	2109.47
562.384	2229.79
562.587	2152.87
562.79	2184.65
562.993	2139.5
563.197	2204.6
563.4	2212.54
563.603	2191.81
563.806	2259.82
564.009	2147.83
564.212	2151.32
564.416	2099.59
564.619	2141.63
564.822	2064.52
565.025	2179.8
565.228	2138.53
565.431	2139.7
565.634	2026.74
565.837	2049.99
566.04	2034.3
566.243	2040.11
566.446	1952.92
566.649	2063.36
566.852	2001.17
567.055	2052.7
567.258	2078.08
567.461	2112.18
567.664	2133.69
567.867	1993.61
568.07	2037.78
568.273	2035.27
568.475	2109.86
568.678	2052.32
568.881	1955.05
569.084	2050.57
569.287	1919.6
569.489	1950.21
569.692	2002.52
569.895	2041.66
570.098	1927.35
570.3	1925.22
570.503	1883.95
570.706	1924.44
570.909	1906.23
571.111	1837.45
571.314	1845.39
571.516	1853.53
571.719	1917.66
571.922	1881.43
572.124	1913.01
572.327	1888.21
572.529	1849.85
572.732	1867.29
572.935	1889.76
573.137	1927.54
573.34	1866.51
573.542	1928.51
573.745	1921.34
573.947	1928.71
574.15	1903.71
574.352	1871.94
574.554	1924.64
574.757	1858.57
574.959	1824.28
575.162	1818.27
575.364	1804.13
575.566	1939.75
575.769	1805.29
575.971	1865.35
576.173	1733.21
576.376	1792.11
576.578	1836.87
576.78	1882.01
576.982	1782.23
577.185	1763.83
577.387	1787.46
577.589	1779.91
577.791	1816.14
577.993	1816.91
578.196	1765.76
578.398	1812.84
578.6	1816.53
578.802	1716.36
579.004	1710.93
579.206	1737.67
579.408	1789.4
579.61	1763.25
579.812	1805.48
580.014	1789.79
580.216	1734.96
580.418	1771.58
580.62	1717.33
580.822	1710.35
581.024	1798.12
581.226	1801.8
581.428	1738.83
581.63	1865.16
581.832	1770.8
582.034	1872.32
582.236	1759.18
582.438	1828.93
582.64	1847.33
582.841	1860.12
583.043	1879.3
583.245	1793.47
583.447	1847.14
583.649	1824.86
583.85	1823.69
584.052	1871.94
584.254	1774.29
584.456	1853.34
584.657	1784.75
584.859	1825.63
585.061	1792.5
585.262	1764.02
585.464	1715.97
585.666	1811.1
585.867	1706.28
586.069	1824.66
586.27	1788.63
586.472	1731.08
586.674	1753.56
586.875	1728.95
587.077	1748.13
587.278	1768.28
587.48	1732.05
587.681	1833.19
587.883	1773.71
588.084	1681.1
588.285	1691.75
588.487	1729.34
588.688	1694.27
588.89	1616.38
589.091	1564.27
589.292	1569.11
589.494	1525.13
589.695	1479.21
589.896	1449.57
590.098	1464.68
590.299	1502.66
590.5	1474.17
590.702	1523.58
590.903	1547.99
591.104	1646.61
591.305	1607.67
591.507	1658.43
591.708	1635.18
591.909	1573.18
592.11	1668.31
592.311	1644.09
592.512	1607.08
592.714	1606.89
592.915	1575.7
593.116	1578.22
593.317	1594.3
593.518	1591.78
593.719	1624.72
593.92	1638.47
594.121	1671.41
594.322	1612.12
594.523	1597.59
594.724	1575.7
594.925	1598.17
595.126	1623.94
595.327	1609.99
595.528	1597.2
595.729	1575.12
595.929	1576.67
596.13	1592.75
596.331	1629.37
596.532	1617.55
596.733	1647.19
596.934	1647.38
597.135	1640.02
597.335	1630.33
597.536	1545.09
597.737	1588.87
597.938	1570.27
598.138	1620.84
598.339	1622.78
598.54	1622.2
598.74	1585.39
598.941	1581.12
599.142	1639.83
599.342	1611.93
599.543	1586.74
599.744	1607.08
599.944	1623.75
600.145	1599.14
600.345	1592.94
600.546	1654.75
600.746	1638.28
600.947	1667.53
601.147	1614.83
601.348	1649.71
601.548	1578.22
601.749	1593.91
601.949	1515.05
602.15	1550.7
602.35	1591.39
602.551	1619.48
602.751	1548.19
602.951	1589.84
603.152	1528.42
603.352	1590.04
603.552	1579.57
603.753	1646.61
603.953	1629.95
604.153	1597.4
604.354	1594.3
604.554	1600.69
604.754	1623.36
604.954	1545.28
605.155	1614.25
605.355	1562.91
605.555	1631.3
605.755	1649.32
605.955	1586.55
606.155	1594.1
606.356	1600.5
606.556	1631.3
606.756	1620.26
606.956	1538.11
607.156	1639.63
607.356	1530.55
607.556	1572.79
607.756	1577.83
607.956	1636.15
608.156	1564.65
608.356	1566.98
608.556	1590.23
608.756	1551.87
608.956	1570.66
609.156	1554.97
609.356	1528.04
609.556	1523.97
609.755	1573.95
609.955	1546.83
610.155	1536.95
610.355	1540.24
610.555	1515.05
610.755	1523.97
610.954	1447.05
611.154	1497.81
611.354	1542.95
611.554	1504.4
611.753	1520.29
611.953	1476.5
612.153	1541.6
612.352	1520.29
612.552	1437.94
612.752	1423.22
612.951	1474.95
613.151	1516.22
613.351	1460.61
613.55	1458.87
613.75	1465.26
613.949	1434.65
614.149	1480.18
614.348	1453.25
614.548	1435.81
614.747	1403.46
614.947	1444.14
615.146	1397.84
615.346	1479.99
615.545	1451.7
615.745	1430.19
615.944	1460.03
616.144	1417.79
616.343	1487.74
616.542	1429.42
616.742	1398.81
616.941	1394.74
617.14	1383.89
617.34	1408.88
617.539	1410.04
617.738	1371.1
617.938	1471.46
618.137	1392.41
618.336	1387.96
618.535	1418.57
618.734	1460.81
618.934	1396.48
619.133	1387.57
619.332	1409.85
619.531	1399.58
619.73	1450.54
619.929	1439.3
620.128	1459.06
620.328	1446.66
620.527	1369.94
620.726	1403.26
620.925	1435.62
621.124	1393.38
621.323	1424.38
621.522	1350.95
621.721	1374.78
621.92	1345.14
622.119	1399.19
622.318	1368.78
622.517	1363.74
622.715	1374.2
622.914	1328.86
623.113	1363.74
623.312	1290.7
623.511	1399.97
623.71	1373.81
623.909	1362.38
624.107	1413.34
624.306	1305.03
624.505	1296.31
624.704	1329.45
624.902	1305.42
625.101	1389.89
625.3	1338.55
625.499	1303.68
625.697	1324.99
625.896	1313.36
626.095	1313.95
626.293	1278.49
626.492	1290.11
626.69	1337.39
626.889	1310.46
627.088	1371.49
627.286	1294.96
627.485	1317.43
627.683	1260.66
627.882	1307.16
628.08	1184.91
628.279	1256.6
628.477	1293.6
628.676	1195.18
628.874	1283.91
629.073	1257.56
629.271	1213.97
629.469	1274.61
629.668	1213.78
629.866	1241.29
630.065	1249.43
630.263	1255.82
630.461	1221.92
630.66	1244.97
630.858	1269
631.056	1302.51
631.254	1264.54
631.453	1227.15
631.651	1280.04
631.849	1230.25
632.047	1253.88
632.245	1210.29
632.444	1239.93
632.642	1281.98
632.84	1250.4
633.038	1255.24
633.236	1230.83
633.434	1202.35
633.632	1232.38
633.83	1248.46
634.028	1258.92
634.227	1280.43
634.425	1316.27
634.623	1269.58
634.821	1269.77
635.019	1282.75
635.216	1255.05
635.414	1270.93
635.612	1252.53
635.81	1224.43
636.008	1352.69
636.206	1225.4
636.404	1312.4
636.602	1191.5
636.8	1236.45
636.997	1288.56
637.195	1291.66
637.393	1299.03
637.591	1338.36
637.789	1284.11
637.986	1251.95
638.184	1294.38
638.382	1306.2
638.58	1310.07
638.777	1356.18
638.975	1282.75
639.173	1280.43
639.37	1288.95
639.568	1321.11
639.765	1280.62
639.963	1229.08
640.161	1294.96
640.358	1292.63
640.556	1218.62
640.753	1224.43
640.951	1205.83
641.148	1257.56
641.346	1210.68
641.543	1206.42
641.741	1225.4
641.938	1180.45
642.136	1220.75
642.333	1184.72
642.531	1237.42
642.728	1267.83
642.925	1223.27
643.123	1204.09
643.32	1255.63
643.517	1210.29
643.715	1207.19
643.912	1183.75
644.109	1201.77
644.306	1194.79
644.504	1187.43
644.701	1205.45
644.898	1225.98
645.095	1181.81
645.293	1188.4
645.49	1210.29
645.687	1184.72
645.884	1217.65
646.081	1155.46
646.278	1145
646.475	1171.73
646.672	1125.24
646.87	1169.8
647.067	1137.05
647.264	1175.03
647.461	1100.44
647.658	1066.92
647.855	1128.14
648.052	1085.71
648.249	1024.68
648.446	1108.57
648.642	1055.49
648.839	1084.74
649.036	1097.92
649.233	1047.54
649.43	1036.31
649.627	1021.39
649.824	1061.88
650.021	1035.92
650.217	1051.42
650.414	1050.26
650.611	1084.74
650.808	1125.82
651.004	1051.22
651.201	1117.87
651.398	1135.12
651.595	1103.73
651.791	1048.51
651.988	1115.94
652.185	1023.32
652.381	1098.5
652.578	1046.19
652.775	1063.04
652.971	1079.51
653.168	1083.77
653.364	1095.59
653.561	1045.61
653.757	1053.94
653.954	1085.13
654.15	1049.29
654.347	1109.74
654.543	1049.48
654.74	1014.41
654.936	1002.79
655.133	1066.72
655.329	1028.56
655.525	1031.66
655.722	1055.1
655.918	984.77
656.115	1016.35
656.311	914.24
656.507	894.87
656.704	857.86
656.9	874.14
657.096	918.51
657.292	901.26
657.489	977.99
657.685	998.52
657.881	932.46
658.077	975.66
658.273	1000.85
658.47	1028.94
658.666	976.44
658.862	1055.1
659.058	993.87
659.254	1067.89
659.45	974.69
659.646	1037.08
659.842	987.09
660.038	1071.76
660.234	1004.72
660.43	1015.38
660.626	1094.43
660.822	1063.24
661.018	1051.61
661.214	1014.99
661.41	982.25
661.606	1064.01
661.802	1036.11
661.998	1011.89
662.194	986.32
662.39	997.75
662.586	1009.37
662.781	1031.46
662.977	1053.55
663.173	1030.3
663.369	1010.73
663.564	1017.51
663.76	1003.37
663.956	994.84
664.152	1040.57
664.347	947.96
664.543	985.54
664.739	948.54
664.934	960.36
665.13	931.1
665.326	1012.28
665.521	980.31
665.717	931.88
665.912	945.05
666.108	908.04
666.304	956.09
666.499	940.98
666.695	893.51
666.89	950.28
667.086	971.21
667.281	965.59
667.477	1022.16
667.672	968.11
667.867	970.63
668.063	960.74
668.258	912.11
668.454	965.39
668.649	1030.69
668.844	957.45
669.04	950.67
669.235	926.84
669.43	909.98
669.626	894.1
669.821	908.82
670.016	906.3
670.211	933.62
670.407	878.98
670.602	907.27
670.797	886.35
670.992	966.17
671.187	868.33
671.382	938.08
671.578	895.06
671.773	921.61
671.968	853.99
672.163	936.53
672.358	926.26
672.553	874.33
672.748	889.06
672.943	951.44
673.138	888.09
673.333	940.79
673.528	866
673.723	876.27
673.918	896.61
674.113	854.96
674.308	965.78
674.503	900.49
674.698	898.55
674.892	897.58
675.087	911.34
675.282	921.41
675.477	871.62
675.672	954.54
675.867	859.22
676.061	871.62
676.256	819.89
676.451	871.81
676.646	910.56
676.84	842.56
677.035	860.77
677.23	849.73
677.424	908.82
677.619	924.71
677.814	929.74
678.008	926.26
678.203	836.55
678.397	830.93
678.592	880.73
678.787	911.34
678.981	893.32
679.176	889.25
679.37	854.76
679.565	832.68
679.759	883.05
679.954	915.02
680.148	911.14
680.342	946.99
680.537	908.43
680.731	828.61
680.926	897.97
681.12	884.8
681.314	866.2
681.509	865.23
681.703	890.03
681.897	901.26
682.092	871.23
682.286	852.44
682.48	960.74
682.674	924.13
682.869	871.62
683.063	838.88
683.257	941.18
683.451	850.11
683.645	892.74
683.839	874.33
684.034	888.48
684.228	882.08
684.422	806.13
684.616	826.86
684.81	902.81
685.004	897
685.198	858.45
685.392	890.8
685.586	827.64
685.78	885.18
685.974	920.06
686.168	876.66
686.362	953.77
686.556	834.23
686.75	782.5
686.944	768.93
687.138	776.68
687.331	640.29
687.525	684.65
687.719	594.95
687.913	696.28
688.107	695.31
688.301	684.65
688.494	715.85
688.688	674.19
688.882	662.18
689.076	650.36
689.269	703.84
689.463	795.67
689.657	678.45
689.85	718.75
690.044	724.18
690.238	731.73
690.431	756.92
690.625	763.7
690.818	777.07
691.012	797.03
691.205	822.21
691.399	782.11
691.593	808.27
691.786	848.76
691.98	884.21
692.173	915.02
692.366	870.46
692.56	921.22
692.753	942.14
692.947	854.57
693.14	935.36
693.333	922.58
693.527	896.42
693.72	919.28
693.914	896.81
694.107	885.18
694.3	949.89
694.493	902.23
694.687	956.09
694.88	902.43
695.073	994.65
695.266	977.41
695.46	934.59
695.653	1025.65
695.846	1024.49
696.039	947.18
696.232	969.66
696.425	1042.12
696.618	1044.25
696.812	1082.42
697.005	1116.71
697.198	1153.14
697.391	1118.45
697.584	1154.49
697.777	1199.63
697.97	1193.63
698.163	1179.29
698.356	1142.67
698.549	1221.33
698.742	1242.26
698.935	1149.26
699.127	1211.07
699.32	1166.12
699.513	1176
699.706	1236.06
699.899	1258.15
700.092	1203.7
700.285	1250.98
700.477	1168.05
700.67	1227.73
700.863	1238.97
701.056	1361.22
701.248	1337.78
701.441	1306.97
701.634	1274.42
701.826	1420.31
702.019	1306.2
702.212	1387.18
702.404	1312.01
702.597	1337.97
702.79	1357.15
702.982	1378.08
703.175	1433.29
703.367	1440.07
703.56	1426.12
703.752	1522.8
703.945	1486.96
704.137	1478.05
704.33	1520.67
704.522	1517.19
704.715	1591.97
704.907	1571.63
705.1	1598.37
705.292	1596.62
705.484	1602.63
705.677	1635.37
705.869	1628.98
706.061	1666.95
706.254	1673.54
706.446	1671.6
706.638	1660.17
706.831	1713.06
707.023	1684.2
707.215	1793.47
707.407	1789.79
707.599	1755.3
707.792	1823.11
707.984	1821.56
708.176	1848.69
708.368	1835.13
708.56	1856.63
708.752	1828.93
708.944	1840.16
709.136	1868.64
709.329	1822.53
709.521	1963.77
709.713	1890.54
709.905	1937.23
710.097	1991.48
710.289	1914.95
710.481	1977.53
710.672	1955.64
710.864	1995.35
711.056	2050.57
711.248	2027.13
711.44	2040.5
711.632	2035.46
711.824	2073.24
712.016	2100.75
712.207	2136.6
712.399	2114.12
712.591	2178.45
712.783	2125.94
712.975	2145.12
713.166	2123.81
713.358	2138.92
713.55	2213.9
713.741	2241.61
713.933	2243.74
714.125	2203.25
714.316	2159.26
714.508	2300.51
714.7	2302.83
714.891	2240.64
715.083	2291.01
715.274	2226.3
715.466	2317.75
715.657	2320.85
715.849	2198.6
716.04	2265.63
716.232	2216.23
716.423	2274.93
716.615	2197.63
716.806	2122.84
716.998	2111.99
717.189	1976.56
717.381	1946.72
717.572	1914.37
717.763	1947.69
717.955	1916.11
718.146	1880.27
718.337	1811.29
718.528	1789.21
718.72	1719.46
718.911	1789.01
719.102	1702.6
719.293	1781.84
719.485	1792.69
719.676	1751.81
719.867	1688.65
720.058	1717.13
720.249	1710.16
720.44	1768.86
720.632	1816.91
720.823	1858.96
721.014	1963.77
721.205	1996.13
721.396	2102.69
721.587	2145.31
721.778	2188.13
721.969	2265.83
722.16	2285.78
722.351	2320.27
722.542	2424.89
722.733	2427.8
722.924	2351.66
723.115	2377.04
723.305	2376.65
723.496	2355.53
723.687	2270.09
723.878	2252.84
724.069	2251.49
724.26	2288.88
724.45	2187.16
724.641	2222.23
724.832	2192.2
725.023	2226.49
725.213	2224.17
725.404	2171.66
725.595	2158.68
725.785	2171.28
725.976	2222.81
726.167	2238.51
726.357	2233.66
726.548	2331.89
726.739	2243.74
726.929	2342.16
727.12	2350.88
727.31	2366.19
727.501	2259.43
727.691	2293.92
727.882	2315.23
728.072	2368.51
728.263	2421.99
728.453	2413.85
728.644	2415.79
728.834	2398.74
729.024	2359.21
729.215	2355.72
729.405	2393.89
729.596	2465.19
729.786	2467.52
729.976	2493.67
730.167	2486.89
730.357	2424.5
730.547	2468.29
730.737	2502.2
730.928	2548.7
731.118	2587.64
731.308	2551.99
731.498	2521.38
731.688	2618.83
731.879	2619.41
732.069	2706.79
732.259	2731.59
732.449	2702.14
732.639	2798.24
732.829	2807.35
733.019	2838.35
733.209	2923.6
733.399	2928.63
733.589	3009.81
733.779	3000.9
733.969	3011.36
734.159	3098.55
734.349	3132.07
734.539	3146.79
734.729	3145.83
734.919	3183.02
735.109	3208.99
735.299	3135.17
735.488	3205.11
735.678	3176.44
735.868	3165.59
736.058	3182.83
736.248	3197.75
736.437	3081.31
736.627	3095.06
736.817	3227.01
737.007	3193.1
737.196	3260.91
737.386	3170.62
737.576	3184.77
737.765	3268.66
737.955	3222.94
738.144	3328.72
738.334	3255.68
738.524	3229.14
738.713	3287.26
738.903	3264.98
739.092	3312.06
739.282	3294.24
739.471	3325.62
739.661	3311.87
739.85	3332.4
740.04	3321.36
740.229	3345.77
740.419	3418.82
740.608	3448.07
740.797	3381.81
740.987	3438.38
741.176	3427.92
741.365	3367.28
741.555	3355.07
741.744	3405.06
741.933	3387.04
742.123	3439.74
742.312	3434.9
742.501	3438
742.69	3480.43
742.88	3411.84
743.069	3560.25
743.258	3453.3
743.447	3550.95
743.636	3524.41
743.825	3434.51
744.014	3529.44
744.204	3525.38
744.393	3477.91
744.582	3540.49
744.771	3568.78
744.96	3512.98
745.149	3551.53
745.338	3511.81
745.527	3542.23
745.716	3506.39
745.905	3456.79
746.094	3564.13
746.283	3580.59
746.471	3557.54
746.66	3592.61
746.849	3611.01
747.038	3601.91
747.227	3553.08
747.416	3601.71
747.604	3537.78
747.793	3523.63
747.982	3550.76
748.171	3596.87
748.359	3589.12
748.548	3572.65
748.737	3586.02
748.926	3497.48
749.114	3457.76
749.303	3524.79
749.491	3514.53
749.68	3481.78
749.869	3575.56
750.057	3526.54
750.246	3494.96
750.434	3463.96
750.623	3503.29
750.811	3522.47
751	3481.01
751.188	3464.35
751.377	3485.08
751.565	3428.12
751.754	3424.43
751.942	3459.11
752.131	3505.42
752.319	3422.5
752.507	3418.82
752.696	3506.2
752.884	3502.13
753.072	3435.67
753.261	3458.15
753.449	3416.49
753.637	3439.35
753.825	3532.35
754.014	3445.16
754.202	3445.94
754.39	3522.66
754.578	3469.96
754.766	3419.2
754.955	3381.23
755.143	3524.99
755.331	3407
755.519	3414.36
755.707	3450.01
755.895	3382
756.083	3410.68
756.271	3377.55
756.459	3368.05
756.647	3419.98
756.835	3388.2
757.023	3327.95
757.211	3362.05
757.399	3344.42
757.587	3303.34
757.775	3320.2
757.963	3305.47
758.151	3328.14
758.339	3266.53
758.526	3267.69
758.714	3299.08
758.902	3179.34
759.09	3161.13
759.278	2891.82
759.465	2687.03
759.653	2330.54
759.841	2121.29
760.028	1797.34
760.216	1528.81
760.404	1477.47
760.591	1225.21
760.779	981.09
760.967	882.08
761.154	713.14
761.342	772.81
761.529	756.34
761.717	838.3
761.905	813.3
762.092	892.93
762.28	864.45
762.467	834.03
762.655	772.81
762.842	792.38
763.029	829.96
763.217	824.15
763.404	829.58
763.592	851.47
763.779	825.9
763.966	879.37
764.154	884.99
764.341	974.89
764.528	965.01
764.716	1011.12
764.903	1085.52
765.09	1176.58
765.277	1226.57
765.465	1379.63
765.652	1408.3
765.839	1499.17
766.026	1624.91
766.213	1652.42
766.4	1780.29
766.588	1948.47
766.775	1939.75
766.962	2043.6
767.149	2094.55
767.336	2277.45
767.523	2224.17
767.71	2372.77
767.897	2485.53
768.084	2533.2
768.271	2601.4
768.458	2663.39
768.645	2739.15
768.832	2654.87
769.019	2742.44
769.206	2743.41
769.392	2822.46
769.579	2910.03
769.766	2855.4
769.953	2865.67
770.14	2921.66
770.327	2908.1
770.513	2936.97
770.7	3020.08
770.887	2954.4
771.073	2945.1
771.26	2975.91
771.447	2906.74
771.634	2890.27
771.82	3009.62
772.007	2924.37
772.193	2968.35
772.38	3029.38
772.567	2945.3
772.753	2979.59
772.94	2980.95
773.126	2990.25
773.313	3026.67
773.499	2971.07
773.686	3004.39
773.872	2928.63
774.059	3038.88
774.245	2925.92
774.432	2927.47
774.618	2873.22
774.804	2941.81
774.991	2880
775.177	2918.17
775.363	2909.26
775.55	2941.03
775.736	2874.97
775.922	2902.67
776.109	2895.12
776.295	2929.99
776.481	2941.81
776.667	2961.57
776.853	2926.7
777.04	2884.07
777.226	2897.64
777.412	2920.3
777.598	2842.42
777.784	2861.02
777.97	2833.7
778.156	2859.66
778.342	2834.67
778.528	2830.99
778.715	2814.91
778.901	2787.59
779.087	2852.88
779.272	2803.86
779.458	2766.66
779.644	2804.06
779.83	2756.01
780.016	2884.46
780.202	2812.97
780.388	2764.72
780.574	2742.25
780.76	2737.79
780.946	2811.81
781.131	2734.89
781.317	2772.47
781.503	2729.27
781.689	2731.59
781.874	2874.19
782.06	2747.48
782.246	2760.66
782.432	2735.66
782.617	2753.1
782.803	2789.33
782.989	2654.48
783.174	2691.68
783.36	2615.35
783.545	2689.55
783.731	2711.64
783.916	2561.1
784.102	2642.66
784.288	2635.69
784.473	2628.91
784.659	2620.58
784.844	2693.43
785.029	2583.96
785.215	2616.31
785.4	2576.6
785.586	2679.09
785.771	2583.96
785.956	2629.68
786.142	2577.56
786.327	2569.43
786.512	2551.8
786.698	2544.05
786.883	2502
787.068	2527
787.254	2544.43
787.439	2526.03
787.624	2494.83
787.809	2527
787.994	2491.54
788.18	2547.34
788.365	2424.5
788.55	2472.17
788.735	2437.29
788.92	2447.37
789.105	2414.43
789.29	2486.5
789.475	2418.11
789.66	2390.6
789.845	2414.62
790.03	2358.63
790.215	2427.22
790.4	2439.42
790.585	2450.47
790.77	2381.3
790.955	2317.94
791.14	2382.65
791.325	2460.54
791.51	2303.99
791.695	2396.99
791.879	2381.88
792.064	2334.61
792.249	2427.41
792.434	2387.11
792.618	2379.94
792.803	2416.37
792.988	2381.49
793.173	2395.05
793.357	2433.42
793.542	2360.76
793.727	2406.1
793.911	2450.27
794.096	2401.06
794.281	2365.41
794.465	2471.78
794.65	2376.84
794.834	2416.95
795.019	2446.4
795.203	2445.82
795.388	2421.6
795.572	2482.24
795.757	2436.52
795.941	2430.32
796.126	2428.38
796.31	2338.67
796.494	2405.71
796.679	2362.89
796.863	2341
797.048	2429.35
797.232	2407.07
797.416	2401.64
797.601	2363.09
797.785	2446.79
797.969	2447.56
798.153	2377.62
798.338	2453.95
798.522	2471.97
798.706	2458.02
798.89	2447.75
799.074	2557.22
799.258	2523.7
799.443	2478.75
799.627	2448.72
799.811	2486.5
799.995	2430.51
800.179	2383.04
800.363	2410.36
800.547	2434
800.731	2451.24
800.915	2363.67
801.099	2380.33
801.283	2431.09
801.467	2451.05
801.651	2403.97
801.835	2467.32
802.019	2438.65
802.202	2394.47
802.386	2388.66
802.57	2382.27
802.754	2398.35
802.938	2383.04
803.121	2405.13
803.305	2430.51
803.489	2389.24
803.673	2424.12
803.856	2468.29
804.04	2407.26
804.224	2432.84
804.407	2393.31
804.591	2362.12
804.775	2369.87
804.958	2400.29
805.142	2523.51
805.326	2452.02
805.509	2420.82
805.693	2435.74
805.876	2480.88
806.06	2448.53
806.243	2478.56
806.427	2463.64
806.61	2504.13
806.794	2429.54
806.977	2453.37
807.16	2449.69
807.344	2481.47
807.527	2432.64
807.71	2440.39
807.894	2423.92
808.077	2465.77
808.26	2419.27
808.444	2400.67
808.627	2475.07
808.81	2378.2
808.993	2344.68
809.177	2310.39
809.36	2348.94
809.543	2342.74
809.726	2281.71
809.909	2292.56
810.092	2301.86
810.276	2272.41
810.459	2297.21
810.642	2289.08
810.825	2214.29
811.008	2244.51
811.191	2170.5
811.374	2222.62
811.557	2215.84
811.74	2229.59
811.923	2109.28
812.106	2134.08
812.289	2095.72
812.472	2094.75
812.654	2146.67
812.837	2088.55
813.02	2047.67
813.203	2045.92
813.386	1893.06
813.569	1879.3
813.751	1830.48
813.934	1909.72
814.117	1853.53
814.3	1794.44
814.482	1776.61
814.665	1768.09
814.848	1695.63
815.03	1667.73
815.213	1687.49
815.396	1624.91
815.578	1648.74
815.761	1609.02
815.943	1671.02
816.126	1580.54
816.309	1565.24
816.491	1496.65
816.674	1450.15
816.856	1479.99
817.039	1472.24
817.221	1578.22
817.403	1528.42
817.586	1513.7
817.768	1510.4
817.951	1457.71
818.133	1438.52
818.315	1515.44
818.498	1481.54
818.68	1566.4
818.862	1550.32
819.045	1556.52
819.227	1562.33
819.409	1508.66
819.591	1573.57
819.774	1518.74
819.956	1475.53
820.138	1573.18
820.32	1594.88
820.502	1611.93
820.684	1681.87
820.866	1704.93
821.048	1755.69
821.231	1743.48
821.413	1687.1
821.595	1721.2
821.777	1746.39
821.959	1703.18
822.141	1811.49
822.323	1609.6
822.505	1604.37
822.686	1518.93
822.868	1458.48
823.05	1355.21
823.232	1337
823.414	1295.93
823.596	1351.14
823.778	1355.99
823.96	1399.39
824.141	1398.42
824.323	1390.48
824.505	1480.57
824.687	1554
824.868	1591.78
825.05	1671.99
825.232	1709.96
825.413	1762.66
825.595	1663.08
825.777	1628.01
825.958	1673.35
826.14	1691.75
826.321	1674.7
826.503	1652.23
826.685	1668.89
826.866	1716.94
827.048	1682.84
827.229	1624.52
827.411	1604.76
827.592	1535.4
827.773	1562.33
827.955	1514.28
828.136	1501.88
828.318	1487.93
828.499	1530.36
828.68	1497.81
828.862	1535.79
829.043	1522.42
829.224	1547.02
829.406	1453.06
829.587	1497.62
829.768	1504.79
829.949	1528.42
830.131	1501.11
830.312	1572.6
830.493	1513.31
830.674	1515.44
830.855	1482.12
831.036	1517.77
831.218	1567.17
831.399	1564.07
831.58	1526.87
831.761	1511.76
831.942	1517.19
832.123	1509.05
832.304	1449.96
832.485	1470.69
832.666	1494.71
832.847	1494.32
833.028	1508.66
833.209	1529.39
833.389	1495.49
833.57	1425.93
833.751	1486.38
833.932	1535.79
834.113	1478.24
834.294	1486.77
834.475	1528.23
834.655	1554.58
834.836	1550.51
835.017	1538.89
835.198	1470.69
835.378	1526.1
835.559	1585
835.74	1539.85
835.92	1514.67
836.101	1503.04
836.281	1551.67
836.462	1549.93
836.643	1555.35
836.823	1543.92
837.004	1598.75
837.184	1618.71
837.365	1592.94
837.545	1596.23
837.726	1553.8
837.906	1608.44
838.087	1573.18
838.267	1570.08
838.448	1509.82
838.628	1615.03
838.808	1538.5
838.989	1612.12
839.169	1500.14
839.349	1580.93
839.53	1611.54
839.71	1591.97
839.89	1528.81
840.07	1632.27
840.251	1546.64
840.431	1601.47
840.611	1569.3
840.791	1530.94
840.971	1577.05
841.151	1550.51
841.332	1537.34
841.512	1614.83
841.692	1503.24
841.872	1565.04
842.052	1559.42
842.232	1580.93
842.412	1509.05
842.592	1545.28
842.772	1562.14
842.952	1540.63
843.132	1538.89
843.312	1491.22
843.492	1529.2
843.672	1553.8
843.851	1478.82
844.031	1533.46
844.211	1488.32
844.391	1500.91
844.571	1532.3
844.751	1535.79
844.93	1530.17
845.11	1495.1
845.29	1518.35
845.47	1542.37
845.649	1511.95
845.829	1536.17
846.009	1487.54
846.188	1523.39
846.368	1514.47
846.547	1512.15
846.727	1545.86
846.907	1479.21
847.086	1514.09
847.266	1568.92
847.445	1531.91
847.625	1489.29
847.804	1422.83
847.984	1499.94
848.163	1468.56
848.343	1470.49
848.522	1495.29
848.701	1492.77
848.881	1418.76
849.06	1489.09
849.239	1464.68
849.419	1464.87
849.598	1386.99
849.777	1395.71
849.957	1417.6
850.136	1356.76
850.315	1332.93
850.494	1363.35
850.674	1357.73
850.853	1439.88
851.032	1383.69
851.211	1409.08
851.39	1399.19
851.569	1326.35
851.748	1351.92
851.927	1401.71
852.107	1352.5
852.286	1326.73
852.465	1313.95
852.644	1391.64
852.823	1383.5
853.002	1389.89
853.181	1367.23
853.359	1368.19
853.538	1288.95
853.717	1399.19
853.896	1270.55
854.075	1229.08
854.254	1199.63
854.433	1145.77
854.611	1202.15
854.79	1136.47
854.969	1209.13
855.148	1213
855.327	1209.71
855.505	1212.03
855.684	1209.9
855.863	1217.27
856.041	1197.89
856.22	1260.86
856.399	1206.8
856.577	1323.63
856.756	1286.63
856.934	1415.08
857.113	1395.71
857.291	1299.41
857.47	1282.75
857.648	1321.5
857.827	1349.21
858.005	1355.99
858.184	1284.11
858.362	1397.64
858.541	1286.63
858.719	1313.56
858.898	1255.24
859.076	1259.7
859.254	1335.64
859.433	1269.96
859.611	1271.71
859.789	1227.73
859.967	1360.25
860.146	1348.63
860.324	1241.1
860.502	1269.19
860.68	1240.13
860.859	1229.67
861.037	1251.95
861.215	1251.95
861.393	1285.46
861.571	1268.03
861.749	1218.04
861.927	1283.72
862.105	1246.33
862.283	1213.2
862.461	1223.66
862.639	1214.36
862.817	1226.95
862.995	1229.28
863.173	1179.48
863.351	1218.62
863.529	1258.92
863.707	1307.16
863.885	1241.1
864.063	1146.35
864.241	1198.28
864.418	1255.05
864.596	1209.71
864.774	1170.38
864.952	1236.64
865.129	1211.45
865.307	1184.52
865.485	1139.77
865.663	1208.74
865.84	1111.48
866.018	1166.31
866.196	1023.91
866.373	1042.31
866.551	1048.32
866.728	978.96
866.906	1053.36
867.084	1015.96
867.261	1085.52
867.439	1110.7
867.616	1149.07
867.794	1107.41
867.971	1125.82
868.149	1110.51
868.326	1162.43
868.503	1116.52
868.681	1131.44
868.858	1104.89
869.035	1105.28
869.213	1183.55
869.39	1090.75
869.567	1188.4
869.745	1083.58
869.922	1132.02
870.099	1109.74
870.276	1136.28
870.454	1162.63
870.631	1145.39
870.808	1142.48
870.985	1171.93
871.162	1182.2
871.339	1136.86
871.517	1093.65
871.694	1038.24
871.871	1079.9
872.048	1084.74
872.225	1096.56
872.402	1124.46
872.579	1086.87
872.756	1103.34
872.933	1048.9
873.11	1065.76
873.287	1066.53
873.463	1063.82
873.64	1054.71
873.817	1095.2
873.994	1083.77
874.171	1033.01
874.348	1073.7
874.524	1009.76
874.701	1034.17
874.878	986.51
875.055	1040.76
875.231	1064.21
875.408	1079.51
875.585	993.68
875.762	1027.59
875.938	1026.04
876.115	1010.34
876.291	1038.44
876.468	1008.02
876.645	958.03
876.821	1015.96
876.998	1008.79
877.174	1033.79
877.351	974.31
877.527	943.69
877.704	1029.14
877.88	1010.34
878.057	987.29
878.233	1048.32
878.409	964.43
878.586	1003.17
878.762	957.06
878.938	974.5
879.115	880.53
879.291	986.9
879.467	918.12
879.644	940.21
879.82	980.7
879.996	950.86
880.172	879.95
880.349	963.07
880.525	975.28
880.701	910.95
880.877	909.01
881.053	951.83
881.229	938.27
881.405	992.32
881.581	906.3
881.757	929.94
881.933	971.59
882.109	979.34
882.285	968.11
882.461	894.29
882.637	908.82
882.813	893.9
882.989	945.24
883.165	948.93
883.341	924.32
883.517	948.54
883.693	961.71
883.869	957.26
884.044	924.71
884.22	973.14
884.396	978.38
884.572	939.24
884.747	947.57
884.923	970.43
885.099	935.17
885.275	979.93
885.45	944.47
885.626	932.84
885.801	894.48
885.977	931.68
886.153	860
886.328	944.08
886.504	905.53
886.679	938.66
886.855	902.62
887.03	965.39
887.206	973.14
887.381	918.51
887.557	946.21
887.732	964.81
887.908	939.04
888.083	985.16
888.258	923.16
888.434	894.1
888.609	917.15
888.784	988.64
888.96	939.82
889.135	904.94
889.31	905.91
889.485	946.21
889.661	934.01
889.836	944.66
890.011	929.16
890.186	914.83
890.361	889.06
890.537	951.64
890.712	932.65
890.887	951.83
891.062	948.54
891.237	983.03
891.412	888.67
891.587	924.32
891.762	965.2
891.937	966.17
892.112	909.98
892.287	893.9
892.462	877.05
892.637	855.15
892.812	826.86
892.987	851.86
893.161	843.72
893.336	851.86
893.511	847.79
893.686	849.73
893.861	841.98
894.035	838.68
894.21	822.02
894.385	779.98
894.56	812.91
894.734	764.09
894.909	785.4
895.084	759.05
895.258	760.6
895.433	747.62
895.608	743.55
895.782	717.59
895.957	719.92
896.131	742.78
896.306	663.34
896.48	656.95
896.655	653.27
896.829	604.44
897.004	598.44
897.178	636.02
897.353	601.92
897.527	641.84
897.701	620.14
897.876	596.89
898.05	676.32
898.224	640.87
898.399	702.29
898.573	629.44
898.747	535.86
898.921	576.54
899.096	486.26
899.27	504.28
899.444	495.17
899.618	548.64
899.792	566.66
899.967	545.16
900.141	568.41
900.315	509.31
900.489	547.09
900.663	567.63
900.837	534.31
901.011	500.4
901.185	598.05
901.359	539.34
901.533	557.56
901.707	573.44
901.881	541.67
902.055	487.61
902.229	505.24
902.403	593.98
902.576	532.37
902.75	556.2
902.924	656.17
903.098	632.54
903.272	633.89
903.446	674.97
903.619	636.22
903.793	665.28
903.967	644.35
904.14	701.32
904.314	703.25
904.488	661.4
904.661	716.62
904.835	668.57
905.009	699.96
905.182	735.42
905.356	710.42
905.529	715.07
905.703	636.99
905.876	646.49
906.05	621.11
906.223	619.17
906.397	559.69
906.57	568.21
906.744	548.84
906.917	540.7
907.09	555.81
907.264	526.75
907.437	513.19
907.61	490.52
907.784	517.64
907.957	522.29
908.13	467.66
908.304	554.46
908.477	484.9
908.65	501.95
908.823	451.19
908.996	551.55
909.17	450.22
909.343	481.61
909.516	483.93
909.689	487.81
909.862	474.83
910.035	477.73
910.208	451.38
910.381	454.29
910.554	548.45
910.727	431.62
910.9	450.22
911.073	459.52
911.246	524.23
911.419	531.01
911.592	500.01
911.765	457.39
911.938	441.31
912.11	478.51
912.283	481.03
912.456	528.3
912.629	478.31
912.802	474.24
912.974	400.43
913.147	356.64
913.32	317.12
913.493	385.12
913.665	413.6
913.838	390.55
914.01	406.05
914.183	418.83
914.356	394.61
914.528	440.15
914.701	494.59
914.873	452.35
915.046	416.12
915.218	359.74
915.391	326.03
915.563	352.38
915.736	401.98
915.908	439.18
916.081	390.93
916.253	371.75
916.425	401.59
916.598	432.2
916.77	419.22
916.942	353.73
917.115	345.02
917.287	422.51
917.459	392.48
917.632	331.07
917.804	274.69
917.976	354.32
918.148	371.37
918.32	397.13
918.493	426.39
918.665	464.56
918.837	396.36
919.009	472.69
919.181	439.76
919.353	443.44
919.525	431.23
919.697	411.86
919.869	438.79
920.041	494.78
920.213	543.99
920.385	454.29
920.557	433.75
920.729	426
920.901	461.07
921.073	420.19
921.244	403.72
921.416	449.45
921.588	437.63
921.76	414.38
921.932	499.82
922.103	434.72
922.275	450.61
922.447	429.88
922.619	374.66
922.79	401.59
922.962	394.81
923.134	442.28
923.305	373.88
923.477	351.8
923.648	338.62
923.82	370.4
923.991	325.83
924.163	326.61
924.335	368.27
924.506	334.17
924.677	406.63
924.849	349.08
925.02	370.98
925.192	392.87
925.363	366.13
925.535	374.08
925.706	364.2
925.877	404.69
926.049	338.82
926.22	374.46
926.391	377.37
926.562	375.63
926.734	331.84
926.905	364.78
927.076	296.19
927.247	325.45
927.419	289.22
927.59	302.58
927.761	322.35
927.932	281.27
928.103	300.84
928.274	274.49
928.445	242.72
928.616	250.85
928.787	264.61
928.958	299.29
929.129	253.37
929.3	244.46
929.471	217.72
929.642	150.49
929.813	136.35
929.984	241.55
930.155	150.49
930.326	211.91
930.496	166.57
930.667	103.61
930.838	148.36
931.009	103.61
931.18	144.1
931.35	147.39
931.521	147.2
931.692	103.99
931.863	57.49
932.033	140.42
932.204	102.44
932.374	138.67
932.545	80.36
932.716	116.2
932.886	122.59
933.057	59.63
933.227	59.04
933.398	131.51
933.568	37.54
933.739	9.45
933.909	43.74
934.08	75.51
934.25	14.1
934.421	51.88
934.591	66.21
934.761	54.78
934.932	-7.99
935.102	47.81
935.272	17.97
935.443	32.31
935.613	35.21
935.783	66.02
935.953	10.03
936.123	161.73
936.294	6.15
936.464	22.62
936.634	50.13
936.804	4.8
936.974	-17.68
937.144	66.99
937.314	37.15
937.484	35.99
937.655	36.18
937.825	79
937.995	37.93
938.165	79
938.334	29.01
938.504	92.95
938.674	37.34
938.844	61.76
939.014	80.16
939.184	89.85
939.354	136.16
939.524	128.21
939.694	65.63
939.863	61.37
940.033	144.68
940.203	115.62
940.373	70.86
940.542	121.82
940.712	83.65
940.882	143.91
941.051	122.59
941.221	118.72
941.391	132.67
941.56	67.38
941.73	65.83
941.899	178.78
942.069	70.86
942.238	94.11
942.408	69.12
942.577	115.62
942.747	75.9
942.916	44.32
943.086	53.81
943.255	85.59
943.425	117.94
943.594	57.3
943.763	3.25
943.933	30.56
944.102	-14.58
944.271	51.1
944.441	84.23
944.61	42.38
944.779	67.76
944.948	136.16
945.117	8.48
945.287	62.53
945.456	19.13
945.625	13.13
945.794	64.28
945.963	22.43
946.132	87.91
946.301	38.89
946.47	84.04
946.639	-47.71
946.808	42.77
946.977	56.91
947.146	119.69
947.315	34.83
947.484	81.13
947.653	64.47
947.822	38.89
947.991	24.56
948.16	136.93
948.329	110.77
948.498	62.34
948.666	71.25
948.835	81.13
949.004	18.75
949.173	17.39
949.341	60.4
949.51	75.71
949.679	90.04
949.847	84.04
950.016	154.76
950.185	100.31
950.353	25.91
950.522	53.43
950.69	105.74
950.859	37.54
951.028	71.06
951.196	48.19
951.365	58.27
951.533	72.22
951.701	62.34
951.87	104.58
952.038	35.41
952.207	47.03
952.375	119.88
952.543	57.88
952.712	42.38
952.88	49.16
953.048	115.23
953.217	67.76
953.385	45.48
953.553	109.61
953.721	34.44
953.89	64.47
954.058	27.46
954.226	34.24
954.394	77.84
954.562	-19.42
954.73	47.03
954.898	34.63
955.067	115.62
955.235	30.18
955.403	89.66
955.571	130.73
955.739	76.29
955.907	40.06
956.075	61.37
956.243	15.06
956.41	82.49
956.578	9.45
956.746	-3.54
956.914	41.61
957.082	79.58
957.25	65.24
957.418	32.89
957.585	62.34
957.753	94.11
957.921	4.8
958.089	45.48
958.256	80.55
958.424	77.45
958.592	60.21
958.759	45.48
958.927	41.61
959.095	59.24
959.262	54.59
959.43	75.13
959.597	25.53
959.765	66.6
959.932	47.61
960.1	97.79
960.267	46.45
960.435	56.91
960.602	92.76
960.77	70.48
960.937	25.72
961.104	54.78
961.272	8.67
961.439	26.11
961.606	104.77
961.774	69.89
961.941	55.36
962.108	63.69
962.275	70.86
962.443	86.17
962.61	75.32
962.777	147.78
962.944	99.73
963.111	86.17
963.278	83.65
963.446	92.56
963.613	68.54
963.78	84.62
963.947	67.38
964.114	86.75
964.281	153.79
964.448	88.3
964.615	57.88
964.782	80.94
964.949	126.47
965.116	88.69
965.282	117.75
965.449	73.58
965.616	46.26
965.783	112.32
965.95	112.13
966.117	48.19
966.283	73.58
966.45	71.83
966.617	87.14
966.784	106.51
966.95	87.33
967.117	145.07
967.284	41.61
967.45	62.53
967.617	128.6
967.784	91.4
967.95	139.64
968.117	78.23
968.283	120.27
968.45	192.15
968.616	120.66
968.783	131.89
968.949	75.13
969.116	120.66
969.282	73.77
969.449	110.39
969.615	99.73
969.781	47.23
969.948	85.98
970.114	54.59
970.28	145.46
970.447	91.01
970.613	154.17
970.779	70.67
970.945	95.47
971.112	83.26
971.278	83.46
971.444	98.57
971.61	110
971.776	89.85
971.942	103.22
972.108	107.48
972.275	67.18
972.441	109.61
972.607	150.69
972.773	60.4
972.939	109.23
973.105	97.99
973.271	82.1
973.437	88.11
973.602	44.13
973.768	133.44
973.934	88.49
974.1	79.78
974.266	31.73
974.432	87.14
974.598	63.31
974.763	90.63
974.929	97.6
975.095	117.36
975.261	49.55
975.426	54.78
975.592	72.03
975.758	162.12
975.923	47.03
976.089	62.53
976.255	104.38
976.42	89.66
976.586	81.71
976.751	93.73
976.917	188.27
977.082	103.99
977.248	56.53
977.413	33.47
977.579	44.9
977.744	96.83
977.91	53.23
978.075	52.84
978.24	75.71
978.406	78.23
978.571	66.6
978.736	21.46
978.902	85.59
979.067	26.11
979.232	9.64
979.397	95.86
979.563	142.94
979.728	28.43
979.893	75.51
980.058	49.55
980.223	117.56
980.388	63.31
980.554	67.18
980.719	55.17
980.884	91.4
981.049	121.04
981.214	54.39
981.379	90.24
981.544	36.38
981.709	58.27
981.874	55.17
982.039	64.47
982.204	105.93
982.368	81.33
982.533	22.81
982.698	103.22
982.863	111.36
983.028	34.24
983.193	67.57
983.357	86.17
983.522	82.29
983.687	55.75
983.852	68.15
984.016	67.57
984.181	71.44
984.346	72.03
984.51	98.96
984.675	66.99
984.839	58.46
985.004	91.79
985.168	98.96
985.333	98.76
985.498	50.52
985.662	75.71
985.827	85.2
985.991	72.22
986.155	57.11
986.32	100.7
986.484	132.67
986.649	95.47
986.813	15.45
986.977	87.14
987.142	83.26
987.306	29.59
987.47	27.66
987.634	65.44
987.799	55.56
987.963	94.89
988.127	106.51
988.291	125.69
988.455	111.16
988.62	45.87
988.784	89.27
988.948	95.66
989.112	54.78
989.276	80.55
989.44	63.11
989.604	50.71
989.768	53.04
989.932	135.57
990.096	52.26
990.26	60.4
990.424	46.06
990.588	68.73
990.752	133.06
990.915	83.46
991.079	48.97
991.243	40.25
991.407	88.69
991.571	48.19
991.734	83.65
991.898	90.63
992.062	168.51
992.226	58.66
992.389	67.76
992.553	29.79
992.717	45.29
992.88	77.26
993.044	85.98
993.207	67.96
993.371	104.19
993.535	82.1
993.698	68.93
993.862	88.3
994.025	104.58
994.189	85.39
994.352	63.69
994.515	67.96
994.679	107.68
994.842	53.62
995.006	73.77
995.169	27.85
995.332	46.84
995.496	65.05
995.659	0.92
995.822	35.02
995.985	61.18
996.149	103.41
996.312	51.68
996.475	128.41
996.638	75.9
996.801	108.26
996.964	121.04
997.128	39.09
997.291	66.79
997.454	73.58
997.617	32.5
997.78	84.23
997.943	16.81
998.106	86.56
998.269	29.59
998.432	54.2
998.595	51.1
998.758	7.31
998.92	25.72
999.083	3.25
999.246	52.07
999.409	-0.63
999.572	-18.65
999.735	44.71
999.897	63.89
1000.06	18.36
1000.223	37.15
1000.386	83.26
1000.548	75.9
1000.711	53.43
1000.874	65.44
1001.036	0.15
1001.199	75.9
1001.361	21.65
1001.524	50.91
1001.687	86.94
1001.849	25.91
1002.012	67.57
1002.174	50.52
1002.337	84.62
1002.499	54.78
1002.661	89.27
1002.824	-0.24
1002.986	32.89
1003.149	62.53
1003.311	-14.77
1003.473	96.63
1003.636	33.86
1003.798	71.83
1003.96	61.56
1004.123	46.26
1004.285	31.73
1004.447	30.56
1004.609	36.57
1004.771	78.61
1004.933	19.33
1005.096	-10.12
1005.258	-13.8
1005.42	34.44
1005.582	72.8
1005.744	27.08
1005.906	-11.09
1006.068	33.28
1006.23	11.96
1006.392	-3.15
1006.554	3.63
1006.716	65.05
1006.878	68.34
1007.04	-13.03
1007.202	6.15
1007.363	50.52
1007.525	57.49
1007.687	64.28
1007.849	88.88
1008.011	-10.9
1008.172	14.29
1008.334	22.81
1008.496	70.09
1008.658	-9.54
1008.819	-9.54
1008.981	-1.6
1009.143	20.88
1009.304	28.04
1009.466	60.59
1009.627	80.94
1009.789	124.72
1009.95	33.86
1010.112	13.32
1010.273	22.43
1010.435	0.53
1010.596	6.93
1010.758	16.23
1010.919	10.41
1011.081	-8.19
1011.242	22.43
1011.403	43.35
1011.565	1.31
1011.726	41.8
1011.887	-8.38
1012.049	18.55
1012.21	56.72
1012.371	100.51
1012.532	-40.74
1012.693	47.03
1012.855	-9.74
1013.016	23.78
1013.177	63.5
1013.338	20.3
1013.499	86.36
1013.66	50.13
1013.821	37.54
1013.982	63.5
1014.143	50.52
1014.304	14.29
1014.465	45.09
1014.626	57.69
1014.787	6.93
1014.948	120.07
1015.109	-30.08
1015.27	61.18
1015.431	26.88
1015.592	10.22
1015.752	71.06
1015.913	34.05
1016.074	35.99
1016.235	25.53
1016.395	27.27
1016.556	28.43
1016.717	24.17
1016.877	61.37
1017.038	21.07
1017.199	35.41
1017.359	17.2
1017.52	23.98
1017.681	18.94
1017.841	4.21
1018.002	13.32
1018.162	20.3
1018.323	68.15
1018.483	21.46
1018.644	13.71
1018.804	25.14
1018.964	-23.49
1019.125	23.2
1019.285	40.44
1019.446	7.51
1019.606	-15.74
1019.766	-41.32
1019.926	28.82
1020.087	25.72
1020.247	-34.34
1020.407	46.84
1020.567	40.25
1020.728	40.64
1020.888	-46.94
1021.048	2.08
1021.208	9.45
1021.368	-1.02
1021.528	48.58
1021.688	49.36
1021.848	32.89
1022.008	13.9
1022.168	29.4
1022.328	25.53
1022.488	23.2
1022.648	10.61
1022.808	5.18
1022.968	27.85
1023.128	14.87
1023.288	4.6
1023.448	-5.47
1023.608	30.18
1023.767	36.76
1023.927	-7.99
1024.087	-19.62
1024.247	-4.89
1024.406	17.78
1024.566	-39.77
1024.726	-32.79
1024.885	0.15
1025.045	27.46
1025.205	3.05
1025.364	9.45
1025.524	22.62
1025.683	23.78
1025.843	21.65
1026.003	39.09
1026.162	52.07
1026.321	62.92
1026.481	-10.9
1026.64	-13.22
1026.8	9.06
1026.959	30.95
1027.119	18.36
1027.278	6.15
1027.437	11.77
1027.597	37.73
1027.756	26.49
1027.915	35.41
1028.074	8.09
1028.234	-16.32
1028.393	15.65
1028.552	4.8
1028.711	-52.55
1028.87	45.68
1029.03	-32.02
1029.189	-3.34
1029.348	-42.48
1029.507	5.57
1029.666	6.15
1029.825	-24.27
1029.984	-23.69
1030.143	26.49
1030.302	-19.81
1030.461	-68.63
1030.62	17.97
1030.779	40.44
1030.938	-16.13
1031.097	-61.66
1031.255	29.21
1031.414	77.45
1031.573	62.14
1031.732	-52.17
1031.891	-9.74
1032.049	86.56
1032.208	27.27
1032.367	-15.35
1032.525	-24.85
1032.684	-8.19
1032.843	9.45
1033.001	-55.46
1033.16	149.72
1033.319	49.55
1033.477	29.21
1033.636	-11.87
1033.794	-25.04
1033.953	46.84
1034.111	34.05
1034.27	-2.95
1034.428	38.12
1034.587	-21.55
1034.745	28.63
1034.903	23.01
1035.062	35.79
1035.22	-20.59
1035.378	29.79
1035.537	-33.76
1035.695	2.66
1035.853	11.77
1036.011	37.73
1036.17	18.36
1036.328	-55.46
1036.486	21.65
1036.644	17.2
1036.802	-67.67
1036.96	-33.95
1037.119	-7.8
1037.277	-10.32
1037.435	-38.6
1037.593	-26.59
1037.751	-5.47
1037.909	33.86
1038.067	33.86
