Data from pine_FLMT105791__130__17-22-29-075.txt Node

Date: Mon Mar 20 17:22:29 GMT 2023
User: antho
Spectrometer: FLMT10579
Trigger mode: 0
Integration Time (sec): 1.000000E-1
Scans to average: 10
Electric dark correction enabled: true
Nonlinearity correction enabled: false
Boxcar width: 0
XAxis mode: Wavelengths
Number of Pixels in Spectrum: 3648
>>>>>Begin Spectral Data<<<<<
345.248	-152.04
345.464	-152.04
345.681	-152.04
345.898	-159.21
346.114	-168.9
346.331	-31.14
346.548	28.92
346.764	-17
346.981	-5.18
347.197	-47.23
347.414	37.25
347.631	-26.49
347.847	57.01
348.064	3.34
348.28	29.3
348.497	-32.31
348.713	3.54
348.93	38.02
349.146	11.29
349.363	9.15
349.579	24.46
349.796	6.44
350.012	8.77
350.229	32.99
350.445	17.68
350.661	-13.71
350.878	-0.92
351.094	-0.92
351.311	19.81
351.527	18.45
351.743	-14.87
351.96	36.86
352.176	56.04
352.392	21.17
352.609	31.24
352.825	-24.36
353.041	13.8
353.257	26.4
353.474	13.22
353.69	19.42
353.906	-2.28
354.122	-15.06
354.339	65.34
354.555	4.31
354.771	-5.96
354.987	61.47
355.203	84.72
355.42	-14.87
355.636	-0.73
355.852	-30.76
356.068	11.67
356.284	-28.04
356.5	77.35
356.716	31.63
356.932	7.99
357.148	37.83
357.364	-1.11
357.58	21.75
357.796	84.33
358.012	62.44
358.228	-2.08
358.444	-29.4
358.66	55.65
358.876	54.1
359.092	-10.8
359.308	33.95
359.524	30.66
359.74	-8.67
359.956	-1.89
360.172	-9.45
360.388	43.45
360.604	7.99
360.819	113.97
361.035	19.42
361.251	21.17
361.467	-4.6
361.683	43.25
361.898	34.34
362.114	7.02
362.33	35.7
362.546	49.84
362.762	18.45
362.977	16.71
363.193	-23.98
363.409	35.31
363.624	-4.41
363.84	-12.93
364.056	-25.72
364.271	49.26
364.487	7.8
364.703	10.9
364.918	-7.31
365.134	-16.23
365.35	-3.83
365.565	106.22
365.781	5.28
365.996	51.39
366.212	59.53
366.427	10.9
366.643	-12.55
366.858	4.89
367.074	-3.44
367.289	57.59
367.505	92.27
367.72	-17.58
367.936	19.42
368.151	33.37
368.367	15.16
368.582	26.01
368.798	-6.15
369.013	53.52
369.228	12.84
369.444	18.65
369.659	64.57
369.874	32.4
370.09	64.18
370.305	-34.24
370.52	-11.19
370.736	61.27
370.951	10.9
371.166	60.5
371.381	73.48
371.597	50.62
371.812	-10.61
372.027	-24.17
372.242	15.94
372.458	94.21
372.673	-13.9
372.888	-2.47
373.103	26.01
373.318	83.17
373.533	41.32
373.749	23.49
373.964	-41.61
374.179	42.48
374.394	-22.43
374.609	53.14
374.824	-22.04
375.039	76.58
375.254	1.6
375.469	62.05
375.684	8.96
375.899	52.55
376.114	26.79
376.329	29.5
376.544	61.66
376.759	28.92
376.974	9.35
377.189	4.31
377.404	26.01
377.619	61.27
377.834	-47.03
378.049	-6.93
378.264	-14.1
378.478	29.5
378.693	-4.41
378.908	28.53
379.123	6.25
379.338	61.66
379.553	51.97
379.767	26.4
379.982	31.24
380.197	52.94
380.412	12.06
380.626	26.79
380.841	88.2
381.056	56.04
381.271	77.55
381.485	-11.96
381.7	-4.8
381.915	12.64
382.129	27.95
382.344	17.29
382.559	16.32
382.773	72.7
382.988	-43.35
383.202	20.2
383.417	-1.89
383.632	109.13
383.846	1.4
384.061	42.29
384.275	17.87
384.49	39.77
384.704	46.16
384.919	37.25
385.133	15.35
385.348	50.04
385.562	-16.81
385.777	54.3
385.991	19.62
386.206	15.55
386.42	10.32
386.634	76.77
386.849	58.75
387.063	26.98
387.277	-10.8
387.492	-17.78
387.706	1.99
387.92	-9.83
388.135	75.61
388.349	26.01
388.563	39.57
388.778	43.25
388.992	55.85
389.206	26.59
389.42	118.43
389.635	38.22
389.849	40.93
390.063	52.55
390.277	36.86
390.491	105.06
390.706	23.3
390.92	50.42
391.134	31.82
391.348	62.05
391.562	-28.63
391.776	3.73
391.99	-10.61
392.205	55.85
392.419	9.35
392.633	15.94
392.847	78.9
393.061	17.68
393.275	88.01
393.489	15.55
393.703	38.99
393.917	70.96
394.131	13.8
394.345	39.96
394.559	59.53
394.773	17.29
394.986	41.9
395.2	10.51
395.414	46.55
395.628	-6.73
395.842	18.45
396.056	11.09
396.27	-9.45
396.484	43.45
396.697	37.25
396.911	113.78
397.125	18.26
397.339	53.91
397.553	54.3
397.766	106.61
397.98	75.8
398.194	64.76
398.408	2.18
398.621	45.97
398.835	46.94
399.049	50.81
399.262	53.52
399.476	47.9
399.69	49.07
399.903	101.18
400.117	26.79
400.331	58.95
400.544	-1.5
400.758	141.48
400.971	33.57
401.185	79.1
401.398	23.69
401.612	94.02
401.826	62.63
402.039	68.44
402.253	43.84
402.466	38.99
402.68	59.72
402.893	39.77
403.106	50.04
403.32	53.33
403.533	91.69
403.747	50.04
403.96	40.74
404.174	75.22
404.387	12.45
404.6	22.72
404.814	75.61
405.027	35.31
405.24	55.65
405.454	37.83
405.667	84.52
405.88	-30.76
406.094	58.75
406.307	66.89
406.52	49.65
406.733	-13.51
406.947	5.09
407.16	104.09
407.373	79.48
407.586	2.76
407.799	-5.76
408.012	96.15
408.226	45.19
408.439	98.28
408.652	-18.94
408.865	49.65
409.078	70.77
409.291	54.69
409.504	-6.35
409.717	56.04
409.93	73.48
410.143	42.67
410.357	13.03
410.57	-9.45
410.783	27.75
410.996	50.81
411.209	54.3
411.421	98.86
411.634	34.54
411.847	1.6
412.06	47.13
412.273	47.13
412.486	43.45
412.699	138.97
412.912	46.94
413.125	94.6
413.338	66.5
413.55	73.28
413.763	56.43
413.976	98.67
414.189	52.75
414.402	32.4
414.615	82.2
414.827	13.22
415.04	78.9
415.253	72.7
415.466	84.91
415.678	122.5
415.891	46.94
416.104	51.97
416.316	56.04
416.529	35.12
416.742	67.47
416.954	122.5
417.167	74.25
417.38	36.67
417.592	86.85
417.805	44.8
418.017	3.73
418.23	80.84
418.442	52.36
418.655	21.94
418.868	68.44
419.08	100.22
419.293	100.02
419.505	58.37
419.718	91.69
419.93	96.15
420.142	61.47
420.355	120.95
420.567	98.86
420.78	87.43
420.992	67.08
421.205	123.27
421.417	25.82
421.629	44.61
421.842	16.52
422.054	22.14
422.266	60.3
422.479	113
422.691	43.64
422.903	88.01
423.115	63.6
423.328	63.4
423.54	82.78
423.752	86.46
423.964	17.87
424.177	61.47
424.389	59.53
424.601	175.39
424.813	87.43
425.025	101.18
425.238	119.2
425.45	47.9
425.662	69.22
425.874	392
426.086	64.57
426.298	97.12
426.51	108.55
426.722	75.61
426.934	42.29
427.146	121.53
427.358	47.32
427.57	114.75
427.782	82.2
427.994	58.75
428.206	53.14
428.418	35.12
428.63	106.22
428.842	101.38
429.054	79.1
429.266	141.87
429.478	74.25
429.69	76
429.902	24.27
430.114	113.78
430.325	103.9
430.537	73.87
430.749	89.75
430.961	24.65
431.173	80.26
431.384	101.18
431.596	20.97
431.808	71.35
432.02	108.35
432.231	120.75
432.443	134.9
432.655	98.86
432.867	73.48
433.078	97.7
433.29	154.66
433.502	146.91
433.713	144.2
433.925	103.32
434.136	138.19
434.348	79.29
434.56	50.81
434.771	199.41
434.983	64.95
435.194	83.55
435.406	84.72
435.617	152.72
435.829	184.11
436.04	135.67
436.252	142.26
436.463	177.71
436.675	152.33
436.886	122.5
437.098	114.17
437.309	186.05
437.521	161.44
437.732	159.89
437.943	158.73
438.155	112.42
438.366	78.9
438.578	170.55
438.789	132.57
439	157.37
439.211	104.67
439.423	141.68
439.634	169.58
439.845	159.7
440.057	146.72
440.268	169
440.479	115.13
440.69	119.01
440.902	123.08
441.113	150.01
441.324	111.84
441.535	173.45
441.746	184.69
441.957	128.89
442.168	105.83
442.38	171.9
442.591	167.45
442.802	120.95
443.013	123.85
443.224	193.41
443.435	124.24
443.646	179.85
443.857	136.25
444.068	135.67
444.279	124.43
444.49	233.51
444.701	141.29
444.912	292.22
445.123	217.63
445.334	186.82
445.545	175.2
445.756	169.96
445.967	148.07
446.178	168.03
446.388	175.2
446.599	203.68
446.81	196.12
447.021	148.65
447.232	204.65
447.443	242.81
447.653	148.27
447.864	203.29
448.075	180.62
448.286	185.27
448.496	177.91
448.707	245.72
448.918	162.99
449.129	273.81
449.339	146.91
449.55	200.96
449.761	206.39
449.971	262.38
450.182	181.2
450.393	215.3
450.603	194.76
450.814	234.1
451.024	203.1
451.235	216.27
451.446	251.92
451.656	267.81
451.867	186.05
452.077	215.5
452.288	254.44
452.498	281.37
452.709	206.58
452.919	242.23
453.13	190.31
453.34	241.65
453.55	143.03
453.761	230.61
453.971	230.8
454.182	243.98
454.392	235.45
454.602	288.54
454.813	251.73
455.023	241.26
455.233	185.27
455.444	227.12
455.654	170.16
455.864	244.56
456.075	235.84
456.285	212.98
456.495	199.8
456.705	239.71
456.916	248.04
457.126	306.36
457.336	221.89
457.546	179.07
457.756	198.25
457.967	275.56
458.177	223.83
458.387	242.04
458.597	208.71
458.807	223.25
459.017	243.78
459.227	228.48
459.437	211.81
459.647	258.7
459.857	258.51
460.068	223.25
460.278	299.19
460.488	273.04
460.698	297.64
460.908	259.67
461.117	205.81
461.327	232.35
461.537	227.12
461.747	256.76
461.957	265.68
462.167	371.46
462.377	291.64
462.587	241.46
462.797	287.57
463.007	271.88
463.216	285.24
463.426	293.38
463.636	298.42
463.846	211.43
464.056	249.98
464.265	315.47
464.475	217.43
464.685	287.96
464.895	287.96
465.104	283.69
465.314	269.55
465.524	260.64
465.733	211.62
465.943	348.41
466.153	314.5
466.362	308.88
466.572	266.06
466.782	261.22
466.991	272.26
467.201	332.91
467.41	235.65
467.62	285.44
467.829	286.6
468.039	310.24
468.249	273.62
468.458	262.38
468.668	317.21
468.877	303.65
469.086	324.77
469.296	325.74
469.505	256.76
469.715	360.61
469.924	327.48
470.134	325.54
470.343	347.82
470.552	286.41
470.762	323.03
470.971	266.06
471.18	305.39
471.39	290.28
471.599	293.77
471.808	344.14
472.018	277.69
472.227	328.06
472.436	352.67
472.645	337.56
472.855	317.41
473.064	360.03
473.273	355.19
473.482	320.89
473.691	365.65
473.901	365.26
474.11	331.55
474.319	446.44
474.528	330.19
474.737	404.21
474.946	369.14
475.155	349.76
475.364	382.12
475.573	363.32
475.783	364.1
475.992	368.17
476.201	400.72
476.41	364.49
476.619	336.01
476.828	393.36
477.037	348.21
477.245	397.62
477.454	389.48
477.663	375.34
477.872	354.61
478.081	440.05
478.29	345.69
478.499	458.26
478.708	395.68
478.917	458.45
479.125	376.69
479.334	397.62
479.543	415.05
479.752	426.29
479.961	414.47
480.169	448.57
480.378	399.36
480.587	490.42
480.796	433.27
481.004	432.69
481.213	439.66
481.422	438.89
481.63	428.42
481.839	463.3
482.048	505.53
482.256	454
482.465	462.14
482.674	465.04
482.882	473.95
483.091	522.78
483.299	473.95
483.508	513.28
483.716	482.09
483.925	488.49
484.134	426.87
484.342	461.75
484.551	505.34
484.759	478.99
484.967	490.23
485.176	522.58
485.384	525.49
485.593	554.75
485.801	492.75
486.01	483.64
486.218	471.82
486.426	389.67
486.635	452.84
486.843	412.15
487.051	462.91
487.26	446.05
487.468	458.07
487.676	530.14
487.885	445.86
488.093	501.08
488.301	512.12
488.509	525.1
488.717	551.65
488.926	520.84
489.134	499.92
489.342	509.22
489.55	484.03
489.758	512.32
489.967	504.37
490.175	636.7
490.383	523.75
490.591	603.57
490.799	502.05
491.007	584.97
491.215	567.34
491.423	535.76
491.631	545.83
491.839	562.69
492.047	592.14
492.255	525.88
492.463	495.27
492.671	544.67
492.879	619.26
493.087	571.6
493.295	590.2
493.503	616.55
493.711	610.55
493.919	629.73
494.127	592.72
494.334	652.01
494.542	559.98
494.75	602.8
494.958	591.75
495.166	656.66
495.374	646.39
495.581	600.86
495.789	600.66
495.997	669.83
496.205	596.21
496.412	599.7
496.62	600.28
496.828	627.01
497.035	609.38
497.243	640.96
497.451	621.4
497.658	630.7
497.866	625.85
498.074	694.24
498.281	621.59
498.489	710.52
498.696	648.33
498.904	616.75
499.112	618.3
499.319	686.88
499.527	672.74
499.734	699.86
499.942	596.01
500.149	621.2
500.357	646.39
500.564	625.46
500.771	649.68
500.979	658.79
501.186	633.99
501.394	658.79
501.601	631.86
501.808	674.1
502.016	640.19
502.223	651.62
502.43	657.82
502.638	643.1
502.845	613.45
503.052	686.3
503.26	665.38
503.467	730.09
503.674	698.51
503.881	692.11
504.089	728.93
504.296	694.05
504.503	632.44
504.71	677.58
504.917	627.6
505.125	702.38
505.332	684.36
505.539	714.78
505.746	768.26
505.953	740.16
506.16	736.29
506.367	785.89
506.574	790.73
506.781	794.99
506.988	684.56
507.195	735.9
507.402	712.65
507.609	759.93
507.816	732.8
508.023	715.94
508.23	714.59
508.437	689.59
508.644	748.11
508.851	786.27
509.058	769.42
509.265	751.4
509.472	760.7
509.679	832.39
509.885	744.81
510.092	762.83
510.299	759.34
510.506	788.79
510.713	776.97
510.92	803.71
511.126	811.46
511.333	830.06
511.54	808.75
511.746	830.45
511.953	866.49
512.16	849.82
512.367	783.37
512.573	819.99
512.78	810.88
512.987	785.11
513.193	841.49
513.4	740.36
513.606	820.96
513.813	811.46
514.02	804.68
514.226	892.06
514.433	859.7
514.639	793.25
514.846	823.47
515.052	769.61
515.259	804.1
515.465	816.5
515.672	833.55
515.878	914.73
516.085	835.68
516.291	894.58
516.497	841.49
516.704	822.89
516.91	781.24
517.117	760.51
517.323	727.38
517.529	759.15
517.736	776.97
517.942	811.66
518.148	805.65
518.354	823.09
518.561	835.29
518.767	821.54
518.973	863.77
519.179	854.47
519.386	849.24
519.592	839.75
519.798	821.34
520.004	922.09
520.21	863.97
520.417	935.85
520.623	949.02
520.829	952.9
521.035	926.74
521.241	936.82
521.447	982.35
521.653	1035.63
521.859	966.85
522.065	953.48
522.271	1052.48
522.477	1031.17
522.683	1031.36
522.889	1043.38
523.095	1005.79
523.301	1001.92
523.507	993
523.713	986.22
523.919	948.63
524.125	1028.26
524.331	999.01
524.537	1092.2
524.742	1057.52
524.948	1104.41
525.154	1069.15
525.36	1157.88
525.566	1118.74
525.772	1122.23
525.977	1071.28
526.183	1116.23
526.389	1090.85
526.595	1054.42
526.8	1057.13
527.006	988.74
527.212	991.07
527.417	978.86
527.623	942.82
527.829	1049.58
528.034	1068.56
528.24	1033.11
528.446	1028.46
528.651	1139.09
528.857	1109.64
529.062	1148.97
529.268	1102.86
529.473	1109.64
529.679	1088.13
529.884	1197.6
530.09	1157.3
530.295	1251.07
530.501	1181.13
530.706	1150.91
530.912	1115.06
531.117	1148.97
531.323	1163.31
531.528	1219.49
531.733	1240.42
531.939	1151.88
532.144	1179.58
532.35	1192.56
532.555	1199.34
532.76	1200.31
532.966	1196.63
533.171	1192.18
533.376	1133.86
533.581	1106.93
533.787	1163.31
533.992	1194.11
534.197	1228.6
534.402	1177.64
534.607	1210.77
534.813	1282.27
535.018	1189.66
535.223	1233.06
535.428	1242.55
535.633	1282.07
535.838	1259.6
536.043	1254.37
536.249	1325.86
536.454	1257.08
536.659	1280.52
536.864	1218.72
537.069	1236.54
537.274	1283.43
537.479	1258.24
537.684	1269.48
537.889	1215.23
538.094	1322.57
538.299	1290.4
538.504	1247.39
538.708	1235.19
538.913	1277.04
539.118	1300.29
539.323	1276.46
539.528	1222.79
539.733	1245.07
539.938	1274.13
540.142	1271.03
540.347	1244.68
540.552	1230.73
540.757	1262.31
540.962	1209.03
541.166	1210.19
541.371	1216.78
541.576	1254.95
541.781	1158.27
541.985	1266.57
542.19	1267.74
542.395	1295.64
542.599	1314.24
542.804	1303
543.008	1360.35
543.213	1275.29
543.418	1254.76
543.622	1291.18
543.827	1205.16
544.031	1328.19
544.236	1314.04
544.44	1283.62
544.645	1395.42
544.849	1297.57
545.054	1341.75
545.258	1407.82
545.463	1352.99
545.667	1265.02
545.872	1329.93
546.076	1310.94
546.281	1337.1
546.485	1323.73
546.689	1367.71
546.894	1374.1
547.098	1375.07
547.302	1308.04
547.507	1323.54
547.711	1329.54
547.915	1391.54
548.119	1326.44
548.324	1299.12
548.528	1390.77
548.732	1321.99
548.936	1337.68
549.141	1341.55
549.345	1295.44
549.549	1353.37
549.753	1305.32
549.957	1413.82
550.161	1388.25
550.366	1346.4
550.57	1288.08
550.774	1336.32
550.978	1330.51
551.182	1377.59
551.386	1325.28
551.59	1322.95
551.794	1327.41
551.998	1328.38
552.202	1330.32
552.406	1328.77
552.61	1352.4
552.814	1358.99
553.018	1432.42
553.222	1331.09
553.426	1360.15
553.63	1438.23
553.833	1340.78
554.037	1291.57
554.241	1379.53
554.445	1372.94
554.649	1356.09
554.853	1327.02
555.056	1407.43
555.26	1387.08
555.464	1391.35
555.668	1405.3
555.871	1402.39
556.075	1419.44
556.279	1306.68
556.483	1289.44
556.686	1374.69
556.89	1359.77
557.094	1390.57
557.297	1290.21
557.501	1372.17
557.704	1258.82
557.908	1370.81
558.112	1306.49
558.315	1383.21
558.519	1353.37
558.722	1314.04
558.926	1313.85
559.129	1260.96
559.333	1245.07
559.536	1261.54
559.74	1249.52
559.943	1227.44
560.147	1238.09
560.35	1248.94
560.553	1249.33
560.757	1226.47
560.96	1338.07
561.164	1293.5
561.367	1358.02
561.57	1268.9
561.774	1294.09
561.977	1262.7
562.18	1240.22
562.384	1350.66
562.587	1243.13
562.79	1243.32
562.993	1275.49
563.197	1274.52
563.4	1330.51
563.603	1321.02
563.806	1386.7
564.009	1266.57
564.212	1269.48
564.416	1204.77
564.619	1269.09
564.822	1227.24
565.025	1318.69
565.228	1276.26
565.431	1273.94
565.634	1174.35
565.837	1218.33
566.04	1188.88
566.243	1174.93
566.446	1110.8
566.649	1203.41
566.852	1168.93
567.055	1206.71
567.258	1225.11
567.461	1278.59
567.664	1257.27
567.867	1156.91
568.07	1226.47
568.273	1200.12
568.475	1265.41
568.678	1158.46
568.881	1185.78
569.084	1202.44
569.287	1097.24
569.489	1097.24
569.692	1179.97
569.895	1200.12
570.098	1141.22
570.3	1121.07
570.503	1086.97
570.706	1112.55
570.909	1098.21
571.111	1064.88
571.314	1064.11
571.516	1096.66
571.719	1111.19
571.922	1076.31
572.124	1077.67
572.327	1097.24
572.529	1050.16
572.732	1078.45
572.935	1125.14
573.137	1133.86
573.34	1065.46
573.542	1117.97
573.745	1091.81
573.947	1095.11
574.15	1095.69
574.352	1082.71
574.554	1142.77
574.757	1069.34
574.959	1049.19
575.162	1040.28
575.364	1037.95
575.566	1162.34
575.769	1045.31
575.971	1080.19
576.173	977.7
576.376	1047.06
576.578	1087.94
576.78	1122.81
576.982	971.88
577.185	1040.66
577.387	1000.75
577.589	1009.67
577.791	1086.97
577.993	1063.72
578.196	1015.28
578.398	1058.3
578.6	1060.62
578.802	998.23
579.004	981.38
579.206	998.04
579.408	1017.61
579.61	990.48
579.812	1067.01
580.014	1020.52
580.216	961.23
580.418	992.62
580.62	980.41
580.822	954.45
581.024	1012.77
581.226	1044.73
581.428	1000.75
581.63	1084.06
581.832	1001.14
582.034	1056.75
582.236	999.4
582.438	1064.5
582.64	1084.26
582.841	1078.64
583.043	1095.3
583.245	1065.08
583.447	1037.37
583.649	1037.37
583.85	1010.83
584.052	1083.87
584.254	996.1
584.456	1057.91
584.657	995.52
584.859	1026.71
585.061	1005.98
585.262	985.45
585.464	955.03
585.666	1026.33
585.867	956.77
586.069	1032.91
586.27	1021.1
586.472	990.87
586.674	985.45
586.875	997.46
587.077	987.58
587.278	1011.8
587.48	972.27
587.681	1047.83
587.883	1035.82
588.084	940.5
588.285	966.65
588.487	970.14
588.688	966.07
588.89	918.41
589.091	889.54
589.292	920.15
589.494	895.35
589.695	866.68
589.896	793.83
590.098	805.26
590.299	887.99
590.5	834.52
590.702	843.62
590.903	907.37
591.104	928.1
591.305	914.34
591.507	960.65
591.708	930.23
591.909	894.97
592.11	960.26
592.311	942.24
592.512	918.6
592.714	850.99
592.915	881.99
593.116	870.94
593.317	916.09
593.518	906.98
593.719	910.27
593.92	949.41
594.121	966.65
594.322	911.63
594.523	921.12
594.724	856.6
594.925	898.07
595.126	913.57
595.327	927.9
595.528	909.89
595.729	929.65
595.929	900.2
596.13	877.72
596.331	913.57
596.532	908.53
596.733	951.93
596.934	910.47
597.135	957.74
597.335	902.91
597.536	880.24
597.737	908.92
597.938	864.94
598.138	918.41
598.339	909.69
598.54	909.69
598.74	934.3
598.941	909.3
599.142	973.24
599.342	932.55
599.543	883.54
599.744	911.63
599.944	883.54
600.145	881.99
600.345	912.99
600.546	970.92
600.746	967.23
600.947	994.75
601.147	945.15
601.348	956.58
601.548	901.17
601.749	882.76
601.949	879.85
602.15	874.82
602.35	890.7
602.551	922.67
602.751	832.58
602.951	892.06
603.152	853.12
603.352	940.3
603.552	888.77
603.753	931.2
603.953	928.49
604.153	896.9
604.354	900.59
604.554	899.23
604.754	907.95
604.954	869.2
605.155	905.82
605.355	886.05
605.555	936.24
605.755	969.95
605.955	927.32
606.155	919.77
606.356	882.95
606.556	949.6
606.756	885.47
606.956	836.26
607.156	914.34
607.356	851.76
607.556	892.84
607.756	902.72
607.956	967.23
608.156	877.34
608.356	844.01
608.556	937.98
608.756	897.68
608.956	855.64
609.156	906.01
609.356	851.95
609.556	846.14
609.755	863
609.955	828.32
610.155	868.81
610.355	861.06
610.555	825.8
610.755	856.8
610.954	799.84
611.154	890.12
611.354	876.95
611.554	845.76
611.753	845.37
611.953	838.39
612.153	886.44
612.352	884.89
612.552	791.12
612.752	784.34
612.951	847.89
613.151	862.22
613.351	826.38
613.55	835.1
613.75	846.14
613.949	828.9
614.149	838.78
614.348	822.89
614.548	813.4
614.747	775.23
614.947	811.85
615.146	729.51
615.346	846.14
615.545	857.77
615.745	803.52
615.944	899.04
616.144	805.65
616.343	848.66
616.542	803.91
616.742	803.52
616.941	813.59
617.14	739.39
617.34	827.35
617.539	773.87
617.738	770.77
617.938	867.84
618.137	792.47
618.336	750.63
618.535	806.81
618.734	825.22
618.934	782.98
619.133	827.54
619.332	790.15
619.531	754.11
619.73	788.02
619.929	825.8
620.128	802.74
620.328	857.57
620.527	783.95
620.726	795.19
620.925	803.32
621.124	763.8
621.323	808.36
621.522	735.51
621.721	753.73
621.92	726.99
622.119	812.43
622.318	744.43
622.517	781.82
622.715	760.12
622.914	726.21
623.113	771.94
623.312	708.78
623.511	793.25
623.71	767.67
623.909	740.94
624.107	820.18
624.306	683.39
624.505	742.1
624.704	721.95
624.902	728.34
625.101	822.31
625.3	760.12
625.499	729.51
625.697	741.52
625.896	701.61
626.095	741.91
626.293	683.01
626.492	686.69
626.69	763.61
626.889	712.26
627.088	745.39
627.286	721.76
627.485	704.9
627.683	680.1
627.882	741.52
628.08	670.22
628.279	689.98
628.477	754.11
628.676	639.03
628.874	717.49
629.073	679.33
629.271	686.88
629.469	690.76
629.668	687.46
629.866	681.07
630.065	691.73
630.263	695.02
630.461	674.87
630.66	698.51
630.858	730.86
631.056	722.53
631.254	736.68
631.453	687.46
631.651	726.79
631.849	677.97
632.047	746.36
632.245	686.88
632.444	721.56
632.642	716.14
632.84	716.91
633.038	683.59
633.236	684.56
633.434	661.7
633.632	657.63
633.83	662.08
634.028	740.74
634.227	689.21
634.425	752.18
634.623	684.75
634.821	717.49
635.019	685.53
635.216	673.51
635.414	729.51
635.612	685.91
635.81	668.28
636.008	717.11
636.206	697.93
636.404	721.76
636.602	637.67
636.8	705.68
636.997	709.74
637.195	699.48
637.393	695.79
637.591	755.66
637.789	723.11
637.986	681.84
638.184	720.59
638.382	730.67
638.58	716.53
638.777	744.43
638.975	695.21
639.173	703.93
639.37	708.19
639.568	709.74
639.765	741.91
639.963	681.84
640.161	727.76
640.358	705.09
640.556	688.43
640.753	657.05
640.951	666.73
641.148	711.29
641.346	631.86
641.543	684.36
641.741	714.2
641.938	680.88
642.136	698.89
642.333	639.22
642.531	744.43
642.728	740.55
642.925	690.95
643.123	680.88
643.32	670.03
643.517	644.06
643.715	682.43
643.912	641.35
644.109	698.12
644.306	683.01
644.504	622.36
644.701	687.27
644.898	719.43
645.095	630.11
645.293	639.22
645.49	683.01
645.687	655.88
645.884	704.9
646.081	592.14
646.278	634.38
646.475	658.4
646.672	631.66
646.87	672.93
647.067	628.95
647.264	626.63
647.461	593.88
647.658	571.8
647.855	644.26
648.052	600.47
648.249	543.9
648.446	614.61
648.642	617.71
648.839	582.26
649.036	571.02
649.233	586.13
649.43	564.05
649.627	550.87
649.824	574.51
650.021	579.74
650.217	559.98
650.414	582.45
650.611	617.71
650.808	624.88
651.004	620.23
651.201	608.8
651.398	664.02
651.595	576.06
651.791	586.52
651.988	626.24
652.185	588.27
652.381	603.57
652.578	521.42
652.775	577.42
652.971	588.27
653.168	593.88
653.364	620.04
653.561	549.9
653.757	590.4
653.954	585.36
654.15	551.26
654.347	644.84
654.543	582.84
654.74	553
654.936	539.63
655.133	594.08
655.329	564.63
655.525	566.76
655.722	595.05
655.918	578
656.115	572.38
656.311	509.99
656.507	480.15
656.704	467.17
656.9	467.75
657.096	482.67
657.292	503.4
657.489	538.08
657.685	564.43
657.881	509.02
658.077	506.7
658.273	536.73
658.47	585.55
658.666	523.17
658.862	584.39
659.058	523.55
659.254	598.34
659.45	502.05
659.646	571.02
659.842	555.91
660.038	593.69
660.234	503.02
660.43	533.63
660.626	626.63
660.822	602.99
661.018	607.25
661.214	568.7
661.41	507.28
661.606	567.73
661.802	618.88
661.998	559.4
662.194	521.23
662.39	575.67
662.586	543.7
662.781	590.59
662.977	573.15
663.173	581.1
663.369	555.13
663.564	603.18
663.76	603.76
663.956	535.57
664.152	595.63
664.347	504.57
664.543	540.6
664.739	522.39
664.934	485.77
665.13	509.8
665.326	580.32
665.521	565.4
665.717	509.41
665.912	514.06
666.108	469.3
666.304	502.63
666.499	525.3
666.695	470.08
666.89	511.15
667.086	555.91
667.281	531.69
667.477	575.87
667.672	511.54
667.867	543.32
668.063	494.49
668.258	497.59
668.454	497.59
668.649	584.58
668.844	517.16
669.04	537.31
669.235	518.52
669.43	486.74
669.626	463.49
669.821	488.29
670.016	458.26
670.211	504.76
670.407	460.97
670.602	520.45
670.797	506.7
670.992	550.48
671.187	488.87
671.382	550.1
671.578	479.57
671.773	528.78
671.968	473.18
672.163	491.2
672.358	506.31
672.553	486.94
672.748	495.46
672.943	547.58
673.138	509.22
673.333	531.3
673.528	446.44
673.723	487.52
673.918	522
674.113	480.35
674.308	571.6
674.503	503.02
674.698	513.48
674.892	505.34
675.087	505.53
675.282	502.05
675.477	505.34
675.672	513.28
675.867	465.24
676.061	426.49
676.256	440.63
676.451	478.41
676.646	496.62
676.84	442.57
677.035	458.26
677.23	454.58
677.424	504.18
677.619	509.99
677.814	525.3
678.008	526.07
678.203	435.79
678.397	460.39
678.592	474.92
678.787	542.73
678.981	472.02
679.176	471.82
679.37	502.24
679.565	455.35
679.759	485
679.954	503.6
680.148	528.01
680.342	510.38
680.537	500.69
680.731	490.42
680.926	479.96
681.12	519.87
681.314	449.35
681.509	492.17
681.703	469.11
681.897	506.5
682.092	515.42
682.286	449.15
682.48	520.45
682.674	527.04
682.869	454.39
683.063	451.29
683.257	527.23
683.451	473.37
683.645	487.13
683.839	486.55
684.034	474.54
684.228	495.65
684.422	465.04
684.616	455.35
684.81	509.6
685.004	452.06
685.198	469.3
685.392	509.6
685.586	435.79
685.78	519.68
685.974	508.25
686.168	506.5
686.362	521.42
686.556	458.45
686.75	419.9
686.944	438.89
687.138	444.5
687.331	351.12
687.525	385.61
687.719	340.46
687.913	386.38
688.107	383.86
688.301	362.16
688.494	438.5
688.688	399.17
688.882	366.23
689.076	336.2
689.269	388.71
689.463	478.41
689.657	395.87
689.85	384.64
690.044	393.94
690.238	420.09
690.431	401.49
690.625	405.76
690.818	446.44
691.012	446.83
691.205	455.55
691.399	410.99
691.593	469.3
691.786	482.48
691.98	503.79
692.173	524.91
692.366	503.4
692.56	522.97
692.753	539.05
692.947	453.42
693.14	550.29
693.333	545.06
693.527	464.85
693.72	525.49
693.914	496.24
694.107	481.7
694.3	550.87
694.493	494.49
694.687	552.62
694.88	528.59
695.073	578.77
695.266	567.53
695.46	580.13
695.653	606.09
695.846	577.61
696.039	520.45
696.232	557.27
696.425	591.75
696.618	586.91
696.812	589.81
697.005	664.21
697.198	719.82
697.391	663.83
697.584	672.35
697.777	700.64
697.97	684.17
698.163	712.46
698.356	694.83
698.549	778.52
698.742	721.56
698.935	696.18
699.127	737.45
699.32	687.46
699.513	706.45
699.706	726.02
699.899	749.46
700.092	727.18
700.285	749.27
700.477	703.54
700.67	756.44
700.863	762.64
701.056	864.74
701.248	823.28
701.441	796.54
701.634	792.28
701.826	895.35
702.019	770.77
702.212	838.59
702.404	776.97
702.597	801.97
702.79	844.01
702.982	839.36
703.175	904.85
703.367	882.18
703.56	893.8
703.752	973.43
703.945	926.55
704.137	948.44
704.33	953.28
704.522	961.23
704.715	950.57
704.907	1001.72
705.1	1000.95
705.292	1020.9
705.484	1000.56
705.677	1019.55
705.869	1034.46
706.061	1073.6
706.254	1084.65
706.446	1045.51
706.638	1028.85
706.831	1106.35
707.023	1047.64
707.215	1166.21
707.407	1129.21
707.599	1110.22
707.792	1124.17
707.984	1148.78
708.176	1198.57
708.368	1134.44
708.56	1224.34
708.752	1155.94
708.944	1116.81
709.136	1223.95
709.329	1194.31
709.521	1310.17
709.713	1270.84
709.905	1291.37
710.097	1327.02
710.289	1230.73
710.481	1274.71
710.672	1318.3
710.864	1303.58
711.056	1316.56
711.248	1318.3
711.44	1371.39
711.632	1349.11
711.824	1417.12
712.016	1403.94
712.207	1407.04
712.399	1370.81
712.591	1472.14
712.783	1446.37
712.975	1464.2
713.166	1429.13
713.358	1444.05
713.55	1534.33
713.741	1506.82
713.933	1479.7
714.125	1496.55
714.316	1460.52
714.508	1563.98
714.7	1556.81
714.891	1521.35
715.083	1541.7
715.274	1503.33
715.466	1524.65
715.657	1543.25
715.849	1474.27
716.04	1544.8
716.232	1490.55
716.423	1551.96
716.615	1481.44
716.806	1468.46
716.998	1443.08
717.189	1358.8
717.381	1298.35
717.572	1318.89
717.763	1331.67
717.955	1321.79
718.146	1292.15
718.337	1246.23
718.528	1218.72
718.72	1163.69
718.911	1238.48
719.102	1209.61
719.293	1234.99
719.485	1259.21
719.676	1200.51
719.867	1175.13
720.058	1197.21
720.249	1188.69
720.44	1237.12
720.632	1269.09
720.823	1291.18
721.014	1382.82
721.205	1384.37
721.396	1429.9
721.587	1530.07
721.778	1518.25
721.969	1530.07
722.16	1569.79
722.351	1586.26
722.542	1683.32
722.733	1733.12
722.924	1614.74
723.115	1675.77
723.305	1648.45
723.496	1673.83
723.687	1558.16
723.878	1582.58
724.069	1605.44
724.26	1571.53
724.45	1530.26
724.641	1554.09
724.832	1569.4
725.023	1560.49
725.213	1513.8
725.404	1498.1
725.595	1555.64
725.785	1526.97
725.976	1569.79
726.167	1569.4
726.357	1568.24
726.548	1706.19
726.739	1595.75
726.929	1628.3
727.12	1627.14
727.31	1658.14
727.501	1632.18
727.691	1659.69
727.882	1668.99
728.072	1697.47
728.263	1668.21
728.453	1703.47
728.644	1711.03
728.834	1662.01
729.024	1682.94
729.215	1683.91
729.405	1738.93
729.596	1813.72
729.786	1801.9
729.976	1793.18
730.167	1783.49
730.357	1743.77
730.547	1724.4
730.737	1793.57
730.928	1833.09
731.118	1899.35
731.308	1818.75
731.498	1826.5
731.688	1924.54
731.879	1864.09
732.069	1921.44
732.259	1970.85
732.449	1947.79
732.639	2024.13
732.829	2030.33
733.019	2060.16
733.209	2084.96
733.399	2114.02
733.589	2184.35
733.779	2156.46
733.969	2154.52
734.159	2223.69
734.349	2228.72
734.539	2286.85
734.729	2247.13
734.919	2289.17
735.109	2311.45
735.299	2250.62
735.488	2306.22
735.678	2298.47
735.868	2291.5
736.058	2277.16
736.248	2259.33
736.437	2246.74
736.627	2240.74
736.817	2408.52
737.007	2342.06
737.196	2341.87
737.386	2322.11
737.576	2277.93
737.765	2339.74
737.955	2354.46
738.144	2430.03
738.334	2411.43
738.524	2350.2
738.713	2386.24
738.903	2369.58
739.092	2403.1
739.282	2424.99
739.471	2406.2
739.661	2398.06
739.85	2450.56
740.04	2465.68
740.229	2487.18
740.419	2489.51
740.608	2496.29
740.797	2460.44
740.987	2563.91
741.176	2525.93
741.365	2497.26
741.555	2480.98
741.744	2535.81
741.933	2522.25
742.123	2538.91
742.312	2553.64
742.501	2556.93
742.69	2570.88
742.88	2556.54
743.069	2632.1
743.258	2532.71
743.447	2601.49
743.636	2565.26
743.825	2565.46
744.014	2596.46
744.204	2614.47
744.393	2570.49
744.582	2616.41
744.771	2635.2
744.96	2561.97
745.149	2613.12
745.338	2595.49
745.527	2686.35
745.716	2622.03
745.905	2574.95
746.094	2643.15
746.283	2679.57
746.471	2653.8
746.66	2697.78
746.849	2655.55
747.038	2721.42
747.227	2595.68
747.416	2637.72
747.604	2618.54
747.793	2648.19
747.982	2673.76
748.171	2656.52
748.359	2659.62
748.548	2644.5
748.737	2660.97
748.926	2632.3
749.114	2544.14
749.303	2650.51
749.491	2631.91
749.68	2561.97
749.869	2650.32
750.057	2563.91
750.246	2576.5
750.434	2588.12
750.623	2619.51
750.811	2574.37
751	2631.33
751.188	2644.31
751.377	2651.29
751.565	2612.73
751.754	2547.44
751.942	2556.74
752.131	2610.02
752.319	2584.83
752.507	2552.47
752.696	2608.66
752.884	2645.86
753.072	2562.16
753.261	2590.64
753.449	2585.99
753.637	2568.56
753.825	2676.28
754.014	2545.89
754.202	2554.02
754.39	2623
754.578	2632.69
754.766	2551.7
754.955	2550.92
755.143	2666.4
755.331	2519.73
755.519	2535.81
755.707	2542.59
755.895	2527.48
756.083	2554.99
756.271	2516.24
756.459	2550.54
756.647	2558.48
756.835	2517.6
757.023	2484.28
757.211	2530.58
757.399	2495.13
757.587	2509.85
757.775	2426.15
757.963	2447.27
758.151	2452.5
758.339	2455.99
758.526	2468.78
758.714	2473.62
758.902	2377.13
759.09	2339.93
759.278	2164.4
759.465	2046.79
759.653	1759.47
759.841	1603.5
760.028	1391.73
760.216	1211.74
760.404	1145.68
760.591	939.72
760.779	796.16
760.967	686.3
761.154	570.25
761.342	601.25
761.529	606.67
761.717	639.22
761.905	630.89
762.092	673.9
762.28	650.07
762.467	641.93
762.655	592.14
762.842	595.63
763.029	622.75
763.217	637.86
763.404	634.57
763.592	620.81
763.779	595.05
763.966	658.4
764.154	689.4
764.341	756.44
764.528	736.29
764.716	782.79
764.903	813.79
765.09	868.42
765.277	857.19
765.465	1022.84
765.652	1063.33
765.839	1144.51
766.026	1205.16
766.213	1224.14
766.4	1325.47
766.588	1486.09
766.775	1452.18
766.962	1540.34
767.149	1585.29
767.336	1703.28
767.523	1657.36
767.71	1792.02
767.897	1863.9
768.084	1925.9
768.271	1936.55
768.458	1956.9
768.645	2021.03
768.832	2001.65
769.019	2019.09
769.206	2070.24
769.392	2099.3
769.579	2186.68
769.766	2137.27
769.953	2133.21
770.14	2179.7
770.327	2160.52
770.513	2228.72
770.7	2250.04
770.887	2179.32
771.073	2255.27
771.26	2230.27
771.447	2170.21
771.634	2163.62
771.82	2287.43
772.007	2183.19
772.193	2220.97
772.38	2266.31
772.567	2218.26
772.753	2228.92
772.94	2282.2
773.126	2257.98
773.313	2270.18
773.499	2252.36
773.686	2277.35
773.872	2244.22
774.059	2256.82
774.245	2205.86
774.432	2181.45
774.618	2152.58
774.804	2234.34
774.991	2157.23
775.177	2231.24
775.363	2198.89
775.55	2214.97
775.736	2162.65
775.922	2179.32
776.109	2216.13
776.295	2174.86
776.481	2183.58
776.667	2217.68
776.853	2199.08
777.04	2201.21
777.226	2147.16
777.412	2264.57
777.598	2190.75
777.784	2191.14
777.97	2180.29
778.156	2163.04
778.342	2152.97
778.528	2134.17
778.715	2109.37
778.901	2111.12
779.087	2155.29
779.272	2103.17
779.458	2092.52
779.644	2143.86
779.83	2070.63
780.016	2214.58
780.202	2124.49
780.388	2103.37
780.574	2066.75
780.76	2113.64
780.946	2159.56
781.131	2117.32
781.317	2099.69
781.503	2034.98
781.689	2054.74
781.874	2203.34
782.06	2093.68
782.246	2073.92
782.432	2065.39
782.617	2072.18
782.803	2151.81
782.989	2036.91
783.174	2028.19
783.36	1985.38
783.545	2034.98
783.731	2046.02
783.916	1986.54
784.102	2083.8
784.288	2000.49
784.473	2067.33
784.659	2012.69
784.844	2036.91
785.029	1991.19
785.215	1966.2
785.4	1934.23
785.586	2025.48
785.771	1908.46
785.956	1966.97
786.142	1966.58
786.327	1960.77
786.512	1953.21
786.698	1940.23
786.883	1910.59
787.068	1931.71
787.254	1932.48
787.439	1940.62
787.624	1936.16
787.809	1869.52
787.994	1891.99
788.18	1943.53
788.365	1832.51
788.55	1884.82
788.735	1860.41
788.92	1877.27
789.105	1864.28
789.29	1884.63
789.475	1837.35
789.66	1842.97
789.845	1829.6
790.03	1827.08
790.215	1872.23
790.4	1882.69
790.585	1883.66
790.77	1795.5
790.955	1776.71
791.14	1803.84
791.325	1865.25
791.51	1745.32
791.695	1795.7
791.879	1779.42
792.064	1745.71
792.249	1869.9
792.434	1799.57
792.618	1809.65
792.803	1853.82
792.988	1781.36
793.173	1800.15
793.357	1829.02
793.542	1738.54
793.727	1818.37
793.911	1867.97
794.096	1788.72
794.281	1804.22
794.465	1897.8
794.65	1822.63
794.834	1822.63
795.019	1863.12
795.203	1855.57
795.388	1843.94
795.572	1879.59
795.757	1831.15
795.941	1829.02
796.126	1846.27
796.31	1794.15
796.494	1828.44
796.679	1822.63
796.863	1766.25
797.048	1862.93
797.232	1853.43
797.416	1873
797.601	1809.26
797.785	1897.03
797.969	1894.12
798.153	1798.41
798.338	1875.52
798.522	1923.38
798.706	1868.16
798.89	1858.47
799.074	1974.72
799.258	1907.1
799.443	1915.63
799.627	1845.3
799.811	1927.25
799.995	1845.68
800.179	1810.23
800.363	1823.98
800.547	1877.46
800.731	1906.71
800.915	1823.4
801.099	1839.29
801.283	1868.16
801.467	1850.33
801.651	1830.57
801.835	1920.08
802.019	1877.46
802.202	1901.68
802.386	1832.9
802.57	1819.72
802.754	1831.15
802.938	1812.94
803.121	1822.05
803.305	1872.81
803.489	1822.43
803.673	1856.34
803.856	1865.64
804.04	1829.8
804.224	1865.06
804.407	1811.59
804.591	1819.14
804.775	1827.67
804.958	1830.18
805.142	1918.53
805.326	1837.55
805.509	1865.06
805.693	1873.97
805.876	1824.95
806.06	1852.85
806.243	1915.05
806.427	1876.88
806.61	1907.88
806.794	1842.39
806.977	1903.42
807.16	1862.93
807.344	1885.98
807.527	1880.17
807.71	1853.05
807.894	1841.81
808.077	1871.45
808.26	1847.62
808.444	1796.47
808.627	1871.26
808.81	1818.95
808.993	1749.78
809.177	1751.14
809.36	1798.02
809.543	1817.59
809.726	1747.45
809.909	1728.27
810.092	1698.82
810.276	1697.08
810.459	1714.52
810.642	1709.09
810.825	1676.35
811.008	1729.82
811.191	1625.39
811.374	1643.41
811.557	1646.71
811.74	1737.57
811.923	1597.49
812.106	1590.71
812.289	1587.03
812.472	1604.08
812.654	1615.13
812.837	1564.56
813.02	1563.2
813.203	1522.32
813.386	1406.85
813.569	1419.63
813.751	1416.34
813.934	1413.82
814.117	1419.05
814.3	1377.78
814.482	1347.75
814.665	1315.59
814.848	1310.55
815.03	1250.49
815.213	1261.54
815.396	1228.99
815.578	1236.54
815.761	1178.42
815.943	1316.75
816.126	1183.46
816.309	1202.83
816.491	1112.35
816.674	1079.03
816.856	1164.28
817.039	1133.47
817.221	1224.53
817.403	1150.33
817.586	1154.01
817.768	1175.32
817.951	1102.66
818.133	1081.55
818.315	1134.24
818.498	1128.82
818.68	1218.14
818.862	1180.74
819.045	1228.99
819.227	1197.02
819.409	1160.98
819.591	1184.81
819.774	1148.19
819.956	1138.51
820.138	1212.71
820.32	1190.24
820.502	1219.49
820.684	1268.32
820.866	1272.19
821.048	1323.34
821.231	1337.29
821.413	1300.29
821.595	1305.32
821.777	1299.12
821.959	1313.85
822.141	1379.72
822.323	1257.27
822.505	1200.51
822.686	1189.66
822.868	1143.74
823.05	1073.8
823.232	1058.3
823.414	1008.5
823.596	1067.79
823.778	1030.98
823.96	1048.03
824.141	1078.25
824.323	1054.81
824.505	1104.21
824.687	1145.48
824.868	1181.52
825.05	1296.41
825.232	1299.51
825.413	1314.43
825.595	1250.49
825.777	1234.61
825.958	1276.65
826.14	1283.24
826.321	1290.99
826.503	1240.42
826.685	1313.27
826.866	1319.27
827.048	1297.57
827.229	1258.82
827.411	1227.82
827.592	1200.12
827.773	1191.59
827.955	1160.79
828.136	1165.44
828.318	1127.66
828.499	1187.14
828.68	1131.92
828.862	1172.8
829.043	1168.93
829.224	1148.19
829.406	1121.26
829.587	1151.29
829.768	1135.41
829.949	1152.07
830.131	1098.98
830.312	1196.63
830.493	1147.03
830.674	1166.79
830.855	1129.4
831.036	1147.03
831.218	1202.83
831.399	1218.14
831.58	1148.19
831.761	1170.67
831.942	1174.35
832.123	1149.74
832.304	1138.7
832.485	1137.93
832.666	1151.29
832.847	1157.49
833.028	1155.75
833.209	1176.68
833.389	1125.53
833.57	1081.93
833.751	1100.34
833.932	1212.13
834.113	1183.65
834.294	1138.31
834.475	1196.44
834.655	1209.61
834.836	1205.93
835.017	1167.38
835.198	1136.38
835.378	1129.4
835.559	1201.47
835.74	1128.24
835.92	1122.81
836.101	1154.98
836.281	1198.96
836.462	1180.16
836.643	1232.09
836.823	1230.34
837.004	1213.87
837.184	1238.87
837.365	1239.64
837.545	1217.56
837.726	1139.48
837.906	1241.58
838.087	1217.94
838.267	1193.34
838.448	1140.06
838.628	1196.83
838.808	1186.17
838.989	1247.2
839.169	1162.73
839.349	1177.64
839.53	1218.91
839.71	1190.63
839.89	1193.34
840.07	1211.55
840.251	1149.36
840.431	1229.76
840.611	1207.67
840.791	1153.43
840.971	1216.59
841.151	1174.93
841.332	1153.43
841.512	1200.89
841.692	1145.09
841.872	1201.09
842.052	1185.59
842.232	1215.04
842.412	1125.91
842.592	1186.17
842.772	1192.37
842.952	1193.14
843.132	1144.13
843.312	1154.59
843.492	1122.81
843.672	1199.54
843.851	1119.13
844.031	1154.98
844.211	1147.81
844.391	1132.11
844.571	1170.09
844.751	1162.53
844.93	1174.74
845.11	1146.26
845.29	1149.16
845.47	1169.51
845.649	1141.03
845.829	1184.43
846.009	1128.43
846.188	1181.91
846.368	1153.81
846.547	1133.86
846.727	1198.18
846.907	1137.73
847.086	1153.62
847.266	1176.09
847.445	1144.32
847.625	1106.54
847.804	1123.39
847.984	1150.71
848.163	1095.5
848.343	1107.12
848.522	1156.14
848.701	1128.24
848.881	1077.86
849.06	1135.41
849.239	1144.32
849.419	1141.99
849.598	1080.38
849.777	1092.2
849.957	1052.29
850.136	1022.65
850.315	1002.69
850.494	1004.63
850.674	1029.43
850.853	1048.61
851.032	1026.33
851.211	1116.23
851.39	1046.09
851.569	1002.88
851.748	1042.21
851.927	1082.32
852.107	1076.12
852.286	1012.38
852.465	999.2
852.644	1072.63
852.823	1068.37
853.002	1022.26
853.181	1032.33
853.359	1058.3
853.538	1019.74
853.717	1069.53
853.896	994.75
854.075	934.88
854.254	929.45
854.433	888.77
854.611	958.71
854.79	831.22
854.969	927.13
855.148	941.85
855.327	905.24
855.505	930.81
855.684	940.3
855.863	954.45
856.041	903.49
856.22	935.65
856.399	921.12
856.577	1004.63
856.756	992.03
856.934	1128.82
857.113	1113.51
857.291	983.32
857.47	974.98
857.648	1024
857.827	1016.25
858.005	1048.8
858.184	970.72
858.362	1040.47
858.541	998.62
858.719	973.05
858.898	959.29
859.076	968.78
859.254	1040.28
859.433	976.53
859.611	972.08
859.789	901.94
859.967	1028.85
860.146	1032.53
860.324	958.9
860.502	960.84
860.68	936.24
860.859	944.95
861.037	964.72
861.215	1002.88
861.393	974.79
861.571	977.89
861.749	938.37
861.927	982.35
862.105	1001.72
862.283	957.93
862.461	923.84
862.639	907.75
862.817	953.67
862.995	929.45
863.173	926.94
863.351	939.72
863.529	948.25
863.707	1000.37
863.885	982.54
864.063	871.33
864.241	919.38
864.418	985.83
864.596	897.87
864.774	882.57
864.952	896.9
865.129	932.94
865.307	865.52
865.485	874.82
865.663	958.71
865.84	846.34
866.018	900.2
866.196	751.4
866.373	821.73
866.551	796.74
866.728	732.22
866.906	782.79
867.084	787.05
867.261	815.14
867.439	822.31
867.616	843.24
867.794	823.86
867.971	813.01
868.149	831.42
868.326	888.96
868.503	852.15
868.681	856.99
868.858	859.12
869.035	823.86
869.213	891.87
869.39	818.24
869.567	921.12
869.745	829.67
869.922	869.97
870.099	873.27
870.276	869.97
870.454	864.35
870.631	886.25
870.808	826.57
870.985	894.97
871.162	923.25
871.339	855.83
871.517	802.74
871.694	801.77
871.871	875.98
872.048	859.12
872.225	817.08
872.402	846.53
872.579	798.87
872.756	840.72
872.933	796.16
873.11	788.02
873.287	830.84
873.463	795.38
873.64	795.19
873.817	825.41
873.994	809.14
874.171	764.38
874.348	819.99
874.524	745.2
874.701	803.91
874.878	732.22
875.055	823.86
875.231	798.29
875.408	834.13
875.585	752.95
875.762	801.19
875.938	772.32
876.115	781.62
876.291	779.11
876.468	795.96
876.645	745.01
876.821	753.14
876.998	749.27
877.174	749.85
877.351	763.22
877.527	776.59
877.704	769.42
877.88	758.38
878.057	748.3
878.233	816.69
878.409	730.28
878.586	733.77
878.762	768.84
878.938	745.01
879.115	697.54
879.291	774.07
879.467	703.16
879.644	698.31
879.82	761.86
879.996	750.43
880.172	687.66
880.349	750.04
880.525	749.08
880.701	695.02
880.877	695.99
881.053	749.46
881.229	721.76
881.405	768.45
881.581	694.05
881.757	716.14
881.933	740.74
882.109	735.71
882.285	732.41
882.461	692.89
882.637	697.93
882.813	689.59
882.989	709.16
883.165	763.03
883.341	682.23
883.517	745.39
883.693	709.16
883.869	723.69
884.044	671.19
884.22	759.93
884.396	752.18
884.572	738.42
884.747	744.43
884.923	724.08
885.099	758.57
885.275	772.91
885.45	697.73
885.626	694.44
885.801	698.31
885.977	708
886.153	661.7
886.328	716.14
886.504	702.19
886.679	748.69
886.855	695.41
887.03	715.17
887.206	732.99
887.381	733.58
887.557	738.03
887.732	702.38
887.908	718.46
888.083	724.47
888.258	677.78
888.434	694.83
888.609	704.71
888.784	749.46
888.96	698.89
889.135	668.86
889.31	657.05
889.485	708.78
889.661	713.81
889.836	742.1
890.011	723.5
890.186	721.37
890.361	667.12
890.537	726.6
890.712	672.35
890.887	699.09
891.062	697.15
891.237	776.59
891.412	693.47
891.587	735.32
891.762	726.79
891.937	733.77
892.112	669.25
892.287	676.42
892.462	659.37
892.637	609.77
892.812	656.08
892.987	645.23
893.161	627.4
893.336	671.19
893.511	644.65
893.686	664.6
893.861	646.58
894.035	617.71
894.21	635.54
894.385	600.86
894.56	623.53
894.734	553.78
894.909	607.83
895.084	593.88
895.258	566.95
895.433	612.68
895.608	575.87
895.782	519.87
895.957	563.08
896.131	551.65
896.306	478.8
896.48	493.72
896.655	496.82
896.829	442.18
897.004	460.39
897.178	475.7
897.353	465.43
897.527	492.36
897.701	485.97
897.876	396.84
898.05	510.96
898.224	471.82
898.399	534.6
898.573	477.25
898.747	383.86
898.921	444.12
899.096	361.77
899.27	361.58
899.444	358.09
899.618	413.89
899.792	390.84
899.967	416.22
900.141	434.24
900.315	370.69
900.489	399.17
900.663	416.22
900.837	420.67
901.011	365.46
901.185	476.09
901.359	413.89
901.533	419.7
901.707	404.4
901.881	419.51
902.055	339.49
902.229	404.98
902.403	453.22
902.576	418.74
902.75	423.19
902.924	529.56
903.098	463.88
903.272	472.21
903.446	516.97
903.619	459.23
903.793	506.31
903.967	453.8
904.14	527.23
904.314	516.77
904.488	492.94
904.661	557.46
904.835	532.66
905.009	561.53
905.182	592.91
905.356	573.35
905.529	528.78
905.703	475.5
905.876	483.06
906.05	482.48
906.223	488.49
906.397	406.14
906.57	410.99
906.744	422.22
906.917	410.02
907.09	406.14
907.264	394.13
907.437	378.44
907.61	342.79
907.784	369.52
907.957	384.06
908.13	335.81
908.304	419.9
908.477	354.41
908.65	389.29
908.823	358.29
908.996	420.87
909.17	347.05
909.343	362.74
909.516	371.07
909.689	369.52
909.862	306.56
910.035	339.88
910.208	331.74
910.381	356.93
910.554	418.35
910.727	338.91
910.9	348.41
911.073	327.87
911.246	432.49
911.419	394.91
911.592	377.47
911.765	333.68
911.938	338.91
912.11	357.12
912.283	333.29
912.456	398.2
912.629	369.52
912.802	325.54
912.974	305.59
913.147	305.39
913.32	251.92
913.493	253.28
913.665	305.59
913.838	315.86
914.01	306.17
914.183	304.81
914.356	301.13
914.528	313.14
914.701	373.01
914.873	341.04
915.046	301.91
915.218	285.05
915.391	243.59
915.563	256.38
915.736	298.42
915.908	326.32
916.081	290.48
916.253	320.7
916.425	305.2
916.598	326.13
916.77	336.2
916.942	295.32
917.115	257.15
917.287	318.76
917.459	285.63
917.632	251.34
917.804	210.46
917.976	277.3
918.148	283.5
918.32	285.44
918.493	328.84
918.665	352.09
918.837	326.13
919.009	368.36
919.181	346.08
919.353	356.54
919.525	301.91
919.697	313.92
919.869	320.31
920.041	379.79
920.213	389.48
920.385	357.12
920.557	342.01
920.729	335.62
920.901	341.62
921.073	329.22
921.244	307.91
921.416	379.99
921.588	310.04
921.76	284.08
921.932	388.12
922.103	316.63
922.275	314.11
922.447	319.15
922.619	255.6
922.79	308.3
922.962	303.46
923.134	351.51
923.305	258.89
923.477	269.94
923.648	256.96
923.82	300.16
923.991	230.8
924.163	249.01
924.335	279.43
924.506	247.46
924.677	313.73
924.849	235.06
925.02	289.51
925.192	304.43
925.363	273.23
925.535	291.06
925.706	256.76
925.877	334.65
926.049	259.28
926.22	268
926.391	267.03
926.562	302.49
926.734	246.88
926.905	310.82
927.076	217.43
927.247	244.94
927.419	231.96
927.59	236.42
927.761	219.95
927.932	231.77
928.103	248.43
928.274	193.99
928.445	197.09
928.616	197.67
928.787	202.32
928.958	231.19
929.129	207.75
929.3	178.1
929.471	150.98
929.642	113.97
929.813	96.34
929.984	189.34
930.155	115.91
930.326	182.56
930.496	149.23
930.667	68.83
930.838	133.35
931.009	77.35
931.18	115.13
931.35	99.44
931.521	134.51
931.692	41.12
931.863	29.69
932.033	88.59
932.204	103.51
932.374	83.55
932.545	41.51
932.716	119.2
932.886	111.84
933.057	29.5
933.227	29.69
933.398	99.83
933.568	47.52
933.739	30.85
933.909	51.39
934.08	68.63
934.25	-12.74
934.421	20.2
934.591	66.5
934.761	22.91
934.932	-20.49
935.102	60.89
935.272	30.66
935.443	20.39
935.613	36.67
935.783	35.7
935.953	4.12
936.123	162.99
936.294	0.82
936.464	14.39
936.634	50.23
936.804	-7.51
936.974	-11
937.144	32.79
937.314	41.51
937.484	10.32
937.655	-6.73
937.825	53.14
937.995	1.99
938.165	57.01
938.334	39.57
938.504	45.58
938.674	4.5
938.844	28.72
939.014	78.52
939.184	22.91
939.354	98.86
939.524	83.17
939.694	43.25
939.863	52.55
940.033	120.37
940.203	84.91
940.373	103.32
940.542	81.42
940.712	44.61
940.882	121.53
941.051	118.62
941.221	81.23
941.391	92.47
941.56	69.99
941.73	34.15
941.899	135.28
942.069	38.6
942.238	62.44
942.408	47.32
942.577	86.27
942.747	80.45
942.916	19.04
943.086	27.75
943.255	88.98
943.425	92.27
943.594	25.24
943.763	-7.51
943.933	32.21
944.102	-20.68
944.271	39.19
944.441	59.92
944.61	13.03
944.779	60.3
944.948	112.03
945.117	11.87
945.287	36.47
945.456	-15.45
945.625	40.35
945.794	40.54
945.963	2.57
946.132	67.28
946.301	18.45
946.47	59.72
946.639	-14.48
946.808	6.44
946.977	45.58
947.146	78.52
947.315	32.99
947.484	75.8
947.653	36.67
947.822	29.11
947.991	26.79
948.16	122.11
948.329	82
948.498	19.42
948.666	40.35
948.835	52.94
949.004	-8.48
949.173	14.97
949.341	30.66
949.51	75.61
949.679	112.42
949.847	87.62
950.016	124.63
950.185	103.51
950.353	44.42
950.522	17.68
950.69	82.2
950.859	55.27
951.028	66.31
951.196	61.85
951.365	28.53
951.533	54.49
951.701	57.01
951.87	38.02
952.038	22.14
952.207	61.08
952.375	116.49
952.543	27.75
952.712	44.42
952.88	15.94
953.048	101.57
953.217	44.42
953.385	16.71
953.553	90.92
953.721	0.82
953.89	29.69
954.058	-5.38
954.226	35.12
954.394	69.6
954.562	-7.9
954.73	55.07
954.898	19.81
955.067	94.4
955.235	45.77
955.403	84.91
955.571	119.78
955.739	57.4
955.907	39.19
956.075	16.32
956.243	20.97
956.41	49.07
956.578	-16.61
956.746	7.02
956.914	-3.25
957.082	62.24
957.25	66.31
957.418	18.65
957.585	57.4
957.753	78.71
957.921	22.52
958.089	43.25
958.256	75.22
958.424	74.45
958.592	41.9
958.759	38.22
958.927	87.82
959.095	1.4
959.262	43.45
959.43	77.35
959.597	29.3
959.765	28.14
959.932	1.02
960.1	53.91
960.267	47.9
960.435	28.92
960.602	64.57
960.77	35.7
960.937	-1.31
961.104	27.17
961.272	25.62
961.439	28.92
961.606	77.35
961.774	72.51
961.941	36.67
962.108	37.44
962.275	48.49
962.443	91.11
962.61	59.34
962.777	100.8
962.944	66.31
963.111	69.99
963.278	75.03
963.446	58.17
963.613	44.42
963.78	65.92
963.947	91.3
964.114	85.88
964.281	120.56
964.448	87.23
964.615	48.29
964.782	52.75
964.949	83.94
965.116	67.28
965.282	90.33
965.449	56.04
965.616	34.34
965.783	68.05
965.95	71.93
966.117	4.31
966.283	62.82
966.45	70.77
966.617	69.99
966.784	112.42
966.95	91.88
967.117	104.48
967.284	18.84
967.45	23.69
967.617	92.66
967.784	71.54
967.95	135.09
968.117	81.42
968.283	94.4
968.45	158.34
968.616	68.25
968.783	107.58
968.949	80.84
969.116	101.77
969.282	53.72
969.449	84.13
969.615	34.34
969.781	33.37
969.948	61.27
970.114	27.75
970.28	131.41
970.447	20.39
970.613	116.68
970.779	64.57
970.945	87.62
971.112	89.75
971.278	62.82
971.444	35.12
971.61	122.88
971.776	49.45
971.942	68.83
972.108	90.92
972.275	56.43
972.441	64.18
972.607	132.77
972.773	53.14
972.939	72.7
973.105	62.44
973.271	36.67
973.437	67.86
973.602	47.52
973.768	100.99
973.934	69.22
974.1	91.88
974.266	-12.35
974.432	62.44
974.598	51.59
974.763	93.05
974.929	28.72
975.095	124.43
975.261	39.19
975.426	26.01
975.592	71.93
975.758	121.72
975.923	29.3
976.089	49.84
976.255	99.44
976.42	77.16
976.586	92.08
976.751	59.72
976.917	130.25
977.082	88.01
977.248	10.9
977.413	14.97
977.579	41.9
977.744	69.02
977.91	47.71
978.075	25.62
978.24	84.33
978.406	58.75
978.571	43.25
978.736	28.14
978.902	76.58
979.067	26.59
979.232	10.12
979.397	33.18
979.563	113.58
979.728	19.62
979.893	56.24
980.058	50.04
980.223	95.57
980.388	60.5
980.554	67.67
980.719	44.61
980.884	71.15
981.049	98.47
981.214	27.75
981.379	55.27
981.544	52.36
981.709	26.2
981.874	29.5
982.039	37.25
982.204	78.32
982.368	59.92
982.533	17.68
982.698	73.87
982.863	103.9
983.028	47.13
983.193	76.38
983.357	27.17
983.522	61.27
983.687	31.24
983.852	59.92
984.016	41.7
984.181	64.37
984.346	65.92
984.51	84.13
984.675	53.52
984.839	76.38
985.004	52.94
985.168	104.09
985.333	45.97
985.498	45
985.662	85.49
985.827	59.34
985.991	52.36
986.155	50.81
986.32	63.6
986.484	128.7
986.649	69.99
986.813	4.31
986.977	54.49
987.142	56.24
987.306	12.06
987.47	31.05
987.634	35.7
987.799	69.02
987.963	89.17
988.127	107.38
988.291	111.45
988.455	72.32
988.62	55.85
988.784	81.03
988.948	86.85
989.112	27.56
989.276	69.22
989.44	35.31
989.604	17.68
989.768	55.46
989.932	121.92
990.096	35.5
990.26	27.17
990.424	17.68
990.588	45.77
990.752	120.56
990.915	61.85
991.079	55.07
991.243	36.28
991.407	56.43
991.571	14.19
991.734	76.97
991.898	72.51
992.062	119.01
992.226	54.49
992.389	14.39
992.553	4.31
992.717	42.48
992.88	44.22
993.044	63.79
993.207	42.67
993.371	71.35
993.535	59.34
993.698	56.82
993.862	86.65
994.025	65.34
994.189	62.44
994.352	64.18
994.515	52.17
994.679	76.97
994.842	26.01
995.006	82
995.169	15.16
995.332	46.35
995.496	77.55
995.659	14
995.822	21.94
995.985	37.83
996.149	102.93
996.312	63.4
996.475	94.79
996.638	30.66
996.801	90.72
996.964	119.59
997.128	45
997.291	44.61
997.454	48.49
997.617	-12.35
997.78	116.68
997.943	37.05
998.106	67.67
998.269	36.86
998.432	45.39
998.595	66.12
998.758	-4.99
998.92	24.85
999.083	-11.58
999.246	38.22
999.409	-14.48
999.572	11.29
999.735	29.89
999.897	62.24
1000.06	7.22
1000.223	35.31
1000.386	66.31
1000.548	80.45
1000.711	53.33
1000.874	52.17
1001.036	-1.89
1001.199	68.44
1001.361	20.78
1001.524	50.04
1001.687	74.45
1001.849	-6.35
1002.012	52.36
1002.174	39.77
1002.337	85.49
1002.499	41.7
1002.661	69.02
1002.824	-4.21
1002.986	-2.66
1003.149	29.69
1003.311	6.64
1003.473	88.98
1003.636	24.46
1003.798	37.44
1003.96	52.75
1004.123	27.75
1004.285	18.65
1004.447	32.99
1004.609	18.65
1004.771	83.17
1004.933	-13.32
1005.096	12.64
1005.258	8.57
1005.42	14.58
1005.582	60.3
1005.744	35.7
1005.906	-21.85
1006.068	17.87
1006.23	-21.26
1006.392	-32.11
1006.554	-6.93
1006.716	100.02
1006.878	64.57
1007.04	4.7
1007.202	4.31
1007.363	36.86
1007.525	32.21
1007.687	51.97
1007.849	74.83
1008.011	-22.62
1008.172	8.19
1008.334	8.96
1008.496	58.17
1008.658	-17.39
1008.819	17.49
1008.981	-7.51
1009.143	-0.92
1009.304	17.29
1009.466	68.83
1009.627	92.27
1009.789	142.07
1009.95	39.57
1010.112	15.35
1010.273	71.54
1010.435	12.06
1010.596	-9.83
1010.758	24.27
1010.919	27.17
1011.081	-31.53
1011.242	17.68
1011.403	59.53
1011.565	50.81
1011.726	57.98
1011.887	-4.41
1012.049	40.35
1012.21	58.37
1012.371	78.9
1012.532	-25.91
1012.693	23.69
1012.855	3.54
1013.016	9.54
1013.177	61.66
1013.338	23.1
1013.499	91.11
1013.66	47.71
1013.821	57.2
1013.982	23.1
1014.143	40.15
1014.304	17.29
1014.465	40.54
1014.626	57.59
1014.787	46.74
1014.948	92.66
1015.109	-54.59
1015.27	58.75
1015.431	-16.42
1015.592	7.22
1015.752	82.78
1015.913	32.02
1016.074	49.45
1016.235	18.26
1016.395	26.4
1016.556	-1.89
1016.717	12.25
1016.877	55.85
1017.038	5.86
1017.199	14.97
1017.359	29.69
1017.52	22.52
1017.681	15.16
1017.841	19.62
1018.002	13.03
1018.162	20
1018.323	69.6
1018.483	26.79
1018.644	25.62
1018.804	-11
1018.964	-15.06
1019.125	-2.28
1019.285	24.65
1019.446	-32.69
1019.606	-0.53
1019.766	-62.73
1019.926	24.46
1020.087	14
1020.247	0.44
1020.407	45.97
1020.567	59.14
1020.728	-8.67
1020.888	16.32
1021.048	2.18
1021.208	-1.89
1021.368	10.32
1021.528	64.76
1021.688	49.65
1021.848	50.62
1022.008	9.35
1022.168	6.64
1022.328	8.77
1022.488	20.39
1022.648	5.28
1022.808	7.22
1022.968	27.17
1023.128	6.25
1023.288	-4.21
1023.448	27.17
1023.608	32.6
1023.767	45.58
1023.927	1.99
1024.087	-20.88
1024.247	-27.08
1024.406	-6.54
1024.566	-15.26
1024.726	-23.98
1024.885	36.86
1025.045	22.91
1025.205	-0.15
1025.364	7.99
1025.524	3.73
1025.683	11.09
1025.843	19.62
1026.003	42.67
1026.162	40.35
1026.321	44.42
1026.481	-5.76
1026.64	7.02
1026.8	8.57
1026.959	28.53
1027.119	7.99
1027.278	-19.71
1027.437	-14.87
1027.597	-7.12
1027.756	11.29
1027.915	2.95
1028.074	26.01
1028.234	1.79
1028.393	0.24
1028.552	-4.21
1028.711	-54.98
1028.87	44.61
1029.03	-10.8
1029.189	-3.63
1029.348	-69.12
1029.507	18.65
1029.666	-3.83
1029.825	-17.2
1029.984	-27.27
1030.143	0.24
1030.302	-6.15
1030.461	-55.75
1030.62	-4.99
1030.779	47.9
1030.938	8.77
1031.097	-22.23
1031.255	30.85
1031.414	49.45
1031.573	68.63
1031.732	-48
1031.891	-9.83
1032.049	46.74
1032.208	20.59
1032.367	-4.21
1032.525	-26.88
1032.684	0.05
1032.843	26.01
1033.001	-42.77
1033.16	105.06
1033.319	42.09
1033.477	50.04
1033.636	-22.43
1033.794	-26.3
1033.953	36.09
1034.111	39.57
1034.27	-17
1034.428	43.84
1034.587	-9.25
1034.745	16.13
1034.903	11.48
1035.062	39.57
1035.22	-30.18
1035.378	21.55
1035.537	-17.78
1035.695	27.75
1035.853	-10.03
1036.011	49.07
1036.17	43.64
1036.328	-62.53
1036.486	15.35
1036.644	5.28
1036.802	-66.21
1036.96	-19.33
1037.119	-26.11
1037.277	-22.04
1037.435	-22.23
1037.593	-26.11
1037.751	-17.2
1037.909	45.58
1038.067	45.58
