Data from pine_FLMT105791__13__17-19-47-080.txt Node

Date: Mon Mar 20 17:19:47 GMT 2023
User: antho
Spectrometer: FLMT10579
Trigger mode: 0
Integration Time (sec): 1.000000E-1
Scans to average: 10
Electric dark correction enabled: true
Nonlinearity correction enabled: false
Boxcar width: 0
XAxis mode: Wavelengths
Number of Pixels in Spectrum: 3648
>>>>>Begin Spectral Data<<<<<
345.248	-195.75
345.464	-195.75
345.681	-195.75
345.898	-176.96
346.114	-161.26
346.331	-46.76
346.548	31.32
346.764	3.23
346.981	-25.25
347.197	-5.1
347.414	48.18
347.631	-35.52
347.847	73.37
348.064	-22.15
348.28	21.64
348.497	-36.3
348.713	-6.65
348.93	25.7
349.146	30.35
349.363	-1.42
349.579	14.27
349.796	-22.15
350.012	-20.02
350.229	37.33
350.445	3.04
350.661	-22.35
350.878	6.33
351.094	11.56
351.311	16.21
351.527	15.05
351.743	-29.9
351.96	30.35
352.176	26.48
352.392	20.09
352.609	28.22
352.825	1.87
353.041	1.1
353.257	-15.37
353.474	9.82
353.69	11.17
353.906	-12.27
354.122	-22.15
354.339	57.28
354.555	-0.84
354.771	-8.78
354.987	56.12
355.203	34.62
355.42	-13.05
355.636	-28.55
355.852	-38.23
356.068	-5.49
356.284	-17.89
356.5	47.79
356.716	13.89
356.932	4.97
357.148	43.14
357.364	-10.53
357.58	39.07
357.796	64.07
358.012	29.38
358.228	36.75
358.444	-65.74
358.66	41.98
358.876	17.76
359.092	-11.5
359.308	-2
359.524	8.07
359.74	6.72
359.956	-3.94
360.172	-10.33
360.388	51.08
360.604	-3.75
360.819	104.17
361.035	-5.88
361.251	21.44
361.467	-5.3
361.683	11.75
361.898	15.24
362.114	36.55
362.33	15.24
362.546	46.24
362.762	23.38
362.977	4.78
363.193	-1.42
363.409	32.87
363.624	-25.83
363.84	-12.66
364.056	-39.98
364.271	14.85
364.487	-0.65
364.703	-8.78
364.918	-18.28
365.134	10.01
365.35	16.99
365.565	90.22
365.781	27.25
365.996	25.32
366.212	52.25
366.427	1.87
366.643	-4.52
366.858	-10.72
367.074	-38.62
367.289	57.87
367.505	110.57
367.72	-34.36
367.936	-10.33
368.151	18.15
368.367	28.03
368.582	29.58
368.798	-14.6
369.013	67.17
369.228	10.2
369.444	16.99
369.659	46.05
369.874	38.3
370.09	66.2
370.305	-63.81
370.52	-22.54
370.736	65.81
370.951	-6.07
371.166	60
371.381	41.98
371.597	45.66
371.812	-43.08
372.027	-3.36
372.242	-6.07
372.458	85.77
372.673	0.52
372.888	15.82
373.103	32.29
373.318	89.64
373.533	46.05
373.749	32.29
373.964	-3.36
374.179	59.22
374.394	-2.78
374.609	53.8
374.824	-35.91
375.039	44.5
375.254	5.55
375.469	68.72
375.684	34.23
375.899	58.64
376.114	-0.06
376.329	30.93
376.544	50.12
376.759	40.43
376.974	-24.86
377.189	-8.98
377.404	-1.81
377.619	42.95
377.834	-42.11
378.049	-30.87
378.264	-25.83
378.478	0.52
378.693	-30.87
378.908	38.49
379.123	6.52
379.338	58.06
379.553	22.8
379.767	16.4
379.982	30.16
380.197	26.48
380.412	36.36
380.626	28.03
380.841	78.6
381.056	31.71
381.271	66.78
381.485	-27.19
381.7	9.04
381.915	28.22
382.129	-2.58
382.344	46.63
382.559	27.84
382.773	38.49
382.988	-41.53
383.202	30.74
383.417	-30.87
383.632	117.93
383.846	8.07
384.061	24.35
384.275	-19.05
384.49	43.72
384.704	36.94
384.919	11.56
385.133	-3.94
385.348	48.76
385.562	-28.74
385.777	36.55
385.991	5.94
386.206	-0.65
386.42	4.2
386.634	47.21
386.849	48.37
387.063	44.69
387.277	-24.67
387.492	4
387.706	12.72
387.92	-12.85
388.135	60.58
388.349	-2.78
388.563	2.26
388.778	20.86
388.992	50.7
389.206	59.03
389.42	116.57
389.635	32.68
389.849	43.53
390.063	54.96
390.277	43.92
390.491	85.96
390.706	34.42
390.92	44.11
391.134	40.62
391.348	54.57
391.562	-10.14
391.776	27.84
391.99	-5.88
392.205	47.6
392.419	-15.95
392.633	23.96
392.847	62.9
393.061	23.77
393.275	89.64
393.489	5.75
393.703	54.77
393.917	79.76
394.131	-14.21
394.345	29
394.559	60.58
394.773	24.54
394.986	17.57
395.2	13.89
395.414	49.73
395.628	5.75
395.842	10.98
396.056	-14.21
396.27	-32.42
396.484	64.07
396.697	42.75
396.911	70.27
397.125	59.8
397.339	67.94
397.553	46.05
397.766	79.76
397.98	75.5
398.194	70.46
398.408	18.73
398.621	39.46
398.835	61.16
399.049	37.91
399.262	76.66
399.476	62.52
399.69	54.18
399.903	109.21
400.117	27.64
400.331	53.8
400.544	-3.55
400.758	146.99
400.971	46.43
401.185	56.7
401.398	6.33
401.612	73.37
401.826	57.48
402.039	59.03
402.253	10.01
402.466	75.5
402.68	39.85
402.893	66
403.106	36.36
403.32	38.1
403.533	43.14
403.747	34.42
403.96	53.22
404.174	78.6
404.387	3.62
404.6	37.33
404.814	67.17
405.027	45.47
405.24	34.23
405.454	-0.65
405.667	103.59
405.88	-13.24
406.094	73.75
406.307	85.18
406.52	51.28
406.733	4.39
406.947	-17.89
407.16	85.18
407.373	87.12
407.586	30.55
407.799	10.98
408.012	85.18
408.226	52.05
408.439	100.49
408.652	19.12
408.865	58.06
409.078	77.82
409.291	47.02
409.504	19.31
409.717	28.42
409.93	55.54
410.143	54.77
410.357	-6.85
410.57	15.44
410.783	54.77
410.996	54.96
411.209	41.4
411.421	74.53
411.634	27.64
411.847	36.36
412.06	58.45
412.273	57.09
412.486	41.01
412.699	114.44
412.912	72.4
413.125	90.8
413.338	59.22
413.55	92.16
413.763	54.18
413.976	70.27
414.189	17.57
414.402	26.67
414.615	103.2
414.827	30.16
415.04	84.22
415.253	68.52
415.466	79.18
415.678	123.55
415.891	59.42
416.104	64.07
416.316	75.88
416.529	39.27
416.742	95.65
416.954	87.32
417.167	72.59
417.38	60.77
417.592	117.35
417.805	31.32
418.017	12.34
418.23	103.98
418.442	56.9
418.655	40.62
418.868	77.05
419.08	105.92
419.293	98.94
419.505	70.07
419.718	80.92
419.93	105.33
420.142	57.67
420.355	156.1
420.567	141.37
420.78	70.65
420.992	83.05
421.205	147.38
421.417	47.6
421.629	48.37
421.842	54.77
422.054	18.73
422.266	82.08
422.479	100.68
422.691	65.23
422.903	87.12
423.115	51.28
423.328	62.13
423.54	72.4
423.752	85.18
423.964	37.91
424.177	74.14
424.389	41.01
424.601	191.75
424.813	98.17
425.025	136.53
425.238	98.55
425.45	76.66
425.662	65.03
425.874	371.16
426.086	82.47
426.298	129.36
426.51	106.3
426.722	93.32
426.934	70.27
427.146	110.76
427.358	45.08
427.57	151.25
427.782	63.48
427.994	109.4
428.206	74.14
428.418	79.76
428.63	120.83
428.842	145.25
429.054	88.48
429.266	117.93
429.478	79.57
429.69	96.81
429.902	63.1
430.114	123.55
430.325	115.41
430.537	60.38
430.749	115.6
430.961	25.7
431.173	94.1
431.384	100.49
431.596	23.96
431.808	72.01
432.02	94.1
432.231	112.12
432.443	122.96
432.655	107.08
432.867	61.35
433.078	134.98
433.29	168.88
433.502	165.78
433.713	151.06
433.925	126.65
434.136	154.55
434.348	90.22
434.56	72.4
434.771	204.14
434.983	61.35
435.194	92.35
435.406	108.05
435.617	137.5
435.829	193.49
436.04	161.71
436.252	147.57
436.463	188.45
436.675	178.18
436.886	121.61
437.098	156.87
437.309	195.62
437.521	141.18
437.732	167.53
437.943	136.33
438.155	136.33
438.366	96.42
438.578	205.11
438.789	133.43
439	152.8
439.211	124.51
439.423	162.1
439.634	127.03
439.845	187.1
440.057	174.5
440.268	194.46
440.479	131.49
440.69	149.51
440.902	129.55
441.113	153.96
441.324	122.38
441.535	165.59
441.746	202.98
441.957	135.36
442.168	126.65
442.38	218.09
442.591	208.21
442.802	147.18
443.013	166.95
443.224	194.46
443.435	160.36
443.646	140.98
443.857	152.03
444.068	146.6
444.279	137.11
444.49	229.72
444.701	179.93
444.912	282.61
445.123	191.36
445.334	185.93
445.545	179.35
445.756	209.76
445.967	155.9
446.178	193.49
446.388	200.66
446.599	216.16
446.81	218.09
447.021	188.06
447.232	250.45
447.443	221
447.653	166.36
447.864	218.48
448.075	197.36
448.286	213.25
448.496	214.99
448.707	245.22
448.918	186.51
449.129	279.71
449.339	181.09
449.55	216.16
449.761	189.61
449.971	249.48
450.182	217.71
450.393	256.07
450.603	191.36
450.814	228.56
451.024	210.34
451.235	210.34
451.446	283.97
451.656	276.61
451.867	187.87
452.077	210.34
452.288	244.25
452.498	286.29
452.709	198.14
452.919	235.34
453.13	222.16
453.34	248.71
453.55	170.24
453.761	250.45
453.971	238.24
454.182	247.93
454.392	249.87
454.602	283.19
454.813	264.01
455.023	256.07
455.233	177.99
455.444	242.7
455.654	190.39
455.864	213.25
456.075	229.53
456.285	196.59
456.495	209.38
456.705	231.46
456.916	269.24
457.126	308.57
457.336	223.91
457.546	171.01
457.756	220.81
457.967	277.38
458.177	227.2
458.387	238.44
458.597	186.51
458.807	221.97
459.017	240.18
459.227	255.1
459.437	231.66
459.647	272.93
459.857	262.27
460.068	206.28
460.278	302.57
460.488	255.88
460.698	314
460.908	255.49
461.117	214.8
461.327	221
461.537	266.92
461.747	247.74
461.957	259.56
462.167	368.44
462.377	297.14
462.587	285.33
462.797	302.37
463.007	277.38
463.216	278.93
463.426	301.79
463.636	307.61
463.846	252.78
464.056	267.5
464.265	275.44
464.475	284.36
464.685	278.93
464.895	279.32
465.104	272.34
465.314	292.69
465.524	285.13
465.733	233.01
465.943	314.39
466.153	320.01
466.362	330.27
466.572	296.37
466.782	241.54
466.991	270.79
467.201	321.17
467.41	222.74
467.62	310.51
467.829	273.89
468.039	303.73
468.249	314.39
468.458	284.36
468.668	298.69
468.877	339.19
469.086	342.87
469.296	330.47
469.505	296.56
469.715	360.89
469.924	332.79
470.134	342.67
470.343	355.27
470.552	306.25
470.762	301.21
470.971	295.79
471.18	315.36
471.39	289.78
471.599	290.56
471.808	323.69
472.018	280.87
472.227	332.02
472.436	348.1
472.645	310.9
472.855	320.2
473.064	372.12
473.273	332.21
473.482	352.75
473.691	382.2
473.901	338.41
474.11	350.04
474.319	407.58
474.528	339.57
474.737	411.65
474.946	367.28
475.155	336.67
475.364	423.66
475.573	340.16
475.783	383.55
475.992	376.97
476.201	394.02
476.41	351.39
476.619	326.4
476.828	379.1
477.037	360.89
477.245	368.06
477.454	417.27
477.663	359.72
477.872	356.62
478.081	429.86
478.29	365.54
478.499	428.31
478.708	369.41
478.917	438.19
479.125	405.84
479.334	418.62
479.543	380.26
479.752	401.38
479.961	417.85
480.169	423.27
480.378	382.59
480.587	513.75
480.796	446.14
481.004	408.16
481.213	438.58
481.422	439.35
481.63	428.12
481.839	443.23
482.048	506.39
482.256	448.07
482.465	448.27
482.674	465.7
482.882	480.23
483.091	511.23
483.299	454.66
483.508	481.2
483.716	457.76
483.925	481.4
484.134	442.45
484.342	428.12
484.551	485.27
484.759	475.97
484.967	483.53
485.176	492.44
485.384	487.21
485.593	474.81
485.801	489.53
486.01	472.29
486.218	452.14
486.426	412.04
486.635	444.59
486.843	427.73
487.051	461.25
487.26	413.2
487.468	484.11
487.676	488.57
487.885	460.67
488.093	475
488.301	492.63
488.509	494.57
488.717	535.65
488.926	485.47
489.134	498.83
489.342	515.69
489.55	483.33
489.758	521.5
489.967	498.45
490.175	597.84
490.383	499.03
490.591	564.13
490.799	497.87
491.007	551.92
491.215	508.72
491.423	537.97
491.631	508.91
491.839	527.51
492.047	563.74
492.255	472.29
492.463	475.78
492.671	510.65
492.879	568.39
493.087	531.58
493.295	530.03
493.503	568.78
493.711	552.7
493.919	585.44
494.127	568.39
494.334	599.78
494.542	503.29
494.75	558.7
494.958	561.61
495.166	607.91
495.374	574.4
495.581	578.46
495.789	597.26
495.997	643.56
496.205	594.55
496.412	561.41
496.62	563.35
496.828	584.66
497.035	580.79
497.243	629.81
497.451	593
497.658	610.82
497.866	588.73
498.074	650.34
498.281	603.65
498.489	665.07
498.696	598.03
498.904	602.88
499.112	632.13
499.319	673.98
499.527	611.4
499.734	652.28
499.942	576.14
500.149	573.43
500.357	626.9
500.564	569.94
500.771	621.48
500.979	600.55
501.186	608.88
501.394	630
501.601	613.92
501.808	631.16
502.016	609.46
502.223	579.24
502.43	609.66
502.638	639.5
502.845	583.5
503.052	673.59
503.26	618.57
503.467	679.79
503.674	628.65
503.881	643.76
504.089	710.79
504.296	668.17
504.503	620.7
504.71	644.92
504.917	617.6
505.125	656.93
505.332	636.4
505.539	648.02
505.746	692.78
505.953	702.66
506.16	663.33
506.367	736.17
506.574	698.01
506.781	738.5
506.988	653.25
507.195	674.56
507.402	646.86
507.609	710.79
507.816	670.88
508.023	677.66
508.23	670.49
508.437	642.98
508.644	708.47
508.851	741.41
509.058	711.76
509.265	715.44
509.472	710.21
509.679	790.81
509.885	681.34
510.092	686.96
510.299	705.95
510.506	704.59
510.713	778.02
510.92	734.43
511.126	742.96
511.333	772.79
511.54	780.93
511.746	792.36
511.953	813.29
512.16	804.37
512.367	750.9
512.573	702.85
512.78	739.86
512.987	754.97
513.193	767.56
513.4	680.96
513.606	727.65
513.813	759.23
514.02	777.64
514.226	825.1
514.433	812.71
514.639	724.36
514.846	744.89
515.052	760.01
515.259	773.18
515.465	747.8
515.672	784.03
515.878	864.82
516.085	768.92
516.291	804.37
516.497	758.26
516.704	762.91
516.91	732.88
517.117	692.19
517.323	697.43
517.529	718.35
517.736	707.69
517.942	719.71
518.148	697.43
518.354	759.42
518.561	765.24
518.767	738.89
518.973	787.13
519.179	774.92
519.386	766.59
519.592	742.96
519.798	758.46
520.004	851.26
520.21	779.77
520.417	841.19
520.623	859.79
520.829	878.39
521.035	842.54
521.241	850.49
521.447	874.12
521.653	954.33
521.859	849.52
522.065	849.71
522.271	959.95
522.477	921.78
522.683	897.18
522.889	899.31
523.095	878.77
523.301	880.52
523.507	870.25
523.713	906.09
523.919	878.39
524.125	930.12
524.331	891.95
524.537	965.96
524.742	935.93
524.948	938.06
525.154	971.58
525.36	1059.35
525.566	952.78
525.772	1001.8
525.977	915.78
526.183	969.45
526.389	1001.22
526.595	935.93
526.8	936.9
527.006	882.65
527.212	858.62
527.417	850.87
527.623	857.65
527.829	946
528.034	917.72
528.24	967.12
528.446	909
528.651	1005.87
528.857	962.86
529.062	1037.06
529.268	947.94
529.473	987.47
529.679	992.7
529.884	1066.71
530.09	1035.9
530.295	1059.93
530.501	1034.55
530.706	1029.7
530.912	984.95
531.117	1011.1
531.323	1030.48
531.528	1045.59
531.733	1061.28
531.939	1037.45
532.144	1049.27
532.35	1057.41
532.555	1080.27
532.76	1079.11
532.966	1069.81
533.171	1065.16
533.376	1016.14
533.581	965.57
533.787	1046.17
533.992	1031.06
534.197	1041.91
534.402	1024.08
534.607	1056.05
534.813	1134.91
535.018	1040.55
535.223	1021.56
535.428	1057.02
535.633	1093.83
535.838	1084.73
536.043	1060.51
536.249	1126.38
536.454	1072.71
536.659	1102.74
536.864	1085.11
537.069	1067.48
537.274	1128.51
537.479	1109.53
537.684	1099.84
537.889	1026.8
538.094	1151.38
538.299	1098.68
538.504	1090.34
538.708	1115.73
538.913	1133.94
539.118	1090.34
539.323	1152.15
539.528	1077.56
539.733	1121.54
539.938	1142.85
540.142	1162.03
540.347	1095.96
540.552	1078.53
540.757	1086.66
540.962	1056.83
541.166	1040.16
541.371	1063.61
541.576	1065.55
541.781	995.02
541.985	1117.66
542.19	1092.28
542.395	1160.09
542.599	1192.84
542.804	1125.03
543.008	1179.66
543.213	1085.11
543.418	1076.98
543.622	1161.84
543.827	1097.51
544.031	1193.42
544.236	1174.04
544.44	1113.79
544.645	1227.32
544.849	1128.13
545.054	1204.85
545.258	1238.37
545.463	1212.6
545.667	1140.91
545.872	1206.21
546.076	1186.44
546.281	1146.92
546.485	1141.11
546.689	1180.44
546.894	1199.42
547.098	1178.11
547.302	1129.48
547.507	1152.73
547.711	1166.87
547.915	1248.25
548.119	1183.54
548.324	1138.2
548.528	1201.94
548.732	1146.53
548.936	1200.97
549.141	1182.57
549.345	1154.28
549.549	1164.55
549.753	1176.76
549.957	1256.39
550.161	1257.55
550.366	1156.41
550.57	1176.37
550.774	1178.69
550.978	1200.59
551.182	1194.19
551.386	1156.22
551.59	1154.28
551.794	1174.04
551.998	1179.86
552.202	1163
552.406	1145.37
552.61	1210.08
552.814	1204.85
553.018	1256.19
553.222	1207.76
553.426	1140.91
553.63	1263.36
553.833	1161.84
554.037	1113.79
554.241	1176.95
554.445	1162.03
554.649	1154.86
554.853	1144.59
555.056	1203.11
555.26	1216.28
555.464	1205.24
555.668	1219.96
555.871	1209.5
556.075	1220.93
556.279	1165.71
556.483	1146.73
556.686	1194.19
556.89	1176.17
557.094	1203.3
557.297	1146.73
557.501	1251.35
557.704	1110.69
557.908	1203.3
558.112	1129.09
558.315	1234.11
558.519	1166.87
558.722	1170.75
558.926	1179.08
559.129	1115.34
559.333	1085.69
559.536	1103.71
559.74	1101.97
559.943	1096.54
560.147	1089.57
560.35	1135.68
560.553	1112.82
560.757	1045.59
560.96	1166.49
561.164	1092.09
561.367	1206.79
561.57	1117.66
561.774	1158.93
561.977	1112.63
562.18	1127.35
562.384	1206.4
562.587	1138.39
562.79	1115.14
562.993	1121.93
563.197	1144.98
563.4	1176.95
563.603	1173.07
563.806	1234.88
564.009	1122.12
564.212	1163.97
564.416	1097.51
564.619	1134.91
564.822	1085.89
565.025	1146.34
565.228	1066.71
565.431	1105.46
565.634	1014.78
565.837	1087.44
566.04	1037.45
566.243	1077.17
566.446	989.4
566.649	1110.69
566.852	1041.52
567.055	1057.8
567.258	1101.97
567.461	1143.63
567.664	1154.48
567.867	1038.42
568.07	1123.48
568.273	1079.3
568.475	1138.39
568.678	1066.32
568.881	1048.88
569.084	1041.71
569.287	939.61
569.489	1008.78
569.692	1105.26
569.895	1064
570.098	1002.77
570.3	1004.32
570.503	966.73
570.706	1009.16
570.909	1011.49
571.111	966.15
571.314	944.07
571.516	975.65
571.719	989.21
571.922	977.2
572.124	980.68
572.327	966.93
572.529	923.14
572.732	975.45
572.935	980.1
573.137	1022.15
573.34	984.95
573.542	1008.58
573.745	1020.4
573.947	1001.61
574.15	978.17
574.352	963.05
574.554	1024.86
574.757	940.38
574.959	920.82
575.162	948.52
575.364	931.86
575.566	1053.92
575.769	952.98
575.971	991.92
576.173	861.72
576.376	934.96
576.578	993.66
576.78	1020.98
576.982	873.35
577.185	929.15
577.387	890.98
577.589	893.11
577.791	962.86
577.993	943.1
578.196	962.86
578.398	951.43
578.6	986.11
578.802	869.67
579.004	916.94
579.206	900.47
579.408	909.19
579.61	924.3
579.812	961.5
580.014	886.14
580.216	910.55
580.418	909.58
580.62	876.64
580.822	866.37
581.024	907.45
581.226	939.8
581.428	898.73
581.63	981.07
581.832	903.18
582.034	976.23
582.236	920.04
582.438	945.03
582.64	976.23
582.841	1002.38
583.043	1018.46
583.245	960.15
583.447	963.83
583.649	949.49
583.85	958.79
584.052	983.59
584.254	909.38
584.456	997.35
584.657	903.57
584.859	940.19
585.061	927.98
585.262	933.22
585.464	888.07
585.666	942.9
585.867	895.05
586.069	975.45
586.27	955.11
586.472	925.08
586.674	899.31
586.875	911.13
587.077	889.43
587.278	919.46
587.48	909
587.681	1003.93
587.883	933.41
588.084	848.35
588.285	874.51
588.487	897.57
588.688	900.86
588.89	843.9
589.091	840.02
589.292	844.29
589.494	818.9
589.695	819.49
589.896	771.05
590.098	744.31
590.299	822.2
590.5	754.39
590.702	805.92
590.903	809.02
591.104	896.99
591.305	819.87
591.507	895.24
591.708	842.93
591.909	836.92
592.11	919.46
592.311	907.64
592.512	845.84
592.714	814.26
592.915	807.47
593.116	835.37
593.317	835.18
593.518	840.8
593.719	829.37
593.92	866.76
594.121	904.15
594.322	851.84
594.523	842.35
594.724	800.69
594.925	858.43
595.126	875.87
595.327	859.59
595.528	879.35
595.729	847.19
595.929	834.99
596.13	855.91
596.331	844.87
596.532	860.95
596.733	904.93
596.934	899.5
597.135	865.99
597.335	912.87
597.536	816.97
597.737	865.02
597.938	846.8
598.138	843.9
598.339	838.09
598.54	881.1
598.74	866.18
598.941	845.64
599.142	875.48
599.342	894.85
599.543	817.94
599.744	846.42
599.944	859.98
600.145	804.18
600.345	856.3
600.546	924.88
600.746	902.6
600.947	939.8
601.147	859.01
601.348	911.52
601.548	827.43
601.749	862.89
601.949	828.59
602.15	861.72
602.35	830.72
602.551	886.14
602.751	817.94
602.951	830.72
603.152	813.29
603.352	858.24
603.552	841.96
603.753	892.14
603.953	860.17
604.153	863.85
604.354	864.63
604.554	853.59
604.754	834.21
604.954	772.99
605.155	864.63
605.355	839.64
605.555	877.8
605.755	897.18
605.955	856.49
606.155	877.42
606.356	851.45
606.556	876.45
606.756	846.8
606.956	771.44
607.156	905.32
607.356	788.29
607.556	870.44
607.756	833.63
607.956	913.07
608.156	834.6
608.356	811.54
608.556	850.49
608.756	836.73
608.956	791.39
609.156	846.61
609.356	804.76
609.556	798.56
609.755	828.2
609.955	798.56
610.155	826.65
610.355	834.21
610.555	811.16
610.755	834.79
610.954	751.29
611.154	839.44
611.354	847
611.554	782.29
611.753	804.57
611.953	783.45
612.153	849.9
612.352	835.57
612.552	773.76
612.752	779.77
612.951	785.77
613.151	805.92
613.351	775.51
613.55	772.02
613.75	813.67
613.949	823.75
614.149	817.55
614.348	816.19
614.548	734.24
614.747	726.88
614.947	765.62
615.146	697.62
615.346	815.8
615.545	780.16
615.745	767.56
615.944	822.39
616.144	778.61
616.343	808.44
616.542	754
616.742	787.13
616.941	765.43
617.14	733.27
617.34	758.65
617.539	773.57
617.738	730.94
617.938	817.55
618.137	737.53
618.336	729.97
618.535	764.46
618.734	766.79
618.934	764.27
619.133	732.49
619.332	760.2
619.531	719.51
619.73	757.1
619.929	795.46
620.128	762.52
620.328	811.16
620.527	726.68
620.726	765.62
620.925	751.29
621.124	751.48
621.323	764.66
621.522	694.33
621.721	731.14
621.92	702.66
622.119	757.68
622.318	703.43
622.517	755.36
622.715	710.21
622.914	689.87
623.113	690.45
623.312	676.11
623.511	752.06
623.71	710.79
623.909	703.24
624.107	775.31
624.306	679.02
624.505	718.16
624.704	678.44
624.902	693.94
625.101	754.58
625.3	699.36
625.499	716.99
625.697	703.24
625.896	693.36
626.095	720.29
626.293	655.38
626.492	675.73
626.69	711.76
626.889	692.97
627.088	725.33
627.286	697.23
627.485	657.51
627.683	674.76
627.882	723
628.08	626.13
628.279	700.33
628.477	755.74
628.676	651.89
628.874	666.43
629.073	643.37
629.271	648.21
629.469	704.59
629.668	665.84
629.866	656.35
630.065	667.59
630.263	728.42
630.461	646.28
630.66	673.4
630.858	687.74
631.056	714.28
631.254	719.71
631.453	650.34
631.651	685.03
631.849	650.54
632.047	661
632.245	675.73
632.444	668.17
632.642	711.57
632.84	686.58
633.038	665.65
633.236	633.49
633.434	650.34
633.632	642.4
633.83	675.73
634.028	701.49
634.227	675.92
634.425	726.88
634.623	697.04
634.821	689.87
635.019	711.96
635.216	636.01
635.414	723
635.612	692.39
635.81	676.89
636.008	738.5
636.206	693.94
636.404	689.68
636.602	650.34
636.8	662.94
636.997	687.74
637.195	715.06
637.393	680.38
637.591	706.34
637.789	674.56
637.986	654.22
638.184	696.46
638.382	739.86
638.58	716.41
638.777	739.47
638.975	678.44
639.173	661.19
639.37	683.09
639.568	672.63
639.765	687.74
639.963	652.09
640.161	722.61
640.358	734.43
640.556	628.26
640.753	642.21
640.951	640.85
641.148	663.91
641.346	661.19
641.543	694.52
641.741	678.63
641.938	603.46
642.136	700.14
642.333	640.46
642.531	683.86
642.728	694.71
642.925	639.69
643.123	635.23
643.32	662.55
643.517	633.88
643.715	668.75
643.912	632.52
644.109	715.64
644.306	625.93
644.504	580.21
644.701	630.39
644.898	662.55
645.095	617.6
645.293	643.18
645.49	661.58
645.687	644.92
645.884	649.38
646.081	585.25
646.278	635.62
646.475	620.7
646.672	624.96
646.87	642.79
647.067	636.78
647.264	651.12
647.461	588.93
647.658	560.45
647.855	654.99
648.052	610.24
648.249	517.63
648.446	605.78
648.642	574.98
648.839	593
649.036	584.47
649.233	557.93
649.43	546.3
649.627	545.33
649.824	569.16
650.021	579.63
650.217	550.76
650.414	570.52
650.611	609.66
650.808	592.22
651.004	588.15
651.201	602.49
651.398	648.21
651.595	585.05
651.791	552.7
651.988	647.24
652.185	575.95
652.381	599.58
652.578	521.5
652.775	576.72
652.971	560.83
653.168	593.96
653.364	628.65
653.561	524.02
653.757	572.65
653.954	594.55
654.15	583.31
654.347	648.79
654.543	581.76
654.74	539.72
654.936	546.69
655.133	555.41
655.329	589.7
655.525	581.18
655.722	580.79
655.918	553.08
656.115	577.69
656.311	525.38
656.507	484.3
656.704	487.6
656.9	479.27
657.096	455.05
657.292	461.25
657.489	578.66
657.685	531.77
657.881	531.38
658.077	527.12
658.273	535.26
658.47	586.02
658.666	551.73
658.862	578.27
659.058	533.52
659.254	593.58
659.45	529.45
659.646	562.77
659.842	520.15
660.038	589.7
660.234	510.27
660.43	561.22
660.626	618.96
660.822	592.03
661.018	618.38
661.214	543.78
661.41	518.02
661.606	570.91
661.802	586.6
661.998	558.51
662.194	499.61
662.39	598.03
662.586	568.58
662.781	589.12
662.977	595.13
663.173	598.42
663.369	558.7
663.564	594.16
663.76	602.3
663.956	539.72
664.152	588.54
664.347	507.17
664.543	554.83
664.739	548.43
664.934	494.38
665.13	491.08
665.326	583.11
665.521	542.23
665.717	506.58
665.912	499.03
666.108	449.82
666.304	553.28
666.499	502.71
666.695	502.13
666.89	544.17
667.086	552.31
667.281	537
667.477	603.46
667.672	559.48
667.867	528.48
668.063	583.31
668.258	504.26
668.454	545.92
668.649	603.65
668.844	528.28
669.04	578.08
669.235	521.31
669.43	523.83
669.626	483.53
669.821	526.15
670.016	512.01
670.211	539.52
670.407	512.98
670.602	536.62
670.797	526.54
670.992	568.97
671.187	476.17
671.382	556.96
671.578	481.4
671.773	523.25
671.968	483.53
672.163	507.36
672.358	536.81
672.553	481.98
672.748	498.45
672.943	580.79
673.138	521.7
673.333	554.25
673.528	500.58
673.723	514.92
673.918	514.33
674.113	468.8
674.308	578.85
674.503	537
674.698	568.97
674.892	538.94
675.087	559.48
675.282	545.92
675.477	506.58
675.672	563.74
675.867	517.43
676.061	476.94
676.256	452.92
676.451	499.22
676.646	511.62
676.84	465.51
677.035	478.3
677.23	458.73
677.424	519.95
677.619	527.51
677.814	553.86
678.008	559.86
678.203	456.21
678.397	476.75
678.592	517.43
678.787	547.85
678.981	493.6
679.176	514.72
679.37	497.28
679.565	480.43
679.759	524.22
679.954	549.6
680.148	552.12
680.342	550.18
680.537	523.63
680.731	513.95
680.926	538.17
681.12	540.49
681.314	495.35
681.509	491.28
681.703	547.47
681.897	512.01
682.092	487.79
682.286	499.22
682.48	587.96
682.674	535.26
682.869	499.42
683.063	488.57
683.257	555.6
683.451	482.17
683.645	537.39
683.839	528.28
684.034	517.24
684.228	563.16
684.422	506.58
684.616	482.56
684.81	521.31
685.004	526.54
685.198	506.58
685.392	559.86
685.586	491.86
685.78	541.46
685.974	548.05
686.168	533.32
686.362	598.81
686.556	478.1
686.75	425.99
686.944	464.93
687.138	502.9
687.331	394.02
687.525	454.47
687.719	382.39
687.913	436.06
688.107	454.47
688.301	422.69
688.494	445.55
688.688	422.11
688.882	388.59
689.076	338.02
689.269	437.03
689.463	508.91
689.657	418.43
689.85	423.47
690.044	407.39
690.238	432.38
690.431	444.59
690.625	433.35
690.818	473.84
691.012	484.5
691.205	497.87
691.399	488.76
691.593	473.07
691.786	579.82
691.98	560.06
692.173	550.18
692.366	554.63
692.56	533.71
692.753	619.54
692.947	514.53
693.14	587.96
693.333	594.35
693.527	497.48
693.72	578.85
693.914	525.77
694.107	537.2
694.3	581.37
694.493	541.46
694.687	580.79
694.88	550.76
695.073	637.95
695.266	602.3
695.46	568
695.653	629.23
695.846	629.23
696.039	571.88
696.232	611.98
696.425	614.7
696.618	632.13
696.812	618.18
697.005	704.21
697.198	741.99
697.391	706.92
697.584	708.86
697.777	748.77
697.97	709.05
698.163	734.04
698.356	698.2
698.549	797.4
698.742	760.59
698.935	716.8
699.127	740.63
699.32	727.84
699.513	680.76
699.706	765.24
699.899	750.9
700.092	730.36
700.285	761.56
700.477	723
700.67	782.29
700.863	782.67
701.056	861.53
701.248	830.53
701.441	841.96
701.634	787.91
701.826	892.14
702.019	790.81
702.212	875.29
702.404	804.57
702.597	812.51
702.79	836.73
702.982	833.82
703.175	875.09
703.367	924.11
703.56	901.25
703.752	946
703.945	937.28
704.137	948.91
704.33	949.88
704.522	967.9
704.715	949.49
704.907	979.72
705.1	984.17
705.292	1012.85
705.484	996.57
705.677	1003.35
705.869	1044.81
706.061	1070.78
706.254	1081.24
706.446	1030.67
706.638	1026.99
706.831	1107.2
707.023	1064.77
707.215	1147.31
707.407	1117.86
707.599	1077.94
707.792	1152.54
707.984	1118.05
708.176	1164.55
708.368	1170.75
708.56	1190.9
708.752	1157.96
708.944	1179.08
709.136	1190.51
709.329	1176.17
709.521	1268.59
709.713	1262.78
709.905	1264.33
710.097	1295.33
710.289	1225.58
710.481	1234.69
710.672	1288.35
710.864	1283.12
711.056	1347.83
711.248	1301.34
711.44	1342.99
711.632	1323.23
711.824	1335.82
712.016	1379.8
712.207	1366.63
712.399	1359.65
712.591	1428.05
712.783	1371.86
712.975	1435.41
713.166	1358.1
713.358	1388.91
713.55	1497.02
713.741	1458.27
713.933	1452.65
714.125	1461.18
714.316	1438.51
714.508	1525.31
714.7	1490.24
714.891	1475.71
715.083	1594.86
715.274	1502.83
715.466	1539.84
715.657	1540.23
715.849	1453.81
716.04	1535.77
716.232	1467.18
716.423	1507.1
716.615	1449.16
716.806	1449.94
716.998	1430.95
717.189	1398.79
717.381	1339.5
717.572	1292.81
717.763	1326.91
717.955	1284.87
718.146	1315.09
718.337	1265.1
718.528	1228.1
718.72	1162.81
718.911	1258.32
719.102	1180.44
719.293	1263.55
719.485	1259.68
719.676	1223.64
719.867	1194
720.058	1197.68
720.249	1211.24
720.44	1239.53
720.632	1237.21
720.823	1300.37
721.014	1379.42
721.205	1406.93
721.396	1431.53
721.587	1501.67
721.778	1547.59
721.969	1561.93
722.16	1600.48
722.351	1601.84
722.542	1707.24
722.733	1689.02
722.924	1631.87
723.115	1687.86
723.305	1692.7
723.496	1678.76
723.687	1582.08
723.878	1615.01
724.069	1591.76
724.26	1651.24
724.45	1551.27
724.641	1549.14
724.832	1571.81
725.023	1572.19
725.213	1575.29
725.404	1570.64
725.595	1561.15
725.785	1575.88
725.976	1646.98
726.167	1618.5
726.357	1558.63
726.548	1701.23
726.739	1609.78
726.929	1661.12
727.12	1708.4
727.31	1697.74
727.501	1673.91
727.691	1712.08
727.882	1708.98
728.072	1735.91
728.263	1737.46
728.453	1732.04
728.644	1763.81
728.834	1788.8
729.024	1733.39
729.215	1779.5
729.405	1785.12
729.596	1822.9
729.786	1829.68
729.976	1847.9
730.167	1835.3
730.357	1826.78
730.547	1830.07
730.737	1860.49
730.928	1933.53
731.118	1918.42
731.308	1884.71
731.498	1887.61
731.688	1970.93
731.879	1976.93
732.069	1996.89
732.259	2008.13
732.449	2016.07
732.639	2096.67
732.829	2072.45
733.019	2149.37
733.209	2190.83
733.399	2207.88
733.589	2272.59
733.779	2246.43
733.969	2247.02
734.159	2296.42
734.349	2324.32
734.539	2352.03
734.729	2322
734.919	2389.03
735.109	2419.06
735.299	2386.71
735.488	2412.09
735.678	2370.63
735.868	2433.4
736.058	2419.26
736.248	2362.3
736.437	2375.08
736.627	2349.9
736.817	2466.34
737.007	2406.47
737.196	2455.29
737.386	2451.81
737.576	2428.36
737.765	2465.76
737.955	2453.55
738.144	2551.78
738.334	2519.42
738.524	2463.04
738.713	2501.02
738.903	2551.39
739.092	2553.72
739.282	2547.91
739.471	2558.76
739.661	2529.5
739.85	2541.71
740.04	2594.99
740.229	2588.79
740.419	2559.34
740.608	2613.97
740.797	2634.7
740.987	2663.18
741.176	2682.37
741.365	2591.3
741.555	2575.61
741.744	2634.12
741.933	2646.33
742.123	2690.31
742.312	2677.52
742.501	2684.11
742.69	2694.18
742.88	2603.32
743.069	2772.46
743.258	2665.7
743.447	2748.24
743.636	2746.69
743.825	2683.72
744.014	2689.73
744.204	2745.72
744.393	2678.49
744.582	2748.82
744.771	2799.78
744.96	2710.07
745.149	2742.43
745.338	2706.2
745.527	2762.96
745.716	2752.89
745.905	2708.13
746.094	2813.34
746.283	2756.76
746.471	2788.93
746.66	2852.67
746.849	2791.25
747.038	2833.68
747.227	2787.38
747.416	2802.3
747.604	2768
747.793	2762
747.982	2813.53
748.171	2819.93
748.359	2785.25
748.548	2812.37
748.737	2786.41
748.926	2782.15
749.114	2722.08
749.303	2808.11
749.491	2764.32
749.68	2744.56
749.869	2834.65
750.057	2780.01
750.246	2730.03
750.434	2762.58
750.623	2801.52
750.811	2743.4
751	2814.11
751.188	2738.75
751.377	2775.95
751.565	2766.26
751.754	2708.13
751.942	2683.72
752.131	2759.09
752.319	2686.63
752.507	2663.77
752.696	2742.04
752.884	2761.22
753.072	2757.54
753.261	2716.47
753.449	2721.5
753.637	2678.1
753.825	2793.19
754.014	2710.46
754.202	2722.86
754.39	2772.46
754.578	2789.31
754.766	2697.28
754.955	2655.43
755.143	2800.16
755.331	2721.89
755.519	2702.13
755.707	2719.37
755.895	2665.32
756.083	2683.92
756.271	2644.2
756.459	2674.81
756.647	2751.92
756.835	2695.93
757.023	2676.36
757.211	2621.92
757.399	2640.9
757.587	2637.61
757.775	2583.55
757.963	2646.72
758.151	2636.06
758.339	2573.67
758.526	2565.92
758.714	2625.99
758.902	2536.28
759.09	2466.14
759.278	2279.76
759.465	2104.42
759.653	1870.76
759.841	1728.94
760.028	1449.75
760.216	1269.17
760.404	1229.65
760.591	996.18
760.779	858.24
760.967	728.81
761.154	626.71
761.342	672.24
761.529	632.91
761.717	689.87
761.905	677.47
762.092	726.29
762.28	662.36
762.467	668.36
762.655	609.08
762.842	644.53
763.029	663.33
763.217	669.14
763.404	692.78
763.592	731.91
763.779	653.64
763.966	704.79
764.154	736.56
764.341	779.19
764.528	770.27
764.716	808.25
764.903	865.99
765.09	936.12
765.277	977.2
765.465	1107.98
765.652	1135.68
765.839	1187.02
766.026	1313.15
766.213	1305.21
766.4	1427.27
766.588	1543.71
766.775	1520.46
766.962	1651.24
767.149	1698.13
767.336	1807.02
767.523	1760.71
767.71	1874.05
767.897	1957.36
768.084	2008.51
768.271	2039.9
768.458	2112.36
768.645	2154.6
768.832	2124.76
769.019	2144.91
769.206	2144.52
769.392	2210.79
769.579	2345.83
769.766	2285.57
769.953	2281.12
770.14	2373.34
770.327	2310.18
770.513	2397.17
770.7	2407.63
770.887	2314.05
771.073	2377.41
771.26	2349.31
771.447	2311.73
771.634	2314.05
771.82	2437.08
772.007	2322.77
772.193	2376.44
772.38	2427.39
772.567	2347.18
772.753	2366.56
772.94	2398.72
773.126	2389.81
773.313	2418.09
773.499	2395.23
773.686	2410.93
773.872	2337.11
774.059	2336.91
774.245	2309.6
774.432	2356.29
774.618	2259.03
774.804	2357.06
774.991	2295.26
775.177	2368.5
775.363	2323.35
775.55	2376.25
775.736	2301.26
775.922	2314.83
776.109	2324.13
776.295	2313.08
776.481	2316.96
776.667	2320.06
776.853	2274.92
777.04	2311.92
777.226	2305.33
777.412	2394.84
777.598	2277.43
777.784	2283.44
777.97	2243.72
778.156	2307.46
778.342	2262.13
778.528	2259.8
778.715	2222.8
778.901	2234.23
779.087	2305.53
779.272	2198.58
779.458	2203.81
779.644	2296.42
779.83	2195.48
780.016	2368.5
780.202	2229.19
780.388	2222.6
780.574	2191.99
780.76	2223.38
780.946	2259.03
781.131	2199.55
781.317	2237.91
781.503	2205.94
781.689	2166.22
781.874	2302.43
782.06	2197.61
782.246	2223.77
782.432	2229.38
782.617	2211.75
782.803	2243.14
782.989	2151.11
783.174	2174.75
783.36	2104.81
783.545	2140.07
783.731	2142.39
783.916	2087.56
784.102	2178.24
784.288	2088.14
784.473	2142.2
784.659	2123.41
784.844	2143.36
785.029	2066.25
785.215	2099.38
785.4	2045.52
785.586	2193.74
785.771	2066.25
785.956	2142.78
786.142	2120.31
786.327	2050.17
786.512	2105.97
786.698	2095.12
786.883	1988.36
787.068	2044.16
787.254	2042.03
787.439	2042.22
787.624	2054.04
787.809	2029.63
787.994	1980.42
788.18	2102.48
788.365	1924.43
788.55	1992.63
788.735	2009.87
788.92	1995.92
789.105	2010.84
789.29	2001.54
789.475	1949.81
789.66	1970.15
789.845	1973.44
790.03	1905.83
790.215	1970.34
790.4	1975.38
790.585	2022.85
790.77	1932.95
790.955	1846.73
791.14	1921.13
791.325	2017.43
791.51	1839.57
791.695	1936.63
791.879	1904.66
792.064	1883.16
792.249	1963.18
792.434	1872.31
792.618	1900.21
792.803	1944.58
792.988	1894.78
793.173	1915.9
793.357	1959.49
793.542	1881.03
793.727	1918.23
793.911	1945.16
794.096	1895.17
794.281	1941.67
794.465	2034.48
794.65	1938.76
794.834	1924.62
795.019	1993.79
795.203	2026.92
795.388	1999.6
795.572	2007.93
795.757	1967.44
795.941	1924.04
796.126	1940.51
796.31	1907.57
796.494	1945.93
796.679	1923.26
796.863	1913.58
797.048	1971.7
797.232	1959.49
797.416	1969.18
797.601	1936.63
797.785	2034.48
797.969	1953.1
798.153	1924.23
798.338	1952.91
798.522	2027.31
798.706	1984.29
798.89	1982.94
799.074	2020.14
799.258	2031.96
799.443	1984.29
799.627	1980.42
799.811	2016.07
799.995	1932.95
800.179	1918.23
800.363	1940.12
800.547	1961.82
800.731	2028.86
800.915	1901.37
801.099	1954.84
801.283	1966.08
801.467	1935.86
801.651	1935.08
801.835	2007.93
802.019	1943.22
802.202	1984.1
802.386	1936.63
802.57	1885.1
802.754	1940.7
802.938	1880.06
803.121	1926.95
803.305	1998.44
803.489	1953.29
803.673	1976.54
803.856	1924.81
804.04	1945.55
804.224	1941.28
804.407	1942.25
804.591	1942.06
804.775	1943.22
804.958	1954.65
805.142	2043.39
805.326	1936.83
805.509	1925.2
805.693	2005.8
805.876	2007.74
806.06	1961.63
806.243	1978.87
806.427	2008.51
806.61	2036.8
806.794	1979.84
806.977	2013.94
807.16	1992.24
807.344	1964.34
807.527	1981.78
807.71	1949.23
807.894	1968.6
808.077	2053.07
808.26	1929.46
808.444	1910.86
808.627	2008.51
808.81	1925.2
808.993	1862.82
809.177	1888.58
809.36	1898.27
809.543	1917.84
809.726	1855.45
809.909	1861.65
810.092	1826.39
810.276	1829.3
810.459	1824.45
810.642	1862.04
810.825	1795.2
811.008	1803.92
811.191	1735.72
811.374	1733.39
811.557	1791.13
811.74	1822.13
811.923	1748.5
812.106	1710.92
812.289	1694.64
812.472	1702
812.654	1719.44
812.837	1651.24
813.02	1614.43
813.203	1597.96
813.386	1485.59
813.569	1584.59
813.751	1506.9
813.934	1537.13
814.117	1516.01
814.3	1489.08
814.482	1424.56
814.665	1416.81
814.848	1423.78
815.03	1316.84
815.213	1376.51
815.396	1338.73
815.578	1299.4
815.761	1274.99
815.943	1374.96
816.126	1250.96
816.309	1233.91
816.491	1205.24
816.674	1154.09
816.856	1225.77
817.039	1204.46
817.221	1291.45
817.403	1248.44
817.586	1251.35
817.768	1263.36
817.951	1144.4
818.133	1167.65
818.315	1218.8
818.498	1224.03
818.68	1269.17
818.862	1257.35
819.045	1265.3
819.227	1261.42
819.409	1232.56
819.591	1230.04
819.774	1234.3
819.956	1211.63
820.138	1292.42
820.32	1273.44
820.502	1313.35
820.684	1355.97
820.866	1361.78
821.048	1377.67
821.231	1391.04
821.413	1377.09
821.595	1350.16
821.777	1386.39
821.959	1340.28
822.141	1403.25
822.323	1326.14
822.505	1267.82
822.686	1239.34
822.868	1197.29
823.05	1131.81
823.232	1116.89
823.414	1037.06
823.596	1102.94
823.778	1107.59
823.96	1135.1
824.141	1102.16
824.323	1141.69
824.505	1188.77
824.687	1226.94
824.868	1271.89
825.05	1361.01
825.232	1354.23
825.413	1412.74
825.595	1349.38
825.777	1295.14
825.958	1363.72
826.14	1354.03
826.321	1369.73
826.503	1314.12
826.685	1344.35
826.866	1394.92
827.048	1391.23
827.229	1326.91
827.411	1273.24
827.592	1260.45
827.773	1273.05
827.955	1223.84
828.136	1250.57
828.318	1194.39
828.499	1254.64
828.68	1197.1
828.862	1216.86
829.043	1259.29
829.224	1213.57
829.406	1187.61
829.587	1226.55
829.768	1177.92
829.949	1251.54
830.131	1194
830.312	1293.78
830.493	1214.92
830.674	1255.61
830.855	1183.92
831.036	1197.49
831.218	1269.17
831.399	1281.96
831.58	1217.06
831.761	1246.31
831.942	1253.09
832.123	1232.56
832.304	1167.65
832.485	1180.24
832.666	1223.45
832.847	1257.94
833.028	1242.44
833.209	1205.04
833.389	1204.66
833.57	1164.36
833.751	1198.65
833.932	1266.07
834.113	1216.47
834.294	1225.39
834.475	1200.39
834.655	1274.99
834.836	1260.84
835.017	1258.32
835.198	1170.75
835.378	1225
835.559	1286.8
835.74	1198.65
835.92	1189.16
836.101	1206.79
836.281	1247.47
836.462	1260.65
836.643	1264.72
836.823	1278.09
837.004	1272.08
837.184	1319.35
837.365	1299.59
837.545	1295.33
837.726	1273.24
837.906	1356.17
838.087	1263.55
838.267	1254.06
838.448	1249.61
838.628	1252.51
838.808	1251.93
838.989	1306.95
839.169	1240.89
839.349	1316.25
839.53	1285.25
839.71	1301.34
839.89	1251.54
840.07	1343.77
840.251	1253.67
840.431	1289.13
840.611	1300.37
840.791	1250.19
840.971	1279.05
841.151	1260.26
841.332	1236.82
841.512	1301.72
841.692	1205.62
841.872	1259.1
842.052	1251.74
842.232	1263.94
842.412	1215.31
842.592	1253.09
842.772	1280.6
842.952	1297.07
843.132	1220.35
843.312	1248.25
843.492	1214.54
843.672	1274.99
843.851	1193.61
844.031	1221.12
844.211	1238.17
844.391	1212.99
844.571	1221.51
844.751	1270.72
844.93	1231.59
845.11	1217.83
845.29	1249.61
845.47	1262.78
845.649	1206.4
845.829	1281.38
846.009	1212.21
846.188	1258.52
846.368	1249.02
846.547	1213.57
846.727	1263.36
846.907	1211.05
847.086	1212.41
847.266	1269.75
847.445	1230.04
847.625	1200.97
847.804	1190.51
847.984	1225.39
848.163	1171.14
848.343	1173.07
848.522	1209.11
848.701	1216.86
848.881	1199.81
849.06	1194.97
849.239	1189.93
849.419	1208.14
849.598	1121.34
849.777	1144.4
849.957	1153.51
850.136	1086.08
850.315	1076.4
850.494	1067.1
850.674	1056.25
850.853	1142.46
851.032	1087.44
851.211	1153.51
851.39	1107.98
851.569	1052.76
851.748	1076.4
851.927	1157.96
852.107	1097.51
852.286	1084.73
852.465	1078.91
852.644	1128.9
852.823	1136.65
853.002	1105.07
853.181	1093.44
853.359	1133.36
853.538	1054.11
853.717	1140.72
853.896	1015.36
854.075	1004.9
854.254	966.73
854.433	940.97
854.611	1006.45
854.79	931.86
854.969	977.97
855.148	959.57
855.327	946.78
855.505	977.58
855.684	979.72
855.863	994.83
856.041	977.2
856.22	1025.63
856.399	964.99
856.577	1070
856.756	1048.3
856.934	1147.31
857.113	1122.51
857.291	1075.23
857.47	1015.56
857.648	1094.03
857.827	1070.2
858.005	1095.96
858.184	1055.28
858.362	1119.99
858.541	1059.54
858.719	1061.48
858.898	1041.52
859.076	1047.14
859.254	1110.11
859.433	1020.01
859.611	1033.96
859.789	1001.8
859.967	1058.76
860.146	1124.83
860.324	990.95
860.502	1004.71
860.68	966.35
860.859	1004.32
861.037	1044.62
861.215	1012.07
861.393	1032.8
861.571	1006.65
861.749	989.02
861.927	1024.47
862.105	1003.74
862.283	999.67
862.461	997.54
862.639	942.13
862.817	973.32
862.995	1023.89
863.173	984.95
863.351	1014.4
863.529	987.47
863.707	1041.91
863.885	991.34
864.063	924.88
864.241	958.4
864.418	1030.67
864.596	927.4
864.774	927.21
864.952	992.5
865.129	996.38
865.307	918.3
865.485	916.55
865.663	1012.85
865.84	905.12
866.018	948.91
866.196	809.41
866.373	865.21
866.551	812.32
866.728	784.03
866.906	835.18
867.084	840.8
867.261	871.99
867.439	876.25
867.616	894.47
867.794	898.15
867.971	913.65
868.149	921.78
868.326	919.46
868.503	936.51
868.681	927.98
868.858	876.45
869.035	855.72
869.213	929.34
869.39	880.13
869.567	960.92
869.745	870.05
869.922	917.52
870.099	901.05
870.276	952.59
870.454	899.7
870.631	914.81
870.808	869.47
870.985	914.42
871.162	981.27
871.339	924.69
871.517	866.76
871.694	845.45
871.871	872.96
872.048	893.11
872.225	864.63
872.402	911.13
872.579	812.71
872.756	928.18
872.933	818.32
873.11	867.92
873.287	893.11
873.463	841.57
873.64	802.63
873.817	871.41
873.994	826.46
874.171	837.12
874.348	863.08
874.524	786.94
874.701	861.72
874.878	811.16
875.055	864.05
875.231	836.54
875.408	864.24
875.585	798.17
875.762	848.94
875.938	841.77
876.115	821.42
876.291	819.1
876.468	806.31
876.645	763.49
876.821	802.82
876.998	802.05
877.174	825.69
877.351	824.33
877.527	783.45
877.704	806.89
877.88	801.47
878.057	774.73
878.233	842.74
878.409	761.94
878.586	841.96
878.762	794.88
878.938	772.02
879.115	715.06
879.291	799.53
879.467	739.47
879.644	763.11
879.82	801.47
879.996	758.07
880.172	734.82
880.349	754.39
880.525	802.82
880.701	729.78
880.877	739.47
881.053	750.9
881.229	741.99
881.405	791.78
881.581	734.62
881.757	761.17
881.933	769.89
882.109	779.96
882.285	751.48
882.461	735.4
882.637	740.05
882.813	691.42
882.989	743.54
883.165	778.61
883.341	716.61
883.517	784.81
883.693	785.19
883.869	803.79
884.044	727.84
884.22	755.16
884.396	803.21
884.572	782.48
884.747	795.85
884.923	739.47
885.099	776.09
885.275	784.42
885.45	710.02
885.626	736.17
885.801	735.79
885.977	730.56
886.153	673.98
886.328	747.61
886.504	713.89
886.679	749.54
886.855	694.52
887.03	758.65
887.206	778.22
887.381	744.7
887.557	780.93
887.732	747.61
887.908	756.91
888.083	784.22
888.258	715.25
888.434	720.87
888.609	715.83
888.784	798.95
888.96	747.8
889.135	746.64
889.31	684.06
889.485	744.89
889.661	740.82
889.836	774.34
890.011	777.64
890.186	713.31
890.361	714.67
890.537	719.71
890.712	745.67
890.887	767.17
891.062	722.81
891.237	789.65
891.412	701.3
891.587	723.97
891.762	787.32
891.937	773.76
892.112	684.25
892.287	748.38
892.462	711.38
892.637	679.41
892.812	678.83
892.987	676.5
893.161	675.34
893.336	682.7
893.511	707.31
893.686	704.98
893.861	663.71
894.035	664.29
894.21	673.59
894.385	635.43
894.56	673.01
894.734	593.96
894.909	622.06
895.084	626.9
895.258	626.71
895.433	625.55
895.608	595.71
895.782	549.6
895.957	603.26
896.131	573.43
896.306	536.42
896.48	544.37
896.655	556.76
896.829	485.66
897.004	480.43
897.178	494.57
897.353	481.98
897.527	547.47
897.701	519.37
897.876	450.4
898.05	571.68
898.224	522.08
898.399	557.15
898.573	487.79
898.747	438.19
898.921	494.57
899.096	423.08
899.27	410.49
899.444	422.3
899.618	416.3
899.792	451.37
899.967	418.04
900.141	470.55
900.315	419.79
900.489	431.02
900.663	454.66
900.837	450.4
901.011	380.84
901.185	491.67
901.359	459.31
901.533	438.77
901.707	452.53
901.881	450.2
902.055	376.77
902.229	429.28
902.403	478.1
902.576	457.18
902.75	439.35
902.924	554.63
903.098	498.25
903.272	526.15
903.446	530.42
903.619	512.98
903.793	556.57
903.967	501.93
904.14	580.4
904.314	546.69
904.488	541.46
904.661	585.25
904.835	522.28
905.009	569.94
905.182	614.7
905.356	566.06
905.529	570.52
905.703	514.92
905.876	544.56
906.05	489.15
906.223	506.97
906.397	439.35
906.57	451.17
906.744	435.09
906.917	419.01
907.09	439.16
907.264	429.67
907.437	415.14
907.61	373.09
907.784	391.69
907.957	420.56
908.13	367.28
908.304	437.22
908.477	390.92
908.65	389.95
908.823	378.52
908.996	454.66
909.17	381.04
909.343	368.06
909.516	411.07
909.689	382.78
909.862	363.99
910.035	393.24
910.208	378.52
910.381	333.37
910.554	444
910.727	373.09
910.9	376.77
911.073	352.75
911.246	446.14
911.419	428.12
911.592	419.01
911.765	343.84
911.938	356.24
912.11	377.74
912.283	360.31
912.456	421.14
912.629	372.71
912.802	362.24
912.974	338.41
913.147	303.15
913.32	285.13
913.493	318.84
913.665	314.19
913.838	328.34
914.01	324.46
914.183	307.02
914.356	306.64
914.528	357.79
914.701	412.04
914.873	380.45
915.046	333.57
915.218	317.68
915.391	257.04
915.563	283
915.736	345.97
915.908	309.93
916.081	328.92
916.253	321.94
916.425	355.07
916.598	331.05
916.77	346.36
916.942	316.52
917.115	242.7
917.287	322.72
917.459	297.53
917.632	275.44
917.804	234.76
917.976	304.89
918.148	276.8
918.32	312.45
918.493	353.91
918.665	351.78
918.837	320.39
919.009	410.68
919.181	380.84
919.353	355.27
919.525	313.61
919.697	348.29
919.869	328.53
920.041	403.9
920.213	464.54
920.385	377.36
920.557	360.89
920.729	368.06
920.901	348.87
921.073	365.15
921.244	339.19
921.416	424.24
921.588	357.01
921.76	339.57
921.932	399.05
922.103	356.04
922.275	334.34
922.447	347.91
922.619	300.24
922.79	338.61
922.962	331.05
923.134	365.54
923.305	269.24
923.477	297.72
923.648	304.7
923.82	335.7
923.991	269.05
924.163	248.51
924.335	286.88
924.506	286.1
924.677	344.03
924.849	276.41
925.02	303.73
925.192	322.72
925.363	290.75
925.535	310.12
925.706	303.54
925.877	333.96
926.049	290.56
926.22	288.81
926.391	301.6
926.562	324.85
926.734	280.87
926.905	341.32
927.076	243.48
927.247	264.01
927.419	233.4
927.59	253.74
927.761	253.16
927.932	219.45
928.103	278.74
928.274	214.03
928.445	226.23
928.616	221.78
928.787	214.61
928.958	257.43
929.129	224.49
929.3	199.5
929.471	180.12
929.642	140.21
929.813	98.75
929.984	193.49
930.155	76.66
930.326	177.8
930.496	138.66
930.667	74.72
930.838	135.75
931.009	67.36
931.18	125.87
931.35	118.9
931.521	144.66
931.692	86.54
931.863	54.18
932.033	91.58
932.204	88.67
932.374	85.38
932.545	69.3
932.716	115.8
932.886	134.59
933.057	34.62
933.227	65.81
933.398	113.86
933.568	27.64
933.739	-8.2
933.909	28.42
934.08	115.22
934.25	18.92
934.421	8.27
934.591	41.4
934.761	21.44
934.932	-27
935.102	27.84
935.272	18.15
935.443	37.52
935.613	16.79
935.783	44.3
935.953	-14.01
936.123	166.95
936.294	-16.73
936.464	19.5
936.634	45.08
936.804	-40.75
936.974	-8.4
937.144	41.01
937.314	42.37
937.484	9.04
937.655	0.32
937.825	76.85
937.995	5.17
938.165	64.84
938.334	39.85
938.504	0.32
938.674	7.49
938.844	48.57
939.014	66.97
939.184	66.58
939.354	133.23
939.524	96.42
939.694	59.03
939.863	36.75
940.033	105.33
940.203	96.81
940.373	53.41
940.542	102.43
940.712	52.44
940.882	108.43
941.051	85.96
941.221	96.62
941.391	114.05
941.56	28.8
941.73	52.83
941.899	164.62
942.069	45.27
942.238	88.67
942.408	49.34
942.577	89.06
942.747	55.15
942.916	-14.79
943.086	24.74
943.255	78.79
943.425	85.96
943.594	35.78
943.763	-12.66
943.933	28.61
944.102	-13.82
944.271	15.05
944.441	40.23
944.61	31.9
944.779	34.81
944.948	131.88
945.117	20.86
945.287	43.33
945.456	-4.91
945.625	22.02
945.794	59.61
945.963	8.07
946.132	48.76
946.301	28.42
946.47	70.46
946.639	-8.98
946.808	12.92
946.977	67.94
947.146	98.55
947.315	32.87
947.484	67.17
947.653	22.22
947.822	29.19
947.991	23.19
948.16	133.04
948.329	93.13
948.498	34.23
948.666	56.9
948.835	54.96
949.004	-4.52
949.173	8.27
949.341	47.79
949.51	62.13
949.679	87.51
949.847	66.39
950.016	130.13
950.185	96.62
950.353	25.32
950.522	36.94
950.69	107.66
950.859	32.87
951.028	100.68
951.196	46.24
951.365	27.64
951.533	24.35
951.701	78.21
951.87	78.02
952.038	10.2
952.207	60.38
952.375	134.4
952.543	19.31
952.712	50.12
952.88	27.84
953.048	92.93
953.217	50.12
953.385	38.68
953.553	83.44
953.721	16.6
953.89	29.38
954.058	3.62
954.226	24.35
954.394	54.18
954.562	4.2
954.73	45.66
954.898	47.21
955.067	77.43
955.235	49.34
955.403	81.7
955.571	112.89
955.739	51.86
955.907	19.12
956.075	57.28
956.243	25.51
956.41	61.93
956.578	4.78
956.746	-1.81
956.914	41.2
957.082	59.8
957.25	78.98
957.418	21.25
957.585	38.49
957.753	70.65
957.921	9.43
958.089	26.87
958.256	93.32
958.424	52.44
958.592	78.4
958.759	23.38
958.927	79.37
959.095	35
959.262	64.65
959.43	67.36
959.597	14.66
959.765	30.16
959.932	15.63
960.1	68.91
960.267	58.83
960.435	32.87
960.602	81.31
960.77	21.83
960.937	-11.3
961.104	46.05
961.272	3.23
961.439	32.87
961.606	65.03
961.774	100.1
961.941	15.44
962.108	66
962.275	81.12
962.443	80.53
962.61	65.81
962.777	129.94
962.944	74.72
963.111	38.1
963.278	66.58
963.446	37.33
963.613	69.68
963.78	85.77
963.947	88.09
964.114	51.47
964.281	132.26
964.448	53.41
964.615	47.79
964.782	79.95
964.949	80.34
965.116	92.74
965.282	87.7
965.449	61.74
965.616	33.84
965.783	91.38
965.95	60.58
966.117	50.89
966.283	55.73
966.45	53.22
966.617	67.17
966.784	108.05
966.95	90.22
967.117	106.11
967.284	16.6
967.45	31.71
967.617	118.7
967.784	88.09
967.95	98.17
968.117	54.57
968.283	108.82
968.45	167.53
968.616	83.25
968.783	106.3
968.949	97.39
969.116	111.73
969.282	66
969.449	82.86
969.615	53.22
969.781	14.08
969.948	49.34
970.114	0.52
970.28	145.83
970.447	69.49
970.613	106.5
970.779	32.87
970.945	106.69
971.112	104.37
971.278	66.97
971.444	59.22
971.61	92.16
971.776	69.3
971.942	96.81
972.108	89.64
972.275	37.72
972.441	64.26
972.607	142.73
972.773	55.35
972.939	96.62
973.105	68.91
973.271	28.03
973.437	50.5
973.602	38.3
973.768	84.6
973.934	66
974.1	67.55
974.266	14.27
974.432	49.53
974.598	43.53
974.763	97.2
974.929	69.88
975.095	107.66
975.261	26.67
975.426	33.07
975.592	61.74
975.758	142.15
975.923	32.48
976.089	36.17
976.255	85.38
976.42	72.01
976.586	83.25
976.751	78.98
976.917	165.01
977.082	80.34
977.248	26.09
977.413	-3.75
977.579	48.95
977.744	63.87
977.91	8.46
978.075	68.52
978.24	67.55
978.406	53.99
978.571	34.42
978.736	27.84
978.902	67.94
979.067	28.03
979.232	-12.46
979.397	57.48
979.563	121.22
979.728	36.17
979.893	54.18
980.058	30.74
980.223	82.47
980.388	79.37
980.554	65.62
980.719	27.06
980.884	61.93
981.049	97.58
981.214	52.83
981.379	65.03
981.544	35.2
981.709	51.86
981.874	90.22
982.039	61.93
982.204	81.89
982.368	79.76
982.533	37.33
982.698	105.33
982.863	75.69
983.028	31.13
983.193	82.47
983.357	49.92
983.522	60.38
983.687	51.08
983.852	38.68
984.016	43.53
984.181	63.29
984.346	68.33
984.51	83.05
984.675	70.07
984.839	89.06
985.004	73.75
985.168	97.39
985.333	78.6
985.498	74.92
985.662	104.75
985.827	63.1
985.991	67.94
986.155	53.8
986.32	100.3
986.484	114.25
986.649	81.12
986.813	14.08
986.977	61.93
987.142	91.77
987.306	0.52
987.47	29.19
987.634	61.16
987.799	82.08
987.963	44.88
988.127	64.07
988.291	121.22
988.455	65.03
988.62	51.28
988.784	78.98
988.948	67.94
989.112	49.73
989.276	57.48
989.44	60.58
989.604	55.54
989.768	42.17
989.932	150.86
990.096	6.14
990.26	12.34
990.424	12.72
990.588	54.38
990.752	108.43
990.915	91.58
991.079	28.61
991.243	22.99
991.407	60.77
991.571	47.98
991.734	67.36
991.898	88.87
992.062	143.5
992.226	57.09
992.389	14.08
992.553	-4.71
992.717	9.82
992.88	25.9
993.044	54.38
993.207	42.37
993.371	68.13
993.535	66
993.698	58.45
993.862	79.18
994.025	130.13
994.189	55.73
994.352	68.72
994.515	56.12
994.679	87.12
994.842	48.76
995.006	70.85
995.169	33.45
995.332	9.62
995.496	87.51
995.659	16.99
995.822	59.22
995.985	54.77
996.149	86.35
996.312	43.92
996.475	85.57
996.638	32.1
996.801	101.65
996.964	128
997.128	35.39
997.291	39.85
997.454	69.3
997.617	10.79
997.78	100.49
997.943	17.95
998.106	85.77
998.269	38.49
998.432	24.74
998.595	48.95
998.758	-5.49
998.92	-2.58
999.083	-14.98
999.246	25.51
999.409	17.57
999.572	-33.78
999.735	20.28
999.897	78.6
1000.06	16.99
1000.223	39.65
1000.386	67.17
1000.548	64.26
1000.711	47.98
1000.874	72.01
1001.036	1.49
1001.199	72.78
1001.361	25.12
1001.524	29.38
1001.687	72.01
1001.849	33.07
1002.012	60
1002.174	47.02
1002.337	73.17
1002.499	44.88
1002.661	76.85
1002.824	-1.03
1002.986	5.94
1003.149	34.81
1003.311	-7.81
1003.473	87.12
1003.636	-10.72
1003.798	51.28
1003.96	63.87
1004.123	29.19
1004.285	11.95
1004.447	44.5
1004.609	22.6
1004.771	64.07
1004.933	4
1005.096	16.4
1005.258	5.94
1005.42	40.23
1005.582	78.4
1005.744	41.78
1005.906	-10.53
1006.068	29.97
1006.23	-12.66
1006.392	-25.25
1006.554	-2
1006.716	64.65
1006.878	55.35
1007.04	-22.54
1007.202	23.19
1007.363	33.65
1007.525	29.97
1007.687	54.77
1007.849	82.86
1008.011	-37.46
1008.172	0.13
1008.334	20.86
1008.496	51.86
1008.658	-9.95
1008.819	-15.37
1008.981	-20.21
1009.143	-11.11
1009.304	25.51
1009.466	85.38
1009.627	80.34
1009.789	129.75
1009.95	51.28
1010.112	15.82
1010.273	16.99
1010.435	6.72
1010.596	7.1
1010.758	0.52
1010.919	4.78
1011.081	-0.45
1011.242	24.35
1011.403	23.38
1011.565	17.95
1011.726	30.35
1011.887	-23.12
1012.049	-3.16
1012.21	55.15
1012.371	66.2
1012.532	-46.37
1012.693	13.3
1012.855	-30.68
1013.016	47.21
1013.177	57.09
1013.338	28.42
1013.499	82.67
1013.66	16.6
1013.821	40.43
1013.982	40.82
1014.143	24.74
1014.304	-10.91
1014.465	35.78
1014.626	58.83
1014.787	3.04
1014.948	96.23
1015.109	-48.89
1015.27	59.22
1015.431	-1.81
1015.592	10.79
1015.752	63.29
1015.913	18.92
1016.074	47.6
1016.235	22.22
1016.395	29.19
1016.556	15.44
1016.717	4.39
1016.877	66.97
1017.038	-0.06
1017.199	35.97
1017.359	18.73
1017.52	12.92
1017.681	10.2
1017.841	30.55
1018.002	19.12
1018.162	0.13
1018.323	68.33
1018.483	9.43
1018.644	29.19
1018.804	13.3
1018.964	-18.47
1019.125	-16.53
1019.285	41.01
1019.446	-3.94
1019.606	-21.96
1019.766	-35.13
1019.926	38.3
1020.087	21.44
1020.247	-26.22
1020.407	61.55
1020.567	71.82
1020.728	1.1
1020.888	-9.36
1021.048	4.59
1021.208	-45.79
1021.368	-6.26
1021.528	82.67
1021.688	31.13
1021.848	54.96
1022.008	28.8
1022.168	6.33
1022.328	18.73
1022.488	19.12
1022.648	-13.05
1022.808	7.3
1022.968	46.05
1023.128	-8.78
1023.288	0.71
1023.448	14.47
1023.608	17.18
1023.767	42.75
1023.927	2.84
1024.087	-32.03
1024.247	-23.31
1024.406	-10.72
1024.566	-22.54
1024.726	4
1024.885	8.27
1025.045	6.14
1025.205	8.07
1025.364	8.27
1025.524	-1.03
1025.683	-4.13
1025.843	32.48
1026.003	11.37
1026.162	58.64
1026.321	26.29
1026.481	6.91
1026.64	-3.75
1026.8	35.78
1026.959	5.75
1027.119	23.77
1027.278	28.61
1027.437	3.23
1027.597	20.67
1027.756	12.72
1027.915	12.14
1028.074	20.09
1028.234	-17.11
1028.393	23.77
1028.552	2.07
1028.711	-50.83
1028.87	31.13
1029.03	-23.7
1029.189	17.37
1029.348	-62.84
1029.507	-6.85
1029.666	-19.25
1029.825	-14.6
1029.984	-21.76
1030.143	6.72
1030.302	-6.26
1030.461	-50.25
1030.62	10.59
1030.779	21.64
1030.938	-20.21
1031.097	-23.51
1031.255	11.37
1031.414	54.38
1031.573	34.42
1031.732	-57.22
1031.891	2.84
1032.049	44.5
1032.208	38.49
1032.367	12.53
1032.525	-8.2
1032.684	12.14
1032.843	20.86
1033.001	-57.41
1033.16	114.25
1033.319	44.88
1033.477	24.35
1033.636	-8.4
1033.794	-43.08
1033.953	36.36
1034.111	21.44
1034.27	-29.71
1034.428	3.81
1034.587	-27.77
1034.745	11.95
1034.903	-5.49
1035.062	20.09
1035.22	-19.25
1035.378	47.02
1035.537	-59.16
1035.695	24.15
1035.853	0.9
1036.011	32.29
1036.17	27.64
1036.328	-47.73
1036.486	29.97
1036.644	-0.84
1036.802	-96.74
1036.96	-10.33
1037.119	-3.94
1037.277	-30.48
1037.435	-38.62
1037.593	-25.06
1037.751	13.5
1037.909	28.42
1038.067	28.42
