Data from pine_FLMT105791__62__17-21-02-078.txt Node

Date: Mon Mar 20 17:21:02 GMT 2023
User: antho
Spectrometer: FLMT10579
Trigger mode: 0
Integration Time (sec): 1.000000E-1
Scans to average: 10
Electric dark correction enabled: true
Nonlinearity correction enabled: false
Boxcar width: 0
XAxis mode: Wavelengths
Number of Pixels in Spectrum: 3648
>>>>>Begin Spectral Data<<<<<
345.248	-163.88
345.464	-163.88
345.681	-163.88
345.898	-154.97
346.114	-184.61
346.331	-36.59
346.548	43.82
346.764	6.04
346.981	-10.24
347.197	-18.76
347.414	14.95
347.631	-44.72
347.847	53.7
348.064	13.21
348.28	28.32
348.497	-47.24
348.713	-2.49
348.93	31.23
349.146	-4.23
349.363	-17.4
349.579	23.48
349.796	-19.15
350.012	-6.94
350.229	40.91
350.445	4.68
350.661	-2.1
350.878	-16.44
351.094	7.78
351.311	-5.97
351.527	11.85
351.743	0.23
351.96	27.16
352.176	43.24
352.392	0.23
352.609	21.15
352.825	26.38
353.041	3.52
353.257	-16.24
353.474	13.21
353.69	-4.62
353.906	22.7
354.122	-30.58
354.339	36.26
354.555	0.81
354.771	-20.31
354.987	60.68
355.203	57.77
355.42	-2.68
355.636	-15.27
355.852	-30
356.068	3.71
356.284	-37.75
356.5	67.46
356.716	1.19
356.932	-16.82
357.148	-0.94
357.364	-11.21
357.58	48.86
357.796	67.07
358.012	44.98
358.228	16.89
358.444	-54.41
358.66	38.39
358.876	30.45
359.092	2.36
359.308	25.22
359.524	23.67
359.74	-17.21
359.956	-25.74
360.172	1.97
360.388	26.19
360.604	-1.52
360.819	53.12
361.035	26.19
361.251	38.39
361.467	-41.82
361.683	44.01
361.898	29.09
362.114	45.18
362.33	22.12
362.546	24.44
362.762	4.88
362.977	13.59
363.193	-41.43
363.409	42.85
363.624	-30.77
363.84	-20.5
364.056	-7.52
364.271	16.69
364.487	8.17
364.703	-30.58
364.918	-39.3
365.134	-5.59
365.35	-12.76
365.565	121.51
365.781	-1.32
365.996	13.4
366.212	50.6
366.427	6.04
366.643	-12.95
366.858	-10.82
367.074	-10.04
367.289	36.65
367.505	100.2
367.72	-38.91
367.936	9.53
368.151	14.18
368.367	19.02
368.582	-6.75
368.798	-31.55
369.013	46.14
369.228	-26.51
369.444	13.59
369.659	43.82
369.874	-10.43
370.09	31.61
370.305	-73.01
370.52	-16.05
370.736	51.57
370.951	2.94
371.166	54.86
371.381	61.06
371.597	41.88
371.812	-17.02
372.027	3.33
372.242	6.23
372.458	80.24
372.673	-11.79
372.888	14.95
373.103	36.07
373.318	104.07
373.533	41.69
373.749	49.05
373.964	-65.26
374.179	77.14
374.394	-30.77
374.609	51.57
374.824	-28.25
375.039	54.67
375.254	-16.24
375.469	36.46
375.684	19.21
375.899	50.21
376.114	25.22
376.329	24.44
376.544	61.64
376.759	40.53
376.974	-14.5
377.189	12.24
377.404	1.39
377.619	50.41
377.834	-39.69
378.049	-31.94
378.264	-28.84
378.478	-17.4
378.693	-5.97
378.908	20.18
379.123	-22.25
379.338	38.78
379.553	22.7
379.767	11.27
379.982	41.69
380.197	12.63
380.412	15.92
380.626	27.16
380.841	102.14
381.056	6.62
381.271	53.89
381.485	-10.04
381.7	-21.67
381.915	12.43
382.129	-0.16
382.344	10.49
382.559	-3.26
382.773	35.1
382.988	-61.58
383.202	1.97
383.417	-21.47
383.632	105.82
383.846	30.26
384.061	17.08
384.275	1.19
384.49	32.97
384.704	38.01
384.919	5.26
385.133	16.89
385.348	46.14
385.562	-53.25
385.777	48.66
385.991	40.14
386.206	-7.33
386.42	4.49
386.634	39.36
386.849	7.01
387.063	27.35
387.277	-23.6
387.492	-13.72
387.706	-19.92
387.92	-26.7
388.135	20.38
388.349	6.43
388.563	11.08
388.778	16.69
388.992	23.09
389.206	30.84
389.42	111.05
389.635	31.03
389.849	13.98
390.063	48.66
390.277	11.46
390.491	95.55
390.706	46.14
390.92	27.54
391.134	-9.07
391.348	53.7
391.562	-51.7
391.776	15.34
391.99	-7.33
392.205	45.76
392.419	-21.47
392.633	6.43
392.847	56.03
393.061	11.85
393.275	72.88
393.489	24.06
393.703	26.19
393.917	62.61
394.131	-5.01
394.345	24.44
394.559	57.38
394.773	18.44
394.986	44.21
395.2	8.94
395.414	13.59
395.628	11.27
395.842	40.53
396.056	-16.24
396.27	-36.39
396.484	5.65
396.697	17.08
396.911	69.01
397.125	25.8
397.339	38.78
397.553	42.66
397.766	86.25
397.98	51.57
398.194	42.66
398.408	-0.55
398.621	13.59
398.835	29.29
399.049	8.94
399.262	56.99
399.476	33.36
399.69	49.44
399.903	87.8
400.117	28.71
400.331	38.2
400.544	16.69
400.758	119.57
400.971	-6.75
401.185	57.96
401.398	-17.99
401.612	69.2
401.826	43.63
402.039	52.54
402.253	-4.04
402.466	36.65
402.68	20.38
402.893	34.33
403.106	8.36
403.32	5.26
403.533	25.61
403.747	20.18
403.96	20.38
404.174	28.32
404.387	-5.39
404.6	20.57
404.814	54.86
405.027	21.15
405.24	12.82
405.454	15.14
405.667	53.31
405.88	-37.94
406.094	15.34
406.307	73.07
406.52	12.63
406.733	2.16
406.947	-19.15
407.16	63
407.373	60.68
407.586	-7.14
407.799	-1.32
408.012	41.3
408.226	39.94
408.439	75.21
408.652	-29.22
408.865	28.13
409.078	61.06
409.291	33.36
409.504	-19.34
409.717	50.79
409.93	40.53
410.143	16.69
410.357	-17.21
410.57	-6.75
410.783	18.24
410.996	32.78
411.209	13.21
411.421	52.54
411.634	27.35
411.847	-2.87
412.06	21.93
412.273	32
412.486	40.53
412.699	105.24
412.912	3.52
413.125	38.39
413.338	29.68
413.55	62.81
413.763	5.07
413.976	47.69
414.189	10.49
414.402	43.82
414.615	60.09
414.827	-34.26
415.04	55.06
415.253	37.43
415.466	54.86
415.678	76.17
415.891	29.09
416.104	36.84
416.316	24.64
416.529	-3.84
416.742	54.09
416.954	71.53
417.167	32.78
417.38	15.73
417.592	70.56
417.805	-4.23
418.017	5.65
418.23	61.45
418.442	13.79
418.655	-3.84
418.868	32.78
419.08	59.9
419.293	71.91
419.505	33.74
419.718	28.9
419.93	81.41
420.142	17.28
420.355	52.34
420.567	78.69
420.78	61.64
420.992	25.41
421.205	72.3
421.417	9.33
421.629	16.5
421.842	-3.07
422.054	15.73
422.266	59.71
422.479	64.36
422.691	23.48
422.903	60.09
423.115	14.37
423.328	2.74
423.54	59.9
423.752	9.91
423.964	15.14
424.177	28.71
424.389	55.64
424.601	153.09
424.813	62.81
425.025	94.97
425.238	39.75
425.45	34.91
425.662	54.67
425.874	336.76
426.086	45.95
426.298	54.09
426.51	35.68
426.722	24.06
426.934	43.04
427.146	82.76
427.358	14.18
427.57	55.64
427.782	23.86
427.994	45.37
428.206	14.76
428.418	-19.34
428.63	44.79
428.842	71.33
429.054	52.54
429.266	82.37
429.478	26.96
429.69	52.73
429.902	2.74
430.114	97.49
430.325	71.91
430.537	27.93
430.749	48.08
430.961	-8.11
431.173	41.69
431.384	64.74
431.596	-26.32
431.808	34.91
432.02	58.93
432.231	79.08
432.443	37.43
432.655	60.87
432.867	15.92
433.078	56.61
433.29	106.59
433.502	91.67
433.713	88.77
433.925	54.48
434.136	96.91
434.348	29.48
434.56	-11.59
434.771	129.65
434.983	-5.01
435.194	5.26
435.406	67.07
435.617	65.91
435.829	110.08
436.04	83.15
436.252	112.6
436.463	104.66
436.675	64.16
436.886	79.27
437.098	71.72
437.309	122.67
437.521	59.51
437.732	69.78
437.943	66.49
438.155	83.73
438.366	9.14
438.578	91.48
438.789	46.14
439	104.46
439.211	57.38
439.423	59.71
439.634	89.74
439.845	74.04
440.057	84.89
440.268	107.95
440.479	24.06
440.69	64.36
440.902	72.11
441.113	81.21
441.324	94.39
441.535	78.11
441.746	128.87
441.957	18.44
442.168	49.83
442.38	94.39
442.591	110.27
442.802	45.76
443.013	71.33
443.224	90.32
443.435	71.53
443.646	81.21
443.857	56.41
444.068	54.09
444.279	56.8
444.49	96.71
444.701	100.2
444.912	199.79
445.123	136.62
445.334	110.27
445.545	70.94
445.756	79.47
445.967	68.62
446.178	118.22
446.388	112.99
446.599	109.89
446.81	121.9
447.021	78.5
447.232	146.7
447.443	160.84
447.653	116.28
447.864	113.57
448.075	101.56
448.286	139.14
448.496	106.98
448.707	111.44
448.918	71.14
449.129	192.04
449.339	73.85
449.55	97.87
449.761	117.64
449.971	169.17
450.182	93.03
450.393	118.99
450.603	92.64
450.814	131.97
451.024	130.23
451.235	154.64
451.446	170.53
451.656	183.9
451.867	84.31
452.077	129.84
452.288	179.83
452.498	186.42
452.709	120.74
452.919	133.14
453.13	100.97
453.34	185.25
453.55	82.18
453.761	171.69
453.971	150.96
454.182	144.37
454.392	161.42
454.602	162.97
454.813	136.43
455.023	159.29
455.233	91.87
455.444	148.83
455.654	82.37
455.864	123.45
456.075	98.07
456.285	80.24
456.495	140.69
456.705	149.41
456.916	163.17
457.126	176.73
457.336	122.48
457.546	66.29
457.756	102.33
457.967	148.06
458.177	118.22
458.387	148.83
458.597	105.82
458.807	139.92
459.017	125.58
459.227	156
459.437	135.66
459.647	143.41
459.857	156.19
460.068	119.19
460.278	163.94
460.488	175.18
460.698	183.9
460.908	153.09
461.117	103.49
461.327	120.93
461.537	139.34
461.747	147.86
461.957	147.67
462.167	240.86
462.377	208.31
462.587	153.29
462.797	187.77
463.007	148.25
463.216	179.64
463.426	212.96
463.636	203.27
463.846	112.79
464.056	145.54
464.265	205.21
464.475	138.76
464.685	169.75
464.895	174.21
465.104	155.61
465.314	190.1
465.524	139.72
465.733	123.06
465.943	215.09
466.153	234.47
466.362	204.24
466.572	165.69
466.782	125
466.991	179.64
467.201	216.64
467.41	146.7
467.62	183.12
467.829	178.86
468.039	189.71
468.249	152.9
468.458	181.77
468.668	193.97
468.877	191.65
469.086	226.91
469.296	203.47
469.505	147.47
469.715	223.62
469.924	191.84
470.134	230.79
470.343	208.31
470.552	167.82
470.762	185.25
470.971	144.96
471.18	205.4
471.39	191.45
471.599	157.36
471.808	227.1
472.018	164.52
472.227	221.87
472.436	218.19
472.645	187
472.855	158.71
473.064	235.24
473.273	197.07
473.482	245.9
473.691	225.17
473.901	230.59
474.11	187.39
474.319	284.45
474.528	212.19
474.737	252.87
474.946	225.94
475.155	224.59
475.364	237.57
475.573	203.08
475.783	217.22
475.992	235.82
476.201	251.71
476.41	210.64
476.619	184.09
476.828	231.75
477.037	202.11
477.245	242.41
477.454	249.38
477.663	225.36
477.872	220.71
478.081	284.26
478.29	200.17
478.499	292.59
478.708	247.06
478.917	295.5
479.125	251.52
479.334	239.7
479.543	212.19
479.752	272.63
479.961	261.59
480.169	301.7
480.378	236.21
480.587	374.74
480.796	278.64
481.004	226.91
481.213	286
481.422	271.28
481.63	261.01
481.839	275.54
482.048	324.37
482.256	278.45
482.465	287.75
482.674	269.53
482.882	293.17
483.091	365.05
483.299	304.41
483.508	290.46
483.716	276.9
483.925	297.05
484.134	283.48
484.342	256.94
484.551	320.1
484.759	293.56
484.967	332.31
485.176	320.68
485.384	328.63
485.593	338.9
485.801	302.47
486.01	280.77
486.218	301.7
486.426	249
486.635	262.17
486.843	261.78
487.051	292.98
487.26	294.53
487.468	331.15
487.676	319.72
487.885	265.66
488.093	280.38
488.301	284.07
488.509	291.62
488.717	335.02
488.926	304.22
489.134	304.22
489.342	328.82
489.55	270.5
489.758	299.95
489.967	273.6
490.175	397.8
490.383	284.26
490.591	377.45
490.799	281.55
491.007	365.25
491.215	333.08
491.423	315.65
491.631	288.72
491.839	341.03
492.047	376.48
492.255	303.63
492.463	253.84
492.671	349.36
492.879	381.52
493.087	340.83
493.295	354.01
493.503	363.31
493.711	372.41
493.919	389.66
494.127	366.41
494.334	405.93
494.542	348.39
494.75	364.66
494.958	341.41
495.166	422.98
495.374	374.93
495.581	380.36
495.789	354.2
495.997	431.89
496.205	370.09
496.412	365.05
496.62	362.92
496.828	385.98
497.035	349.75
497.243	402.83
497.451	371.83
497.658	373.96
497.866	362.53
498.074	437.71
498.281	378.23
498.489	463.28
498.696	401.28
498.904	365.44
499.112	379
499.319	456.89
499.527	408.84
499.734	403.41
499.942	348.78
500.149	341.41
500.357	370.48
500.564	383.85
500.771	427.44
500.979	397.02
501.186	401.28
501.394	421.43
501.601	422.01
501.808	441.58
502.016	380.94
502.223	401.86
502.43	403.61
502.638	416.4
502.845	395.08
503.052	464.06
503.26	399.35
503.467	454.37
503.674	393.34
503.881	420.08
504.089	509.78
504.296	470.64
504.503	390.05
504.71	440.81
504.917	369.9
505.125	431.7
505.332	429.57
505.539	454.95
505.746	492.34
505.953	460.76
506.16	449.91
506.367	478.78
506.574	468.51
506.781	498.16
506.988	386.95
507.195	444.49
507.402	435.58
507.609	469.87
507.816	429.57
508.023	449.33
508.23	432.48
508.437	392.56
508.644	481.49
508.851	538.26
509.058	492.15
509.265	457.47
509.472	472.19
509.679	567.32
509.885	445.46
510.092	458.83
510.299	458.83
510.506	464.64
510.713	481.88
510.92	520.63
511.126	492.73
511.333	486.73
511.54	521.02
511.746	531.87
511.953	528.96
512.16	543.11
512.367	489.44
512.573	510.36
512.78	514.24
512.987	483.24
513.193	490.02
513.4	430.34
513.606	491.96
513.813	516.76
514.02	483.24
514.226	587.67
514.433	546.21
514.639	478.98
514.846	535.36
515.052	499.51
515.259	502.23
515.465	499.51
515.672	509.97
515.878	587.47
516.085	516.37
516.291	567.13
516.497	500.87
516.704	529.54
516.91	482.08
517.117	471.03
517.323	459.6
517.529	510.17
517.736	510.75
517.942	494.09
518.148	493.7
518.354	517.53
518.561	519.27
518.767	525.28
518.973	555.89
519.179	572.94
519.386	502.42
519.592	505.33
519.798	506.68
520.004	558.41
520.21	517.53
520.417	577.21
520.623	575.85
520.829	591.35
521.035	577.4
521.241	593.48
521.447	615.76
521.653	679.12
521.859	597.55
522.065	597.55
522.271	664.2
522.477	633.39
522.683	637.85
522.889	634.75
523.095	617.12
523.301	614.99
523.507	584.18
523.713	642.89
523.919	617.12
524.125	654.51
524.331	624.09
524.537	676.21
524.742	674.66
524.948	693.45
525.154	665.94
525.36	759.13
525.566	676.99
525.772	724.65
525.977	629.13
526.183	697.52
526.389	725.03
526.595	658.97
526.8	692.48
527.006	636.69
527.212	627.97
527.417	589.22
527.623	613.24
527.829	659.74
528.034	679.31
528.24	680.86
528.446	630.49
528.651	692.48
528.857	671.95
529.062	740.92
529.268	694.62
529.473	698.1
529.679	659.55
529.884	751.19
530.09	741.31
530.295	763.01
530.501	776.57
530.706	723.68
530.912	699.27
531.117	708.18
531.323	714.77
531.528	751.97
531.733	756.23
531.939	711.08
532.144	791.68
532.35	755.07
532.555	791.68
532.76	767.27
532.966	806.02
533.171	771.34
533.376	734.92
533.581	710.12
533.787	754.87
533.992	766.88
534.197	797.3
534.402	733.75
534.607	760.68
534.813	823.26
535.018	725.42
535.223	747.12
535.428	766.11
535.633	804.08
535.838	805.05
536.043	772.89
536.249	858.14
536.454	794.78
536.659	808.35
536.864	765.53
537.069	781.8
537.274	775.99
537.479	792.85
537.684	825.01
537.889	765.33
538.094	872.67
538.299	791.68
538.504	842.45
538.708	823.65
538.913	822.68
539.118	813.58
539.323	830.24
539.528	775.8
539.733	790.71
539.938	817.65
540.142	808.15
540.347	807.57
540.552	794.4
540.757	811.06
540.962	789.36
541.166	770.76
541.371	763.59
541.576	815.32
541.781	706.05
541.985	791.68
542.19	804.47
542.395	854.07
542.599	875.58
542.804	873.64
543.008	879.84
543.213	803.7
543.418	751.97
543.622	868.79
543.827	786.06
544.031	862.79
544.236	880.61
544.44	845.16
544.645	905.61
544.849	854.07
545.054	865.89
545.258	928.08
545.463	885.26
545.667	817.45
545.872	885.46
546.076	851.16
546.281	860.85
546.485	840.12
546.689	886.81
546.894	921.69
547.098	845.16
547.302	807.96
547.507	845.16
547.711	859.49
547.915	951.14
548.119	813.38
548.324	834.7
548.528	916.65
548.732	850.2
548.936	890.88
549.141	899.02
549.345	825.78
549.549	867.63
549.753	874.41
549.957	914.91
550.161	925.95
550.366	881.78
550.57	842.64
550.774	867.05
550.978	852.71
551.182	907.35
551.386	865.11
551.59	853.1
551.794	826.17
551.998	900.18
552.202	891.46
552.406	816.1
552.61	894.95
552.814	878.68
553.018	938.35
553.222	861.24
553.426	864.73
553.63	955.59
553.833	873.64
554.037	817.06
554.241	893.98
554.445	869.76
554.649	883.52
554.853	875.58
555.056	918.78
555.26	913.16
555.464	897.28
555.668	893.79
555.871	906.58
556.075	953.85
556.279	848.65
556.483	845.16
556.686	886.04
556.89	895.73
557.094	898.63
557.297	850
557.501	910.64
557.704	797.3
557.908	937.19
558.112	868.41
558.315	924.01
558.519	876.74
558.722	844.96
558.926	844.19
559.129	816.87
559.333	811.06
559.536	821.52
559.74	818.81
559.943	792.26
560.147	789.36
560.35	807.38
560.553	829.08
560.757	758.36
560.96	872.28
561.164	794.98
561.367	885.84
561.57	830.63
561.774	853.1
561.977	851.36
562.18	820.75
562.384	919.36
562.587	815.9
562.79	821.71
562.993	837.6
563.197	867.63
563.4	902.7
563.603	884.29
563.806	914.52
564.009	806.8
564.212	847.68
564.416	779.67
564.619	824.81
564.822	781.61
565.025	879.06
565.228	842.64
565.431	832.76
565.634	755.07
565.837	827.53
566.04	793.23
566.243	790.33
566.446	739.57
566.649	817.26
566.852	777.93
567.055	786.65
567.258	810.67
567.461	865.5
567.664	844.38
567.867	734.14
568.07	805.63
568.273	803.11
568.475	854.85
568.678	817.65
568.881	781.03
569.084	802.92
569.287	684.73
569.489	711.08
569.692	821.71
569.895	808.93
570.098	739.18
570.3	746.93
570.503	710.5
570.706	751.97
570.909	720.97
571.111	712.83
571.314	713.6
571.516	761.46
571.719	731.04
571.922	716.32
572.124	697.33
572.327	739.37
572.529	697.52
572.732	677.37
572.935	738.6
573.137	777.93
573.34	729.88
573.542	757
573.745	734.53
573.947	748.67
574.15	729.3
574.352	711.86
574.554	764.17
574.757	688.42
574.959	660.13
575.162	684.93
575.364	707.4
575.566	808.93
575.769	674.08
575.971	701.4
576.173	598.9
576.376	686.87
576.578	727.36
576.78	730.46
576.982	623.51
577.185	668.46
577.387	648.12
577.589	639.01
577.791	719.61
577.993	713.8
578.196	698.88
578.398	725.42
578.6	742.86
578.802	670.4
579.004	685.7
579.206	676.21
579.408	705.27
579.61	661.49
579.812	685.32
580.014	691.52
580.216	646.95
580.418	650.64
580.62	641.14
580.822	633
581.024	673.3
581.226	700.23
581.428	655.67
581.63	761.27
581.832	633.97
582.034	695
582.236	662.84
582.438	683.57
582.64	746.73
582.841	721.74
583.043	765.92
583.245	720.77
583.447	719.61
583.649	703.53
583.85	667.49
584.052	714.18
584.254	649.86
584.456	728.52
584.657	635.14
584.859	697.13
585.061	657.8
585.262	655.87
585.464	623.51
585.666	721.93
585.867	695.58
586.069	744.6
586.27	669.04
586.472	670.01
586.674	655.87
586.875	647.34
587.077	676.99
587.278	671.37
587.48	667.3
587.681	774.44
587.883	670.79
588.084	610.14
588.285	646.37
588.487	642.3
588.688	673.89
588.89	609.17
589.091	594.64
589.292	616.73
589.494	602.2
589.695	583.6
589.896	552.02
590.098	555.7
590.299	588.64
590.5	564.61
590.702	616.15
590.903	601.62
591.104	659.74
591.305	609.37
591.507	668.27
591.708	679.5
591.909	618.86
592.11	705.27
592.311	640.95
592.512	606.07
592.714	570.42
592.915	547.95
593.116	578.56
593.317	606.27
593.518	585.34
593.719	609.56
593.92	644.63
594.121	672.72
594.322	628.74
594.523	611.3
594.724	579.53
594.925	619.64
595.126	628.35
595.327	656.84
595.528	619.64
595.729	641.34
595.929	595.81
596.13	611.69
596.331	619.64
596.532	617.7
596.733	656.45
596.934	648.5
597.135	615.57
597.335	643.85
597.536	546.21
597.737	621.57
597.938	577.01
598.138	626.8
598.339	611.69
598.54	623.12
598.74	593.29
598.941	620.99
599.142	648.7
599.342	618.09
599.543	595.42
599.744	597.55
599.944	620.6
600.145	587.86
600.345	594.45
600.546	687.45
600.746	676.79
600.947	684.35
601.147	637.07
601.348	634.75
601.548	583.6
601.749	634.36
601.949	605.49
602.15	613.05
602.35	638.62
602.551	651.6
602.751	630.49
602.951	611.3
603.152	527.41
603.352	648.12
603.552	622.54
603.753	634.94
603.953	629.52
604.153	625.64
604.354	615.37
604.554	597.16
604.754	618.28
604.954	566.16
605.155	622.74
605.355	591.93
605.555	628.74
605.755	649.86
605.955	633.78
606.155	630.29
606.356	601.04
606.556	620.22
606.756	623.7
606.956	554.73
607.156	654.32
607.356	539.81
607.556	640.56
607.756	605.3
607.956	657.03
608.156	606.07
608.356	605.49
608.556	637.65
608.756	597.94
608.956	597.55
609.156	633.39
609.356	577.59
609.556	565.19
609.755	634.94
609.955	565.77
610.155	579.14
610.355	599.68
610.555	545.43
610.755	595.42
610.954	536.91
611.154	591.16
611.354	612.27
611.554	561.71
611.753	556.09
611.953	515.79
612.153	618.47
612.352	590.96
612.552	525.28
612.752	501.45
612.951	568.29
613.151	581.47
613.351	542.14
613.55	569.46
613.75	605.3
613.949	541.75
614.149	600.84
614.348	556.09
614.548	529.93
614.747	522.57
614.947	536.32
615.146	489.63
615.346	608.59
615.545	570.23
615.745	572.36
615.944	586.51
616.144	568.1
616.343	579.92
616.542	556.09
616.742	564.42
616.941	543.69
617.14	518.31
617.34	540.59
617.539	555.89
617.738	525.28
617.938	600.84
618.137	502.61
618.336	524.51
618.535	531.48
618.734	534.19
618.934	536.32
619.133	529.54
619.332	565.19
619.531	524.12
619.73	520.24
619.929	582.44
620.128	577.01
620.328	579.53
620.527	507.26
620.726	521.21
620.925	542.14
621.124	511.91
621.323	547.56
621.522	499.9
621.721	521.21
621.92	508.04
622.119	521.79
622.318	515.01
622.517	531.67
622.715	508.62
622.914	489.24
623.113	516.17
623.312	452.63
623.511	542.72
623.71	497.38
623.909	483.63
624.107	580.31
624.306	456.5
624.505	497.19
624.704	493.89
624.902	488.86
625.101	577.98
625.3	524.31
625.499	500.87
625.697	519.08
625.896	468.71
626.095	532.26
626.293	446.62
626.492	458.83
626.69	512.49
626.889	465.99
627.088	551.63
627.286	477.04
627.485	482.66
627.683	466.96
627.882	506.29
628.08	437.51
628.279	479.56
628.477	541.94
628.676	441.78
628.874	493.89
629.073	455.14
629.271	458.05
629.469	495.25
629.668	477.43
629.866	469.87
630.065	441.97
630.263	525.86
630.461	439.64
630.66	490.02
630.858	518.89
631.056	518.69
631.254	513.66
631.453	451.85
631.651	475.88
631.849	472.97
632.047	501.45
632.245	468.9
632.444	520.82
632.642	499.51
632.84	481.11
633.038	463.67
633.236	431.51
633.434	460.18
633.632	423.37
633.83	439.84
634.028	459.21
634.227	471.23
634.425	553.37
634.623	469.48
634.821	464.83
635.019	506.68
635.216	473.74
635.414	479.17
635.612	479.17
635.81	447.01
636.008	543.69
636.206	475.29
636.404	499.32
636.602	437.71
636.8	469.68
636.997	470.64
637.195	510.75
637.393	469.68
637.591	534.39
637.789	488.08
637.986	457.08
638.184	477.43
638.382	511.91
638.58	491.38
638.777	538.46
638.975	472.39
639.173	509.59
639.37	510.36
639.568	462.89
639.765	503.58
639.963	456.31
640.161	530.71
640.358	523.54
640.556	457.08
640.753	432.28
640.951	455.73
641.148	509.2
641.346	478.78
641.543	485.18
641.741	513.66
641.938	456.89
642.136	451.08
642.333	464.25
642.531	507.07
642.728	538.26
642.925	468.13
643.123	475.49
643.32	485.76
643.517	438.09
643.715	472
643.912	465.03
644.109	449.53
644.306	456.89
644.504	424.92
644.701	449.91
644.898	516.37
645.095	435.38
645.293	446.62
645.49	497.58
645.687	465.61
645.884	491.96
646.081	391.01
646.278	435.96
646.475	421.05
646.672	410.78
646.87	479.36
647.067	446.62
647.264	441.58
647.461	435.58
647.658	407.68
647.855	452.24
648.052	447.39
648.249	360.4
648.446	430.54
648.642	389.27
648.839	404.96
649.036	405.55
649.233	358.46
649.43	378.81
649.627	330.18
649.824	396.05
650.021	401.28
650.217	375.32
650.414	400.9
650.611	420.46
650.808	417.56
651.004	394.7
651.201	458.24
651.398	454.76
651.595	384.43
651.791	409.42
651.988	433.25
652.185	368.54
652.381	435.58
652.578	364.47
652.775	403.61
652.971	423.37
653.168	397.41
653.364	432.86
653.561	338.31
653.757	394.5
653.954	418.14
654.15	379.58
654.347	445.07
654.543	373.58
654.74	353.04
654.936	359.24
655.133	411.75
655.329	384.62
655.525	406.51
655.722	452.04
655.918	380.16
656.115	416.4
656.311	322.04
656.507	343.16
656.704	284.84
656.9	324.37
657.096	308.09
657.292	314.68
657.489	360.98
657.685	354.59
657.881	339.48
658.077	354.59
658.273	374.55
658.47	433.64
658.666	377.84
658.862	400.12
659.058	318.55
659.254	400.7
659.45	352.65
659.646	377.84
659.842	373
660.038	436.93
660.234	352.26
660.43	373.19
660.626	430.54
660.822	399.15
661.018	429.38
661.214	351.3
661.41	348.39
661.606	404.38
661.802	406.13
661.998	379.2
662.194	355.56
662.39	364.28
662.586	387.91
662.781	396.25
662.977	383.07
663.173	436.93
663.369	389.66
663.564	402.83
663.76	425.5
663.956	355.56
664.152	416.98
664.347	346.06
664.543	371.06
664.739	379.39
664.934	321.65
665.13	302.86
665.326	379.97
665.521	393.34
665.717	321.46
665.912	322.43
666.108	291.04
666.304	319.72
666.499	348.97
666.695	296.27
666.89	351.1
667.086	398.57
667.281	348
667.477	407.29
667.672	331.53
667.867	351.68
668.063	348
668.258	318.36
668.454	330.95
668.649	413.68
668.844	372.22
669.04	385.78
669.235	347.42
669.43	328.05
669.626	309.64
669.821	324.95
670.016	306.35
670.211	360.01
670.407	305.18
670.602	327.85
670.797	324.37
670.992	357.69
671.187	341.22
671.382	388.88
671.578	335.99
671.773	342
671.968	319.52
672.163	339.86
672.358	347.42
672.553	319.91
672.748	328.24
672.943	396.83
673.138	342
673.333	390.24
673.528	313.71
673.723	356.72
673.918	315.45
674.113	302.86
674.308	410.97
674.503	345.1
674.698	365.63
674.892	334.05
675.087	349.75
675.282	381.33
675.477	339.09
675.672	358.08
675.867	330.37
676.061	296.27
676.256	285.81
676.451	306.73
676.646	348.58
676.84	301.7
677.035	281.93
677.23	287.55
677.424	317.2
677.619	390.82
677.814	368.54
678.008	330.37
678.203	263.72
678.397	293.17
678.592	309.06
678.787	393.34
678.981	303.25
679.176	349.16
679.37	333.86
679.565	298.4
679.759	303.25
679.954	340.64
680.148	381.71
680.342	364.66
680.537	356.53
680.731	293.95
680.926	355.17
681.12	387.72
681.314	276.51
681.509	334.44
681.703	321.85
681.897	306.35
682.092	314.1
682.286	297.82
682.48	380.75
682.674	369.7
682.869	307.12
683.063	322.82
683.257	369.9
683.451	297.24
683.645	335.21
683.839	361.56
684.034	317.78
684.228	343.35
684.422	285.03
684.616	285.62
684.81	339.28
685.004	365.44
685.198	342.19
685.392	347.23
685.586	274.57
685.78	351.49
685.974	342.77
686.168	337.73
686.362	370.48
686.556	291.62
686.75	274.96
686.944	282.52
687.138	319.13
687.331	255
687.525	289.88
687.719	229.43
687.913	258.3
688.107	251.52
688.301	264.5
688.494	282.32
688.688	226.72
688.882	229.62
689.076	203.47
689.269	259.65
689.463	326.5
689.657	261.98
689.85	251.9
690.044	288.91
690.238	274.38
690.431	262.17
690.625	266.82
690.818	283.48
691.012	307.51
691.205	324.56
691.399	266.43
691.593	302.28
691.786	351.3
691.98	351.88
692.173	389.46
692.366	348.2
692.56	338.7
692.753	385.4
692.947	299.37
693.14	376.48
693.333	372.8
693.527	323.4
693.72	362.15
693.914	348.2
694.107	326.88
694.3	374.93
694.493	362.53
694.687	415.81
694.88	335.02
695.073	410.39
695.266	398.18
695.46	374.55
695.653	421.43
695.846	391.79
696.039	331.53
696.232	369.31
696.425	424.53
696.618	394.7
696.812	395.86
697.005	468.51
697.198	513.27
697.391	433.64
697.584	459.99
697.777	488.86
697.97	467.54
698.163	497.58
698.356	442.36
698.549	560.54
698.742	519.86
698.935	440.23
699.127	507.07
699.32	473.94
699.513	465.03
699.706	497.38
699.899	487.5
700.092	478.98
700.285	493.51
700.477	434.8
700.67	493.7
700.863	534.97
701.056	589.41
701.248	538.65
701.441	553.18
701.634	515.01
701.826	626.42
702.019	489.24
702.212	592.51
702.404	491.18
702.597	521.79
702.79	521.79
702.982	571.97
703.175	587.47
703.367	609.37
703.56	618.86
703.752	671.75
703.945	602.39
704.137	645.02
704.33	647.73
704.522	645.02
704.715	633.78
704.907	667.49
705.1	675.63
705.292	686.09
705.484	674.47
705.677	693.07
705.869	676.4
706.061	718.45
706.254	736.08
706.446	698.88
706.638	692.68
706.831	740.34
707.023	704.5
707.215	792.85
707.407	790.91
707.599	765.53
707.792	788.78
707.984	787.03
708.176	845.35
708.368	798.27
708.56	796.91
708.752	787.23
708.944	757.39
709.136	799.63
709.329	812.41
709.521	882.55
709.713	850
709.905	873.25
710.097	862.01
710.289	831.98
710.481	825.59
710.672	870.15
710.864	881.19
711.056	915.49
711.248	887.78
711.44	916.84
711.632	901.73
711.824	902.12
712.016	961.41
712.207	959.27
712.399	924.79
712.591	1004.03
712.783	982.33
712.975	965.86
713.166	921.88
713.358	972.06
713.55	1034.84
713.741	1018.56
713.933	1004.22
714.125	996.86
714.316	972.45
714.508	1038.13
714.7	1056.54
714.891	1065.84
715.083	1111.95
715.274	1058.09
715.466	1043.94
715.657	1083.66
715.849	986.98
716.04	1085.99
716.232	993.37
716.423	1071.07
716.615	1008.29
716.806	1003.06
716.998	995.51
717.189	941.84
717.381	911.23
717.572	883.91
717.763	932.93
717.955	927.69
718.146	898.83
718.337	874.41
718.528	844.58
718.72	819.58
718.911	882.55
719.102	832.18
719.293	876.93
719.485	870.93
719.676	880.42
719.867	807.76
720.058	795.95
720.249	824.23
720.44	850.39
720.632	870.54
720.823	894.37
721.014	951.52
721.205	953.07
721.396	993.57
721.587	1070.87
721.778	1084.44
721.969	1073.97
722.16	1156.32
722.351	1085.4
722.542	1229.36
722.733	1233.43
722.924	1131.52
723.115	1164.26
723.305	1190.61
723.496	1218.12
723.687	1125.9
723.878	1133.84
724.069	1131.13
724.26	1139.27
724.45	1085.6
724.641	1099.55
724.832	1138.88
725.023	1135.2
725.213	1108.46
725.404	1099.55
725.595	1108.46
725.785	1111.95
725.976	1160.38
726.167	1142.37
726.357	1127.64
726.548	1217.15
726.739	1173.17
726.929	1187.9
727.12	1204.56
727.31	1239.82
727.501	1203.98
727.691	1232.26
727.882	1223.55
728.072	1245.83
728.263	1246.99
728.453	1250.48
728.644	1278.38
728.834	1259
729.024	1242.53
729.215	1238.27
729.405	1247.57
729.596	1353.94
729.786	1317.71
729.976	1361.11
730.167	1339.79
730.357	1288.84
730.547	1277.21
730.737	1328.36
730.928	1363.63
731.118	1411.67
731.308	1379.51
731.498	1390.56
731.688	1413.61
731.879	1412.06
732.069	1434.34
732.259	1468.06
732.449	1480.45
732.639	1534.9
732.829	1530.83
733.019	1550.98
733.209	1582.17
733.399	1596.9
733.589	1651.15
733.779	1653.86
733.969	1601.35
734.159	1638.17
734.349	1720.9
734.539	1747.24
734.729	1762.36
734.919	1782.89
735.109	1800.91
735.299	1751.7
735.488	1766.81
735.678	1777.86
735.868	1773.01
736.058	1772.63
736.248	1769.91
736.437	1711.6
736.627	1695.32
736.817	1829.78
737.007	1804.79
737.196	1813.31
737.386	1795.1
737.576	1739.11
737.765	1795.68
737.955	1827.26
738.144	1874.73
738.334	1860.01
738.524	1796.65
738.713	1836.76
738.903	1853.81
739.092	1891.59
739.282	1875.89
739.471	1908.05
739.661	1856.91
739.85	1913.48
740.04	1909.02
740.229	1937.7
740.419	1963.08
740.608	1962.69
740.797	1940.22
740.987	2000.28
741.176	1988.65
741.365	1930.14
741.555	1932.47
741.744	1960.37
741.933	1963.85
742.123	1984.97
742.312	2004.73
742.501	2053.56
742.69	2053.95
742.88	1965.99
743.069	2060.15
743.258	1964.05
743.447	2048.13
743.636	2029.15
743.825	2021.98
744.014	2036.9
744.204	2064.6
744.393	1997.18
744.582	2064.41
744.771	2049.49
744.96	2015.39
745.149	2064.8
745.338	2007.06
745.527	2022.95
745.716	2019.07
745.905	2046.58
746.094	2111.3
746.283	2082.04
746.471	2076.62
746.66	2160.7
746.849	2091.53
747.038	2119.05
747.227	2095.8
747.416	2113.23
747.604	2056.27
747.793	2077.58
747.982	2094.83
748.171	2080.3
748.359	2141.71
748.548	2110.13
748.737	2084.95
748.926	2021.78
749.114	1995.05
749.303	2050.07
749.491	2078.55
749.68	2053.75
749.869	2091.53
750.057	2037.28
750.246	2058.6
750.434	2042.13
750.623	2095.21
750.811	2073.9
751	2083.98
751.188	2080.88
751.377	2066.93
751.565	2058.21
751.754	2003.57
751.942	2026.05
752.131	2101.41
752.319	2055.11
752.507	2027.02
752.696	2068.48
752.884	2131.06
753.072	2046.78
753.261	2110.52
753.449	2071.38
753.637	2063.05
753.825	2125.44
754.014	2064.02
754.202	2060.34
754.39	2090.56
754.578	2126.99
754.766	2018.1
754.955	1999.89
755.143	2120.6
755.331	2049.3
755.519	2038.83
755.707	2071.97
755.895	2037.87
756.083	2047.17
756.271	2009.58
756.459	2027.21
756.647	2068.09
756.835	1995.82
757.023	2001.63
757.211	2017.52
757.399	2000.67
757.587	1991.17
757.775	1977.22
757.963	2026.24
758.151	1990.4
758.339	1948.16
758.526	1976.06
758.714	1999.5
758.902	1926.07
759.09	1879.57
759.278	1734.84
759.465	1633.32
759.653	1415.16
759.841	1314.41
760.028	1098.19
760.216	954.04
760.404	933.31
760.591	788.97
760.779	640.37
760.967	588.25
761.154	476.07
761.342	486.34
761.529	491.76
761.717	525.67
761.905	492.34
762.092	527.99
762.28	509.01
762.467	515.98
762.655	444.1
762.842	495.25
763.029	475.29
763.217	491.96
763.404	500.87
763.592	556.47
763.779	486.34
763.966	514.43
764.154	545.04
764.341	575.66
764.528	605.3
764.716	610.92
764.903	658
765.09	687.06
765.277	691.32
765.465	855.23
765.652	816.68
765.839	894.95
766.026	998.99
766.213	988.14
766.4	1077.85
766.588	1184.41
766.775	1173.75
766.962	1227.23
767.149	1238.66
767.336	1367.5
767.523	1272.18
767.71	1423.69
767.897	1495.76
768.084	1518.43
768.271	1561.25
768.458	1618.21
768.645	1646.88
768.832	1580.82
769.019	1617.82
769.206	1634.29
769.392	1698.42
769.579	1804.79
769.766	1741.43
769.953	1721.28
770.14	1778.83
770.327	1727.87
770.513	1814.09
770.7	1842.96
770.887	1744.73
771.073	1809.63
771.26	1791.23
771.447	1742.01
771.634	1774.56
771.82	1852.26
772.007	1769.53
772.193	1823.19
772.38	1845.47
772.567	1802.08
772.753	1841.79
772.94	1843.73
773.126	1852.45
773.313	1837.14
773.499	1841.79
773.686	1819.32
773.872	1794.13
774.059	1809.05
774.245	1778.83
774.432	1812.93
774.618	1704.23
774.804	1790.26
774.991	1720.51
775.177	1838.69
775.363	1784.44
775.55	1807.89
775.736	1715.86
775.922	1733.29
776.109	1819.51
776.295	1757.32
776.481	1790.64
776.667	1805.95
776.853	1776.89
777.04	1758.87
777.226	1746.28
777.412	1850.12
777.598	1764.49
777.784	1735.62
777.97	1741.24
778.156	1779.02
778.342	1714.31
778.528	1744.92
778.715	1683.31
778.901	1714.7
779.087	1752.28
779.272	1699.39
779.458	1645.91
779.644	1708.11
779.83	1661.03
780.016	1808.66
780.202	1717.21
780.388	1637
780.574	1611.43
780.76	1679.63
780.946	1733.68
781.131	1683.5
781.317	1704.43
781.503	1635.07
781.689	1666.65
781.874	1760.42
782.06	1674.59
782.246	1674.01
782.432	1654.44
782.617	1690.67
782.803	1763.33
782.989	1646.69
783.174	1644.37
783.36	1599.22
783.545	1622.86
783.731	1652.89
783.916	1559.5
784.102	1644.75
784.288	1626.35
784.473	1595.54
784.659	1602.52
784.844	1659.86
785.029	1593.02
785.215	1558.73
785.4	1572.29
785.586	1669.75
785.771	1570.16
785.956	1616.66
786.142	1613.37
786.327	1573.07
786.512	1581.01
786.698	1520.56
786.883	1538.77
787.068	1582.75
787.254	1549.24
787.439	1520.17
787.624	1552.72
787.809	1522.3
787.994	1529.86
788.18	1597.28
788.365	1491.11
788.55	1539.74
788.735	1507.97
788.92	1523.66
789.105	1556.21
789.29	1528.5
789.475	1494.02
789.66	1479.29
789.845	1498.47
790.03	1467.47
790.215	1508.55
790.4	1523.27
790.585	1525.4
790.77	1494.21
790.955	1415.55
791.14	1469.41
791.325	1514.17
791.51	1406.83
791.695	1452.75
791.879	1449.26
792.064	1439.38
792.249	1526.57
792.434	1441.9
792.618	1499.64
792.803	1482.97
792.988	1461.47
793.173	1454.69
793.357	1507.58
793.542	1440.35
793.727	1472.12
793.911	1511.26
794.096	1475.61
794.281	1469.41
794.465	1545.17
794.65	1462.05
794.834	1478.13
795.019	1525.4
795.203	1500.8
795.388	1502.74
795.572	1525.21
795.757	1492.47
795.941	1512.81
796.126	1501.38
796.31	1445.77
796.494	1529.28
796.679	1457.01
796.863	1455.85
797.048	1539.16
797.232	1494.02
797.416	1485.69
797.601	1470.96
797.785	1562.22
797.969	1521.34
798.153	1469.99
798.338	1505.25
798.522	1529.47
798.706	1484.33
798.89	1537.22
799.074	1588.57
799.258	1545.17
799.443	1478.71
799.627	1493.44
799.811	1549.24
799.995	1469.61
800.179	1461.66
800.363	1501.19
800.547	1493.05
800.731	1537.61
800.915	1471.93
801.099	1473.67
801.283	1493.44
801.467	1524.24
801.651	1495.95
801.835	1529.67
802.019	1490.92
802.202	1486.85
802.386	1441.32
802.57	1492.08
802.754	1464.18
802.938	1455.07
803.121	1450.04
803.305	1550.59
803.489	1492.85
803.673	1492.66
803.856	1513.59
804.04	1484.91
804.224	1528.5
804.407	1495.57
804.591	1470.57
804.775	1499.83
804.958	1514.36
805.142	1582.75
805.326	1503.7
805.509	1532.38
805.693	1539.16
805.876	1534.9
806.06	1516.88
806.243	1512.04
806.427	1557.18
806.61	1520.75
806.794	1478.71
806.977	1544.2
807.16	1491.11
807.344	1525.4
807.527	1514.36
807.71	1472.7
807.894	1508.94
808.077	1538.39
808.26	1477.94
808.444	1467.09
808.627	1552.92
808.81	1466.12
808.993	1447.71
809.177	1414.77
809.36	1470.77
809.543	1500.8
809.726	1432.6
809.909	1434.54
810.092	1359.17
810.276	1386.68
810.459	1413.61
810.642	1413.42
810.825	1375.44
811.008	1397.72
811.191	1293.1
811.374	1338.44
811.557	1343.28
811.74	1419.81
811.923	1303.56
812.106	1288.65
812.289	1262.1
812.472	1316.93
812.654	1316.74
812.837	1257.45
813.02	1237.88
813.203	1227.23
813.386	1135.2
813.569	1159.22
813.751	1135.58
813.934	1196.62
814.117	1158.25
814.3	1122.99
814.482	1099.94
814.665	1115.05
814.848	1074.36
815.03	1046.46
815.213	1042
815.396	1001.32
815.578	1019.92
815.761	987.95
815.943	1094.9
816.126	973.22
816.309	964.31
816.491	891.66
816.674	868.02
816.856	914.33
817.039	879.45
817.221	989.89
817.403	936.99
817.586	932.54
817.768	941.26
817.951	866.86
818.133	875.38
818.315	910.26
818.498	949.78
818.68	990.08
818.862	954.04
819.045	967.02
819.227	944.74
819.409	945.91
819.591	974.19
819.774	926.92
819.956	935.83
820.138	990.47
820.32	967.02
820.502	971.48
820.684	1041.23
820.866	1059.25
821.048	1075.33
821.231	1056.34
821.413	1060.99
821.595	1045.3
821.777	1063.32
821.959	1004.61
822.141	1116.4
822.323	992.6
822.505	978.65
822.686	925.95
822.868	949.97
823.05	853.68
823.232	834.11
823.414	798.85
823.596	868.79
823.778	821.33
823.96	843.8
824.141	848.45
824.323	856.4
824.505	938.35
824.687	935.64
824.868	979.42
825.05	1036
825.232	1000.35
825.413	1103.62
825.595	1038.9
825.777	992.99
825.958	1036.97
826.14	973.81
826.321	1061.38
826.503	1006.94
826.685	1050.53
826.866	1071.65
827.048	1034.25
827.229	994.15
827.411	998.41
827.592	965.47
827.773	971.67
827.955	940.68
828.136	959.47
828.318	933.89
828.499	937.19
828.68	918.2
828.862	931.18
829.043	1005
829.224	920.14
829.406	905.99
829.587	923.82
829.768	881.78
829.949	946.49
830.131	918.98
830.312	984.27
830.493	926.92
830.674	933.31
830.855	932.34
831.036	926.53
831.218	988.14
831.399	992.6
831.58	966.83
831.761	923.24
831.942	945.33
832.123	918.78
832.304	897.86
832.485	907.74
832.666	944.74
832.847	938.35
833.028	956.17
833.209	936.41
833.389	920.91
833.57	871.51
833.751	921.3
833.932	968.38
834.113	914.13
834.294	917.62
834.475	937.77
834.655	980.2
834.836	980.97
835.017	936.03
835.198	910.26
835.378	933.12
835.559	984.07
835.74	915.68
835.92	939.51
836.101	877.13
836.281	972.64
836.462	957.34
836.643	976.71
836.823	992.79
837.004	969.74
837.184	1028.44
837.365	987.56
837.545	1008.29
837.726	969.74
837.906	1014.49
838.087	969.35
838.267	982.33
838.448	922.46
838.628	960.24
838.808	955.59
838.989	984.27
839.169	899.41
839.349	956.37
839.53	993.76
839.71	982.52
839.89	977.68
840.07	1039.1
840.251	968.57
840.431	997.25
840.611	961.6
840.791	938.74
840.971	983.3
841.151	978.84
841.332	967.61
841.512	990.47
841.692	929.63
841.872	978.84
842.052	988.14
842.232	970.32
842.412	908.71
842.592	942.03
842.772	942.23
842.952	982.72
843.132	942.61
843.312	937.96
843.492	923.04
843.672	981.17
843.851	887.2
844.031	950.75
844.211	939.9
844.391	910.26
844.571	920.53
844.751	973.22
844.93	935.64
845.11	940.09
845.29	948.62
845.47	957.14
845.649	935.64
845.829	946.49
846.009	892.63
846.188	969.74
846.368	937.58
846.547	923.24
846.727	966.44
846.907	887.2
847.086	919.17
847.266	958.5
847.445	916.26
847.625	919.17
847.804	892.24
847.984	899.79
848.163	873.83
848.343	880.81
848.522	897.66
848.701	953.46
848.881	877.71
849.06	919.17
849.239	926.92
849.419	943.58
849.598	864.53
849.777	892.43
849.957	862.98
850.136	821.71
850.315	819
850.494	856.2
850.674	831.98
850.853	880.61
851.032	868.41
851.211	896.31
851.39	887.2
851.569	810.86
851.748	845.74
851.927	911.03
852.107	851.94
852.286	794.78
852.465	804.47
852.644	876.16
852.823	878.68
853.002	840.51
853.181	867.63
853.359	847.68
853.538	806.6
853.717	872.48
853.896	763.98
854.075	749.45
854.254	742.08
854.433	693.65
854.611	783.16
854.79	708.18
854.969	763.78
855.148	783.74
855.327	721.74
855.505	770.37
855.684	750.61
855.863	744.8
856.041	702.37
856.22	777.73
856.399	704.69
856.577	831.21
856.756	797.88
856.934	898.83
857.113	905.03
857.291	847.68
857.47	799.82
857.648	799.05
857.827	821.71
858.005	841.28
858.184	790.91
858.362	869.57
858.541	818.61
858.719	818.03
858.898	806.99
859.076	803.7
859.254	863.56
859.433	801.18
859.611	780.83
859.789	777.73
859.967	839.73
860.146	857.75
860.324	761.07
860.502	743.25
860.68	744.6
860.859	767.85
861.037	774.63
861.215	769.21
861.393	787.42
861.571	777.35
861.749	735.3
861.927	779.09
862.105	796.91
862.283	767.66
862.461	707.21
862.639	731.43
862.817	731.62
862.995	763.4
863.173	734.72
863.351	780.25
863.529	741.89
863.707	769.21
863.885	754.1
864.063	672.72
864.241	727.17
864.418	791.49
864.596	736.85
864.774	693.65
864.952	733.75
865.129	750.61
865.307	714.57
865.485	673.69
865.663	770.76
865.84	681.64
866.018	721.93
866.196	616.54
866.373	673.5
866.551	603.94
866.728	577.21
866.906	636.49
867.084	647.92
867.261	673.11
867.439	668.85
867.616	715.15
867.794	674.27
867.971	698.68
868.149	672.72
868.326	720.38
868.503	716.51
868.681	683.57
868.858	705.47
869.035	667.69
869.213	699.65
869.39	671.37
869.567	736.85
869.745	691.52
869.922	671.56
870.099	710.5
870.276	738.02
870.454	702.95
870.631	697.52
870.808	670.4
870.985	739.76
871.162	761.07
871.339	695.58
871.517	644.44
871.694	636.1
871.871	698.49
872.048	654.12
872.225	622.93
872.402	691.13
872.579	628.35
872.756	694.42
872.933	647.34
873.11	656.06
873.287	676.02
873.463	640.17
873.64	618.67
873.817	682.8
873.994	669.43
874.171	667.49
874.348	678.34
874.524	581.27
874.701	654.9
874.878	557.06
875.055	642.3
875.231	629.9
875.408	631.84
875.585	616.15
875.762	625.84
875.938	639.98
876.115	599.29
876.291	624.48
876.468	596
876.645	580.5
876.821	609.37
876.998	608.79
877.174	598.71
877.351	616.54
877.527	592.51
877.704	633.97
877.88	613.44
878.057	602
878.233	652.57
878.409	597.94
878.586	632.04
878.762	586.51
878.938	602.59
879.115	509.2
879.291	573.72
879.467	546.79
879.644	580.11
879.82	591.54
879.996	558.8
880.172	519.66
880.349	576.62
880.525	620.8
880.701	526.44
880.877	545.43
881.053	587.67
881.229	605.3
881.405	605.88
881.581	531.48
881.757	553.96
881.933	573.91
882.109	604.72
882.285	571.01
882.461	535.16
882.637	575.85
882.813	542.72
882.989	562.48
883.165	606.27
883.341	537.68
883.517	603.17
883.693	558.22
883.869	586.89
884.044	569.84
884.22	589.02
884.396	626.42
884.572	585.15
884.747	613.82
884.923	602.59
885.099	620.02
885.275	620.22
885.45	542.72
885.626	531.29
885.801	537.87
885.977	534.97
886.153	525.67
886.328	550.86
886.504	533.22
886.679	596.58
886.855	548.72
887.03	604.91
887.206	602.78
887.381	579.53
887.557	576.04
887.732	603.94
887.908	582.24
888.083	601.42
888.258	581.47
888.434	540.59
888.609	580.31
888.784	610.72
888.96	548.53
889.135	536.71
889.31	532.45
889.485	608.2
889.661	519.66
889.836	576.43
890.011	575.46
890.186	555.31
890.361	534.77
890.537	571.78
890.712	586.31
890.887	588.83
891.062	561.71
891.237	604.14
891.412	518.11
891.587	572.17
891.762	603.55
891.937	639.79
892.112	527.99
892.287	561.51
892.462	547.17
892.637	520.05
892.812	506.88
892.987	537.87
893.161	496.22
893.336	527.61
893.511	548.92
893.686	521.6
893.861	509.2
894.035	491.18
894.21	512.3
894.385	475.49
894.56	521.41
894.734	461.15
894.909	479.56
895.084	448.94
895.258	487.89
895.433	454.37
895.608	458.83
895.782	443.91
895.957	457.86
896.131	453.4
896.306	424.53
896.48	395.66
896.655	413.68
896.829	368.73
897.004	391.01
897.178	378.61
897.353	365.44
897.527	416.2
897.701	388.3
897.876	329.6
898.05	417.56
898.224	379.2
898.399	437.71
898.573	400.9
898.747	313.13
898.921	387.72
899.096	271.47
899.27	318.36
899.444	310.8
899.618	316.23
899.792	324.17
899.967	301.7
900.141	365.25
900.315	310.42
900.489	342.96
900.663	348.2
900.837	338.51
901.011	258.49
901.185	382.88
901.359	336.57
901.533	357.88
901.707	360.01
901.881	337.93
902.055	274.77
902.229	311.38
902.403	371.06
902.576	320.1
902.75	356.33
902.924	438.48
903.098	376.29
903.272	414.26
903.446	402.64
903.619	354.78
903.793	428.99
903.967	373.96
904.14	432.09
904.314	389.46
904.488	398.57
904.661	434.41
904.835	417.17
905.009	439.06
905.182	484.59
905.356	441.39
905.529	412.52
905.703	381.33
905.876	365.83
906.05	358.85
906.223	400.31
906.397	349.36
906.57	329.21
906.744	337.35
906.917	323.01
907.09	336.76
907.264	322.04
907.437	310.42
907.61	295.5
907.784	323.4
907.957	329.79
908.13	287.36
908.304	320.1
908.477	296.66
908.65	309.64
908.823	263.14
908.996	374.74
909.17	282.9
909.343	284.45
909.516	299.57
909.689	299.37
909.862	266.63
910.035	311
910.208	249.58
910.381	264.69
910.554	381.71
910.727	289.3
910.9	260.04
911.073	265.85
911.246	319.72
911.419	328.24
911.592	293.37
911.765	266.82
911.938	254.42
912.11	274.77
912.283	291.04
912.456	327.08
912.629	307.51
912.802	268.95
912.974	275.35
913.147	261.78
913.32	199.79
913.493	225.55
913.665	279.22
913.838	262.37
914.01	244.15
914.183	218.77
914.356	238.73
914.528	267.79
914.701	304.41
914.873	268.37
915.046	232.14
915.218	216.06
915.391	190.87
915.563	208.5
915.736	256.94
915.908	274.18
916.081	217.42
916.253	235.24
916.425	227.1
916.598	263.72
916.77	248.03
916.942	217.22
917.115	177.5
917.287	253.45
917.459	211.41
917.632	208.12
917.804	149.8
917.976	238.92
918.148	214.12
918.32	208.31
918.493	244.74
918.665	301.12
918.837	249
919.009	281.16
919.181	290.07
919.353	236.99
919.525	265.08
919.697	231.56
919.869	249.38
920.041	305.57
920.213	347.61
920.385	261.59
920.557	238.15
920.729	264.3
920.901	273.6
921.073	248.22
921.244	236.6
921.416	274.57
921.588	254.62
921.76	243.96
921.932	291.04
922.103	261.78
922.275	276.51
922.447	269.34
922.619	205.99
922.79	229.62
922.962	236.02
923.134	262.95
923.305	240.28
923.477	188.94
923.648	194.75
923.82	237.95
923.991	169.37
924.163	173.63
924.335	207.54
924.506	161.04
924.677	266.43
924.849	193.97
925.02	234.08
925.192	217.42
925.363	202.3
925.535	233.11
925.706	196.49
925.877	246.48
926.049	190.87
926.22	223.04
926.391	227.69
926.562	223.04
926.734	181.96
926.905	244.35
927.076	162.39
927.247	234.47
927.419	149.02
927.59	192.04
927.761	182.93
927.932	182.15
928.103	221.29
928.274	165.49
928.445	137.21
928.616	174.21
928.787	149.22
928.958	183.7
929.129	184.09
929.3	157.36
929.471	128.1
929.642	102.91
929.813	61.84
929.984	164.33
930.155	94.97
930.326	135.85
930.496	94.39
930.667	21.93
930.838	79.47
931.009	77.53
931.18	92.45
931.35	92.26
931.521	95.16
931.692	39.94
931.863	16.69
932.033	76.95
932.204	79.27
932.374	85.28
932.545	28.9
932.716	85.09
932.886	79.86
933.057	9.91
933.227	44.59
933.398	96.91
933.568	47.31
933.739	-14.69
933.909	13.21
934.08	49.44
934.25	-48.02
934.421	-6.17
934.591	67.46
934.761	7.39
934.932	-30.39
935.102	24.64
935.272	15.92
935.443	14.76
935.613	10.3
935.783	47.89
935.953	-37.94
936.123	148.64
936.294	-31.94
936.464	2.16
936.634	37.81
936.804	1.39
936.974	-45.3
937.144	53.7
937.314	37.62
937.484	9.14
937.655	-2.1
937.825	41.49
937.995	-14.11
938.165	52.15
938.334	-1.52
938.504	22.31
938.674	5.46
938.844	-13.14
939.014	51.38
939.184	25.22
939.354	83.15
939.524	61.64
939.694	26.96
939.863	18.05
940.033	81.21
940.203	89.54
940.373	79.27
940.542	85.47
940.712	21.73
940.882	76.95
941.051	61.26
941.221	46.14
941.391	104.85
941.56	20.76
941.73	11.85
941.899	132.75
942.069	16.5
942.238	60.29
942.408	26.77
942.577	54.09
942.747	44.01
942.916	6.04
943.086	-1.13
943.255	65.91
943.425	34.52
943.594	13.4
943.763	6.62
943.933	1.97
944.102	-32.32
944.271	20.76
944.441	38.2
944.61	-13.72
944.779	38.39
944.948	115.7
945.117	-16.05
945.287	18.24
945.456	-14.69
945.625	18.83
945.794	50.21
945.963	34.33
946.132	55.83
946.301	4.88
946.47	41.69
946.639	-14.31
946.808	16.69
946.977	38.01
947.146	75.21
947.315	16.31
947.484	42.46
947.653	41.3
947.822	-21.47
947.991	16.31
948.16	81.41
948.329	80.44
948.498	9.72
948.666	-10.24
948.835	35.88
949.004	-3.65
949.173	-16.24
949.341	12.24
949.51	63.19
949.679	82.57
949.847	50.02
950.016	117.25
950.185	95.55
950.353	4.88
950.522	0.81
950.69	76.37
950.859	32.78
951.028	49.44
951.196	21.73
951.365	15.14
951.533	22.89
951.701	69.39
951.87	75.21
952.038	-2.49
952.207	43.63
952.375	89.54
952.543	21.93
952.712	24.44
952.88	-6.94
953.048	72.69
953.217	47.31
953.385	29.29
953.553	74.82
953.721	-44.53
953.89	15.53
954.058	-29.03
954.226	17.86
954.394	48.86
954.562	-38.14
954.73	18.63
954.898	33.16
955.067	70.56
955.235	-17.02
955.403	59.13
955.571	89.35
955.739	65.91
955.907	15.92
956.075	-7.52
956.243	29.68
956.41	65.91
956.578	-4.42
956.746	-35.04
956.914	-5.59
957.082	71.72
957.25	27.16
957.418	-3.26
957.585	33.74
957.753	67.65
957.921	-6.75
958.089	39.75
958.256	52.73
958.424	33.94
958.592	31.03
958.759	20.57
958.927	46.73
959.095	10.3
959.262	49.24
959.43	52.93
959.597	5.07
959.765	16.5
959.932	-17.4
960.1	50.6
960.267	38.2
960.435	45.18
960.602	67.84
960.77	23.28
960.937	-14.31
961.104	31.61
961.272	-11.79
961.439	24.44
961.606	38.2
961.774	38.78
961.941	22.12
962.108	48.28
962.275	29.87
962.443	91.67
962.61	28.51
962.777	115.12
962.944	59.9
963.111	38.98
963.278	53.89
963.446	29.09
963.613	16.31
963.78	59.71
963.947	54.09
964.114	70.56
964.281	136.43
964.448	63.97
964.615	27.16
964.782	40.33
964.949	59.71
965.116	71.53
965.282	47.5
965.449	22.51
965.616	9.53
965.783	67.65
965.95	54.48
966.117	-35.62
966.283	63
966.45	54.09
966.617	31.61
966.784	48.28
966.95	83.54
967.117	91.48
967.284	17.86
967.45	-0.55
967.617	115.51
967.784	54.09
967.95	107.17
968.117	11.66
968.283	81.6
968.45	136.24
968.616	55.25
968.783	74.82
968.949	47.31
969.116	84.7
969.282	52.54
969.449	61.45
969.615	34.52
969.781	-6.56
969.948	40.91
970.114	-1.71
970.28	102.72
970.447	22.31
970.613	80.05
970.779	29.87
970.945	62.42
971.112	57.96
971.278	33.16
971.444	28.32
971.61	72.3
971.776	49.83
971.942	66.1
972.108	65.71
972.275	27.93
972.441	65.91
972.607	123.64
972.773	20.76
972.939	52.73
973.105	35.29
973.271	0.42
973.437	5.84
973.602	30.84
973.768	77.53
973.934	46.34
974.1	64.16
974.266	-12.56
974.432	72.69
974.598	7.01
974.763	77.34
974.929	27.93
975.095	94.77
975.261	-4.42
975.426	18.44
975.592	37.62
975.758	80.82
975.923	-1.91
976.089	25.61
976.255	66.29
976.42	42.66
976.586	42.08
976.751	50.21
976.917	102.72
977.082	60.29
977.248	-25.15
977.413	1.39
977.579	19.02
977.744	52.15
977.91	1.58
978.075	30.84
978.24	54.28
978.406	26.96
978.571	17.47
978.736	27.54
978.902	62.61
979.067	14.37
979.232	-19.73
979.397	68.04
979.563	98.46
979.728	5.65
979.893	28.32
980.058	28.13
980.223	82.96
980.388	56.99
980.554	47.5
980.719	31.23
980.884	34.13
981.049	75.21
981.214	-1.91
981.379	56.22
981.544	12.82
981.709	29.87
981.874	27.16
982.039	22.51
982.204	75.59
982.368	48.28
982.533	18.83
982.698	62.61
982.863	78.89
983.028	22.7
983.193	33.55
983.357	60.48
983.522	54.28
983.687	23.67
983.852	29.87
984.016	21.15
984.181	60.68
984.346	65.52
984.51	76.95
984.675	33.74
984.839	49.63
985.004	86.25
985.168	71.53
985.333	74.24
985.498	34.71
985.662	59.9
985.827	80.44
985.991	36.07
986.155	24.06
986.32	64.74
986.484	75.01
986.649	44.79
986.813	-11.4
986.977	41.49
987.142	80.24
987.306	10.49
987.47	17.28
987.634	55.44
987.799	49.24
987.963	23.48
988.127	76.56
988.291	101.94
988.455	34.71
988.62	28.51
988.784	62.42
988.948	86.44
989.112	24.25
989.276	41.3
989.44	54.86
989.604	17.08
989.768	34.13
989.932	108.53
990.096	6.62
990.26	12.82
990.424	25.61
990.588	53.12
990.752	113.18
990.915	44.59
991.079	19.41
991.243	14.56
991.407	61.84
991.571	23.09
991.734	51.96
991.898	52.93
992.062	137.79
992.226	35.1
992.389	11.85
992.553	-14.69
992.717	16.89
992.88	10.11
993.044	18.24
993.207	20.96
993.371	60.87
993.535	70.17
993.698	30.06
993.862	80.05
994.025	68.43
994.189	33.94
994.352	44.01
994.515	71.91
994.679	87.41
994.842	69.39
995.006	71.33
995.169	11.66
995.332	20.57
995.496	81.21
995.659	-9.85
995.822	-2.29
995.985	49.44
996.149	75.98
996.312	33.94
996.475	84.51
996.638	25.8
996.801	66.29
996.964	107.95
997.128	37.04
997.291	28.32
997.454	25.61
997.617	-13.92
997.78	78.89
997.943	14.95
998.106	50.6
998.269	7.98
998.432	44.98
998.595	39.17
998.758	-19.73
998.92	-0.16
999.083	-7.33
999.246	3.52
999.409	-27.67
999.572	-25.74
999.735	3.91
999.897	50.02
1000.06	-18.57
1000.223	7.39
1000.386	52.34
1000.548	37.23
1000.711	65.71
1000.874	30.06
1001.036	-22.05
1001.199	46.14
1001.361	26.38
1001.524	24.44
1001.687	47.31
1001.849	9.14
1002.012	24.44
1002.174	7.78
1002.337	57.77
1002.499	20.57
1002.661	44.4
1002.824	-22.25
1002.986	-16.05
1003.149	0.42
1003.311	-14.89
1003.473	74.04
1003.636	17.86
1003.798	57.58
1003.96	29.68
1004.123	34.33
1004.285	-0.36
1004.447	15.53
1004.609	40.53
1004.771	65.52
1004.933	-34.45
1005.096	-11.4
1005.258	-9.07
1005.42	8.94
1005.582	54.09
1005.744	53.7
1005.906	-34.84
1006.068	35.1
1006.23	16.31
1006.392	-44.14
1006.554	-13.53
1006.716	48.86
1006.878	31.61
1007.04	-16.24
1007.202	25.8
1007.363	5.26
1007.525	34.52
1007.687	41.11
1007.849	86.44
1008.011	-37.17
1008.172	-5.2
1008.334	7.59
1008.496	6.81
1008.658	-37.75
1008.819	-14.31
1008.981	-16.05
1009.143	-20.31
1009.304	9.14
1009.466	27.74
1009.627	33.94
1009.789	127.52
1009.95	38.59
1010.112	0.42
1010.273	45.56
1010.435	18.63
1010.596	9.91
1010.758	10.88
1010.919	0.61
1011.081	-47.44
1011.242	2.36
1011.403	44.59
1011.565	32
1011.726	37.62
1011.887	16.69
1012.049	-15.85
1012.21	40.14
1012.371	73.27
1012.532	-36.2
1012.693	38.2
1012.855	-4.23
1013.016	7.2
1013.177	43.63
1013.338	30.64
1013.499	82.76
1013.66	38.01
1013.821	37.62
1013.982	12.43
1014.143	24.06
1014.304	-11.59
1014.465	40.72
1014.626	64.16
1014.787	-16.82
1014.948	74.43
1015.109	-58.29
1015.27	72.69
1015.431	-3.65
1015.592	-7.72
1015.752	57.77
1015.913	13.79
1016.074	13.21
1016.235	29.68
1016.395	1.78
1016.556	5.26
1016.717	-16.44
1016.877	61.45
1017.038	-19.54
1017.199	-2.68
1017.359	7.59
1017.52	3.13
1017.681	-6.75
1017.841	-3.26
1018.002	19.21
1018.162	-15.08
1018.323	56.22
1018.483	10.3
1018.644	-20.7
1018.804	-23.02
1018.964	-44.53
1019.125	-6.56
1019.285	18.63
1019.446	-19.92
1019.606	5.26
1019.766	-43.37
1019.926	16.89
1020.087	1.19
1020.247	-36.59
1020.407	9.91
1020.567	34.71
1020.728	19.02
1020.888	-21.47
1021.048	-10.43
1021.208	-18.95
1021.368	-7.14
1021.528	41.88
1021.688	54.28
1021.848	27.16
1022.008	9.91
1022.168	14.76
1022.328	34.91
1022.488	28.32
1022.648	-8.11
1022.808	15.92
1022.968	44.21
1023.128	6.23
1023.288	-14.89
1023.448	13.4
1023.608	17.86
1023.767	22.89
1023.927	5.26
1024.087	-22.05
1024.247	-37.17
1024.406	-14.5
1024.566	-39.88
1024.726	-13.34
1024.885	-2.1
1025.045	17.66
1025.205	20.38
1025.364	0.81
1025.524	4.68
1025.683	-10.24
1025.843	23.48
1026.003	15.92
1026.162	71.14
1026.321	15.73
1026.481	22.7
1026.64	-35.42
1026.8	41.88
1026.959	17.08
1027.119	13.79
1027.278	0.42
1027.437	-3.26
1027.597	-12.56
1027.756	26.96
1027.915	41.3
1028.074	42.46
1028.234	-19.34
1028.393	-15.66
1028.552	-10.82
1028.711	-54.02
1028.87	32.19
1029.03	-36.78
1029.189	-0.94
1029.348	-63.52
1029.507	-0.55
1029.666	-0.55
1029.825	-33.1
1029.984	-29.8
1030.143	22.7
1030.302	-22.44
1030.461	-49.18
1030.62	-12.17
1030.779	34.33
1030.938	-19.34
1031.097	-51.7
1031.255	33.74
1031.414	22.31
1031.573	52.54
1031.732	-32.9
1031.891	7.98
1032.049	64.74
1032.208	17.08
1032.367	-20.12
1032.525	-36.2
1032.684	-25.35
1032.843	14.95
1033.001	-48.02
1033.16	130.04
1033.319	30.64
1033.477	12.04
1033.636	-26.9
1033.794	-30.19
1033.953	21.54
1034.111	22.31
1034.27	-15.08
1034.428	34.33
1034.587	-28.84
1034.745	-15.85
1034.903	8.17
1035.062	30.06
1035.22	-25.74
1035.378	35.49
1035.537	-57.32
1035.695	36.26
1035.853	10.88
1036.011	11.27
1036.17	3.91
1036.328	-44.53
1036.486	2.74
1036.644	-17.99
1036.802	-81.73
1036.96	-12.56
1037.119	-16.82
1037.277	-45.5
1037.435	-23.6
1037.593	-30.77
1037.751	-24.19
1037.909	33.94
1038.067	33.94
