Data from pine_FLMT105791__69__17-21-09-077.txt Node

Date: Mon Mar 20 17:21:09 GMT 2023
User: antho
Spectrometer: FLMT10579
Trigger mode: 0
Integration Time (sec): 1.000000E-1
Scans to average: 10
Electric dark correction enabled: true
Nonlinearity correction enabled: false
Boxcar width: 0
XAxis mode: Wavelengths
Number of Pixels in Spectrum: 3648
>>>>>Begin Spectral Data<<<<<
345.248	-172.29
345.464	-172.29
345.681	-172.29
345.898	-158.73
346.114	-157.37
346.331	-38.02
346.548	46.06
346.764	-17.49
346.981	-16.9
347.197	-6.25
347.414	12.16
347.631	-1.99
347.847	48.19
348.064	3.05
348.28	24.56
348.497	-52.55
348.713	-0.82
348.93	21.85
349.146	-2.37
349.363	-6.44
349.579	6.93
349.796	-16.52
350.012	2.47
350.229	11.19
350.445	-13.03
350.661	-26.2
350.878	-1.4
351.094	9.25
351.311	4.21
351.527	31.53
351.743	-13.22
351.96	4.8
352.176	34.44
352.392	17
352.609	22.04
352.825	-14.39
353.041	22.04
353.257	0.92
353.474	-21.55
353.69	4.41
353.906	6.93
354.122	-7.41
354.339	43.74
354.555	-7.02
354.771	-16.13
354.987	24.56
355.203	48.58
355.42	-17.68
355.636	0.73
355.852	1.11
356.068	9.25
356.284	-39.77
356.5	36.18
356.716	7.7
356.932	-14
357.148	41.99
357.364	10.03
357.58	38.12
357.796	64.86
358.012	44.51
358.228	31.73
358.444	-52.75
358.66	44.13
358.876	-3.54
359.092	-15.94
359.308	28.04
359.524	31.34
359.74	-1.6
359.956	-4.7
360.172	8.28
360.388	46.06
360.604	-9.35
360.819	99.54
361.035	11.96
361.251	27.46
361.467	-9.93
361.683	44.13
361.898	16.42
362.114	31.92
362.33	37.15
362.546	29.98
362.762	1.7
362.977	8.09
363.193	-18.65
363.409	47.03
363.624	-38.22
363.84	-17.68
364.056	-25.24
364.271	19.91
364.487	20.3
364.703	-0.05
364.918	-44.22
365.134	7.51
365.35	2.08
365.565	101.48
365.781	-1.4
365.996	34.24
366.212	61.95
366.427	27.27
366.643	-11.29
366.858	-26.98
367.074	-21.55
367.289	62.53
367.505	87.72
367.72	-13.42
367.936	-2.37
368.151	34.24
368.367	8.86
368.582	19.33
368.798	-10.51
369.013	60.59
369.228	36.96
369.444	-4.12
369.659	53.04
369.874	3.63
370.09	41.03
370.305	-49.07
370.52	-19.62
370.736	52.46
370.951	7.12
371.166	67.96
371.381	68.15
371.597	39.48
371.812	-8.77
372.027	-52.75
372.242	21.07
372.458	69.12
372.673	2.66
372.888	11
373.103	32.11
373.318	97.79
373.533	22.43
373.749	21.65
373.964	-41.51
374.179	40.64
374.394	-22.14
374.609	60.98
374.824	-29.5
375.039	34.83
375.254	-22.72
375.469	53.43
375.684	37.73
375.899	26.11
376.114	10.8
376.329	25.53
376.544	53.23
376.759	41.61
376.974	7.7
377.189	16.03
377.404	14.48
377.619	33.86
377.834	-28.72
378.049	-29.5
378.264	-50.42
378.478	28.43
378.693	-9.74
378.908	21.46
379.123	-8.77
379.338	45.29
379.553	11.77
379.767	0.92
379.982	33.47
380.197	31.14
380.412	31.34
380.626	14.87
380.841	64.08
381.056	31.34
381.271	68.34
381.485	-11.29
381.7	-15.74
381.915	21.85
382.129	-9.15
382.344	35.21
382.559	-7.8
382.773	43.74
382.988	-48.87
383.202	19.33
383.417	-4.12
383.632	108.06
383.846	17.58
384.061	11.38
384.275	5.57
384.49	31.14
384.704	35.6
384.919	29.98
385.133	11.96
385.348	57.49
385.562	-32.4
385.777	42.38
385.991	16.81
386.206	1.11
386.42	4.99
386.634	64.08
386.849	34.83
387.063	15.45
387.277	-26.79
387.492	-3.15
387.706	-20.39
387.92	-14.58
388.135	26.69
388.349	22.23
388.563	-19.42
388.778	23.39
388.992	24.36
389.206	39.28
389.42	97.99
389.635	31.92
389.849	51.49
390.063	48
390.277	4.02
390.491	71.25
390.706	41.22
390.92	53.81
391.134	23.2
391.348	33.08
391.562	-11.09
391.776	-0.24
391.99	1.89
392.205	33.08
392.419	15.84
392.633	21.65
392.847	60.98
393.061	-21.17
393.275	95.66
393.489	17.78
393.703	11.96
393.917	77.84
394.131	6.54
394.345	33.28
394.559	53.81
394.773	16.03
394.986	28.04
395.2	44.71
395.414	63.89
395.628	-27.17
395.842	35.79
396.056	25.72
396.27	-34.92
396.484	30.18
396.697	21.65
396.911	43.54
397.125	30.56
397.339	75.32
397.553	32.31
397.766	84.43
397.98	52.84
398.194	60.79
398.408	30.95
398.621	54.01
398.835	50.91
399.049	40.06
399.262	53.23
399.476	51.1
399.69	39.48
399.903	87.14
400.117	15.06
400.331	68.93
400.544	10.22
400.758	147.2
400.971	60.59
401.185	44.13
401.398	14.29
401.612	81.71
401.826	47.03
402.039	65.05
402.253	12.16
402.466	47.03
402.68	24.94
402.893	54.2
403.106	33.08
403.32	33.47
403.533	61.18
403.747	25.91
403.96	54.78
404.174	70.86
404.387	-19.04
404.6	45.68
404.814	55.56
405.027	15.65
405.24	38.7
405.454	18.36
405.667	73.19
405.88	-23.3
406.094	36.18
406.307	75.9
406.52	75.13
406.733	5.57
406.947	-14.77
407.16	100.51
407.373	81.71
407.586	5.38
407.799	-13.03
408.012	42.38
408.226	23.39
408.439	91.01
408.652	-14.19
408.865	61.76
409.078	55.94
409.291	58.08
409.504	3.05
409.717	39.09
409.93	57.11
410.143	50.13
410.357	6.54
410.57	-23.1
410.783	35.41
410.996	54.39
411.209	59.04
411.421	76.09
411.634	36.96
411.847	6.93
412.06	35.6
412.273	17.58
412.486	47.81
412.699	135.57
412.912	25.14
413.125	70.48
413.338	58.66
413.55	63.31
413.763	56.14
413.976	48.78
414.189	3.83
414.402	28.24
414.615	89.85
414.827	-5.86
415.04	85.01
415.253	52.84
415.466	53.62
415.678	130.54
415.891	52.46
416.104	35.41
416.316	39.28
416.529	30.18
416.742	73.96
416.954	96.63
417.167	25.53
417.38	44.71
417.592	98.38
417.805	10.41
418.017	-19.42
418.23	72.41
418.442	34.63
418.655	37.54
418.868	44.13
419.08	64.08
419.293	90.43
419.505	74.54
419.718	67.76
419.93	88.69
420.142	23.98
420.355	82.1
420.567	87.33
420.78	74.93
420.992	44.51
421.205	97.99
421.417	4.99
421.629	47.81
421.842	32.31
422.054	0.34
422.266	75.51
422.479	98.57
422.691	51.49
422.903	59.04
423.115	39.86
423.328	58.27
423.54	82.29
423.752	77.64
423.964	35.99
424.177	77.06
424.389	51.49
424.601	158.44
424.813	83.65
425.025	112.13
425.238	100.7
425.45	67.38
425.662	33.08
425.874	333.2
426.086	73.19
426.298	59.63
426.51	84.43
426.722	44.71
426.934	41.41
427.146	109.81
427.358	42.77
427.57	115.42
427.782	56.14
427.994	63.5
428.206	54.39
428.418	26.69
428.63	112.32
428.842	78.23
429.054	78.61
429.266	104.77
429.478	52.84
429.69	39.09
429.902	50.52
430.114	106.71
430.325	79.58
430.537	71.06
430.749	76.87
430.961	41.8
431.173	66.79
431.384	102.64
431.596	50.91
431.808	59.24
432.02	83.46
432.231	98.57
432.443	105.35
432.655	91.79
432.867	48.39
433.078	71.06
433.29	126.47
433.502	134.8
433.713	147.39
433.925	96.05
434.136	112.32
434.348	50.13
434.56	33.08
434.771	185.37
434.983	74.74
435.194	75.32
435.406	79.97
435.617	107.29
435.829	171.81
436.04	126.27
436.252	111.55
436.463	137.9
436.675	132.86
436.886	116.01
437.098	109.03
437.309	180.14
437.521	121.62
437.732	139.06
437.943	102.64
438.155	129.18
438.366	55.17
438.578	179.75
438.789	106.71
439	165.61
439.211	112.32
439.423	154.56
439.634	164.64
439.845	141.58
440.057	140.42
440.268	159.41
440.479	113.29
440.69	139.84
440.902	108.26
441.113	106.13
441.324	111.74
441.535	150.3
441.746	206.49
441.957	99.73
442.168	112.32
442.38	140.61
442.591	147.01
442.802	115.04
443.013	129.76
443.224	161.34
443.435	142.74
443.646	136.16
443.857	129.18
444.068	133.64
444.279	120.07
444.49	201.84
444.701	143.32
444.912	256.86
445.123	176.07
445.334	161.92
445.545	179.56
445.756	159.21
445.967	103.8
446.178	169.29
446.388	196.99
446.599	181.49
446.81	187.69
447.021	167.93
447.232	189.24
447.443	229.15
447.653	132.28
447.864	220.63
448.075	170.45
448.286	185.56
448.496	190.79
448.707	211.14
448.918	161.92
449.129	266.16
449.339	160.96
449.55	201.25
449.761	144.1
449.971	243.1
450.182	184.79
450.393	194.47
450.603	156.69
450.814	208.81
451.024	192.15
451.235	251.82
451.446	257.25
451.656	266.35
451.867	183.04
452.077	211.72
452.288	254.34
452.498	274.49
452.709	192.54
452.919	228.96
453.13	176.84
453.34	255.5
453.55	186.92
453.761	240.59
453.971	209.2
454.182	235.16
454.392	220.63
454.602	274.88
454.813	232.84
455.023	261.7
455.233	170.64
455.444	235.35
455.654	146.62
455.864	230.12
456.075	212.1
456.285	194.86
456.495	212.69
456.705	227.41
456.916	272.94
457.126	290.77
457.336	224.7
457.546	160.76
457.756	217.53
457.967	268.49
458.177	216.95
458.387	240.97
458.597	218.11
458.807	202.22
459.017	239.04
459.227	220.05
459.437	221.02
459.647	246.59
459.857	247.37
460.068	209.2
460.278	275.27
460.488	262.29
460.698	289.22
460.908	230.9
461.117	190.41
461.327	190.99
461.537	255.7
461.747	232.06
461.957	221.79
462.167	375.43
462.377	277.59
462.587	247.37
462.797	292.32
463.007	265.77
463.216	269.45
463.426	293.87
463.636	303.55
463.846	221.79
464.056	248.72
464.265	302.58
464.475	243.69
464.685	263.84
464.895	256.28
465.104	272.36
465.314	293.67
465.524	225.09
465.733	249.5
465.943	360.32
466.153	327.58
466.362	311.5
466.572	278.95
466.782	241.55
466.991	274.3
467.201	347.34
467.41	240.2
467.62	293.67
467.829	273.72
468.039	278.37
468.249	260.35
468.458	289.99
468.668	316.15
468.877	294.06
469.086	358
469.296	353.15
469.505	267.71
469.715	365.94
469.924	282.63
470.134	358.38
470.343	355.09
470.552	310.53
470.762	302.58
470.971	280.69
471.18	305.1
471.39	285.73
471.599	280.3
471.808	333.2
472.018	283.21
472.227	362.07
472.436	343.08
472.645	306.85
472.855	312.85
473.064	358.97
473.273	320.41
473.482	339.2
473.691	380.47
473.901	373.88
474.11	329.52
474.319	430.07
474.528	344.63
474.737	394.23
474.946	382.99
475.155	389.19
475.364	387.64
475.573	370.2
475.783	336.88
475.992	392.48
476.201	385.31
476.41	353.73
476.619	332.03
476.828	352.77
477.037	358.38
477.245	357.42
477.454	403.91
477.663	357.8
477.872	347.34
478.081	440.34
478.29	364.2
478.499	450.8
478.708	400.81
478.917	455.45
479.125	399.07
479.334	394.61
479.543	383.57
479.752	398.49
479.961	386.48
480.169	436.85
480.378	387.25
480.587	532.37
480.796	445.38
481.004	410.31
481.213	451.96
481.422	417.48
481.63	433.75
481.839	464.17
482.048	488.39
482.256	468.82
482.465	461.26
482.674	473.28
482.882	484.32
483.091	537.6
483.299	473.66
483.508	483.93
483.716	460.68
483.925	481.8
484.134	444.41
484.342	483.54
484.551	499.24
484.759	482.77
484.967	491.88
485.176	513.38
485.384	488
485.593	538.57
485.801	516.48
486.01	480.64
486.218	447.9
486.426	404.88
486.635	450.41
486.843	464.94
487.051	494.39
487.26	456.61
487.468	470.56
487.676	500.79
487.885	461.26
488.093	498.46
488.301	494.39
488.509	516.29
488.717	561.24
488.926	493.81
489.134	498.85
489.342	511.64
489.55	504.86
489.758	525.78
489.967	517.26
490.175	605.22
490.383	551.55
490.591	608.51
490.799	514.35
491.007	577.9
491.215	552.71
491.423	552.32
491.631	550
491.839	586.04
492.047	579.26
492.255	540.89
492.463	507.38
492.671	572.86
492.879	559.11
493.087	540.7
493.295	588.75
493.503	600.18
493.711	581.77
493.919	633.7
494.127	624.98
494.334	632.73
494.542	562.21
494.75	595.72
494.958	581.19
495.166	645.13
495.374	610.64
495.581	637.57
495.789	632.54
495.997	679.42
496.205	617.04
496.412	622.07
496.62	592.43
496.828	642.8
497.035	628.27
497.243	631.18
497.451	613.94
497.658	630.21
497.866	617.04
498.074	694.15
498.281	617.81
498.489	698.8
498.696	647.26
498.904	583.52
499.112	631.18
499.319	698.22
499.527	632.15
499.734	692.6
499.942	614.13
500.149	628.86
500.357	655.2
500.564	618.01
500.771	654.62
500.979	617.04
501.186	620.72
501.394	672.64
501.601	646.49
501.808	659.66
502.016	645.9
502.223	631.76
502.43	654.04
502.638	653.46
502.845	636.8
503.052	711.59
503.26	660.44
503.467	749.75
503.674	677.29
503.881	685.82
504.089	746.27
504.296	726.5
504.503	637.19
504.71	685.82
504.917	647.07
505.125	692.21
505.332	687.37
505.539	730.38
505.746	754.98
505.953	737.35
506.16	720.89
506.367	755.18
506.574	785.6
506.781	774.75
506.988	704.03
507.195	753.63
507.402	730.96
507.609	792.77
507.816	714.3
508.023	744.33
508.23	723.79
508.437	677.68
508.644	771.65
508.851	769.71
509.058	740.45
509.265	734.83
509.472	782.11
509.679	865.42
509.885	787.15
510.092	764.28
510.299	768.16
510.506	788.31
510.713	798.19
510.92	790.44
511.126	779.98
511.333	823.96
511.54	799.55
511.746	841.98
511.953	825.12
512.16	849.15
512.367	789.28
512.573	795.48
512.78	816.6
512.987	774.17
513.193	813.69
513.4	756.34
513.606	769.32
513.813	834.03
514.02	837.52
514.226	876.46
514.433	867.36
514.639	782.88
514.846	845.27
515.052	812.72
515.259	816.79
515.465	848.18
515.672	867.16
515.878	936.14
516.085	817.95
516.291	898.74
516.497	854.57
516.704	832.48
516.91	819.31
517.117	790.05
517.323	741.42
517.529	815.82
517.736	801.48
517.942	774.94
518.148	784.63
518.354	833.45
518.561	835
518.767	830.35
518.973	884.8
519.179	894.87
519.386	847.4
519.592	829
519.798	845.85
520.004	948.93
520.21	877.63
520.417	927.03
520.623	963.07
520.829	950.09
521.035	948.54
521.241	965.98
521.447	979.73
521.653	1071.76
521.859	948.73
522.065	997.56
522.271	1068.27
522.477	992.32
522.683	1072.92
522.889	973.34
523.095	997.94
523.301	972.37
523.507	967.53
523.713	1004.34
523.919	947.57
524.125	1063.43
524.331	975.28
524.537	1087.07
524.742	1083
524.948	1070.21
525.154	1040.76
525.36	1188.59
525.566	1031.46
525.772	1150.42
525.977	1037.66
526.183	1073.12
526.389	1110.51
526.595	1074.28
526.8	1028.17
527.006	996.2
527.212	1001.62
527.417	990.97
527.623	977.99
527.829	1053.94
528.034	1040.96
528.24	1073.31
528.446	1040.18
528.651	1107.8
528.857	1102.18
529.062	1182.78
529.268	1126.4
529.473	1143.25
529.679	1109.74
529.884	1209.32
530.09	1147.13
530.295	1181.62
530.501	1210.48
530.706	1162.43
530.912	1123.1
531.117	1173.67
531.323	1192.85
531.528	1195.57
531.733	1193.82
531.939	1136.67
532.144	1180.45
532.35	1174.64
532.555	1220.37
532.76	1169.22
532.966	1196.53
533.171	1174.45
533.376	1122.91
533.581	1128.14
533.787	1184.33
533.992	1186.65
534.197	1244.58
534.402	1176.97
534.607	1197.12
534.813	1300
535.018	1205.64
535.223	1215.91
535.428	1214.17
535.633	1255.24
535.838	1261.63
536.043	1242.07
536.249	1327.7
536.454	1242.07
536.659	1237.03
536.864	1232.96
537.069	1238.58
537.274	1255.24
537.479	1285.66
537.684	1261.25
537.889	1210.87
538.094	1317.05
538.299	1241.87
538.504	1256.21
538.708	1230.63
538.913	1294.38
539.118	1246.33
539.323	1247.49
539.528	1233.54
539.733	1236.83
539.938	1313.17
540.142	1289.34
540.347	1266.09
540.552	1238.58
540.757	1269.19
540.962	1266.28
541.166	1221.53
541.371	1204.67
541.576	1257.56
541.781	1190.14
541.985	1261.44
542.19	1265.12
542.395	1329.83
542.599	1351.34
542.804	1314.14
543.008	1330.03
543.213	1275
543.418	1256.98
543.622	1305.03
543.827	1265.12
544.031	1329.64
544.236	1375.56
544.44	1303.1
544.645	1414.11
544.849	1336.03
545.054	1353.08
545.258	1411.4
545.463	1378.27
545.667	1258.34
545.872	1339.52
546.076	1326.35
546.281	1309.1
546.485	1307.36
546.689	1291.47
546.894	1362.38
547.098	1339.33
547.302	1263.57
547.507	1341.07
547.711	1347.46
547.915	1399.19
548.119	1313.17
548.324	1340.68
548.528	1382.14
548.732	1320.34
548.936	1376.53
549.141	1414.5
549.345	1347.85
549.549	1368
549.753	1375.36
549.957	1452.47
550.161	1436.78
550.366	1353.47
550.57	1353.66
550.774	1383.11
550.978	1385.05
551.182	1395.51
551.386	1339.52
551.59	1323.25
551.794	1341.26
551.998	1383.5
552.202	1365.29
552.406	1334.68
552.61	1394.74
552.814	1368.58
553.018	1430.77
553.222	1386.41
553.426	1377.88
553.63	1424.77
553.833	1352.89
554.037	1321.11
554.241	1415.66
554.445	1367.61
554.649	1342.23
554.853	1368.97
555.056	1411.01
555.26	1438.33
555.464	1413.14
555.668	1413.73
555.871	1458.87
556.075	1381.37
556.279	1353.28
556.483	1325.18
556.686	1358.89
556.89	1383.11
557.094	1382.73
557.297	1320.92
557.501	1382.73
557.704	1310.46
557.908	1356.38
558.112	1335.64
558.315	1430.19
558.519	1362.77
558.722	1318.21
558.926	1314.14
559.129	1260.08
559.333	1257.76
559.536	1268.41
559.74	1243.62
559.943	1290.5
560.147	1236.64
560.35	1290.89
560.553	1276.55
560.757	1242.07
560.96	1365.29
561.164	1301.74
561.367	1369.16
561.57	1272.87
561.774	1310.65
561.977	1284.3
562.18	1255.82
562.384	1390.67
562.587	1279.07
562.79	1278.49
562.993	1300.38
563.197	1322.66
563.4	1403.07
563.603	1328.09
563.806	1392.8
564.009	1301.74
564.212	1339.52
564.416	1274.03
564.619	1318.01
564.822	1272.29
565.025	1316.08
565.228	1261.44
565.431	1281.2
565.634	1191.3
565.837	1224.24
566.04	1220.17
566.243	1233.54
566.446	1152.55
566.649	1235.87
566.852	1189.56
567.055	1237.61
567.258	1249.23
567.461	1295.93
567.664	1321.31
567.867	1182.2
568.07	1224.82
568.273	1259.11
568.475	1274.81
568.678	1235.28
568.881	1207
569.084	1228.89
569.287	1109.74
569.489	1145
569.692	1204.48
569.895	1263.38
570.098	1162.63
570.3	1151
570.503	1117.49
570.706	1142.48
570.909	1154.1
571.111	1111.67
571.314	1124.46
571.516	1172.12
571.719	1148.49
571.922	1103.54
572.124	1100.24
572.327	1138.99
572.529	1091.14
572.732	1089.59
572.935	1172.7
573.137	1190.14
573.34	1131.82
573.542	1158.17
573.745	1154.49
573.947	1161.47
574.15	1099.85
574.352	1100.82
574.554	1165.92
574.757	1084.35
574.959	1062.85
575.162	1088.23
575.364	1070.79
575.566	1199.83
575.769	1086.49
575.971	1076.8
576.173	998.72
576.376	1073.89
576.578	1121.36
576.78	1164.37
576.982	1018.09
577.185	1059.36
577.387	1058.39
577.589	1031.85
577.791	1075.83
577.993	1072.54
578.196	1055.29
578.398	1107.02
578.6	1126.79
578.802	1052
579.004	1004.72
579.206	1058.78
579.408	1082.03
579.61	1045.41
579.812	1086.29
580.014	1066.34
580.216	1058.59
580.418	1033.4
580.62	1046.38
580.822	987.29
581.024	1080.87
581.226	1120.2
581.428	1023.52
581.63	1131.24
581.832	1052.77
582.034	1117.1
582.236	1081.06
582.438	1106.64
582.64	1098.5
582.841	1152.75
583.043	1196.34
583.245	1098.89
583.447	1085.9
583.649	1086.49
583.85	1104.7
584.052	1120.78
584.254	1072.34
584.456	1129.11
584.657	1039.79
584.859	1103.54
585.061	1089.59
585.262	1074.28
585.464	1024.87
585.666	1081.45
585.867	1032.62
586.069	1135.12
586.27	1085.13
586.472	1063.24
586.674	1033.01
586.875	1054.52
587.077	1037.86
587.278	1058.78
587.48	1026.81
587.681	1137.44
587.883	1099.27
588.084	1009.37
588.285	1033.59
588.487	1022.36
588.688	1050.84
588.89	983.22
589.091	932.07
589.292	993.49
589.494	953.38
589.695	906.88
589.896	855.35
590.098	851.86
590.299	958.23
590.5	874.91
590.702	915.99
590.903	958.42
591.104	1002.79
591.305	956.87
591.507	1033.01
591.708	997.36
591.909	940.4
592.11	1074.28
592.311	993.49
592.512	953.77
592.714	950.28
592.915	933.81
593.116	962.29
593.317	985.93
593.518	963.84
593.719	979.34
593.92	972.37
594.121	1022.36
594.322	970.24
594.523	988.64
594.724	943.89
594.925	958.23
595.126	1007.05
595.327	972.18
595.528	982.06
595.729	955.51
595.929	969.08
596.13	975.47
596.331	962.1
596.532	992.32
596.733	1016.16
596.934	1023.71
597.135	1020.81
597.335	992.91
597.536	949.12
597.737	959.19
597.938	949.31
598.138	990.97
598.339	965.01
598.54	978.57
598.74	965.59
598.941	953.38
599.142	1040.37
599.342	1015.77
599.543	946.6
599.744	962.68
599.944	981.48
600.145	959.58
600.345	959.97
600.546	1047.93
600.746	1006.86
600.947	1062.66
601.147	973.92
601.348	1005.69
601.548	926.45
601.749	992.91
601.949	912.5
602.15	941.76
602.35	975.66
602.551	999.11
602.751	927.42
602.951	961.71
603.152	894.68
603.352	959.58
603.552	996.2
603.753	1007.82
603.953	1005.89
604.153	952.41
604.354	962.49
604.554	960.55
604.754	973.14
604.954	900.1
605.155	951.44
605.355	935.56
605.555	1020.03
605.755	1010.34
605.955	979.93
606.155	1001.43
606.356	952.03
606.556	1002.4
606.756	950.48
606.956	898.94
607.156	1009.96
607.356	913.08
607.556	969.08
607.756	969.27
607.956	1022.36
608.156	993.29
608.356	915.6
608.556	983.99
608.756	925.87
608.956	911.92
609.156	946.21
609.356	932.84
609.556	926.84
609.755	937.49
609.955	888.09
610.155	924.71
610.355	925.29
610.555	880.53
610.755	930.71
610.954	853.8
611.154	935.36
611.354	949.89
611.554	922.19
611.753	898.94
611.953	860.77
612.153	934.78
612.352	936.72
612.552	862.13
612.752	844.69
612.951	896.03
613.151	903.78
613.351	852.44
613.55	892.35
613.75	902.23
613.949	871.04
614.149	925.68
614.348	883.05
614.548	843.53
614.747	838.88
614.947	851.28
615.146	791.6
615.346	862.13
615.545	863.68
615.745	895.06
615.944	903.98
616.144	884.41
616.343	897.19
616.542	842.75
616.742	869.88
616.941	824.54
617.14	802.84
617.34	837.91
617.539	821.05
617.738	819.7
617.938	895.06
618.137	842.17
618.336	811.56
618.535	858.06
618.734	861.35
618.934	825.12
619.133	851.08
619.332	849.92
619.531	835.2
619.73	827.83
619.929	862.32
620.128	856.51
620.328	902.23
620.527	802.07
620.726	873.75
620.925	876.27
621.124	799.74
621.323	854.38
621.522	800.32
621.721	812.14
621.92	808.46
622.119	887.7
622.318	802.84
622.517	844.3
622.715	825.9
622.914	782.3
623.113	809.04
623.312	756.92
623.511	843.33
623.71	805.17
623.909	800.32
624.107	865.03
624.306	754.21
624.505	758.47
624.704	784.05
624.902	780.37
625.101	851.28
625.3	817.76
625.499	761.96
625.697	779.4
625.896	760.8
626.095	821.63
626.293	733.48
626.492	723.4
626.69	776.3
626.889	745.88
627.088	824.54
627.286	766.22
627.485	775.13
627.683	770.87
627.882	752.47
628.08	679.81
628.279	705.77
628.477	827.83
628.676	711.39
628.874	755.37
629.073	732.51
629.271	712.55
629.469	751.3
629.668	727.86
629.866	738.9
630.065	703.64
630.263	774.36
630.461	736
630.66	732.32
630.858	775.72
631.056	761.57
631.254	780.95
631.453	730.57
631.651	789.08
631.849	758.67
632.047	742.78
632.245	762.54
632.444	766.61
632.642	765.45
632.84	804
633.038	744.72
633.236	691.82
633.434	718.17
633.632	710.04
633.83	705.97
634.028	752.66
634.227	762.35
634.425	819.7
634.623	764.28
634.821	754.79
635.019	780.95
635.216	735.42
635.414	772.03
635.612	756.73
635.81	740.45
636.008	795.28
636.206	757.89
636.404	758.67
636.602	706.35
636.8	731.54
636.997	780.37
637.195	777.85
637.393	755.18
637.591	799.55
637.789	761.77
637.986	727.28
638.184	768.35
638.382	784.43
638.58	785.98
638.777	815.24
638.975	745.3
639.173	761.77
639.37	755.76
639.568	779.59
639.765	780.37
639.963	725.34
640.161	799.93
640.358	766.61
640.556	739.1
640.753	703.84
640.951	690.47
641.148	754.6
641.346	741.03
641.543	742
641.741	745.3
641.938	721.47
642.136	729.22
642.333	713.91
642.531	774.94
642.728	793.54
642.925	728.44
643.123	726.31
643.32	748.01
643.517	708.68
643.715	749.37
643.912	711
644.109	727.08
644.306	736.19
644.504	692.79
644.701	738.13
644.898	707.9
645.095	674.39
645.293	742.78
645.49	739.87
645.687	691.82
645.884	730.96
646.081	650.75
646.278	677.68
646.475	683.3
646.672	679.81
646.87	734.45
647.067	730.18
647.264	731.93
647.461	648.23
647.658	654.43
647.855	709.26
648.052	664.5
648.249	599.41
648.446	650.55
648.642	632.92
648.839	635.25
649.036	652.49
649.233	596.5
649.43	605.61
649.627	586.81
649.824	627.31
650.021	618.59
650.217	612.19
650.414	613.94
650.611	654.04
650.808	656.95
651.004	679.81
651.201	675.35
651.398	693.76
651.595	639.32
651.791	616.46
651.988	676.13
652.185	618.39
652.381	652.3
652.578	595.72
652.775	661.02
652.971	616.84
653.168	655.2
653.364	672.45
653.561	619.36
653.757	623.43
653.954	627.31
654.15	619.17
654.347	659.47
654.543	631.96
654.74	623.04
654.936	607.93
655.133	642.42
655.329	620.52
655.525	600.76
655.722	649.97
655.918	573.44
656.115	612.39
656.311	551.36
656.507	528.3
656.704	488.58
656.9	521.13
657.096	539.15
657.292	499.43
657.489	580.03
657.685	549.81
657.881	550.97
658.077	560.85
658.273	574.61
658.47	637.77
658.666	601.92
658.862	635.64
659.058	587.97
659.254	630.99
659.45	578.29
659.646	588.17
659.842	595.92
660.038	618.78
660.234	554.46
660.43	581
660.626	648.23
660.822	658.69
661.018	638.54
661.214	600.37
661.41	561.24
661.606	611.61
661.802	640.29
661.998	606.77
662.194	618.59
662.39	633.89
662.586	635.25
662.781	618.59
662.977	596.5
663.173	613.74
663.369	608.71
663.564	606.19
663.76	643.77
663.956	583.13
664.152	627.69
664.347	545.16
664.543	568.6
664.739	590.11
664.934	540.7
665.13	509.7
665.326	600.96
665.521	582.74
665.717	550.97
665.912	551.74
666.108	494.98
666.304	541.67
666.499	578.29
666.695	507.18
666.89	545.54
667.086	604.25
667.281	573.83
667.477	647.45
667.672	579.26
667.867	564.34
668.063	574.61
668.258	523.26
668.454	581.97
668.649	642.8
668.844	578.48
669.04	597.66
669.235	545.16
669.43	543.03
669.626	539.93
669.821	554.84
670.016	526.56
670.211	572.86
670.407	537.79
670.602	546.51
670.797	538.18
670.992	587.39
671.187	514.74
671.382	575.57
671.578	519.78
671.773	592.24
671.968	506.41
672.163	552.13
672.358	558.14
672.553	516.87
672.748	506.02
672.943	617.04
673.138	561.82
673.333	566.86
673.528	506.21
673.723	550.58
673.918	511.25
674.113	501.56
674.308	586.62
674.503	583.71
674.698	575.19
674.892	553.29
675.087	549.42
675.282	546.12
675.477	527.14
675.672	570.34
675.867	519.97
676.061	497.3
676.256	484.32
676.451	482.77
676.646	505.83
676.84	495.75
677.035	487.61
677.23	492.65
677.424	531.79
677.619	541.48
677.814	537.99
678.008	503.11
678.203	469.98
678.397	502.34
678.592	550.77
678.787	565.11
678.981	518.23
679.176	543.41
679.37	522.68
679.565	499.63
679.759	527.33
679.954	536.05
680.148	554.84
680.342	568.99
680.537	567.05
680.731	522.1
680.926	536.44
681.12	544.77
681.314	526.94
681.509	502.34
681.703	494.59
681.897	537.21
682.092	504.28
682.286	503.5
682.48	558.72
682.674	576.35
682.869	513.19
683.063	529.27
683.257	564.72
683.451	511.25
683.645	519.58
683.839	532.95
684.034	521.52
684.228	555.62
684.422	490.52
684.616	494.39
684.81	558.14
685.004	540.12
685.198	516.68
685.392	538.57
685.586	503.31
685.78	504.66
685.974	540.51
686.168	559.11
686.362	574.8
686.556	496.91
686.75	467.27
686.944	456.23
687.138	509.7
687.331	352.77
687.525	410.89
687.719	370.2
687.913	426.78
688.107	433.75
688.301	382.02
688.494	467.85
688.688	412.63
688.882	364.39
689.076	368.46
689.269	421.35
689.463	488.58
689.657	422.32
689.85	446.93
690.044	460.1
690.238	453.13
690.431	462.81
690.625	426.78
690.818	464.94
691.012	488
691.205	505.83
691.399	449.64
691.593	510.67
691.786	546.51
691.98	522.49
692.173	558.14
692.366	530.24
692.56	541.28
692.753	591.85
692.947	503.31
693.14	590.49
693.333	588.56
693.527	475.02
693.72	556.78
693.914	510.86
694.107	547.67
694.3	598.24
694.493	535.86
694.687	606.96
694.88	531.01
695.073	614.52
695.266	593.4
695.46	577.9
695.653	638.93
695.846	655.98
696.039	546.13
696.232	582.94
696.425	634.67
696.618	641.06
696.812	635.05
697.005	702.29
697.198	745.88
697.391	684.46
697.584	716.82
697.777	756.53
697.97	730.18
698.163	737.35
698.356	706.35
698.549	784.05
698.742	764.87
698.935	729.02
699.127	755.95
699.32	701.51
699.513	716.62
699.706	737.93
699.899	786.37
700.092	733.48
700.285	779.01
700.477	696.28
700.67	779.01
700.863	799.16
701.056	863.29
701.248	820.66
701.441	845.85
701.634	796.64
701.826	889.25
702.019	809.04
702.212	869.3
702.404	836.36
702.597	807.49
702.79	854.18
702.982	863.1
703.175	868.71
703.367	893.9
703.56	855.54
703.752	1000.66
703.945	910.56
704.137	967.72
704.33	946.6
704.522	962.29
704.715	965.59
704.907	1010.15
705.1	1041.34
705.292	1023.13
705.484	1010.92
705.677	1030.3
705.869	1001.43
706.061	1063.04
706.254	1108.77
706.446	1060.52
706.638	1050.06
706.831	1109.93
707.023	1067.69
707.215	1163.4
707.407	1117.29
707.599	1139.19
707.792	1177.55
707.984	1165.92
708.176	1194.79
708.368	1151.59
708.56	1176.38
708.752	1158.95
708.944	1127.56
709.136	1245.94
709.329	1185.49
709.521	1327.9
709.713	1259.5
709.905	1244.2
710.097	1320.73
710.289	1241.48
710.481	1289.92
710.672	1302.32
710.864	1292.25
711.056	1331.58
711.248	1323.25
711.44	1329.83
711.632	1288.18
711.824	1371.29
712.016	1379.82
712.207	1365.09
712.399	1379.43
712.591	1450.92
712.783	1422.64
712.975	1422.83
713.166	1378.46
713.358	1434.07
713.55	1474.37
713.741	1461.77
713.933	1472.62
714.125	1465.46
714.316	1462.36
714.508	1494.91
714.7	1548.57
714.891	1473.59
715.083	1547.8
715.274	1461.97
715.466	1488.9
715.657	1523.77
715.849	1451.7
716.04	1561.36
716.232	1444.34
716.423	1536.37
716.615	1452.86
716.806	1419.34
716.998	1399.97
717.189	1322.28
717.381	1265.7
717.572	1251.95
717.763	1302.9
717.955	1263.76
718.146	1221.33
718.337	1241.68
718.528	1203.9
718.72	1168.63
718.911	1220.17
719.102	1161.08
719.293	1267.45
719.485	1201.57
719.676	1201.96
719.867	1167.28
720.058	1146.55
720.249	1168.83
720.44	1209.9
720.632	1224.82
720.823	1279.65
721.014	1355.02
721.205	1347.08
721.396	1426.12
721.587	1488.71
721.778	1525.71
721.969	1543.92
722.16	1598.17
722.351	1549.74
722.542	1684.58
722.733	1689.04
722.924	1588.1
723.115	1669.67
723.305	1627.82
723.496	1624.52
723.687	1562.91
723.878	1570.85
724.069	1568.92
724.26	1579.57
724.45	1521.25
724.641	1505.95
724.832	1566.4
725.023	1548.96
725.213	1549.54
725.404	1491.42
725.595	1521.45
725.785	1481.54
725.976	1570.66
726.167	1557.49
726.357	1563.1
726.548	1644.67
726.739	1570.27
726.929	1603.02
727.12	1624.91
727.31	1685.55
727.501	1591.59
727.691	1623.75
727.882	1625.49
728.072	1692.33
728.263	1708.03
728.453	1724.5
728.644	1712.1
728.834	1680.9
729.024	1676.06
729.215	1677.42
729.405	1714.61
729.596	1797.54
729.786	1804.71
729.976	1778.16
730.167	1757.24
730.357	1750.46
730.547	1747.94
730.737	1775.64
730.928	1827.96
731.118	1858.96
731.308	1788.04
731.498	1819.24
731.688	1888.21
731.879	1877.94
732.069	1950.4
732.259	1925.99
732.449	1987.8
732.639	2028.87
732.829	2070.92
733.019	2048.44
733.209	2117.8
733.399	2100.56
733.589	2173.6
733.779	2167.6
733.969	2149.77
734.159	2225.53
734.349	2269.7
734.539	2296.82
734.729	2270.86
734.919	2317.94
735.109	2309.22
735.299	2299.34
735.488	2328.21
735.678	2303.61
735.868	2324.53
736.058	2333.25
736.248	2294.31
736.437	2264.86
736.627	2261.37
736.817	2392.34
737.007	2315.81
737.196	2403.97
737.386	2374.52
737.576	2347.78
737.765	2398.74
737.955	2353.21
738.144	2496.77
738.334	2451.44
738.524	2371.03
738.713	2417.53
738.903	2404.16
739.092	2483.02
739.282	2429.35
739.471	2454.34
739.661	2432.25
739.85	2450.47
740.04	2468.1
740.229	2489.8
740.419	2486.7
740.608	2533.58
740.797	2495.8
740.987	2575.43
741.176	2515.57
741.365	2503.75
741.555	2452.21
741.744	2555.09
741.933	2519.83
742.123	2540.95
742.312	2572.91
742.501	2582.8
742.69	2621.16
742.88	2508.2
743.069	2656.42
743.258	2576.21
743.447	2637.24
743.636	2626
743.825	2573.5
744.014	2584.15
744.204	2632.98
744.393	2582.6
744.582	2639.56
744.771	2665.33
744.96	2647.7
745.149	2664.94
745.338	2595.78
745.527	2653.51
745.716	2580.47
745.905	2597.52
746.094	2635.69
746.283	2660.29
746.471	2643.25
746.66	2689.16
746.849	2650.99
747.038	2706.02
747.227	2652.16
747.416	2702.53
747.604	2642.08
747.793	2675.21
747.982	2650.22
748.171	2675.02
748.359	2703.69
748.548	2689.16
748.737	2643.63
748.926	2638.4
749.114	2569.23
749.303	2635.3
749.491	2655.06
749.68	2576.21
749.869	2657.97
750.057	2588.41
750.246	2592.48
750.434	2622.32
750.623	2635.11
750.811	2586.28
751	2666.49
751.188	2581.63
751.377	2622.9
751.565	2610.31
751.754	2580.86
751.942	2596.55
752.131	2599.07
752.319	2573.11
752.507	2567.49
752.696	2615.93
752.884	2678.89
753.072	2599.26
753.261	2608.56
753.449	2606.24
753.637	2569.62
753.825	2699.43
754.014	2579.89
754.202	2655.64
754.39	2683.16
754.578	2635.11
754.766	2578.73
754.955	2560.71
755.143	2695.56
755.331	2576.98
755.519	2570.2
755.707	2545.6
755.895	2550.63
756.083	2588.61
756.271	2549.86
756.459	2542.88
756.647	2615.35
756.835	2556.64
757.023	2539.4
757.211	2520.02
757.399	2549.86
757.587	2508.2
757.775	2533.39
757.963	2492.32
758.151	2541.33
758.339	2458.41
758.526	2455.31
758.714	2452.79
758.902	2383.43
759.09	2383.24
759.278	2215.06
759.465	2025.77
759.653	1757.63
759.841	1603.98
760.028	1330.41
760.216	1190.33
760.404	1143.64
760.591	912.69
760.779	741.42
760.967	661.02
761.154	554.26
761.342	613.16
761.529	585.46
761.717	647.84
761.905	599.41
762.092	667.6
762.28	636.22
762.467	654.43
762.655	594.37
762.842	630.79
763.029	612.19
763.217	619.36
763.404	621.49
763.592	679.04
763.779	599.79
763.966	670.12
764.154	679.62
764.341	761.18
764.528	757.7
764.716	787.15
764.903	791.99
765.09	883.83
765.277	932.46
765.465	1062.66
765.652	1066.14
765.839	1174.45
766.026	1224.82
766.213	1238.97
766.4	1302.13
766.588	1487.74
766.775	1485.02
766.962	1549.35
767.149	1589.65
767.336	1746.78
767.523	1670.25
767.71	1823.5
767.897	1902.55
768.084	1938.2
768.271	1968.42
768.458	1973.46
768.645	2076.34
768.832	2023.84
769.019	2059.87
769.206	2081.96
769.392	2146.86
769.579	2243.54
769.766	2193.95
769.953	2148.22
770.14	2232.69
770.327	2213.13
770.513	2257.88
770.7	2268.73
770.887	2208.09
771.073	2223.59
771.26	2244.13
771.447	2223.39
771.634	2230.95
771.82	2329.57
772.007	2195.3
772.193	2275.71
772.38	2299.15
772.567	2252.26
772.753	2249.36
772.94	2270.48
773.126	2290.63
773.313	2300.12
773.499	2341.58
773.686	2326.66
773.872	2256.91
774.059	2277.64
774.245	2246.45
774.432	2248.58
774.618	2217.39
774.804	2274.74
774.991	2210.8
775.177	2268.34
775.363	2227.27
775.55	2264.08
775.736	2185.23
775.922	2249.74
776.109	2244.71
776.295	2242.77
776.481	2260.59
776.667	2252.26
776.853	2198.79
777.04	2168.56
777.226	2194.14
777.412	2292.56
777.598	2128.07
777.784	2168.56
777.97	2147.45
778.156	2199.56
778.342	2185.23
778.528	2176.51
778.715	2161.78
778.901	2163.53
779.087	2187.36
779.272	2164.11
779.458	2092.42
779.644	2171.08
779.83	2112.18
780.016	2228.63
780.202	2161.2
780.388	2118.77
780.574	2074.4
780.76	2092.81
780.946	2138.53
781.131	2127.68
781.317	2151.13
781.503	2080.99
781.689	2139.31
781.874	2223.98
782.06	2062.2
782.246	2120.71
782.432	2125.94
782.617	2077.5
782.803	2129.23
782.989	2012.79
783.174	2086.8
783.36	2008.53
783.545	2056
783.731	2038.75
783.916	2006.98
784.102	2076.92
784.288	2009.89
784.473	2015.12
784.659	2034.88
784.844	2065.3
785.029	1981.4
785.215	2034.68
785.4	1963.77
785.586	2053.28
785.771	1973.27
785.956	2023.25
786.142	1998.26
786.327	1999.62
786.512	1999.23
786.698	1949.82
786.883	1936.07
787.068	1913.21
787.254	1984.89
787.439	1937.04
787.624	1955.25
787.809	1926.38
787.994	1938.78
788.18	1993.8
788.365	1841.71
788.55	1900.42
788.735	1876.2
788.92	1880.27
789.105	1903.91
789.29	1893.64
789.475	1866.32
789.66	1868.45
789.845	1819.63
790.03	1790.18
790.215	1863.99
790.4	1855.47
790.585	1920.18
790.77	1821.76
790.955	1752.4
791.14	1822.53
791.325	1892.86
791.51	1766.15
791.695	1842.49
791.879	1858.18
792.064	1787.85
792.249	1906.81
792.434	1787.85
792.618	1816.33
792.803	1804.13
792.988	1810.33
793.173	1867.48
793.357	1827.57
793.542	1787.27
793.727	1805.68
793.911	1821.76
794.096	1808.39
794.281	1806.45
794.465	1912.24
794.65	1849.85
794.834	1852.76
795.019	1874.84
795.203	1877.94
795.388	1870.77
795.572	1919.6
795.757	1880.07
795.941	1899.45
796.126	1846.94
796.31	1818.27
796.494	1891.7
796.679	1837.06
796.863	1811.68
797.048	1881.43
797.232	1851.21
797.416	1864.96
797.601	1835.51
797.785	1878.91
797.969	1882.98
798.153	1821.95
798.338	1881.82
798.522	1857.21
798.706	1892.28
798.89	1885.89
799.074	1985.86
799.258	1971.91
799.443	1859.92
799.627	1851.4
799.811	1945.56
799.995	1856.63
800.179	1842.1
800.363	1862.25
800.547	1920.96
800.731	1904.87
800.915	1839.97
801.099	1873.49
801.283	1899.84
801.467	1893.25
801.651	1860.7
801.835	1949.82
802.019	1902.55
802.202	1901.19
802.386	1819.63
802.57	1811.88
802.754	1817.69
802.938	1797.15
803.121	1802.77
803.305	1883.95
803.489	1871.74
803.673	1902.74
803.856	1877.17
804.04	1845.98
804.224	1905.84
804.407	1848.11
804.591	1862.06
804.775	1830.28
804.958	1849.85
805.142	1969.59
805.326	1843.07
805.509	1891.31
805.693	1900.03
805.876	1901.58
806.06	1886.08
806.243	1870.77
806.427	1899.26
806.61	1932.58
806.794	1845.2
806.977	1912.04
807.16	1938.97
807.344	1906.62
807.527	1896.74
807.71	1853.53
807.894	1880.07
808.077	1902.94
808.26	1879.11
808.444	1845.39
808.627	1917.27
808.81	1851.98
808.993	1804.13
809.177	1828.93
809.36	1817.88
809.543	1881.04
809.726	1759.18
809.909	1765.18
810.092	1719.65
810.276	1764.21
810.459	1782.62
810.642	1786.49
810.825	1696.6
811.008	1718.68
811.191	1679.74
811.374	1654.94
811.557	1676.25
811.74	1765.38
811.923	1639.05
812.106	1618.71
812.289	1579.96
812.472	1581.32
812.654	1621.42
812.837	1595.07
813.02	1586.35
813.203	1576.86
813.386	1494.32
813.569	1492.97
813.751	1427.67
813.934	1498.59
814.117	1439.11
814.3	1390.48
814.482	1397.06
814.665	1368.97
814.848	1324.8
815.03	1275.78
815.213	1280.23
815.396	1260.47
815.578	1253.88
815.761	1226.95
815.943	1300.96
816.126	1196.92
816.309	1174.45
816.491	1154.88
816.674	1065.37
816.856	1134.73
817.039	1116.13
817.221	1194.02
817.403	1164.95
817.586	1181.23
817.768	1179.29
817.951	1120.78
818.133	1116.13
818.315	1177.74
818.498	1170.77
818.68	1247.49
818.862	1225.98
819.045	1218.43
819.227	1206.03
819.409	1192.47
819.591	1213.2
819.774	1177.16
819.956	1165.15
820.138	1222.69
820.32	1207.77
820.502	1242.07
820.684	1318.6
820.866	1304.26
821.048	1351.73
821.231	1373.04
821.413	1351.34
821.595	1294.38
821.777	1343.59
821.959	1308.33
822.141	1400.55
822.323	1278.88
822.505	1216.88
822.686	1180.84
822.868	1155.07
823.05	1067.69
823.232	1038.63
823.414	987.29
823.596	1083.39
823.778	1033.01
823.96	1056.26
824.141	1023.71
824.323	1081.64
824.505	1126.4
824.687	1192.66
824.868	1218.43
825.05	1292.05
825.232	1273.26
825.413	1351.53
825.595	1300.58
825.777	1268.03
825.958	1307.94
826.14	1270.35
826.321	1285.85
826.503	1275.78
826.685	1337.78
826.866	1341.07
827.048	1333.51
827.229	1253.69
827.411	1242.84
827.592	1228.7
827.773	1205.83
827.955	1175.42
828.136	1180.07
828.318	1134.15
828.499	1178.9
828.68	1100.24
828.862	1195.95
829.043	1201.57
829.224	1150.23
829.406	1142.29
829.587	1147.13
829.768	1146.55
829.949	1174.06
830.131	1154.88
830.312	1239.35
830.493	1176.58
830.674	1158.37
830.855	1194.98
831.036	1179.29
831.218	1192.85
831.399	1223.27
831.58	1164.37
831.761	1185.68
831.942	1183.94
832.123	1165.92
832.304	1142.87
832.485	1159.14
832.666	1172.32
832.847	1189.17
833.028	1189.56
833.209	1148.68
833.389	1145.39
833.57	1119.04
833.751	1150.81
833.932	1191.3
834.113	1184.33
834.294	1157.4
834.475	1160.5
834.655	1207.19
834.836	1189.95
835.017	1202.15
835.198	1146.74
835.378	1157.2
835.559	1225.21
835.74	1176
835.92	1160.88
836.101	1169.6
836.281	1218.23
836.462	1193.24
836.643	1223.27
836.823	1227.15
837.004	1208.16
837.184	1276.16
837.365	1251.36
837.545	1247.1
837.726	1157.79
837.906	1274.81
838.087	1226.37
838.267	1207.97
838.448	1163.21
838.628	1235.87
838.808	1224.63
838.989	1231.02
839.169	1170.38
839.349	1236.45
839.53	1280.23
839.71	1222.5
839.89	1181.42
840.07	1273.65
840.251	1180.07
840.431	1235.67
840.611	1218.62
840.791	1183.94
840.971	1214.75
841.151	1202.35
841.332	1191.88
841.512	1286.82
841.692	1160.88
841.872	1205.45
842.052	1202.73
842.232	1254.66
842.412	1129.69
842.592	1198.86
842.772	1222.3
842.952	1242.07
843.132	1180.07
843.312	1161.27
843.492	1153.72
843.672	1239.16
843.851	1141.7
844.031	1162.24
844.211	1187.62
844.391	1137.44
844.571	1176.58
844.751	1193.63
844.93	1195.95
845.11	1125.82
845.29	1178.32
845.47	1186.27
845.649	1178.52
845.829	1176.97
846.009	1135.5
846.188	1196.34
846.368	1170.96
846.547	1164.95
846.727	1193.82
846.907	1111.87
847.086	1201.18
847.266	1190.33
847.445	1159.14
847.625	1170.18
847.804	1112.06
847.984	1162.24
848.163	1147.13
848.343	1120.39
848.522	1158.37
848.701	1149.65
848.881	1097.92
849.06	1150.23
849.239	1139.57
849.419	1135.12
849.598	1089.78
849.777	1129.11
849.957	1094.82
850.136	1052.19
850.315	1019.45
850.494	1047.16
850.674	1057.81
850.853	1083
851.032	1065.95
851.211	1136.28
851.39	1082.42
851.569	1037.86
851.748	1056.46
851.927	1075.44
852.107	1079.51
852.286	1017.51
852.465	1042.12
852.644	1088.04
852.823	1063.43
853.002	1047.93
853.181	1058.78
853.359	1092.1
853.538	990.19
853.717	1067.31
853.896	979.34
854.075	925.48
854.254	956.48
854.433	876.66
854.611	938.46
854.79	863.48
854.969	945.83
855.148	943.5
855.327	924.51
855.505	951.25
855.684	932.07
855.863	958.42
856.041	946.21
856.22	950.86
856.399	933.62
856.577	1023.91
856.756	1007.44
856.934	1128.14
857.113	1103.54
857.291	1001.43
857.47	1005.31
857.648	1026.62
857.827	1060.33
858.005	1059.56
858.184	959.97
858.362	1060.72
858.541	1000.85
858.719	1025.07
858.898	1026.04
859.076	985.93
859.254	1068.66
859.433	981.67
859.611	948.54
859.789	969.46
859.967	1029.72
860.146	1047.74
860.324	946.02
860.502	1012.09
860.68	950.67
860.859	924.71
861.037	973.73
861.215	1000.07
861.393	968.88
861.571	988.06
861.749	945.24
861.927	996.78
862.105	968.11
862.283	977.41
862.461	946.6
862.639	925.48
862.817	924.51
862.995	952.03
863.173	936.91
863.351	957.84
863.529	977.6
863.707	1007.24
863.885	942.92
864.063	882.47
864.241	908.63
864.418	979.54
864.596	893.13
864.774	904.17
864.952	951.83
865.129	924.51
865.307	896.03
865.485	873.17
865.663	961.71
865.84	858.83
866.018	896.23
866.196	784.05
866.373	792.77
866.551	766.61
866.728	752.47
866.906	808.85
867.084	781.53
867.261	842.95
867.439	832.48
867.616	864.45
867.794	860.96
867.971	853.99
868.149	862.51
868.326	907.85
868.503	879.56
868.681	857.09
868.858	845.85
869.035	825.51
869.213	877.05
869.39	834.03
869.567	925.48
869.745	849.15
869.922	864.84
870.099	866.39
870.276	909.79
870.454	895.45
870.631	875.3
870.808	855.15
870.985	880.73
871.162	949.31
871.339	892.93
871.517	808.07
871.694	848.56
871.871	849.73
872.048	841.4
872.225	846.82
872.402	887.12
872.579	784.82
872.756	863.1
872.933	799.35
873.11	829.58
873.287	831.51
873.463	827.45
873.64	783.27
873.817	856.7
873.994	856.7
874.171	785.79
874.348	854.96
874.524	786.37
874.701	803.81
874.878	757.7
875.055	836.75
875.231	804.78
875.408	843.91
875.585	713.52
875.762	774.17
875.938	784.82
876.115	794.32
876.291	803.62
876.468	761.96
876.645	717.79
876.821	762.93
876.998	761.38
877.174	805.55
877.351	764.87
877.527	777.27
877.704	773.58
877.88	768.74
878.057	747.43
878.233	798.97
878.409	783.47
878.586	790.83
878.762	772.81
878.938	754.6
879.115	690.85
879.291	750.92
879.467	685.62
879.644	705.39
879.82	746.27
879.996	698.22
880.172	709.26
880.349	743.75
880.525	758.67
880.701	711.2
880.877	694.73
881.053	730.38
881.229	726.31
881.405	771.26
881.581	693.57
881.757	739.48
881.933	736.77
882.109	749.37
882.285	718.17
882.461	692.99
882.637	729.99
882.813	704.42
882.989	709.65
883.165	763.7
883.341	687.17
883.517	728.44
883.693	717.79
883.869	761.38
884.044	722.82
884.22	714.1
884.396	784.05
884.572	765.45
884.747	789.67
884.923	749.95
885.099	761.96
885.275	781.53
885.45	698.8
885.626	692.21
885.801	689.11
885.977	730.18
886.153	654.62
886.328	734.83
886.504	721.66
886.679	718.75
886.855	725.92
887.03	734.06
887.206	790.05
887.381	742
887.557	758.28
887.732	719.53
887.908	748.59
888.083	762.54
888.258	713.72
888.434	671.67
888.609	723.6
888.784	775.13
888.96	706.94
889.135	707.71
889.31	691.05
889.485	723.21
889.661	709.07
889.836	737.16
890.011	730.96
890.186	735.22
890.361	701.51
890.537	719.53
890.712	726.7
890.887	723.98
891.062	720.11
891.237	769.13
891.412	702.87
891.587	737.93
891.762	758.47
891.937	781.33
892.112	655.4
892.287	703.64
892.462	677.29
892.637	649.39
892.812	645.71
892.987	651.52
893.161	670.51
893.336	656.17
893.511	650.55
893.686	658.89
893.861	671.29
894.035	636.6
894.21	658.5
894.385	621.88
894.56	643.39
894.734	589.91
894.909	607.93
895.084	590.88
895.258	593.98
895.433	613.55
895.608	584.68
895.782	574.99
895.957	552.32
896.131	569.18
896.306	500.98
896.48	535.86
896.655	532.37
896.829	442.47
897.004	475.79
897.178	489.55
897.353	441.31
897.527	520.16
897.701	508.54
897.876	421.74
898.05	525.2
898.224	508.34
898.399	542.83
898.573	468.24
898.747	398.88
898.921	456.03
899.096	380.47
899.27	394.81
899.444	370.98
899.618	443.05
899.792	392.29
899.967	414.76
900.141	442.28
900.315	415.35
900.489	417.09
900.663	440.34
900.837	404.3
901.011	380.08
901.185	461.65
901.359	404.11
901.533	432.98
901.707	447.12
901.881	408.95
902.055	352.96
902.229	392.48
902.403	493.43
902.576	431.23
902.75	424.06
902.924	565.69
903.098	459.91
903.272	511.44
903.446	511.06
903.619	518.03
903.793	553.1
903.967	497.69
904.14	551.74
904.314	568.6
904.488	512.41
904.661	545.16
904.835	513.38
905.009	566.66
905.182	595.92
905.356	551.36
905.529	534.31
905.703	498.66
905.876	496.72
906.05	479.86
906.223	511.25
906.397	422.51
906.57	410.31
906.744	414.18
906.917	428.71
907.09	428.52
907.264	433.36
907.437	377.95
907.61	377.37
907.784	374.66
907.957	419.8
908.13	398.1
908.304	414.76
908.477	370.2
908.65	392.87
908.823	350.83
908.996	435.3
909.17	368.65
909.343	354.12
909.516	362.07
909.689	363.62
909.862	342.5
910.035	368.07
910.208	313.43
910.381	350.25
910.554	443.25
910.727	364.39
910.9	350.44
911.073	335.91
911.246	394.23
911.419	424.84
911.592	377.37
911.765	341.92
911.938	347.15
912.11	363.81
912.283	376.79
912.456	428.52
912.629	393.06
912.802	346.18
912.974	315.76
913.147	290.96
913.32	254.73
913.493	283.4
913.665	345.02
913.838	329.32
914.01	284.76
914.183	305.1
914.356	284.57
914.528	340.17
914.701	413.02
914.873	343.85
915.046	314.4
915.218	277.98
915.391	237.29
915.563	254.73
915.736	316.92
915.908	351.22
916.081	308.2
916.253	307.43
916.425	321.18
916.598	331.84
916.77	323.7
916.942	289.41
917.115	239.23
917.287	318.86
917.459	330.87
917.632	280.89
917.804	222.37
917.976	290.77
918.148	296.38
918.32	304.33
918.493	340.17
918.665	361.68
918.837	313.05
919.009	374.27
919.181	362.84
919.353	326.03
919.525	341.72
919.697	311.69
919.869	286.5
920.041	387.45
920.213	442.86
920.385	363.62
920.557	327.58
920.729	364
920.901	330.68
921.073	316.53
921.244	328.74
921.416	361.87
921.588	316.34
921.76	314.98
921.932	371.75
922.103	322.35
922.275	346.37
922.447	352.96
922.619	294.45
922.79	336.49
922.962	299.29
923.134	337.85
923.305	289.22
923.477	264.8
923.648	253.95
923.82	296.58
923.991	243.69
924.163	227.99
924.335	251.05
924.506	254.92
924.677	329.9
924.849	266.94
925.02	295.42
925.192	309.95
925.363	275.46
925.535	301.42
925.706	253.37
925.877	306.07
926.049	247.75
926.22	291.35
926.391	319.44
926.562	294.83
926.734	255.31
926.905	315.57
927.076	223.73
927.247	251.63
927.419	201.45
927.59	215.98
927.761	251.05
927.932	247.75
928.103	242.14
928.274	197.77
928.445	190.02
928.616	214.04
928.787	197.19
928.958	217.34
929.129	226.44
929.3	201.84
929.471	169.48
929.642	147.39
929.813	99.15
929.984	196.61
930.155	113.87
930.326	185.95
930.496	143.91
930.667	87.33
930.838	125.89
931.009	71.64
931.18	118.14
931.35	108.26
931.521	117.75
931.692	79
931.863	37.15
932.033	89.08
932.204	88.11
932.374	102.25
932.545	72.41
932.716	101.86
932.886	106.32
933.057	19.52
933.227	56.53
933.398	116.78
933.568	43.93
933.739	-6.44
933.909	15.84
934.08	98.18
934.25	-12.25
934.421	-1.6
934.591	50.13
934.761	21.65
934.932	-0.44
935.102	8.86
935.272	40.44
935.443	40.83
935.613	36.76
935.783	43.54
935.953	-20.2
936.123	145.46
936.294	-9.54
936.464	-4.31
936.634	37.54
936.804	-28.72
936.974	15.26
937.144	40.44
937.314	45.48
937.484	4.99
937.655	-4.31
937.825	67.57
937.995	0.15
938.165	47.03
938.334	17.2
938.504	56.53
938.674	0.92
938.844	29.01
939.014	89.85
939.184	46.84
939.354	100.12
939.524	97.79
939.694	35.21
939.863	39.48
940.033	109.42
940.203	103.22
940.373	91.4
940.542	94.11
940.712	45.68
940.882	99.54
941.051	104.58
941.221	61.95
941.391	121.24
941.56	76.09
941.73	25.91
941.899	144.1
942.069	52.84
942.238	80.16
942.408	28.43
942.577	95.66
942.747	47.42
942.916	16.23
943.086	37.54
943.255	99.15
943.425	74.93
943.594	31.34
943.763	-12.25
943.933	-9.74
944.102	-30.85
944.271	57.3
944.441	58.85
944.61	29.98
944.779	61.76
944.948	113.68
945.117	29.21
945.287	13.51
945.456	-8.77
945.625	22.62
945.794	76.09
945.963	33.86
946.132	79.39
946.301	17.39
946.47	68.93
946.639	-9.35
946.808	25.33
946.977	81.33
947.146	80.16
947.315	24.56
947.484	74.74
947.653	30.18
947.822	29.01
947.991	16.23
948.16	114.46
948.329	80.36
948.498	26.3
948.666	34.44
948.835	78.03
949.004	-6.25
949.173	-13.03
949.341	31.14
949.51	61.56
949.679	93.53
949.847	69.7
950.016	118.14
950.185	110.77
950.353	25.33
950.522	50.71
950.69	82.29
950.859	33.08
951.028	70.67
951.196	47.81
951.365	30.76
951.533	24.36
951.701	51.68
951.87	74.35
952.038	21.26
952.207	61.76
952.375	112.32
952.543	44.32
952.712	51.68
952.88	-5.09
953.048	99.34
953.217	41.22
953.385	43.93
953.553	82.1
953.721	26.11
953.89	37.15
954.058	1.89
954.226	26.88
954.394	49.55
954.562	-7.99
954.73	20.88
954.898	40.06
955.067	77.64
955.235	26.69
955.403	80.36
955.571	103.03
955.739	55.56
955.907	25.33
956.075	7.9
956.243	18.55
956.41	58.66
956.578	-7.99
956.746	-13.03
956.914	30.76
957.082	63.89
957.25	31.34
957.418	36.57
957.585	42.19
957.753	74.93
957.921	7.9
958.089	41.61
958.256	68.93
958.424	44.13
958.592	57.3
958.759	29.59
958.927	71.44
959.095	26.11
959.262	25.14
959.43	51.1
959.597	23.39
959.765	51.88
959.932	-2.76
960.1	83.07
960.267	38.12
960.435	34.83
960.602	63.69
960.77	20.1
960.937	2.66
961.104	62.53
961.272	12.16
961.439	34.44
961.606	63.31
961.774	59.63
961.941	31.73
962.108	61.56
962.275	61.56
962.443	96.83
962.61	53.04
962.777	116.2
962.944	70.09
963.111	73.58
963.278	90.43
963.446	76.87
963.613	29.98
963.78	58.27
963.947	68.54
964.114	52.07
964.281	142.36
964.448	63.5
964.615	38.89
964.782	62.53
964.949	81.71
965.116	112.91
965.282	99.73
965.449	38.7
965.616	14.1
965.783	78.23
965.95	64.08
966.117	31.14
966.283	23.78
966.45	55.94
966.617	39.67
966.784	109.81
966.95	71.25
967.117	80.55
967.284	36.76
967.45	57.11
967.617	132.47
967.784	75.32
967.95	120.66
968.117	88.11
968.283	103.99
968.45	186.14
968.616	58.66
968.783	116.78
968.949	62.92
969.116	129.18
969.282	67.57
969.449	57.3
969.615	88.3
969.781	17.97
969.948	54.98
970.114	28.43
970.28	107.09
970.447	58.27
970.613	108.06
970.779	59.24
970.945	79.39
971.112	74.35
971.278	56.33
971.444	65.05
971.61	95.47
971.776	41.41
971.942	86.17
972.108	99.73
972.275	47.03
972.441	64.86
972.607	142.74
972.773	41.22
972.939	95.47
973.105	79
973.271	39.48
973.437	60.59
973.602	48.97
973.768	63.89
973.934	46.26
974.1	89.08
974.266	-20.97
974.432	74.35
974.598	51.49
974.763	88.11
974.929	50.33
975.095	107.87
975.261	20.88
975.426	14.68
975.592	56.14
975.758	97.41
975.923	22.04
976.089	60.59
976.255	110.19
976.42	71.44
976.586	93.14
976.751	78.23
976.917	144.1
977.082	81.52
977.248	42.96
977.413	-4.89
977.579	50.91
977.744	77.84
977.91	4.41
978.075	32.5
978.24	74.93
978.406	28.63
978.571	32.31
978.736	23.59
978.902	96.44
979.067	14.48
979.232	3.44
979.397	69.31
979.563	122.21
979.728	18.16
979.893	63.31
980.058	43.35
980.223	63.31
980.388	66.21
980.554	55.36
980.719	42.77
980.884	49.36
981.049	102.64
981.214	52.07
981.379	82.29
981.544	34.63
981.709	56.53
981.874	33.28
982.039	54.59
982.204	82.1
982.368	63.89
982.533	35.02
982.698	83.46
982.863	91.59
983.028	81.52
983.193	69.89
983.357	60.59
983.522	74.74
983.687	21.26
983.852	37.15
984.016	38.7
984.181	41.99
984.346	76.48
984.51	66.6
984.675	37.34
984.839	81.91
985.004	63.69
985.168	99.93
985.333	46.06
985.498	41.03
985.662	70.09
985.827	36.57
985.991	67.18
986.155	94.89
986.32	108.06
986.484	116.2
986.649	74.54
986.813	4.41
986.977	54.78
987.142	65.44
987.306	29.01
987.47	51.88
987.634	48.58
987.799	68.93
987.963	68.15
988.127	76.48
988.291	129.96
988.455	65.24
988.62	47.61
988.784	68.54
988.948	91.79
989.112	34.44
989.276	95.08
989.44	34.83
989.604	24.36
989.768	21.85
989.932	110.39
990.096	41.8
990.26	22.43
990.424	32.11
990.588	39.09
990.752	120.07
990.915	97.21
991.079	13.51
991.243	39.86
991.407	59.04
991.571	43.54
991.734	54.01
991.898	51.88
992.062	126.27
992.226	38.31
992.389	0.73
992.553	-5.47
992.717	40.83
992.88	56.91
993.044	38.51
993.207	42.38
993.371	59.43
993.535	59.04
993.698	43.16
993.862	79.78
994.025	68.34
994.189	79.97
994.352	43.93
994.515	57.49
994.679	76.87
994.842	43.93
995.006	66.6
995.169	13.9
995.332	34.05
995.496	59.24
995.659	10.03
995.822	8.48
995.985	60.21
996.149	89.27
996.312	34.05
996.475	99.73
996.638	21.26
996.801	84.62
996.964	118.91
997.128	23.78
997.291	34.63
997.454	50.71
997.617	30.37
997.78	73.77
997.943	33.66
998.106	74.54
998.269	27.27
998.432	50.52
998.595	36.38
998.758	14.29
998.92	-7.02
999.083	-1.4
999.246	37.34
999.409	9.45
999.572	-25.24
999.735	20.88
999.897	76.09
1000.06	10.22
1000.223	35.21
1000.386	55.75
1000.548	67.38
1000.711	58.46
1000.874	43.54
1001.036	2.08
1001.199	70.28
1001.361	21.46
1001.524	35.41
1001.687	80.74
1001.849	14.48
1002.012	37.93
1002.174	35.6
1002.337	71.64
1002.499	6.15
1002.661	68.93
1002.824	-24.07
1002.986	8.09
1003.149	52.26
1003.311	13.13
1003.473	79.58
1003.636	30.56
1003.798	38.51
1003.96	66.99
1004.123	39.86
1004.285	26.11
1004.447	23.59
1004.609	18.16
1004.771	96.44
1004.933	-10.32
1005.096	3.25
1005.258	-9.15
1005.42	34.63
1005.582	76.29
1005.744	67.38
1005.906	7.7
1006.068	24.94
1006.23	-17.68
1006.392	-24.27
1006.554	20.3
1006.716	73.77
1006.878	42.38
1007.04	-28.72
1007.202	33.86
1007.363	34.83
1007.525	40.25
1007.687	52.84
1007.849	65.63
1008.011	-18.84
1008.172	-6.44
1008.334	31.34
1008.496	27.85
1008.658	-36.09
1008.819	9.25
1008.981	-26.98
1009.143	-14
1009.304	21.26
1009.466	37.15
1009.627	66.99
1009.789	123.17
1009.95	61.18
1010.112	0.92
1010.273	40.06
1010.435	-1.02
1010.596	29.01
1010.758	17.58
1010.919	13.13
1011.081	-12.25
1011.242	40.83
1011.403	61.56
1011.565	4.99
1011.726	35.41
1011.887	-9.74
1012.049	26.3
1012.21	46.06
1012.371	87.33
1012.532	-66.7
1012.693	11.77
1012.855	-17.68
1013.016	20.88
1013.177	72.61
1013.338	38.12
1013.499	114.84
1013.66	25.53
1013.821	58.46
1013.982	39.86
1014.143	42.58
1014.304	7.51
1014.465	36.76
1014.626	28.63
1014.787	-6.44
1014.948	103.99
1015.109	-67.08
1015.27	59.43
1015.431	-2.18
1015.592	-3.34
1015.752	85.59
1015.913	51.49
1016.074	40.44
1016.235	18.94
1016.395	2.47
1016.556	41.61
1016.717	10.22
1016.877	71.44
1017.038	8.86
1017.199	3.05
1017.359	29.4
1017.52	36.38
1017.681	-11.09
1017.841	11.96
1018.002	-1.02
1018.162	7.51
1018.323	78.03
1018.483	38.31
1018.644	-9.15
1018.804	-9.54
1018.964	-6.83
1019.125	6.15
1019.285	-3.15
1019.446	-8.57
1019.606	-27.75
1019.766	-51
1019.926	49.55
1020.087	39.67
1020.247	-39.19
1020.407	12.16
1020.567	37.15
1020.728	-26.79
1020.888	-1.6
1021.048	-18.07
1021.208	19.33
1021.368	-26.59
1021.528	76.29
1021.688	55.56
1021.848	53.81
1022.008	20.1
1022.168	-12.64
1022.328	32.31
1022.488	12.35
1022.648	-14.39
1022.808	16.61
1022.968	11.58
1023.128	1.89
1023.288	-18.26
1023.448	9.83
1023.608	48.19
1023.767	50.71
1023.927	-20.59
1024.087	-20.2
1024.247	-21.94
1024.406	8.86
1024.566	-43.06
1024.726	-12.25
1024.885	23.2
1025.045	22.43
1025.205	8.86
1025.364	20.1
1025.524	29.21
1025.683	7.51
1025.843	13.51
1026.003	-0.24
1026.162	60.01
1026.321	40.64
1026.481	28.43
1026.64	6.35
1026.8	39.28
1026.959	1.5
1027.119	6.54
1027.278	19.13
1027.437	-10.12
1027.597	-17.87
1027.756	18.16
1027.915	9.45
1028.074	7.12
1028.234	-20.78
1028.393	29.59
1028.552	-7.99
1028.711	-71.35
1028.87	24.94
1029.03	-22.14
1029.189	5.76
1029.348	-63.4
1029.507	11
1029.666	5.38
1029.825	-26.98
1029.984	-9.54
1030.143	-9.74
1030.302	8.48
1030.461	-49.26
1030.62	20.88
1030.779	19.91
1030.938	-16.52
1031.097	-33.95
1031.255	18.94
1031.414	67.76
1031.573	66.99
1031.732	-48.49
1031.891	2.86
1032.049	62.92
1032.208	0.34
1032.367	-25.82
1032.525	-1.21
1032.684	-16.9
1032.843	2.86
1033.001	-44.22
1033.16	130.34
1033.319	51.29
1033.477	30.37
1033.636	-7.99
1033.794	-58.17
1033.953	24.36
1034.111	31.14
1034.27	-12.84
1034.428	-0.44
1034.587	-32.21
1034.745	25.53
1034.903	8.09
1035.062	24.36
1035.22	-35.89
1035.378	25.14
1035.537	-18.26
1035.695	13.71
1035.853	20.3
1036.011	52.26
1036.17	0.34
1036.328	-32.79
1036.486	5.96
1036.644	30.37
1036.802	-82.78
1036.96	-21.36
1037.119	-7.6
1037.277	-8.96
1037.435	-56.24
1037.593	-48.68
1037.751	-3.34
1037.909	15.26
1038.067	15.26
