Data from pine_FLMT105791__104__17-22-03-076.txt Node

Date: Mon Mar 20 17:22:03 GMT 2023
User: antho
Spectrometer: FLMT10579
Trigger mode: 0
Integration Time (sec): 1.000000E-1
Scans to average: 10
Electric dark correction enabled: true
Nonlinearity correction enabled: false
Boxcar width: 0
XAxis mode: Wavelengths
Number of Pixels in Spectrum: 3648
>>>>>Begin Spectral Data<<<<<
345.248	-155.03
345.464	-155.03
345.681	-155.03
345.898	-165.49
346.114	-169.95
346.331	-33.55
346.548	35.81
346.764	-0.42
346.981	-22.31
347.197	-0.42
347.414	17.02
347.631	-10.11
347.847	59.84
348.064	-1.39
348.28	8.3
348.497	-43.63
348.713	-9.14
348.93	47.05
349.146	20.31
349.363	17.4
349.579	9.27
349.796	11.4
350.012	4.81
350.229	14.31
350.445	12.37
350.661	-14.76
350.878	3.46
351.094	21.47
351.311	17.21
351.527	31.55
351.743	10.82
351.96	62.16
352.176	31.35
352.392	40.07
352.609	31.16
352.825	-7.2
353.041	-4.88
353.257	-10.11
353.474	25.54
353.69	6.17
353.906	0.36
354.122	-28.13
354.339	42.79
354.555	24.38
354.771	-0.23
354.987	44.14
355.203	40.07
355.42	-1
355.636	-11.66
355.852	-10.69
356.068	5.2
356.284	-32.39
356.5	88.51
356.716	23.99
356.932	21.47
357.148	22.25
357.364	-4.68
357.58	67.2
357.796	75.14
358.012	61.39
358.228	9.46
358.444	-55.25
358.66	65.07
358.876	18.76
359.092	-11.46
359.308	7.72
359.524	35.62
359.74	8.3
359.956	8.3
360.172	5.78
360.388	46.08
360.604	-22.51
360.819	92.97
361.035	22.64
361.251	34.84
361.467	2.49
361.683	54.22
361.898	25.54
362.114	44.92
362.33	28.64
362.546	50.15
362.762	0.16
362.977	33.68
363.193	-17.66
363.409	49.37
363.624	-11.66
363.84	-14.37
364.056	20.5
364.271	36.59
364.487	26.7
364.703	-4.49
364.918	-46.92
365.134	15.66
365.35	-1
365.565	98
365.781	22.25
365.996	56.54
366.212	71.07
366.427	30
366.643	2.68
366.858	-8.36
367.074	-33.36
367.289	76.89
367.505	128.81
367.72	-33.36
367.936	16.63
368.151	28.64
368.367	60.8
368.582	-1
368.798	-0.61
369.013	62.16
369.228	33.29
369.444	14.5
369.659	68.36
369.874	43.95
370.09	85.6
370.305	-51.18
370.52	-18.24
370.736	45.11
370.951	3.65
371.166	72.43
371.381	97.23
371.597	65.07
371.812	-8.36
372.027	-24.64
372.242	34.84
372.458	73.59
372.673	28.06
372.888	5.97
373.103	44.53
373.318	103.62
373.533	58.67
373.749	16.82
373.964	-35.49
374.179	51.5
374.394	-3.91
374.609	71.07
374.824	-7.59
375.039	50.54
375.254	-15.34
375.469	68.36
375.684	35.04
375.899	89.09
376.114	29.61
376.329	8.3
376.544	55.57
376.759	66.81
376.974	12.76
377.189	30.77
377.404	3.46
377.619	48.6
377.834	-26.38
378.049	-35.29
378.264	-15.14
378.478	42.79
378.693	-0.81
378.908	32.32
379.123	6.36
379.338	45.3
379.553	29.61
379.767	40.85
379.982	36.39
380.197	45.69
380.412	37.17
380.626	28.06
380.841	115.44
381.056	39.88
381.271	79.6
381.485	-1.58
381.7	-8.75
381.915	49.18
382.129	14.11
382.344	16.05
382.559	23.02
382.773	43.75
382.988	-20.76
383.202	42.4
383.417	10.04
383.632	120.67
383.846	17.79
384.061	42.98
384.275	5.78
384.49	32.52
384.704	41.43
384.919	28.06
385.133	44.72
385.348	33.49
385.562	-9.72
385.777	67.39
385.991	20.12
386.206	22.44
386.42	17.21
386.634	65.26
386.849	30.77
387.063	42.2
387.277	-16.11
387.492	15.66
387.706	-17.47
387.92	9.27
388.135	60.8
388.349	38.33
388.563	-1.78
388.778	29.03
388.992	33.87
389.206	46.47
389.42	83.67
389.635	36.97
389.849	57.12
390.063	66.81
390.277	53.64
390.491	104.78
390.706	46.27
390.92	59.64
391.134	32.71
391.348	63.71
391.562	-33.16
391.776	13.72
391.99	-16.31
392.205	55.77
392.419	1.91
392.633	29.22
392.847	85.8
393.061	14.69
393.275	101.69
393.489	18.95
393.703	44.72
393.917	73.01
394.131	10.82
394.345	52.28
394.559	87.74
394.773	30.39
394.986	47.24
395.2	38.33
395.414	58.09
395.628	-4.1
395.842	28.64
396.056	22.83
396.27	-31.61
396.484	51.5
396.697	48.21
396.911	48.99
397.125	56.74
397.339	93.55
397.553	69.91
397.766	100.33
397.98	61.58
398.194	88.12
398.408	22.25
398.621	74.75
398.835	47.24
399.049	78.82
399.262	71.27
399.476	67.59
399.69	53.44
399.903	107.88
400.117	48.99
400.331	59.84
400.544	18.57
400.758	176.28
400.971	80.57
401.185	70.88
401.398	52.09
401.612	93.35
401.826	71.07
402.039	87.15
402.253	34.07
402.466	71.85
402.68	46.27
402.893	80.95
403.106	50.54
403.32	42.59
403.533	47.82
403.747	58.48
403.96	45.69
404.174	71.46
404.387	55.19
404.6	57.9
404.814	78.63
405.027	68.36
405.24	53.25
405.454	47.44
405.667	77.27
405.88	13.14
406.094	66.04
406.307	94.13
406.52	62.16
406.733	30.77
406.947	23.22
407.16	104.98
407.373	112.53
407.586	46.47
407.799	32.9
408.012	83.47
408.226	61
408.439	105.17
408.652	50.73
408.865	77.85
409.078	97.81
409.291	73.01
409.504	30.77
409.717	53.05
409.93	84.83
410.143	79.99
410.357	27.48
410.57	10.62
410.783	43.75
410.996	59.06
411.209	52.86
411.421	114.67
411.634	44.53
411.847	42.4
412.06	70.49
412.273	83.67
412.486	59.25
412.699	143.34
412.912	45.11
413.125	78.44
413.338	87.35
413.55	89.67
413.763	89.48
413.976	60.61
414.189	61.77
414.402	42.01
414.615	123.38
414.827	46.85
415.04	101.88
415.253	95.87
415.466	95.1
415.678	138.5
415.891	63.9
416.104	64.68
416.316	68.75
416.529	58.87
416.742	100.72
416.954	106.14
417.167	78.05
417.38	93.35
417.592	96.65
417.805	52.47
418.017	27.29
418.23	122.42
418.442	52.86
418.655	63.52
418.868	61.97
419.08	105.17
419.293	137.14
419.505	118.35
419.718	88.12
419.93	137.53
420.142	89.67
420.355	131.52
420.567	132.68
420.78	107.5
420.992	112.73
421.205	144.5
421.417	22.44
421.629	78.82
421.842	52.86
422.054	40.27
422.266	102.85
422.479	120.48
422.691	76.5
422.903	124.16
423.115	71.27
423.328	122.61
423.54	113.12
423.752	90.25
423.964	76.3
424.177	111.76
424.389	111.18
424.601	198.36
424.813	134.43
425.025	108.47
425.238	148.57
425.45	101.1
425.662	114.86
425.874	424.47
426.086	124.16
426.298	133.07
426.51	128.42
426.722	98.78
426.934	112.34
427.146	155.16
427.358	84.25
427.57	141.4
427.782	79.02
427.994	116.6
428.206	86.57
428.418	74.37
428.63	150.9
428.842	140.43
429.054	115.05
429.266	145.28
429.478	95.1
429.69	116.99
429.902	79.99
430.114	141.79
430.325	109.05
430.537	113.12
430.749	92.39
430.961	72.43
431.173	93.74
431.384	129.2
431.596	59.45
431.808	101.88
432.02	168.72
432.231	189.45
432.443	170.66
432.655	162.91
432.867	95.49
433.078	122.8
433.29	200.88
433.502	177.05
433.713	198.36
433.925	145.47
434.136	165.82
434.348	111.18
434.56	66.42
434.771	223.75
434.983	100.14
435.194	136.17
435.406	148.57
435.617	175.31
435.829	222
436.04	188.29
436.252	190.42
436.463	208.83
436.675	181.32
436.886	207.47
437.098	220.65
437.309	239.05
437.521	187.32
437.732	191.97
437.943	195.65
438.155	168.72
438.366	137.14
438.578	208.83
438.789	188.68
439	209.6
439.211	172.79
439.423	215.61
439.634	208.25
439.845	221.23
440.057	188.29
440.268	239.05
440.479	187.71
440.69	200.11
440.902	173.18
441.113	191.78
441.324	182.87
441.535	210.76
441.746	271.8
441.957	173.95
442.168	198.36
442.38	225.1
442.591	247.19
442.802	211.93
443.013	178.41
443.224	246.8
443.435	196.23
443.646	209.6
443.857	230.91
444.068	191.97
444.279	155.16
444.49	292.53
444.701	231.5
444.912	324.11
445.123	271.02
445.334	274.12
445.545	236.73
445.756	232.66
445.967	221.81
446.178	249.9
446.388	269.86
446.599	259.2
446.81	265.79
447.021	212.9
447.232	282.84
447.443	295.24
447.653	226.85
447.864	316.94
448.075	263.27
448.286	281.87
448.496	278.58
448.707	250.29
448.918	233.43
449.129	330.11
449.339	258.04
449.55	278.96
449.761	269.86
449.971	322.75
450.182	276.83
450.393	316.55
450.603	275.09
450.814	311.51
451.024	288.26
451.235	312.48
451.446	332.44
451.656	354.14
451.867	274.7
452.077	311.9
452.288	346.39
452.498	349.88
452.709	292.72
452.919	311.51
453.13	277.41
453.34	288.84
453.55	258.81
453.761	317.33
453.971	306.86
454.182	325.27
454.392	320.62
454.602	338.64
454.813	305.12
455.023	346.58
455.233	252.61
455.444	283.03
455.654	259.2
455.864	279.93
456.075	298.73
456.285	285.55
456.495	307.83
456.705	320.81
456.916	347.55
457.126	370.02
457.336	338.06
457.546	251.84
457.756	290.2
457.967	368.86
458.177	299.11
458.387	326.63
458.597	310.16
458.807	313.26
459.017	307.83
459.227	330.89
459.437	313.45
459.647	345.23
459.857	323.53
460.068	291.36
460.278	362.08
460.488	325.66
460.698	393.08
460.908	303.76
461.117	275.48
461.327	321.59
461.537	330.89
461.747	328.37
461.957	345.03
462.167	445.97
462.377	391.72
462.587	352.39
462.797	402.19
463.007	354.14
463.216	377.97
463.426	388.04
463.636	364.41
463.846	322.17
464.056	328.37
464.265	376.42
464.475	324.69
464.685	331.66
464.895	363.24
465.104	345.81
465.314	392.31
465.524	343.09
465.733	336.12
465.943	432.22
466.153	402.96
466.362	388.82
466.572	393.86
466.782	363.83
466.991	350.84
467.201	444.42
467.41	311.51
467.62	383.2
467.829	361.11
468.039	384.94
468.249	376.03
468.458	372.74
468.668	409.94
468.877	400.64
469.086	443.84
469.296	430.28
469.505	378.94
469.715	482.2
469.924	405.87
470.134	428.15
470.343	457.21
470.552	378.94
470.762	371.77
470.971	366.92
471.18	418.07
471.39	398.31
471.599	382.04
471.808	452.37
472.018	411.87
472.227	445.78
472.436	458.37
472.645	431.83
472.855	410.13
473.064	475.81
473.273	453.92
473.482	468.64
473.691	487.63
473.901	465.54
474.11	448.69
474.319	532
474.528	445.59
474.737	508.36
474.946	461.28
475.155	473.68
475.364	530.25
475.573	459.92
475.783	480.07
475.992	491.12
476.201	529.29
476.41	470.97
476.619	442.49
476.828	463.99
477.037	451.98
477.245	478.72
477.454	502.55
477.663	517.27
477.872	474.65
478.081	560.67
478.29	474.07
478.499	609.11
478.708	561.64
478.917	580.24
479.125	518.63
479.334	560.67
479.543	511.65
479.752	548.08
479.961	547.69
480.169	582.18
480.378	536.45
480.587	686.22
480.796	563.38
481.004	590.7
481.213	569
481.422	561.25
481.63	573.85
481.839	581.79
482.048	637.2
482.256	592.25
482.465	622.09
482.674	643.21
482.882	671.69
483.091	668.4
483.299	613.18
483.508	625.77
483.716	627.9
483.925	632.16
484.134	603.3
484.342	581.21
484.551	665.1
484.759	639.72
484.967	683.12
485.176	651.93
485.384	652.31
485.593	698.23
485.801	660.84
486.01	621.32
486.218	594.58
486.426	535.49
486.635	573.07
486.843	598.45
487.051	609.11
487.26	573.27
487.468	628.48
487.676	649.99
487.885	606.2
488.093	652.31
488.301	674.01
488.509	667.62
488.717	706.76
488.926	668.98
489.134	700.56
489.342	669.95
489.55	650.57
489.758	668.78
489.967	648.83
490.175	810.99
490.383	693.97
490.591	810.99
490.799	682.93
491.007	748.41
491.215	746.86
491.423	726.52
491.631	755.58
491.839	720.13
492.047	741.44
492.255	693.39
492.463	670.72
492.671	720.51
492.879	769.53
493.087	723.23
493.295	758.49
493.503	779.99
493.711	793.94
493.919	776.51
494.127	809.25
494.334	781.16
494.542	736.4
494.75	764.88
494.958	780.77
495.166	817.39
495.374	804.99
495.581	801.89
495.789	784.45
495.997	849.16
496.205	799.56
496.412	793.94
496.62	820.49
496.828	827.07
497.035	796.46
497.243	846.26
497.451	816.61
497.658	823.97
497.866	785.81
498.074	893.92
498.281	801.11
498.489	903.8
498.696	797.63
498.904	793.56
499.112	791.04
499.319	866.6
499.527	806.73
499.734	846.64
499.942	804.99
500.149	816.61
500.357	845.48
500.564	813.71
500.771	818.74
500.979	816.22
501.186	819.13
501.394	811.77
501.601	811.57
501.808	847.22
502.016	800.53
502.223	810.99
502.43	812.54
502.638	861.56
502.845	823.39
503.052	911.16
503.26	859.24
503.467	928.21
503.674	858.66
503.881	897.79
504.089	964.05
504.296	894.89
504.503	860.21
504.71	832.89
504.917	838.89
505.125	875.9
505.332	882.49
505.539	914.26
505.746	961.34
505.953	933.83
506.16	914.45
506.367	988.66
506.574	1006.29
506.781	970.84
506.988	904.19
507.195	925.89
507.402	909.03
507.609	969.67
507.816	888.49
508.023	917.36
508.23	901.86
508.437	933.25
508.644	957.27
508.851	1000.28
509.058	1007.84
509.265	982.85
509.472	1013.85
509.679	1065.77
509.885	959.02
510.092	1009.58
510.299	974.71
510.506	969.67
510.713	1021.21
510.92	992.92
511.126	1023.34
511.333	1040.97
511.54	1024.12
511.746	1050.27
511.953	1071.97
512.16	1091.54
512.367	1014.23
512.573	1025.86
512.78	1022.95
512.987	1027.41
513.193	1063.25
513.4	966.38
513.606	1022.76
513.813	1083.79
514.02	1056.67
514.226	1119.25
514.433	1130.48
514.639	1009.39
514.846	1055.5
515.052	1034.38
515.259	1054.34
515.465	1040.78
515.672	1070.81
515.878	1161.29
516.085	1115.76
516.291	1113.82
516.497	1052.79
516.704	1067.51
516.91	1071.39
517.117	995.05
517.323	937.7
517.529	1001.64
517.736	1010.36
517.942	1029.54
518.148	1034.97
518.354	1104.71
518.561	1068.29
518.767	1052.79
518.973	1106.07
519.179	1098.9
519.386	1084.37
519.592	1077.59
519.798	1110.14
520.004	1177.95
520.21	1135.71
520.417	1184.54
520.623	1218.83
520.829	1249.25
521.035	1200.43
521.241	1200.23
521.447	1242.86
521.653	1319
521.859	1232.59
522.065	1244.6
522.271	1345.15
522.477	1307.37
522.683	1311.25
522.889	1271.53
523.095	1275.99
523.301	1282.57
523.507	1247.89
523.713	1258.55
523.919	1245.96
524.125	1301.76
524.331	1297.3
524.537	1394.75
524.742	1355.81
524.948	1372.47
525.154	1356
525.36	1470.51
525.566	1361.62
525.772	1396.5
525.977	1342.05
526.183	1393.79
526.389	1386.62
526.595	1337.79
526.8	1329.27
527.006	1255.45
527.212	1289.94
527.417	1229.1
527.623	1259.71
527.829	1324.04
528.034	1370.54
528.24	1356.97
528.446	1324.23
528.651	1430.21
528.857	1418.2
529.062	1480.97
529.268	1452.49
529.473	1461.98
529.679	1414.71
529.884	1511.58
530.09	1494.92
530.295	1527.28
530.501	1518.75
530.706	1463.92
530.912	1447.84
531.117	1497.63
531.323	1469.54
531.528	1540.45
531.733	1564.48
531.939	1492.79
532.144	1551.5
532.35	1498.41
532.555	1541.81
532.76	1523.98
532.966	1493.18
533.171	1504.61
533.376	1465.86
533.581	1461.79
533.787	1483.49
533.992	1508.87
534.197	1548.4
534.402	1508.68
534.607	1522.05
534.813	1636.94
535.018	1539.68
535.223	1544.52
535.428	1544.91
535.633	1595.09
535.838	1560.6
536.043	1613.88
536.249	1667.55
536.454	1592.18
536.659	1616.01
536.864	1567.19
537.069	1571.84
537.274	1604.97
537.479	1593.93
537.684	1572.81
537.889	1575.52
538.094	1702.23
538.299	1580.75
538.504	1603.42
538.708	1661.74
538.913	1676.27
539.118	1644.88
539.323	1659.8
539.528	1570.1
539.733	1586.37
539.938	1611.36
540.142	1631.32
540.347	1597.03
540.552	1557.7
540.757	1602.26
540.962	1588.5
541.166	1552.85
541.371	1549.17
541.576	1588.11
541.781	1500.15
541.985	1622.02
542.19	1583.85
542.395	1654.96
542.599	1703.97
542.804	1657.09
543.008	1691.77
543.213	1627.64
543.418	1598.96
543.622	1644.49
543.827	1597.61
544.031	1710.76
544.236	1652.24
544.44	1666.58
544.645	1732.84
544.849	1627.25
545.054	1697
545.258	1766.17
545.463	1714.63
545.667	1670.65
545.872	1682.86
546.076	1688.67
546.281	1677.04
546.485	1670.84
546.689	1684.79
546.894	1741.56
547.098	1702.04
547.302	1666.97
547.507	1717.34
547.711	1722.77
547.915	1728.58
548.119	1658.44
548.324	1675.69
548.528	1714.82
548.732	1670.07
548.936	1737.49
549.141	1737.49
549.345	1683.44
549.549	1726.45
549.753	1698.74
549.957	1815.19
550.161	1785.93
550.366	1711.14
550.57	1723.16
550.774	1732.65
550.978	1719.28
551.182	1752.61
551.386	1696.22
551.59	1695.06
551.794	1714.63
551.998	1766.75
552.202	1728
552.406	1690.99
552.61	1734.39
552.814	1751.25
553.018	1786.9
553.222	1689.06
553.426	1711.34
553.63	1800.46
553.833	1724.12
554.037	1698.94
554.241	1739.82
554.445	1708.43
554.649	1693.12
554.853	1704.17
555.056	1736.14
555.26	1760.55
555.464	1739.82
555.668	1744.86
555.871	1782.05
556.075	1733.04
556.279	1735.56
556.483	1672.01
556.686	1687.51
556.89	1702.62
557.094	1702.81
557.297	1630.93
557.501	1725.67
557.704	1636.36
557.908	1740.59
558.112	1670.07
558.315	1757.06
558.519	1672.78
558.722	1675.69
558.926	1671.43
559.129	1607.68
559.333	1599.54
559.536	1588.89
559.74	1573.2
559.943	1594.12
560.147	1622.21
560.35	1622.99
560.553	1590.44
560.757	1570.48
560.96	1665.42
561.164	1607.1
561.367	1704.17
561.57	1642.75
561.774	1645.27
561.977	1620.66
562.18	1590.05
562.384	1708.43
562.587	1621.83
562.79	1642.75
562.993	1591.79
563.197	1659.03
563.4	1705.72
563.603	1668.52
563.806	1733.42
564.009	1591.02
564.212	1620.08
564.416	1552.27
564.619	1628.99
564.822	1560.99
565.025	1645.08
565.228	1586.95
565.431	1599.35
565.634	1541.81
565.837	1585.6
566.04	1523.01
566.243	1538.13
566.446	1490.47
566.649	1563.51
566.852	1458.11
567.055	1529.02
567.258	1563.9
567.461	1605.36
567.664	1602.64
567.867	1478.84
568.07	1549.56
568.273	1548.4
568.475	1574.75
568.678	1506.55
568.881	1478.07
569.084	1531.73
569.287	1443.58
569.489	1469.54
569.692	1522.24
569.895	1530.57
570.098	1449.78
570.3	1459.85
570.503	1421.68
570.706	1467.22
570.909	1448.23
571.111	1399.79
571.314	1378.48
571.516	1393.98
571.719	1432.92
571.922	1406.57
572.124	1408.9
572.327	1414.9
572.529	1381.77
572.732	1358.52
572.935	1408.7
573.137	1490.66
573.34	1385.07
573.542	1455.01
573.745	1436.6
573.947	1398.05
574.15	1387.78
574.352	1334.69
574.554	1482.91
574.757	1347.29
574.959	1332.56
575.162	1354.65
575.364	1351.55
575.566	1476.52
575.769	1281.02
575.971	1337.99
576.173	1256.42
576.376	1359.49
576.578	1371.5
576.78	1381.58
576.982	1291.1
577.185	1317.06
577.387	1289.16
577.589	1293.42
577.791	1319.19
577.993	1329.27
578.196	1315.71
578.398	1326.17
578.6	1357.94
578.802	1277.92
579.004	1277.54
579.206	1257.58
579.408	1336.63
579.61	1267.85
579.812	1342.64
580.014	1288.58
580.216	1260.49
580.418	1269.4
580.62	1294.97
580.822	1239.37
581.024	1309.51
581.226	1399.21
581.428	1251.38
581.63	1394.37
581.832	1287.81
582.034	1375.96
582.236	1324.62
582.438	1354.84
582.64	1400.57
582.841	1415.1
583.043	1432.92
583.245	1362.59
583.447	1365.3
583.649	1333.34
583.85	1359.1
584.052	1375.19
584.254	1307.57
584.456	1402.7
584.657	1303.89
584.859	1331.01
585.061	1295.94
585.262	1273.86
585.464	1309.12
585.666	1313.96
585.867	1275.21
586.069	1363.95
586.27	1335.08
586.472	1271.53
586.674	1262.42
586.875	1269.4
587.077	1264.56
587.278	1296.33
587.48	1314.16
587.681	1397.66
587.883	1305.24
588.084	1226
588.285	1246.54
588.487	1242.86
588.688	1284.32
588.89	1194.03
589.091	1182.99
589.292	1180.08
589.494	1144.82
589.695	1131.65
589.896	1098.71
590.098	1082.43
590.299	1140.95
590.5	1107.62
590.702	1153.34
590.903	1146.76
591.104	1207.01
591.305	1219.22
591.507	1256.61
591.708	1228.52
591.909	1203.33
592.11	1231.62
592.311	1234.14
592.512	1155.67
592.714	1141.53
592.915	1157.03
593.116	1144.82
593.317	1190.16
593.518	1208.37
593.719	1176.4
593.92	1222.9
594.121	1259.13
594.322	1207.01
594.523	1205.08
594.724	1155.48
594.925	1155.09
595.126	1170.2
595.327	1184.93
595.528	1203.33
595.729	1172.14
595.929	1178.14
596.13	1178.92
596.331	1186.86
596.532	1192.48
596.733	1283.16
596.934	1239.17
597.135	1238.98
597.335	1233.36
597.536	1188.8
597.737	1191.71
597.938	1164.58
598.138	1186.67
598.339	1193.64
598.54	1199.26
598.74	1210.5
598.941	1192.29
599.142	1212.63
599.342	1193.84
599.543	1151.6
599.744	1179.89
599.944	1170.78
600.145	1152.76
600.345	1192.48
600.546	1274.44
600.746	1228.71
600.947	1251.57
601.147	1182.6
601.348	1231.43
601.548	1148.5
601.749	1166.52
601.949	1153.15
602.15	1123.31
602.35	1191.71
602.551	1228.52
602.751	1139.2
602.951	1165.36
603.152	1107.62
603.352	1186.28
603.552	1152.96
603.753	1164
603.953	1227.94
604.153	1182.41
604.354	1171.17
604.554	1170.2
604.754	1177.76
604.954	1124.28
605.155	1179.89
605.355	1174.27
605.555	1202.75
605.755	1240.72
605.955	1196.55
606.155	1211.08
606.356	1178.73
606.556	1237.63
606.756	1188.8
606.956	1142.5
607.156	1206.63
607.356	1135.71
607.556	1160.51
607.756	1146.37
607.956	1225.61
608.156	1187.83
608.356	1121.18
608.556	1189.58
608.756	1159.16
608.956	1115.95
609.156	1148.89
609.356	1140.75
609.556	1108.59
609.755	1110.14
609.955	1125.06
610.155	1161.29
610.355	1153.34
610.555	1086.7
610.755	1152.38
610.954	1066.74
611.154	1154.89
611.354	1131.26
611.554	1124.09
611.753	1101.23
611.953	1049.11
612.153	1132.81
612.352	1155.86
612.552	1063.83
612.752	1030.32
612.951	1085.73
613.151	1086.11
613.351	1075.85
613.55	1092.31
613.75	1097.93
613.949	1084.18
614.149	1066.35
614.348	1068.1
614.548	1074.49
614.747	1006.48
614.947	1008.62
615.146	1002.03
615.346	1108.4
615.545	1060.93
615.745	1030.9
615.944	1114.4
616.144	1075.46
616.343	1073.33
616.542	1037.87
616.742	1033.42
616.941	1034.97
617.14	972
617.34	1027.22
617.539	1045.62
617.738	992.53
617.938	1064.8
618.137	1054.92
618.336	993.31
618.535	1064.03
618.734	1040.78
618.934	1015.2
619.133	1044.85
619.332	1050.66
619.531	1026.05
619.73	1011.72
619.929	1091.93
620.128	1056.86
620.328	1078.95
620.527	1013.85
620.726	1029.73
620.925	1044.07
621.124	1042.91
621.323	1006.68
621.522	956.3
621.721	984.59
621.92	975.87
622.119	1019.47
622.318	989.24
622.517	1005.13
622.715	1014.82
622.914	933.05
623.113	975.49
623.312	955.72
623.511	979.75
623.71	1006.87
623.909	991.57
624.107	1060.73
624.306	933.25
624.505	930.15
624.704	958.44
624.902	935.96
625.101	996.22
625.3	984.59
625.499	945.07
625.697	957.66
625.896	922.4
626.095	966.96
626.293	911.16
626.492	927.63
626.69	990.4
626.889	944.87
627.088	982.27
627.286	932.28
627.485	922.01
627.683	893.72
627.882	941.39
628.08	845.48
628.279	914.26
628.477	975.68
628.676	887.33
628.874	914.65
629.073	896.24
629.271	911.35
629.469	904.19
629.668	879
629.866	891.79
630.065	902.64
630.263	936.35
630.461	875.51
630.66	899.34
630.858	923.95
631.056	976.65
631.254	929.57
631.453	896.63
631.651	930.73
631.849	904.38
632.047	910
632.245	916.2
632.444	932.86
632.642	944.29
632.84	921.62
633.038	902.44
633.236	901.28
633.434	914.84
633.632	897.4
633.83	885.01
634.028	947.2
634.227	913.87
634.425	1000.48
634.623	917.17
634.821	941.58
635.019	926.66
635.216	910.58
635.414	943.52
635.612	959.02
635.81	932.86
636.008	980.91
636.206	920.27
636.404	970.84
636.602	906.12
636.8	896.05
636.997	980.52
637.195	939.64
637.393	933.64
637.591	995.83
637.789	952.24
637.986	915.62
638.184	928.4
638.382	958.05
638.58	948.75
638.777	978.39
638.975	943.71
639.173	918.14
639.37	939.84
639.568	924.53
639.765	937.32
639.963	903.02
640.161	955.72
640.358	961.92
640.556	891.98
640.753	859.04
640.951	856.33
641.148	896.82
641.346	903.6
641.543	910
641.741	928.4
641.938	841.02
642.136	863.5
642.333	847.22
642.531	934.22
642.728	956.3
642.925	905.35
643.123	888.49
643.32	924.92
643.517	881.52
643.715	890.24
643.912	853.42
644.109	875.12
644.306	864.47
644.504	853.42
644.701	882.49
644.898	906.9
645.095	808.09
645.293	889.46
645.49	913.87
645.687	869.89
645.884	875.12
646.081	796.46
646.278	834.44
646.475	836.57
646.672	826.69
646.87	851.49
647.067	849.94
647.264	848.97
647.461	814.87
647.658	792.39
647.855	851.87
648.052	770.11
648.249	727.1
648.446	811.96
648.642	751.9
648.839	774.18
649.036	772.24
649.233	774.76
649.43	750.16
649.627	712.57
649.824	762.56
650.021	745.7
650.217	767.98
650.414	755.58
650.611	790.26
650.808	782.13
651.004	795.49
651.201	785.81
651.398	820.49
651.595	773.6
651.791	774.38
651.988	810.41
652.185	758.88
652.381	798.4
652.578	747.64
652.775	797.43
652.971	774.57
653.168	758.49
653.364	786.39
653.561	708.7
653.757	746.28
653.954	765.66
654.15	755.39
654.347	827.46
654.543	804.79
654.74	711.41
654.936	726.91
655.133	760.43
655.329	750.93
655.525	746.09
655.722	820.29
655.918	715.48
656.115	773.21
656.311	657.16
656.507	669.95
656.704	623.83
656.9	652.51
657.096	656.96
657.292	643.01
657.489	728.07
657.685	670.53
657.881	643.98
658.077	705.79
658.273	726.33
658.47	784.45
658.666	688.35
658.862	748.99
659.058	690.29
659.254	744.93
659.45	706.56
659.646	766.04
659.842	698.81
660.038	760.43
660.234	702.3
660.43	697.07
660.626	774.57
660.822	738.34
661.018	784.45
661.214	732.72
661.41	713.54
661.606	758.49
661.802	758.68
661.998	726.52
662.194	739.89
662.39	775.54
662.586	756.74
662.781	752.29
662.977	773.41
663.173	744.15
663.369	705.6
663.564	722.26
663.76	748.8
663.956	691.06
664.152	755.19
664.347	681.18
664.543	737.56
664.739	714.31
664.934	672.85
665.13	657.16
665.326	723.23
665.521	733.88
665.717	671.5
665.912	684.67
666.108	614.92
666.304	679.44
666.499	688.93
666.695	634.1
666.89	686.22
667.086	731.94
667.281	686.8
667.477	748.8
667.672	659.29
667.867	674.6
668.063	713.35
668.258	644.56
668.454	694.75
668.649	748.8
668.844	695.91
669.04	687.96
669.235	651.15
669.43	667.43
669.626	649.02
669.821	639.91
670.016	611.82
670.211	689.9
670.407	637.01
670.602	665.88
670.797	633.13
670.992	691.45
671.187	629.84
671.382	690.87
671.578	635.85
671.773	659.29
671.968	592.25
672.163	667.04
672.358	691.45
672.553	628.48
672.748	654.45
672.943	721.29
673.138	687.96
673.333	699.59
673.528	625.77
673.723	668.98
673.918	655.8
674.113	593.61
674.308	717.8
674.503	679.44
674.698	675.95
674.892	665.49
675.087	680.21
675.282	651.54
675.477	683.12
675.672	668.4
675.867	612.02
676.061	617.63
676.256	620.54
676.451	618.6
676.646	643.21
676.84	606.2
677.035	584.12
677.23	599.03
677.424	655.8
677.619	663.94
677.814	676.34
678.008	676.15
678.203	584.7
678.397	621.9
678.592	643.21
678.787	690.1
678.981	626.74
679.176	678.86
679.37	649.8
679.565	623.45
679.759	586.05
679.954	651.15
680.148	695.52
680.342	683.12
680.537	656.96
680.731	626.16
680.926	635.85
681.12	657.93
681.314	623.06
681.509	607.56
681.703	607.56
681.897	650.18
682.092	620.93
682.286	605.43
682.48	688.74
682.674	663.94
682.869	645.15
683.063	621.51
683.257	689.9
683.451	625.38
683.645	640.11
683.839	630.23
684.034	622.09
684.228	699.98
684.422	603.3
684.616	616.67
684.81	649.41
685.004	638.95
685.198	628.48
685.392	658.9
685.586	608.33
685.78	660.26
685.974	643.21
686.168	643.98
686.362	698.43
686.556	593.03
686.75	552.34
686.944	557.96
687.138	581.02
687.331	474.84
687.525	518.44
687.719	441.71
687.913	480.07
688.107	518.44
688.301	493.05
688.494	518.24
688.688	494.6
688.882	468.84
689.076	477.55
689.269	503.32
689.463	612.79
689.657	489.57
689.85	511.46
690.044	544.01
690.238	534.13
690.431	515.72
690.625	556.99
690.818	582.18
691.012	567.84
691.205	593.42
691.399	550.98
691.593	623.45
691.786	651.73
691.98	675.18
692.173	655.03
692.366	627.32
692.56	637.2
692.753	702.3
692.947	618.6
693.14	718.19
693.333	686.61
693.527	630.61
693.72	701.53
693.914	668.78
694.107	677.7
694.3	689.13
694.493	669.17
694.687	720.32
694.88	689.13
695.073	743.18
695.266	741.83
695.46	711.8
695.653	782.13
695.846	754.61
696.039	664.71
696.232	748.03
696.425	773.99
696.618	816.42
696.812	797.43
697.005	866.79
697.198	922.4
697.391	846.26
697.584	873.57
697.777	925.3
697.97	895.85
698.163	907.87
698.356	901.09
698.549	968.7
698.742	959.02
698.935	900.12
699.127	936.93
699.32	908.64
699.513	913.49
699.706	972.77
699.899	950.3
700.092	919.49
700.285	938.67
700.477	925.69
700.67	982.65
700.863	999.12
701.056	1072.36
701.248	1037.48
701.441	1020.05
701.634	988.08
701.826	1142.88
702.019	969.67
702.212	1076.43
702.404	1004.16
702.597	1019.27
702.79	1045.82
702.982	1069.45
703.175	1130.1
703.367	1131.06
703.56	1169.04
703.752	1214.18
703.945	1204.11
704.137	1186.67
704.33	1216.51
704.522	1210.11
704.715	1204.11
704.907	1255.84
705.1	1261.26
705.292	1283.16
705.484	1214.57
705.677	1313.57
705.869	1311.06
706.061	1343.41
706.254	1362.01
706.446	1353.49
706.638	1315.51
706.831	1403.09
707.023	1350.39
707.215	1421.88
707.407	1445.71
707.599	1413.55
707.792	1475.93
707.984	1443
708.176	1519.91
708.368	1450.55
708.56	1517.78
708.752	1485.82
708.944	1482.13
709.136	1513.71
709.329	1486.01
709.521	1655.34
709.713	1588.89
709.905	1581.33
710.097	1581.72
710.289	1595.48
710.481	1588.69
710.672	1600.9
710.864	1623.96
711.056	1676.27
711.248	1660.38
711.44	1688.47
711.632	1663.87
711.824	1680.53
712.016	1728
712.207	1732.07
712.399	1721.41
712.591	1810.92
712.783	1795.23
712.975	1779.34
713.166	1720.64
713.358	1745.82
713.55	1804.34
713.741	1766.94
713.933	1811.12
714.125	1816.54
714.316	1793.29
714.508	1869.63
714.7	1847.93
714.891	1830.3
715.083	1943.45
715.274	1839.02
715.466	1886.87
715.657	1944.22
715.849	1845.6
716.04	1850.64
716.232	1833.98
716.423	1921.94
716.615	1832.62
716.806	1752.22
716.998	1729.36
717.189	1702.04
717.381	1639.84
717.572	1569.9
717.763	1599.35
717.955	1607.49
718.146	1580.75
718.337	1505.96
718.528	1495.31
718.72	1446.48
718.911	1510.81
719.102	1480.39
719.293	1501.31
719.485	1499.96
719.676	1489.5
719.867	1443
720.058	1461.6
720.249	1449.78
720.44	1469.93
720.632	1512.36
720.823	1579.2
721.014	1676.66
721.205	1701.84
721.396	1742.92
721.587	1793.29
721.778	1875.63
721.969	1901.79
722.16	1966.7
722.351	1952.55
722.542	2037.8
722.733	2042.64
722.924	1970.57
723.115	2050.39
723.305	2003.9
723.496	2027.14
723.687	1900.63
723.878	1916.32
724.069	1932.98
724.26	1953.33
724.45	1883
724.641	1877.96
724.832	1878.15
725.023	1880.48
725.213	1852
725.404	1835.53
725.595	1906.25
725.785	1849.09
725.976	1948.87
726.167	1935.12
726.357	1913.61
726.548	2016.3
726.739	1938.21
726.929	1999.83
727.12	2040.71
727.31	2077.13
727.501	1953.71
727.691	1982.78
727.882	1980.26
728.072	2025.4
728.263	2051.36
728.453	2088.95
728.644	2090.89
728.834	2045.55
729.024	2076.94
729.215	2068.61
729.405	2092.05
729.596	2120.72
729.786	2097.28
729.976	2149.59
730.167	2162.77
730.357	2117.04
730.547	2125.18
730.737	2131.57
730.928	2193.57
731.118	2234.84
731.308	2153.66
731.498	2210.04
731.688	2237.75
731.879	2241.82
732.069	2318.35
732.259	2305.56
732.449	2322.22
732.639	2442.54
732.829	2441.96
733.019	2514.42
733.209	2513.26
733.399	2531.66
733.589	2581.84
733.779	2623.31
733.969	2577.58
734.159	2666.51
734.349	2709.52
734.539	2731.42
734.729	2709.33
734.919	2751.76
735.109	2808.33
735.299	2698.48
735.488	2747.69
735.678	2786.25
735.868	2773.07
736.058	2798.26
736.248	2752.92
736.437	2712.82
736.627	2697.51
736.817	2806.01
737.007	2786.83
737.196	2836.43
737.386	2771.13
737.576	2749.05
737.765	2821.7
737.955	2813.56
738.144	2913.73
738.334	2899.39
738.524	2811.82
738.713	2859.29
738.903	2876.53
739.092	2885.64
739.282	2866.85
739.471	2910.44
739.661	2859.48
739.85	2929.43
740.04	2951.32
740.229	2953.26
740.419	2988.32
740.608	3002.86
740.797	2956.16
740.987	3049.94
741.176	3029.79
741.365	2959.84
741.555	2945.7
741.744	3012.16
741.933	2956.16
742.123	3015.26
742.312	3037.15
742.501	3028.82
742.69	3041.99
742.88	2971.86
743.069	3121.24
743.258	3017.97
743.447	3088.88
743.636	3100.5
743.825	3103.22
744.014	3048.19
744.204	3118.72
744.393	3033.66
744.582	3081.32
744.771	3143.32
744.96	3113.29
745.149	3087.14
745.338	3069.89
745.527	3134.99
745.716	3099.92
745.905	3078.8
746.094	3112.9
746.283	3143.13
746.471	3076.87
746.66	3207.84
746.849	3173.16
747.038	3153.59
747.227	3115.23
747.416	3158.82
747.604	3136.35
747.793	3096.63
747.982	3104.57
748.171	3137.51
748.359	3166.57
748.548	3163.28
748.737	3128.4
748.926	3084.23
749.114	3055.17
749.303	3128.99
749.491	3097.02
749.68	3061.95
749.869	3117.75
750.057	3051.1
750.246	3075.9
750.434	3052.46
750.623	3049.94
750.811	3087.52
751	3103.22
751.188	3079
751.377	3015.84
751.565	3032.11
751.754	3021.46
751.942	3053.04
752.131	3100.7
752.319	2975.93
752.507	2978.06
752.696	3069.12
752.884	3108.64
753.072	3033.47
753.261	3027.85
753.449	2997.82
753.637	3029.01
753.825	3078.42
754.014	3031.34
754.202	3067.96
754.39	3115.04
754.578	3032.69
754.766	3022.42
754.955	2971.28
755.143	3065.05
755.331	2989.49
755.519	3007.7
755.707	2976.12
755.895	2987.74
756.083	3014.29
756.271	2960.43
756.459	2987.36
756.647	3006.73
756.835	3005.96
757.023	2957.91
757.211	2952.68
757.399	2937.37
757.587	2965.46
757.775	2886.22
757.963	2968.37
758.151	2957.13
758.339	2891.26
758.526	2896.3
758.714	2922.64
758.902	2827.71
759.09	2730.64
759.278	2625.82
759.465	2379.96
759.653	2056.01
759.841	1864.01
760.028	1621.44
760.216	1392.24
760.404	1319.97
760.591	1102.78
760.779	904.57
760.967	783.29
761.154	676.92
761.342	703.08
761.529	702.5
761.717	753.84
761.905	733.3
762.092	805.96
762.28	746.09
762.467	739.31
762.655	673.82
762.842	700.56
763.029	725.74
763.217	730.59
763.404	739.31
763.592	782.9
763.779	701.72
763.966	771.08
764.154	818.16
764.341	855.56
764.528	854.78
764.716	936.35
764.903	936.35
765.09	1038.45
765.277	1019.08
765.465	1218.64
765.652	1256.42
765.839	1302.53
766.026	1455.78
766.213	1477.48
766.4	1559.25
766.588	1716.37
766.775	1704.17
766.962	1821.39
767.149	1835.14
767.336	2040.71
767.523	1984.33
767.71	2079.07
767.897	2197.64
768.084	2268.75
768.271	2267.2
768.458	2352.06
768.645	2409.02
768.832	2378.02
769.019	2380.15
769.206	2401.66
769.392	2488.65
769.579	2588.62
769.766	2523.91
769.953	2525.46
770.14	2574.09
770.327	2567.31
770.513	2628.54
770.7	2694.02
770.887	2577.58
771.073	2606.84
771.26	2658.37
771.447	2566.54
771.634	2594.05
771.82	2696.35
772.007	2588.43
772.193	2643.45
772.38	2676.59
772.567	2595.6
772.753	2642.68
772.94	2682.98
773.126	2640.16
773.313	2682.59
773.499	2657.99
773.686	2672.13
773.872	2624.27
774.059	2631.83
774.245	2549.87
774.432	2614.78
774.618	2527.21
774.804	2546.39
774.991	2499.89
775.177	2604.71
775.363	2587.66
775.55	2610.71
775.736	2559.37
775.922	2579.13
776.109	2589.79
776.295	2583.2
776.481	2598.89
776.667	2613.04
776.853	2601.22
777.04	2564.6
777.226	2521.39
777.412	2655.85
777.598	2533.99
777.784	2525.08
777.97	2498.73
778.156	2522.75
778.342	2515
778.528	2491.75
778.715	2447.77
778.901	2471.02
779.087	2513.84
779.272	2475.28
779.458	2451.45
779.644	2500.86
779.83	2471.02
780.016	2545.81
780.202	2472.96
780.388	2427.81
780.574	2393.91
780.76	2427.23
780.946	2489.43
781.131	2436.73
781.317	2441.76
781.503	2393.91
781.689	2434.98
781.874	2552.97
782.06	2412.7
782.246	2445.45
782.432	2421.03
782.617	2427.23
782.803	2468.11
782.989	2356.52
783.174	2386.16
783.36	2349.73
783.545	2399.53
783.731	2385.96
783.916	2280.37
784.102	2375.11
784.288	2344.31
784.473	2350.32
784.659	2351.67
784.844	2362.91
785.029	2292
785.215	2323.97
785.4	2272.43
785.586	2386.35
785.771	2284.83
785.956	2317.18
786.142	2306.14
786.327	2288.12
786.512	2294.13
786.698	2279.02
786.883	2219.34
787.068	2233.68
787.254	2258.29
787.439	2240.27
787.624	2245.5
787.809	2237.17
787.994	2188.54
788.18	2255.19
788.365	2170.52
788.55	2186.02
788.735	2191.06
788.92	2211.01
789.105	2226.7
789.29	2241.04
789.475	2105.03
789.66	2148.04
789.845	2113.75
790.03	2118.59
790.215	2146.69
790.4	2175.94
790.585	2175.56
790.77	2120.72
790.955	2089.92
791.14	2140.1
791.325	2186.02
791.51	2052.91
791.695	2089.92
791.879	2100.77
792.064	2050.01
792.249	2125.76
792.434	2119.56
792.618	2131.77
792.803	2137.19
792.988	2074.42
793.173	2099.03
793.357	2162.96
793.542	2057.76
793.727	2126.54
793.911	2129.06
794.096	2118.79
794.281	2104.26
794.465	2196.87
794.65	2075
794.834	2126.54
795.019	2183.11
795.203	2196.48
795.388	2157.73
795.572	2178.66
795.757	2135.64
795.941	2155.99
796.126	2160.44
796.31	2093.41
796.494	2146.11
796.679	2081.98
796.863	2083.33
797.048	2186.41
797.232	2089.14
797.416	2151.14
797.601	2092.83
797.785	2242.01
797.969	2224.38
798.153	2136.81
798.338	2172.46
798.522	2169.94
798.706	2181.95
798.89	2198.42
799.074	2255.38
799.258	2194.93
799.443	2176.33
799.627	2158.51
799.811	2197.84
799.995	2146.49
800.179	2139.71
800.363	2150.95
800.547	2180.21
800.731	2162.77
800.915	2103.68
801.099	2173.81
801.283	2139.52
801.467	2156.37
801.651	2118.21
801.835	2158.12
802.019	2174.59
802.202	2174.39
802.386	2056.98
802.57	2111.23
802.754	2088.76
802.938	2090.5
803.121	2077.13
803.305	2181.37
803.489	2138.94
803.673	2158.31
803.856	2156.57
804.04	2139.32
804.224	2150.37
804.407	2144.36
804.591	2135.06
804.775	2118.21
804.958	2139.32
805.142	2288.7
805.326	2155.21
805.509	2203.26
805.693	2192.61
805.876	2199.77
806.06	2163.35
806.243	2157.92
806.427	2229.22
806.61	2213.14
806.794	2157.54
806.977	2182.14
807.16	2161.02
807.344	2173.04
807.527	2157.92
807.71	2167.81
807.894	2174.2
808.077	2183.89
808.26	2130.22
808.444	2130.61
808.627	2206.36
808.81	2112.97
808.993	2092.44
809.177	2075.97
809.36	2131.77
809.543	2135.06
809.726	1995.56
809.909	2025.4
810.092	2012.61
810.276	2038.38
810.459	2060.66
810.642	2028.31
810.825	2012.23
811.008	1990.72
811.191	1907.02
811.374	1944.03
811.557	1958.17
811.74	2000.8
811.923	1895.2
812.106	1885.13
812.289	1880.48
812.472	1894.62
812.654	1861.88
812.837	1868.66
813.02	1793.1
813.203	1800.85
813.386	1710.17
813.569	1704.94
813.751	1652.05
813.934	1703.2
814.117	1639.84
814.3	1638.49
814.482	1592.96
814.665	1535.41
814.848	1558.28
815.03	1492.02
815.213	1487.56
815.396	1473.22
815.578	1452.68
815.761	1401.92
815.943	1501.9
816.126	1381.97
816.309	1374.6
816.491	1264.94
816.674	1233.75
816.856	1310.67
817.039	1312.02
817.221	1382.35
817.403	1348.45
817.586	1341.67
817.768	1369.37
817.951	1279.09
818.133	1270.17
818.315	1312.02
818.498	1380.03
818.68	1433.89
818.862	1391.85
819.045	1374.99
819.227	1373.83
819.409	1333.53
819.591	1368.79
819.774	1365.11
819.956	1355.81
820.138	1416.07
820.32	1382.74
820.502	1450.55
820.684	1485.04
820.866	1491.82
821.048	1551.3
821.231	1530.76
821.413	1550.14
821.595	1526.89
821.777	1517.98
821.959	1517.4
822.141	1600.9
822.323	1451.52
822.505	1422.27
822.686	1396.69
822.868	1338.37
823.05	1219.41
823.232	1195.78
823.414	1140.56
823.596	1214.38
823.778	1232.39
823.96	1262.62
824.141	1203.53
824.323	1251.38
824.505	1334.69
824.687	1371.31
824.868	1388.55
825.05	1477.1
825.232	1460.82
825.413	1538.9
825.595	1517.78
825.777	1450.75
825.958	1475.35
826.14	1482.13
826.321	1507.13
826.503	1491.63
826.685	1537.55
826.866	1552.66
827.048	1512.16
827.229	1466.83
827.411	1458.3
827.592	1415.48
827.773	1409.09
827.955	1385.26
828.136	1377.12
828.318	1315.9
828.499	1361.24
828.68	1318.61
828.862	1361.24
829.043	1397.47
829.224	1348.45
829.406	1314.35
829.587	1346.12
829.768	1344.57
829.949	1338.76
830.131	1354.65
830.312	1404.44
830.493	1334.5
830.674	1378.29
830.855	1357.17
831.036	1337.99
831.218	1404.83
831.399	1414.9
831.58	1364.53
831.761	1365.89
831.942	1369.18
832.123	1335.27
832.304	1304.47
832.485	1292.65
832.666	1337.6
832.847	1367.44
833.028	1333.92
833.209	1339.54
833.389	1302.72
833.57	1291.68
833.751	1333.34
833.932	1354.65
834.113	1367.82
834.294	1306.79
834.475	1363.95
834.655	1388.75
834.836	1414.32
835.017	1350.77
835.198	1304.86
835.378	1327.91
835.559	1412.19
835.74	1357.55
835.92	1341.47
836.101	1363.37
836.281	1419.94
836.462	1390.88
836.643	1420.13
836.823	1448.62
837.004	1405.22
837.184	1459.27
837.365	1406.19
837.545	1410.84
837.726	1394.17
837.906	1465.86
838.087	1421.49
838.267	1400.95
838.448	1336.05
838.628	1403.86
838.808	1402.5
838.989	1440.67
839.169	1365.69
839.349	1415.48
839.53	1442.42
839.71	1402.7
839.89	1393.4
840.07	1457.33
840.251	1374.8
840.431	1435.44
840.611	1430.02
840.791	1367.05
840.971	1429.82
841.151	1367.05
841.332	1383.13
841.512	1405.6
841.692	1348.06
841.872	1435.63
842.052	1436.6
842.232	1429.63
842.412	1358.52
842.592	1388.17
842.772	1375.96
842.952	1389.52
843.132	1360.27
843.312	1356.78
843.492	1335.47
843.672	1390.49
843.851	1294.59
844.031	1353.29
844.211	1360.46
844.391	1320.74
844.571	1373.05
844.751	1372.47
844.93	1360.27
845.11	1355.62
845.29	1369.18
845.47	1376.15
845.649	1329.85
845.829	1383.13
846.009	1317.06
846.188	1353.29
846.368	1332.95
846.547	1345.35
846.727	1367.24
846.907	1326.75
847.086	1368.6
847.266	1395.53
847.445	1342.44
847.625	1343.41
847.804	1306.41
847.984	1337.99
848.163	1299.82
848.343	1301.76
848.522	1319.77
848.701	1328.69
848.881	1277.92
849.06	1300.01
849.239	1323.84
849.419	1321.32
849.598	1243.24
849.777	1238.79
849.957	1244.79
850.136	1202.56
850.315	1171.56
850.494	1205.46
850.674	1190.35
850.853	1238.79
851.032	1211.28
851.211	1265.52
851.39	1228.91
851.569	1166.33
851.748	1188.03
851.927	1248.28
852.107	1242.47
852.286	1189.58
852.465	1157.8
852.644	1238.21
852.823	1244.79
853.002	1249.64
853.181	1228.13
853.359	1251.96
853.538	1197.91
853.717	1255.64
853.896	1154.51
854.075	1113.63
854.254	1071.58
854.433	1015.4
854.611	1093.28
854.79	999.9
854.969	1087.28
855.148	1107.43
855.327	1030.12
855.505	1119.44
855.684	1097.35
855.863	1114.4
856.041	1065.38
856.22	1116.34
856.399	1112.27
856.577	1223.68
856.756	1170.01
856.934	1279.86
857.113	1255.84
857.291	1179.31
857.47	1141.33
857.648	1212.44
857.827	1172.72
858.005	1207.98
858.184	1138.04
858.362	1263.2
858.541	1153.73
858.719	1156.64
858.898	1131.65
859.076	1130.1
859.254	1209.73
859.433	1155.48
859.611	1136.1
859.789	1114.98
859.967	1201.78
860.146	1227.94
860.324	1112.27
860.502	1132.42
860.68	1104.52
860.859	1138.23
861.037	1089.99
861.215	1133
861.393	1134.75
861.571	1112.46
861.749	1116.73
861.927	1135.71
862.105	1129.13
862.283	1116.92
862.461	1095.41
862.639	1051.63
862.817	1109.56
862.995	1079.53
863.173	1090.38
863.351	1071.97
863.529	1101.42
863.707	1147.92
863.885	1096.38
864.063	1044.65
864.241	1037.29
864.418	1112.85
864.596	1062.28
864.774	1050.08
864.952	1091.35
865.129	1104.13
865.307	1057.83
865.485	1014.43
865.663	1086.89
865.84	998.73
866.018	1057.44
866.196	903.41
866.373	932.67
866.551	902.83
866.728	864.86
866.906	901.28
867.084	931.5
867.261	978.39
867.439	970.45
867.616	1021.21
867.794	994.67
867.971	1003.38
868.149	985.17
868.326	1024.31
868.503	1022.37
868.681	1025.67
868.858	1006.48
869.035	971.03
869.213	1026.44
869.39	992.92
869.567	1055.7
869.745	987.5
869.922	1003.97
870.099	1011.52
870.276	1054.92
870.454	1014.04
870.631	1028.18
870.808	982.27
870.985	1026.44
871.162	1088.44
871.339	1019.27
871.517	967.35
871.694	934.6
871.871	997.77
872.048	962.5
872.225	964.64
872.402	975.29
872.579	937.9
872.756	1009
872.933	907.67
873.11	960.57
873.287	1013.65
873.463	988.27
873.64	949.52
873.817	958.82
873.994	959.4
874.171	902.44
874.348	983.43
874.524	915.62
874.701	931.7
874.878	891.59
875.055	943.71
875.231	914.65
875.408	941
875.585	886.17
875.762	921.62
875.938	892.17
876.115	908.84
876.291	928.4
876.468	894.89
876.645	879.39
876.821	873.96
876.998	897.6
877.174	892.37
877.351	913.68
877.527	850.32
877.704	892.56
877.88	891.4
878.057	875.12
878.233	931.31
878.409	889.65
878.586	903.8
878.762	881.91
878.938	856.52
879.115	818.36
879.291	865.82
879.467	803.82
879.644	867.57
879.82	880.74
879.996	860.4
880.172	809.64
880.349	854.01
880.525	873.38
880.701	811.96
880.877	801.69
881.053	872.8
881.229	832.5
881.405	901.28
881.581	817
881.757	804.99
881.933	860.21
882.109	864.86
882.285	882.49
882.461	761.78
882.637	820.49
882.813	828.62
882.989	826.3
883.165	882.87
883.341	840.44
883.517	866.02
883.693	827.07
883.869	876.87
884.044	805.76
884.22	810.61
884.396	885.97
884.572	860.98
884.747	910.58
884.923	870.86
885.099	858.27
885.275	876.48
885.45	815.64
885.626	843.16
885.801	807.89
885.977	846.06
886.153	792.39
886.328	865.24
886.504	800.73
886.679	829.59
886.855	808.47
887.03	834.63
887.206	874.35
887.381	845.29
887.557	856.72
887.732	851.68
887.908	856.14
888.083	863.89
888.258	839.86
888.434	808.47
888.609	828.82
888.784	878.81
888.96	793.56
889.135	828.43
889.31	796.08
889.485	831.92
889.661	835.41
889.836	864.66
890.011	833.47
890.186	837.34
890.361	795.88
890.537	827.66
890.712	847.61
890.887	848
891.062	840.25
891.237	894.69
891.412	785.03
891.587	848.77
891.762	869.51
891.937	868.92
892.112	808.09
892.287	828.43
892.462	748.03
892.637	766.24
892.812	747.25
892.987	780.77
893.161	764.69
893.336	777.28
893.511	771.47
893.686	771.08
893.861	765.27
894.035	770.69
894.21	761.98
894.385	744.34
894.56	753.84
894.734	681.38
894.909	688.35
895.084	723.61
895.258	676.34
895.433	701.72
895.608	680.8
895.782	620.15
895.957	635.46
896.131	633.52
896.306	576.95
896.48	582.76
896.655	629.06
896.829	541.88
897.004	564.93
897.178	594.19
897.353	553.31
897.527	609.69
897.701	572.3
897.876	515.72
898.05	609.3
898.224	589.73
898.399	621.32
898.573	566.87
898.747	474.84
898.921	513.4
899.096	419.62
899.27	438.42
899.444	456.63
899.618	477.75
899.792	497.9
899.967	498.29
900.141	536.84
900.315	449.46
900.489	491.12
900.663	476.78
900.837	518.05
901.011	423.5
901.185	536.84
901.359	508.94
901.533	507.78
901.707	494.41
901.881	495.19
902.055	453.72
902.229	461.67
902.403	538.78
902.576	474.07
902.75	508.17
902.924	592.45
903.098	551.76
903.272	578.3
903.446	576.95
903.619	566.29
903.793	598.07
903.967	591.09
904.14	624.22
904.314	622.48
904.488	601.75
904.661	648.25
904.835	656.19
905.009	659.48
905.182	669.75
905.356	640.69
905.529	628.68
905.703	597.68
905.876	587.6
906.05	551.18
906.223	530.64
906.397	465.93
906.57	493.25
906.744	491.12
906.917	481.82
907.09	488.21
907.264	496.74
907.437	486.47
907.61	433.57
907.784	480.27
907.957	484.14
908.13	425.82
908.304	489.57
908.477	432.41
908.65	453.34
908.823	388.24
908.996	487.24
909.17	433.57
909.343	428.34
909.516	448.69
909.689	420.4
909.862	407.61
910.035	441.32
910.208	409.55
910.381	431.44
910.554	527.35
910.727	421.56
910.9	399.09
911.073	438.03
911.246	467.67
911.419	451.79
911.592	451.21
911.765	417.3
911.938	423.89
912.11	427.76
912.283	429.89
912.456	499.84
912.629	438.03
912.802	388.82
912.974	372.35
913.147	332.24
913.32	319.46
913.493	356.08
913.665	394.24
913.838	367.7
914.01	350.65
914.183	389.98
914.356	351.04
914.528	401.8
914.701	466.7
914.873	415.94
915.046	387.46
915.218	339.03
915.391	253.78
915.563	313.45
915.736	348.71
915.908	374.48
916.081	382.62
916.253	363.44
916.425	357.82
916.598	389.01
916.77	370.02
916.942	360.73
917.115	287.88
917.287	363.44
917.459	332.44
917.632	331.86
917.804	268.5
917.976	349.49
918.148	344.06
918.32	330.89
918.493	405.29
918.665	419.43
918.837	385.52
919.009	427.18
919.181	409.36
919.353	386.3
919.525	366.54
919.697	393.86
919.869	395.79
920.041	425.82
920.213	493.64
920.385	407.03
920.557	394.44
920.729	406.64
920.901	385.52
921.073	392.89
921.244	384.75
921.416	424.47
921.588	387.46
921.76	380.49
921.932	457.02
922.103	392.11
922.275	406.45
922.447	395.02
922.619	320.43
922.79	363.63
922.962	352.98
923.134	400.64
923.305	328.37
923.477	324.69
923.648	334.57
923.82	316.55
923.991	284.97
924.163	296.4
924.335	309.19
924.506	304.73
924.677	347.36
924.849	321.98
925.02	331.08
925.192	367.51
925.363	344.45
925.535	339.8
925.706	301.44
925.877	395.6
926.049	301.44
926.22	363.83
926.391	342.13
926.562	345.81
926.734	328.37
926.905	344.84
927.076	302.99
927.247	304.15
927.419	257.46
927.59	252.81
927.761	255.52
927.932	257.46
928.103	269.28
928.274	232.08
928.445	213.28
928.616	227.43
928.787	221.23
928.958	268.11
929.129	236.73
929.3	214.45
929.471	202.43
929.642	150.7
929.813	149.54
929.984	231.3
930.155	154.19
930.326	193.13
930.496	154.38
930.667	131.72
930.838	167.95
931.009	124.55
931.18	124.93
931.35	128.42
931.521	144.7
931.692	86.77
931.863	65.26
932.033	105.56
932.204	118.54
932.374	125.52
932.545	58.87
932.716	125.71
932.886	113.89
933.057	21.09
933.227	61.39
933.398	120.09
933.568	48.99
933.739	3.65
933.909	58.87
934.08	72.24
934.25	-18.83
934.421	8.11
934.591	58.48
934.761	24.38
934.932	-2.16
935.102	53.44
935.272	51.5
935.443	64.87
935.613	-3.91
935.783	27.09
935.953	-9.33
936.123	166.4
936.294	-1.78
936.464	12.95
936.634	15.85
936.804	-10.69
936.974	25.54
937.144	42.59
937.314	51.12
937.484	3.07
937.655	26.7
937.825	79.4
937.995	22.44
938.165	77.85
938.334	29.61
938.504	47.44
938.674	43.95
938.844	48.79
939.014	124.74
939.184	78.24
939.354	147.22
939.524	125.13
939.694	53.64
939.863	93.16
940.033	160.2
940.203	140.43
940.373	97.04
940.542	102.65
940.712	65.26
940.882	84.05
941.051	117.96
941.221	103.82
941.391	127.07
941.56	73.2
941.73	54.99
941.899	161.94
942.069	61
942.238	86.96
942.408	54.02
942.577	82.31
942.747	57.12
942.916	0.16
943.086	31.35
943.255	101.49
943.425	77.27
943.594	50.92
943.763	-1
943.933	9.66
944.102	-31.81
944.271	26.12
944.441	68.94
944.61	55.57
944.779	47.44
944.948	113.31
945.117	20.12
945.287	81.54
945.456	-7.01
945.625	18.57
945.794	85.8
945.963	2.87
946.132	88.9
946.301	35.23
946.47	88.32
946.639	-1.19
946.808	24.57
946.977	99.36
947.146	92.58
947.315	50.92
947.484	113.7
947.653	39.69
947.822	24.57
947.991	42.98
948.16	105.75
948.329	77.66
948.498	73.98
948.666	50.54
948.835	85.41
949.004	12.37
949.173	26.9
949.341	73.98
949.51	53.44
949.679	100.91
949.847	76.5
950.016	145.47
950.185	105.95
950.353	49.37
950.522	67.97
950.69	99.36
950.859	40.27
951.028	71.27
951.196	76.69
951.365	31.94
951.533	38.72
951.701	78.05
951.87	85.02
952.038	49.57
952.207	20.89
952.375	119.51
952.543	47.24
952.712	28.64
952.88	48.79
953.048	97.04
953.217	59.64
953.385	51.5
953.553	114.47
953.721	19.15
953.89	55.38
954.058	5.01
954.226	36
954.394	43.75
954.562	-7.59
954.73	76.5
954.898	54.02
955.067	99.75
955.235	41.43
955.403	92
955.571	116.99
955.739	64.29
955.907	21.86
956.075	36
956.243	45.3
956.41	68.17
956.578	-1
956.746	-2.16
956.914	40.27
957.082	73.98
957.25	73.98
957.418	21.47
957.585	37.55
957.753	98.59
957.921	28.06
958.089	54.22
958.256	75.72
958.424	39.69
958.592	59.06
958.759	27.48
958.927	77.27
959.095	30.58
959.262	48.6
959.43	56.93
959.597	5.78
959.765	60.42
959.932	23.22
960.1	87.35
960.267	59.06
960.435	68.75
960.602	76.69
960.77	57.12
960.937	11.01
961.104	62.16
961.272	28.25
961.439	62.16
961.606	65.84
961.774	97.62
961.941	52.67
962.108	82.12
962.275	81.54
962.443	104.4
962.61	85.22
962.777	115.25
962.944	76.89
963.111	82.31
963.278	87.93
963.446	62.94
963.613	85.6
963.78	76.5
963.947	71.07
964.114	85.8
964.281	121.45
964.448	92.97
964.615	57.32
964.782	79.21
964.949	91.61
965.116	102.27
965.282	86.19
965.449	82.89
965.616	28.06
965.783	79.79
965.95	79.21
966.117	28.84
966.283	76.3
966.45	86.38
966.617	105.75
966.784	92.77
966.95	111.37
967.117	113.89
967.284	55.96
967.45	57.9
967.617	139.47
967.784	74.56
967.95	137.14
968.117	57.9
968.283	103.23
968.45	192.55
968.616	110.98
968.783	108.85
968.949	114.67
969.116	107.5
969.282	69.52
969.449	121.06
969.615	87.35
969.781	29.42
969.948	54.22
970.114	61
970.28	138.88
970.447	90.84
970.613	136.95
970.779	69.72
970.945	92.58
971.112	98
971.278	91.42
971.444	89.09
971.61	127.65
971.776	61
971.942	116.6
972.108	107.3
972.275	76.69
972.441	105.56
972.607	145.28
972.773	87.54
972.939	104.4
973.105	75.72
973.271	68.55
973.437	81.54
973.602	43.56
973.768	72.43
973.934	46.66
974.1	91.61
974.266	3.84
974.432	76.11
974.598	64.87
974.763	86.19
974.929	53.83
975.095	135.2
975.261	60.22
975.426	39.3
975.592	69.72
975.758	140.05
975.923	45.11
976.089	30
976.255	89.09
976.42	77.08
976.586	113.89
976.751	100.91
976.917	175.5
977.082	99.55
977.248	53.05
977.413	15.85
977.579	66.23
977.744	94.52
977.91	44.53
978.075	46.08
978.24	100.72
978.406	77.66
978.571	42.79
978.736	38.52
978.902	97.62
979.067	20.31
979.232	11.98
979.397	76.69
979.563	127.07
979.728	21.47
979.893	56.35
980.058	34.26
980.223	126.1
980.388	75.72
980.554	70.1
980.719	54.6
980.884	79.99
981.049	105.75
981.214	54.6
981.379	98
981.544	49.95
981.709	83.28
981.874	47.24
982.039	61.77
982.204	111.76
982.368	57.9
982.533	32.32
982.698	113.5
982.863	110.6
983.028	56.93
983.193	74.95
983.357	80.37
983.522	91.22
983.687	47.44
983.852	63.9
984.016	68.94
984.181	67.2
984.346	45.89
984.51	83.67
984.675	72.43
984.839	85.6
985.004	74.17
985.168	100.33
985.333	82.12
985.498	63.13
985.662	88.12
985.827	57.51
985.991	70.69
986.155	43.37
986.32	100.52
986.484	114.28
986.649	88.51
986.813	4.42
986.977	64.68
987.142	70.69
987.306	54.22
987.47	30
987.634	68.36
987.799	53.05
987.963	74.17
988.127	93.35
988.291	127.65
988.455	67.59
988.62	71.46
988.784	72.43
988.948	94.13
989.112	19.54
989.276	83.09
989.44	61
989.604	48.21
989.768	55.57
989.932	154.97
990.096	25.74
990.26	33.1
990.424	29.03
990.588	46.85
990.752	124.74
990.915	97.04
991.079	73.01
991.243	44.53
991.407	93.35
991.571	42.2
991.734	102.46
991.898	77.27
992.062	138.3
992.226	76.5
992.389	23.8
992.553	16.82
992.717	19.34
992.88	52.47
993.044	71.07
993.207	51.12
993.371	80.18
993.535	112.92
993.698	72.04
993.862	85.99
994.025	98.78
994.189	92.39
994.352	81.54
994.515	63.71
994.679	117.57
994.842	46.47
995.006	71.07
995.169	33.87
995.332	42.4
995.496	84.64
995.659	10.82
995.822	65.07
995.985	56.93
996.149	89.67
996.312	69.14
996.475	136.37
996.638	44.14
996.801	126.68
996.964	111.76
997.128	46.85
997.291	50.34
997.454	79.4
997.617	21.86
997.78	90.45
997.943	44.34
998.106	77.66
998.269	33.68
998.432	34.26
998.595	70.88
998.758	-6.62
998.92	40.85
999.083	6.17
999.246	45.5
999.409	27.29
999.572	18.76
999.735	34.26
999.897	51.7
1000.06	34.45
1000.223	52.47
1000.386	83.09
1000.548	82.31
1000.711	60.03
1000.874	58.87
1001.036	7.91
1001.199	79.6
1001.361	44.72
1001.524	58.29
1001.687	89.87
1001.849	19.15
1002.012	48.4
1002.174	52.47
1002.337	67.39
1002.499	34.84
1002.661	80.95
1002.824	35.42
1002.986	13.14
1003.149	47.05
1003.311	13.92
1003.473	96.84
1003.636	4.81
1003.798	67.39
1003.96	56.54
1004.123	63.71
1004.285	38.52
1004.447	29.22
1004.609	29.8
1004.771	106.72
1004.933	-0.23
1005.096	3.46
1005.258	9.85
1005.42	27.87
1005.582	86.96
1005.744	54.8
1005.906	16.44
1006.068	26.7
1006.23	-2.55
1006.392	-4.49
1006.554	22.05
1006.716	73.79
1006.878	43.17
1007.04	-14.76
1007.202	48.02
1007.363	60.42
1007.525	56.15
1007.687	54.99
1007.849	50.15
1008.011	3.26
1008.172	14.5
1008.334	40.65
1008.496	67.39
1008.658	1.52
1008.819	44.14
1008.981	-10.3
1009.143	17.21
1009.304	15.08
1009.466	45.5
1009.627	105.56
1009.789	144.5
1009.95	44.92
1010.112	29.42
1010.273	60.03
1010.435	25.15
1010.596	40.27
1010.758	30
1010.919	23.8
1011.081	-12.43
1011.242	32.9
1011.403	60.22
1011.565	33.87
1011.726	48.6
1011.887	-11.85
1012.049	20.31
1012.21	86.57
1012.371	114.28
1012.532	-45.95
1012.693	33.49
1012.855	3.46
1013.016	48.79
1013.177	62.35
1013.338	18.95
1013.499	105.56
1013.66	70.69
1013.821	29.42
1013.982	61.97
1014.143	24.38
1014.304	7.14
1014.465	77.27
1014.626	56.54
1014.787	-8.36
1014.948	90.25
1015.109	-45.56
1015.27	62.55
1015.431	4.62
1015.592	3.46
1015.752	82.5
1015.913	33.87
1016.074	43.37
1016.235	32.52
1016.395	29.42
1016.556	9.46
1016.717	19.15
1016.877	78.24
1017.038	-4.49
1017.199	41.62
1017.359	20.5
1017.52	29.61
1017.681	10.24
1017.841	7.52
1018.002	37.36
1018.162	-0.03
1018.323	73.59
1018.483	5.97
1018.644	-9.53
1018.804	-0.03
1018.964	-10.49
1019.125	-11.46
1019.285	13.72
1019.446	-9.53
1019.606	8.11
1019.766	-44.98
1019.926	26.51
1020.087	52.47
1020.247	-3.71
1020.407	63.13
1020.567	76.69
1020.728	24.38
1020.888	-3.52
1021.048	3.07
1021.208	-28.71
1021.368	-3.71
1021.528	70.1
1021.688	71.85
1021.848	49.37
1022.008	59.64
1022.168	25.74
1022.328	27.48
1022.488	23.8
1022.648	29.42
1022.808	14.89
1022.968	38.91
1023.128	-34.33
1023.288	-11.46
1023.448	23.22
1023.608	38.14
1023.767	47.44
1023.927	-6.43
1024.087	-18.44
1024.247	-17.66
1024.406	4.23
1024.566	-0.42
1024.726	-2.74
1024.885	-0.23
1025.045	55.77
1025.205	-4.49
1025.364	14.69
1025.524	30.19
1025.683	-0.81
1025.843	30.77
1026.003	33.1
1026.162	70.3
1026.321	74.56
1026.481	1.91
1026.64	-5.65
1026.8	27.09
1026.959	21.47
1027.119	31.74
1027.278	25.93
1027.437	5.59
1027.597	20.5
1027.756	37.17
1027.915	6.36
1028.074	54.02
1028.234	-0.23
1028.393	38.14
1028.552	10.04
1028.711	-63.78
1028.87	15.27
1029.03	-14.37
1029.189	20.31
1029.348	-68.43
1029.507	-16.89
1029.666	3.26
1029.825	-23.28
1029.984	-26.19
1030.143	19.34
1030.302	-11.08
1030.461	-10.69
1030.62	9.46
1030.779	57.32
1030.938	-23.67
1031.097	-19.02
1031.255	36
1031.414	49.57
1031.573	54.02
1031.732	-33.94
1031.891	16.24
1032.049	58.29
1032.208	52.28
1032.367	-15.53
1032.525	-3.13
1032.684	-2.74
1032.843	13.53
1033.001	-44.01
1033.16	157.29
1033.319	36.59
1033.477	50.34
1033.636	3.26
1033.794	-19.6
1033.953	32.9
1034.111	47.44
1034.27	-15.34
1034.428	30.39
1034.587	-21.93
1034.745	36
1034.903	-7.39
1035.062	57.9
1035.22	-26.19
1035.378	34.45
1035.537	-12.43
1035.695	46.27
1035.853	36
1036.011	14.89
1036.17	41.82
1036.328	-56.99
1036.486	21.09
1036.644	-1.97
1036.802	-56.03
1036.96	-5.65
1037.119	-2.16
1037.277	-6.62
1037.435	-24.44
1037.593	-6.23
1037.751	15.47
1037.909	42.4
1038.067	42.4
