Data from pine_FLMT105791__115__17-22-14-075.txt Node

Date: Mon Mar 20 17:22:14 GMT 2023
User: antho
Spectrometer: FLMT10579
Trigger mode: 0
Integration Time (sec): 1.000000E-1
Scans to average: 10
Electric dark correction enabled: true
Nonlinearity correction enabled: false
Boxcar width: 0
XAxis mode: Wavelengths
Number of Pixels in Spectrum: 3648
>>>>>Begin Spectral Data<<<<<
345.248	-172.45
345.464	-172.45
345.681	-172.45
345.898	-167.41
346.114	-144.36
346.331	-26.95
346.548	23.23
346.764	-11.83
346.981	20.13
347.197	-37.02
347.414	40.09
347.631	-26.75
347.847	50.94
348.064	37.38
348.28	16.84
348.497	-70.54
348.713	-15.52
348.93	34.47
349.146	29.82
349.363	-24.23
349.579	-2.34
349.796	4.83
350.012	5.41
350.229	9.86
350.445	9.86
350.661	-27.53
350.878	-4.86
351.094	13.74
351.311	15.87
351.527	3.86
351.743	-23.07
351.96	33.89
352.176	12.38
352.392	33.31
352.609	7.73
352.825	-25.98
353.041	-13.38
353.257	0.57
353.474	-0.6
353.69	14.51
353.906	-2.73
354.122	-30.43
354.339	51.91
354.555	9.09
354.771	-8.73
354.987	72.64
355.203	55.01
355.42	-12.42
355.636	0.37
355.852	-15.13
356.068	12
356.284	-35.08
356.5	43
356.716	9.48
356.932	1.92
357.148	16.84
357.364	-5.25
357.58	33.31
357.796	43.19
358.012	39.31
358.228	26.91
358.444	-87.2
358.66	84.65
358.876	44.16
359.092	-13.77
359.308	7.93
359.524	37.57
359.74	-2.15
359.956	-22.3
360.172	-4.47
360.388	66.05
360.604	-19
360.819	86.01
361.035	13.35
361.251	52.3
361.467	-8.73
361.683	37.38
361.898	26.14
362.114	44.93
362.33	14.71
362.546	38.73
362.762	-3.12
362.977	3.28
363.193	-54.85
363.409	29.43
363.624	-12.61
363.84	-23.07
364.056	1.92
364.271	53.07
364.487	14.71
364.703	4.25
364.918	-26.95
365.134	-12.42
365.35	2.89
365.565	94.34
365.781	10.83
365.996	15.87
366.212	90.46
366.427	7.73
366.643	23.04
366.858	6.77
367.074	-30.05
367.289	84.26
367.505	92.21
367.72	-5.25
367.936	1.73
368.151	54.23
368.367	25.56
368.582	0.76
368.798	7.73
369.013	54.81
369.228	8.7
369.444	9.67
369.659	75.35
369.874	7.35
370.09	51.33
370.305	-53.49
370.52	-13.97
370.736	49.39
370.951	32.92
371.166	84.46
371.381	76.51
371.597	15.48
371.812	-30.82
372.027	5.41
372.242	5.22
372.458	69.35
372.673	-8.54
372.888	9.67
373.103	31.18
373.318	101.7
373.533	51.13
373.749	15.68
373.964	-21.52
374.179	21.3
374.394	-16.29
374.609	50.94
374.824	-29.66
375.039	76.9
375.254	-0.79
375.469	92.21
375.684	13.93
375.899	36.02
376.114	33.31
376.329	36.41
376.544	48.61
376.759	38.54
376.974	1.73
377.189	17.23
377.404	-0.79
377.619	31.56
377.834	-26.95
378.049	-21.13
378.264	-28.69
378.478	8.9
378.693	-7.77
378.908	34.08
379.123	19.55
379.338	67.02
379.553	38.54
379.767	40.09
379.982	40.09
380.197	47.06
380.412	4.44
380.626	25.95
380.841	101.12
381.056	48.03
381.271	104.8
381.485	-0.6
381.7	-14.16
381.915	29.43
382.129	7.15
382.344	34.08
382.559	20.52
382.773	79.23
382.988	-31.21
383.202	40.09
383.417	-0.6
383.632	103.83
383.846	27.3
384.061	23.62
384.275	5.99
384.49	41.06
384.704	37.38
384.919	33.7
385.133	23.62
385.348	38.54
385.562	10.25
385.777	85.04
385.991	25.75
386.206	17.61
386.42	11.8
386.634	59.85
386.849	29.05
387.063	31.95
387.277	-17.45
387.492	16.26
387.706	-13
387.92	26.53
388.135	43.38
388.349	31.56
388.563	54.23
388.778	12.58
388.992	64.11
389.206	50.55
389.42	95.89
389.635	6.77
389.849	25.95
390.063	65.47
390.277	26.53
390.491	59.46
390.706	27.11
390.92	56.56
391.134	35.63
391.348	68.18
391.562	-11.06
391.776	26.33
391.99	-4.86
392.205	68.96
392.419	-2.34
392.633	38.54
392.847	66.63
393.061	-8.54
393.275	100.15
393.489	23.04
393.703	19.75
393.917	48.61
394.131	1.92
394.345	50.75
394.559	74.58
394.773	7.93
394.986	32.53
395.2	38.54
395.414	69.35
395.628	-10.28
395.842	47.45
396.056	12.38
396.27	-39.35
396.484	49.97
396.697	72.25
396.911	70.31
397.125	67.8
397.339	72.45
397.553	48.03
397.766	75.93
397.98	63.15
398.194	61.01
398.408	30.98
398.621	32.92
398.835	66.44
399.049	39.9
399.262	105.77
399.476	63.73
399.69	86.01
399.903	130.18
400.117	40.09
400.331	83.49
400.544	24.4
400.758	159.24
400.971	71.67
401.185	79.23
401.398	49
401.612	100.73
401.826	106.16
402.039	88.14
402.253	21.1
402.466	75.93
402.68	37.57
402.893	74.58
403.106	68.57
403.32	62.37
403.533	71.67
403.747	77.87
403.96	71.28
404.174	84.07
404.387	25.95
404.6	40.28
404.814	101.12
405.027	83.1
405.24	49.97
405.454	45.9
405.667	108.68
405.88	3.67
406.094	73.8
406.307	110.81
406.52	62.56
406.733	41.83
406.947	27.69
407.16	127.08
407.373	93.95
407.586	34.47
407.799	13.55
408.012	104.61
408.226	71.09
408.439	110.81
408.652	45.71
408.865	95.69
409.078	101.12
409.291	99.96
409.504	30.21
409.717	94.73
409.93	75.16
410.143	77.29
410.357	18.58
410.57	24.59
410.783	61.21
410.996	93.95
411.209	65.47
411.421	111
411.634	66.44
411.847	63.34
412.06	68.38
412.273	62.95
412.486	104.22
412.699	133.86
412.912	74.19
413.125	120.88
413.338	69.35
413.55	97.83
413.763	84.46
413.976	74.77
414.189	49.58
414.402	71.48
414.615	146.46
414.827	65.28
415.04	117.98
415.253	72.64
415.466	112.16
415.678	153.63
415.891	95.5
416.104	88.53
416.316	86.4
416.529	77.68
416.742	135.99
416.954	145.29
417.167	93.18
417.38	79.42
417.592	116.23
417.805	69.73
418.017	22.65
418.23	98.79
418.442	72.45
418.655	80.58
418.868	92.01
419.08	119.91
419.293	138.32
419.505	100.15
419.718	125.53
419.93	138.51
420.142	85.23
420.355	136.77
420.567	131.73
420.78	132.12
420.992	111
421.205	173.97
421.417	39.7
421.629	91.43
421.842	84.46
422.054	46.87
422.266	124.76
422.479	142
422.691	73.41
422.903	155.37
423.115	89.88
423.328	89.3
423.54	118.75
423.752	116.43
423.964	87.17
424.177	121.66
424.389	107.13
424.601	204
424.813	121.85
425.025	140.64
425.238	100.93
425.45	107.32
425.662	132.31
425.874	426.62
426.086	132.7
426.298	138.9
426.51	154.21
426.722	117.59
426.934	111.97
427.146	148.2
427.358	105.96
427.57	163.12
427.782	105.96
427.994	144.13
428.206	131.93
428.418	109.45
428.63	140.45
428.842	183.46
429.054	142.58
429.266	161.76
429.478	95.89
429.69	125.34
429.902	88.72
430.114	141.23
430.325	128.83
430.537	122.24
430.749	87.75
430.961	52.68
431.173	142.97
431.384	148.01
431.596	59.85
431.808	107.9
432.02	124.76
432.231	192.96
432.443	198.77
432.655	163.31
432.867	96.28
433.078	172.42
433.29	217.17
433.502	176.68
433.713	191.6
433.925	190.63
434.136	189.47
434.348	112.16
434.56	92.01
434.771	246.82
434.983	122.82
435.194	145.49
435.406	142.19
435.617	207.49
435.829	229.19
436.04	195.09
436.252	204.39
436.463	248.95
436.675	233.64
436.886	183.46
437.098	200.12
437.309	256.7
437.521	186.56
437.732	185.98
437.943	194.51
438.155	192.76
438.366	163.31
438.578	257.47
438.789	194.12
439	226.67
439.211	207.87
439.423	215.43
439.634	223.37
439.845	242.94
440.057	227.83
440.268	241.97
440.479	167.77
440.69	197.41
440.902	195.67
441.113	208.07
441.324	188.11
441.535	246.82
441.746	267.74
441.957	190.44
442.168	213.11
442.38	252.05
442.591	262.12
442.802	212.33
443.013	243.14
443.224	240.42
443.435	252.44
443.646	226.47
443.857	222.02
444.068	219.31
444.279	216.79
444.49	293.12
444.701	256.51
444.912	343.69
445.123	285.18
445.334	288.47
445.545	304.36
445.756	243.33
445.967	224.73
446.178	293.7
446.388	278.2
446.599	287.12
446.81	304.17
447.021	259.41
447.232	306.1
447.443	314.63
447.653	241.78
447.864	318.89
448.075	263.29
448.286	320.44
448.496	281.11
448.707	323.74
448.918	280.14
449.129	355.12
449.339	282.85
449.55	278.79
449.761	248.17
449.971	340.01
450.182	305.91
450.393	326.25
450.603	278.4
450.814	344.66
451.024	303
451.235	347.95
451.446	365.78
451.656	380.31
451.867	296.03
452.077	313.47
452.288	367.91
452.498	360.35
452.709	300.1
452.919	326.64
453.13	290.41
453.34	334
453.55	238.68
453.761	340.98
453.971	312.11
454.182	347.76
454.392	345.24
454.602	371.4
454.813	344.47
455.023	378.76
455.233	295.64
455.444	333.23
455.654	269.68
455.864	340.4
456.075	310.56
456.285	305.14
456.495	325.09
456.705	364.23
456.916	391.74
457.126	406.08
457.336	334.2
457.546	295.06
457.756	343.5
457.967	402.78
458.177	354.15
458.387	343.11
458.597	317.92
458.807	341.17
459.017	321.6
459.227	334.39
459.437	323.35
459.647	371.4
459.857	374.88
460.068	322.77
460.278	383.8
460.488	388.06
460.698	399.68
460.908	363.26
461.117	308.24
461.327	328.39
461.537	374.88
461.747	385.54
461.957	352.41
462.167	479.51
462.377	423.71
462.587	363.45
462.797	426.81
463.007	389.03
463.216	397.94
463.426	412.86
463.636	421
463.846	329.16
464.056	364.62
464.265	419.45
464.475	328
464.685	362.1
464.895	392.13
465.104	386.32
465.314	403.17
465.524	357.64
465.733	349.12
465.943	447.54
466.153	482.8
466.362	448.12
466.572	420.8
466.782	407.63
466.991	420.61
467.201	440.37
467.41	354.15
467.62	437.66
467.829	379.73
468.039	411.5
468.249	431.46
468.458	420.22
468.668	441.92
468.877	442.89
469.086	483.19
469.296	469.82
469.505	419.83
469.715	505.08
469.924	455.68
470.134	491.71
470.343	457.23
470.552	438.43
470.762	431.27
470.971	384.18
471.18	431.65
471.39	458.78
471.599	428.55
471.808	479.12
472.018	421.58
472.227	521.16
472.436	499.66
472.645	450.25
472.855	446.76
473.064	535.31
473.273	477.96
473.482	475.25
473.691	549.64
473.901	521.94
474.11	487.65
474.319	562.82
474.528	503.92
474.737	558.56
474.946	522.91
475.155	507.8
475.364	561.85
475.573	498.5
475.783	541.51
475.992	558.75
476.201	546.93
476.41	525.23
476.619	492.1
476.828	521.16
477.037	532.79
477.245	547.9
477.454	578.13
477.663	521.16
477.872	548.87
478.081	622.88
478.29	535.11
478.499	643.81
478.708	585.1
478.917	610.29
479.125	584.13
479.334	596.34
479.543	606.41
479.752	639.35
479.961	645.36
480.169	648.65
480.378	578.9
480.587	741.26
480.796	629.66
481.004	633.92
481.213	636.64
481.422	633.34
481.63	643.81
481.839	662.6
482.048	704.06
482.256	668.8
482.465	677.91
482.674	691.86
482.882	683.52
483.091	751.34
483.299	705.81
483.508	725.37
483.716	702.9
483.925	694.37
484.134	668.41
484.342	679.84
484.551	724.02
484.759	693.99
484.967	704.84
485.176	746.88
485.384	743.2
485.593	724.6
485.801	724.21
486.01	697.28
486.218	646.52
486.426	613.39
486.635	635.28
486.843	621.33
487.051	663.57
487.26	653.88
487.468	706.77
487.676	743.78
487.885	668.02
488.093	716.85
488.301	765.67
488.509	758.12
488.717	794.73
488.926	745.33
489.134	746.88
489.342	774.2
489.55	720.53
489.758	755.6
489.967	757.54
490.175	871.46
490.383	781.75
490.591	837.17
490.799	766.25
491.007	843.56
491.215	799.38
491.423	793.57
491.631	786.02
491.839	809.46
492.047	848.02
492.255	768.77
492.463	755.79
492.671	784.27
492.879	861.58
493.087	810.82
493.295	828.06
493.503	848.4
493.711	860.22
493.919	883.86
494.127	865.26
494.334	894.51
494.542	817.21
494.75	860.42
494.958	847.24
495.166	910.79
495.374	904.2
495.581	914.28
495.789	897.23
495.997	951.86
496.205	880.57
496.412	862.55
496.62	891.41
496.828	890.25
497.035	890.25
497.243	916.99
497.451	917.38
497.658	910.21
497.866	904.4
498.074	957.48
498.281	887.54
498.489	988.87
498.696	916.99
498.904	887.93
499.112	869.52
499.319	959.23
499.527	929.97
499.734	944.5
499.942	884.63
500.149	917.57
500.357	899.75
500.564	862.16
500.771	919.12
500.979	885.6
501.186	895.1
501.394	941.98
501.601	912.34
501.808	948.18
502.016	910.21
502.223	905.36
502.43	912.34
502.638	918.15
502.845	911.95
503.052	1028.78
503.26	930.94
503.467	1009.41
503.674	965.23
503.881	1000.88
504.089	1048.35
504.296	1016.96
504.503	931.33
504.71	971.82
504.917	944.11
505.125	989.26
505.332	980.34
505.539	994.49
505.746	1086.13
505.953	1056.68
506.16	1038.86
506.367	1048.93
506.574	1091.17
506.781	1099.69
506.988	1034.79
507.195	1032.46
507.402	1048.16
507.609	1070.82
507.816	1035.76
508.023	1015.41
508.23	1013.67
508.437	969.3
508.644	1059.59
508.851	1081.67
509.058	1097.95
509.265	1057.65
509.472	1084.97
509.679	1173.51
509.885	1093.88
510.092	1100.86
510.299	1104.34
510.506	1106.67
510.713	1111.12
510.92	1116.74
511.126	1128.37
511.333	1148.13
511.54	1137.09
511.746	1173.9
511.953	1179.9
512.16	1208.19
512.367	1143.67
512.573	1180.49
512.78	1154.14
512.987	1154.52
513.193	1170.22
513.4	1113.45
513.606	1162.85
513.813	1208.19
514.02	1171.19
514.226	1228.34
514.433	1228.92
514.639	1149.68
514.846	1189.01
515.052	1155.1
515.259	1208
515.465	1203.15
515.672	1207.03
515.878	1271.93
516.085	1220.4
516.291	1276.2
516.497	1212.45
516.704	1189.4
516.91	1138.83
517.117	1109.57
517.323	1090.2
517.529	1088.84
517.736	1131.66
517.942	1159.37
518.148	1175.45
518.354	1176.42
518.561	1198.5
518.767	1184.94
518.973	1188.62
519.179	1243.65
519.386	1196.76
519.592	1208.77
519.798	1192.11
520.004	1335.48
520.21	1294.6
520.417	1297.7
520.623	1346.33
520.829	1375.4
521.035	1373.85
521.241	1359.31
521.447	1379.66
521.653	1474.21
521.859	1334.9
522.065	1383.73
522.271	1463.94
522.477	1450.18
522.683	1457.54
522.889	1409.11
523.095	1427.13
523.301	1393.22
523.507	1367.65
523.713	1417.63
523.919	1385.47
524.125	1448.83
524.331	1408.53
524.537	1560.04
524.742	1488.93
524.948	1523.81
525.154	1524.77
525.36	1592.78
525.566	1502.49
525.772	1590.84
525.977	1484.86
526.183	1553.06
526.389	1584.84
526.595	1458.32
526.8	1471.11
527.006	1395.55
527.212	1352.15
527.417	1410.66
527.623	1390.51
527.829	1480.21
528.034	1468.59
528.24	1495.91
528.446	1496.87
528.651	1612.15
528.857	1552.87
529.062	1669.5
529.268	1563.72
529.473	1610.22
529.679	1614.67
529.884	1710.38
530.09	1671.25
530.295	1696.63
530.501	1664.08
530.706	1639.67
530.912	1581.54
531.117	1646.25
531.323	1645.87
531.528	1688.1
531.733	1724.33
531.939	1687.13
532.144	1701.86
532.35	1718.72
532.555	1709.42
532.76	1688.3
532.966	1679.38
533.171	1650.52
533.376	1587.16
533.581	1622.62
533.787	1677.06
533.992	1677.83
534.197	1721.82
534.402	1666.02
534.607	1684.62
534.813	1759.4
535.018	1678.8
535.223	1710.97
535.428	1715.03
535.633	1738.67
535.838	1744.48
536.043	1737.51
536.249	1836.51
536.454	1740.8
536.659	1764.05
536.864	1769.09
537.069	1764.44
537.274	1776.65
537.479	1757.46
537.684	1768.51
537.889	1730.53
538.094	1865.58
538.299	1735.38
538.504	1811.91
538.708	1785.56
538.913	1847.75
539.118	1832.64
539.323	1792.53
539.528	1744.87
539.733	1803
539.938	1809.39
540.142	1815.59
540.347	1740.42
540.552	1744.48
540.757	1747
540.962	1782.26
541.166	1703.6
541.371	1676.28
541.576	1750.68
541.781	1692.75
541.985	1773.16
542.19	1791.18
542.395	1855.69
542.599	1874.29
542.804	1862.09
543.008	1864.99
543.213	1783.43
543.418	1765.41
543.622	1831.09
543.827	1769.67
544.031	1870.23
544.236	1879.53
544.44	1831.09
544.645	1908.2
544.849	1830.31
545.054	1874.1
545.258	1936.29
545.463	1924.67
545.667	1801.25
545.872	1868.68
546.076	1876.04
546.281	1880.11
546.485	1841.75
546.689	1880.3
546.894	1912.08
547.098	1877.39
547.302	1835.93
547.507	1880.11
547.711	1920.6
547.915	1935.71
548.119	1845.81
548.324	1812.88
548.528	1954.31
548.732	1892.51
548.936	1936.1
549.141	1944.43
549.345	1860.73
549.549	1919.24
549.753	1926.03
549.957	1962.84
550.161	1990.54
550.366	1899.68
550.57	1865.58
550.774	1888.83
550.978	1900.06
551.182	1962.26
551.386	1899.29
551.59	1901.81
551.794	1913.63
551.998	1934.16
552.202	1903.16
552.406	1870.61
552.61	1947.34
552.814	1928.16
553.018	1973.49
553.222	1884.56
553.426	1931.26
553.63	2034.14
553.833	1885.14
554.037	1853.95
554.241	1963.61
554.445	1896.96
554.649	1870.81
554.853	1887.47
555.056	1909.56
555.26	1953.92
555.464	1920.79
555.668	1961.67
555.871	1944.82
556.075	1920.21
556.279	1914.79
556.483	1856.86
556.686	1889.21
556.89	1925.06
557.094	1920.02
557.297	1856.28
557.501	1924.09
557.704	1821.21
557.908	1923.51
558.112	1829.15
558.315	1917.11
558.519	1884.56
558.722	1854.53
558.926	1839.61
559.129	1775.29
559.333	1752.82
559.536	1750.49
559.74	1770.64
559.943	1785.95
560.147	1769.48
560.35	1786.53
560.553	1808.23
560.757	1746.03
560.96	1846.01
561.164	1806.48
561.367	1918.28
561.57	1827.02
561.774	1863.06
561.977	1821.79
562.18	1797.96
562.384	1905.49
562.587	1799.9
562.79	1772.19
562.993	1764.44
563.197	1821.79
563.4	1856.86
563.603	1824.7
563.806	1846.2
564.009	1758.82
564.212	1789.43
564.416	1729.18
564.619	1786.33
564.822	1705.73
565.025	1818.69
565.228	1719.88
565.431	1773.35
565.634	1694.69
565.837	1711.35
566.04	1677.06
566.243	1681.71
566.446	1641.8
566.649	1732.47
566.852	1627.27
567.055	1711.35
567.258	1730.34
567.461	1748.75
567.664	1750.49
567.867	1664.85
568.07	1690.43
568.273	1728.21
568.475	1739.45
568.678	1639.86
568.881	1655.36
569.084	1657.3
569.287	1596.46
569.489	1602.27
569.692	1646.25
569.895	1682.29
570.098	1601.11
570.3	1608.47
570.503	1545.12
570.706	1572.24
570.909	1528.07
571.111	1491.45
571.314	1489.71
571.516	1557.91
571.719	1572.24
571.922	1533.88
572.124	1580.19
572.327	1545.7
572.529	1525.36
572.732	1540.08
572.935	1608.28
573.137	1616.03
573.34	1555
573.542	1588.71
573.745	1561.59
573.947	1558.87
574.15	1507.53
574.352	1483.89
574.554	1585.22
574.757	1495.52
574.959	1487.19
575.162	1502.49
575.364	1489.32
575.566	1598.98
575.769	1434.49
575.971	1501.52
576.173	1400.58
576.376	1477.11
576.578	1518.38
576.78	1532.33
576.982	1402.33
577.185	1443.21
577.387	1421.12
577.589	1440.69
577.791	1479.63
577.993	1461.81
578.196	1408.72
578.398	1468.2
578.6	1473.43
578.802	1419.57
579.004	1385.66
579.206	1427.51
579.408	1474.98
579.61	1426.54
579.812	1503.85
580.014	1454.06
580.216	1445.92
580.418	1436.62
580.62	1456.58
580.822	1425.96
581.024	1443.59
581.226	1467.04
581.428	1420.93
581.63	1526.32
581.832	1411.63
582.034	1485.25
582.236	1460.45
582.438	1526.32
582.64	1508.31
582.841	1540.47
583.043	1562.75
583.245	1490.68
583.447	1455.41
583.649	1459.09
583.85	1477.5
584.052	1514.51
584.254	1398.45
584.456	1509.66
584.657	1452.7
584.859	1484.28
585.061	1442.43
585.262	1431.97
585.464	1393.03
585.666	1462.39
585.867	1435.26
586.069	1493.97
586.27	1444.56
586.472	1409.3
586.674	1402.33
586.875	1429.45
587.077	1392.45
587.278	1448.24
587.48	1416.28
587.681	1490.48
587.883	1432.36
588.084	1393.61
588.285	1365.51
588.487	1373.85
588.688	1357.57
588.89	1300.8
589.091	1274.65
589.292	1302.93
589.494	1258.37
589.695	1244.81
589.896	1200.25
590.098	1198.31
590.299	1240.93
590.5	1235.12
590.702	1255.47
590.903	1278.33
591.104	1331.61
591.305	1286.85
591.507	1329.28
591.708	1294.8
591.909	1255.08
592.11	1346.91
592.311	1329.09
592.512	1289.76
592.714	1250.62
592.915	1247.33
593.116	1276
593.317	1287.63
593.518	1291.89
593.719	1273.29
593.92	1325.41
594.121	1328.7
594.322	1314.75
594.523	1298.09
594.724	1225.63
594.925	1274.45
595.126	1292.86
595.327	1286.66
595.528	1298.09
595.729	1289.57
595.929	1278.91
596.13	1289.18
596.331	1245.78
596.532	1311.07
596.733	1334.71
596.934	1339.36
597.135	1326.57
597.335	1331.41
597.536	1263.8
597.737	1333.93
597.938	1278.72
598.138	1288.79
598.339	1289.76
598.54	1296.15
598.74	1276
598.941	1259.92
599.142	1286.47
599.342	1314.37
599.543	1252.17
599.744	1277.75
599.944	1290.34
600.145	1280.46
600.345	1266.32
600.546	1335.29
600.746	1331.8
600.947	1337.23
601.147	1308.75
601.348	1341.68
601.548	1270.19
601.749	1272.32
601.949	1243.07
602.15	1287.24
602.35	1250.04
602.551	1294.02
602.751	1256.24
602.951	1274.07
603.152	1191.53
603.352	1297.7
603.552	1284.14
603.753	1291.89
603.953	1293.44
604.153	1282.4
604.354	1279.1
604.554	1269.42
604.754	1268.45
604.954	1196.57
605.155	1275.81
605.355	1242.68
605.555	1288.6
605.755	1328.9
605.955	1258.18
606.155	1291.5
606.356	1259.15
606.556	1293.44
606.756	1273.1
606.956	1233.96
607.156	1321.34
607.356	1243.07
607.556	1248.3
607.756	1272.13
607.956	1345.36
608.156	1269.8
608.356	1234.54
608.556	1244.81
608.756	1248.49
608.956	1208.97
609.156	1257.4
609.356	1204.32
609.556	1209.55
609.755	1193.66
609.955	1189.79
610.155	1232.99
610.355	1246.94
610.555	1194.05
610.755	1222.14
610.954	1157.43
611.154	1214.97
611.354	1241.52
611.554	1208.58
611.753	1208.77
611.953	1167.89
612.153	1222.92
612.352	1211.68
612.552	1195.21
612.752	1130.31
612.951	1192.11
613.151	1185.72
613.351	1145.42
613.55	1171.96
613.75	1203.54
613.949	1180.1
614.149	1202.19
614.348	1182.42
614.548	1139.8
614.747	1090.97
614.947	1152
615.146	1088.07
615.346	1176.42
615.545	1157.04
615.745	1165.18
615.944	1181.45
616.144	1121.39
616.343	1163.24
616.542	1127.21
616.742	1144.06
616.941	1114.22
617.14	1057.07
617.34	1115
617.539	1099.89
617.738	1081.09
617.938	1199.28
618.137	1135.34
618.336	1094.46
618.535	1158.59
618.734	1123.91
618.934	1150.45
619.133	1137.28
619.332	1140.19
619.531	1115.77
619.73	1117.32
619.929	1164.02
620.128	1138.83
620.328	1155.1
620.527	1103.96
620.726	1108.99
620.925	1131.08
621.124	1092.14
621.323	1124.69
621.522	1046.61
621.721	1081.09
621.92	1072.57
622.119	1143.87
622.318	1070.44
622.517	1082.45
622.715	1114.22
622.914	1054.36
623.113	1066.56
623.312	1033.24
623.511	1101.63
623.71	1042.73
623.909	1014.64
624.107	1141.74
624.306	1035.18
624.505	1055.71
624.704	1047.19
624.902	1048.16
625.101	1095.82
625.3	1069.08
625.499	1028.2
625.697	1013.48
625.896	997.39
626.095	1059.2
626.293	977.05
626.492	995.84
626.69	1018.13
626.889	1022
627.088	1060.75
627.286	1018.13
627.485	1011.73
627.683	1008.24
627.882	1043.89
628.08	901.88
628.279	992.36
628.477	1034.01
628.676	928.23
628.874	1005.53
629.073	954.77
629.271	960.39
629.469	1007.28
629.668	960
629.866	993.33
630.065	971.63
630.263	986.93
630.461	909.43
630.66	986.16
630.858	999.33
631.056	1019.09
631.254	1017.93
631.453	942.95
631.651	1020.64
631.849	972.4
632.047	984.03
632.245	981.7
632.444	1027.04
632.642	1012.51
632.84	1009.6
633.038	968.33
633.236	973.37
633.434	976.28
633.632	972.98
633.83	964.65
634.028	992.16
634.227	961.75
634.425	1049.71
634.623	1001.85
634.821	1008.44
635.019	1008.05
635.216	981.89
635.414	1024.52
635.612	1015.61
635.81	984.8
636.008	1055.13
636.206	975.89
636.404	1033.43
636.602	968.14
636.8	1005.92
636.997	1049.9
637.195	1020.26
637.393	981.31
637.591	1077.61
637.789	998.17
637.986	957.87
638.184	1001.85
638.382	1036.14
638.58	1017.54
638.777	1049.9
638.975	985.38
639.173	970.85
639.37	981.7
639.568	973.18
639.765	1028.98
639.963	951.86
640.161	1049.51
640.358	985.38
640.556	940.63
640.753	961.16
640.951	941.01
641.148	984.8
641.346	950.31
641.543	927.06
641.741	994.1
641.938	948.76
642.136	946.25
642.333	944.5
642.531	991.39
642.728	1021.03
642.925	949.73
643.123	931.91
643.32	951.67
643.517	946.83
643.715	968.72
643.912	921.64
644.109	970.27
644.306	966.4
644.504	901.68
644.701	939.85
644.898	934.23
645.095	881.53
645.293	934.81
645.49	923.77
645.687	934.23
645.884	981.51
646.081	857.12
646.278	886.18
646.475	893.74
646.672	879.21
646.87	904.01
647.067	905.17
647.264	886.38
647.461	871.65
647.658	879.98
647.855	890.64
648.052	849.37
648.249	784.85
648.446	853.05
648.642	847.43
648.839	856.54
649.036	853.83
649.233	800.55
649.43	798.61
649.627	801.32
649.824	820.31
650.021	811.78
650.217	822.44
650.414	831.93
650.611	858.28
650.808	849.18
651.004	881.15
651.201	853.25
651.398	899.55
651.595	834.84
651.791	787.95
651.988	840.85
652.185	821.08
652.381	840.65
652.578	772.45
652.775	837.75
652.971	810.62
653.168	796.67
653.364	864.87
653.561	782.34
653.757	831.35
653.954	817.4
654.15	799
654.347	874.56
654.543	848.4
654.74	792.8
654.936	791.25
655.133	827.28
655.329	814.11
655.525	779.24
655.722	812.56
655.918	753.08
656.115	801.9
656.311	707.35
656.507	663.57
656.704	634.7
656.9	683.33
657.096	694.76
657.292	710.07
657.489	757.73
657.685	759.47
657.881	742.81
658.077	766.64
658.273	742.23
658.47	833.48
658.666	767.03
658.862	809.85
659.058	782.72
659.254	804.81
659.45	736.03
659.646	780.4
659.842	787.76
660.038	802.1
660.234	774
660.43	779.04
660.626	815.85
660.822	805.97
661.018	807.33
661.214	799.77
661.41	748.82
661.606	822.05
661.802	823.8
661.998	769.16
662.194	751.92
662.39	795.9
662.586	813.92
662.781	819.53
662.977	791.25
663.173	792.22
663.369	774.2
663.564	773.62
663.76	810.04
663.956	763.74
664.152	793.19
664.347	715.88
664.543	783.69
664.739	762.38
664.934	728.28
665.13	714.33
665.326	783.5
665.521	771.68
665.717	709.68
665.912	693.21
666.108	671.12
666.304	712
666.499	740.49
666.695	659.89
666.89	727.5
667.086	761.22
667.281	757.15
667.477	797.45
667.672	750.17
667.867	732.54
668.063	738.16
668.258	704.06
668.454	717.43
668.649	785.44
668.844	709.68
669.04	766.64
669.235	706
669.43	725.76
669.626	683.72
669.821	706.39
670.016	683.91
670.211	705.61
670.407	685.66
670.602	718.79
670.797	680.81
670.992	757.54
671.187	681.2
671.382	734.87
671.578	688.95
671.773	718.59
671.968	667.44
672.163	700.77
672.358	719.17
672.553	650.97
672.748	687.01
672.943	732.74
673.138	694.57
673.333	727.7
673.528	658.72
673.723	711.23
673.918	683.91
674.113	662.21
674.308	733.9
674.503	732.93
674.698	756.18
674.892	712.2
675.087	720.34
675.282	696.89
675.477	674.61
675.672	715.1
675.867	667.25
676.061	658.92
676.256	655.62
676.451	683.72
676.646	705.81
676.84	665.51
677.035	632.57
677.23	656.01
677.424	716.65
677.619	721.5
677.814	694.76
678.008	713.36
678.203	656.01
678.397	673.45
678.592	680.23
678.787	732.15
678.981	672.09
679.176	687.4
679.37	668.22
679.565	643.22
679.759	636.25
679.954	683.72
680.148	752.69
680.342	703.87
680.537	716.27
680.731	670.54
680.926	691.27
681.12	705.81
681.314	654.85
681.509	629.86
681.703	655.62
681.897	692.24
682.092	673.06
682.286	675.97
682.48	747.46
682.674	703.29
682.869	649.23
683.063	673.64
683.257	743
683.451	639.54
683.645	689.72
683.839	664.34
684.034	669.96
684.228	698.25
684.422	635.67
684.616	652.33
684.81	683.14
685.004	675
685.198	685.66
685.392	693.99
685.586	625.21
685.78	683.33
685.974	713.17
686.168	681.01
686.362	741.45
686.556	633.34
686.75	600.79
686.944	626.56
687.138	607.96
687.331	522.52
687.525	545.38
687.719	464.98
687.913	537.24
688.107	550.23
688.301	522.52
688.494	571.93
688.688	523.49
688.882	496.56
689.076	511.09
689.269	520.2
689.463	628.89
689.657	535.89
689.85	559.33
690.044	583.94
690.238	551.97
690.431	558.75
690.625	571.54
690.818	637.41
691.012	607.58
691.205	602.73
691.399	587.23
691.593	630.82
691.786	694.18
691.98	696.7
692.173	730.02
692.366	703.09
692.56	695.34
692.753	753.08
692.947	654.07
693.14	721.11
693.333	764.51
693.527	691.86
693.72	729.83
693.914	712.97
694.107	707.94
694.3	724.99
694.493	714.33
694.687	791.44
694.88	712.97
695.073	798.03
695.266	771.87
695.46	742.23
695.653	848.4
695.846	792.41
696.039	767.22
696.232	780.2
696.425	831.93
696.618	859.45
696.812	837.17
697.005	909.24
697.198	951.09
697.391	899.94
697.584	943.73
697.777	983.25
697.97	972.79
698.163	997.39
698.356	958.84
698.549	1038.28
698.742	1033.24
698.935	955.74
699.127	1022.58
699.32	966.78
699.513	978.6
699.706	1039.83
699.899	1030.72
700.092	1021.03
700.285	1056.1
700.477	973.37
700.67	1040.41
700.863	1059.39
701.056	1147.74
701.248	1112.29
701.441	1133.6
701.634	1084.58
701.826	1174.09
702.019	1093.49
702.212	1151.23
702.404	1125.07
702.597	1105.12
702.79	1143.87
702.982	1193.66
703.175	1226.4
703.367	1230.09
703.56	1218.07
703.752	1329.09
703.945	1252.95
704.137	1315.92
704.33	1337.81
704.522	1313.2
704.715	1337.61
704.907	1361.25
705.1	1384.7
705.292	1419.38
705.484	1349.82
705.677	1392.06
705.869	1399.61
706.061	1453.67
706.254	1506.37
706.446	1443.79
706.638	1445.92
706.831	1550.35
707.023	1454.64
707.215	1594.14
707.407	1576.31
707.599	1543.57
707.792	1611.19
707.984	1561.59
708.176	1619.71
708.368	1576.51
708.56	1616.8
708.752	1626.88
708.944	1646.84
709.136	1652.84
709.329	1616.8
709.521	1774.32
709.713	1712.13
709.905	1738.67
710.097	1770.45
710.289	1756.11
710.481	1734.02
710.672	1739.83
710.864	1775.1
711.056	1841.94
711.248	1826.25
711.44	1841.94
711.632	1832.06
711.824	1842.33
712.016	1885.53
712.207	1944.04
712.399	1841.16
712.591	1967.1
712.783	1923.31
712.975	1928.35
713.166	1904.33
713.358	1889.79
713.55	1963.81
713.741	1969.62
713.933	1983.18
714.125	1959.74
714.316	1985.12
714.508	2013.99
714.7	2033.94
714.891	2028.9
715.083	2097.1
715.274	2054.29
715.466	2093.62
715.657	2107.76
715.849	1988.02
716.04	2067.46
716.232	1997.32
716.423	2076.57
716.615	1978.14
716.806	1943.85
716.998	1920.6
717.189	1808.42
717.381	1718.13
717.572	1745.07
717.763	1752.82
717.955	1725.69
718.146	1687.13
718.337	1662.92
718.528	1613.51
718.72	1545.12
718.911	1618.35
719.102	1625.91
719.293	1656.33
719.485	1602.47
719.676	1596.46
719.867	1536.21
720.058	1562.75
720.249	1615.64
720.44	1603.05
720.632	1622.23
720.823	1722.2
721.014	1829.35
721.205	1799.7
721.396	1895.22
721.587	2009.72
721.778	2032.78
721.969	2039.17
722.16	2119
722.351	2117.45
722.542	2253.65
722.733	2240.28
722.924	2134.11
723.115	2219.55
723.305	2163.37
723.496	2189.72
723.687	2029.68
723.878	2087.03
724.069	2096.72
724.26	2101.17
724.45	2016.7
724.641	2048.09
724.832	2048.09
725.023	2041.69
725.213	2016.12
725.404	1984.73
725.595	2029.49
725.785	1985.31
725.976	2068.62
726.167	2070.17
726.357	2062.23
726.548	2177.51
726.739	2096.91
726.929	2152.13
727.12	2189.33
727.31	2189.33
727.501	2146.9
727.691	2110.86
727.882	2124.23
728.072	2196.3
728.263	2189.72
728.453	2263.15
728.644	2236.41
728.834	2205.8
729.024	2164.14
729.215	2164.72
729.405	2214.32
729.596	2305.77
729.786	2305.77
729.976	2280.19
730.167	2304.61
730.357	2243.96
730.547	2298.79
730.737	2286.59
730.928	2343.94
731.118	2390.44
731.308	2335.22
731.498	2353.43
731.688	2449.53
731.879	2453.02
732.069	2497.77
732.259	2494.48
732.449	2530.9
732.639	2605.3
732.829	2640.18
733.019	2674.28
733.209	2723.1
733.399	2733.37
733.589	2771.34
733.779	2805.25
733.969	2786.07
734.159	2878.29
734.349	2887.98
734.539	2904.06
734.729	2887.98
734.919	2978.46
735.109	3009.65
735.299	2946.69
735.488	2959.09
735.678	2973.04
735.868	2999.38
736.058	2959.28
736.248	2956.37
736.437	2899.6
736.627	2898.83
736.817	3005.58
737.007	3011.2
737.196	3002.29
737.386	2972.45
737.576	2976.14
737.765	3072.23
737.955	2999.19
738.144	3117.76
738.334	3089.48
738.524	2998.22
738.713	3058.67
738.903	3061.19
739.092	3094.71
739.282	3063.71
739.471	3122.61
739.661	3078.24
739.85	3135.78
740.04	3098.39
740.229	3107.88
740.419	3156.51
740.608	3202.82
740.797	3135.2
740.987	3223.55
741.176	3231.3
741.365	3178.21
741.555	3170.27
741.744	3212.89
741.933	3171.82
742.123	3221.23
742.312	3240.02
742.501	3276.06
742.69	3253.97
742.88	3172.98
743.069	3304.54
743.258	3240.99
743.447	3317.32
743.636	3278.38
743.825	3231.11
744.014	3286.32
744.204	3302.79
744.393	3176.47
744.582	3329.92
744.771	3377.19
744.96	3266.76
745.149	3268.89
745.338	3253.58
745.527	3316.94
745.716	3245.06
745.905	3248.16
746.094	3330.3
746.283	3312.09
746.471	3309.57
746.66	3358.4
746.849	3361.3
747.038	3361.11
747.227	3343.87
747.416	3345.42
747.604	3272.18
747.793	3290.39
747.982	3339.99
748.171	3343.67
748.359	3352.2
748.548	3324.3
748.737	3328.37
748.926	3290.59
749.114	3200.3
749.303	3313.64
749.491	3252.61
749.68	3233.04
749.869	3345.42
750.057	3266.95
750.246	3321.01
750.434	3285.16
750.623	3224.13
750.811	3208.63
751	3308.8
751.188	3268.11
751.377	3225.29
751.565	3253
751.754	3198.94
751.942	3194.49
752.131	3316.94
752.319	3215.99
752.507	3171.04
752.696	3244.67
752.884	3251.26
753.072	3244.47
753.261	3211.15
753.449	3244.86
753.637	3231.3
753.825	3294.66
754.014	3235.56
754.202	3210.76
754.39	3247.19
754.578	3237.69
754.766	3148.57
754.955	3189.06
755.143	3266.56
755.331	3184.99
755.519	3197.98
755.707	3192.94
755.895	3162.91
756.083	3195.07
756.271	3156.13
756.459	3134.81
756.647	3190.81
756.835	3168.33
757.023	3156.13
757.211	3153.61
757.399	3112.53
757.587	3159.42
757.775	3069.33
757.963	3105.95
758.151	3114.28
758.339	3047.24
758.526	3012.95
758.714	3083.08
758.902	2966.06
759.09	2888.76
759.278	2751.39
759.465	2506.3
759.653	2192.04
759.841	1946.37
760.028	1660.01
760.216	1457.16
760.404	1415.11
760.591	1137.47
760.779	945.86
760.967	833.68
761.154	659.11
761.342	726.54
761.529	725.76
761.717	764.7
761.905	771.68
762.092	820.31
762.28	766.64
762.467	799
762.655	739.71
762.842	750.37
763.029	747.65
763.217	732.15
763.404	745.91
763.592	791.05
763.779	751.34
763.966	797.25
764.154	850.92
764.341	897.23
764.528	888.9
764.716	937.91
764.903	1030.91
765.09	1061.14
765.277	1103.37
765.465	1250.04
765.652	1281.23
765.839	1386.25
766.026	1493.58
766.213	1550.74
766.4	1635.6
766.588	1809.39
766.775	1802.22
766.962	1898.71
767.149	1966.32
767.336	2122.48
767.523	2078.7
767.71	2230.79
767.897	2349.94
768.084	2359.63
768.271	2362.34
768.458	2418.53
768.645	2513.08
768.832	2509.59
769.019	2508.62
769.206	2594.84
769.392	2646.18
769.579	2732.01
769.766	2670.98
769.953	2637.66
770.14	2680.86
770.327	2683.58
770.513	2718.06
770.7	2812.81
770.887	2728.33
771.073	2755.07
771.26	2749.64
771.447	2735.89
771.634	2756.81
771.82	2817.65
772.007	2717.09
772.193	2749.26
772.38	2821.91
772.567	2745.38
772.753	2777.16
772.94	2831.41
773.126	2817.26
773.313	2796.14
773.499	2789.75
773.686	2815.71
773.872	2772.31
774.059	2780.26
774.245	2745.38
774.432	2735.89
774.618	2638.63
774.804	2707.99
774.991	2695.2
775.177	2716.9
775.363	2676.02
775.55	2749.84
775.736	2676.6
775.922	2723.1
776.109	2737.44
776.295	2754.88
776.481	2724.46
776.667	2757.39
776.853	2687.26
777.04	2638.63
777.226	2685.51
777.412	2771.34
777.598	2649.09
777.784	2639.98
777.97	2654.9
778.156	2647.15
778.342	2652.96
778.528	2639.6
778.715	2612.28
778.901	2619.64
779.087	2629.91
779.272	2623.32
779.458	2590.19
779.644	2645.41
779.83	2569.46
780.016	2675.44
780.202	2598.91
780.388	2575.66
780.574	2563.45
780.76	2580.89
780.946	2593.68
781.131	2579.73
781.317	2557.64
781.503	2554.73
781.689	2572.95
781.874	2679.7
782.06	2526.25
782.246	2569.85
782.432	2530.9
782.617	2564.62
782.803	2596.58
782.989	2467.55
783.174	2537.3
783.36	2495.25
783.545	2510.95
783.731	2514.05
783.916	2434.61
784.102	2477.62
784.288	2466.77
784.473	2443.52
784.659	2435
784.844	2504.17
785.029	2436.36
785.215	2521.8
785.4	2396.64
785.586	2511.92
785.771	2412.33
785.956	2456.31
786.142	2395.67
786.327	2389.66
786.512	2385.4
786.698	2421.82
786.883	2355.95
787.068	2388.69
787.254	2380.17
787.439	2353.43
787.624	2381.14
787.809	2355.56
787.994	2352.66
788.18	2393.54
788.365	2286.59
788.55	2296.66
788.735	2303.64
788.92	2306.54
789.105	2328.63
789.29	2309.06
789.475	2257.72
789.66	2283.49
789.845	2245.71
790.03	2219.94
790.215	2264.5
790.4	2269.73
790.585	2330.38
790.77	2237.57
790.955	2197.85
791.14	2237.57
791.325	2308.09
791.51	2141.86
791.695	2243
791.879	2210.06
792.064	2144.38
792.249	2297.44
792.434	2214.9
792.618	2219.36
792.803	2249.39
792.988	2219.36
793.173	2177.12
793.357	2252.1
793.542	2184.68
793.727	2231.76
793.911	2208.51
794.096	2199.98
794.281	2247.84
794.465	2290.85
794.65	2205.99
794.834	2242.61
795.019	2248.03
795.203	2282.91
795.388	2274.58
795.572	2303.06
795.757	2272.64
795.941	2262.18
796.126	2237.18
796.31	2184.87
796.494	2252.3
796.679	2198.82
796.863	2220.33
797.048	2284.84
797.232	2277.68
797.416	2241.64
797.601	2247.26
797.785	2329.99
797.969	2325.92
798.153	2229.05
798.338	2256.56
798.522	2302.28
798.706	2287.56
798.89	2305.77
799.074	2331.34
799.258	2343.36
799.443	2262.37
799.627	2278.06
799.811	2343.74
799.995	2257.53
800.179	2249.78
800.363	2253.85
800.547	2255.01
800.731	2283.1
800.915	2239.9
801.099	2235.83
801.283	2226.33
801.467	2258.3
801.651	2234.66
801.835	2313.71
802.019	2244.16
802.202	2273.03
802.386	2203.86
802.57	2197.08
802.754	2245.13
802.938	2180.8
803.121	2205.99
803.305	2293.18
803.489	2234.66
803.673	2247.26
803.856	2236.6
804.04	2217.81
804.224	2265.28
804.407	2235.44
804.591	2230.98
804.775	2269.15
804.958	2236.6
805.142	2365.06
805.326	2243
805.509	2268.57
805.693	2295.89
805.876	2353.43
806.06	2268.96
806.243	2274.19
806.427	2298.41
806.61	2318.94
806.794	2256.75
806.977	2311.19
807.16	2326.11
807.344	2289.3
807.527	2270.31
807.71	2261.21
807.894	2259.85
808.077	2297.24
808.26	2251.52
808.444	2213.35
808.627	2321.46
808.81	2249.39
808.993	2204.05
809.177	2219.94
809.36	2215.87
809.543	2224.01
809.726	2131.78
809.909	2141.28
810.092	2132.37
810.276	2113.38
810.459	2158.33
810.642	2128.49
810.825	2085.48
811.008	2100.98
811.191	2032.97
811.374	2022.32
811.557	2049.25
811.74	2112.8
811.923	2005.66
812.106	1995.39
812.289	1950.63
812.472	1987.06
812.654	2002.36
812.837	1926.41
813.02	1880.11
813.203	1892.89
813.386	1770.25
813.569	1779.16
813.751	1755.91
813.934	1753.59
814.117	1741.97
814.3	1687.72
814.482	1696.43
814.665	1655.75
814.848	1587.94
815.03	1572.82
815.213	1578.44
815.396	1527.87
815.578	1530.78
815.761	1473.24
815.943	1556.94
816.126	1422.86
816.309	1443.21
816.491	1364.74
816.674	1358.15
816.856	1416.86
817.039	1356.21
817.221	1470.72
817.403	1413.18
817.586	1425.38
817.768	1428.87
817.951	1344.59
818.133	1320.18
818.315	1393.41
818.498	1428.87
818.68	1501.72
818.862	1462.58
819.045	1477.11
819.227	1413.76
819.409	1409.69
819.591	1446.69
819.774	1406.39
819.956	1360.48
820.138	1474.21
820.32	1439.72
820.502	1517.41
820.684	1577.47
820.866	1555
821.048	1632.89
821.231	1619.13
821.413	1634.24
821.595	1566.82
821.777	1620.1
821.959	1599.17
822.141	1654
822.323	1550.93
822.505	1454.06
822.686	1412.98
822.868	1347.5
823.05	1291.31
823.232	1255.85
823.414	1194.05
823.596	1280.85
823.778	1227.57
823.96	1279.88
824.141	1286.08
824.323	1323.28
824.505	1398.06
824.687	1418.79
824.868	1471.88
825.05	1565.07
825.232	1547.06
825.413	1642.38
825.595	1588.52
825.777	1521.87
825.958	1556.36
826.14	1530.2
826.321	1574.18
826.503	1543.57
826.685	1581.74
826.866	1606.54
827.048	1586.39
827.229	1506.37
827.411	1521.29
827.592	1466.65
827.773	1456.19
827.955	1412.21
828.136	1409.88
828.318	1384.89
828.499	1414.73
828.68	1373.46
828.862	1380.43
829.043	1427.9
829.224	1384.89
829.406	1379.85
829.587	1380.05
829.768	1381.4
829.949	1419.38
830.131	1411.82
830.312	1465.49
830.493	1418.6
830.674	1417.44
830.855	1398.26
831.036	1358.73
831.218	1449.41
831.399	1477.11
831.58	1443.4
831.761	1437.78
831.942	1458.71
832.123	1390.9
832.304	1374.43
832.485	1371.52
832.666	1363.58
832.847	1427.71
833.028	1415.89
833.209	1406.78
833.389	1376.17
833.57	1352.92
833.751	1399.61
833.932	1419.76
834.113	1396.9
834.294	1375.2
834.475	1434.88
834.655	1433.52
834.836	1452.89
835.017	1438.56
835.198	1377.33
835.378	1401.75
835.559	1461.03
835.74	1416.28
835.92	1413.76
836.101	1378.88
836.281	1431.58
836.462	1439.53
836.643	1456.77
836.823	1522.26
837.004	1467.23
837.184	1512.57
837.365	1482.15
837.545	1460.64
837.726	1435.07
837.906	1517.99
838.087	1473.43
838.267	1491.84
838.448	1391.09
838.628	1464.13
838.808	1467.62
838.989	1529.62
839.169	1415.11
839.349	1476.34
839.53	1500.75
839.71	1517.99
839.89	1440.3
840.07	1530.97
840.251	1442.04
840.431	1511.02
840.611	1453.48
840.791	1454.64
840.971	1490.09
841.151	1462
841.332	1449.02
841.512	1479.05
841.692	1392.64
841.872	1502.88
842.052	1442.63
842.232	1462.58
842.412	1390.9
842.592	1439.53
842.772	1464.52
842.952	1433.52
843.132	1426.16
843.312	1377.72
843.492	1398.26
843.672	1462.58
843.851	1353.89
844.031	1414.73
844.211	1415.5
844.391	1397.87
844.571	1415.5
844.751	1427.32
844.93	1409.3
845.11	1402.33
845.29	1394.77
845.47	1413.76
845.649	1422.86
845.829	1419.38
846.009	1367.84
846.188	1435.46
846.368	1417.83
846.547	1405.43
846.727	1433.71
846.907	1363.96
847.086	1428.09
847.266	1422.86
847.445	1410.46
847.625	1404.65
847.804	1367.26
847.984	1416.86
848.163	1340.13
848.343	1355.25
848.522	1370.16
848.701	1396.71
848.881	1323.86
849.06	1368.23
849.239	1413.18
849.419	1384.7
849.598	1327.15
849.777	1299.45
849.957	1314.56
850.136	1265.35
850.315	1195.79
850.494	1247.72
850.674	1271.16
850.853	1312.43
851.032	1279.68
851.211	1338.39
851.39	1274.84
851.569	1240.93
851.748	1218.85
851.927	1281.23
852.107	1285.88
852.286	1242.68
852.465	1240.93
852.644	1295.38
852.823	1297.7
853.002	1275.62
853.181	1244.81
853.359	1267.87
853.538	1200.44
853.717	1298.67
853.896	1169.44
854.075	1138.25
854.254	1128.56
854.433	1032.46
854.611	1108.22
854.79	1064.04
854.969	1118.49
855.148	1147.94
855.327	1088.84
855.505	1146.19
855.684	1141.35
855.863	1164.6
856.041	1096.21
856.22	1168.09
856.399	1147.35
856.577	1249.85
856.756	1203.93
856.934	1304.1
857.113	1289.37
857.291	1223.3
857.47	1174.87
857.648	1237.25
857.827	1211.29
858.005	1259.92
858.184	1196.95
858.362	1285.11
858.541	1222.72
858.719	1214.59
858.898	1220.98
859.076	1182.04
859.254	1250.43
859.433	1236.28
859.611	1186.1
859.789	1144.84
859.967	1246.94
860.146	1246.94
860.324	1146.39
860.502	1188.24
860.68	1147.55
860.859	1175.45
861.037	1174.48
861.215	1176.42
861.393	1176.22
861.571	1179.32
861.749	1173.32
861.927	1182.42
862.105	1166.73
862.283	1143.67
862.461	1115.58
862.639	1082.45
862.817	1106.47
862.995	1159.75
863.173	1152.2
863.351	1144.45
863.529	1152.2
863.707	1181.65
863.885	1156.07
864.063	1087.68
864.241	1110.93
864.418	1189.79
864.596	1116.55
864.774	1069.08
864.952	1111.9
865.129	1124.3
865.307	1065.21
865.485	1025.49
865.663	1118.68
865.84	1063.66
866.018	1085.55
866.196	934.81
866.373	978.21
866.551	955.35
866.728	901.3
866.906	950.12
867.084	986.54
867.261	1027.23
867.439	1011.15
867.616	1039.24
867.794	1028.01
867.971	1024.71
868.149	1017.35
868.326	1098.14
868.503	1059.97
868.681	1053.97
868.858	1032.27
869.035	992.74
869.213	1040.79
869.39	1061.33
869.567	1089.81
869.745	1011.73
869.922	1048.54
870.099	1085.55
870.276	1051.06
870.454	1068.31
870.631	1027.81
870.808	1015.41
870.985	1050.68
871.162	1117.13
871.339	1047.58
871.517	991.97
871.694	972.21
871.871	1041.18
872.048	1013.48
872.225	995.46
872.402	1029.17
872.579	971.63
872.756	1005.92
872.933	981.31
873.11	993.91
873.287	1014.44
873.463	1001.46
873.64	986.93
873.817	1008.24
873.994	983.06
874.171	961.55
874.348	974.92
874.524	927.65
874.701	999.72
874.878	934.04
875.055	985.96
875.231	976.86
875.408	992.55
875.585	910.6
875.762	947.99
875.938	922.41
876.115	943.92
876.291	928.42
876.468	937.72
876.645	892.77
876.821	931.71
876.998	918.15
877.174	936.56
877.351	921.06
877.527	894.32
877.704	935.01
877.88	941.79
878.057	916.99
878.233	972.21
878.409	900.13
878.586	933.26
878.762	895.68
878.938	904.2
879.115	865.26
879.291	920.67
879.467	825.54
879.644	890.25
879.82	907.11
879.996	859.06
880.172	844.14
880.349	881.34
880.525	898.2
880.701	862.74
880.877	869.33
881.053	866.03
881.229	866.62
881.405	915.44
881.581	842.4
881.757	848.79
881.933	903.81
882.109	892.38
882.285	888.7
882.461	799.77
882.637	856.15
882.813	844.53
882.989	859.25
883.165	893.35
883.341	850.53
883.517	913.11
883.693	868.75
883.869	880.18
884.044	835.81
884.22	884.83
884.396	903.23
884.572	870.3
884.747	890.83
884.923	869.13
885.099	877.27
885.275	914.47
885.45	856.35
885.626	842.78
885.801	824.18
885.977	851.7
886.153	811.4
886.328	866.23
886.504	826.7
886.679	869.91
886.855	866.23
887.03	905.56
887.206	904.98
887.381	863.32
887.557	858.87
887.732	879.4
887.908	868.17
888.083	906.91
888.258	862.35
888.434	825.73
888.609	849.95
888.784	911.76
888.96	859.45
889.135	819.15
889.31	842.4
889.485	852.47
889.661	819.53
889.836	859.06
890.011	861.38
890.186	837.94
890.361	850.34
890.537	881.92
890.712	860.22
890.887	870.49
891.062	857.7
891.237	916.6
891.412	820.12
891.587	842.01
891.762	908.46
891.937	869.91
892.112	817.21
892.287	842.59
892.462	788.15
892.637	790.67
892.812	804.81
892.987	765.87
893.161	785.82
893.336	778.07
893.511	774.59
893.686	787.37
893.861	791.25
894.035	772.45
894.21	777.88
894.385	724.6
894.56	770.13
894.734	726.92
894.909	709.68
895.084	703.87
895.258	686.24
895.433	736.03
895.608	706.39
895.782	644.58
895.957	657.95
896.131	652.14
896.306	587.43
896.48	608.93
896.655	629.08
896.829	557.39
897.004	558.56
897.178	569.21
897.353	574.06
897.527	618.81
897.701	561.85
897.876	530.66
898.05	605.06
898.224	597.5
898.399	628.89
898.573	548.87
898.747	456.26
898.921	519.61
899.096	439.79
899.27	467.69
899.444	461.3
899.618	494.62
899.792	480.67
899.967	500.24
900.141	534.92
900.315	477.96
900.489	495.01
900.663	536.08
900.837	502.56
901.011	450.06
901.185	574.25
901.359	484.93
901.533	544.03
901.707	504.5
901.881	506.63
902.055	456.06
902.229	467.11
902.403	538.99
902.576	481.06
902.75	522.33
902.924	612.42
903.098	553.13
903.272	604.28
903.446	595.37
903.619	589.17
903.793	613.58
903.967	589.75
904.14	666.09
904.314	625.59
904.488	623.46
904.661	670.54
904.835	636.25
905.009	667.06
905.182	673.64
905.356	648.07
905.529	647.87
905.703	587.43
905.876	604.09
906.05	569.79
906.223	569.02
906.397	536.86
906.57	535.69
906.744	463.62
906.917	486.68
907.09	494.23
907.264	499.85
907.437	475.44
907.61	452.96
907.784	462.46
907.957	481.06
908.13	431.65
908.304	478.93
908.477	454.71
908.65	451.61
908.823	416.73
908.996	522.33
909.17	441.53
909.343	437.66
909.516	460.91
909.689	416.35
909.862	441.53
910.035	451.61
910.208	413.63
910.381	431.65
910.554	512.25
910.727	433.4
910.9	407.24
911.073	415.18
911.246	502.95
911.419	498.11
911.592	479.51
911.765	430.3
911.938	411.12
912.11	419.45
912.283	426.23
912.456	473.31
912.629	446.57
912.802	403.56
912.974	386.7
913.147	334.78
913.32	315.99
913.493	347.57
913.665	382.83
913.838	396
914.01	353.38
914.183	386.9
914.356	390.77
914.528	405.3
914.701	468.08
914.873	423.71
915.046	358.61
915.218	363.65
915.391	282.47
915.563	313.27
915.736	351.64
915.908	397.94
916.081	381.08
916.253	379.15
916.425	383.99
916.598	411.31
916.77	372.17
916.942	348.92
917.115	307.27
917.287	383.22
917.459	345.63
917.632	328
917.804	282.85
917.976	364.03
918.148	354.35
918.32	354.54
918.493	362.48
918.665	408.02
918.837	390
919.009	424.1
919.181	416.73
919.353	391.35
919.525	380.12
919.697	377.79
919.869	382.05
920.041	432.82
920.213	499.85
920.385	434.37
920.557	373.53
920.729	416.73
920.901	417.9
921.073	416.73
921.244	395.81
921.416	435.33
921.588	399.88
921.76	408.98
921.932	455.29
922.103	402.2
922.275	423.9
922.447	403.95
922.619	349.31
922.79	358.8
922.962	375.66
923.134	405.11
923.305	339.62
923.477	313.27
923.648	348.73
923.82	340.98
923.991	294.87
924.163	313.47
924.335	314.24
924.506	307.46
924.677	369.46
924.849	297
925.02	331.68
925.192	357.64
925.363	341.95
925.535	326.25
925.706	349.7
925.877	372.75
926.049	322.96
926.22	352.41
926.391	359.38
926.562	360.35
926.734	306.49
926.905	328.58
927.076	293.51
927.247	297.97
927.419	261.74
927.59	285.37
927.761	291.19
927.932	272.78
928.103	278.2
928.274	230.35
928.445	211.36
928.616	257.47
928.787	238.49
928.958	296.61
929.129	249.53
929.3	235.58
929.471	179.98
929.642	147.43
929.813	123.4
929.984	213.11
930.155	124.18
930.326	197.02
930.496	166.41
930.667	100.93
930.838	147.43
931.009	105.77
931.18	117.98
931.35	108.87
931.521	136.96
931.692	83.1
931.863	54.81
932.033	132.89
932.204	105.58
932.374	119.53
932.545	70.12
932.716	123.59
932.886	108.68
933.057	5.22
933.227	28.66
933.398	122.63
933.568	49
933.739	9.48
933.909	10.83
934.08	82.91
934.25	23.04
934.421	-1.18
934.591	63.53
934.761	5.6
934.932	-13.19
935.102	55.2
935.272	27.69
935.443	21.68
935.613	14.13
935.783	38.15
935.953	12.38
936.123	172.42
936.294	11.61
936.464	-5.25
936.634	-3.5
936.804	19.55
936.974	-17.45
937.144	55.01
937.314	29.05
937.484	23.81
937.655	2.5
937.825	72.64
937.995	14.71
938.165	53.85
938.334	18.97
938.504	51.52
938.674	35.25
938.844	55.59
939.014	96.47
939.184	80.2
939.354	140.64
939.524	93.76
939.694	70.12
939.863	65.66
940.033	119.91
940.203	138.9
940.373	71.67
940.542	97.05
940.712	71.09
940.882	92.21
941.051	116.04
941.221	100.93
941.391	130.76
941.56	56.75
941.73	76.9
941.899	177.65
942.069	90.46
942.238	93.76
942.408	59.27
942.577	106.35
942.747	82.13
942.916	36.41
943.086	40.48
943.255	107.32
943.425	72.06
943.594	55.2
943.763	-12.61
943.933	46.29
944.102	-33.53
944.271	49.2
944.441	83.68
944.61	14.71
944.779	48.81
944.948	137.54
945.117	19.55
945.287	55.4
945.456	9.67
945.625	17.81
945.794	53.07
945.963	35.05
946.132	73.03
946.301	32.92
946.47	73.22
946.639	-5.44
946.808	30.98
946.977	71.67
947.146	81.75
947.315	37.96
947.484	68.76
947.653	50.55
947.822	20.91
947.991	23.43
948.16	129.6
948.329	79.61
948.498	29.82
948.666	48.03
948.835	73.03
949.004	29.82
949.173	3.47
949.341	69.54
949.51	53.85
949.679	77.29
949.847	73.8
950.016	112.36
950.185	105.58
950.353	7.15
950.522	39.51
950.69	71.67
950.859	36.8
951.028	73.22
951.196	80.78
951.365	45.13
951.533	46.48
951.701	85.23
951.87	74.38
952.038	29.24
952.207	49
952.375	129.6
952.543	47.26
952.712	40.28
952.88	30.98
953.048	100.73
953.217	43.77
953.385	47.84
953.553	86.01
953.721	37.57
953.89	62.37
954.058	15.48
954.226	8.9
954.394	75.35
954.562	-20.75
954.73	69.73
954.898	53.26
955.067	76.13
955.235	48.03
955.403	69.15
955.571	114.1
955.739	66.83
955.907	23.81
956.075	37.76
956.243	32.73
956.41	60.24
956.578	7.54
956.746	-5.05
956.914	35.63
957.082	77.29
957.25	64.31
957.418	25.95
957.585	67.21
957.753	78.65
957.921	29.82
958.089	67.21
958.256	80.39
958.424	72.06
958.592	66.63
958.759	27.88
958.927	65.08
959.095	20.52
959.262	27.5
959.43	67.99
959.597	28.66
959.765	35.25
959.932	22.07
960.1	55.4
960.267	45.71
960.435	43.58
960.602	68.38
960.77	51.52
960.937	18.2
961.104	46.87
961.272	12.77
961.439	23.23
961.606	73.61
961.774	77.1
961.941	43.19
962.108	74.77
962.275	47.45
962.443	74.19
962.61	71.28
962.777	127.47
962.944	92.21
963.111	54.43
963.278	76.32
963.446	65.08
963.613	43.96
963.78	113.13
963.947	87.95
964.114	66.83
964.281	153.24
964.448	73.22
964.615	49.78
964.782	85.04
964.949	99.96
965.116	76.32
965.282	122.82
965.449	70.51
965.616	38.93
965.783	65.47
965.95	76.9
966.117	16.65
966.283	41.06
966.45	78.84
966.617	81.16
966.784	121.08
966.95	110.42
967.117	107.71
967.284	44.93
967.45	38.35
967.617	133.67
967.784	103.06
967.95	112.94
968.117	75.16
968.283	138.32
968.45	155.37
968.616	76.32
968.783	98.99
968.949	91.63
969.116	112.36
969.282	75.74
969.449	82.91
969.615	65.28
969.781	38.54
969.948	54.23
970.114	41.06
970.28	128.83
970.447	85.81
970.613	128.44
970.779	78.84
970.945	92.4
971.112	106.16
971.278	68.57
971.444	87.95
971.61	100.15
971.776	76.32
971.942	95.31
972.108	112.94
972.275	69.35
972.441	109.06
972.607	176.88
972.773	34.08
972.939	104.22
973.105	95.5
973.271	25.75
973.437	74.38
973.602	43.77
973.768	92.01
973.934	58.11
974.1	80
974.266	-7.96
974.432	84.85
974.598	34.08
974.763	123.79
974.929	55.98
975.095	122.63
975.261	56.36
975.426	55.01
975.592	74.38
975.758	156.14
975.923	33.31
976.089	49.39
976.255	110.03
976.42	82.91
976.586	88.91
976.751	77.87
976.917	150.14
977.082	90.27
977.248	52.49
977.413	20.52
977.579	41.83
977.744	68.76
977.91	51.91
978.075	48.42
978.24	76.51
978.406	63.53
978.571	64.11
978.736	51.71
978.902	80.2
979.067	43.96
979.232	-26.17
979.397	77.68
979.563	104.22
979.728	36.6
979.893	73.61
980.058	35.63
980.223	100.73
980.388	94.15
980.554	62.56
980.719	45.51
980.884	60.24
981.049	110.23
981.214	63.92
981.379	84.46
981.544	44.93
981.709	77.48
981.874	57.72
982.039	46.48
982.204	107.13
982.368	78.65
982.533	47.65
982.698	97.63
982.863	101.89
983.028	54.04
983.193	86.98
983.357	95.31
983.522	38.93
983.687	40.67
983.852	49
984.016	64.31
984.181	62.95
984.346	73.03
984.51	116.81
984.675	81.36
984.839	74.19
985.004	71.48
985.168	81.55
985.333	82.52
985.498	56.17
985.662	68.57
985.827	67.21
985.991	48.03
986.155	32.92
986.32	101.31
986.484	99.18
986.649	86.2
986.813	4.05
986.977	82.13
987.142	72.06
987.306	28.46
987.47	32.34
987.634	48.23
987.799	68.76
987.963	89.5
988.127	102.09
988.291	151.3
988.455	77.87
988.62	45.32
988.784	94.34
988.948	69.93
989.112	37.76
989.276	59.08
989.44	57.91
989.604	25.56
989.768	31.76
989.932	127.86
990.096	27.11
990.26	26.53
990.424	22.85
990.588	49.2
990.752	129.6
990.915	69.35
991.079	60.24
991.243	54.81
991.407	82.13
991.571	41.64
991.734	84.85
991.898	63.53
992.062	153.04
992.226	68.38
992.389	39.9
992.553	-13.38
992.717	19.94
992.88	60.43
993.044	67.8
993.207	53.65
993.371	90.08
993.535	57.53
993.698	96.86
993.862	81.16
994.025	84.46
994.189	75.16
994.352	63.53
994.515	70.9
994.679	121.08
994.842	52.68
995.006	88.33
995.169	25.56
995.332	31.18
995.496	60.82
995.659	14.51
995.822	57.14
995.985	37.96
996.149	83.49
996.312	63.15
996.475	126.31
996.638	19.94
996.801	127.86
996.964	125.34
997.128	52.88
997.291	40.86
997.454	49.2
997.617	2.89
997.78	112.36
997.943	35.44
998.106	91.43
998.269	28.08
998.432	38.73
998.595	50.75
998.758	9.09
998.92	19.55
999.083	-8.93
999.246	64.11
999.409	9.67
999.572	9.67
999.735	22.46
999.897	68.76
1000.06	20.91
1000.223	38.35
1000.386	59.27
1000.548	59.85
1000.711	58.11
1000.874	50.94
1001.036	10.25
1001.199	76.71
1001.361	23.04
1001.524	40.86
1001.687	72.25
1001.849	32.73
1002.012	25.36
1002.174	48.42
1002.337	64.31
1002.499	45.9
1002.661	76.32
1002.824	-15.13
1002.986	20.33
1003.149	56.17
1003.311	23.43
1003.473	116.04
1003.636	14.71
1003.798	59.66
1003.96	45.13
1004.123	53.65
1004.285	10.45
1004.447	39.7
1004.609	32.15
1004.771	91.82
1004.933	12
1005.096	20.91
1005.258	-3.31
1005.42	2.7
1005.582	56.56
1005.744	14.51
1005.906	7.93
1006.068	26.33
1006.23	9.67
1006.392	-22.1
1006.554	-4.28
1006.716	34.47
1006.878	59.85
1007.04	-19.78
1007.202	-16.29
1007.363	50.94
1007.525	44.55
1007.687	26.91
1007.849	63.15
1008.011	-19.78
1008.172	9.09
1008.334	29.82
1008.496	38.93
1008.658	-19.78
1008.819	2.5
1008.981	-15.9
1009.143	-1.18
1009.304	24.01
1009.466	24.59
1009.627	84.46
1009.789	104.41
1009.95	41.25
1010.112	28.27
1010.273	66.63
1010.435	4.83
1010.596	20.52
1010.758	17.81
1010.919	-0.4
1011.081	6.96
1011.242	31.56
1011.403	59.85
1011.565	30.6
1011.726	41.45
1011.887	-20.94
1012.049	4.05
1012.21	64.5
1012.371	86.59
1012.532	-19.2
1012.693	0.76
1012.855	48.23
1013.016	19.55
1013.177	62.76
1013.338	20.33
1013.499	111.58
1013.66	37.57
1013.821	36.6
1013.982	34.86
1014.143	32.53
1014.304	6.57
1014.465	38.54
1014.626	28.66
1014.787	35.05
1014.948	116.81
1015.109	-57.75
1015.27	81.16
1015.431	0.18
1015.592	1.73
1015.752	52.49
1015.913	41.25
1016.074	20.13
1016.235	19.55
1016.395	20.91
1016.556	43
1016.717	2.7
1016.877	58.11
1017.038	6.77
1017.199	24.78
1017.359	11.22
1017.52	53.46
1017.681	6.18
1017.841	22.65
1018.002	28.46
1018.162	23.62
1018.323	56.36
1018.483	-0.4
1018.644	-6.22
1018.804	-27.53
1018.964	-3.12
1019.125	6.77
1019.285	1.15
1019.446	-13.19
1019.606	-13.38
1019.766	-26.75
1019.926	45.9
1020.087	36.8
1020.247	-29.66
1020.407	44.16
1020.567	35.83
1020.728	1.15
1020.888	-28.69
1021.048	-6.41
1021.208	-42.25
1021.368	-6.41
1021.528	51.33
1021.688	36.41
1021.848	44.93
1022.008	4.44
1022.168	8.9
1022.328	1.73
1022.488	21.68
1022.648	-5.25
1022.808	20.13
1022.968	36.8
1023.128	0.37
1023.288	-2.34
1023.448	40.48
1023.608	24.98
1023.767	7.93
1023.927	0.57
1024.087	-6.02
1024.247	-37.41
1024.406	-3.12
1024.566	-17.84
1024.726	-2.73
1024.885	-3.31
1025.045	26.33
1025.205	10.83
1025.364	11.41
1025.524	15.87
1025.683	8.9
1025.843	13.35
1026.003	6.77
1026.162	60.24
1026.321	33.5
1026.481	12.38
1026.64	7.54
1026.8	20.13
1026.959	17.23
1027.119	13.74
1027.278	4.05
1027.437	1.92
1027.597	40.67
1027.756	8.9
1027.915	18.78
1028.074	21.1
1028.234	-4.08
1028.393	28.85
1028.552	-6.99
1028.711	-56.59
1028.87	44.55
1029.03	-24.43
1029.189	14.32
1029.348	-76.35
1029.507	-14.55
1029.666	-2.53
1029.825	-25.59
1029.984	-28.88
1030.143	21.3
1030.302	-10.67
1030.461	-46.71
1030.62	12.38
1030.779	24.98
1030.938	-9.51
1031.097	-13.38
1031.255	20.71
1031.414	65.28
1031.573	45.9
1031.732	-42.45
1031.891	-11.25
1032.049	55.59
1032.208	-0.21
1032.367	10.25
1032.525	-12.42
1032.684	-5.44
1032.843	-10.09
1033.001	-64.92
1033.16	119.14
1033.319	52.68
1033.477	25.56
1033.636	-17.65
1033.794	-33.53
1033.953	8.51
1034.111	49.97
1034.27	-21.72
1034.428	20.52
1034.587	-17.65
1034.745	9.67
1034.903	-5.05
1035.062	-1.95
1035.22	-58.14
1035.378	12.96
1035.537	-37.99
1035.695	41.06
1035.853	23.04
1036.011	36.21
1036.17	5.6
1036.328	-66.47
1036.486	16.45
1036.644	16.45
1036.802	-108.51
1036.96	-32.37
1037.119	-4.67
1037.277	-13
1037.435	-30.63
1037.593	-42.06
1037.751	20.71
1037.909	-3.89
1038.067	-3.89
