Data from pine_FLMT105791__45__17-20-19-079.txt Node

Date: Mon Mar 20 17:20:19 GMT 2023
User: antho
Spectrometer: FLMT10579
Trigger mode: 0
Integration Time (sec): 1.000000E-1
Scans to average: 10
Electric dark correction enabled: true
Nonlinearity correction enabled: false
Boxcar width: 0
XAxis mode: Wavelengths
Number of Pixels in Spectrum: 3648
>>>>>Begin Spectral Data<<<<<
345.248	-176.04
345.464	-176.04
345.681	-176.04
345.898	-162.67
346.114	-170.8
346.331	-22.39
346.548	38.44
346.764	-16
346.981	-23.17
347.197	-19.49
347.414	12.87
347.631	-17.36
347.847	46.58
348.064	19.46
348.28	16.94
348.497	-40.02
348.713	4.15
348.93	48.13
349.146	19.07
349.363	-8.25
349.579	22.94
349.796	8.22
350.012	-20.84
350.229	16.94
350.445	-0.11
350.661	-16.78
350.878	22.17
351.094	28.76
351.311	6.09
351.527	27.21
351.743	-24.53
351.96	29.14
352.176	17.91
352.392	21.2
352.609	21.39
352.825	-33.05
353.041	8.99
353.257	-19.29
353.474	-34.02
353.69	26.04
353.906	1.24
354.122	0.27
354.339	33.21
354.555	-0.5
354.771	-12.32
354.987	59.75
355.203	70.99
355.42	-6.12
355.636	-15.03
355.852	-10.38
356.068	14.61
356.284	-46.22
356.5	64.02
356.716	38.83
356.932	0.66
357.148	35.15
357.364	22.75
357.58	36.89
357.796	34.96
358.012	73.12
358.228	16.74
358.444	-38.09
358.66	49.1
358.876	39.99
359.092	-20.84
359.308	27.21
359.524	33.41
359.74	-29.37
359.956	-25.11
360.172	30.11
360.388	61.89
360.604	-4.38
360.819	80.29
361.035	14.42
361.251	18.87
361.467	-27.04
361.683	47.94
361.898	30.69
362.114	10.54
362.33	15.97
362.546	33.02
362.762	-3.99
362.977	30.11
363.193	-16.97
363.409	51.81
363.624	-31.5
363.84	-3.79
364.056	-16.19
364.271	26.62
364.487	34.76
364.703	-3.6
364.918	-14.64
365.134	-3.02
365.35	0.86
365.565	127.95
365.781	2.41
365.996	21.97
366.212	78.16
366.427	27.21
366.643	-9.99
366.858	-2.44
367.074	-16.97
367.289	66.54
367.505	102.77
367.72	-33.63
367.936	-8.25
368.151	23.14
368.367	27.01
368.582	40.57
368.798	5.51
369.013	56.46
369.228	26.82
369.444	17.91
369.659	63.63
369.874	17.52
370.09	73.7
370.305	-33.05
370.52	-2.83
370.736	37.28
370.951	12.09
371.166	63.05
371.381	66.34
371.597	38.64
371.812	11.51
372.027	-20.07
372.242	16.74
372.458	65.76
372.673	4.54
372.888	17.52
373.103	44.26
373.318	104.12
373.533	17.91
373.749	25.85
373.964	-44.09
374.179	59.95
374.394	-13.87
374.609	78.94
374.824	-24.91
375.039	51.23
375.254	11.32
375.469	68.47
375.684	46.97
375.899	39.8
376.114	17.32
376.329	10.54
376.544	32.44
376.759	53.75
376.974	-13.87
377.189	2.99
377.404	2.02
377.619	49.1
377.834	-53.78
378.049	-32.28
378.264	-24.91
378.478	-5.34
378.693	-12.71
378.908	28.76
379.123	-5.34
379.338	52
379.553	9.57
379.767	15.77
379.982	38.06
380.197	13.84
380.412	-2.44
380.626	19.84
380.841	107.61
381.056	26.24
381.271	62.66
381.485	-2.05
381.7	-27.63
381.915	30.11
382.129	3.18
382.344	37.67
382.559	27.98
382.773	39.61
382.988	-29.56
383.202	30.5
383.417	-3.02
383.632	131.05
383.846	1.82
384.061	22.36
384.275	14.03
384.49	24.11
384.704	43.67
384.919	25.07
385.133	24.3
385.348	36.7
385.562	-3.21
385.777	36.7
385.991	7.06
386.206	5.31
386.42	4.92
386.634	61.5
386.849	31.86
387.063	31.86
387.277	-25.11
387.492	6.86
387.706	-17.36
387.92	9.77
388.135	28.56
388.349	31.47
388.563	10.74
388.778	24.11
388.992	50.26
389.206	60.92
389.42	74.67
389.635	12.09
389.849	44.64
390.063	26.62
390.277	48.32
390.491	58.79
390.706	43.87
390.92	49.49
391.134	45.22
391.348	41.93
391.562	-35.57
391.776	6.67
391.99	-0.69
392.205	41.16
392.419	2.6
392.633	1.44
392.847	95.21
393.061	-0.89
393.275	101.99
393.489	25.66
393.703	40.77
393.917	65.18
394.131	45.03
394.345	58.2
394.559	37.47
394.773	15
394.986	43.48
395.2	34.57
395.414	47.74
395.628	-20.26
395.842	26.24
396.056	15.39
396.27	-50.68
396.484	24.88
396.697	17.71
396.911	70.8
397.125	22.94
397.339	44.64
397.553	50.84
397.766	71.19
397.98	46.97
398.194	64.79
398.408	19.84
398.621	50.26
398.835	71.96
399.049	42.51
399.262	78.35
399.476	55.49
399.69	69.64
399.903	97.73
400.117	40.77
400.331	84.55
400.544	17.91
400.758	140.74
400.971	40.77
401.185	84.17
401.398	-5.93
401.612	95.79
401.826	56.46
402.039	43.87
402.253	12.87
402.466	46.19
402.68	39.41
402.893	32.82
403.106	45.81
403.32	56.27
403.533	58.2
403.747	41.93
403.96	38.44
404.174	57.04
404.387	8.8
404.6	35.54
404.814	97.54
405.027	57.82
405.24	32.44
405.454	21.59
405.667	108.39
405.88	-0.89
406.094	36.51
406.307	72.35
406.52	55.88
406.733	20.23
406.947	-14.06
407.16	77.97
407.373	92.69
407.586	35.73
407.799	-0.5
408.012	71.77
408.226	34.18
408.439	97.54
408.652	-5.15
408.865	75.06
409.078	62.47
409.291	45.42
409.504	23.72
409.717	63.24
409.93	75.84
410.143	56.07
410.357	14.81
410.57	-6.7
410.783	41.54
410.996	72.35
411.209	68.67
411.421	96.76
411.634	48.71
411.847	21.2
412.06	51.81
412.273	43.09
412.486	39.22
412.699	121.95
412.912	38.25
413.125	83.97
413.338	56.27
413.55	81.45
413.763	50.46
413.976	60.92
414.189	22.94
414.402	37.09
414.615	113.23
414.827	2.02
415.04	68.09
415.253	98.31
415.466	103.15
415.678	113.62
415.891	70.99
416.104	41.16
416.316	39.8
416.529	38.83
416.742	70.8
416.954	95.79
417.167	54.33
417.38	66.15
417.592	101.6
417.805	18.68
418.017	24.88
418.23	100.05
418.442	32.24
418.655	32.82
418.868	64.99
419.08	100.05
419.293	99.86
419.505	65.76
419.718	95.21
419.93	115.55
420.142	57.24
420.355	94.63
420.567	115.55
420.78	73.51
420.992	60.14
421.205	124.66
421.417	37.28
421.629	48.13
421.842	36.31
422.054	-6.7
422.266	98.7
422.479	119.24
422.691	36.12
422.903	93.27
423.115	42.51
423.328	95.79
423.54	96.95
423.752	59.95
423.964	48.71
424.177	77.77
424.389	55.88
424.601	183.37
424.813	71.57
425.025	124.47
425.238	97.92
425.45	84.75
425.662	67.31
425.874	374.01
426.086	58.59
426.298	77.77
426.51	75.06
426.722	69.05
426.934	63.24
427.146	88.24
427.358	60.53
427.57	117.69
427.782	70.41
427.994	92.5
428.206	44.26
428.418	13.45
428.63	110.52
428.842	122.92
429.054	100.44
429.266	118.27
429.478	63.82
429.69	75.06
429.902	47.36
430.114	121.95
430.325	125.63
430.537	59.75
430.749	83
430.961	39.02
431.173	46.58
431.384	106.45
431.596	22.17
431.808	81.65
432.02	86.3
432.231	102.38
432.443	128.15
432.655	118.27
432.867	60.53
433.078	104.51
433.29	165.93
433.502	128.92
433.713	123.69
433.925	89.79
434.136	139.58
434.348	53.94
434.56	29.34
434.771	182.78
434.983	43.09
435.194	82.04
435.406	118.65
435.617	139.97
435.829	178.52
436.04	134.54
436.252	133.77
436.463	150.82
436.675	136.29
436.886	130.47
437.098	125.05
437.309	172.9
437.521	121.95
437.732	125.05
437.943	122.34
438.155	112.45
438.366	79.52
438.578	170.19
438.789	132.6
439	183.56
439.211	136.67
439.423	146.17
439.634	140.16
439.845	137.45
440.057	114.39
440.268	167.28
440.479	130.47
440.69	113.04
440.902	137.45
441.113	143.45
441.324	125.24
441.535	149.27
441.746	198.48
441.957	120.2
442.168	121.95
442.38	161.47
442.591	161.28
442.802	130.67
443.013	143.07
443.224	178.72
443.435	126.99
443.646	147.72
443.857	136.87
444.068	157.98
444.279	126.99
444.49	209.91
444.701	159.15
444.912	250.6
445.123	203.71
445.334	195.77
445.545	163.41
445.756	162.83
445.967	166.32
446.178	165.15
446.388	182.78
446.599	183.56
446.81	208.17
447.021	169.42
447.232	212.62
447.443	217.47
447.653	145.78
447.864	207.58
448.075	167.48
448.286	185.11
448.496	184.72
448.707	198.67
448.918	170.19
449.129	271.33
449.339	157.6
449.55	211.85
449.761	196.73
449.971	216.3
450.182	175.03
450.393	212.43
450.603	181.62
450.814	223.28
451.024	222.5
451.235	227.15
451.446	278.5
451.656	241.1
451.867	183.95
452.077	194.41
452.288	252.53
452.498	247.88
452.709	188.98
452.919	224.83
453.13	198.67
453.34	276.75
453.55	165.15
453.761	221.34
453.971	217.66
454.182	239.55
454.392	254.66
454.602	286.44
454.813	222.7
455.023	253.89
455.233	203.52
455.444	229.86
455.654	156.05
455.864	226.76
456.075	194.99
456.285	206.42
456.495	236.84
456.705	241.3
456.916	256.6
457.126	272.3
457.336	230.83
457.546	165.93
457.756	209.13
457.967	263.96
458.177	185.11
458.387	230.64
458.597	193.05
458.807	214.56
459.017	197.12
459.227	216.3
459.437	221.73
459.647	263.38
459.857	259.9
460.068	200.03
460.278	286.44
460.488	219.21
460.698	280.05
460.908	269.97
461.117	180.46
461.327	184.53
461.537	239.94
461.747	248.46
461.957	213.01
462.167	348.63
462.377	276.56
462.587	234.13
462.797	300.78
463.007	267.84
463.216	262.22
463.426	306.01
463.636	302.71
463.846	193.63
464.056	221.34
464.265	270.36
464.475	227.93
464.685	268.03
464.895	253.5
465.104	242.46
465.314	300.78
465.524	235.68
465.733	236.26
465.943	310.08
466.153	335.65
466.362	285.66
466.572	255.44
466.782	242.65
466.991	251.95
467.201	307.36
467.41	206.62
467.62	281.4
467.829	269.78
468.039	304.65
468.249	285.08
468.458	254.47
468.668	296.9
468.877	313.95
469.086	317.05
469.296	303.49
469.505	245.36
469.715	331.78
469.924	274.43
470.134	333.13
470.343	349.79
470.552	287.02
470.762	278.88
470.971	250.01
471.18	308.33
471.39	277.72
471.599	266.1
471.808	328.48
472.018	255.25
472.227	328.48
472.436	330.81
472.645	290.51
472.855	280.24
473.064	340.69
473.273	313.76
473.482	370.53
473.691	375.56
473.901	358.32
474.11	314.53
474.319	401.72
474.528	315.31
474.737	361.23
474.946	333.71
475.155	340.69
475.364	376.92
475.573	355.41
475.783	328.48
475.992	335.84
476.201	396.88
476.41	342.43
476.619	313.76
476.828	345.92
477.037	352.89
477.245	337.78
477.454	382.93
477.663	315.5
477.872	343.21
478.081	413.34
478.29	348.24
478.499	435.04
478.708	372.85
478.917	417.8
479.125	358.32
479.334	388.35
479.543	369.36
479.752	397.65
479.961	384.86
480.169	461.78
480.378	369.75
480.587	503.24
480.796	436.98
481.004	386.61
481.213	452.09
481.422	430.97
481.63	398.62
481.839	423.42
482.048	456.16
482.256	456.94
482.465	423.42
482.674	451.9
482.882	465.85
483.091	493.17
483.299	449.96
483.508	484.84
483.716	455.58
483.925	458.29
484.134	428.07
484.342	447.64
484.551	469.14
484.759	450.35
484.967	474.57
485.176	470.89
485.384	490.84
485.593	474.37
485.801	475.73
486.01	461.59
486.218	472.63
486.426	361.42
486.635	418.38
486.843	391.84
487.051	435.04
487.26	409.86
487.468	455.97
487.676	467.21
487.885	427.68
488.093	460.62
488.301	489.29
488.509	499.56
488.717	526.69
488.926	469.34
489.134	493.55
489.342	486
489.55	461.59
489.758	482.12
489.967	478.64
490.175	568.92
490.383	468.56
490.591	546.84
490.799	491.04
491.007	545.48
491.215	517
491.423	498.79
491.631	507.5
491.839	530.75
492.047	544.12
492.255	492.39
492.463	442.02
492.671	521.07
492.879	586.55
493.087	513.51
493.295	525.14
493.503	558.85
493.711	548.77
493.919	559.82
494.127	574.93
494.334	568.92
494.542	512.93
494.75	537.73
494.958	529.2
495.166	582.68
495.374	576.87
495.581	577.83
495.789	548.58
495.997	650.88
496.205	585.78
496.412	553.81
496.62	578.42
496.828	583.84
497.035	556.72
497.243	605.35
497.451	577.25
497.658	600.7
497.866	570.09
498.074	647.2
498.281	548.19
498.489	673.55
498.696	601.08
498.904	565.24
499.112	578.03
499.319	638.87
499.527	618.13
499.734	653.2
499.942	565.24
500.149	579
500.357	604.38
500.564	572.99
500.771	626.66
500.979	561.17
501.186	574.15
501.394	611.74
501.601	576.28
501.808	623.95
502.016	610.58
502.223	584.42
502.43	609.03
502.638	586.36
502.845	559.24
503.052	661.34
503.26	594.3
503.467	690.4
503.674	620.46
503.881	631.31
504.089	721.21
504.296	657.47
504.503	612.13
504.71	624.92
504.917	581.9
505.125	653.2
505.332	624.53
505.539	663.08
505.746	703.96
505.953	657.66
506.16	674.51
506.367	723.53
506.574	716.75
506.781	717.14
506.988	657.27
507.195	681.68
507.402	677.23
507.609	722.18
507.816	646.03
508.023	651.07
508.23	668.51
508.437	627.43
508.644	680.91
508.851	746.01
509.058	691.37
509.265	725.08
509.472	720.24
509.679	808.98
509.885	700.09
510.092	728.57
510.299	718.3
510.506	720.82
510.713	749.88
510.92	718.5
511.126	757.24
511.333	791.15
511.54	739.23
511.746	799.48
511.953	810.91
512.16	835.91
512.367	742.71
512.573	734.38
512.78	771.58
512.987	763.25
513.193	768.68
513.4	707.45
513.606	753.56
513.813	774.49
514.02	780.49
514.226	826.61
514.433	826.99
514.639	746.01
514.846	762.48
515.052	785.92
515.259	784.56
515.465	794.83
515.672	798.13
515.878	879.69
516.085	801.81
516.291	857.02
516.497	816.34
516.704	762.28
516.91	768.48
517.117	732.83
517.323	698.93
517.529	748.91
517.736	755.31
517.942	775.46
518.148	745.81
518.354	752.01
518.561	791.34
518.767	821.18
518.973	820.02
519.179	839.97
519.386	795.61
519.592	787.28
519.798	811.11
520.004	894.42
520.21	816.53
520.417	909.92
520.623	919.8
520.829	905.46
521.035	923.09
521.241	912.05
521.447	931.23
521.653	1032.75
521.859	924.26
522.065	941.69
522.271	1029.85
522.477	989.35
522.683	1004.27
522.889	969.2
523.095	957
523.301	944.79
523.507	920.77
523.713	968.04
523.919	922.12
524.125	1025.78
524.331	958.35
524.537	1059.68
524.742	1019.97
524.948	1005.82
525.154	1031.59
525.36	1157.14
525.566	1053.1
525.772	1125.56
525.977	1012.22
526.183	1067.05
526.389	1080.8
526.595	1035.66
526.8	1010.28
527.006	975.6
527.212	957.97
527.417	952.93
527.623	943.24
527.829	1024.23
528.034	1026.36
528.24	1040.12
528.446	1043.22
528.651	1124.78
528.857	1065.5
529.062	1172.06
529.268	1076.73
529.473	1094.37
529.679	1106.38
529.884	1187.94
530.09	1131.37
530.295	1189.69
530.501	1157.72
530.706	1126.33
530.912	1111.8
531.117	1161.4
531.323	1142.03
531.528	1175.74
531.733	1180.39
531.939	1146.87
532.144	1184.65
532.35	1150.75
532.555	1214.1
532.76	1168.18
532.966	1196.86
533.171	1156.56
533.376	1100.56
533.581	1097.08
533.787	1184.07
533.992	1179.61
534.197	1209.84
534.402	1146.87
534.607	1159.46
534.813	1278.62
535.018	1171.28
535.223	1190.27
535.428	1207.32
535.633	1236.58
535.838	1243.55
536.043	1224.37
536.249	1298.38
536.454	1202.48
536.659	1261.57
536.864	1192.4
537.069	1203.64
537.274	1255.95
537.479	1215.84
537.684	1256.34
537.889	1152.49
538.094	1276.1
538.299	1225.53
538.504	1245.68
538.708	1284.04
538.913	1260.79
539.118	1248.39
539.323	1255.18
539.528	1234.83
539.733	1254.79
539.938	1291.41
540.142	1296.25
540.347	1260.99
540.552	1218.17
540.757	1218.36
540.962	1240.64
541.166	1193.37
541.371	1176.9
541.576	1218.17
541.781	1166.44
541.985	1260.6
542.19	1248.39
542.395	1309.62
542.599	1336.94
542.804	1323.37
543.008	1330.35
543.213	1273.78
543.418	1258.08
543.622	1322.79
543.827	1257.5
544.031	1329.77
544.236	1329.96
544.44	1301.29
544.645	1414.05
544.849	1284.82
545.054	1364.25
545.258	1408.82
545.463	1402.04
545.667	1298.38
545.872	1332.09
546.076	1363.09
546.281	1309.04
546.485	1294.12
546.689	1322.79
546.894	1362.12
547.098	1338.29
547.302	1303.22
547.507	1338.87
547.711	1362.32
547.915	1364.84
548.119	1331.12
548.324	1314.66
548.528	1385.18
548.732	1330.35
548.936	1346.04
549.141	1335
549.345	1318.72
549.549	1367.16
549.753	1333.06
549.957	1455.12
550.161	1413.85
550.366	1383.24
550.57	1294.31
550.774	1371.42
550.978	1349.53
551.182	1386.73
551.386	1348.76
551.59	1311.94
551.794	1368.71
551.998	1368.9
552.202	1367.35
552.406	1302.26
552.61	1364.64
552.814	1380.92
553.018	1428.77
553.222	1325.89
553.426	1294.51
553.63	1428.39
553.833	1343.72
554.037	1324.54
554.241	1398.35
554.445	1328.99
554.649	1344.69
554.853	1334.61
555.056	1421.99
555.26	1401.65
555.464	1383.24
555.668	1400.49
555.871	1402.42
556.075	1394.48
556.279	1349.34
556.483	1335.97
556.686	1351.86
556.89	1390.02
557.094	1381.69
557.297	1329.77
557.501	1407.07
557.704	1272.42
557.908	1363.87
558.112	1327.44
558.315	1411.14
558.519	1322.99
558.722	1343.14
558.926	1308.07
559.129	1261.96
559.333	1247.81
559.536	1297.99
559.74	1266.22
559.943	1282.69
560.147	1245.88
560.35	1309.23
560.553	1255.76
560.757	1244.13
560.96	1347.4
561.164	1285.59
561.367	1365.03
561.57	1277.07
561.774	1270.87
561.977	1289.47
562.18	1239.87
562.384	1347.59
562.587	1276.1
562.79	1262.34
562.993	1272.23
563.197	1298.19
563.4	1325.89
563.603	1333.06
563.806	1345.66
564.009	1247.23
564.212	1314.66
564.416	1217.39
564.619	1287.72
564.822	1229.41
565.025	1304.39
565.228	1263.31
565.431	1269.9
565.634	1152.68
565.837	1242.58
566.04	1189.69
566.243	1202.28
566.446	1121.68
566.649	1236.77
566.852	1165.08
567.055	1173.41
567.258	1194.92
567.461	1271.84
567.664	1261.96
567.867	1135.63
568.07	1218.17
568.273	1192.4
568.475	1254.59
568.678	1163.73
568.881	1186.4
569.084	1185.43
569.287	1094.17
569.489	1143.58
569.692	1182.52
569.895	1142.8
570.098	1071.89
570.3	1121.49
570.503	1083.32
570.706	1082.55
570.909	1075.96
571.111	1035.85
571.314	1065.5
571.516	1093.59
571.719	1138.35
571.922	1062.59
572.124	1074.22
572.327	1065.11
572.529	1058.72
572.732	1058.33
572.935	1091.46
573.137	1150.94
573.34	1070.73
573.542	1115.29
573.745	1100.56
573.947	1084.68
574.15	1046.7
574.352	1038.57
574.554	1141.45
574.757	1069.95
574.959	1055.23
575.162	1051.35
575.364	1055.62
575.566	1138.93
575.769	1005.44
575.971	1040.5
576.173	1006.79
576.376	1052.52
576.578	1049.22
576.78	1106.96
576.982	967.85
577.185	1024.03
577.387	992.26
577.589	986.06
577.791	1076.73
577.993	1049.03
578.196	1004.27
578.398	1020.55
578.6	1084.48
578.802	947.7
579.004	981.22
579.206	949.25
579.408	999.62
579.61	980.83
579.812	1037.98
580.014	969.4
580.216	980.05
580.418	989.94
580.62	999.62
580.822	961.84
581.024	980.83
581.226	1000.2
581.428	1000.59
581.63	1060.85
581.832	939.95
582.034	1063.17
582.236	1001.95
582.438	1049.8
582.64	1071.31
582.841	1076.73
583.043	1111.41
583.245	1040.7
583.447	1006.02
583.649	997.3
583.85	1037.6
584.052	1058.52
584.254	1000.4
584.456	1042.25
584.657	952.35
584.859	994.97
585.061	1000.4
585.262	971.34
585.464	976.18
585.666	1035.08
585.867	995.75
586.069	1061.04
586.27	1020.74
586.472	1015.7
586.674	943.44
586.875	992.07
587.077	973.66
587.278	1008.54
587.48	974.44
587.681	1091.85
587.883	1009.12
588.084	938.59
588.285	948.47
588.487	975.79
588.688	1015.9
588.89	905.85
589.091	894.22
589.292	892.67
589.494	885.7
589.695	846.56
589.896	790.18
590.098	815.37
590.299	887.64
590.5	816.34
590.702	851.21
590.903	891.71
591.104	931.62
591.305	901.97
591.507	983.15
591.708	921.74
591.909	917.67
592.11	968.24
592.311	931.62
592.512	935.49
592.714	865.55
592.915	865.16
593.116	907.98
593.317	926.77
593.518	879.31
593.719	903.91
593.92	951.96
594.121	978.31
594.322	913.02
594.523	933.17
594.724	865.94
594.925	924.26
595.126	912.24
595.327	932.78
595.528	927.74
595.729	909.34
595.929	923.29
596.13	894.42
596.331	920.77
596.532	907.59
596.733	957.19
596.934	951.19
597.135	969.79
597.335	964.55
597.536	874.85
597.737	946.15
597.938	872.33
598.138	924.64
598.339	910.11
598.54	904.49
598.74	914.96
598.941	895.58
599.142	934.14
599.342	905.07
599.543	881.82
599.744	901.39
599.944	895
600.145	913.41
600.345	906.43
600.546	965.52
600.746	978.5
600.947	996.72
601.147	915.92
601.348	932
601.548	904.88
601.749	912.44
601.949	870.2
602.15	876.79
602.35	905.85
602.551	944.02
602.751	881.82
602.951	894.22
603.152	825.64
603.352	904.11
603.552	882.02
603.753	922.32
603.953	925.03
604.153	898.29
604.354	891.9
604.554	900.62
604.754	900.81
604.954	858.19
605.155	906.62
605.355	894.61
605.555	926.39
605.755	937.24
605.955	908.95
606.155	940.34
606.356	871.94
606.556	922.71
606.756	915.92
606.956	851.41
607.156	928.32
607.356	877.56
607.556	883.96
607.756	918.06
607.956	976.95
608.156	866.13
608.356	850.44
608.556	931.42
608.756	903.33
608.956	826.03
609.156	890.16
609.356	822.54
609.556	838.23
609.755	898.1
609.955	857.41
610.155	877.17
610.355	865.94
610.555	847.34
610.755	857.61
610.954	817.31
611.154	878.34
611.354	883.76
611.554	852.57
611.753	844.24
611.953	769.06
612.153	901.39
612.352	878.53
612.552	796.19
612.752	779.33
612.951	841.33
613.151	848.11
613.351	807.04
613.55	837.46
613.75	859.16
613.949	838.23
614.149	825.06
614.348	791.54
614.548	800.64
614.747	761.31
614.947	762.09
615.146	721.6
615.346	830.09
615.545	814.79
615.745	810.72
615.944	840.75
616.144	790.38
616.343	822.93
616.542	802.39
616.742	783.59
616.941	756.28
617.14	754.73
617.34	793.86
617.539	817.89
617.738	769.64
617.938	859.35
618.137	804.13
618.336	746.01
618.535	798.9
618.734	792.51
618.934	791.54
619.133	774.68
619.332	808.2
619.531	748.53
619.73	740.97
619.929	819.83
620.128	763.25
620.328	800.26
620.527	763.64
620.726	758.79
620.925	776.81
621.124	745.23
621.323	753.18
621.522	718.3
621.721	754.92
621.92	752.4
622.119	813.82
622.318	722.18
622.517	776.23
622.715	792.7
622.914	722.56
623.113	740
623.312	717.72
623.511	782.82
623.71	727.41
623.909	722.18
624.107	794.64
624.306	699.31
624.505	704.35
624.704	727.6
624.902	736.9
625.101	762.28
625.3	717.72
625.499	701.45
625.697	716.56
625.896	700.86
626.095	706.29
626.293	677.23
626.492	696.8
626.69	736.32
626.889	689.05
627.088	738.65
627.286	718.69
627.485	664.63
627.683	673.55
627.882	723.92
628.08	619.68
628.279	678.97
628.477	758.79
628.676	660.76
628.874	682.26
629.073	657.85
629.271	645.45
629.469	697.57
629.668	686.33
629.866	691.37
630.065	678
630.263	697.57
630.461	653.01
630.66	651.07
630.858	732.45
631.056	722.76
631.254	723.92
631.453	657.85
631.651	709.2
631.849	678
632.047	701.25
632.245	675.87
632.444	706.29
632.642	696.6
632.84	720.24
633.038	652.04
633.236	623.17
633.434	669.28
633.632	639.06
633.83	666.18
634.028	700.67
634.227	644.48
634.425	744.46
634.623	688.46
634.821	672.96
635.019	721.98
635.216	664.05
635.414	694.66
635.612	717.14
635.81	682.46
636.008	729.15
636.206	672
636.404	690.79
636.602	632.28
636.8	689.24
636.997	708.23
637.195	709.58
637.393	652.82
637.591	740.2
637.789	709.58
637.986	652.62
638.184	675.68
638.382	683.43
638.58	710.55
638.777	755.5
638.975	671.61
639.173	691.37
639.37	702.8
639.568	678
639.765	681.49
639.963	671.22
640.161	711.52
640.358	704.74
640.556	647.2
640.753	641.77
640.951	608.64
641.148	683.62
641.346	665.21
641.543	675.1
641.741	688.08
641.938	627.82
642.136	648.55
642.333	623.56
642.531	696.8
642.728	713.07
642.925	674.32
643.123	640.8
643.32	653.01
643.517	620.07
643.715	672.19
643.912	641.77
644.109	651.07
644.306	633.25
644.504	600.7
644.701	674.51
644.898	640.03
645.095	645.07
645.293	635.77
645.49	688.08
645.687	640.22
645.884	664.63
646.081	592.17
646.278	620.85
646.475	625.5
646.672	617.75
646.87	617.17
647.067	634.41
647.264	626.85
647.461	550.32
647.658	564.47
647.855	638.48
648.052	592.37
648.249	511.77
648.446	580.74
648.642	589.46
648.839	566.4
649.036	542.96
649.233	522.81
649.43	551.49
649.627	534.63
649.824	567.95
650.021	550.71
650.217	553.04
650.414	542.57
650.611	588.1
650.808	572.22
651.004	572.6
651.201	575.12
651.398	641.97
651.595	591.78
651.791	554.2
651.988	635.96
652.185	544.32
652.381	582.87
652.578	498.2
652.775	573.77
652.971	547.61
653.168	563.3
653.364	573.19
653.561	502.85
653.757	556.52
653.954	566.6
654.15	510.02
654.347	612.52
654.543	583.26
654.74	503.05
654.936	517.77
655.133	547.61
655.329	563.11
655.525	529.4
655.722	579.58
655.918	520.49
656.115	571.83
656.311	484.84
656.507	472.05
656.704	444.34
656.9	461.97
657.096	463.33
657.292	453.26
657.489	550.13
657.685	509.64
657.881	470.89
658.077	496.46
658.273	492
658.47	562.34
658.666	506.15
658.862	542.77
659.058	492.39
659.254	555.75
659.45	534.24
659.646	538.89
659.842	528.04
660.038	564.27
660.234	502.47
660.43	534.44
660.626	554.97
660.822	572.6
661.018	551.68
661.214	524.55
661.41	465.46
661.606	561.37
661.802	538.7
661.998	493.75
662.194	464.69
662.39	546.84
662.586	532.89
662.781	533.47
662.977	543.54
663.173	545.87
663.369	500.34
663.564	536.18
663.76	575.32
663.956	516.8
664.152	584.81
664.347	479.02
664.543	511.77
664.739	533.66
664.934	458.68
665.13	458.68
665.326	545.29
665.521	506.54
665.717	483.67
665.912	487.36
666.108	410.44
666.304	506.34
666.499	496.46
666.695	425.36
666.89	479.99
667.086	534.82
667.281	511.19
667.477	571.64
667.672	491.81
667.867	496.65
668.063	508.67
668.258	463.91
668.454	497.24
668.649	564.66
668.844	512.93
669.04	511.38
669.235	464.3
669.43	477.67
669.626	457.52
669.821	465.07
670.016	453.45
670.211	464.69
670.407	473.02
670.602	486.39
670.797	460.42
670.992	523.2
671.187	486.58
671.382	526.49
671.578	464.3
671.773	488.71
671.968	429.23
672.163	492.2
672.358	514.29
672.553	424.19
672.748	456.55
672.943	537.15
673.138	483.29
673.333	489.1
673.528	436.59
673.723	502.08
673.918	476.51
674.113	408.31
674.308	518.16
674.503	488.32
674.698	478.64
674.892	481.93
675.087	478.83
675.282	468.56
675.477	451.12
675.672	462.75
675.867	433.11
676.061	430.59
676.256	424.19
676.451	425.36
676.646	469.92
676.84	446.67
677.035	400.56
677.23	411.79
677.424	489.49
677.619	492.78
677.814	489.87
678.008	493.75
678.203	427.49
678.397	438.92
678.592	467.01
678.787	523.59
678.981	438.72
679.176	463.91
679.37	480.19
679.565	457.52
679.759	428.65
679.954	451.12
680.148	520.87
680.342	532.3
680.537	456.16
680.731	441.63
680.926	474.76
681.12	473.41
681.314	410.24
681.509	454.42
681.703	442.6
681.897	491.23
682.092	475.92
682.286	439.69
682.48	541.02
682.674	498.4
682.869	449.77
683.063	441.63
683.257	538.7
683.451	423.03
683.645	485.42
683.839	479.41
684.034	455.58
684.228	478.06
684.422	402.3
684.616	427.1
684.81	435.43
685.004	445.31
685.198	470.5
685.392	492.2
685.586	412.96
685.78	471.27
685.974	467.4
686.168	479.61
686.362	529.4
686.556	434.46
686.75	407.34
686.944	419.54
687.138	432.33
687.331	348.44
687.525	378.86
687.719	336.23
687.913	371.49
688.107	376.14
688.301	381.18
688.494	423.42
688.688	357.93
688.882	351.15
689.076	328.87
689.269	386.22
689.463	502.85
689.657	385.25
689.85	374.79
690.044	355.61
690.238	404.82
690.431	384.28
690.625	409.47
690.818	425.74
691.012	461.59
691.205	429.04
691.399	374.79
691.593	438.53
691.786	471.47
691.98	480.38
692.173	523.97
692.366	484.26
692.56	500.14
692.753	572.6
692.947	436.98
693.14	580.55
693.333	552.45
693.527	473.79
693.72	540.25
693.914	517
694.107	526.69
694.3	557.49
694.493	507.7
694.687	571.64
694.88	494.33
695.073	588.1
695.266	563.5
695.46	561.56
695.653	608.83
695.846	573.19
696.039	548
696.232	561.17
696.425	592.95
696.618	602.44
696.812	576.87
697.005	649.91
697.198	741.16
697.391	650.3
697.584	673.35
697.777	728.76
697.97	715.2
698.163	700.28
698.356	711.13
698.549	780.11
698.742	749.3
698.935	715.59
699.127	733.8
699.32	687.5
699.513	717.14
699.706	747.56
699.899	759.18
700.092	733.8
700.285	776.43
700.477	658.63
700.67	760.15
700.863	782.82
701.056	881.63
701.248	851.6
701.441	846.56
701.634	783.98
701.826	898.29
702.019	820.21
702.212	868.84
702.404	825.44
702.597	830.87
702.79	829.71
702.982	850.24
703.175	892.48
703.367	909.92
703.56	936.65
703.752	1044.96
703.945	973.85
704.137	981.02
704.33	1012.02
704.522	1004.08
704.715	981.99
704.907	1027.91
705.1	1042.05
705.292	1053.29
705.484	1003.11
705.677	1078.87
705.869	1095.72
706.061	1114.9
706.254	1130.98
706.446	1107.73
706.638	1073.25
706.831	1148.61
707.023	1104.25
707.215	1237.54
707.407	1195.69
707.599	1218.94
707.792	1239.09
707.984	1207.13
708.176	1249.94
708.368	1191.63
708.56	1277.46
708.752	1234.44
708.944	1250.53
709.136	1263.12
709.329	1258.47
709.521	1361.16
709.713	1331.32
709.905	1337.13
710.097	1383.05
710.289	1304.77
710.481	1368.32
710.672	1330.16
710.864	1340.04
711.056	1363.29
711.248	1385.57
711.44	1444.85
711.632	1404.75
711.824	1425.48
712.016	1462.29
712.207	1462.1
712.399	1437.1
712.591	1489.61
712.783	1478.76
712.975	1494.84
713.166	1481.67
713.358	1511.12
713.55	1528.17
713.741	1566.33
713.933	1572.34
714.125	1567.69
714.316	1560.52
714.508	1606.63
714.7	1594.62
714.891	1616.32
715.083	1662.63
715.274	1582.41
715.466	1621.55
715.657	1659.72
715.849	1523.13
716.04	1573.11
716.232	1525.84
716.423	1607.6
716.615	1558.39
716.806	1514.41
716.998	1454.93
717.189	1430.13
717.381	1388.09
717.572	1351.66
717.763	1366.19
717.955	1366.39
718.146	1339.84
718.337	1277.07
718.528	1249.94
718.72	1257.89
718.911	1302.45
719.102	1197.63
719.293	1301.29
719.485	1299.35
719.676	1270.68
719.867	1257.11
720.058	1275.13
720.249	1255.37
720.44	1256.34
720.632	1288.69
720.823	1322.02
721.014	1426.84
721.205	1431.68
721.396	1491.35
721.587	1590.16
721.778	1572.92
721.969	1625.81
722.16	1660.69
722.351	1676.77
722.542	1754.07
722.733	1765.89
722.924	1667.08
723.115	1734.51
723.305	1732.76
723.496	1751.36
723.687	1627.75
723.878	1659.33
724.069	1640.54
724.26	1653.52
724.45	1567.5
724.641	1586.29
724.832	1594.43
725.023	1594.43
725.213	1609.93
725.404	1563.04
725.595	1572.34
725.785	1562.85
725.976	1635.31
726.167	1611.86
726.357	1596.36
726.548	1691.3
726.739	1611.48
726.929	1679.09
727.12	1702.54
727.31	1713.97
727.501	1664.76
727.691	1706.99
727.882	1711.26
728.072	1726.76
728.263	1724.24
728.453	1797.28
728.644	1768.41
728.834	1748.65
729.024	1698.08
729.215	1692.27
729.405	1738.57
729.596	1778.87
729.786	1785.07
729.976	1814.33
730.167	1837.97
730.357	1809.87
730.547	1767.83
730.737	1795.34
730.928	1895.51
731.118	1915.85
731.308	1857.92
731.498	1886.79
731.688	1947.05
731.879	1941.04
732.069	1958.28
732.259	1972.23
732.449	1991.8
732.639	2045.47
732.829	2075.11
733.019	2077.63
733.209	2177.61
733.399	2130.14
733.589	2202.02
733.779	2211.51
733.969	2225.85
734.159	2261.5
734.349	2267.31
734.539	2288.43
734.729	2258.2
734.919	2355.85
735.109	2318.65
735.299	2286.88
735.488	2344.81
735.678	2340.93
735.868	2329.31
736.058	2359.15
736.248	2310.71
736.437	2285.33
736.627	2254.72
736.817	2388.02
737.007	2345.97
737.196	2348.68
737.386	2348.1
737.576	2334.15
737.765	2358.18
737.955	2366.9
738.144	2452.73
738.334	2413.4
738.524	2362.05
738.713	2417.27
738.903	2386.66
739.092	2395.57
739.282	2432.96
739.471	2421.73
739.661	2412.23
739.85	2426.57
740.04	2464.55
740.229	2488.76
740.419	2477.91
740.608	2486.63
740.797	2514.14
740.987	2525.77
741.176	2556.38
741.365	2456.02
741.555	2474.43
741.744	2510.66
741.933	2495.55
742.123	2531.97
742.312	2576.34
742.501	2545.53
742.69	2564.52
742.88	2490.12
743.069	2575.56
743.258	2536.23
743.447	2538.56
743.636	2559.48
743.825	2594.16
744.014	2585.06
744.204	2596.68
744.393	2526.54
744.582	2604.04
744.771	2639.11
744.96	2524.99
745.149	2585.83
745.338	2588.74
745.527	2612.76
745.716	2564.13
745.905	2529.06
746.094	2625.16
746.283	2606.37
746.471	2609.86
746.66	2642.99
746.849	2613.92
747.038	2682.7
747.227	2606.76
747.416	2634.85
747.604	2596.1
747.793	2557.54
747.982	2606.76
748.171	2598.81
748.359	2645.31
748.548	2605.59
748.737	2631.36
748.926	2606.76
749.114	2541.08
749.303	2563.94
749.491	2576.34
749.68	2539.33
749.869	2625.16
750.057	2570.53
750.246	2563.55
750.434	2549.99
750.623	2588.54
750.811	2583.7
751	2586.61
751.188	2559.29
751.377	2586.99
751.565	2559.29
751.754	2514.92
751.942	2464.74
752.131	2580.41
752.319	2533.71
752.507	2480.05
752.696	2582.54
752.884	2577.11
753.072	2557.93
753.261	2568.78
753.449	2541.08
753.637	2521.51
753.825	2604.04
754.014	2516.66
754.202	2542.63
754.39	2595.52
754.578	2588.74
754.766	2505.62
754.955	2508.53
755.143	2598.62
755.331	2528.87
755.519	2486.25
755.707	2514.14
755.895	2500.19
756.083	2527.32
756.271	2468.03
756.459	2493.61
756.647	2525.38
756.835	2461.45
757.023	2459.7
757.211	2435.29
757.399	2448.27
757.587	2451.95
757.775	2394.99
757.963	2446.53
758.151	2415.91
758.339	2425.02
758.526	2392.67
758.714	2436.06
758.902	2304.51
759.09	2289.79
759.278	2146.41
759.465	1998.58
759.653	1672.89
759.841	1552.19
760.028	1333.26
760.216	1144.93
760.404	1130.21
760.591	921.74
760.779	752.4
760.967	639.25
761.154	542.96
761.342	598.37
761.529	591.2
761.717	629.57
761.905	599.34
762.092	672.38
762.28	603.6
762.467	628.98
762.655	593.53
762.842	602.44
763.029	577.64
763.217	617.75
763.404	643.71
763.592	649.52
763.779	597.02
763.966	639.06
764.154	642.74
764.341	728.96
764.528	719.46
764.716	775.65
764.903	815.56
765.09	850.05
765.277	853.34
765.465	1011.83
765.652	1055.81
765.839	1071.12
766.026	1184.26
766.213	1201.7
766.4	1301.48
766.588	1438.07
766.775	1457.45
766.962	1523.13
767.149	1527.58
767.336	1662.04
767.523	1631.04
767.71	1729.08
767.897	1801.15
768.084	1863.74
768.271	1874.78
768.458	1929.03
768.645	1981.73
768.832	1930.38
769.019	1945.3
769.206	1989.28
769.392	2046.83
769.579	2132.08
769.766	2107.47
769.953	2069.11
770.14	2188.46
770.327	2126.26
770.513	2164.24
770.7	2203.57
770.887	2135.37
771.073	2136.92
771.26	2161.72
771.447	2129.17
771.634	2103.79
771.82	2228.76
772.007	2127.62
772.193	2169.66
772.38	2224.49
772.567	2191.17
772.753	2175.86
772.94	2190.59
773.126	2213.26
773.313	2201.05
773.499	2198.72
773.686	2191.56
773.872	2159.78
774.059	2224.69
774.245	2152.22
774.432	2170.44
774.618	2116.96
774.804	2143.12
774.991	2122.78
775.177	2210.74
775.363	2165.59
775.55	2189.23
775.736	2077.05
775.922	2122.58
776.109	2129.17
776.295	2165.98
776.481	2167.53
776.667	2149.71
776.853	2122.97
777.04	2094.88
777.226	2108.24
777.412	2179.54
777.598	2100.88
777.784	2084.61
777.97	2083.25
778.156	2130.72
778.342	2111.93
778.528	2098.36
778.715	1998.97
778.901	2048.76
779.087	2109.02
779.272	2011.76
779.458	2031.91
779.644	2058.84
779.83	2022.61
780.016	2124.52
780.202	2051.67
780.388	2064.26
780.574	1985.41
780.76	2053.22
780.946	2094.29
781.131	2023.19
781.317	2013.31
781.503	1966.03
781.689	1993.35
781.874	2138.86
782.06	1972.04
782.246	2026.1
782.432	1992.96
782.617	2001.68
782.803	2042.76
782.989	1973.01
783.174	1988.31
783.36	1910.23
783.545	1932.13
783.731	1966.62
783.916	1841.26
784.102	1965.65
784.288	1912.37
784.473	1929.42
784.659	1928.45
784.844	1962.93
785.029	1918.57
785.215	1910.43
785.4	1842.81
785.586	1955.18
785.771	1895.51
785.956	1939.68
786.142	1906.55
786.327	1841.84
786.512	1892.6
786.698	1853.47
786.883	1827.31
787.068	1843.78
787.254	1887.57
787.439	1850.56
787.624	1838.35
787.809	1824.99
787.994	1852.11
788.18	1918.18
788.365	1751.75
788.55	1799.99
788.735	1796.7
788.92	1770.54
789.105	1769.19
789.29	1817.43
789.475	1776.94
789.66	1774.81
789.845	1749.23
790.03	1743.61
790.215	1824.02
790.4	1821.69
790.585	1849.2
790.77	1790.11
790.955	1696.53
791.14	1789.72
791.325	1806
791.51	1663.79
791.695	1755.62
791.879	1701.57
792.064	1688.2
792.249	1787.4
792.434	1735.86
792.618	1718.62
792.803	1801.54
792.988	1770.93
793.173	1746.13
793.357	1791.86
793.542	1739.54
793.727	1731.41
793.911	1782.75
794.096	1731.99
794.281	1771.12
794.465	1813.75
794.65	1774.81
794.834	1784.49
795.019	1816.07
795.203	1773.26
795.388	1781.59
795.572	1799.6
795.757	1771.12
795.941	1782.94
796.126	1790.89
796.31	1695.18
796.494	1739.93
796.679	1715.13
796.863	1704.28
797.048	1793.79
797.232	1801.74
797.416	1742.06
797.601	1756.01
797.785	1829.64
797.969	1805.42
798.153	1719.78
798.338	1766.67
798.522	1776.55
798.706	1806.58
798.89	1787.21
799.074	1883.11
799.258	1843.97
799.443	1787.98
799.627	1800.38
799.811	1845.72
799.995	1800.38
800.179	1755.43
800.363	1777.71
800.547	1793.21
800.731	1803.48
800.915	1708.93
801.099	1731.21
801.283	1741.09
801.467	1756.98
801.651	1762.79
801.835	1834.67
802.019	1792.63
802.202	1791.86
802.386	1736.06
802.57	1723.66
802.754	1757.17
802.938	1737.02
803.121	1737.41
803.305	1802.32
803.489	1782.75
803.673	1779.84
803.856	1776.74
804.04	1777.32
804.224	1781.59
804.407	1753.11
804.591	1754.27
804.775	1748.26
804.958	1771.71
805.142	1862.19
805.326	1778.49
805.509	1789.34
805.693	1806.19
805.876	1833.32
806.06	1764.92
806.243	1806
806.427	1824.79
806.61	1806
806.794	1730.24
806.977	1833.7
807.16	1759.69
807.344	1770.93
807.527	1766.86
807.71	1797.67
807.894	1790.5
808.077	1800.19
808.26	1747.68
808.444	1710.68
808.627	1775.58
808.81	1771.12
808.993	1679.29
809.177	1689.56
809.36	1734.31
809.543	1731.02
809.726	1626.78
809.909	1694.59
810.092	1650.61
810.276	1644.61
810.459	1662.63
810.642	1646.74
810.825	1637.24
811.008	1650.23
811.191	1559.36
811.374	1582.03
811.557	1586.1
811.74	1682.39
811.923	1533.78
812.106	1549.86
812.289	1502.59
812.472	1527
812.654	1577.18
812.837	1541.92
813.02	1511.5
813.203	1475.08
813.386	1342.56
813.569	1416.76
813.751	1352.63
813.934	1410.56
814.117	1334.61
814.3	1339.07
814.482	1315.24
814.665	1291.41
814.848	1268.16
815.03	1239.48
815.213	1252.85
815.396	1225.34
815.578	1197.05
815.761	1193.56
815.943	1248.59
816.126	1145.9
816.309	1139.12
816.491	1106.76
816.674	1071.5
816.856	1093.2
817.039	1067.43
817.221	1148.23
817.403	1115.68
817.586	1099.02
817.768	1117.42
817.951	1033.14
818.133	1077.12
818.315	1080.61
818.498	1122.85
818.68	1173.03
818.862	1164.31
819.045	1143.96
819.227	1157.53
819.409	1137.76
819.591	1156.75
819.774	1105.8
819.956	1122.07
820.138	1170.12
820.32	1172.64
820.502	1195.69
820.684	1217.01
820.866	1246.26
821.048	1302.06
821.231	1296.44
821.413	1265.83
821.595	1260.6
821.777	1247.81
821.959	1266.99
822.141	1315.62
822.323	1193.37
822.505	1158.3
822.686	1127.3
822.868	1112
823.05	1027.72
823.232	988.39
823.414	921.54
823.596	1010.47
823.778	984.32
823.96	1006.02
824.141	989.35
824.323	1042.44
824.505	1061.62
824.687	1124.78
824.868	1148.03
825.05	1217.59
825.232	1217.39
825.413	1307.49
825.595	1236.38
825.777	1187.36
825.958	1224.37
826.14	1232.51
826.321	1271.06
826.503	1211.78
826.685	1222.04
826.866	1315.82
827.048	1270.09
827.229	1217.98
827.411	1185.43
827.592	1145.9
827.773	1168.76
827.955	1101.15
828.136	1119.94
828.318	1055.81
828.499	1145.13
828.68	1090.88
828.862	1113.35
829.043	1128.46
829.224	1093.4
829.406	1063.75
829.587	1088.94
829.768	1035.08
829.949	1106.76
830.131	1070.92
830.312	1168.18
830.493	1114.9
830.674	1129.43
830.855	1141.25
831.036	1073.83
831.218	1174.19
831.399	1171.86
831.58	1120.33
831.761	1138.35
831.942	1118
832.123	1096.88
832.304	1056.39
832.485	1082.35
832.666	1113.55
832.847	1107.15
833.028	1119.36
833.209	1090.88
833.389	1074.02
833.57	1041.86
833.751	1070.73
833.932	1111.61
834.113	1111.41
834.294	1097.47
834.475	1122.46
834.655	1129.43
834.836	1153.65
835.017	1138.73
835.198	1074.6
835.378	1137.18
835.559	1173.61
835.74	1110.64
835.92	1093.01
836.101	1100.56
836.281	1131.18
836.462	1164.31
836.643	1168.18
836.823	1168.18
837.004	1146.68
837.184	1197.83
837.365	1178.45
837.545	1208.87
837.726	1148.42
837.906	1211.19
838.087	1155.98
838.267	1154.62
838.448	1131.76
838.628	1178.45
838.808	1106.18
838.989	1204.61
839.169	1085.07
839.349	1169.54
839.53	1185.62
839.71	1172.83
839.89	1122.85
840.07	1205.96
840.251	1095.72
840.431	1183.68
840.611	1154.04
840.791	1120.33
840.971	1162.18
841.151	1151.33
841.332	1119.16
841.512	1166.83
841.692	1085.07
841.872	1150.16
842.052	1134.28
842.232	1157.33
842.412	1115.48
842.592	1115.1
842.772	1147.65
842.952	1148.03
843.132	1123.62
843.312	1103.66
843.492	1099.98
843.672	1147.06
843.851	1059.49
844.031	1136.99
844.211	1098.82
844.391	1089.13
844.571	1135.25
844.751	1141.64
844.93	1124.2
845.11	1082.55
845.29	1130.98
845.47	1139.12
845.649	1128.66
845.829	1135.63
846.009	1115.87
846.188	1106.76
846.368	1118.39
846.547	1114.9
846.727	1168.57
846.907	1073.25
847.086	1103.86
847.266	1142.03
847.445	1086.81
847.625	1104.83
847.804	1070.92
847.984	1047.48
848.163	1066.47
848.343	1108.7
848.522	1098.63
848.701	1111.03
848.881	1050.58
849.06	1099.98
849.239	1076.54
849.419	1102.89
849.598	1041.86
849.777	1043.8
849.957	1051.16
850.136	980.83
850.315	990.52
850.494	987.03
850.674	940.14
850.853	1047.48
851.032	1023.07
851.211	1092.82
851.39	1028.68
851.569	957.19
851.748	987.42
851.927	1008.34
852.107	985.29
852.286	946.73
852.465	931.42
852.644	1000.79
852.823	1020.16
853.002	978.5
853.181	1033.72
853.359	1018.61
853.538	957.39
853.717	1009.89
853.896	935.88
854.075	901.78
854.254	891.71
854.433	854.51
854.611	898.49
854.79	828.35
854.969	875.62
855.148	927.55
855.327	852.18
855.505	911.66
855.684	881.05
855.863	881.24
856.041	858.77
856.22	932.97
856.399	884.73
856.577	962.42
856.756	943.63
856.934	1072.28
857.113	1076.73
857.291	956.22
857.47	923.48
857.648	977.34
857.827	971.92
858.005	1004.85
858.184	932.59
858.362	1055.42
858.541	972.3
858.719	957.97
858.898	939.75
859.076	949.64
859.254	1006.4
859.433	915.15
859.611	910.5
859.789	887.25
859.967	950.99
860.146	1008.15
860.324	903.14
860.502	911.86
860.68	878.92
860.859	926.77
861.037	924.45
861.215	932.78
861.393	922.9
861.571	924.64
861.749	888.61
861.927	933.75
862.105	904.11
862.283	907.21
862.461	891.51
862.639	869.62
862.817	919.22
862.995	907.59
863.173	892.29
863.351	884.73
863.529	905.07
863.707	940.53
863.885	899.46
864.063	838.42
864.241	848.89
864.418	932.97
864.596	901.78
864.774	833.78
864.952	842.11
865.129	900.04
865.307	864.77
865.485	804.52
865.663	885.7
865.84	801.23
866.018	845.4
866.196	740.78
866.373	778.36
866.551	745.81
866.728	698.54
866.906	759.96
867.084	754.92
867.261	810.53
867.439	801.03
867.616	809.94
867.794	821.38
867.971	805.1
868.149	817.69
868.326	875.82
868.503	831.64
868.681	832.23
868.858	797.16
869.035	778.17
869.213	806.65
869.39	805.49
869.567	889.96
869.745	805.1
869.922	838.62
870.099	826.03
870.276	846.95
870.454	832.61
870.631	839.97
870.808	799.09
870.985	866.91
871.162	857.41
871.339	837.65
871.517	783.79
871.694	784.18
871.871	807.62
872.048	807.43
872.225	792.89
872.402	806.07
872.579	783.59
872.756	814.79
872.933	757.05
873.11	769.45
873.287	813.82
873.463	756.86
873.64	774.49
873.817	798.71
873.994	774.49
874.171	741.94
874.348	800.64
874.524	722.56
874.701	792.12
874.878	698.73
875.055	750.46
875.231	737.1
875.408	769.26
875.585	696.6
875.762	744.85
875.938	722.56
876.115	735.16
876.291	731.48
876.468	719.66
876.645	685.56
876.821	718.11
876.998	730.12
877.174	726.63
877.351	730.12
877.527	709
877.704	756.66
877.88	747.56
878.057	703.96
878.233	761.31
878.409	723.34
878.586	754.14
878.762	702.8
878.938	717.53
879.115	653.98
879.291	710.55
879.467	651.65
879.644	676.84
879.82	709.97
879.996	673.55
880.172	640.22
880.349	673.93
880.525	719.08
880.701	684.4
880.877	670.25
881.053	699.31
881.229	682.65
881.405	713.07
881.581	662.7
881.757	669.86
881.933	702.03
882.109	698.54
882.285	680.91
882.461	635.57
882.637	708.61
882.813	653.2
882.989	650.68
883.165	726.44
883.341	644.29
883.517	746.98
883.693	692.53
883.869	697.96
884.044	639.06
884.22	709
884.396	728.96
884.572	707.06
884.747	696.8
884.923	691.56
885.099	718.88
885.275	712.3
885.45	670.83
885.626	673.35
885.801	670.83
885.977	659.6
886.153	600.31
886.328	682.07
886.504	661.34
886.679	706.87
886.855	649.33
887.03	687.69
887.206	724.89
887.381	682.07
887.557	695.63
887.732	704.16
887.908	717.33
888.083	690.6
888.258	661.73
888.434	659.6
888.609	681.68
888.784	744.85
888.96	638.28
889.135	671.03
889.31	645.26
889.485	691.37
889.661	621.82
889.836	713.65
890.011	687.88
890.186	645.84
890.361	649.91
890.537	671.41
890.712	695.25
890.887	651.65
891.062	653.4
891.237	699.9
891.412	617.36
891.587	682.07
891.762	709.39
891.937	734.19
892.112	645.65
892.287	639.25
892.462	647
892.637	604.18
892.812	624.92
892.987	623.95
893.161	593.53
893.336	582.29
893.511	607.09
893.686	615.81
893.861	625.69
894.035	593.53
894.21	633.63
894.385	585.2
894.56	618.13
894.734	553.04
894.909	506.92
895.084	588.88
895.258	569.7
895.433	569.12
895.608	532.89
895.782	512.35
895.957	505.95
896.131	533.08
896.306	469.53
896.48	478.06
896.655	481.54
896.829	422.06
897.004	425.94
897.178	438.53
897.353	452.67
897.527	482.51
897.701	497.43
897.876	430.01
898.05	490.07
898.224	473.99
898.399	500.34
898.573	476.89
898.747	393.58
898.921	438.72
899.096	341.27
899.27	375.95
899.444	389.13
899.618	382.34
899.792	414.89
899.967	408.11
900.141	406.17
900.315	362.58
900.489	394.74
900.663	416.25
900.837	384.09
901.011	347.86
901.185	411.41
901.359	394.36
901.533	406.76
901.707	420.51
901.881	422.06
902.055	342.63
902.229	384.09
902.403	453.26
902.576	415.47
902.75	429.23
902.924	529.59
903.098	457.71
903.272	456.36
903.446	494.33
903.619	466.62
903.793	509.44
903.967	449.57
904.14	495.88
904.314	501.89
904.488	492.78
904.661	534.82
904.835	505.57
905.009	518.55
905.182	546.06
905.356	506.34
905.529	487.55
905.703	477.09
905.876	458.1
906.05	441.24
906.223	428.26
906.397	408.69
906.57	415.86
906.744	369.56
906.917	397.07
907.09	393.19
907.264	399.01
907.437	369.56
907.61	338.94
907.784	362.78
907.957	407.34
908.13	324.41
908.304	395.33
908.477	335.65
908.65	371.3
908.823	333.71
908.996	419.16
909.17	354.44
909.343	345.92
909.516	349.02
909.689	365.49
909.862	315.11
910.035	354.44
910.208	330.61
910.381	330.23
910.554	455.39
910.727	338.17
910.9	351.54
911.073	312.98
911.246	407.14
911.419	385.06
911.592	389.51
911.765	343.01
911.938	325.58
912.11	306.78
912.283	332.74
912.456	410.24
912.629	351.73
912.802	324.41
912.974	289.54
913.147	310.08
913.32	226.57
913.493	297.29
913.665	307.75
913.838	294.38
914.01	284.7
914.183	320.73
914.356	262.8
914.528	343.01
914.701	370.33
914.873	342.63
915.046	298.65
915.218	271.71
915.391	236.06
915.563	260.48
915.736	282.18
915.908	322.09
916.081	299.61
916.253	281.01
916.425	276.17
916.598	322.48
916.77	292.64
916.942	276.75
917.115	203.9
917.287	295.55
917.459	295.55
917.632	237.42
917.804	210.1
917.976	258.15
918.148	276.36
918.32	284.11
918.493	316.86
918.665	330.81
918.837	289.93
919.009	341.08
919.181	367.23
919.353	317.83
919.525	312.21
919.697	313.76
919.869	302.52
920.041	365.68
920.213	392.23
920.385	335.46
920.557	296.32
920.729	319.38
920.901	316.86
921.073	312.01
921.244	322.09
921.416	345.34
921.588	317.83
921.76	292.64
921.932	371.69
922.103	306.4
922.275	274.81
922.447	329.06
922.619	232
922.79	309.69
922.962	270.36
923.134	344.76
923.305	264.35
923.477	248.66
923.648	236.06
923.82	306.78
923.991	242.26
924.163	237.42
924.335	259.9
924.506	249.05
924.677	289.35
924.849	240.33
925.02	286.25
925.192	295.74
925.363	269.97
925.535	257.96
925.706	235.48
925.877	291.48
926.049	257.57
926.22	278.88
926.391	257.96
926.562	259.51
926.734	217.08
926.905	295.55
927.076	215.72
927.247	247.88
927.419	201.97
927.59	200.03
927.761	212.43
927.932	217.85
928.103	219.6
928.274	193.44
928.445	159.53
928.616	214.75
928.787	190.53
928.958	243.04
929.129	229.86
929.3	183.95
929.471	169.03
929.642	142.29
929.813	106.84
929.984	194.41
930.155	103.54
930.326	170.77
930.496	119.43
930.667	69.25
930.838	115.75
931.009	80.29
931.18	98.12
931.35	103.93
931.521	85.33
931.692	43.67
931.863	34.96
932.033	79.71
932.204	108.58
932.374	97.73
932.545	57.82
932.716	119.43
932.886	115.75
933.057	13.06
933.227	39.02
933.398	124.27
933.568	51.81
933.739	7.44
933.909	40.96
934.08	100.25
934.25	-5.73
934.421	16.36
934.591	34.76
934.761	25.07
934.932	-20.07
935.102	39.22
935.272	38.64
935.443	26.43
935.613	40.96
935.783	28.76
935.953	4.73
936.123	140.93
936.294	2.41
936.464	11.9
936.634	59.75
936.804	-0.31
936.974	5.89
937.144	39.02
937.314	44.06
937.484	5.51
937.655	4.92
937.825	62.66
937.995	30.5
938.165	81.07
938.334	-5.54
938.504	44.64
938.674	-5.54
938.844	33.79
939.014	82.81
939.184	59.95
939.354	87.27
939.524	76.42
939.694	48.71
939.863	53.75
940.033	101.41
940.203	100.83
940.373	79.9
940.542	94.05
940.712	29.92
940.882	101.6
941.051	93.08
941.221	54.52
941.391	102.19
941.56	60.72
941.73	29.53
941.899	134.93
942.069	47.94
942.238	98.89
942.408	72.15
942.577	78.74
942.747	55.49
942.916	11.12
943.086	40.19
943.255	81.07
943.425	58.01
943.594	60.14
943.763	4.34
943.933	1.63
944.102	-18.91
944.271	45.61
944.441	50.65
944.61	15
944.779	47.74
944.948	124.85
945.117	23.33
945.287	53.94
945.456	-8.83
945.625	29.14
945.794	60.72
945.963	29.34
946.132	66.15
946.301	12.48
946.47	81.65
946.639	-6.89
946.808	17.52
946.977	39.8
947.146	93.66
947.315	8.61
947.484	63.44
947.653	24.88
947.822	35.92
947.991	23.33
948.16	95.4
948.329	74.48
948.498	22.17
948.666	49.68
948.835	69.83
949.004	-6.31
949.173	-20.26
949.341	32.44
949.51	56.27
949.679	82.23
949.847	95.4
950.016	138.8
950.185	125.82
950.353	46.58
950.522	33.6
950.69	68.09
950.859	27.21
951.028	71.57
951.196	51.04
951.365	15.58
951.533	13.26
951.701	79.9
951.87	86.3
952.038	29.53
952.207	58.01
952.375	132.41
952.543	10.74
952.712	18.68
952.88	21.01
953.048	107.03
953.217	33.41
953.385	33.02
953.553	76.42
953.721	8.41
953.89	34.57
954.058	17.71
954.226	-5.34
954.394	42.12
954.562	-3.21
954.73	66.54
954.898	17.71
955.067	66.92
955.235	44.64
955.403	66.73
955.571	104.7
955.739	71.57
955.907	19.46
956.075	0.66
956.243	5.12
956.41	62.08
956.578	-9.99
956.746	0.08
956.914	27.4
957.082	47.16
957.25	48.71
957.418	21.01
957.585	55.3
957.753	90.37
957.921	9.77
958.089	41.93
958.256	55.3
958.424	42.71
958.592	53.36
958.759	11.9
958.927	57.43
959.095	33.41
959.262	18.29
959.43	48.52
959.597	6.09
959.765	57.43
959.932	14.81
960.1	64.21
960.267	37.28
960.435	40.57
960.602	91.53
960.77	5.12
960.937	-11.16
961.104	33.79
961.272	6.47
961.439	45.03
961.606	70.41
961.774	52.78
961.941	3.18
962.108	59.17
962.275	54.33
962.443	101.8
962.61	43.29
962.777	103.54
962.944	75.64
963.111	77.39
963.278	69.83
963.446	47.16
963.613	44.84
963.78	66.54
963.947	84.75
964.114	73.7
964.281	127.57
964.448	66.54
964.615	22.56
964.782	63.05
964.949	71.77
965.116	66.54
965.282	104.32
965.449	33.02
965.616	8.8
965.783	66.15
965.95	65.76
966.117	20.23
966.283	78.94
966.45	64.99
966.617	59.75
966.784	91.72
966.95	78.55
967.117	52.39
967.284	33.21
967.45	3.57
967.617	106.06
967.784	83.39
967.95	102.77
968.117	56.46
968.283	101.8
968.45	147.33
968.616	55.49
968.783	97.34
968.949	64.4
969.116	81.65
969.282	37.47
969.449	92.3
969.615	76.03
969.781	5.89
969.948	52.59
970.114	13.84
970.28	142.48
970.447	53.36
970.613	101.8
970.779	73.51
970.945	87.07
971.112	76.8
971.278	71.38
971.444	56.27
971.61	92.89
971.776	41.74
971.942	85.72
972.108	71.57
972.275	51.23
972.441	60.53
972.607	146.36
972.773	37.67
972.939	72.93
973.105	49.1
973.271	8.99
973.437	55.88
973.602	33.41
973.768	89.98
973.934	48.91
974.1	77.39
974.266	-2.83
974.432	75.84
974.598	31.66
974.763	96.57
974.929	56.27
975.095	129.12
975.261	75.64
975.426	27.59
975.592	64.21
975.758	124.27
975.923	-6.51
976.089	53.75
976.255	61.89
976.42	87.07
976.586	58.4
976.751	68.47
976.917	126.99
977.082	73.51
977.248	21.78
977.413	-0.11
977.579	41.74
977.744	89.98
977.91	28.76
978.075	32.24
978.24	66.54
978.406	48.91
978.571	21.01
978.736	22.94
978.902	83.97
979.067	2.6
979.232	-12.71
979.397	77.97
979.563	106.45
979.728	32.82
979.893	64.6
980.058	19.07
980.223	90.17
980.388	57.24
980.554	18.49
980.719	33.99
980.884	78.74
981.049	91.34
981.214	25.46
981.379	68.86
981.544	29.14
981.709	24.11
981.874	38.06
982.039	46
982.204	82.42
982.368	46.58
982.533	27.98
982.698	97.73
982.863	83.59
983.028	30.31
983.193	51.04
983.357	50.46
983.522	52
983.687	54.72
983.852	18.49
984.016	46
984.181	84.94
984.346	82.81
984.51	61.3
984.675	73.9
984.839	77
985.004	72.93
985.168	89.2
985.333	88.43
985.498	49.29
985.662	83
985.827	60.14
985.991	38.25
986.155	54.72
986.32	92.69
986.484	117.49
986.649	66.92
986.813	10.93
986.977	69.05
987.142	64.6
987.306	12.48
987.47	9.77
987.634	57.43
987.799	41.74
987.963	60.34
988.127	64.79
988.291	121.75
988.455	33.99
988.62	43.29
988.784	49.68
988.948	69.83
989.112	7.25
989.276	59.17
989.44	71.19
989.604	38.06
989.768	44.84
989.932	123.11
990.096	18.29
990.26	18.68
990.424	10.35
990.588	53.36
990.752	128.15
990.915	59.56
991.079	35.92
991.243	-1.86
991.407	80.29
991.571	23.72
991.734	64.21
991.898	77.97
992.062	141.32
992.226	60.14
992.389	3.37
992.553	-2.24
992.717	-0.5
992.88	51.62
993.044	62.47
993.207	32.24
993.371	58.4
993.535	51.81
993.698	57.62
993.862	84.55
994.025	99.47
994.189	69.05
994.352	58.59
994.515	49.87
994.679	98.31
994.842	36.12
995.006	94.63
995.169	22.56
995.332	38.83
995.496	83.59
995.659	2.79
995.822	34.57
995.985	42.32
996.149	103.93
996.312	45.81
996.475	98.12
996.638	40.96
996.801	94.24
996.964	115.55
997.128	24.11
997.291	38.44
997.454	56.65
997.617	-7.09
997.78	81.07
997.943	21.59
998.106	77
998.269	33.79
998.432	51.81
998.595	34.18
998.758	0.08
998.92	1.82
999.083	11.71
999.246	42.9
999.409	-9.8
999.572	-22.39
999.735	25.07
999.897	39.8
1000.06	27.01
1000.223	46.19
1000.386	86.3
1000.548	62.27
1000.711	38.44
1000.874	52.2
1001.036	-8.25
1001.199	76.03
1001.361	33.21
1001.524	31.86
1001.687	56.85
1001.849	9.57
1002.012	29.72
1002.174	47.36
1002.337	58.79
1002.499	27.79
1002.661	82.42
1002.824	14.42
1002.986	15.77
1003.149	35.92
1003.311	40.96
1003.473	75.45
1003.636	33.02
1003.798	61.69
1003.96	39.8
1004.123	41.35
1004.285	48.71
1004.447	47.16
1004.609	33.6
1004.771	55.69
1004.933	5.7
1005.096	10.93
1005.258	-3.41
1005.42	29.34
1005.582	53.94
1005.744	36.89
1005.906	-14.45
1006.068	11.51
1006.23	-4.96
1006.392	-6.12
1006.554	-3.6
1006.716	54.52
1006.878	50.46
1007.04	1.82
1007.202	-9.61
1007.363	34.57
1007.525	41.74
1007.687	37.28
1007.849	70.6
1008.011	-33.83
1008.172	4.15
1008.334	0.66
1008.496	40.57
1008.658	-22.78
1008.819	-17.36
1008.981	-8.25
1009.143	11.12
1009.304	4.92
1009.466	44.84
1009.627	76.42
1009.789	137.84
1009.95	61.3
1010.112	-7.48
1010.273	31.47
1010.435	18.1
1010.596	12.29
1010.758	-5.34
1010.919	0.66
1011.081	-20.65
1011.242	34.37
1011.403	64.21
1011.565	13.06
1011.726	25.27
1011.887	-10.77
1012.049	23.91
1012.21	48.91
1012.371	74.87
1012.532	-36.54
1012.693	23.72
1012.855	12.48
1013.016	13.45
1013.177	60.92
1013.338	22.75
1013.499	88.04
1013.66	61.3
1013.821	31.47
1013.982	22.56
1014.143	29.34
1014.304	4.54
1014.465	67.31
1014.626	38.64
1014.787	15.19
1014.948	101.8
1015.109	-56.3
1015.27	53.17
1015.431	0.08
1015.592	6.47
1015.752	73.51
1015.913	34.76
1016.074	39.02
1016.235	31.27
1016.395	8.41
1016.556	39.41
1016.717	14.61
1016.877	92.3
1017.038	-7.28
1017.199	20.81
1017.359	8.61
1017.52	61.89
1017.681	0.86
1017.841	17.52
1018.002	12.09
1018.162	18.87
1018.323	56.27
1018.483	18.87
1018.644	25.85
1018.804	-36.92
1018.964	-25.11
1019.125	24.3
1019.285	9.77
1019.446	-22.78
1019.606	-12.51
1019.766	-43.12
1019.926	18.87
1020.087	32.44
1020.247	-25.69
1020.407	21.78
1020.567	79.9
1020.728	-6.7
1020.888	-45.06
1021.048	2.79
1021.208	-14.64
1021.368	-49.71
1021.528	55.1
1021.688	48.91
1021.848	36.7
1022.008	34.96
1022.168	1.82
1022.328	-4.18
1022.488	35.34
1022.648	-40.02
1022.808	18.29
1022.968	34.76
1023.128	-24.14
1023.288	-3.41
1023.448	3.96
1023.608	26.24
1023.767	46
1023.927	0.08
1024.087	-5.34
1024.247	-30.34
1024.406	27.59
1024.566	-12.9
1024.726	-18.13
1024.885	39.8
1025.045	33.99
1025.205	3.76
1025.364	-8.25
1025.524	21.2
1025.683	19.46
1025.843	14.42
1026.003	-0.5
1026.162	58.01
1026.321	13.84
1026.481	25.66
1026.64	-7.86
1026.8	13.45
1026.959	28.76
1027.119	20.42
1027.278	-23.17
1027.437	-30.73
1027.597	11.71
1027.756	38.25
1027.915	37.47
1028.074	36.51
1028.234	-10.77
1028.393	16.74
1028.552	21.2
1028.711	-66.96
1028.87	40.57
1029.03	-17.16
1029.189	12.09
1029.348	-40.99
1029.507	-1.28
1029.666	-15.81
1029.825	-47.97
1029.984	-18.52
1030.143	19.26
1030.302	7.64
1030.461	-49.32
1030.62	20.81
1030.779	27.59
1030.938	-2.63
1031.097	-40.61
1031.255	19.46
1031.414	43.67
1031.573	47.16
1031.732	-37.12
1031.891	-2.63
1032.049	42.32
1032.208	27.4
1032.367	-33.63
1032.525	14.22
1032.684	3.37
1032.843	15.58
1033.001	-17.16
1033.16	151.01
1033.319	46.77
1033.477	30.31
1033.636	-39.83
1033.794	-36.34
1033.953	27.59
1034.111	51.04
1034.27	0.47
1034.428	36.89
1034.587	-25.88
1034.745	-0.11
1034.903	7.83
1035.062	22.56
1035.22	-43.12
1035.378	33.02
1035.537	-9.22
1035.695	24.11
1035.853	3.76
1036.011	48.52
1036.17	9.57
1036.328	-69.09
1036.486	-0.5
1036.644	2.21
1036.802	-74.71
1036.96	-33.24
1037.119	-1.08
1037.277	-26.66
1037.435	-28.01
1037.593	-19.29
1037.751	8.02
1037.909	21.97
1038.067	21.97
