Data from pine_FLMT105791__107__17-22-06-075.txt Node

Date: Mon Mar 20 17:22:06 GMT 2023
User: antho
Spectrometer: FLMT10579
Trigger mode: 0
Integration Time (sec): 1.000000E-1
Scans to average: 10
Electric dark correction enabled: true
Nonlinearity correction enabled: false
Boxcar width: 0
XAxis mode: Wavelengths
Number of Pixels in Spectrum: 3648
>>>>>Begin Spectral Data<<<<<
345.248	-179.38
345.464	-179.38
345.681	-179.38
345.898	-164.27
346.114	-175.5
346.331	-43.37
346.548	9.14
346.764	-12.56
346.981	2.36
347.197	2.16
347.414	9.14
347.631	-20.89
347.847	51.57
348.064	3.71
348.28	34.71
348.497	-49.95
348.713	13.98
348.93	30.64
349.146	23.67
349.363	-15.85
349.579	18.24
349.796	-19.54
350.012	-22.25
350.229	29.68
350.445	-25.74
350.661	-11.79
350.878	5.26
351.094	-2.49
351.311	12.82
351.527	22.51
351.743	-19.54
351.96	19.99
352.176	45.95
352.392	31.23
352.609	17.86
352.825	-8.3
353.041	1.97
353.257	-12.95
353.474	-20.5
353.69	1.97
353.906	21.15
354.122	-10.62
354.339	61.84
354.555	-1.91
354.771	-43.75
354.987	74.82
355.203	61.84
355.42	-19.54
355.636	11.46
355.852	-25.35
356.068	0.03
356.284	-21.28
356.5	73.07
356.716	18.24
356.932	7.39
357.148	5.26
357.364	1.97
357.58	51.76
357.796	62.03
358.012	44.59
358.228	22.89
358.444	-47.05
358.66	56.03
358.876	17.86
359.092	-8.11
359.308	19.41
359.524	11.27
359.74	-25.54
359.956	-20.5
360.172	19.41
360.388	23.28
360.604	-32.32
360.819	97.68
361.035	1.58
361.251	44.01
361.467	-5.59
361.683	44.4
361.898	-7.91
362.114	30.06
362.33	12.04
362.546	32.58
362.762	-27.29
362.977	0.03
363.193	-41.04
363.409	20.57
363.624	-9.46
363.84	7.01
364.056	-7.72
364.271	19.21
364.487	19.21
364.703	-36.59
364.918	-40.07
365.134	-7.14
365.35	12.82
365.565	86.64
365.781	10.3
365.996	-5.97
366.212	39.94
366.427	18.24
366.643	-11.4
366.858	-37.75
367.074	-37.17
367.289	59.32
367.505	92.45
367.72	-36.97
367.936	-34.65
368.151	12.43
368.367	13.98
368.582	21.54
368.798	-6.75
369.013	46.73
369.228	-1.91
369.444	1.58
369.659	46.73
369.874	29.29
370.09	55.06
370.305	-49.37
370.52	-30.39
370.736	53.89
370.951	8.56
371.166	21.34
371.381	49.83
371.597	27.16
371.812	-43.17
372.027	-22.83
372.242	-17.21
372.458	70.94
372.673	12.04
372.888	-2.68
373.103	18.24
373.318	67.65
373.533	8.17
373.749	35.68
373.964	-57.7
374.179	48.86
374.394	-11.4
374.609	55.83
374.824	-21.86
375.039	71.53
375.254	-31.55
375.469	74.24
375.684	5.07
375.899	25.22
376.114	-14.69
376.329	28.51
376.544	64.74
376.759	43.04
376.974	-20.89
377.189	0.81
377.404	-7.14
377.619	31.42
377.834	-48.99
378.049	-30.19
378.264	-21.09
378.478	14.18
378.693	-41.04
378.908	23.86
379.123	1.58
379.338	27.74
379.553	5.46
379.767	19.99
379.982	16.69
380.197	15.73
380.412	11.27
380.626	45.76
380.841	69.78
381.056	6.23
381.271	44.4
381.485	-2.49
381.7	-26.7
381.915	25.8
382.129	-10.43
382.344	30.45
382.559	4.29
382.773	43.82
382.988	-17.02
383.202	24.25
383.417	-17.99
383.632	105.62
383.846	0.81
384.061	14.37
384.275	17.47
384.49	19.02
384.704	21.34
384.919	42.66
385.133	2.74
385.348	14.95
385.562	-39.1
385.777	28.13
385.991	5.84
386.206	-13.92
386.42	-2.1
386.634	61.45
386.849	2.74
387.063	36.84
387.277	-27.09
387.492	-4.42
387.706	-6.17
387.92	-46.47
388.135	35.68
388.349	12.43
388.563	22.89
388.778	43.43
388.992	29.87
389.206	25.8
389.42	85.47
389.635	9.14
389.849	39.36
390.063	47.31
390.277	17.66
390.491	90.71
390.706	37.62
390.92	42.85
391.134	38.59
391.348	39.56
391.562	-47.05
391.776	26.77
391.99	-27.09
392.205	43.04
392.419	0.61
392.633	11.46
392.847	81.79
393.061	-10.62
393.275	91.29
393.489	34.33
393.703	12.63
393.917	37.23
394.131	9.33
394.345	29.48
394.559	53.7
394.773	-11.98
394.986	41.69
395.2	10.11
395.414	55.64
395.628	-35.42
395.842	24.44
396.056	-10.62
396.27	-37.36
396.484	12.43
396.697	34.33
396.911	60.09
397.125	33.74
397.339	46.53
397.553	46.73
397.766	65.71
397.98	49.05
398.194	90.32
398.408	-0.94
398.621	56.61
398.835	29.87
399.049	48.86
399.262	62.81
399.476	54.48
399.69	20.57
399.903	82.57
400.117	25.22
400.331	28.9
400.544	17.66
400.758	143.99
400.971	33.55
401.185	52.54
401.398	4.49
401.612	45.76
401.826	66.49
402.039	82.18
402.253	5.84
402.466	47.31
402.68	16.31
402.893	30.26
403.106	44.79
403.32	43.43
403.533	58.35
403.747	24.44
403.96	37.81
404.174	63.58
404.387	-14.89
404.6	29.68
404.814	95.36
405.027	43.43
405.24	51.18
405.454	13.59
405.667	47.89
405.88	-14.89
406.094	28.9
406.307	46.53
406.52	62.61
406.733	23.67
406.947	-12.95
407.16	95.36
407.373	90.9
407.586	4.1
407.799	1.58
408.012	73.85
408.226	38.01
408.439	95.36
408.652	3.52
408.865	73.27
409.078	87.22
409.291	61.84
409.504	-9.46
409.717	50.79
409.93	43.04
410.143	55.64
410.357	-3.46
410.57	3.52
410.783	43.43
410.996	84.89
411.209	3.33
411.421	63.97
411.634	37.62
411.847	4.29
412.06	41.11
412.273	26.58
412.486	32.78
412.699	111.82
412.912	36.84
413.125	52.54
413.338	20.57
413.55	68.43
413.763	41.3
413.976	55.06
414.189	38.01
414.402	26.96
414.615	84.51
414.827	14.95
415.04	73.07
415.253	63
415.466	81.79
415.678	104.85
415.891	47.69
416.104	74.62
416.316	43.63
416.529	3.52
416.742	64.55
416.954	96.13
417.167	38.78
417.38	22.89
417.592	58.16
417.805	28.51
418.017	4.29
418.23	72.49
418.442	26.96
418.655	41.69
418.868	42.66
419.08	105.24
419.293	92.84
419.505	67.07
419.718	70.75
419.93	93.81
420.142	29.87
420.355	83.92
420.567	114.34
420.78	67.46
420.992	30.84
421.205	114.92
421.417	28.9
421.629	50.79
421.842	-9.46
422.054	3.13
422.266	83.92
422.479	99.62
422.691	45.95
422.903	81.99
423.115	57.58
423.328	65.91
423.54	54.48
423.752	46.73
423.964	26.19
424.177	61.45
424.389	52.54
424.601	199.98
424.813	49.83
425.025	110.66
425.238	101.36
425.45	49.83
425.662	39.36
425.874	331.73
426.086	57.38
426.298	77.14
426.51	59.13
426.722	61.26
426.934	33.74
427.146	77.53
427.358	20.57
427.57	112.6
427.782	46.14
427.994	55.06
428.206	44.4
428.418	22.7
428.63	73.66
428.842	108.34
429.054	99.81
429.266	81.41
429.478	41.69
429.69	76.95
429.902	21.34
430.114	91.29
430.325	75.79
430.537	53.51
430.749	41.88
430.961	26.77
431.173	60.48
431.384	83.54
431.596	14.95
431.808	69.01
432.02	77.72
432.231	107.76
432.443	116.86
432.655	71.91
432.867	50.99
433.078	101.56
433.29	152.51
433.502	121.9
433.713	116.47
433.925	71.53
434.136	90.9
434.348	57.19
434.56	29.68
434.771	167.24
434.983	49.05
435.194	72.69
435.406	66.68
435.617	124.42
435.829	145.15
436.04	117.83
436.252	115.89
436.463	133.52
436.675	127.71
436.886	99.23
437.098	113.57
437.309	141.27
437.521	74.82
437.732	103.88
437.943	89.35
438.155	110.66
438.366	45.37
438.578	142.44
438.789	95.55
439	111.82
439.211	104.07
439.423	113.76
439.634	137.4
439.845	132.75
440.057	113.18
440.268	134.11
440.479	74.24
440.69	132.75
440.902	108.34
441.113	115.7
441.324	124.03
441.535	134.3
441.746	167.82
441.957	66.88
442.168	83.92
442.38	137.01
442.591	126.16
442.802	98.46
443.013	85.86
443.224	128.1
443.435	129.26
443.646	100.01
443.857	123.06
444.068	85.86
444.279	111.82
444.49	178.47
444.701	131.01
444.912	218.19
445.123	161.04
445.334	148.44
445.545	127.13
445.756	143.21
445.967	81.41
446.178	123.06
446.388	160.45
446.599	168.98
446.81	159.49
447.021	127.91
447.232	156
447.443	199.2
447.653	97.49
447.864	179.64
448.075	143.79
448.286	156.97
448.496	150.19
448.707	194.75
448.918	148.06
449.129	230.01
449.339	122.87
449.55	177.5
449.761	157.94
449.971	231.17
450.182	135.07
450.393	173.44
450.603	119.19
450.814	183.7
451.024	187.19
451.235	188.55
451.446	202.5
451.656	226.14
451.867	151.93
452.077	209.67
452.288	236.79
452.498	244.35
452.709	166.46
452.919	204.63
453.13	143.99
453.34	205.4
453.55	116.47
453.761	202.11
453.971	174.02
454.182	187
454.392	206.76
454.602	248.8
454.813	200.75
455.023	222.65
455.233	138.56
455.444	196.88
455.654	108.14
455.864	183.51
456.075	199.2
456.285	158.91
456.495	193.78
456.705	182.54
456.916	211.6
457.126	225.94
457.336	197.27
457.546	134.3
457.756	136.24
457.967	199.2
458.177	183.7
458.387	201.34
458.597	134.3
458.807	174.21
459.017	165.69
459.227	187.39
459.437	210.83
459.647	222.65
459.857	225.55
460.068	156.39
460.278	222.45
460.488	201.34
460.698	286.58
460.908	199.79
461.117	151.93
461.327	180.02
461.537	199.4
461.747	218.77
461.957	210.64
462.167	308.87
462.377	216.64
462.587	210.64
462.797	253.84
463.007	209.86
463.216	246.87
463.426	240.28
463.636	225.36
463.846	170.34
464.056	199.59
464.265	222.65
464.475	185.25
464.685	206.57
464.895	242.99
465.104	207.34
465.314	240.86
465.524	184.09
465.733	171.69
465.943	304.41
466.153	273.8
466.362	257.72
466.572	240.09
466.782	211.6
466.991	205.02
467.201	273.8
467.41	193.97
467.62	226.33
467.829	220.9
468.039	236.6
468.249	221.1
468.458	242.6
468.668	255.97
468.877	264.5
469.086	273.99
469.296	269.53
469.505	208.5
469.715	291.23
469.924	249.58
470.134	234.27
470.343	313.71
470.552	228.46
470.762	230.98
470.971	212.96
471.18	226.14
471.39	225.55
471.599	220.71
471.808	289.3
472.018	205.02
472.227	268.76
472.436	290.27
472.645	227.3
472.855	236.79
473.064	301.31
473.273	279.61
473.482	286.97
473.691	300.92
473.901	312.93
474.11	270.12
474.319	352.26
474.528	259.65
474.737	318.94
474.946	271.47
475.155	284.84
475.364	324.37
475.573	271.47
475.783	290.46
475.992	310.61
476.201	331.92
476.41	290.46
476.619	264.88
476.828	278.45
477.037	269.34
477.245	279.8
477.454	332.89
477.663	315.45
477.872	292.01
478.081	349.55
478.29	285.42
478.499	391.21
478.708	291.43
478.917	387.53
479.125	319.33
479.334	329.98
479.543	341.8
479.752	354.4
479.961	337.35
480.169	352.46
480.378	306.54
480.587	445.26
480.796	388.5
481.004	351.68
481.213	370.28
481.422	355.56
481.63	347.23
481.839	360.01
482.048	419.3
482.256	362.53
482.465	354.98
482.674	389.66
482.882	381.33
483.091	426.47
483.299	375.32
483.508	391.79
483.716	380.16
483.925	385.2
484.134	349.36
484.342	351.88
484.551	417.95
484.759	389.85
484.967	431.7
485.176	406.51
485.384	416.4
485.593	407.29
485.801	411.16
486.01	413.68
486.218	367.38
486.426	302.28
486.635	356.14
486.843	369.7
487.051	407.87
487.26	358.08
487.468	393.34
487.676	407.68
487.885	377.65
488.093	407.1
488.301	404.96
488.509	422.4
488.717	428.21
488.926	409.81
489.134	392.95
489.342	427.83
489.55	378.81
489.758	418.91
489.967	397.6
490.175	507.07
490.383	417.17
490.591	490.02
490.799	390.05
491.007	468.32
491.215	443.33
491.423	422.59
491.631	430.54
491.839	440.81
492.047	500.09
492.255	421.63
492.463	389.08
492.671	427.05
492.879	478.78
493.087	433.64
493.295	497.58
493.503	516.95
493.711	480.33
493.919	510.94
494.127	517.14
494.334	499.71
494.542	442.74
494.75	481.88
494.958	452.63
495.166	541.36
495.374	502.81
495.581	477.62
495.789	481.3
495.997	554.34
496.205	476.26
496.412	493.7
496.62	469.87
496.828	502.42
497.035	498.74
497.243	537.87
497.451	514.62
497.658	515.59
497.866	497.38
498.074	560.74
498.281	485.95
498.489	570.81
498.696	508.43
498.904	495.06
499.112	512.88
499.319	576.43
499.527	510.36
499.734	561.51
499.942	469.09
500.149	487.89
500.357	544.66
500.564	488.47
500.771	535.55
500.979	460.57
501.186	510.56
501.394	528.96
501.601	540.78
501.808	527.02
502.016	529.74
502.223	527.41
502.43	511.52
502.638	539.23
502.845	515.79
503.052	581.66
503.26	516.37
503.467	564.61
503.674	556.47
503.881	539.04
504.089	614.6
504.296	577.79
504.503	535.74
504.71	542.72
504.917	508.04
505.125	568.29
505.332	546.98
505.539	563.26
505.746	634.17
505.953	586.51
506.16	571.39
506.367	632.04
506.574	634.55
506.781	613.05
506.988	560.54
507.195	577.4
507.402	549.31
507.609	630.29
507.816	546.21
508.023	564.03
508.23	565.58
508.437	558.41
508.644	600.07
508.851	624.48
509.058	616.92
509.265	622.74
509.472	621.77
509.679	698.88
509.885	614.02
510.092	619.25
510.299	594.64
510.506	627.19
510.713	633.78
510.92	636.69
511.126	646.18
511.333	664.59
511.54	668.07
511.746	679.7
511.953	662.26
512.16	725.62
512.367	648.31
512.573	642.69
512.78	670.2
512.987	642.5
513.193	644.63
513.4	575.27
513.606	612.08
513.813	648.31
514.02	640.75
514.226	715.35
514.433	725.81
514.639	617.31
514.846	674.08
515.052	664.39
515.259	661.87
515.465	695.2
515.672	715.93
515.878	756.42
516.085	677.95
516.291	756.03
516.497	633
516.704	675.44
516.91	620.6
517.117	614.99
517.323	598.13
517.529	648.12
517.736	630.29
517.942	640.75
518.148	649.09
518.354	653.74
518.561	648.12
518.767	671.17
518.973	692.29
519.179	683.96
519.386	645.99
519.592	646.37
519.798	652.38
520.004	716.12
520.21	680.67
520.417	745.38
520.623	784.71
520.829	782.77
521.035	747.51
521.241	761.85
521.447	769.98
521.653	860.27
521.859	750.22
522.065	781.41
522.271	866.47
522.477	816.29
522.683	822.68
522.889	821.91
523.095	792.65
523.301	800.79
523.507	753.32
523.713	797.88
523.919	774.05
524.125	821.52
524.331	810.28
524.537	854.26
524.742	850.97
524.948	886.81
525.154	872.86
525.36	963.34
525.566	851.75
525.772	915.49
525.977	804.66
526.183	853.88
526.389	892.24
526.595	815.32
526.8	812.03
527.006	818.42
527.212	779.28
527.417	779.09
527.623	763.2
527.829	827.33
528.034	827.91
528.24	825.01
528.446	811.25
528.651	890.69
528.857	849.61
529.062	902.7
529.268	891.08
529.473	894.76
529.679	862.79
529.884	960.44
530.09	955.21
530.295	953.07
530.501	949.78
530.706	932.73
530.912	867.44
531.117	920.33
531.323	915.88
531.528	964.89
531.733	955.4
531.939	934.86
532.144	1009.46
532.35	927.89
532.555	987.56
532.76	989.69
532.966	964.51
533.171	932.54
533.376	915.68
533.581	870.54
533.787	920.14
533.992	954.82
534.197	996.09
534.402	954.62
534.607	935.64
534.813	1035.61
535.018	938.16
535.223	934.48
535.428	970.51
535.633	1013.14
535.838	967.61
536.043	1001.32
536.249	1077.65
536.454	1007.32
536.659	974.39
536.864	983.3
537.069	962.76
537.274	993.76
537.479	1002.48
537.684	973.22
537.889	945.71
538.094	1060.6
538.299	1004.22
538.504	998.41
538.708	988.34
538.913	1022.05
539.118	995.89
539.323	1033.29
539.528	988.92
539.733	1022.82
539.938	1020.89
540.142	1053.24
540.347	998.22
540.552	968.77
540.757	992.79
540.962	976.13
541.166	961.02
541.371	945.13
541.576	991.44
541.781	913.16
541.985	1013.72
542.19	998.02
542.395	1050.34
542.599	1113.5
542.804	1019.34
543.008	1078.62
543.213	1018.76
543.418	983.3
543.622	1022.24
543.827	965.47
544.031	1066.8
544.236	1092.77
544.44	1032.9
544.645	1094.12
544.849	1036.97
545.054	1063.32
545.258	1139.85
545.463	1118.15
545.667	1047.24
545.872	1042.97
546.076	1079.2
546.281	1055.95
546.485	1029.02
546.689	1093.35
546.894	1122.8
547.098	1042.39
547.302	996.86
547.507	1056.92
547.711	1075.33
547.915	1098
548.119	1001.32
548.324	1045.49
548.528	1107.49
548.732	1065.45
548.936	1119.31
549.141	1110.98
549.345	1045.69
549.549	1081.53
549.753	1068.94
549.957	1148.57
550.161	1128.8
550.366	1057.31
550.57	1074.17
550.774	1071.07
550.978	1078.62
551.182	1105.94
551.386	1046.65
551.59	1055.95
551.794	1066.61
551.998	1088.7
552.202	1082.89
552.406	1058.09
552.61	1074.55
552.814	1077.07
553.018	1149.73
553.222	1107.88
553.426	1050.14
553.63	1169.3
553.833	1070.1
554.037	1039.29
554.241	1099.35
554.445	1082.3
554.649	1057.31
554.853	1070.1
555.056	1132.48
555.26	1142.17
555.464	1082.89
555.668	1113.11
555.871	1151.47
556.075	1114.47
556.279	1047.43
556.483	1020.31
556.686	1086.18
556.89	1083.66
557.094	1098.58
557.297	1057.31
557.501	1128.42
557.704	1033.29
557.908	1120.28
558.112	1035.8
558.315	1100.9
558.519	1071.65
558.722	1070.68
558.926	1067.97
559.129	979.23
559.333	988.14
559.536	1037.74
559.74	1029.02
559.943	999.19
560.147	991.82
560.35	1012.75
560.553	1028.06
560.757	937.77
560.96	1078.43
561.164	1007.71
561.367	1083.47
561.57	1063.12
561.774	1081.53
561.977	1013.33
562.18	998.61
562.384	1106.33
562.587	1039.87
562.79	1014.88
562.993	1018.76
563.197	1046.46
563.4	1104.97
563.603	1067.97
563.806	1140.23
564.009	989.5
564.212	1045.49
564.416	963.73
564.619	1046.27
564.822	987.17
565.025	1060.22
565.228	1012.94
565.431	1013.33
565.634	926.14
565.837	999.19
566.04	964.51
566.243	948.62
566.446	894.56
566.649	1007.91
566.852	943
567.055	972.26
567.258	990.66
567.461	1056.54
567.664	1023.21
567.867	930.41
568.07	1011.59
568.273	981.75
568.475	1020.5
568.678	968.19
568.881	976.91
569.084	950.94
569.287	876.93
569.489	878.68
569.692	969.35
569.895	995.51
570.098	907.35
570.3	920.72
570.503	853.1
570.706	910.45
570.909	891.08
571.111	832.95
571.314	863.37
571.516	912.19
571.719	912.19
571.922	883.33
572.124	856.78
572.327	894.76
572.529	798.46
572.732	854.26
572.935	914.13
573.137	949.2
573.34	856.01
573.542	905.22
573.745	919.17
573.947	900.18
574.15	858.72
574.352	883.33
574.554	930.6
574.757	839.35
574.959	849.81
575.162	849.23
575.364	869.96
575.566	927.11
575.769	830.05
575.971	862.98
576.173	786.26
576.376	847.87
576.578	912.39
576.78	920.14
576.982	789.55
577.185	834.31
577.387	805.05
577.589	808.54
577.791	883.91
577.993	870.15
578.196	813.38
578.398	874.41
578.6	864.34
578.802	760.68
579.004	785.87
579.206	812.8
579.408	864.92
579.61	800.01
579.812	839.93
580.014	796.33
580.216	792.46
580.418	803.5
580.62	799.05
580.822	753.13
581.024	819.2
581.226	821.91
581.428	797.11
581.63	897.86
581.832	785.68
582.034	881.78
582.236	829.85
582.438	852.71
582.64	892.43
582.841	898.63
583.043	904.25
583.245	843.03
583.447	859.11
583.649	821.33
583.85	841.48
584.052	880.81
584.254	779.09
584.456	870.54
584.657	804.08
584.859	853.88
585.061	802.34
585.262	797.11
585.464	793.62
585.666	845.74
585.867	810.67
586.069	883.33
586.27	825.78
586.472	821.91
586.674	787.42
586.875	807.76
587.077	808.35
587.278	800.21
587.48	804.66
587.681	894.37
587.883	818.23
588.084	774.05
588.285	779.86
588.487	783.74
588.688	782.58
588.89	739.18
589.091	744.22
589.292	733.37
589.494	712.44
589.695	724.07
589.896	636.69
590.098	675.24
590.299	705.85
590.5	686.67
590.702	692.87
590.903	705.08
591.104	779.28
591.305	750.61
591.507	778.7
591.708	774.44
591.909	736.47
592.11	805.05
592.311	781.22
592.512	741.89
592.714	701.4
592.915	708.95
593.116	704.69
593.317	751.19
593.518	737.63
593.719	731.82
593.92	751.97
594.121	787.23
594.322	733.95
594.523	759.72
594.724	709.73
594.925	711.67
595.126	746.73
595.327	742.67
595.528	755.45
595.729	764.75
595.929	743.05
596.13	729.68
596.331	753.32
596.532	755.07
596.733	759.13
596.934	791.49
597.135	766.11
597.335	766.11
597.536	699.27
597.737	756.81
597.938	720.58
598.138	744.99
598.339	749.25
598.54	735.3
598.74	711.47
598.941	765.14
599.142	795.36
599.342	771.92
599.543	723.48
599.744	724.45
599.944	754.68
600.145	719.22
600.345	750.8
600.546	843.61
600.746	811.06
600.947	819.78
601.147	789.55
601.348	766.5
601.548	692.87
601.749	754.68
601.949	722.13
602.15	703.92
602.35	733.56
602.551	790.33
602.751	693.26
602.951	717.48
603.152	679.7
603.352	768.24
603.552	725.23
603.753	773.28
603.953	783.55
604.153	775.99
604.354	727.75
604.554	724.84
604.754	746.54
604.954	726.2
605.155	769.79
605.355	732.2
605.555	793.62
605.755	806.21
605.955	727.36
606.155	780.64
606.356	732.4
606.556	785.1
606.756	780.45
606.956	695.39
607.156	789.75
607.356	710.7
607.556	735.5
607.756	739.76
607.956	794.98
608.156	757.2
608.356	704.88
608.556	763.2
608.756	735.11
608.956	705.66
609.156	728.72
609.356	719.42
609.556	681.05
609.755	752.35
609.955	680.67
610.155	707.02
610.355	696.36
610.555	700.23
610.755	724.26
610.954	653.15
611.154	709.15
611.354	762.62
611.554	682.99
611.753	682.22
611.953	664.59
612.153	726
612.352	708.76
612.552	667.88
612.752	630.68
612.951	687.64
613.151	694.23
613.351	673.3
613.55	677.95
613.75	752.93
613.949	701.01
614.149	685.7
614.348	702.75
614.548	651.22
614.747	629.71
614.947	632.42
615.146	628.94
615.346	728.13
615.545	676.02
615.745	693.07
615.944	717.09
616.144	653.35
616.343	685.7
616.542	667.49
616.742	656.45
616.941	654.9
617.14	610.53
617.34	684.35
617.539	645.79
617.738	639.2
617.938	694.23
618.137	673.89
618.336	616.92
618.535	671.75
618.734	630.1
618.934	650.64
619.133	662.26
619.332	684.73
619.531	632.04
619.73	649.67
619.929	678.15
620.128	680.47
620.328	699.46
620.527	644.05
620.726	654.32
620.925	668.27
621.124	624.48
621.323	649.09
621.522	609.75
621.721	610.53
621.92	620.02
622.119	658.19
622.318	619.25
622.517	625.06
622.715	632.04
622.914	586.89
623.113	620.99
623.312	568.68
623.511	639.79
623.71	642.69
623.909	613.63
624.107	687.83
624.306	580.31
624.505	622.54
624.704	596.77
624.902	598.9
625.101	649.86
625.3	630.87
625.499	590.19
625.697	606.07
625.896	565.19
626.095	647.73
626.293	581.47
626.492	600.07
626.69	617.31
626.889	584.18
627.088	631.65
627.286	606.07
627.485	558.02
627.683	580.11
627.882	598.32
628.08	546.21
628.279	584.18
628.477	653.93
628.676	540.01
628.874	608.2
629.073	577.21
629.271	548.92
629.469	595.22
629.668	569.84
629.866	559.96
630.065	553.96
630.263	594.45
630.461	548.72
630.66	577.79
630.858	598.52
631.056	611.11
631.254	619.83
631.453	529.35
631.651	615.95
631.849	572.36
632.047	591.16
632.245	590.77
632.444	594.45
632.642	596.77
632.84	595.61
633.038	565.58
633.236	540.39
633.434	556.67
633.632	557.83
633.83	559.19
634.028	587.28
634.227	577.79
634.425	634.75
634.623	581.27
634.821	576.04
635.019	581.66
635.216	569.26
635.414	600.07
635.612	563.45
635.81	553.37
636.008	658
636.206	514.62
636.404	602.2
636.602	539.62
636.8	589.61
636.997	567.71
637.195	628.94
637.393	590.96
637.591	627.77
637.789	592.51
637.986	546.98
638.184	584.37
638.382	604.72
638.58	606.85
638.777	636.49
638.975	585.54
639.173	598.32
639.37	616.34
639.568	596.97
639.765	629.13
639.963	548.92
640.161	620.6
640.358	595.61
640.556	532.26
640.753	541.94
640.951	538.65
641.148	583.99
641.346	561.71
641.543	550.27
641.741	599.87
641.938	524.12
642.136	578.76
642.333	535.16
642.531	615.57
642.728	608.79
642.925	571.97
643.123	562.67
643.32	578.56
643.517	541.94
643.715	569.84
643.912	549.5
644.109	557.64
644.306	546.59
644.504	510.56
644.701	568.87
644.898	584.96
645.095	512.11
645.293	542.33
645.49	560.74
645.687	561.32
645.884	578.37
646.081	504.36
646.278	488.86
646.475	535.55
646.672	523.34
646.87	570.62
647.067	554.92
647.264	569.07
647.461	505.33
647.658	505.13
647.855	549.5
648.052	537.1
648.249	439.64
648.446	456.89
648.642	479.17
648.839	485.95
649.036	452.43
649.233	460.96
649.43	482.66
649.627	464.64
649.824	487.5
650.021	466.77
650.217	471.81
650.414	457.66
650.611	513.66
650.808	498.74
651.004	505.91
651.201	488.47
651.398	540.78
651.595	509.39
651.791	446.43
651.988	526.64
652.185	468.13
652.381	552.79
652.578	421.43
652.775	490.41
652.971	466.58
653.168	494.86
653.364	504.16
653.561	447.39
653.757	465.8
653.954	476.26
654.15	448.36
654.347	549.69
654.543	487.11
654.74	427.63
654.936	430.34
655.133	471.23
655.329	480.91
655.525	472.58
655.722	492.15
655.918	464.44
656.115	487.89
656.311	432.86
656.507	401.48
656.704	354.98
656.9	408.45
657.096	365.05
657.292	396.83
657.489	466.58
657.685	440.61
657.881	417.36
658.077	431.89
658.273	428.79
658.47	487.89
658.666	460.38
658.862	486.53
659.058	433.64
659.254	474.13
659.45	461.34
659.646	471.23
659.842	463.67
660.038	451.27
660.234	422.4
660.43	450.69
660.626	540.39
660.822	504.55
661.018	476.84
661.214	460.96
661.41	445.07
661.606	491.57
661.802	483.04
661.998	450.49
662.194	436.16
662.39	468.9
662.586	486.34
662.781	490.41
662.977	469.68
663.173	490.02
663.369	449.72
663.564	483.24
663.76	497.77
663.956	451.27
664.152	505.13
664.347	422.98
664.543	453.21
664.739	415.04
664.934	409.03
665.13	393.92
665.326	484.01
665.521	462.51
665.717	413.49
665.912	438.09
666.108	396.63
666.304	419.88
666.499	424.53
666.695	380.16
666.89	403.41
667.086	469.87
667.281	474.52
667.477	475.1
667.672	446.62
667.867	444.68
668.063	423.37
668.258	427.63
668.454	449.14
668.649	489.63
668.844	441.97
669.04	454.95
669.235	410.2
669.43	418.72
669.626	390.43
669.821	405.16
670.016	403.8
670.211	452.24
670.407	397.8
670.602	439.84
670.797	429.96
670.992	440.23
671.187	413.88
671.382	474.52
671.578	420.08
671.773	435.38
671.968	395.86
672.163	363.7
672.358	442.16
672.553	420.27
672.748	422.01
672.943	485.37
673.138	414.46
673.333	448.56
673.528	378.81
673.723	418.33
673.918	397.99
674.113	379.97
674.308	480.53
674.503	426.66
674.698	462.51
674.892	396.25
675.087	443.71
675.282	453.4
675.477	385.01
675.672	410.2
675.867	385.78
676.061	388.3
676.256	372.22
676.451	385.98
676.646	398.76
676.84	385.78
677.035	365.05
677.23	354.2
677.424	426.47
677.619	408.45
677.814	436.93
678.008	437.71
678.203	349.16
678.397	373.38
678.592	406.13
678.787	459.02
678.981	375.71
679.176	411.94
679.37	395.86
679.565	392.95
679.759	371.06
679.954	407.68
680.148	475.49
680.342	437.13
680.537	436.93
680.731	397.21
680.926	432.28
681.12	408.65
681.314	385.4
681.509	400.12
681.703	422.59
681.897	443.13
682.092	393.34
682.286	389.27
682.48	469.48
682.674	445.84
682.869	381.33
683.063	412.33
683.257	480.72
683.451	408.26
683.645	407.48
683.839	404.19
684.034	387.53
684.228	452.63
684.422	373
684.616	396.05
684.81	406.51
685.004	399.35
685.198	390.24
685.392	456.31
685.586	358.46
685.78	450.88
685.974	417.17
686.168	429.96
686.362	440.61
686.556	366.41
686.75	355.56
686.944	348.78
687.138	384.43
687.331	311.19
687.525	338.12
687.719	265.47
687.913	362.34
688.107	331.34
688.301	303.44
688.494	353.43
688.688	278.64
688.882	271.08
689.076	276.51
689.269	337.35
689.463	386.95
689.657	312.35
689.85	326.69
690.044	359.24
690.238	328.43
690.431	324.75
690.625	335.99
690.818	368.35
691.012	352.07
691.205	395.08
691.399	332.89
691.593	365.83
691.786	420.08
691.98	421.05
692.173	451.27
692.366	410.78
692.56	444.29
692.753	474.13
692.947	381.13
693.14	491.76
693.333	456.11
693.527	392.56
693.72	443.91
693.914	410.39
694.107	443.33
694.3	448.75
694.493	428.21
694.687	481.88
694.88	425.31
695.073	496.99
695.266	479.36
695.46	483.63
695.653	522.37
695.846	520.44
696.039	392.95
696.232	461.93
696.425	515.01
696.618	515.21
696.812	503.58
697.005	562.09
697.198	606.85
697.391	544.07
697.584	572.36
697.777	606.85
697.97	604.14
698.163	596.97
698.356	575.66
698.549	694.81
698.742	628.74
698.935	596.39
699.127	630.87
699.32	592.12
699.513	587.09
699.706	608.79
699.899	617.31
700.092	622.15
700.285	630.68
700.477	568.29
700.67	646.18
700.863	660.32
701.056	700.23
701.248	666.52
701.441	688.61
701.634	635.91
701.826	752.16
702.019	632.62
702.212	740.73
702.404	660.32
702.597	659.94
702.79	675.24
702.982	710.5
703.175	764.95
703.367	748.87
703.56	780.45
703.752	845.35
703.945	765.14
704.137	793.81
704.33	817.26
704.522	851.75
704.715	827.33
704.907	841.48
705.1	864.14
705.292	866.47
705.484	843.22
705.677	859.3
705.869	882.16
706.061	934.09
706.254	892.82
706.446	874.61
706.638	893.01
706.831	972.64
707.023	921.3
707.215	973.42
707.407	986.01
707.599	980.2
707.792	1030.77
707.984	1008.29
708.176	1018.17
708.368	980.78
708.56	1035.8
708.752	1006.36
708.944	989.69
709.136	1050.92
709.329	1015.85
709.521	1127.06
709.713	1097.8
709.905	1120.28
710.097	1143.92
710.289	1073.39
710.481	1136.55
710.672	1119.12
710.864	1169.68
711.056	1200.3
711.248	1188.48
711.44	1170.27
711.632	1164.07
711.824	1211.15
712.016	1230.52
712.207	1244.66
712.399	1247.96
712.591	1253.77
712.783	1255.32
712.975	1273.73
713.166	1225.1
713.358	1248.73
713.55	1325.26
713.741	1305.5
713.933	1311.89
714.125	1307.05
714.316	1321.39
714.508	1382.42
714.7	1387.46
714.891	1357.23
715.083	1391.91
715.274	1381.84
715.466	1393.27
715.657	1417.1
715.849	1304.73
716.04	1393.07
716.232	1300.08
716.423	1382.42
716.615	1338.24
716.806	1319.26
716.998	1321
717.189	1262.49
717.381	1201.46
717.572	1134.03
717.763	1251.45
717.955	1202.43
718.146	1158.06
718.337	1137.91
718.528	1105.75
718.72	1054.21
718.911	1156.7
719.102	1105.94
719.293	1131.13
719.485	1122.6
719.676	1115.44
719.867	1097.22
720.058	1103.42
720.249	1115.63
720.44	1124.73
720.632	1147.79
720.823	1188.87
721.014	1271.79
721.205	1248.54
721.396	1321.78
721.587	1364.59
721.778	1418.65
721.969	1415.94
722.16	1516.69
722.351	1485.1
722.542	1610.65
722.733	1570.55
722.924	1507.58
723.115	1511.65
723.305	1566.28
723.496	1579.85
723.687	1470.77
723.878	1482.2
724.069	1481.04
724.26	1493.05
724.45	1427.95
724.641	1442.87
724.832	1500.8
725.023	1453.72
725.213	1481.04
725.404	1423.11
725.595	1456.82
725.785	1432.99
725.976	1518.04
726.167	1453.33
726.357	1505.06
726.548	1556.6
726.739	1502.35
726.929	1556.79
727.12	1556.02
727.31	1616.27
727.501	1530.83
727.691	1555.82
727.882	1612.78
728.072	1626.54
728.263	1594.38
728.453	1640.3
728.644	1647.08
728.834	1620.92
729.024	1616.85
729.215	1603.48
729.405	1666.65
729.596	1714.7
729.786	1693.19
729.976	1697.84
730.167	1714.11
730.357	1649.01
730.547	1714.11
730.737	1716.63
730.928	1799.17
731.118	1798.39
731.308	1766.62
731.498	1762.94
731.688	1823.39
731.879	1863.11
732.069	1872.99
732.259	1870.66
732.449	1887.52
732.639	1941.57
732.829	1929.95
733.019	1935.95
733.209	2019.27
733.399	2036.7
733.589	2111.68
733.779	2085.14
733.969	2077
734.159	2118.08
734.349	2182.79
734.539	2253.12
734.729	2236.07
734.919	2230.06
735.109	2279.27
735.299	2191.31
735.488	2256.61
735.678	2266.87
735.868	2304.46
736.058	2292.26
736.248	2272.11
736.437	2223.67
736.627	2227.16
736.817	2345.34
737.007	2260.87
737.196	2332.17
737.386	2281.21
737.576	2247.11
737.765	2335.85
737.955	2306.59
738.144	2384.48
738.334	2345.92
738.524	2317.44
738.713	2379.64
738.903	2339.34
739.092	2422.45
739.282	2393.2
739.471	2398.24
739.661	2383.12
739.85	2383.32
740.04	2395.72
740.229	2429.43
740.419	2488.91
740.608	2483.48
740.797	2433.3
740.987	2515.45
741.176	2460.43
741.365	2433.69
741.555	2438.15
741.744	2502.08
741.933	2469.53
742.123	2528.43
742.312	2574.55
742.501	2536.38
742.69	2571.64
742.88	2457.52
743.069	2589.08
743.258	2530.18
743.447	2611.16
743.636	2626.28
743.825	2544.71
744.014	2540.06
744.204	2565.63
744.393	2554.01
744.582	2626.08
744.771	2647.01
744.96	2576.68
745.149	2593.53
745.338	2538.12
745.527	2607.29
745.716	2573.38
745.905	2547.42
746.094	2604
746.283	2641.78
746.471	2659.6
746.66	2670.26
746.849	2667.93
747.038	2662.31
747.227	2620.85
747.416	2668.9
747.604	2585.4
747.793	2621.63
747.982	2655.92
748.171	2634.61
748.359	2664.06
748.548	2632.09
748.737	2635.58
748.926	2640.61
749.114	2540.06
749.303	2647.59
749.491	2663.09
749.68	2542.19
749.869	2713.46
750.057	2632.09
750.246	2591.21
750.434	2593.53
750.623	2576.87
750.811	2558.08
751	2636.16
751.188	2605.74
751.377	2619.88
751.565	2584.62
751.754	2580.75
751.942	2553.43
752.131	2624.92
752.319	2569.7
752.507	2531.53
752.696	2590.43
752.884	2642.74
753.072	2548.2
753.261	2601.28
753.449	2618.53
753.637	2582.88
753.825	2662.51
754.014	2574.35
754.202	2556.91
754.39	2603.61
754.578	2622.98
754.766	2547.03
754.955	2567.18
755.143	2637.51
755.331	2554.4
755.519	2572.61
755.707	2576.68
755.895	2548.2
756.083	2538.9
756.271	2531.73
756.459	2538.12
756.647	2586.17
756.835	2533.66
757.023	2490.07
757.211	2511.97
757.399	2498.4
757.587	2529.98
757.775	2494.33
757.963	2500.73
758.151	2520.1
758.339	2433.69
758.526	2475.54
758.714	2483.1
758.902	2429.62
759.09	2348.83
759.278	2191.7
759.465	2034.18
759.653	1792
759.841	1625.77
760.028	1414.58
760.216	1185.57
760.404	1155.73
760.591	937.19
760.779	793.81
760.967	717.48
761.154	571.78
761.342	606.46
761.529	593.48
761.717	651.22
761.905	620.41
762.092	677.18
762.28	610.72
762.467	637.07
762.655	593.87
762.842	611.89
763.029	621.96
763.217	633
763.404	631.84
763.592	657.61
763.779	607.04
763.966	661.87
764.154	688.42
764.341	720.97
764.528	719.42
764.716	782.96
764.903	803.89
765.09	840.31
765.277	911.23
765.465	1017.21
765.652	1050.72
765.839	1117.37
766.026	1179.76
766.213	1226.65
766.4	1315.96
766.588	1483.55
766.775	1470.77
766.962	1549.82
767.149	1601.74
767.336	1682.73
767.523	1656.96
767.71	1788.13
767.897	1885
768.084	1900.31
768.271	1940.6
768.458	1970.25
768.645	2047.17
768.832	2031.08
769.019	2038.45
769.206	2088.05
769.392	2122.53
769.579	2208.36
769.766	2168.26
769.953	2158.18
770.14	2224.25
770.327	2201.19
770.513	2295.94
770.7	2296.13
770.887	2169.03
771.073	2276.56
771.26	2284.89
771.447	2194.22
771.634	2207.98
771.82	2278.31
772.007	2227.93
772.193	2258.54
772.38	2307.56
772.567	2246.14
772.753	2238.78
772.94	2307.17
773.126	2265.13
773.313	2286.64
773.499	2289.54
773.686	2258.35
773.872	2242.27
774.059	2293.03
774.245	2208.17
774.432	2222.12
774.618	2184.73
774.804	2230.84
774.991	2179.88
775.177	2253.51
775.363	2232.19
775.55	2234.91
775.736	2178.33
775.922	2217.86
776.109	2190.73
776.295	2214.95
776.481	2231.61
776.667	2251.57
776.853	2170.19
777.04	2194.61
777.226	2193.83
777.412	2252.93
777.598	2165.35
777.784	2188.21
777.97	2133.19
778.156	2208.94
778.342	2188.6
778.528	2159.35
778.715	2103.35
778.901	2121.95
779.087	2193.44
779.272	2138.23
779.458	2095.99
779.644	2174.84
779.83	2098.12
780.016	2176.39
780.202	2103.93
780.388	2099.48
780.574	2049.49
780.76	2097.35
780.946	2122.73
781.131	2141.71
781.317	2099.28
781.503	2062.28
781.689	2116.14
781.874	2175.43
782.06	2070.61
782.246	2094.05
782.432	2083.4
782.617	2080.49
782.803	2152.18
782.989	2024.88
783.174	2095.8
783.36	2012.48
783.545	2082.23
783.731	2040.77
783.916	1969.28
784.102	2066.93
784.288	1978.77
784.473	2034.38
784.659	1985.94
784.844	2085.33
785.029	1998.15
785.215	1976.45
785.4	1956.69
785.586	2036.12
785.771	1943.51
785.956	2029.73
786.142	2016.17
786.327	1970.64
786.512	1959.2
786.698	1990.98
786.883	1916.77
787.068	1929.17
787.254	1961.92
787.439	1951.45
787.624	1939.25
787.809	1909.8
787.994	1934.4
788.18	1965.4
788.365	1900.11
788.55	1896.62
788.735	1886.16
788.92	1885.39
789.105	1888.68
789.29	1928.59
789.475	1844.7
789.66	1882.29
789.845	1870.66
790.03	1809.63
790.215	1865.04
790.4	1906.31
790.585	1907.47
790.77	1862.14
790.955	1810.6
791.14	1869.31
791.325	1914.06
791.51	1774.37
791.695	1839.27
791.879	1850.32
792.064	1779.6
792.249	1878.22
792.434	1804.4
792.618	1800.33
792.803	1823.97
792.988	1785.8
793.173	1848.38
793.357	1885.97
793.542	1782.7
793.727	1819.71
793.911	1867.37
794.096	1840.63
794.281	1841.41
794.465	1909.41
794.65	1839.86
794.834	1832.88
795.019	1866.01
795.203	1879.38
795.388	1886.55
795.572	1892.17
795.757	1877.44
795.941	1889.46
796.126	1848.77
796.31	1821.26
796.494	1848.38
796.679	1786.77
796.863	1799.36
797.048	1932.27
797.232	1881.9
797.416	1883.45
797.601	1836.95
797.785	1895.46
797.969	1890.42
798.153	1837.14
798.338	1852.45
798.522	1899.92
798.706	1888.87
798.89	1928.4
799.074	1969.86
799.258	1938.47
799.443	1898.37
799.627	1934.4
799.811	1935.76
799.995	1863.49
800.179	1839.27
800.363	1857.1
800.547	1883.45
800.731	1903.99
800.915	1838.69
801.099	1856.91
801.283	1865.43
801.467	1896.24
801.651	1847.8
801.835	1924.91
802.019	1873.37
802.202	1857.29
802.386	1803.63
802.57	1818.16
802.754	1868.53
802.938	1817.58
803.121	1824.74
803.305	1887.32
803.489	1844.89
803.673	1857.29
803.856	1875.31
804.04	1857.49
804.224	1889.46
804.407	1859.42
804.591	1872.02
804.775	1858.26
804.958	1872.02
805.142	1931.69
805.326	1859.23
805.509	1870.86
805.693	1888.29
805.876	1899.14
806.06	1890.81
806.243	1911.15
806.427	1929.56
806.61	1917.35
806.794	1856.71
806.977	1919.1
807.16	1879.19
807.344	1876.28
807.527	1896.43
807.71	1864.85
807.894	1896.62
808.077	1916.58
808.26	1862.91
808.444	1847.41
808.627	1854.58
808.81	1853.03
808.993	1785.61
809.177	1775.73
809.36	1818.54
809.543	1852.45
809.726	1725.74
809.909	1766.81
810.092	1730.2
810.276	1766.81
810.459	1758.09
810.642	1714.31
810.825	1681.76
811.008	1761.39
811.191	1653.86
811.374	1659.67
811.557	1653.86
811.74	1763.71
811.923	1614.33
812.106	1653.28
812.289	1635.45
812.472	1645.53
812.654	1629.64
812.837	1585.66
813.02	1575.97
813.203	1575.97
813.386	1453.33
813.569	1462.44
813.751	1399.47
813.934	1490.72
814.117	1436.47
814.3	1380.48
814.482	1358.2
814.665	1351.81
814.848	1308.21
815.03	1277.6
815.213	1289.42
815.396	1253.38
815.578	1246.99
815.761	1236.53
815.943	1292.13
816.126	1219.48
816.309	1180.15
816.491	1128.03
816.674	1127.06
816.856	1147.4
817.039	1100.9
817.221	1183.44
817.403	1151.28
817.586	1160
817.768	1183.44
817.951	1107.88
818.133	1139.07
818.315	1126.28
818.498	1180.92
818.68	1219.09
818.862	1194.68
819.045	1255.32
819.227	1206.11
819.409	1160.97
819.591	1230.13
819.774	1174.14
819.956	1136.36
820.138	1241.37
820.32	1205.14
820.502	1236.53
820.684	1298.53
820.866	1315.96
821.048	1339.02
821.231	1336.11
821.413	1336.31
821.595	1305.11
821.777	1345.22
821.959	1320.42
822.141	1365.37
822.323	1268.69
822.505	1216.38
822.686	1186.54
822.868	1132.68
823.05	1080.95
823.232	1028.44
823.414	992.6
823.596	1063.51
823.778	1050.53
823.96	1034.64
824.141	1068.55
824.323	1060.02
824.505	1151.28
824.687	1185.38
824.868	1178.6
825.05	1272.95
825.232	1322.74
825.413	1358.59
825.595	1335.73
825.777	1242.34
825.958	1320.81
826.14	1268.69
826.321	1328.36
826.503	1272.56
826.685	1284.96
826.866	1312.28
827.048	1319.84
827.229	1272.76
827.411	1225.68
827.592	1214.25
827.773	1185.57
827.955	1176.85
828.136	1176.66
828.318	1154.77
828.499	1199.91
828.68	1149.73
828.862	1172.4
829.043	1205.33
829.224	1160.97
829.406	1136.94
829.587	1164.65
829.768	1154.38
829.949	1164.84
830.131	1125.9
830.312	1217.35
830.493	1159.8
830.674	1185.18
830.855	1141.59
831.036	1149.15
831.218	1202.04
831.399	1235.75
831.58	1181.12
831.761	1197.2
831.942	1185.57
832.123	1171.62
832.304	1115.63
832.485	1140.82
832.666	1169.1
832.847	1153.99
833.028	1158.45
833.209	1173.17
833.389	1119.12
833.57	1097.22
833.751	1131.32
833.932	1200.3
834.113	1175.5
834.294	1150.89
834.475	1166.97
834.655	1230.52
834.836	1222.96
835.017	1164.45
835.198	1124.93
835.378	1164.26
835.559	1204.37
835.74	1164.45
835.92	1187.7
836.101	1147.02
836.281	1194.29
836.462	1207.08
836.643	1200.1
836.823	1242.92
837.004	1191.19
837.184	1261.71
837.365	1265.01
837.545	1285.55
837.726	1221.22
837.906	1238.46
838.087	1225.48
838.267	1213.28
838.448	1160.77
838.628	1213.86
838.808	1212.31
838.989	1280.7
839.169	1183.44
839.349	1248.15
839.53	1254.93
839.71	1243.31
839.89	1186.93
840.07	1270.05
840.251	1198.75
840.431	1256.87
840.611	1226.26
840.791	1195.84
840.971	1203.4
841.151	1194.48
841.332	1198.36
841.512	1236.14
841.692	1147.02
841.872	1220.25
842.052	1200.3
842.232	1243.11
842.412	1140.82
842.592	1167.75
842.772	1207.47
842.952	1194.68
843.132	1200.49
843.312	1179.57
843.492	1155.54
843.672	1205.14
843.851	1141.78
844.031	1193.71
844.211	1163.1
844.391	1126.09
844.571	1178.21
844.751	1207.85
844.93	1158.45
845.11	1160
845.29	1189.25
845.47	1217.54
845.649	1160.19
845.829	1202.43
846.009	1157.09
846.188	1189.83
846.368	1175.88
846.547	1163.48
846.727	1232.46
846.907	1131.71
847.086	1166.78
847.266	1178.6
847.445	1168.52
847.625	1148.76
847.804	1155.54
847.984	1168.33
848.163	1122.22
848.343	1152.05
848.522	1138.3
848.701	1146.24
848.881	1125.7
849.06	1144.11
849.239	1151.86
849.419	1151.28
849.598	1090.83
849.777	1122.41
849.957	1073.59
850.136	1014.49
850.315	1049.37
850.494	1012.17
850.674	1063.9
850.853	1120.86
851.032	1045.1
851.211	1123.57
851.39	1062.35
851.569	989.31
851.748	1014.88
851.927	1081.14
852.107	1057.12
852.286	1022.44
852.465	1028.83
852.644	1098.77
852.823	1065.84
853.002	1049.56
853.181	1069.13
853.359	1066.61
853.538	1000.93
853.717	1070.87
853.896	974.97
854.075	938.35
854.254	939.32
854.433	900.96
854.611	945.91
854.79	893.59
854.969	928.66
855.148	933.7
855.327	886.81
855.505	976.32
855.684	938.54
855.863	976.52
856.041	912.78
856.22	974.97
856.399	936.03
856.577	1047.43
856.756	1007.71
856.934	1085.02
857.113	1126.09
857.291	1008.87
857.47	975.74
857.648	1021.47
857.827	1036.97
858.005	1058.28
858.184	975.74
858.362	1122.41
858.541	1033.48
858.719	1006.94
858.898	995.89
859.076	975.74
859.254	1040.84
859.433	989.89
859.611	979.23
859.789	957.53
859.967	1061.96
860.146	1053.82
860.324	940.09
860.502	986.98
860.68	935.83
860.859	973.03
861.037	968.57
861.215	994.92
861.393	975.94
861.571	974
861.749	938.54
861.927	1011.2
862.105	972.45
862.283	942.42
862.461	971.29
862.639	918.78
862.817	933.12
862.995	965.47
863.173	948.62
863.351	942.03
863.529	950.75
863.707	987.95
863.885	973.22
864.063	887.39
864.241	921.69
864.418	983.49
864.596	941.64
864.774	896.5
864.952	898.24
865.129	964.51
865.307	873.44
865.485	875.58
865.663	951.72
865.84	852.33
866.018	891.08
866.196	746.15
866.373	797.69
866.551	800.6
866.728	748.09
866.906	779.09
867.084	766.3
867.261	813.19
867.439	848.84
867.616	879.26
867.794	833.15
867.971	850.97
868.149	849.61
868.326	914.13
868.503	908.9
868.681	859.69
868.858	819.78
869.035	813.58
869.213	897.47
869.39	851.36
869.567	911.23
869.745	821.13
869.922	856.2
870.099	899.02
870.276	883.71
870.454	856.4
870.631	872.86
870.808	828.3
870.985	883.52
871.162	936.8
871.339	871.7
871.517	830.82
871.694	831.6
871.871	860.66
872.048	852.52
872.225	819
872.402	842.06
872.579	784.51
872.756	874.22
872.933	797.69
873.11	804.86
873.287	839.73
873.463	807.38
873.64	829.08
873.817	858.33
873.994	838.57
874.171	802.92
874.348	833.15
874.524	747.9
874.701	855.04
874.878	772.5
875.055	817.45
875.231	806.6
875.408	809.31
875.585	757.97
875.762	797.88
875.938	776.76
876.115	783.16
876.291	767.85
876.468	767.27
876.645	735.88
876.821	774.63
876.998	796.72
877.174	781.03
877.351	773.66
877.527	756.81
877.704	740.73
877.88	780.45
878.057	763.4
878.233	795.36
878.409	746.93
878.586	791.68
878.762	732.78
878.938	769.21
879.115	671.37
879.291	728.72
879.467	706.05
879.644	696.75
879.82	767.47
879.996	707.02
880.172	676.6
880.349	714.18
880.525	762.04
880.701	682.02
880.877	719.42
881.053	731.23
881.229	717.67
881.405	729.1
881.581	720.19
881.757	702.56
881.933	727.94
882.109	722.13
882.285	739.76
882.461	683.77
882.637	703.33
882.813	705.66
882.989	689
883.165	758.36
883.341	688.8
883.517	750.22
883.693	710.89
883.869	745.57
884.044	708.57
884.22	723.1
884.396	768.63
884.572	744.99
884.747	764.17
884.923	731.23
885.099	720.97
885.275	760.49
885.45	687.45
885.626	718.25
885.801	720.97
885.977	707.79
886.153	642.3
886.328	729.49
886.504	727.36
886.679	739.18
886.855	690.16
887.03	692.68
887.206	745.57
887.381	716.7
887.557	735.5
887.732	708.76
887.908	734.72
888.083	740.53
888.258	706.43
888.434	681.05
888.609	734.92
888.784	756.81
888.96	689.19
889.135	708.37
889.31	663.23
889.485	695
889.661	688.42
889.836	735.11
890.011	712.83
890.186	686.09
890.361	725.03
890.537	709.73
890.712	695.58
890.887	725.42
891.062	694.42
891.237	771.15
891.412	671.56
891.587	729.88
891.762	750.61
891.937	731.82
892.112	673.69
892.287	687.83
892.462	678.92
892.637	620.22
892.812	642.3
892.987	663.81
893.161	626.61
893.336	664
893.511	658.77
893.686	652.96
893.861	639.2
894.035	633.78
894.21	653.15
894.385	591.93
894.56	635.91
894.734	574.88
894.909	570.81
895.084	586.89
895.258	586.12
895.433	615.76
895.608	571.01
895.782	528.96
895.957	558.22
896.131	559.38
896.306	509.2
896.48	496.99
896.655	506.88
896.829	463.67
897.004	442.94
897.178	451.27
897.353	451.66
897.527	519.86
897.701	489.63
897.876	437.9
898.05	543.3
898.224	482.27
898.399	518.89
898.573	483.43
898.747	383.26
898.921	434.8
899.096	402.06
899.27	370.67
899.444	371.06
899.618	397.6
899.792	398.38
899.967	412.13
900.141	455.53
900.315	374.55
900.489	401.09
900.663	428.6
900.837	389.85
901.011	359.63
901.185	469.48
901.359	428.21
901.533	421.43
901.707	426.28
901.881	406.13
902.055	380.75
902.229	425.31
902.403	461.54
902.576	409.61
902.75	422.98
902.924	516.37
903.098	487.89
903.272	483.24
903.446	505.33
903.619	463.48
903.793	536.91
903.967	490.21
904.14	523.15
904.314	532.06
904.488	541.36
904.661	543.3
904.835	502.03
905.009	537.87
905.182	583.41
905.356	544.07
905.529	522.37
905.703	495.83
905.876	508.23
906.05	446.43
906.223	484.59
906.397	420.46
906.57	398.57
906.744	399.15
906.917	401.28
907.09	423.56
907.264	410.39
907.437	389.27
907.61	355.75
907.784	402.83
907.957	401.67
908.13	359.24
908.304	395.47
908.477	371.06
908.65	395.66
908.823	355.56
908.996	423.95
909.17	382.49
909.343	364.08
909.516	378.03
909.689	366.99
909.862	314.1
910.035	376.1
910.208	329.4
910.381	334.44
910.554	446.43
910.727	365.83
910.9	353.43
911.073	352.07
911.246	365.25
911.419	421.05
911.592	396.83
911.765	338.9
911.938	354.78
912.11	346.65
912.283	359.43
912.456	383.07
912.629	362.15
912.802	339.48
912.974	292.01
913.147	304.41
913.32	218.97
913.493	266.82
913.665	306.35
913.838	331.15
914.01	300.15
914.183	330.18
914.356	300.73
914.528	355.17
914.701	384.23
914.873	379.39
915.046	312.74
915.218	279.03
915.391	266.63
915.563	263.33
915.736	279.61
915.908	352.65
916.081	292.78
916.253	277.67
916.425	294.33
916.598	317
916.77	310.61
916.942	278.06
917.115	238.54
917.287	315.26
917.459	271.47
917.632	241.83
917.804	195.91
917.976	292.98
918.148	281.74
918.32	278.45
918.493	329.4
918.665	371.06
918.837	307.32
919.009	375.9
919.181	352.07
919.353	344.51
919.525	308.87
919.697	326.5
919.869	331.53
920.041	355.95
920.213	425.89
920.385	344.9
920.557	314.1
920.729	384.62
920.901	327.85
921.073	331.53
921.244	315.65
921.416	359.63
921.588	312.93
921.76	322.82
921.932	366.8
922.103	307.9
922.275	322.23
922.447	323.98
922.619	265.47
922.79	311
922.962	307.12
923.134	324.95
923.305	285.03
923.477	239.31
923.648	258.1
923.82	277.48
923.991	240.67
924.163	247.25
924.335	272.25
924.506	245.7
924.677	288.52
924.849	261.78
925.02	276.51
925.192	310.22
925.363	285.42
925.535	277.87
925.706	255
925.877	306.73
926.049	246.87
926.22	276.7
926.391	311.97
926.562	300.53
926.734	247.64
926.905	299.18
927.076	207.92
927.247	247.06
927.419	215.09
927.59	205.02
927.761	241.83
927.932	216.06
928.103	253.45
928.274	211.8
928.445	189.52
928.616	212.57
928.787	217.8
928.958	204.82
929.129	219.16
929.3	186.42
929.471	154.26
929.642	121.12
929.813	83.54
929.984	183.12
930.155	89.54
930.326	178.67
930.496	135.46
930.667	70.36
930.838	133.14
931.009	92.26
931.18	113.37
931.35	102.33
931.521	109.31
931.692	72.11
931.863	35.1
932.033	91.87
932.204	83.73
932.374	93.81
932.545	42.66
932.716	118.22
932.886	116.86
933.057	14.95
933.227	34.52
933.398	140.89
933.568	31.42
933.739	1.97
933.909	14.37
934.08	70.94
934.25	-2.49
934.421	5.07
934.591	55.06
934.761	-3.07
934.932	-49.76
935.102	27.54
935.272	14.56
935.443	13.21
935.613	1.19
935.783	33.16
935.953	-9.07
936.123	171.69
936.294	18.44
936.464	-6.36
936.634	15.53
936.804	-24.38
936.974	-16.05
937.144	30.45
937.314	11.66
937.484	5.26
937.655	-19.34
937.825	49.05
937.995	1.58
938.165	38.59
938.334	11.85
938.504	46.53
938.674	1.58
938.844	17.66
939.014	72.11
939.184	43.43
939.354	88.19
939.524	105.62
939.694	25.22
939.863	54.09
940.033	100.2
940.203	109.5
940.373	94
940.542	87.99
940.712	55.25
940.882	74.82
941.051	108.34
941.221	81.99
941.391	110.08
941.56	22.89
941.73	69.01
941.899	169.37
942.069	48.66
942.238	79.66
942.408	35.68
942.577	62.23
942.747	57.19
942.916	14.95
943.086	33.94
943.255	85.67
943.425	70.75
943.594	54.09
943.763	-20.7
943.933	10.49
944.102	-38.91
944.271	31.81
944.441	50.21
944.61	20.96
944.779	14.37
944.948	104.07
945.117	11.46
945.287	24.06
945.456	-22.05
945.625	32.39
945.794	52.34
945.963	27.93
946.132	57.19
946.301	23.86
946.47	87.8
946.639	-6.17
946.808	19.21
946.977	48.86
947.146	88.19
947.315	19.99
947.484	81.41
947.653	26.38
947.822	32
947.991	17.86
948.16	95.74
948.329	102.72
948.498	36.65
948.666	44.01
948.835	71.33
949.004	5.65
949.173	-2.68
949.341	36.26
949.51	39.36
949.679	74.24
949.847	48.66
950.016	119.77
950.185	93.81
950.353	13.98
950.522	54.86
950.69	69.01
950.859	4.29
951.028	82.76
951.196	65.33
951.365	31.03
951.533	17.28
951.701	75.79
951.87	75.4
952.038	-12.76
952.207	49.24
952.375	86.44
952.543	1.39
952.712	18.44
952.88	16.69
953.048	62.81
953.217	46.34
953.385	56.99
953.553	94.39
953.721	-18.95
953.89	59.32
954.058	7.78
954.226	13.59
954.394	34.71
954.562	-6.36
954.73	25.03
954.898	-1.52
955.067	73.85
955.235	-1.32
955.403	71.53
955.571	106.59
955.739	51.57
955.907	-8.11
956.075	36.46
956.243	21.34
956.41	33.36
956.578	-38.52
956.746	-18.18
956.914	52.93
957.082	49.44
957.25	64.36
957.418	12.04
957.585	37.04
957.753	74.82
957.921	1.78
958.089	36.46
958.256	51.18
958.424	49.63
958.592	56.22
958.759	14.56
958.927	52.54
959.095	30.64
959.262	32.97
959.43	46.53
959.597	12.43
959.765	41.69
959.932	6.43
960.1	52.54
960.267	34.52
960.435	56.03
960.602	86.44
960.77	25.8
960.937	2.94
961.104	53.89
961.272	-28.84
961.439	37.81
961.606	52.73
961.774	47.69
961.941	27.35
962.108	55.83
962.275	57.19
962.443	62.81
962.61	46.92
962.777	110.66
962.944	96.13
963.111	50.79
963.278	59.51
963.446	86.44
963.613	38.39
963.78	63.97
963.947	56.61
964.114	79.27
964.281	125.58
964.448	79.47
964.615	17.66
964.782	70.75
964.949	95.55
965.116	56.03
965.282	98.26
965.449	69.39
965.616	33.94
965.783	76.17
965.95	87.22
966.117	24.83
966.283	45.18
966.45	64.55
966.617	67.26
966.784	90.9
966.95	80.05
967.117	89.35
967.284	6.43
967.45	63.97
967.617	97.1
967.784	81.79
967.95	93.61
968.117	74.24
968.283	87.41
968.45	153.48
968.616	100.01
968.783	95.94
968.949	75.01
969.116	90.71
969.282	44.79
969.449	62.23
969.615	53.31
969.781	20.57
969.948	47.89
970.114	20.96
970.28	116.67
970.447	58.35
970.613	108.72
970.779	77.34
970.945	83.54
971.112	70.17
971.278	52.15
971.444	66.68
971.61	110.08
971.776	38.59
971.942	75.21
972.108	88.38
972.275	58.16
972.441	77.72
972.607	124.42
972.773	45.18
972.939	95.16
973.105	71.91
973.271	25.99
973.437	83.73
973.602	24.64
973.768	111.63
973.934	46.73
974.1	63
974.266	10.88
974.432	74.04
974.598	54.86
974.763	100.78
974.929	58.74
975.095	129.07
975.261	14.95
975.426	32.78
975.592	59.9
975.758	112.99
975.923	-1.91
976.089	38.78
976.255	72.3
976.42	69.78
976.586	72.3
976.751	67.07
976.917	126.36
977.082	87.99
977.248	16.5
977.413	-20.7
977.579	43.43
977.744	56.03
977.91	-7.91
978.075	2.74
978.24	88.57
978.406	61.06
978.571	34.91
978.736	6.23
978.902	70.17
979.067	22.31
979.232	-4.23
979.397	52.93
979.563	124.81
979.728	20.57
979.893	41.3
980.058	52.93
980.223	83.73
980.388	49.24
980.554	52.54
980.719	22.51
980.884	51.57
981.049	95.74
981.214	35.88
981.379	64.55
981.544	34.33
981.709	69.2
981.874	52.54
982.039	39.36
982.204	73.85
982.368	55.06
982.533	29.87
982.698	68.23
982.863	90.12
983.028	51.18
983.193	46.92
983.357	50.99
983.522	52.15
983.687	47.31
983.852	18.05
984.016	31.42
984.181	68.43
984.346	81.21
984.51	64.16
984.675	46.14
984.839	67.07
985.004	55.44
985.168	87.99
985.333	42.85
985.498	23.48
985.662	72.69
985.827	84.31
985.991	53.51
986.155	48.86
986.32	94.58
986.484	120.16
986.649	80.82
986.813	-2.1
986.977	63.78
987.142	72.88
987.306	14.56
987.47	12.63
987.634	42.66
987.799	58.54
987.963	52.15
988.127	91.09
988.291	117.83
988.455	54.28
988.62	35.29
988.784	75.01
988.948	89.16
989.112	36.07
989.276	43.04
989.44	58.74
989.604	19.02
989.768	35.29
989.932	139.14
990.096	25.41
990.26	3.13
990.424	5.07
990.588	41.88
990.752	120.16
990.915	71.14
991.079	27.35
991.243	35.88
991.407	60.48
991.571	44.01
991.734	89.74
991.898	86.64
992.062	137.59
992.226	40.91
992.389	8.94
992.553	-6.75
992.717	26.96
992.88	51.18
993.044	51.18
993.207	53.7
993.371	95.16
993.535	44.59
993.698	53.89
993.862	68.43
994.025	76.17
994.189	46.92
994.352	77.72
994.515	38.01
994.679	72.88
994.842	29.09
995.006	79.47
995.169	31.23
995.332	5.65
995.496	68.62
995.659	-23.99
995.822	26.96
995.985	15.14
996.149	91.87
996.312	27.74
996.475	106.4
996.638	21.73
996.801	95.16
996.964	96.91
997.128	32.39
997.291	18.24
997.454	63
997.617	-11.98
997.78	105.24
997.943	14.56
998.106	56.22
998.269	17.28
998.432	9.72
998.595	33.55
998.758	22.51
998.92	9.33
999.083	-23.02
999.246	14.37
999.409	2.16
999.572	-11.01
999.735	21.54
999.897	63.78
1000.06	12.82
1000.223	45.18
1000.386	64.94
1000.548	62.81
1000.711	64.36
1000.874	17.86
1001.036	-18.18
1001.199	49.63
1001.361	33.36
1001.524	23.86
1001.687	52.93
1001.849	14.95
1002.012	31.81
1002.174	29.09
1002.337	46.53
1002.499	12.24
1002.661	73.85
1002.824	7.98
1002.986	12.82
1003.149	15.34
1003.311	3.13
1003.473	68.81
1003.636	17.86
1003.798	56.8
1003.96	52.15
1004.123	47.11
1004.285	-1.91
1004.447	25.22
1004.609	40.91
1004.771	90.12
1004.933	-6.75
1005.096	24.83
1005.258	-30.58
1005.42	-13.14
1005.582	61.26
1005.744	36.07
1005.906	9.72
1006.068	25.61
1006.23	-32.13
1006.392	-32.52
1006.554	17.08
1006.716	56.41
1006.878	40.72
1007.04	-18.95
1007.202	2.74
1007.363	21.73
1007.525	26.96
1007.687	53.12
1007.849	64.36
1008.011	-8.11
1008.172	11.08
1008.334	16.31
1008.496	48.08
1008.658	-13.92
1008.819	11.66
1008.981	-6.94
1009.143	-5.97
1009.304	19.99
1009.466	26.58
1009.627	70.75
1009.789	114.92
1009.95	47.5
1010.112	8.36
1010.273	44.21
1010.435	9.53
1010.596	14.56
1010.758	-11.21
1010.919	17.66
1011.081	-28.25
1011.242	20.76
1011.403	20.38
1011.565	7.78
1011.726	38.78
1011.887	5.26
1012.049	3.71
1012.21	42.66
1012.371	79.66
1012.532	-56.35
1012.693	26.38
1012.855	-2.29
1013.016	18.63
1013.177	51.38
1013.338	13.79
1013.499	72.3
1013.66	22.7
1013.821	21.73
1013.982	29.68
1014.143	36.26
1014.304	-0.16
1014.465	36.26
1014.626	39.17
1014.787	2.74
1014.948	97.1
1015.109	-60.22
1015.27	46.92
1015.431	20.38
1015.592	18.63
1015.752	55.64
1015.913	19.6
1016.074	26.96
1016.235	35.49
1016.395	8.94
1016.556	7.78
1016.717	8.94
1016.877	27.93
1017.038	-24.38
1017.199	5.26
1017.359	15.92
1017.52	8.36
1017.681	-13.72
1017.841	12.82
1018.002	17.66
1018.162	-7.72
1018.323	70.94
1018.483	16.89
1018.644	2.74
1018.804	-35.04
1018.964	-19.15
1019.125	-30.19
1019.285	8.17
1019.446	-14.5
1019.606	2.74
1019.766	-10.24
1019.926	35.29
1020.087	35.68
1020.247	-16.24
1020.407	19.99
1020.567	57.58
1020.728	-15.47
1020.888	-35.04
1021.048	-21.28
1021.208	-2.49
1021.368	-10.62
1021.528	56.8
1021.688	55.06
1021.848	33.16
1022.008	18.44
1022.168	8.75
1022.328	18.63
1022.488	10.69
1022.648	-14.89
1022.808	0.42
1022.968	17.66
1023.128	-2.87
1023.288	-3.07
1023.448	13.59
1023.608	49.05
1023.767	32.19
1023.927	-17.02
1024.087	-21.67
1024.247	-32.71
1024.406	-7.91
1024.566	-0.74
1024.726	-2.68
1024.885	0.23
1025.045	10.11
1025.205	5.46
1025.364	-8.69
1025.524	26.58
1025.683	26.77
1025.843	-2.29
1026.003	25.41
1026.162	59.9
1026.321	11.08
1026.481	10.69
1026.64	-4.42
1026.8	1.39
1026.959	9.72
1027.119	11.85
1027.278	-26.51
1027.437	-9.85
1027.597	-5.78
1027.756	5.07
1027.915	5.46
1028.074	31.61
1028.234	-37.55
1028.393	30.45
1028.552	4.49
1028.711	-67.2
1028.87	48.66
1029.03	-29.42
1029.189	-4.42
1029.348	-58.48
1029.507	-16.82
1029.666	-14.69
1029.825	-50.34
1029.984	-5.2
1030.143	20.38
1030.302	-18.76
1030.461	-61.58
1030.62	-2.87
1030.779	18.83
1030.938	-41.82
1031.097	-52.67
1031.255	16.69
1031.414	46.14
1031.573	24.06
1031.732	-45.11
1031.891	-24.77
1032.049	48.66
1032.208	2.36
1032.367	0.23
1032.525	-1.91
1032.684	6.43
1032.843	25.99
1033.001	-50.73
1033.16	144.57
1033.319	65.71
1033.477	46.34
1033.636	-24.77
1033.794	-36.39
1033.953	22.12
1034.111	33.16
1034.27	-19.92
1034.428	15.73
1034.587	-49.95
1034.745	23.28
1034.903	-13.34
1035.062	16.11
1035.22	-52.67
1035.378	12.63
1035.537	-27.48
1035.695	5.46
1035.853	20.57
1036.011	6.62
1036.17	16.69
1036.328	-54.99
1036.486	30.06
1036.644	26.77
1036.802	-73.59
1036.96	-33.29
1037.119	-4.42
1037.277	-15.08
1037.435	-56.15
1037.593	-50.34
1037.751	7.39
1037.909	22.12
1038.067	22.12
