Data from pine_FLMT105791__184__17-23-38-073.txt Node

Date: Mon Mar 20 17:23:38 GMT 2023
User: antho
Spectrometer: FLMT10579
Trigger mode: 0
Integration Time (sec): 1.000000E-1
Scans to average: 10
Electric dark correction enabled: true
Nonlinearity correction enabled: false
Boxcar width: 0
XAxis mode: Wavelengths
Number of Pixels in Spectrum: 3648
>>>>>Begin Spectral Data<<<<<
345.248	-171.29
345.464	-171.29
345.681	-171.29
345.898	-165.28
346.114	-162.96
346.331	-23.27
346.548	18.2
346.764	6.96
346.981	-18.42
347.197	0.76
347.414	12.38
347.631	-32.95
347.847	72.06
348.064	-4.67
348.28	24.59
348.497	-50.97
348.713	-4.67
348.93	29.63
349.146	-12.42
349.363	-26.75
349.579	-4.67
349.796	-9.7
350.012	1.34
350.229	12.96
350.445	16.84
350.661	-6.8
350.878	-12.42
351.094	-11.06
351.311	20.13
351.527	-13.58
351.743	-7.38
351.96	10.25
352.176	16.06
352.392	39.9
352.609	8.7
352.825	4.44
353.041	9.67
353.257	-26.75
353.474	-9.12
353.69	15.68
353.906	4.25
354.122	-25.4
354.339	59.66
354.555	-5.25
354.771	-1.18
354.987	54.62
355.203	53.46
355.42	-33.92
355.636	-9.32
355.852	2.5
356.068	26.33
356.284	-28.11
356.5	66.25
356.716	-20.94
356.932	-0.79
357.148	26.91
357.364	-19.58
357.58	58.69
357.796	5.22
358.012	46.48
358.228	5.99
358.444	-43.8
358.66	49.78
358.876	-9.9
359.092	-32.57
359.308	12.38
359.524	6.18
359.74	-10.67
359.956	-33.34
360.172	-0.79
360.388	23.81
360.604	-29.47
360.819	81.36
361.035	12.77
361.251	20.91
361.467	-24.23
361.683	34.86
361.898	25.17
362.114	19.75
362.33	-3.89
362.546	47.84
362.762	0.76
362.977	21.1
363.193	-36.83
363.409	16.26
363.624	-50.58
363.84	-23.07
364.056	-16.29
364.271	7.35
364.487	-13.97
364.703	-3.31
364.918	-49.81
365.134	-18.03
365.35	-4.47
365.565	71.09
365.781	-2.34
365.996	-21.13
366.212	44.93
366.427	17.23
366.643	-4.08
366.858	-10.48
367.074	-25.78
367.289	32.92
367.505	68.76
367.72	-42.64
367.936	-8.15
368.151	21.1
368.367	23.81
368.582	5.41
368.798	-26.17
369.013	35.25
369.228	-3.12
369.444	0.37
369.659	45.71
369.874	10.83
370.09	38.93
370.305	-58.33
370.52	13.93
370.736	41.64
370.951	-14.74
371.166	43.77
371.381	51.71
371.597	39.7
371.812	-40.12
372.027	-37.6
372.242	8.9
372.458	54.23
372.673	9.09
372.888	-10.28
373.103	39.51
373.318	62.95
373.533	5.99
373.749	41.83
373.964	-41.28
374.179	67.8
374.394	-14.55
374.609	62.56
374.824	-34.12
375.039	28.27
375.254	-23.07
375.469	71.09
375.684	28.66
375.899	21.88
376.114	10.64
376.329	15.48
376.544	53.07
376.759	55.01
376.974	-14.35
377.189	-26.75
377.404	-10.48
377.619	35.63
377.834	-48.65
378.049	-39.73
378.264	-41.28
378.478	-0.98
378.693	-13.38
378.908	27.88
379.123	-2.73
379.338	61.79
379.553	29.63
379.767	21.68
379.982	32.73
380.197	24.01
380.412	9.48
380.626	26.91
380.841	75.74
381.056	39.31
381.271	71.67
381.485	-16.68
381.7	-31.98
381.915	25.36
382.129	-9.9
382.344	2.89
382.559	-14.35
382.773	15.1
382.988	-37.6
383.202	11.41
383.417	-8.73
383.632	122.82
383.846	14.32
384.061	18.78
384.275	8.51
384.49	21.88
384.704	23.43
384.919	-0.79
385.133	0.76
385.348	24.98
385.562	-24.04
385.777	45.51
385.991	-1.57
386.206	-6.99
386.42	-9.51
386.634	41.06
386.849	14.32
387.063	32.73
387.277	-17.84
387.492	-27.14
387.706	-38.38
387.92	-43.03
388.135	31.76
388.349	24.59
388.563	40.67
388.778	9.48
388.992	19.16
389.206	36.02
389.42	61.01
389.635	-1.37
389.849	36.41
390.063	39.31
390.277	1.73
390.491	53.85
390.706	22.07
390.92	38.15
391.134	3.28
391.348	31.95
391.562	-44.77
391.776	-6.8
391.99	-26.95
392.205	21.49
392.419	-19.39
392.633	11.8
392.847	67.99
393.061	-31.02
393.275	80.39
393.489	-0.4
393.703	27.3
393.917	60.24
394.131	-19.58
394.345	18.78
394.559	43.58
394.773	13.35
394.986	31.18
395.2	3.67
395.414	49.58
395.628	-16.1
395.842	11.22
396.056	-10.09
396.27	-64.92
396.484	0.95
396.697	28.85
396.911	36.99
397.125	44.55
397.339	42.41
397.553	17.61
397.766	89.3
397.98	54.81
398.194	39.9
398.408	-7.38
398.621	-2.92
398.835	30.21
399.049	-11.45
399.262	39.7
399.476	30.01
399.69	31.56
399.903	48.23
400.117	-12.03
400.331	14.51
400.544	18.97
400.758	101.7
400.971	47.84
401.185	46.1
401.398	-17.45
401.612	30.4
401.826	50.36
402.039	32.34
402.253	-35.86
402.466	23.62
402.68	-12.61
402.893	37.96
403.106	25.17
403.32	12.58
403.533	33.11
403.747	22.85
403.96	10.64
404.174	41.06
404.387	-17.26
404.6	2.89
404.814	54.62
405.027	26.91
405.24	-13.19
405.454	5.41
405.667	53.65
405.88	-46.71
406.094	13.55
406.307	39.31
406.52	24.59
406.733	-23.27
406.947	-31.21
407.16	86.98
407.373	68.76
407.586	-10.48
407.799	-21.91
408.012	54.43
408.226	23.23
408.439	53.26
408.652	-30.43
408.865	16.65
409.078	28.66
409.291	22.65
409.504	-29.66
409.717	15.29
409.93	39.12
410.143	28.85
410.357	-19.97
410.57	-8.54
410.783	14.9
410.996	47.45
411.209	13.35
411.421	21.1
411.634	25.75
411.847	7.15
412.06	6.96
412.273	15.1
412.486	13.35
412.699	97.05
412.912	0.18
413.125	37.38
413.338	23.43
413.55	46.68
413.763	16.26
413.976	56.75
414.189	-23.27
414.402	-8.93
414.615	59.27
414.827	-3.7
415.04	39.31
415.253	23.81
415.466	49
415.678	69.15
415.891	23.62
416.104	21.88
416.316	-6.41
416.529	-4.47
416.742	8.9
416.954	24.78
417.167	28.08
417.38	-10.87
417.592	61.6
417.805	-18.81
418.017	-38.57
418.23	44.74
418.442	7.73
418.655	-7.57
418.868	43.77
419.08	51.33
419.293	52.3
419.505	2.31
419.718	18.2
419.93	44.16
420.142	-5.63
420.355	64.11
420.567	65.86
420.78	35.44
420.992	36.6
421.205	85.23
421.417	-17.84
421.629	-15.52
421.842	-23.85
422.054	-35.86
422.266	44.35
422.479	38.54
422.691	19.36
422.903	70.12
423.115	30.6
423.328	18.39
423.54	24.01
423.752	11.22
423.964	-5.83
424.177	33.5
424.389	0.76
424.601	114.88
424.813	43
425.025	41.83
425.238	49.39
425.45	20.71
425.662	23.81
425.874	298.55
426.086	44.55
426.298	26.72
426.51	41.45
426.722	-1.57
426.934	-10.87
427.146	38.15
427.358	-12.42
427.57	39.9
427.782	2.31
427.994	12.77
428.206	15.68
428.418	-43.61
428.63	32.92
428.842	48.03
429.054	66.44
429.266	61.21
429.478	0.76
429.69	26.91
429.902	-13
430.114	31.37
430.325	45.71
430.537	-4.08
430.749	21.68
430.961	-15.9
431.173	21.3
431.384	30.01
431.596	-45.16
431.808	10.83
432.02	27.69
432.231	48.61
432.443	70.12
432.655	23.43
432.867	-12.03
433.078	24.4
433.29	59.85
433.502	56.17
433.713	61.01
433.925	22.26
434.136	33.89
434.348	-7.57
434.56	-21.72
434.771	99.38
434.983	-17.45
435.194	5.6
435.406	16.06
435.617	61.4
435.829	74
436.04	47.26
436.252	49.58
436.463	42.03
436.675	39.31
436.886	33.5
437.098	36.21
437.309	78.84
437.521	16.26
437.732	35.05
437.943	10.64
438.155	33.11
438.366	-32.18
438.578	91.24
438.789	26.33
439	52.1
439.211	24.01
439.423	30.4
439.634	54.62
439.845	39.51
440.057	11.8
440.268	51.13
440.479	-3.5
440.69	38.73
440.902	26.72
441.113	30.21
441.324	-2.34
441.535	34.47
441.746	88.53
441.957	0.95
442.168	-24.43
442.38	42.41
442.591	45.13
442.802	-6.99
443.013	9.67
443.224	30.79
443.435	24.78
443.646	34.86
443.857	9.28
444.068	3.47
444.279	-8.93
444.49	72.64
444.701	32.73
444.912	126.11
445.123	39.31
445.334	57.33
445.545	20.71
445.756	33.89
445.967	-14.93
446.178	51.71
446.388	58.88
446.599	53.46
446.81	59.46
447.021	5.22
447.232	60.24
447.443	80
447.653	-5.83
447.864	71.86
448.075	26.53
448.286	48.61
448.496	52.68
448.707	81.16
448.918	6.77
449.129	132.89
449.339	0.76
449.55	68.57
449.761	40.48
449.971	80.58
450.182	11.41
450.393	69.54
450.603	10.45
450.814	50.55
451.024	59.66
451.235	40.67
451.446	100.54
451.656	87.56
451.867	11.61
452.077	14.51
452.288	107.32
452.498	79.23
452.709	43.58
452.919	41.06
453.13	34.08
453.34	96.66
453.55	16.45
453.761	80.39
453.971	70.9
454.182	101.89
454.392	54.23
454.602	116.43
454.813	41.83
455.023	75.35
455.233	18.78
455.444	45.51
455.654	-11.64
455.864	38.54
456.075	62.56
456.285	34.66
456.495	50.55
456.705	33.5
456.916	84.26
457.126	84.07
457.336	47.45
457.546	-38.57
457.756	13.55
457.967	68.38
458.177	13.55
458.387	48.03
458.597	45.71
458.807	42.22
459.017	48.42
459.227	25.56
459.437	60.63
459.647	66.63
459.857	57.53
460.068	10.06
460.278	96.86
460.488	57.14
460.698	102.86
460.908	53.46
461.117	-7.57
461.327	11.03
461.537	59.46
461.747	43
461.957	39.7
462.167	131.54
462.377	84.26
462.587	47.84
462.797	101.12
463.007	73.41
463.216	80.97
463.426	85.43
463.636	83.88
463.846	4.44
464.056	14.32
464.265	102.09
464.475	22.85
464.685	49.97
464.895	84.65
465.104	73.03
465.314	91.82
465.524	30.4
465.733	23.04
465.943	114.1
466.153	93.37
466.362	75.93
466.572	120.69
466.782	26.91
466.991	79.81
467.201	125.34
467.41	1.53
467.62	58.3
467.829	19.75
468.039	91.05
468.249	41.25
468.458	42.22
468.668	104.99
468.877	89.69
469.086	104.99
469.296	90.46
469.505	33.11
469.715	139.09
469.924	94.73
470.134	127.66
470.343	117.2
470.552	62.37
470.762	73.61
470.971	22.85
471.18	68.38
471.39	58.5
471.599	40.09
471.808	91.63
472.018	36.8
472.227	96.47
472.436	72.06
472.645	43.58
472.855	33.89
473.064	104.8
473.273	59.46
473.482	61.4
473.691	100.54
473.901	84.46
474.11	76.13
474.319	138.9
474.528	43.96
474.737	101.7
474.946	77.87
475.155	96.47
475.364	109.26
475.573	74.77
475.783	95.31
475.992	90.08
476.201	110.42
476.41	66.83
476.619	43.58
476.828	100.73
477.037	67.8
477.245	68.57
477.454	87.56
477.663	50.75
477.872	64.89
478.081	125.34
478.29	36.6
478.499	170.09
478.708	72.25
478.917	129.21
479.125	67.8
479.334	107.51
479.543	87.95
479.752	49.58
479.961	85.23
480.169	115.26
480.378	46.68
480.587	139.87
480.796	122.63
481.004	77.1
481.213	115.65
481.422	88.91
481.63	75.55
481.839	108.87
482.048	131.93
482.256	108.29
482.465	87.95
482.674	110.42
482.882	105.77
483.091	170.09
483.299	138.13
483.508	127.66
483.716	70.31
483.925	88.53
484.134	80.97
484.342	68.38
484.551	130.18
484.759	108.09
484.967	77.1
485.176	111
485.384	126.89
485.593	105.77
485.801	111.97
486.01	116.81
486.218	108.68
486.426	63.53
486.635	120.3
486.843	110.81
487.051	136.58
487.26	94.15
487.468	109.64
487.676	139.68
487.885	104.61
488.093	97.63
488.301	123.59
488.509	109.84
488.717	125.92
488.926	107.9
489.134	116.23
489.342	114.49
489.55	78.26
489.758	100.34
489.967	76.71
490.175	186.17
490.383	65.47
490.591	142.78
490.799	61.98
491.007	122.24
491.215	103.25
491.423	120.11
491.631	115.46
491.839	123.21
492.047	153.63
492.255	95.89
492.463	64.5
492.671	126.11
492.879	144.52
493.087	123.59
493.295	148.98
493.503	133.28
493.711	127.47
493.919	166.22
494.127	142.97
494.334	181.14
494.542	72.45
494.75	98.02
494.958	116.81
495.166	156.14
495.374	111.19
495.581	113.13
495.789	127.66
495.997	173.39
496.205	126.69
496.412	101.12
496.62	116.62
496.828	136.38
497.035	98.02
497.243	157.5
497.451	134.06
497.658	129.41
497.866	110.23
498.074	186.95
498.281	107.9
498.489	197.99
498.696	150.91
498.904	134.44
499.112	128.83
499.319	197.8
499.527	145.49
499.734	160.21
499.942	111
500.149	108.87
500.357	109.64
500.564	104.22
500.771	150.53
500.979	108.87
501.186	118.56
501.394	155.56
501.601	133.09
501.808	169.71
502.016	138.51
502.223	138.51
502.43	143.55
502.638	131.73
502.845	103.06
503.052	187.53
503.26	117.59
503.467	220.47
503.674	146.84
503.881	142.39
504.089	221.63
504.296	187.72
504.503	108.29
504.71	146.84
504.917	98.79
505.125	135.22
505.332	147.62
505.539	165.64
505.746	210.2
505.953	184.62
506.16	176.29
506.367	209.04
506.574	201.67
506.781	210.59
506.988	122.82
507.195	163.89
507.402	132.12
507.609	199.16
507.816	140.26
508.023	155.56
508.23	143.55
508.437	119.14
508.644	183.85
508.851	213.11
509.058	177.26
509.265	185.4
509.472	172.81
509.679	244.11
509.885	141.23
510.092	163.89
510.299	159.24
510.506	178.62
510.713	183.27
510.92	155.18
511.126	191.99
511.333	192.96
511.54	178.62
511.746	237.91
511.953	223.18
512.16	207.49
512.367	154.01
512.573	156.14
512.78	170.09
512.987	186.37
513.193	166.03
513.4	131.73
513.606	190.82
513.813	185.4
514.02	205.16
514.226	262.71
514.433	229.96
514.639	161.38
514.846	197.02
515.052	169.32
515.259	192.76
515.465	163.51
515.672	148.78
515.878	260.57
516.085	165.06
516.291	231.32
516.497	130.38
516.704	172.81
516.91	147.62
517.117	170.29
517.323	155.37
517.529	181.33
517.736	189.47
517.942	195.09
518.148	149.17
518.354	204
518.561	179.39
518.767	192.57
518.973	229.19
519.179	221.44
519.386	167.38
519.592	165.83
519.798	157.89
520.004	201.87
520.21	155.95
520.417	191.6
520.623	218.72
520.829	205.16
521.035	219.89
521.241	212.52
521.447	219.5
521.653	284.21
521.859	184.62
522.065	232.29
522.271	292.54
522.477	231.71
522.683	259.41
522.889	247.59
523.095	247.98
523.301	242.75
523.507	197.8
523.713	239.84
523.919	195.86
524.125	266.97
524.331	193.54
524.537	288.47
524.742	243.33
524.948	251.66
525.154	243.72
525.36	315.99
525.566	241.2
525.772	281.89
525.977	193.54
526.183	260.19
526.389	297
526.595	233.45
526.8	230.54
527.006	258.83
527.212	201.67
527.417	220.66
527.623	204.77
527.829	260.57
528.034	255.34
528.24	250.5
528.446	210.97
528.651	273.17
528.857	273.17
529.062	297.77
529.268	233.84
529.473	249.72
529.679	219.69
529.884	302.23
530.09	286.15
530.295	304.17
530.501	289.64
530.706	271.04
530.912	198.19
531.117	280.34
531.323	247.59
531.528	278.59
531.733	266.39
531.939	249.53
532.144	294.09
532.35	255.92
532.555	308.43
532.76	297
532.966	292.74
533.171	317.15
533.376	262.32
533.581	271.42
533.787	291.77
533.992	268.91
534.197	361.9
534.402	236.74
534.607	276.46
534.813	369.85
535.018	259.22
535.223	272.59
535.428	292.54
535.633	328.77
535.838	303
536.043	272.39
536.249	355.51
536.454	265.61
536.659	292.74
536.864	276.46
537.069	271.04
537.274	315.4
537.479	301.65
537.684	325.09
537.889	274.72
538.094	367.91
538.299	297.97
538.504	293.12
538.708	302.23
538.913	309.4
539.118	268.91
539.323	299.52
539.528	269.1
539.733	316.37
539.938	353.38
540.142	349.89
540.347	315.79
540.552	288.09
540.757	331.1
540.962	312.3
541.166	288.67
541.371	276.46
541.576	310.95
541.781	192.96
541.985	277.62
542.19	292.54
542.395	361.71
542.599	365.97
542.804	348.92
543.008	364.62
543.213	278.59
543.418	277.04
543.622	327.8
543.827	281.5
544.031	366.36
544.236	339.82
544.44	293.9
544.645	386.7
544.849	303.39
545.054	326.25
545.258	424.29
545.463	377.98
545.667	304.55
545.872	304.36
546.076	337.88
546.281	331.1
546.485	290.8
546.689	330.9
546.894	321.99
547.098	333.04
547.302	273.17
547.507	312.69
547.711	326.25
547.915	381.67
548.119	298.55
548.324	313.85
548.528	395.62
548.732	332.65
548.936	361.71
549.141	364.23
549.345	299.71
549.549	321.99
549.753	322.19
549.957	411.12
550.161	373.33
550.366	336.72
550.57	338.65
550.774	323.54
550.978	327.61
551.182	319.47
551.386	296.42
551.59	328.39
551.794	306.69
551.998	350.86
552.202	304.94
552.406	290.02
552.61	316.57
552.814	340.79
553.018	370.23
553.222	328.77
553.426	318.12
553.63	389.22
553.833	322.96
554.037	283.24
554.241	366.55
554.445	345.63
554.649	309.98
554.853	319.67
555.056	349.7
555.26	359.97
555.464	350.28
555.668	327.42
555.871	348.15
556.075	381.08
556.279	325.29
556.483	302.23
556.686	325.87
556.89	334.97
557.094	351.44
557.297	313.47
557.501	371.01
557.704	266.58
557.908	369.65
558.112	316.76
558.315	405.11
558.519	331.1
558.722	356.48
558.926	347.57
559.129	313.27
559.333	255.92
559.536	307.65
559.74	291.57
559.943	297
560.147	306.88
560.35	328.58
560.553	312.69
560.757	253.79
560.96	383.22
561.164	280.14
561.367	380.31
561.57	295.06
561.774	332.26
561.977	331.1
562.18	302.81
562.384	402.01
562.587	313.66
562.79	282.47
562.993	316.95
563.197	317.73
563.4	369.65
563.603	357.06
563.806	414.6
564.009	302.04
564.212	313.27
564.416	289.25
564.619	354.35
564.822	301.07
565.025	341.37
565.228	330.71
565.431	336.91
565.634	272.2
565.837	287.12
566.04	291.38
566.243	277.82
566.446	251.27
566.649	342.72
566.852	279.17
567.055	295.84
567.258	325.09
567.461	365
567.664	334.39
567.867	260.96
568.07	336.72
568.273	314.82
568.475	327.8
568.678	294.29
568.881	299.13
569.084	321.41
569.287	233.26
569.489	259.61
569.692	334.2
569.895	329.35
570.098	286.73
570.3	247.21
570.503	218.92
570.706	238.29
570.909	238.68
571.111	243.72
571.314	239.84
571.516	255.92
571.719	268.91
571.922	263.09
572.124	256.12
572.327	281.69
572.529	216.4
572.732	223.96
572.935	275.49
573.137	323.54
573.34	278.98
573.542	291.38
573.745	273.94
573.947	287.31
574.15	273.75
574.352	260.19
574.554	329.16
574.757	257.67
574.959	253.21
575.162	220.66
575.364	278.4
575.566	357.45
575.769	246.62
575.971	292.15
576.173	191.6
576.376	297.39
576.578	283.24
576.78	316.76
576.982	211.17
577.185	250.11
577.387	231.12
577.589	227.44
577.791	272.97
577.993	274.52
578.196	227.64
578.398	264.26
578.6	295.25
578.802	216.98
579.004	217.56
579.206	228.99
579.408	278.79
579.61	232.67
579.812	290.99
580.014	238.87
580.216	222.99
580.418	240.23
580.62	226.86
580.822	205.55
581.024	224.15
581.226	275.69
581.428	231.71
581.63	311.14
581.832	215.24
582.034	277.24
582.236	220.27
582.438	262.51
582.64	253.79
582.841	308.43
583.043	313.08
583.245	252.24
583.447	241.78
583.649	237.71
583.85	266.19
584.052	304.36
584.254	198.96
584.456	290.8
584.657	218.72
584.859	260.19
585.061	257.47
585.262	226.09
585.464	235.97
585.666	273.36
585.867	246.43
586.069	320.05
586.27	266.77
586.472	259.22
586.674	237.52
586.875	235
587.077	248.76
587.278	265.42
587.48	217.76
587.681	348.92
587.883	265.61
588.084	199.16
588.285	267.16
588.487	279.37
588.688	289.64
588.89	227.06
589.091	214.07
589.292	238.49
589.494	228.41
589.695	228.41
589.896	187.92
590.098	160.21
590.299	238.29
590.5	202.06
590.702	199.74
590.903	232.29
591.104	277.62
591.305	248.17
591.507	292.35
591.708	253.99
591.909	218.53
592.11	293.7
592.311	268.52
592.512	246.62
592.714	188.89
592.915	201.48
593.116	211.94
593.317	209.23
593.518	212.72
593.719	212.52
593.92	249.53
594.121	276.07
594.322	218.92
594.523	243.52
594.724	206.13
594.925	222.02
595.126	244.3
595.327	274.33
595.528	262.51
595.729	235.39
595.929	243.91
596.13	224.15
596.331	237.13
596.532	232.09
596.733	295.64
596.934	268.91
597.135	248.76
597.335	235.39
597.536	189.47
597.737	239.07
597.938	197.8
598.138	263.09
598.339	254.76
598.54	236.36
598.74	225.12
598.941	266.97
599.142	258.83
599.342	221.82
599.543	205.94
599.744	233.84
599.944	192.18
600.145	225.31
600.345	237.52
600.546	308.24
600.746	283.24
600.947	289.44
601.147	257.28
601.348	279.56
601.548	224.15
601.749	246.04
601.949	201.67
602.15	188.5
602.35	251.66
602.551	298.16
602.751	192.96
602.951	203.42
603.152	188.5
603.352	263.48
603.552	227.64
603.753	250.31
603.953	229.38
604.153	244.88
604.354	220.08
604.554	229.19
604.754	235.58
604.954	185.98
605.155	233.64
605.355	209.81
605.555	230.93
605.755	269.68
605.955	228.99
606.155	253.6
606.356	248.95
606.556	262.51
606.756	251.08
606.956	183.46
607.156	267.74
607.356	216.98
607.556	245.46
607.756	240.42
607.956	273.94
608.156	235.58
608.356	199.35
608.556	270.84
608.756	230.35
608.956	170.48
609.156	250.11
609.356	191.99
609.556	212.33
609.755	256.12
609.955	183.85
610.155	229.96
610.355	235.58
610.555	211.94
610.755	231.32
610.954	170.87
611.154	232.87
611.354	262.12
611.554	197.22
611.753	206.32
611.953	159.83
612.153	242.17
612.352	213.69
612.552	199.93
612.752	180.36
612.951	195.09
613.151	225.51
613.351	170.09
613.55	197.99
613.75	226.47
613.949	236.94
614.149	237.52
614.348	231.9
614.548	201.48
614.747	142.78
614.947	184.82
615.146	139.87
615.346	242.36
615.545	193.15
615.745	227.44
615.944	240.42
616.144	220.86
616.343	247.79
616.542	196.25
616.742	222.21
616.941	263.09
617.14	172.81
617.34	209.42
617.539	212.91
617.738	185.98
617.938	256.12
618.137	209.62
618.336	167.38
618.535	236.94
618.734	229.96
618.934	228.99
619.133	218.14
619.332	241.39
619.531	170.29
619.73	190.05
619.929	238.68
620.128	235
620.328	274.52
620.527	187.14
620.726	209.23
620.925	203.61
621.124	197.99
621.323	218.92
621.522	168.54
621.721	150.14
621.92	192.57
622.119	221.44
622.318	169.32
622.517	222.02
622.715	190.44
622.914	142.97
623.113	185.21
623.312	140.84
623.511	238.29
623.71	192.57
623.909	196.06
624.107	263.09
624.306	160.6
624.505	160.21
624.704	191.6
624.902	168.74
625.101	218.92
625.3	209.42
625.499	179.98
625.697	165.64
625.896	161.57
626.095	193.34
626.293	142.78
626.492	169.32
626.69	203.81
626.889	164.86
627.088	186.56
627.286	159.05
627.485	165.64
627.683	172.61
627.882	225.31
628.08	100.54
628.279	190.63
628.477	252.44
628.676	171.26
628.874	204.97
629.073	178.62
629.271	155.95
629.469	206.13
629.668	188.89
629.866	145.49
630.065	142.19
630.263	193.34
630.461	154.98
630.66	201.29
630.858	218.72
631.056	214.46
631.254	240.04
631.453	168.54
631.651	206.91
631.849	192.76
632.047	189.66
632.245	187.72
632.444	183.85
632.642	176.29
632.84	189.27
633.038	153.82
633.236	131.15
633.434	147.62
633.632	135.99
633.83	168.74
634.028	185.98
634.227	172.23
634.425	226.09
634.623	183.27
634.821	168.93
635.019	177.84
635.216	151.11
635.414	201.87
635.612	183.85
635.81	160.79
636.008	232.48
636.206	157.89
636.404	210.39
636.602	171.64
636.8	167.19
636.997	200.32
637.195	221.82
637.393	190.63
637.591	241.39
637.789	172.03
637.986	158.66
638.184	155.95
638.382	216.01
638.58	224.73
638.777	229.19
638.975	154.79
639.173	185.21
639.37	193.73
639.568	183.85
639.765	202.84
639.963	178.62
640.161	225.31
640.358	202.45
640.556	141.61
640.753	166.8
640.951	157.11
641.148	181.91
641.346	186.95
641.543	216.98
641.741	181.33
641.938	147.81
642.136	175.52
642.333	145.68
642.531	197.22
642.728	223.18
642.925	212.33
643.123	145.1
643.32	185.01
643.517	180.75
643.715	185.59
643.912	143.16
644.109	200.71
644.306	177.65
644.504	155.56
644.701	200.9
644.898	209.62
645.095	153.24
645.293	199.74
645.49	216.79
645.687	195.09
645.884	221.24
646.081	128.63
646.278	167.19
646.475	166.8
646.672	142.78
646.87	201.09
647.067	197.8
647.264	196.64
647.461	166.61
647.658	120.49
647.855	200.71
648.052	162.73
648.249	75.74
648.446	153.82
648.642	152.66
648.839	135.8
649.036	147.23
649.233	134.44
649.43	120.3
649.627	105.58
649.824	133.67
650.021	141.61
650.217	106.93
650.414	130.96
650.611	157.5
650.808	152.27
651.004	166.22
651.201	184.43
651.398	204.77
651.595	132.31
651.791	151.69
651.988	188.69
652.185	132.51
652.381	171.84
652.578	130.96
652.775	145.49
652.971	144.33
653.168	172.61
653.364	168.35
653.561	125.73
653.757	136.19
653.954	151.11
654.15	140.06
654.347	214.85
654.543	142.97
654.74	102.09
654.936	123.4
655.133	160.99
655.329	140.45
655.525	142.58
655.722	170.48
655.918	125.92
656.115	191.41
656.311	120.11
656.507	91.82
656.704	102.48
656.9	110.23
657.096	121.66
657.292	95.5
657.489	191.41
657.685	178.43
657.881	128.05
658.077	126.5
658.273	121.27
658.47	200.12
658.666	116.04
658.862	147.04
659.058	119.91
659.254	176.49
659.45	121.27
659.646	140.06
659.842	129.02
660.038	203.81
660.234	94.53
660.43	131.54
660.626	202.45
660.822	184.62
661.018	194.89
661.214	163.12
661.41	102.86
661.606	153.63
661.802	158.08
661.998	125.14
662.194	97.83
662.39	163.89
662.586	169.32
662.781	158.28
662.977	136.19
663.173	182.11
663.369	138.51
663.564	160.6
663.76	173.58
663.956	145.1
664.152	185.21
664.347	83.49
664.543	153.43
664.739	136.38
664.934	113.91
665.13	94.92
665.326	166.61
665.521	154.59
665.717	102.48
665.912	84.46
666.108	72.64
666.304	112.74
666.499	145.1
666.695	86.59
666.89	123.4
667.086	167.96
667.281	135.61
667.477	174.94
667.672	139.29
667.867	159.44
668.063	152.85
668.258	116.04
668.454	132.12
668.649	221.24
668.844	157.31
669.04	175.71
669.235	127.08
669.43	112.16
669.626	111.39
669.821	146.65
670.016	110.42
670.211	146.65
670.407	101.51
670.602	108.09
670.797	117.01
670.992	175.33
671.187	99.18
671.382	178.04
671.578	102.67
671.773	148.98
671.968	112.94
672.163	131.34
672.358	176.1
672.553	101.7
672.748	99.57
672.943	191.02
673.138	128.63
673.333	168.16
673.528	130.38
673.723	149.94
673.918	151.3
674.113	109.26
674.308	210.78
674.503	174.94
674.698	193.34
674.892	147.04
675.087	170.87
675.282	156.14
675.477	114.1
675.672	146.07
675.867	129.79
676.061	103.83
676.256	87.36
676.451	116.04
676.646	125.34
676.84	103.25
677.035	88.91
677.23	81.75
677.424	150.33
677.619	145.88
677.814	158.47
678.008	150.91
678.203	75.93
678.397	104.22
678.592	135.41
678.787	173.78
678.981	138.9
679.176	153.04
679.37	135.99
679.565	99.76
679.759	92.4
679.954	133.09
680.148	170.68
680.342	166.99
680.537	147.62
680.731	114.29
680.926	129.79
681.12	162.93
681.314	73.8
681.509	144.91
681.703	151.11
681.897	155.56
682.092	139.29
682.286	115.84
682.48	183.27
682.674	149.36
682.869	132.31
683.063	106.93
683.257	176.29
683.451	100.34
683.645	149.56
683.839	137.35
684.034	124.76
684.228	154.98
684.422	91.63
684.616	95.31
684.81	165.83
685.004	121.66
685.198	128.83
685.392	173.19
685.586	82.52
685.78	123.79
685.974	142.58
686.168	145.88
686.362	189.08
686.556	123.4
686.75	106.93
686.944	115.26
687.138	169.32
687.331	89.3
687.525	127.47
687.719	84.46
687.913	135.03
688.107	103.44
688.301	95.11
688.494	156.73
688.688	92.4
688.882	81.16
689.076	55.59
689.269	114.29
689.463	161.18
689.657	102.48
689.85	109.84
690.044	113.71
690.238	113.33
690.431	115.07
690.625	103.44
690.818	103.83
691.012	129.02
691.205	136.77
691.399	76.32
691.593	119.72
691.786	170.09
691.98	147.81
692.173	166.03
692.366	131.15
692.56	128.24
692.753	207.87
692.947	78.65
693.14	176.1
693.333	152.08
693.527	87.17
693.72	142.97
693.914	133.86
694.107	110.42
694.3	144.91
694.493	119.53
694.687	160.02
694.88	118.94
695.073	177.07
695.266	155.56
695.46	134.25
695.653	194.31
695.846	154.79
696.039	95.11
696.232	136.77
696.425	184.43
696.618	149.94
696.812	131.34
697.005	197.02
697.198	249.53
697.391	185.98
697.584	184.24
697.777	246.24
697.97	222.02
698.163	229.19
698.356	186.56
698.549	262.51
698.742	226.47
698.935	181.14
699.127	220.27
699.32	177.84
699.513	171.64
699.706	220.47
699.899	208.46
700.092	173.39
700.285	224.54
700.477	144.13
700.67	187.14
700.863	224.34
701.056	319.09
701.248	280.92
701.441	248.56
701.634	196.25
701.826	323.74
702.019	191.41
702.212	285.37
702.404	207.49
702.597	205.16
702.79	238.29
702.982	233.45
703.175	269.49
703.367	254.37
703.56	254.57
703.752	339.04
703.945	275.49
704.137	289.64
704.33	301.45
704.522	291.38
704.715	281.89
704.907	283.63
705.1	302.62
705.292	321.6
705.484	297
705.677	322.38
705.869	286.92
706.061	335.55
706.254	363.45
706.446	317.92
706.638	299.32
706.831	386.32
707.023	313.85
707.215	411.31
707.407	365.58
707.599	366.94
707.792	382.83
707.984	368.49
708.176	397.17
708.368	351.05
708.56	373.72
708.752	366.75
708.944	370.62
709.136	426.03
709.329	344.66
709.521	457.61
709.713	425.84
709.905	419.83
710.097	452.96
710.289	379.34
710.481	426.03
710.672	457.81
710.864	421.97
711.056	467.5
711.248	474.28
711.44	426.81
711.632	427.39
711.824	438.05
712.016	515.74
712.207	500.63
712.399	512.06
712.591	547.32
712.783	483.58
712.975	549.45
713.166	445.6
713.358	496.56
713.55	565.53
713.741	528.14
713.933	504.11
714.125	536.08
714.316	495.78
714.508	553.91
714.7	602.34
714.891	569.21
715.083	604.67
715.274	542.67
715.466	548.29
715.657	607.96
715.849	513.41
716.04	598.66
716.232	490.55
716.423	594.98
716.615	553.13
716.806	540.93
716.998	553.52
717.189	519.23
717.381	497.53
717.572	491.71
717.763	516.51
717.955	508.18
718.146	518.84
718.337	458.58
718.528	468.08
718.72	442.12
718.911	508.18
719.102	466.91
719.293	544.61
719.485	501.21
719.676	493.07
719.867	476.21
720.058	464.59
720.249	489.97
720.44	499.27
720.632	518.06
720.823	511.86
721.014	569.02
721.205	568.24
721.396	594.01
721.587	658.92
721.778	633.92
721.969	659.69
722.16	687.01
722.351	615.13
722.542	760.25
722.733	737.39
722.924	657.37
723.115	723.24
723.305	729.05
723.496	720.34
723.687	653.11
723.878	666.47
724.069	684.69
724.26	706
724.45	663.57
724.641	665.31
724.832	702.71
725.023	709.87
725.213	635.67
725.404	669.96
725.595	682.56
725.785	664.34
725.976	726.92
726.167	696.7
726.357	708.71
726.548	755.6
726.739	745.91
726.929	766.25
727.12	796.09
727.31	765.29
727.501	754.05
727.691	774.2
727.882	768.19
728.072	805.58
728.263	786.79
728.453	844.72
728.644	800.55
728.834	822.05
729.024	774.97
729.215	793.19
729.405	791.64
729.596	879.98
729.786	895.48
729.976	857.7
730.167	868.17
730.357	830.77
730.547	825.35
730.737	888.31
730.928	885.6
731.118	940.82
731.308	888.9
731.498	891.8
731.688	942.76
731.879	924.16
732.069	1003.21
732.259	948.76
732.449	952.45
732.639	1031.11
732.829	1025.88
733.019	1045.25
733.209	1077.02
733.399	1051.45
733.589	1105.51
733.779	1079.35
733.969	1066.95
734.159	1154.72
734.349	1141.54
734.539	1203.74
734.729	1178.35
734.919	1225.44
735.109	1193.85
735.299	1159.17
735.488	1196.95
735.678	1219.62
735.868	1205.67
736.058	1225.82
736.248	1185.72
736.437	1179.13
736.627	1174.29
736.817	1259.53
737.007	1220.79
737.196	1245.78
737.386	1204.7
737.576	1183.59
737.765	1273.29
737.955	1222.72
738.144	1306.42
738.334	1284.72
738.524	1238.8
738.713	1280.46
738.903	1288.98
739.092	1318.24
739.282	1324.83
739.471	1336.84
739.661	1273.68
739.85	1308.55
740.04	1364.55
740.229	1350.01
740.419	1324.05
740.608	1383.34
740.797	1382.76
740.987	1422.48
741.176	1413.56
741.365	1321.73
741.555	1337.61
741.744	1407.56
741.933	1381.98
742.123	1411.63
742.312	1418.02
742.501	1402.71
742.69	1432.94
742.88	1394.38
743.069	1498.23
743.258	1387.8
743.447	1480.21
743.636	1474.79
743.825	1389.35
744.014	1460.26
744.204	1435.65
744.393	1405.62
744.582	1455.99
744.771	1484.86
744.96	1481.76
745.149	1478.47
745.338	1440.88
745.527	1468.98
745.716	1441.66
745.905	1435.65
746.094	1486.8
746.283	1477.31
746.471	1497.07
746.66	1563.14
746.849	1509.47
747.038	1528.84
747.227	1518.57
747.416	1500.75
747.604	1484.09
747.793	1505.01
747.982	1504.82
748.171	1519.74
748.359	1552.87
748.548	1529.62
748.737	1512.96
748.926	1521.87
749.114	1472.46
749.303	1530.01
749.491	1530.97
749.68	1447.08
749.869	1581.15
750.057	1504.62
750.246	1478.47
750.434	1504.82
750.623	1491.84
750.811	1495.91
751	1534.27
751.188	1514.89
751.377	1509.08
751.565	1478.66
751.754	1443.4
751.942	1478.08
752.131	1533.69
752.319	1490.09
752.507	1457.35
752.696	1504.43
752.884	1527.49
753.072	1490.48
753.261	1479.83
753.449	1502.11
753.637	1479.44
753.825	1585.61
754.014	1481.96
754.202	1497.84
754.39	1538.92
754.578	1529.23
754.766	1490.87
754.955	1482.34
755.143	1581.93
755.331	1467.04
755.519	1455.22
755.707	1542.6
755.895	1488.74
756.083	1532.72
756.271	1478.86
756.459	1479.05
756.647	1539.11
756.835	1503.85
757.023	1479.05
757.211	1501.91
757.399	1494.94
757.587	1502.3
757.775	1460.45
757.963	1460.64
758.151	1466.84
758.339	1452.7
758.526	1456.19
758.714	1498.23
758.902	1422.28
759.09	1404.46
759.278	1294.02
759.465	1228.34
759.653	979.38
759.841	964.07
760.028	781.75
760.216	681.01
760.404	697.47
760.591	528.72
760.779	464.98
760.967	423.13
761.154	319.47
761.342	345.44
761.529	356.29
761.717	358.61
761.905	358.61
762.092	389.42
762.28	343.3
762.467	374.11
762.655	315.4
762.842	358.61
763.029	342.53
763.217	362.68
763.404	347.37
763.592	392.13
763.779	341.17
763.966	367.72
764.154	402.98
764.341	431.85
764.528	413.63
764.716	441.53
764.903	464.2
765.09	498.88
765.277	503.92
765.465	628.5
765.652	602.93
765.839	659.31
766.026	724.4
766.213	699.8
766.4	782.34
766.588	903.04
766.775	856.15
766.962	957.48
767.149	938.5
767.336	1049.9
767.523	977.44
767.71	1065.79
767.897	1133.41
768.084	1173.7
768.271	1171.96
768.458	1220.79
768.645	1234.15
768.832	1200.05
769.019	1195.02
769.206	1234.73
769.392	1282.78
769.579	1332.77
769.766	1298.87
769.953	1280.07
770.14	1329.09
770.327	1330.45
770.513	1341.88
770.7	1351.37
770.887	1307.78
771.073	1347.5
771.26	1346.91
771.447	1289.37
771.634	1330.64
771.82	1413.95
772.007	1350.4
772.193	1357.38
772.38	1437.39
772.567	1342.26
772.753	1362.61
772.94	1395.35
773.126	1407.75
773.313	1367.06
773.499	1370.16
773.686	1368.61
773.872	1388.76
774.059	1347.11
774.245	1296.93
774.432	1333.35
774.618	1288.79
774.804	1347.69
774.991	1333.35
775.177	1401.55
775.363	1335.68
775.55	1357.76
775.736	1320.18
775.922	1330.45
776.109	1333.35
776.295	1348.27
776.481	1319.79
776.667	1361.83
776.853	1317.08
777.04	1311.65
777.226	1329.28
777.412	1420.15
777.598	1330.83
777.784	1295.96
777.97	1285.11
778.156	1339.55
778.342	1292.86
778.528	1299.45
778.715	1273.29
778.901	1284.33
779.087	1306.81
779.272	1292.86
779.458	1279.3
779.644	1329.28
779.83	1248.68
780.016	1369.78
780.202	1316.11
780.388	1250.82
780.574	1230.67
780.76	1281.04
780.946	1331.03
781.131	1273.1
781.317	1270.77
781.503	1267.67
781.689	1245
781.874	1332.77
782.06	1270.97
782.246	1291.5
782.432	1261.86
782.617	1283.95
782.803	1340.13
782.989	1247.52
783.174	1252.95
783.36	1212.84
783.545	1235.12
783.731	1233.57
783.916	1187.07
784.102	1247.33
784.288	1220.4
784.473	1247.33
784.659	1232.8
784.844	1292.28
785.029	1175.45
785.215	1208.97
785.4	1173.32
785.586	1262.05
785.771	1167.12
785.956	1244.03
786.142	1224.47
786.327	1202.96
786.512	1216.91
786.698	1177.58
786.883	1151.62
787.068	1175.06
787.254	1190.95
787.439	1153.17
787.624	1189.79
787.809	1137.86
787.994	1148.9
788.18	1214.78
788.365	1128.56
788.55	1169.44
788.735	1150.07
788.92	1168.28
789.105	1152.39
789.29	1181.07
789.475	1132.05
789.66	1140.38
789.845	1118.49
790.03	1103.57
790.215	1182.81
790.4	1153.94
790.585	1180.49
790.77	1118.87
790.955	1072.96
791.14	1114.22
791.325	1161.69
791.51	1045.64
791.695	1115.39
791.879	1078.57
792.064	1087.49
792.249	1163.63
792.434	1124.3
792.618	1122.75
792.803	1154.14
792.988	1096.59
793.173	1077.8
793.357	1143.29
793.542	1076.44
793.727	1111.9
793.911	1100.86
794.096	1088.07
794.281	1118.68
794.465	1172.93
794.65	1095.43
794.834	1106.09
795.019	1166.92
795.203	1164.6
795.388	1166.34
795.572	1156.65
795.757	1148.71
795.941	1156.65
796.126	1157.62
796.31	1092.72
796.494	1138.64
796.679	1094.07
796.863	1119.07
797.048	1164.4
797.232	1149.49
797.416	1154.91
797.601	1114.22
797.785	1185.52
797.969	1161.69
798.153	1114.61
798.338	1132.24
798.522	1133.6
798.706	1129.34
798.89	1158.2
799.074	1224.08
799.258	1157.82
799.443	1146.19
799.627	1122.56
799.811	1169.25
799.995	1157.62
800.179	1093.11
800.363	1126.43
800.547	1150.45
800.731	1149.49
800.915	1061.91
801.099	1127.59
801.283	1133.99
801.467	1128.76
801.651	1103.18
801.835	1192.11
802.019	1161.3
802.202	1166.92
802.386	1080.71
802.57	1105.89
802.754	1111.9
802.938	1093.69
803.121	1107.44
803.305	1177.97
803.489	1138.25
803.673	1140.57
803.856	1145.8
804.04	1127.21
804.224	1130.5
804.407	1121.01
804.591	1110.54
804.775	1136.12
804.958	1175.64
805.142	1222.34
805.326	1154.52
805.509	1181.84
805.693	1164.6
805.876	1197.54
806.06	1139.41
806.243	1131.86
806.427	1177.19
806.61	1187.46
806.794	1123.52
806.977	1164.4
807.16	1157.24
807.344	1164.4
807.527	1151.04
807.71	1131.47
807.894	1163.82
808.077	1225.24
808.26	1100.27
808.444	1099.89
808.627	1153.36
808.81	1146.97
808.993	1075.09
809.177	1099.69
809.36	1079.16
809.543	1112.67
809.726	1051.06
809.909	1071.6
810.092	1079.54
810.276	1075.28
810.459	1089.62
810.642	1069.27
810.825	1043.89
811.008	1056.1
811.191	980.54
811.374	1003.98
811.557	1041.96
811.74	1095.43
811.923	959.03
812.106	1034.21
812.289	954
812.472	977.05
812.654	1009.79
812.837	995.46
813.02	946.83
813.203	932.68
813.386	869.72
813.569	881.34
813.751	870.3
813.934	926.87
814.117	881.92
814.3	859.06
814.482	843.56
814.665	823.8
814.848	801.9
815.03	790.47
815.213	805.39
815.396	790.67
815.578	755.99
815.761	740.87
815.943	827.48
816.126	717.82
816.309	722.08
816.491	675.77
816.674	647.29
816.856	687.59
817.039	668.61
817.221	753.47
817.403	690.5
817.586	708.52
817.768	759.28
817.951	681.2
818.133	678.49
818.315	712.39
818.498	727.5
818.68	774.78
818.862	731.19
819.045	722.47
819.227	747.46
819.409	714.72
819.591	763.15
819.774	714.91
819.956	684.88
820.138	762.57
820.32	742.04
820.502	745.91
820.684	768.19
820.866	788.34
821.048	837.75
821.231	820.5
821.413	797.83
821.595	802.68
821.777	815.08
821.959	784.85
822.141	854.41
822.323	757.34
822.505	716.07
822.686	718.4
822.868	728.47
823.05	636.83
823.232	630.05
823.414	575.41
823.596	632.96
823.778	622.88
823.96	641.09
824.141	610.68
824.323	614.36
824.505	706.77
824.687	726.92
824.868	701.74
825.05	785.63
825.232	787.95
825.413	864.1
825.595	799.38
825.777	734.87
825.958	813.72
826.14	778.46
826.321	811.59
826.503	778.07
826.685	789.5
826.866	811.01
827.048	814.11
827.229	764.7
827.411	729.05
827.592	702.71
827.773	743.97
827.955	706.77
828.136	740.49
828.318	663.57
828.499	719.95
828.68	678.68
828.862	746.3
829.043	750.56
829.224	731.57
829.406	665.51
829.587	692.05
829.768	690.31
829.949	711.23
830.131	684.88
830.312	745.72
830.493	714.72
830.674	698.25
830.855	708.71
831.036	695.34
831.218	711.62
831.399	747.46
831.58	721.89
831.761	723.44
831.942	743.59
832.123	710.26
832.304	672.29
832.485	705.03
832.666	673.45
832.847	728.09
833.028	724.02
833.209	754.44
833.389	714.91
833.57	676.74
833.751	710.65
833.932	754.24
834.113	711.81
834.294	706.58
834.475	722.85
834.655	738.94
834.836	745.14
835.017	719.75
835.198	680.04
835.378	715.88
835.559	754.05
835.74	720.34
835.92	709.68
836.101	675.19
836.281	717.04
836.462	708.71
836.643	757.34
836.823	737.58
837.004	726.34
837.184	771.29
837.365	781.75
837.545	771.68
837.726	766.25
837.906	784.27
838.087	760.64
838.267	741.26
838.448	688.76
838.628	753.47
838.808	751.34
838.989	792.22
839.169	699.99
839.349	760.25
839.53	739.71
839.71	764.32
839.89	749.98
840.07	783.5
840.251	719.56
840.431	771.1
840.611	734.09
840.791	695.73
840.971	750.95
841.151	743.39
841.332	696.12
841.512	777.1
841.692	664.34
841.872	707.16
842.052	734.67
842.232	781.95
842.412	673.45
842.592	723.05
842.772	730.22
842.952	728.67
843.132	720.14
843.312	703.09
843.492	677.71
843.672	720.53
843.851	702.51
844.031	748.04
844.211	717.24
844.391	696.7
844.571	715.69
844.751	726.54
844.93	749.59
845.11	696.89
845.29	706.97
845.47	718.79
845.649	722.85
845.829	731.96
846.009	697.47
846.188	751.34
846.368	696.51
846.547	696.51
846.727	745.52
846.907	659.11
847.086	720.34
847.266	744.55
847.445	687.79
847.625	672.48
847.804	695.54
847.984	678.49
848.163	679.26
848.343	694.57
848.522	703.67
848.701	699.99
848.881	645.16
849.06	683.52
849.239	711.42
849.419	730.41
849.598	641.48
849.777	695.92
849.957	681.39
850.136	640.9
850.315	624.62
850.494	617.26
850.674	629.08
850.853	681.2
851.032	656.01
851.211	721.5
851.39	668.61
851.569	643.22
851.748	640.51
851.927	692.24
852.107	681.2
852.286	631.6
852.465	631.41
852.644	681.59
852.823	647.49
853.002	654.66
853.181	645.16
853.359	689.53
853.538	598.66
853.717	679.07
853.896	610.68
854.075	573.09
854.254	556.62
854.433	560.69
854.611	594.4
854.79	526.78
854.969	567.86
855.148	584.71
855.327	574.64
855.505	598.47
855.684	573.67
855.863	596.53
856.041	552.74
856.22	607.38
856.399	552.74
856.577	632.96
856.756	619.01
856.934	732.15
857.113	733.32
857.291	614.94
857.47	599.05
857.648	630.82
857.827	616.88
858.005	640.32
858.184	608.54
858.362	687.21
858.541	635.67
858.719	606.22
858.898	602.15
859.076	603.12
859.254	683.52
859.433	608.93
859.611	579.29
859.789	557.98
859.967	669.77
860.146	669.77
860.324	597.69
860.502	575.61
860.68	568.63
860.859	563.21
861.037	599.24
861.215	638.96
861.393	622.69
861.571	578.13
861.749	586.46
861.927	618.81
862.105	601.76
862.283	573.48
862.461	557.78
862.639	536.08
862.817	555.65
862.995	567.86
863.173	565.34
863.351	563.4
863.529	580.84
863.707	624.04
863.885	606.22
864.063	529.69
864.241	568.05
864.418	618.23
864.596	572.51
864.774	531.05
864.952	575.22
865.129	587.81
865.307	547.51
865.485	519.61
865.663	573.09
865.84	497.72
866.018	555.07
866.196	452.19
866.373	530.08
866.551	505.28
866.728	445.02
866.906	477.96
867.084	516.9
867.261	540.73
867.439	489.78
867.616	505.28
867.794	510.31
867.971	525.23
868.149	528.14
868.326	585.29
868.503	534.73
868.681	508.38
868.858	495.01
869.035	510.31
869.213	558.75
869.39	505.28
869.567	583.74
869.745	532.4
869.922	529.3
870.099	551.97
870.276	577.74
870.454	514.58
870.631	551.78
870.808	497.53
870.985	543.44
871.162	575.99
871.339	549.84
871.517	503.15
871.694	488.23
871.871	555.65
872.048	538.02
872.225	488.61
872.402	541.7
872.579	486.48
872.756	539.57
872.933	463.62
873.11	485.71
873.287	521.16
873.463	497.91
873.64	477.96
873.817	522.52
873.994	502.76
874.171	464.4
874.348	517.1
874.524	437.08
874.701	519.03
874.878	440.95
875.055	530.46
875.231	476.41
875.408	484.55
875.585	452.58
875.762	476.41
875.938	505.47
876.115	478.35
876.291	462.07
876.468	479.12
876.645	435.14
876.821	497.14
876.998	473.7
877.174	488.23
877.351	454.9
877.527	450.06
877.704	482.41
877.88	483.19
878.057	444.25
878.233	492.3
878.409	456.84
878.586	473.7
878.762	464.2
878.938	460.52
879.115	416.35
879.291	440.95
879.467	441.53
879.644	431.07
879.82	471.37
879.996	433.59
880.172	416.73
880.349	453.16
880.525	480.48
880.701	395.62
880.877	406.66
881.053	462.07
881.229	448.12
881.405	508.57
881.581	391.16
881.757	435.33
881.933	458.97
882.109	466.91
882.285	422.55
882.461	400.07
882.637	435.14
882.813	396.78
882.989	440.76
883.165	481.45
883.341	413.63
883.517	468.27
883.693	447.93
883.869	464.2
884.044	380.7
884.22	480.67
884.396	498.88
884.572	431.27
884.747	463.23
884.923	458
885.099	465.36
885.275	486.1
885.45	417.9
885.626	409.76
885.801	426.42
885.977	420.42
886.153	379.92
886.328	462.46
886.504	428.75
886.679	450.64
886.855	419.06
887.03	458.78
887.206	462.26
887.381	460.52
887.557	456.84
887.732	465.75
887.908	439.6
888.083	466.91
888.258	423.13
888.434	439.02
888.609	421.77
888.784	466.14
888.96	410.53
889.135	405.11
889.31	402.59
889.485	407.24
889.661	391.93
889.836	466.91
890.011	446.96
890.186	436.11
890.361	416.15
890.537	430.1
890.712	415.57
890.887	393.29
891.062	436.11
891.237	462.85
891.412	419.83
891.587	441.92
891.762	459.75
891.937	496.56
892.112	428.75
892.287	393.29
892.462	393.29
892.637	358.22
892.812	370.43
892.987	396.2
893.161	377.6
893.336	361.52
893.511	408.98
893.686	403.95
893.861	403.75
894.035	369.46
894.21	401.62
894.385	356.09
894.56	406.27
894.734	340.4
894.909	374.3
895.084	361.32
895.258	379.73
895.433	384.18
895.608	364.42
895.782	302.42
895.957	352.41
896.131	336.33
896.306	287.12
896.48	310.56
896.655	295.06
896.829	266.58
897.004	272.97
897.178	263.67
897.353	263.67
897.527	307.07
897.701	291.57
897.876	250.5
898.05	323.35
898.224	302.04
898.399	355.12
898.573	314.05
898.747	240.04
898.921	294.67
899.096	229.38
899.27	209.62
899.444	212.91
899.618	224.34
899.792	232.67
899.967	215.82
900.141	267.36
900.315	236.16
900.489	260.77
900.663	264.45
900.837	259.02
901.011	204.39
901.185	303.39
901.359	245.46
901.533	237.71
901.707	264.06
901.881	258.64
902.055	198.96
902.229	240.42
902.403	299.32
902.576	259.41
902.75	253.21
902.924	327.42
903.098	259.99
903.272	307.85
903.446	320.64
903.619	275.88
903.793	315.02
903.967	302.81
904.14	341.56
904.314	336.14
904.488	306.88
904.661	343.5
904.835	319.67
905.009	330.52
905.182	376.82
905.356	328.39
905.529	334
905.703	295.84
905.876	285.76
906.05	271.81
906.223	296.61
906.397	228.41
906.57	242.36
906.744	218.92
906.917	237.52
907.09	269.49
907.264	260.77
907.437	247.79
907.61	221.24
907.784	247.4
907.957	227.06
908.13	216.21
908.304	268.13
908.477	241.97
908.65	244.11
908.823	185.79
908.996	272.2
909.17	246.04
909.343	221.44
909.516	233.84
909.689	212.52
909.862	190.24
910.035	234.61
910.208	203.61
910.381	217.56
910.554	289.83
910.727	233.26
910.9	194.31
911.073	175.71
911.246	255.73
911.419	244.49
911.592	229.77
911.765	198.38
911.938	206.71
912.11	232.48
912.283	206.13
912.456	259.02
912.629	210.39
912.802	187.34
912.974	198.57
913.147	189.27
913.32	133.09
913.493	184.43
913.665	203.81
913.838	189.27
914.01	184.62
914.183	199.16
914.356	154.98
914.528	216.98
914.701	264.84
914.873	224.34
915.046	185.79
915.218	205.36
915.391	134.83
915.563	159.05
915.736	209.23
915.908	221.44
916.081	213.3
916.253	162.15
916.425	177.26
916.598	196.83
916.77	164.86
916.942	160.79
917.115	104.41
917.287	194.51
917.459	189.08
917.632	145.88
917.804	116.62
917.976	177.26
918.148	168.54
918.32	163.51
918.493	186.37
918.665	221.05
918.837	171.26
919.009	208.07
919.181	243.14
919.353	185.79
919.525	170.68
919.697	150.72
919.869	177.65
920.041	218.14
920.213	284.21
920.385	185.98
920.557	180.36
920.729	224.34
920.901	208.07
921.073	181.72
921.244	190.44
921.416	212.91
921.588	199.35
921.76	155.37
921.932	273.55
922.103	216.01
922.275	173.58
922.447	190.63
922.619	143.94
922.79	180.75
922.962	177.26
923.134	196.44
923.305	146.84
923.477	143.74
923.648	129.99
923.82	168.54
923.991	144.91
924.163	115.46
924.335	151.11
924.506	146.07
924.677	198.96
924.849	137.16
925.02	143.36
925.192	166.99
925.363	154.98
925.535	145.68
925.706	137.93
925.877	196.64
926.049	137.74
926.22	185.4
926.391	177.26
926.562	189.86
926.734	148.01
926.905	179.39
927.076	120.88
927.247	153.04
927.419	129.41
927.59	123.79
927.761	123.01
927.932	125.14
928.103	150.14
928.274	129.21
928.445	75.16
928.616	136.96
928.787	100.54
928.958	186.76
929.129	125.73
929.3	131.93
929.471	97.05
929.642	74
929.813	27.88
929.984	133.67
930.155	32.34
930.326	106.93
930.496	67.41
930.667	9.28
930.838	81.94
931.009	29.24
931.18	64.11
931.35	46.1
931.521	90.27
931.692	29.24
931.863	-6.8
932.033	60.63
932.204	72.25
932.374	46.29
932.545	38.54
932.716	64.89
932.886	73.03
933.057	-2.15
933.227	9.28
933.398	99.57
933.568	18.58
933.739	-20.94
933.909	10.83
934.08	34.28
934.25	-44.38
934.421	-20.17
934.591	15.1
934.761	-24.04
934.932	-38.77
935.102	6.57
935.272	-15.52
935.443	2.5
935.613	-4.67
935.783	36.02
935.953	-37.41
936.123	136.96
936.294	-29.27
936.464	20.71
936.634	23.04
936.804	-14.93
936.974	-34.5
937.144	13.16
937.314	-10.09
937.484	-41.28
937.655	-5.25
937.825	22.85
937.995	-13.19
938.165	45.13
938.334	14.32
938.504	17.81
938.674	-19.2
938.844	-6.8
939.014	48.61
939.184	-6.22
939.354	49
939.524	46.29
939.694	13.35
939.863	14.32
940.033	88.72
940.203	63.34
940.373	36.21
940.542	51.71
940.712	8.51
940.882	48.03
941.051	58.11
941.221	44.16
941.391	64.7
941.56	-27.33
941.73	-27.92
941.899	93.56
942.069	7.93
942.238	77.68
942.408	16.84
942.577	47.26
942.747	28.27
942.916	-34.5
943.086	2.89
943.255	52.49
943.425	24.78
943.594	13.93
943.763	-21.33
943.933	1.73
944.102	-55.04
944.271	14.71
944.441	54.23
944.61	-32.95
944.779	2.7
944.948	97.44
945.117	-25.78
945.287	3.86
945.456	-34.31
945.625	-6.22
945.794	24.59
945.963	-12.03
946.132	47.84
946.301	4.25
946.47	63.53
946.639	-61.63
946.808	-0.79
946.977	57.33
947.146	71.48
947.315	13.55
947.484	27.88
947.653	-3.5
947.822	14.13
947.991	-9.12
948.16	82.13
948.329	47.06
948.498	28.08
948.666	13.55
948.835	40.28
949.004	-40.9
949.173	-40.51
949.341	36.02
949.51	27.88
949.679	70.12
949.847	46.87
950.016	113.91
950.185	67.99
950.353	-6.99
950.522	14.13
950.69	44.74
950.859	-13.58
951.028	46.68
951.196	17.23
951.365	-13.58
951.533	31.76
951.701	48.42
951.87	50.55
952.038	-15.71
952.207	31.56
952.375	66.83
952.543	4.25
952.712	11.41
952.88	-3.12
953.048	76.51
953.217	-3.89
953.385	19.75
953.553	54.43
953.721	-34.31
953.89	-2.34
954.058	-30.05
954.226	-16.68
954.394	74.19
954.562	-44.38
954.73	20.71
954.898	31.18
955.067	34.66
955.235	19.36
955.403	51.13
955.571	68.18
955.739	30.21
955.907	-20.17
956.075	-16.48
956.243	-2.73
956.41	16.84
956.578	-27.92
956.746	-37.99
956.914	1.15
957.082	42.41
957.25	23.43
957.418	-24.04
957.585	12.96
957.753	48.23
957.921	-16.29
958.089	-12.8
958.256	-1.76
958.424	9.67
958.592	30.79
958.759	5.22
958.927	39.9
959.095	-4.67
959.262	22.46
959.43	39.7
959.597	-12.22
959.765	21.3
959.932	-3.31
960.1	36.02
960.267	29.82
960.435	5.22
960.602	31.37
960.77	-20.55
960.937	-40.7
961.104	5.99
961.272	-24.23
961.439	5.22
961.606	34.28
961.774	51.52
961.941	7.93
962.108	24.98
962.275	28.66
962.443	52.49
962.61	40.48
962.777	74.77
962.944	43
963.111	37.57
963.278	10.06
963.446	33.5
963.613	10.25
963.78	38.35
963.947	23.81
964.114	40.09
964.281	107.51
964.448	55.98
964.615	19.75
964.782	31.76
964.949	54.62
965.116	61.98
965.282	66.44
965.449	18.58
965.616	-26.17
965.783	30.01
965.95	22.26
966.117	-16.48
966.283	8.31
966.45	48.23
966.617	32.15
966.784	66.25
966.95	44.35
967.117	51.91
967.284	-12.03
967.45	-6.8
967.617	53.26
967.784	38.15
967.95	58.5
968.117	19.55
968.283	60.82
968.45	108.48
968.616	37.96
968.783	56.36
968.949	25.56
969.116	73.03
969.282	36.8
969.449	43.96
969.615	30.6
969.781	-12.22
969.948	19.16
970.114	-40.51
970.28	78.26
970.447	32.15
970.613	56.36
970.779	18.78
970.945	56.75
971.112	40.86
971.278	24.4
971.444	35.63
971.61	59.66
971.776	-9.12
971.942	20.52
972.108	61.79
972.275	28.27
972.441	30.98
972.607	73.8
972.773	22.07
972.939	32.15
973.105	7.73
973.271	6.57
973.437	9.28
973.602	-2.53
973.768	63.53
973.934	37.18
974.1	59.66
974.266	-38.96
974.432	39.51
974.598	-0.4
974.763	25.36
974.929	11.61
975.095	105.38
975.261	-16.68
975.426	-0.4
975.592	26.14
975.758	88.72
975.923	-18.62
976.089	12.96
976.255	59.85
976.42	40.48
976.586	44.74
976.751	28.66
976.917	100.15
977.082	40.86
977.248	-14.35
977.413	-20.75
977.579	-9.12
977.744	11.61
977.91	-5.05
978.075	8.31
978.24	63.73
978.406	26.14
978.571	28.08
978.736	3.67
978.902	36.41
979.067	-13
979.232	-41.87
979.397	32.73
979.563	68.38
979.728	-3.31
979.893	0.76
980.058	-6.22
980.223	57.91
980.388	28.27
980.554	43.96
980.719	-2.92
980.884	22.65
981.049	40.09
981.214	-2.53
981.379	5.6
981.544	12.77
981.709	16.06
981.874	-17.07
982.039	40.67
982.204	39.7
982.368	39.7
982.533	-32.57
982.698	62.18
982.863	73.61
983.028	8.9
983.193	28.08
983.357	34.86
983.522	44.55
983.687	-15.52
983.852	18.78
984.016	4.05
984.181	23.23
984.346	42.41
984.51	56.17
984.675	36.6
984.839	40.09
985.004	26.53
985.168	49.58
985.333	37.38
985.498	17.03
985.662	52.49
985.827	54.81
985.991	29.43
986.155	10.64
986.32	30.4
986.484	92.21
986.649	40.48
986.813	-32.37
986.977	15.29
987.142	15.68
987.306	-6.6
987.47	8.12
987.634	13.55
987.799	7.15
987.963	36.99
988.127	71.28
988.291	92.98
988.455	38.54
988.62	23.62
988.784	49.2
988.948	67.6
989.112	-19
989.276	32.15
989.44	14.13
989.604	-15.71
989.768	23.81
989.932	101.7
990.096	-14.16
990.26	-21.52
990.424	-15.71
990.588	-5.44
990.752	100.54
990.915	50.36
991.079	7.35
991.243	-10.48
991.407	52.3
991.571	19.36
991.734	37.76
991.898	49.58
992.062	116.04
992.226	16.84
992.389	2.89
992.553	-33.92
992.717	12.58
992.88	-10.67
993.044	21.88
993.207	17.81
993.371	32.53
993.535	40.09
993.698	29.63
993.862	40.86
994.025	92.01
994.189	10.06
994.352	13.74
994.515	25.95
994.679	58.69
994.842	-3.12
995.006	38.54
995.169	11.03
995.332	26.72
995.496	45.13
995.659	-41.09
995.822	35.83
995.985	18.58
996.149	58.3
996.312	7.93
996.475	64.5
996.638	-10.28
996.801	42.22
996.964	107.71
997.128	28.08
997.291	29.05
997.454	0.37
997.617	-42.45
997.78	50.36
997.943	11.41
998.106	38.73
998.269	-14.74
998.432	11.61
998.595	39.51
998.758	-17.65
998.92	8.7
999.083	-9.51
999.246	20.13
999.409	1.92
999.572	-23.27
999.735	6.18
999.897	30.79
1000.06	5.41
1000.223	11.41
1000.386	34.86
1000.548	44.16
1000.711	38.54
1000.874	38.54
1001.036	-30.43
1001.199	54.43
1001.361	-2.53
1001.524	1.15
1001.687	56.17
1001.849	-1.76
1002.012	21.3
1002.174	54.04
1002.337	36.02
1002.499	12.77
1002.661	41.45
1002.824	-32.95
1002.986	-3.89
1003.149	25.56
1003.311	-20.36
1003.473	89.11
1003.636	-10.67
1003.798	31.76
1003.96	55.01
1004.123	14.9
1004.285	9.09
1004.447	8.51
1004.609	0.76
1004.771	71.48
1004.933	-19.58
1005.096	-0.4
1005.258	-37.22
1005.42	-14.55
1005.582	27.3
1005.744	16.65
1005.906	-25.2
1006.068	5.22
1006.23	-45.74
1006.392	-33.92
1006.554	-17.26
1006.716	42.41
1006.878	27.88
1007.04	-39.35
1007.202	0.37
1007.363	25.56
1007.525	19.94
1007.687	30.79
1007.849	33.31
1008.011	-39.73
1008.172	-29.47
1008.334	-24.23
1008.496	24.4
1008.658	-28.88
1008.819	-36.83
1008.981	-21.52
1009.143	-23.65
1009.304	-6.02
1009.466	29.82
1009.627	67.99
1009.789	116.43
1009.95	11.22
1010.112	-6.41
1010.273	15.87
1010.435	-11.25
1010.596	11.03
1010.758	0.37
1010.919	-17.65
1011.081	-19.2
1011.242	6.18
1011.403	17.23
1011.565	0.95
1011.726	19.36
1011.887	-19.78
1012.049	-38.38
1012.21	32.92
1012.371	56.56
1012.532	-48.84
1012.693	-8.93
1012.855	-3.89
1013.016	-10.09
1013.177	31.76
1013.338	18
1013.499	53.65
1013.66	26.91
1013.821	36.02
1013.982	17.23
1014.143	24.98
1014.304	3.28
1014.465	6.96
1014.626	64.89
1014.787	1.73
1014.948	88.14
1015.109	-53.3
1015.27	40.09
1015.431	5.41
1015.592	-8.54
1015.752	63.34
1015.913	-4.86
1016.074	25.75
1016.235	-2.15
1016.395	22.65
1016.556	-16.1
1016.717	11.8
1016.877	53.07
1017.038	-28.69
1017.199	30.21
1017.359	8.9
1017.52	-3.31
1017.681	-5.25
1017.841	9.28
1018.002	-4.28
1018.162	-36.25
1018.323	53.65
1018.483	-13.58
1018.644	-10.28
1018.804	-26.56
1018.964	-9.7
1019.125	-25.2
1019.285	0.57
1019.446	-37.6
1019.606	-21.33
1019.766	-61.43
1019.926	16.06
1020.087	11.41
1020.247	-25.4
1020.407	19.75
1020.567	48.42
1020.728	-10.87
1020.888	-16.48
1021.048	-17.45
1021.208	-10.48
1021.368	-10.28
1021.528	43
1021.688	37.76
1021.848	21.3
1022.008	14.9
1022.168	-6.8
1022.328	-14.93
1022.488	11.41
1022.648	-6.6
1022.808	16.06
1022.968	8.7
1023.128	-29.27
1023.288	-19.2
1023.448	-1.95
1023.608	44.16
1023.767	27.69
1023.927	3.08
1024.087	-21.72
1024.247	-29.85
1024.406	6.57
1024.566	-40.51
1024.726	-4.47
1024.885	33.89
1025.045	31.95
1025.205	6.18
1025.364	-29.47
1025.524	-1.18
1025.683	-29.27
1025.843	10.06
1026.003	-12.61
1026.162	29.82
1026.321	27.69
1026.481	-9.12
1026.64	-15.52
1026.8	13.74
1026.959	19.36
1027.119	3.86
1027.278	2.12
1027.437	-10.28
1027.597	-2.92
1027.756	-14.35
1027.915	7.54
1028.074	24.78
1028.234	-21.72
1028.393	17.81
1028.552	-13.38
1028.711	-67.44
1028.87	39.9
1029.03	-31.02
1029.189	31.76
1029.348	-58.33
1029.507	-15.9
1029.666	-38.38
1029.825	-49.23
1029.984	8.31
1030.143	5.6
1030.302	-16.1
1030.461	-31.02
1030.62	-14.93
1030.779	35.05
1030.938	-22.88
1031.097	-43.42
1031.255	29.43
1031.414	71.09
1031.573	49.2
1031.732	-45.16
1031.891	-22.49
1032.049	47.65
1032.208	25.36
1032.367	-19.2
1032.525	-16.29
1032.684	13.35
1032.843	11.61
1033.001	-45.93
1033.16	137.74
1033.319	29.82
1033.477	12.38
1033.636	-3.12
1033.794	-55.43
1033.953	38.73
1034.111	20.71
1034.27	-21.52
1034.428	12.58
1034.587	-25.2
1034.745	26.33
1034.903	20.13
1035.062	12.96
1035.22	-55.43
1035.378	33.7
1035.537	-56.01
1035.695	-0.98
1035.853	8.12
1036.011	40.09
1036.17	11.03
1036.328	-38.77
1036.486	7.73
1036.644	-4.08
1036.802	-91.27
1036.96	2.7
1037.119	-22.88
1037.277	-56.78
1037.435	-46.71
1037.593	1.92
1037.751	12.77
1037.909	13.16
1038.067	13.16
