Data from pine_FLMT105791__75__17-21-15-077.txt Node

Date: Mon Mar 20 17:21:15 GMT 2023
User: antho
Spectrometer: FLMT10579
Trigger mode: 0
Integration Time (sec): 1.000000E-1
Scans to average: 10
Electric dark correction enabled: true
Nonlinearity correction enabled: false
Boxcar width: 0
XAxis mode: Wavelengths
Number of Pixels in Spectrum: 3648
>>>>>Begin Spectral Data<<<<<
345.248	-162.13
345.464	-162.13
345.681	-162.13
345.898	-164.07
346.114	-144.12
346.331	-42.4
346.548	35.68
346.764	2.94
346.981	-3.84
347.197	-21.67
347.414	33.16
347.631	3.13
347.847	50.79
348.064	-22.25
348.28	21.93
348.497	-30.19
348.713	-27.29
348.93	17.47
349.146	48.86
349.363	4.29
349.579	-11.4
349.796	-1.13
350.012	14.37
350.229	40.72
350.445	-1.71
350.661	-15.85
350.878	2.55
351.094	25.61
351.311	24.64
351.527	44.4
351.743	-7.91
351.96	42.66
352.176	41.88
352.392	41.88
352.609	52.34
352.825	-6.17
353.041	5.65
353.257	0.81
353.474	2.36
353.69	13.4
353.906	29.87
354.122	-28.45
354.339	52.54
354.555	10.11
354.771	-8.11
354.987	62.61
355.203	88.57
355.42	-7.72
355.636	-4.42
355.852	-10.24
356.068	-1.32
356.284	-10.82
356.5	63.78
356.716	16.11
356.932	-13.34
357.148	41.3
357.364	9.33
357.58	38.78
357.796	59.13
358.012	64.74
358.228	38.39
358.444	-55.38
358.66	49.24
358.876	49.05
359.092	7.78
359.308	22.89
359.524	18.44
359.74	8.94
359.956	-21.86
360.172	17.47
360.388	37.23
360.604	-13.53
360.819	104.85
361.035	32.39
361.251	51.57
361.467	3.13
361.683	58.35
361.898	29.09
362.114	38.2
362.33	23.86
362.546	53.51
362.762	8.17
362.977	26.77
363.193	-16.44
363.409	39.56
363.624	-11.79
363.84	-23.6
364.056	-21.28
364.271	44.21
364.487	23.67
364.703	2.55
364.918	-13.72
365.134	3.13
365.35	-7.91
365.565	114.92
365.781	17.66
365.996	30.64
366.212	58.74
366.427	23.67
366.643	-16.63
366.858	11.85
367.074	-13.14
367.289	56.99
367.505	101.75
367.72	-35.81
367.936	-4.04
368.151	46.14
368.367	15.34
368.582	26.58
368.798	-3.46
369.013	49.05
369.228	2.74
369.444	27.35
369.659	81.21
369.874	22.12
370.09	80.24
370.305	-68.94
370.52	-9.46
370.736	42.08
370.951	-4.62
371.166	70.36
371.381	58.54
371.597	47.69
371.812	-14.31
372.027	-15.08
372.242	29.48
372.458	99.04
372.673	-34.26
372.888	34.71
373.103	46.92
373.318	104.66
373.533	32.58
373.749	25.61
373.964	-14.89
374.179	56.8
374.394	-25.93
374.609	66.29
374.824	-21.47
375.039	58.74
375.254	-19.15
375.469	79.27
375.684	45.37
375.899	72.11
376.114	11.08
376.329	41.49
376.544	49.05
376.759	40.33
376.974	0.03
377.189	44.4
377.404	0.61
377.619	33.94
377.834	-40.07
378.049	-27.67
378.264	-19.15
378.478	17.47
378.693	-16.44
378.908	54.09
379.123	-4.62
379.338	43.24
379.553	51.96
379.767	11.85
379.982	31.61
380.197	51.18
380.412	2.55
380.626	41.3
380.841	105.43
381.056	39.17
381.271	69.98
381.485	-5.59
381.7	-1.91
381.915	7.39
382.129	10.3
382.344	42.46
382.559	24.83
382.773	49.24
382.988	-5.01
383.202	22.31
383.417	-18.18
383.632	132.17
383.846	39.94
384.061	36.07
384.275	-8.3
384.49	45.56
384.704	43.04
384.919	-2.29
385.133	28.32
385.348	39.56
385.562	-5.78
385.777	61.84
385.991	10.88
386.206	18.83
386.42	8.56
386.634	39.36
386.849	30.64
387.063	32
387.277	-18.57
387.492	2.16
387.706	-27.29
387.92	3.33
388.135	54.67
388.349	44.59
388.563	20.38
388.778	48.08
388.992	57.96
389.206	49.05
389.42	92.64
389.635	7.98
389.849	41.69
390.063	52.73
390.277	46.14
390.491	87.41
390.706	24.83
390.92	34.33
391.134	23.09
391.348	40.53
391.562	-28.45
391.776	38.59
391.99	7.59
392.205	80.44
392.419	-1.52
392.633	1
392.847	45.95
393.061	-11.79
393.275	92.64
393.489	30.26
393.703	32.78
393.917	43.04
394.131	10.11
394.345	50.79
394.559	76.37
394.773	-1.13
394.986	55.25
395.2	21.73
395.414	32.19
395.628	-10.24
395.842	14.76
396.056	7.59
396.27	-34.07
396.484	32.58
396.697	14.37
396.911	72.88
397.125	55.25
397.339	62.81
397.553	39.56
397.766	123.84
397.98	69.98
398.194	78.89
398.408	23.28
398.621	36.07
398.835	60.09
399.049	50.99
399.262	74.82
399.476	61.26
399.69	35.88
399.903	109.31
400.117	17.47
400.331	29.09
400.544	-1.91
400.758	152.9
400.971	42.08
401.185	63.97
401.398	-16.82
401.612	79.08
401.826	82.37
402.039	61.64
402.253	-8.11
402.466	57.77
402.68	31.61
402.893	28.51
403.106	28.51
403.32	41.69
403.533	56.41
403.747	24.64
403.96	32.58
404.174	61.64
404.387	12.82
404.6	18.63
404.814	58.93
405.027	38.59
405.24	46.92
405.454	5.65
405.667	72.69
405.88	-15.08
406.094	57.77
406.307	68.43
406.52	53.7
406.733	-3.65
406.947	-1.52
407.16	97.87
407.373	104.46
407.586	15.34
407.799	-14.89
408.012	30.26
408.226	66.29
408.439	101.56
408.652	-7.52
408.865	32.39
409.078	94.77
409.291	57.77
409.504	-22.83
409.717	36.26
409.93	46.14
410.143	56.03
410.357	-32.9
410.57	9.33
410.783	37.43
410.996	14.76
411.209	16.5
411.421	80.82
411.634	30.06
411.847	21.34
412.06	46.14
412.273	49.83
412.486	43.04
412.699	128.87
412.912	36.65
413.125	54.09
413.338	39.75
413.55	57.58
413.763	40.14
413.976	60.29
414.189	42.46
414.402	33.74
414.615	84.51
414.827	16.5
415.04	75.01
415.253	41.11
415.466	57.77
415.678	106.59
415.891	66.49
416.104	45.76
416.316	28.9
416.529	16.5
416.742	56.03
416.954	81.02
417.167	39.94
417.38	56.8
417.592	79.86
417.805	5.65
418.017	-7.72
418.23	68.23
418.442	27.93
418.655	33.36
418.868	57.38
419.08	91.67
419.293	70.36
419.505	61.26
419.718	81.6
419.93	94.19
420.142	52.15
420.355	111.44
420.567	94
420.78	64.74
420.992	76.17
421.205	103.88
421.417	11.08
421.629	40.14
421.842	4.88
422.054	20.18
422.266	70.56
422.479	77.34
422.691	49.05
422.903	67.46
423.115	38.98
423.328	67.84
423.54	70.94
423.752	70.36
423.964	30.45
424.177	55.83
424.389	41.88
424.601	157.16
424.813	59.13
425.025	94.97
425.238	99.42
425.45	65.71
425.662	49.24
425.874	369.9
426.086	71.53
426.298	90.71
426.51	73.07
426.722	64.94
426.934	41.69
427.146	105.04
427.358	31.23
427.57	108.53
427.782	63.58
427.994	53.7
428.206	15.92
428.418	18.24
428.63	98.65
428.842	101.17
429.054	93.61
429.266	70.94
429.478	34.71
429.69	56.99
429.902	20.96
430.114	118.61
430.325	83.34
430.537	35.68
430.749	81.02
430.961	20.96
431.173	83.73
431.384	99.62
431.596	-11.4
431.808	63.39
432.02	99.62
432.231	108.72
432.443	96.91
432.655	52.34
432.867	50.41
433.078	72.49
433.29	129.07
433.502	101.94
433.713	111.44
433.925	84.31
434.136	140.11
434.348	69.59
434.56	27.93
434.771	185.84
434.983	40.33
435.194	69.39
435.406	82.57
435.617	126.36
435.829	151.16
436.04	113.57
436.252	152.9
436.463	159.49
436.675	112.79
436.886	110.08
437.098	110.27
437.309	176.34
437.521	104.46
437.732	150.38
437.943	91.09
438.155	94.97
438.366	42.85
438.578	177.7
438.789	131.97
439	149.22
439.211	114.92
439.423	144.96
439.634	142.44
439.845	167.04
440.057	118.02
440.268	154.26
440.479	96.91
440.69	120.54
440.902	125
441.113	137.79
441.324	112.02
441.535	143.99
441.746	199.59
441.957	98.84
442.168	115.7
442.38	132.75
442.591	172.47
442.802	92.45
443.013	125.39
443.224	136.24
443.435	123.45
443.646	147.86
443.857	128.29
444.068	121.12
444.279	109.5
444.49	202.11
444.701	148.25
444.912	231.17
445.123	146.51
445.334	173.82
445.545	151.74
445.756	150.57
445.967	104.66
446.178	164.72
446.388	213.35
446.599	180.22
446.81	191.45
447.021	138.17
447.232	206.95
447.443	203.85
447.653	155.81
447.864	180.02
448.075	139.53
448.286	213.54
448.496	179.25
448.707	196.88
448.918	129.46
449.129	244.74
449.339	134.88
449.55	194.55
449.761	152.9
449.971	208.5
450.182	182.15
450.393	200.17
450.603	199.79
450.814	219.55
451.024	185.64
451.235	239.5
451.446	209.67
451.656	234.08
451.867	174.79
452.077	203.08
452.288	242.41
452.498	250.55
452.709	167.82
452.919	194.17
453.13	133.72
453.34	244.15
453.55	139.92
453.761	231.37
453.971	205.79
454.182	223.62
454.392	240.28
454.602	284.84
454.813	213.93
455.023	242.6
455.233	176.15
455.444	222.26
455.654	143.6
455.864	189.71
456.075	185.45
456.285	189.13
456.495	197.27
456.705	218.19
456.916	259.85
457.126	275.35
457.336	204.24
457.546	140.5
457.756	195.91
457.967	258.49
458.177	192.62
458.387	225.94
458.597	188.35
458.807	201.14
459.017	209.67
459.227	186.8
459.437	221.68
459.647	258.49
459.857	251.32
460.068	212.96
460.278	261.78
460.488	212.38
460.698	297.24
460.908	239.7
461.117	202.5
461.327	199.01
461.537	247.83
461.747	233.5
461.957	230.98
462.167	339.48
462.377	268.18
462.587	240.28
462.797	267.6
463.007	250.16
463.216	240.28
463.426	280.19
463.636	277.87
463.846	202.69
464.056	224.78
464.265	300.73
464.475	235.82
464.685	252.48
464.895	260.23
465.104	248.22
465.314	252.87
465.524	230.2
465.733	201.34
465.943	321.07
466.153	306.54
466.362	274.77
466.572	276.12
466.782	265.27
466.991	221.87
467.201	298.79
467.41	207.54
467.62	297.05
467.829	275.54
468.039	279.22
468.249	233.5
468.458	258.88
468.668	261.98
468.877	265.85
469.086	288.91
469.296	314.48
469.505	238.15
469.715	349.55
469.924	286.78
470.134	294.33
470.343	328.24
470.552	268.95
470.762	277.87
470.971	273.02
471.18	288.72
471.39	280.77
471.599	236.6
471.808	305.96
472.018	265.47
472.227	318.17
472.436	349.55
472.645	274.77
472.855	310.03
473.064	348.39
473.273	308.67
473.482	339.67
473.691	340.83
473.901	311
474.11	296.66
474.319	395.86
474.528	337.35
474.737	375.9
474.946	327.47
475.155	331.34
475.364	343.93
475.573	336.57
475.783	344.51
475.992	363.31
476.201	381.33
476.41	351.68
476.619	318.75
476.828	363.31
477.037	299.76
477.245	344.9
477.454	392.95
477.663	369.31
477.872	329.6
478.081	411.75
478.29	326.5
478.499	417.75
478.708	369.7
478.917	419.3
479.125	353.43
479.334	386.56
479.543	362.53
479.752	405.93
479.961	396.63
480.169	431.89
480.378	360.01
480.587	487.11
480.796	417.95
481.004	373.77
481.213	428.21
481.422	412.91
481.63	390.24
481.839	437.71
482.048	460.96
482.256	436.93
482.465	435.77
482.674	458.24
482.882	460.57
483.091	514.43
483.299	436.93
483.508	442.74
483.716	414.65
483.925	444.29
484.134	436.93
484.342	426.47
484.551	497.19
484.759	460.38
484.967	466.77
485.176	494.67
485.384	463.48
485.593	476.07
485.801	482.85
486.01	487.89
486.218	426.47
486.426	417.56
486.635	394.89
486.843	419.88
487.051	451.08
487.26	418.14
487.468	446.04
487.676	483.63
487.885	418.53
488.093	472.39
488.301	470.26
488.509	492.15
488.717	522.37
488.926	477.23
489.134	472.97
489.342	503.58
489.55	448.36
489.758	499.32
489.967	462.7
490.175	569.65
490.383	533.42
490.591	572.36
490.799	463.48
491.007	574.49
491.215	532.84
491.423	496.41
491.631	508.62
491.839	527.02
492.047	536.13
492.255	515.4
492.463	480.53
492.671	510.36
492.879	531.87
493.087	516.95
493.295	539.04
493.503	548.34
493.711	577.21
493.919	607.04
494.127	596.19
494.334	618.09
494.542	527.61
494.75	597.55
494.958	541.36
495.166	593.67
495.374	584.37
495.581	569.65
495.789	548.72
495.997	616.92
496.205	581.66
496.412	575.85
496.62	554.73
496.828	579.92
497.035	571.2
497.243	614.02
497.451	586.12
497.658	588.64
497.866	614.6
498.074	664.39
498.281	571.39
498.489	657.8
498.696	602.39
498.904	554.34
499.112	580.5
499.319	658.19
499.527	569.26
499.734	633.39
499.942	560.74
500.149	586.7
500.357	625.06
500.564	585.15
500.771	617.7
500.979	578.17
501.186	578.37
501.394	598.9
501.601	598.32
501.808	641.34
502.016	616.54
502.223	632.04
502.43	627.97
502.638	606.07
502.845	588.44
503.052	676.4
503.26	616.92
503.467	712.63
503.674	641.14
503.881	644.82
504.089	729.49
504.296	682.22
504.503	602.78
504.71	640.17
504.917	594.64
505.125	655.67
505.332	627.39
505.539	664.59
505.746	720.58
505.953	678.34
506.16	687.06
506.367	723.29
506.574	732.2
506.781	695.2
506.988	668.65
507.195	734.33
507.402	677.18
507.609	720
507.816	661.49
508.023	667.1
508.23	664.59
508.437	645.21
508.644	732.98
508.851	774.63
509.058	742.67
509.265	727.17
509.472	754.1
509.679	798.85
509.885	706.05
510.092	733.37
510.299	710.89
510.506	702.75
510.713	737.82
510.92	731.23
511.126	757.97
511.333	791.3
511.54	758.75
511.746	768.24
511.953	775.6
512.16	815.9
512.367	743.25
512.573	760.3
512.78	778.9
512.987	732.4
513.193	778.51
513.4	717.28
513.606	748.87
513.813	778.9
514.02	760.68
514.226	849.03
514.433	820.16
514.639	739.18
514.846	770.37
515.052	763.2
515.259	796.14
515.465	805.83
515.672	794.2
515.878	884.68
516.085	819.58
516.291	824.81
516.497	786.45
516.704	751.19
516.91	710.89
517.117	701.2
517.323	682.22
517.529	740.15
517.736	744.41
517.942	751.77
518.148	751.58
518.354	781.61
518.561	800.6
518.767	788.78
518.973	846.9
519.179	838.76
519.386	802.15
519.592	799.82
519.798	783.16
520.004	899.6
520.21	810.28
520.417	899.21
520.623	890.69
520.829	939.32
521.035	870.54
521.241	895.73
521.447	908.71
521.653	1031.16
521.859	927.69
522.065	932.15
522.271	989.89
522.477	932.93
522.683	972.84
522.889	938.93
523.095	934.67
523.301	954.82
523.507	922.08
523.713	978.65
523.919	932.54
524.125	1006.16
524.331	965.47
524.537	1024.37
524.742	1019.53
524.948	1053.44
525.154	997.44
525.36	1138.49
525.566	1021.08
525.772	1048.59
525.977	974.97
526.183	1073.97
526.389	1045.3
526.595	988.34
526.8	979.04
527.006	947.26
527.212	930.41
527.417	921.3
527.623	918.98
527.829	968.96
528.034	1043.75
528.24	1026.31
528.446	970.12
528.651	1039.29
528.857	1035.03
529.062	1102.45
529.268	1070.1
529.473	1068.35
529.679	1051.5
529.884	1170.65
530.09	1120.09
530.295	1141.2
530.501	1135.78
530.706	1127.45
530.912	1052.66
531.117	1137.52
531.323	1103.62
531.528	1153.22
531.733	1128.22
531.939	1096.25
532.144	1145.85
532.35	1096.06
532.555	1166.39
532.76	1101.29
532.966	1135
533.171	1106.14
533.376	1094.9
533.581	1077.85
533.787	1129.77
533.992	1142.75
534.197	1160.38
534.402	1107.3
534.607	1129.77
534.813	1220.83
535.018	1127.25
535.223	1154.77
535.428	1172.01
535.633	1210.76
535.838	1187.51
536.043	1194.1
536.249	1246.6
536.454	1178.4
536.659	1194.68
536.864	1210.56
537.069	1194.68
537.274	1191.58
537.479	1218.51
537.684	1199.52
537.889	1169.3
538.094	1275.08
538.299	1198.17
538.504	1218.51
538.708	1248.54
538.913	1256.68
539.118	1227.81
539.323	1251.25
539.528	1204.95
539.733	1174.72
539.938	1236.53
540.142	1253.77
540.347	1206.88
540.552	1215.6
540.757	1183.25
540.962	1180.53
541.166	1170.46
541.371	1141.98
541.576	1221.41
541.781	1151.67
541.985	1192.55
542.19	1200.3
542.395	1275.47
542.599	1293.88
542.804	1261.52
543.008	1282.64
543.213	1225.48
543.418	1183.44
543.622	1241.56
543.827	1183.44
544.031	1260.75
544.236	1292.33
544.44	1270.63
544.645	1329.14
544.849	1226.06
545.054	1268.3
545.258	1359.36
545.463	1308.6
545.667	1226.26
545.872	1309.57
546.076	1265.78
546.281	1268.5
546.485	1239.43
546.689	1289.42
546.894	1313.83
547.098	1244.08
547.302	1249.31
547.507	1270.05
547.711	1301.04
547.915	1349.09
548.119	1310.93
548.324	1284.77
548.528	1389.01
548.732	1264.43
548.936	1295.43
549.141	1328.94
549.345	1280.7
549.549	1322.16
549.753	1322.55
549.957	1368.28
550.161	1377.38
550.366	1354.91
550.57	1332.82
550.774	1337.28
550.978	1345.03
551.182	1332.63
551.386	1310.15
551.59	1327.98
551.794	1321.58
551.998	1336.11
552.202	1302.79
552.406	1285.93
552.61	1335.92
552.814	1304.73
553.018	1370.99
553.222	1312.86
553.426	1314.99
553.63	1384.94
553.833	1314.41
554.037	1274.89
554.241	1353.36
554.445	1360.53
554.649	1311.51
554.853	1260.36
555.056	1328.94
555.26	1340.57
555.464	1365.76
555.668	1308.79
555.871	1367.89
556.075	1377.96
556.279	1271.6
556.483	1249.31
556.686	1311.31
556.89	1288.84
557.094	1333.98
557.297	1286.13
557.501	1358.39
557.704	1276.25
557.908	1325.84
558.112	1268.3
558.315	1338.83
558.519	1270.43
558.722	1308.41
558.926	1257.84
559.129	1211.15
559.333	1219.09
559.536	1226.65
559.74	1243.5
559.943	1178.79
560.147	1189.25
560.35	1219.28
560.553	1247.18
560.757	1202.82
560.96	1308.21
561.164	1252.41
561.367	1327.39
561.57	1240.21
561.774	1279.93
561.977	1229.36
562.18	1230.71
562.384	1337.86
562.587	1244.47
562.79	1242.92
562.993	1246.99
563.197	1260.36
563.4	1269.08
563.603	1299.3
563.806	1348.32
564.009	1254.55
564.212	1269.27
564.416	1177.24
564.619	1235.56
564.822	1201.07
565.025	1264.23
565.228	1239.63
565.431	1248.73
565.634	1147.21
565.837	1187.9
566.04	1195.65
566.243	1179.18
566.446	1135.78
566.649	1194.48
566.852	1181.7
567.055	1189.64
567.258	1256.87
567.461	1275.08
567.664	1243.5
567.867	1148.37
568.07	1207.08
568.273	1205.14
568.475	1238.66
568.678	1149.53
568.881	1167.75
569.084	1179.57
569.287	1109.82
569.489	1131.71
569.692	1188.28
569.895	1186.54
570.098	1122.6
570.3	1131.71
570.503	1073
570.706	1120.47
570.909	1093.74
571.111	1091.6
571.314	1104.97
571.516	1102.07
571.719	1109.04
571.922	1090.05
572.124	1059.83
572.327	1092.77
572.529	1084.82
572.732	1083.08
572.935	1104.39
573.137	1141.01
573.34	1089.86
573.542	1104.97
573.745	1094.51
573.947	1105.94
574.15	1118.15
574.352	1061.77
574.554	1165.42
574.757	1053.24
574.959	1023.02
575.162	1033.67
575.364	1023.79
575.566	1129.19
575.769	1030.77
575.971	1046.07
576.173	945.52
576.376	1047.24
576.578	1070.68
576.78	1109.43
576.982	971.29
577.185	1027.67
577.387	969.54
577.589	999.38
577.791	1065.84
577.993	1068.94
578.196	1000.54
578.398	1082.11
578.6	1072.62
578.802	978.65
579.004	996.09
579.206	1001.51
579.408	1052.85
579.61	970.71
579.812	1057.5
580.014	992.79
580.216	986.01
580.418	987.56
580.62	983.88
580.822	955.01
581.024	1018.56
581.226	1026.89
581.428	1007.13
581.63	1099.35
581.832	998.99
582.034	1065.06
582.236	1015.85
582.438	1021.66
582.64	1097.42
582.841	1104
583.043	1104.2
583.245	1068.94
583.447	1051.69
583.649	1036
583.85	1044.14
584.052	1079.01
584.254	1020.11
584.456	1089.67
584.657	992.21
584.859	1041.04
585.061	1021.86
585.262	993.57
585.464	974.19
585.666	1040.07
585.867	1015.46
586.069	1085.99
586.27	1042
586.472	1008.49
586.674	1011.2
586.875	988.72
587.077	995.31
587.278	1044.14
587.48	977.29
587.681	1098.39
587.883	1030.77
588.084	947.46
588.285	990.86
588.487	1000.74
588.688	993.18
588.89	901.93
589.091	928.86
589.292	920.33
589.494	897.86
589.695	893.79
589.896	819.78
590.098	845.93
590.299	875.19
590.5	820.94
590.702	882.74
590.903	905.99
591.104	958.31
591.305	918.2
591.507	959.47
591.708	946.29
591.909	932.15
592.11	997.83
592.311	943.78
592.512	904.44
592.714	861.63
592.915	907.35
593.116	901.73
593.317	926.73
593.518	920.91
593.719	915.68
593.92	957.34
594.121	985.24
594.322	920.14
594.523	946.29
594.724	878.09
594.925	886.62
595.126	936.22
595.327	930.99
595.528	889.14
595.729	929.44
595.929	904.83
596.13	939.32
596.331	952.88
596.532	947.84
596.733	991.05
596.934	959.27
597.135	960.44
597.335	932.73
597.536	910.64
597.737	962.96
597.938	907.93
598.138	955.59
598.339	921.49
598.54	933.89
598.74	910.45
598.941	944.16
599.142	960.44
599.342	940.68
599.543	895.14
599.744	912.39
599.944	952.69
600.145	945.33
600.345	925.56
600.546	995.7
600.746	974.39
600.947	986.21
601.147	953.85
601.348	987.56
601.548	909.68
601.749	925.18
601.949	922.08
602.15	884.88
602.35	939.32
602.551	983.88
602.751	856.78
602.951	890.49
603.152	855.81
603.352	946.87
603.552	923.24
603.753	948.62
603.953	965.47
604.153	946.29
604.354	922.66
604.554	902.7
604.754	937.77
604.954	906.38
605.155	946.29
605.355	908.13
605.555	953.27
605.755	973.42
605.955	933.7
606.155	933.51
606.356	913.74
606.556	948.23
606.756	953.85
606.956	893.79
607.156	956.56
607.356	871.89
607.556	930.6
607.756	943.39
607.956	975.55
608.156	931.38
608.356	913.36
608.556	949.2
608.756	900.57
608.956	857.95
609.156	930.02
609.356	873.44
609.556	910.45
609.755	924.4
609.955	827.72
610.155	897.47
610.355	893.59
610.555	898.63
610.755	905.22
610.954	803.89
611.154	918.59
611.354	903.09
611.554	858.14
611.753	885.65
611.953	827.72
612.153	887.01
612.352	896.89
612.552	835.08
612.752	786.06
612.951	867.24
613.151	870.15
613.351	804.08
613.55	873.64
613.75	868.02
613.949	840.7
614.149	877.51
614.348	855.62
614.548	797.69
614.747	772.5
614.947	828.88
615.146	775.41
615.346	881.39
615.545	859.69
615.745	833.73
615.944	872.28
616.144	831.6
616.343	854.65
616.542	806.21
616.742	792.07
616.941	849.81
617.14	746.54
617.34	794.98
617.539	829.46
617.738	800.01
617.938	874.03
618.137	814.74
618.336	774.05
618.535	818.03
618.734	814.55
618.934	826.95
619.133	806.8
619.332	825.4
619.531	794.59
619.73	784.32
619.929	837.6
620.128	841.48
620.328	868.99
620.527	788.78
620.726	780.06
620.925	822.49
621.124	778.12
621.323	839.15
621.522	745.18
621.721	771.34
621.92	782.96
622.119	837.8
622.318	784.32
622.517	790.52
622.715	810.67
622.914	751.19
623.113	766.69
623.312	726.39
623.511	794.78
623.71	791.68
623.909	764.37
624.107	835.47
624.306	730.27
624.505	759.52
624.704	754.29
624.902	762.23
625.101	796.53
625.3	792.85
625.499	734.92
625.697	734.53
625.896	722.52
626.095	773.66
626.293	702.95
626.492	722.71
626.69	751.97
626.889	753.13
627.088	782.77
627.286	721.74
627.485	724.45
627.683	747.7
627.882	748.48
628.08	679.5
628.279	701.78
628.477	779.28
628.676	680.67
628.874	736.85
629.073	701.59
629.271	702.37
629.469	755.84
629.668	708.18
629.866	723.29
630.065	703.72
630.263	741.5
630.461	693.26
630.66	736.08
630.858	760.1
631.056	735.11
631.254	749.64
631.453	667.69
631.651	765.33
631.849	737.05
632.047	753.13
632.245	697.13
632.444	730.46
632.642	726.78
632.84	742.28
633.038	718.06
633.236	679.89
633.434	682.22
633.632	682.41
633.83	717.28
634.028	731.62
634.227	706.05
634.425	788
634.623	736.66
634.821	745.77
635.019	780.64
635.216	732.78
635.414	756.81
635.612	738.6
635.81	707.79
636.008	774.63
636.206	700.04
636.404	746.93
636.602	703.72
636.8	735.5
636.997	749.45
637.195	734.14
637.393	715.73
637.591	780.06
637.789	735.88
637.986	704.88
638.184	724.45
638.382	754.29
638.58	738.98
638.777	791.1
638.975	706.82
639.173	722.52
639.37	731.62
639.568	725.81
639.765	748.87
639.963	711.67
640.161	763.98
640.358	738.98
640.556	677.95
640.753	674.66
640.951	682.02
641.148	714.38
641.346	667.88
641.543	720.19
641.741	742.08
641.938	680.09
642.136	695.78
642.333	687.45
642.531	758.17
642.728	751.19
642.925	716.12
643.123	687.06
643.32	712.44
643.517	693.07
643.715	709.34
643.912	692.48
644.109	692.1
644.306	722.52
644.504	644.63
644.701	662.84
644.898	726.97
645.095	664
645.293	688.22
645.49	694.42
645.687	688.03
645.884	716.7
646.081	659.35
646.278	626.8
646.475	672.72
646.672	641.72
646.87	690.74
647.067	676.6
647.264	683.57
647.461	632.62
647.658	649.09
647.855	670.98
648.052	627.58
648.249	560.93
648.446	630.68
648.642	643.66
648.839	614.79
649.036	603.17
649.233	600.45
649.43	587.09
649.627	560.93
649.824	595.22
650.021	568.1
650.217	610.53
650.414	574.49
650.611	605.69
650.808	645.79
651.004	628.74
651.201	627.77
651.398	702.95
651.595	623.12
651.791	596.39
651.988	651.41
652.185	601.23
652.381	641.34
652.578	553.18
652.775	614.21
652.971	639.98
653.168	623.12
653.364	649.09
653.561	564.42
653.757	595.81
653.954	582.05
654.15	563.26
654.347	666.52
654.543	604.14
654.74	545.04
654.936	578.95
655.133	608.01
655.329	594.06
655.525	583.21
655.722	619.05
655.918	561.32
656.115	600.26
656.311	504.55
656.507	519.08
656.704	453.79
656.9	490.41
657.096	497.77
657.292	495.44
657.489	548.53
657.685	532.45
657.881	555.7
658.077	529.54
658.273	561.51
658.47	611.5
658.666	545.04
658.862	593.29
659.058	555.31
659.254	621.96
659.45	562.29
659.646	579.92
659.842	547.56
660.038	595.42
660.234	536.13
660.43	546.79
660.626	646.95
660.822	589.02
661.018	633.2
661.214	569.84
661.41	537.1
661.606	606.27
661.802	605.69
661.998	555.12
662.194	546.21
662.39	572.36
662.586	604.52
662.781	599.87
662.977	611.89
663.173	585.92
663.369	582.05
663.564	579.14
663.76	601.42
663.956	531.09
664.152	608.79
664.347	509.78
664.543	560.74
664.739	561.9
664.934	497.58
665.13	496.61
665.326	594.45
665.521	590.96
665.717	546.4
665.912	508.62
666.108	458.63
666.304	490.41
666.499	549.11
666.695	466.19
666.89	533.42
667.086	564.03
667.281	552.99
667.477	611.5
667.672	572.75
667.867	554.34
668.063	538.65
668.258	491.18
668.454	514.43
668.649	628.74
668.844	541.17
669.04	569.65
669.235	522.18
669.43	528.77
669.626	506.1
669.821	534
670.016	483.43
670.211	527.99
670.407	482.66
670.602	531.87
670.797	513.66
670.992	567.52
671.187	503.39
671.382	556.28
671.578	539.04
671.773	540.39
671.968	477.23
672.163	522.57
672.358	560.74
672.553	475.29
672.748	506.49
672.943	592.32
673.138	505.33
673.333	536.52
673.528	481.3
673.723	538.26
673.918	530.12
674.113	443.52
674.308	594.84
674.503	514.82
674.698	552.41
674.892	528.19
675.087	513.07
675.282	537.87
675.477	460.18
675.672	528.19
675.867	484.59
676.061	473.74
676.256	459.99
676.451	487.69
676.646	517.14
676.84	476.26
677.035	476.46
677.23	458.63
677.424	522.96
677.619	549.31
677.814	536.52
678.008	532.06
678.203	442.36
678.397	462.51
678.592	504.94
678.787	570.62
678.981	492.93
679.176	536.71
679.37	485.37
679.565	486.14
679.759	488.08
679.954	515.01
680.148	531.87
680.342	543.3
680.537	518.89
680.731	517.72
680.926	524.7
681.12	541.36
681.314	466.19
681.509	472.39
681.703	506.68
681.897	508.04
682.092	485.56
682.286	475.68
682.48	557.64
682.674	530.9
682.869	486.73
683.063	502.23
683.257	541.94
683.451	475.49
683.645	506.49
683.839	474.13
684.034	479.94
684.228	522.57
684.422	475.49
684.616	466.77
684.81	507.26
685.004	525.67
685.198	511.91
685.392	534
685.586	482.08
685.78	532.84
685.974	532.64
686.168	528.57
686.362	568.87
686.556	468.51
686.75	434.8
686.944	450.69
687.138	461.73
687.331	394.89
687.525	413.3
687.719	312.35
687.913	380.94
688.107	393.34
688.301	390.43
688.494	456.31
688.688	396.63
688.882	353.81
689.076	368.73
689.269	403.22
689.463	463.28
689.657	423.56
689.85	409.42
690.044	393.34
690.238	423.37
690.431	397.21
690.625	399.54
690.818	464.06
691.012	484.79
691.205	485.95
691.399	409.42
691.593	503.78
691.786	534.97
691.98	525.28
692.173	557.25
692.366	507.84
692.56	542.72
692.753	568.68
692.947	478.78
693.14	576.82
693.333	535.55
693.527	490.6
693.72	533.81
693.914	509.01
694.107	513.85
694.3	566.36
694.493	527.22
694.687	567.91
694.88	509.97
695.073	606.46
695.266	557.25
695.46	565
695.653	603.75
695.846	616.54
696.039	529.54
696.232	560.74
696.425	606.85
696.618	660.71
696.812	622.35
697.005	679.89
697.198	751.77
697.391	623.9
697.584	675.63
697.777	722.13
697.97	694.03
698.163	709.34
698.356	667.69
698.549	763.78
698.742	740.92
698.935	687.64
699.127	713.6
699.32	709.34
699.513	692.29
699.706	715.73
699.899	765.72
700.092	707.98
700.285	717.87
700.477	670.4
700.67	728.52
700.863	750.03
701.056	840.51
701.248	790.71
701.441	826.56
701.634	780.45
701.826	876.93
702.019	765.53
702.212	819.97
702.404	760.68
702.597	771.73
702.79	795.17
702.982	877.13
703.175	851.94
703.367	860.46
703.56	856.98
703.752	947.84
703.945	886.81
704.137	917.43
704.33	941.84
704.522	947.26
704.715	927.69
704.907	939.71
705.1	971.87
705.292	1009.07
705.484	982.91
705.677	976.32
705.869	1023.02
706.061	1027.09
706.254	1044.91
706.446	1001.32
706.638	1029.61
706.831	1086.95
707.023	1035.8
707.215	1146.43
707.407	1140.04
707.599	1099.94
707.792	1153.6
707.984	1123.18
708.176	1141.59
708.368	1083.85
708.56	1154.57
708.752	1124.93
708.944	1110.01
709.136	1183.63
709.329	1132.1
709.521	1284.58
709.713	1188.67
709.905	1208.43
710.097	1270.63
710.289	1208.63
710.481	1222.19
710.672	1272.95
710.864	1247.57
711.056	1333.59
711.248	1299.69
711.44	1299.49
711.632	1254.35
711.824	1296.78
712.016	1337.08
712.207	1358.78
712.399	1365.76
712.591	1429.11
712.783	1414.39
712.975	1408.96
713.166	1349.48
713.358	1373.31
713.55	1415.74
713.741	1433.57
713.933	1437.64
714.125	1439.19
714.316	1416.71
714.508	1490.14
714.7	1492.85
714.891	1485.69
715.083	1501.77
715.274	1458.37
715.466	1460.5
715.657	1494.21
715.849	1446.74
716.04	1487.82
716.232	1455.85
716.423	1525.4
716.615	1418.26
716.806	1401.02
716.998	1408.77
717.189	1338.24
717.381	1274.7
717.572	1233.43
717.763	1256.1
717.955	1271.4
718.146	1245.44
718.337	1216.57
718.528	1172.01
718.72	1128.61
718.911	1161.55
719.102	1127.25
719.293	1189.64
719.485	1198.17
719.676	1183.83
719.867	1166.97
720.058	1152.05
720.249	1161.16
720.44	1171.82
720.632	1188.48
720.823	1243.7
721.014	1316.93
721.205	1331.85
721.396	1394.04
721.587	1481.42
721.778	1489.37
721.969	1519.01
722.16	1600.19
722.351	1569.38
722.542	1639.13
722.733	1686.21
722.924	1552.53
723.115	1633.71
723.305	1668.78
723.496	1619.18
723.687	1532.77
723.878	1530.25
724.069	1531.6
724.26	1559.31
724.45	1478.13
724.641	1521.92
724.832	1530.64
725.023	1528.31
725.213	1497.89
725.404	1466.7
725.595	1477.94
725.785	1495.95
725.976	1569.58
726.167	1580.04
726.357	1547.1
726.548	1630.8
726.739	1540.32
726.929	1618.21
727.12	1607.94
727.31	1617.82
727.501	1577.13
727.691	1605.42
727.882	1643.2
728.072	1662.19
728.263	1652.7
728.453	1665.68
728.644	1669.16
728.834	1641.46
729.024	1641.46
729.215	1624.6
729.405	1700.36
729.596	1765.07
729.786	1764.68
729.976	1767.39
730.167	1786.58
730.357	1700.55
730.547	1711.98
730.737	1759.26
730.928	1770.69
731.118	1816.8
731.308	1825.13
731.498	1815.83
731.688	1866.21
731.879	1888.49
732.069	1928.79
732.259	1919.49
732.449	1930.92
732.639	2002.99
732.829	1996.79
733.019	2055.3
733.209	2080.68
733.399	2082.81
733.589	2165.35
733.779	2191.7
733.969	2143.07
734.159	2258.74
734.349	2240.33
734.539	2259.71
734.729	2287.8
734.919	2306.59
735.109	2349.41
735.299	2249.63
735.488	2324.61
735.678	2316.28
735.868	2295.74
736.058	2317.06
736.248	2269.39
736.437	2212.43
736.627	2236.46
736.817	2365.1
737.007	2289.16
737.196	2364.91
737.386	2380.22
737.576	2305.62
737.765	2391.26
737.955	2369.75
738.144	2431.37
738.334	2362.97
738.524	2343.79
738.713	2386.22
738.903	2391.65
739.092	2443.57
739.282	2431.75
739.471	2456.94
739.661	2401.53
739.85	2431.37
740.04	2454.03
740.229	2445.7
740.419	2449
740.608	2533.47
740.797	2497.05
740.987	2576.87
741.176	2494.33
741.365	2454.62
741.555	2474.57
741.744	2542.58
741.933	2518.75
742.123	2551.3
742.312	2514.68
742.501	2609.03
742.69	2569.51
742.88	2514.68
743.069	2647.78
743.258	2540.25
743.447	2597.6
743.636	2619.69
743.825	2544.51
744.014	2583.07
744.204	2606.9
744.393	2554.01
744.582	2621.24
744.771	2625.69
744.96	2566.6
745.149	2633.83
745.338	2579.58
745.527	2615.04
745.716	2611.74
745.905	2575.13
746.094	2618.53
746.283	2653.21
746.471	2633.44
746.66	2705.13
746.849	2678.01
747.038	2672.58
747.227	2650.11
747.416	2680.14
747.604	2607.09
747.793	2639.84
747.982	2650.49
748.171	2649.91
748.359	2665.61
748.548	2690.21
748.737	2663.09
748.926	2641
749.114	2561.18
749.303	2656.89
749.491	2656.69
749.68	2543.93
749.869	2717.92
750.057	2610.39
750.246	2622.21
750.434	2585.78
750.623	2617.36
750.811	2638.68
751	2661.34
751.188	2597.02
751.377	2601.67
751.565	2594.89
751.754	2569.9
751.942	2580.16
752.131	2674.33
752.319	2567.76
752.507	2525.53
752.696	2631.7
752.884	2652.43
753.072	2578.23
753.261	2624.53
753.449	2570.28
753.637	2553.81
753.825	2689.83
754.014	2625.89
754.202	2587.14
754.39	2672.97
754.578	2629.57
754.766	2548.58
754.955	2562.73
755.143	2614.84
755.331	2561.56
755.519	2544.13
755.707	2584.81
755.895	2559.05
756.083	2563.5
756.271	2536.18
756.459	2537.54
756.647	2604.38
756.835	2548.58
757.023	2585.59
757.211	2539.67
757.399	2483.68
757.587	2493.95
757.775	2505.96
757.963	2503.44
758.151	2451.9
758.339	2460.62
758.526	2437.57
758.714	2475.93
758.902	2403.47
759.09	2359.68
759.278	2185.89
759.465	2034.18
759.653	1755.77
759.841	1591.67
760.028	1360.33
760.216	1168.33
760.404	1114.66
760.591	909.68
760.779	760.1
760.967	657.61
761.154	544.85
761.342	596
761.529	589.61
761.717	645.02
761.905	639.01
762.092	681.64
762.28	660.52
762.467	649.09
762.655	580.11
762.842	614.6
763.029	603.55
763.217	622.35
763.404	628.35
763.592	653.35
763.779	615.57
763.966	688.03
764.154	704.11
764.341	730.85
764.528	748.67
764.716	797.5
764.903	831.4
765.09	882.94
765.277	910.45
765.465	1068.55
765.652	1083.66
765.839	1141.01
766.026	1224.9
766.213	1262.68
766.4	1350.84
766.588	1473.67
766.775	1490.72
766.962	1589.34
767.149	1599.8
767.336	1744.53
767.523	1690.09
767.71	1821.06
767.897	1861.75
768.084	1922.78
768.271	1949.9
768.458	2017.91
768.645	2055.5
768.832	2041.35
769.019	2063.25
769.206	2048.13
769.392	2117.5
769.579	2197.9
769.766	2162.25
769.953	2168.84
770.14	2197.71
770.327	2163.8
770.513	2246.53
770.7	2313.37
770.887	2201.19
771.073	2298.84
771.26	2273.66
771.447	2202.16
771.634	2188.21
771.82	2289.35
772.007	2243.43
772.193	2233.74
772.38	2329.46
772.567	2247.5
772.753	2272.11
772.94	2324.22
773.126	2283.54
773.313	2305.24
773.499	2277.92
773.686	2275.98
773.872	2245.37
774.059	2286.83
774.245	2234.13
774.432	2221.93
774.618	2192.28
774.804	2259.71
774.991	2200.03
775.177	2246.34
775.363	2212.43
775.55	2269.78
775.736	2215.53
775.922	2234.13
776.109	2214.76
776.295	2253.51
776.481	2226.38
776.667	2254.67
776.853	2172.71
777.04	2220.96
777.226	2153.73
777.412	2273.27
777.598	2208.56
777.784	2140.75
777.97	2162.83
778.156	2209.91
778.342	2180.08
778.528	2164.77
778.715	2107.61
778.901	2139.78
779.087	2170.58
779.272	2143.46
779.458	2136.29
779.644	2122.73
779.83	2112.07
780.016	2220.76
780.202	2123.89
780.388	2116.53
780.574	2074.68
780.76	2118.08
780.946	2114.4
781.131	2120.79
781.317	2093.47
781.503	2072.55
781.689	2103.74
781.874	2214.37
782.06	2090.95
782.246	2095.8
782.432	2067.9
782.617	2098.7
782.803	2106.84
782.989	2043.29
783.174	2061.89
783.36	2029.15
783.545	2018.1
783.731	2037.28
783.916	1989.04
784.102	2063.83
784.288	1994.85
784.473	2023.72
784.659	1988.27
784.844	2065.38
785.029	2005.9
785.215	2016.17
785.4	1956.69
785.586	2054.53
785.771	1965.4
785.956	2018.1
786.142	1972.19
786.327	1924.52
786.512	2007.64
786.698	1986.72
786.883	1933.44
787.068	1928.4
787.254	1969.28
787.439	1919.1
787.624	1904.57
787.809	1899.72
787.994	1910.57
788.18	1956.49
788.365	1861.75
788.55	1906.7
788.735	1873.18
788.92	1868.92
789.105	1892.94
789.29	1908.83
789.475	1841.21
789.66	1869.5
789.845	1813.51
790.03	1844.31
790.215	1898.17
790.4	1874.15
790.585	1935.18
790.77	1826.1
790.955	1800.72
791.14	1867.56
791.325	1890.23
791.51	1725.16
791.695	1794.33
791.879	1839.27
792.064	1769.33
792.249	1882.09
792.434	1803.04
792.618	1797.23
792.803	1827.07
792.988	1824.94
793.173	1855.94
793.357	1868.14
793.542	1773.79
793.727	1798.98
793.911	1857.68
794.096	1812.34
794.281	1866.59
794.465	1885
794.65	1812.54
794.834	1829.78
795.019	1881.9
795.203	1881.12
795.388	1858.65
795.572	1901.47
795.757	1869.31
795.941	1855.16
796.126	1868.14
796.31	1777.66
796.494	1841.6
796.679	1833.66
796.863	1804.59
797.048	1892.36
797.232	1853.61
797.416	1828.23
797.601	1849.54
797.785	1901.86
797.969	1916.19
798.153	1841.21
798.338	1845.47
798.522	1903.21
798.706	1898.95
798.89	1912.7
799.074	1962.69
799.258	1939.44
799.443	1883.84
799.627	1874.54
799.811	1930.34
799.995	1854.58
800.179	1821.26
800.363	1862.52
800.547	1911.93
800.731	1895.27
800.915	1829.2
801.099	1862.72
801.283	1891.97
801.467	1892.56
801.651	1842.76
801.835	1919.1
802.019	1865.82
802.202	1860.59
802.386	1809.83
802.57	1824.55
802.754	1839.08
802.938	1818.35
803.121	1860.2
803.305	1902.44
803.489	1847.02
803.673	1899.34
803.856	1897.4
804.04	1878.41
804.224	1870.66
804.407	1874.34
804.591	1842.96
804.775	1864.27
804.958	1847.22
805.142	1949.9
805.326	1874.92
805.509	1864.85
805.693	1940.41
805.876	1900.31
806.06	1892.56
806.243	1866.21
806.427	1899.92
806.61	1930.72
806.794	1864.07
806.977	1932.47
807.16	1883.64
807.344	1917.55
807.527	1863.11
807.71	1864.66
807.894	1863.49
808.077	1894.11
808.26	1845.28
808.444	1848.96
808.627	1899.34
808.81	1847.8
808.993	1808.86
809.177	1820.48
809.36	1828.81
809.543	1855.94
809.726	1757.51
809.909	1755.96
810.092	1772.63
810.276	1769.91
810.459	1782.51
810.642	1726.51
810.825	1721.48
811.008	1748.02
811.191	1641.27
811.374	1673.23
811.557	1717.41
811.74	1740.27
811.923	1658.7
812.106	1675.17
812.289	1582.56
812.472	1631.58
812.654	1638.17
812.837	1611.82
813.02	1595.15
813.203	1554.47
813.386	1444.61
813.569	1443.64
813.751	1418.07
813.934	1481.04
814.117	1443.06
814.3	1410.12
814.482	1378.93
814.665	1373.7
814.848	1324.88
815.03	1280.7
815.213	1299.3
815.396	1290.97
815.578	1259.39
815.761	1226.65
815.943	1311.51
816.126	1200.1
816.309	1198.94
816.491	1164.45
816.674	1100.32
816.856	1155.73
817.039	1134.23
817.221	1215.21
817.403	1167.75
817.586	1200.49
817.768	1184.6
817.951	1128.42
818.133	1113.5
818.315	1131.32
818.498	1184.02
818.68	1242.73
818.862	1183.44
819.045	1228.2
819.227	1239.24
819.409	1143.33
819.591	1205.92
819.774	1179.37
819.956	1148.95
820.138	1241.18
820.32	1235.17
820.502	1246.41
820.684	1271.6
820.866	1325.84
821.048	1360.53
821.231	1366.14
821.413	1326.81
821.595	1307.44
821.777	1355.49
821.959	1320.81
822.141	1365.76
822.323	1267.72
822.505	1209.98
822.686	1186.73
822.868	1144.88
823.05	1036.58
823.232	1044.33
823.414	988.34
823.596	1080.95
823.778	1037.55
823.96	1079.4
824.141	1073.39
824.323	1078.82
824.505	1146.43
824.687	1194.1
824.868	1198.17
825.05	1304.14
825.232	1293.88
825.413	1368.47
825.595	1322.16
825.777	1261.13
825.958	1284.77
826.14	1315.77
826.321	1336.31
826.503	1276.44
826.685	1302.01
826.866	1339.99
827.048	1303.37
827.229	1294.07
827.411	1263.65
827.592	1197.2
827.773	1223.16
827.955	1179.18
828.136	1196.81
828.318	1137.13
828.499	1199.33
828.68	1132.1
828.862	1175.69
829.043	1202.04
829.224	1177.05
829.406	1147.6
829.587	1156.12
829.768	1179.76
829.949	1217.15
830.131	1160
830.312	1250.86
830.493	1186.35
830.674	1172.78
830.855	1158.83
831.036	1192.16
831.218	1203.01
831.399	1219.09
831.58	1206.3
831.761	1178.4
831.942	1204.75
832.123	1146.24
832.304	1109.82
832.485	1134.62
832.666	1150.12
832.847	1163.1
833.028	1180.34
833.209	1171.04
833.389	1156.51
833.57	1099.55
833.751	1107.1
833.932	1189.45
834.113	1164.84
834.294	1162.32
834.475	1178.21
834.655	1200.88
834.836	1204.95
835.017	1188.09
835.198	1148.95
835.378	1178.6
835.559	1232.85
835.74	1176.66
835.92	1177.24
836.101	1143.14
836.281	1209.01
836.462	1188.87
836.643	1220.64
836.823	1212.31
837.004	1243.89
837.184	1266.75
837.365	1264.81
837.545	1230.91
837.726	1223.35
837.906	1263.26
838.087	1249.9
838.267	1193.32
838.448	1171.82
838.628	1239.24
838.808	1222.19
838.989	1280.9
839.169	1182.28
839.349	1272.56
839.53	1254.55
839.71	1250.67
839.89	1225.87
840.07	1287.1
840.251	1191.77
840.431	1247.38
840.611	1219.86
840.791	1189.45
840.971	1254.74
841.151	1205.92
841.332	1179.76
841.512	1241.76
841.692	1152.83
841.872	1210.18
842.052	1189.25
842.232	1246.8
842.412	1159.03
842.592	1173.56
842.772	1225.1
842.952	1211.53
843.132	1191.58
843.312	1162.13
843.492	1158.25
843.672	1230.91
843.851	1156.51
844.031	1183.05
844.211	1182.67
844.391	1152.25
844.571	1207.27
844.751	1160.58
844.93	1153.99
845.11	1171.04
845.29	1196.62
845.47	1165.03
845.649	1169.88
845.829	1207.66
846.009	1122.8
846.188	1196.03
846.368	1191.58
846.547	1205.72
846.727	1193.52
846.907	1134.81
847.086	1177.82
847.266	1197.58
847.445	1156.51
847.625	1147.6
847.804	1147.21
847.984	1126.09
848.163	1138.3
848.343	1144.69
848.522	1144.11
848.701	1181.12
848.881	1105.75
849.06	1142.56
849.239	1143.92
849.419	1160.77
849.598	1098.19
849.777	1086.37
849.957	1140.04
850.136	1066.22
850.315	1043.36
850.494	1044.33
850.674	1011.2
850.853	1108.07
851.032	1070.68
851.211	1139.07
851.39	1101.29
851.569	1035.42
851.748	1055.57
851.927	1101.1
852.107	1047.43
852.286	1032.12
852.465	1006.55
852.644	1086.37
852.823	1063.9
853.002	1044.72
853.181	1040.45
853.359	1082.69
853.538	1017.01
853.717	1112.34
853.896	1011.2
854.075	957.34
854.254	927.31
854.433	865.31
854.611	967.22
854.79	874.22
854.969	934.67
855.148	964.89
855.327	879.45
855.505	943.19
855.684	916.65
855.863	986.01
856.041	923.43
856.22	984.46
856.399	957.92
856.577	1042.59
856.756	1000.93
856.934	1162.32
857.113	1100.71
857.291	1029.8
857.47	1007.71
857.648	1038.71
857.827	1031.74
858.005	1038.13
858.184	990.66
858.362	1062.74
858.541	1010.42
858.719	980.78
858.898	1035.42
859.076	1012.94
859.254	1058.86
859.433	1034.25
859.611	1002.29
859.789	947.84
859.967	1033.87
860.146	1074.55
860.324	994.92
860.502	956.56
860.68	933.31
860.859	967.41
861.037	973.03
861.215	1007.32
861.393	1002.87
861.571	959.47
861.749	959.08
861.927	1016.24
862.105	951.33
862.283	980.01
862.461	957.34
862.639	951.14
862.817	943.39
862.995	954.62
863.173	918.98
863.351	955.98
863.529	958.5
863.707	1022.82
863.885	982.33
864.063	910.06
864.241	911.61
864.418	996.86
864.596	918.59
864.774	878.87
864.952	920.14
865.129	938.54
865.307	914.71
865.485	863.37
865.663	972.06
865.84	873.64
866.018	905.61
866.196	769.21
866.373	850.2
866.551	791.1
866.728	743.05
866.906	780.06
867.084	801.37
867.261	876.74
867.439	859.49
867.616	895.53
867.794	884.29
867.971	836.25
868.149	845.93
868.326	938.35
868.503	893.59
868.681	899.21
868.858	855.62
869.035	824.04
869.213	885.26
869.39	837.99
869.567	932.54
869.745	845.93
869.922	858.33
870.099	886.04
870.276	886.81
870.454	896.5
870.631	900.76
870.808	857.17
870.985	901.93
871.162	935.83
871.339	869.18
871.517	832.76
871.694	817.45
871.871	849.03
872.048	857.95
872.225	805.44
872.402	853.3
872.579	836.83
872.756	861.63
872.933	790.71
873.11	836.25
873.287	851.16
873.463	808.35
873.64	801.18
873.817	875.58
873.994	827.33
874.171	832.18
874.348	835.66
874.524	801.37
874.701	826.75
874.878	765.33
875.055	837.21
875.231	821.91
875.408	816.68
875.585	727.55
875.762	800.21
875.938	766.11
876.115	811.83
876.291	789.36
876.468	810.09
876.645	729.3
876.821	796.14
876.998	777.15
877.174	807.96
877.351	785.29
877.527	744.6
877.704	807.57
877.88	772.31
878.057	761.46
878.233	825.4
878.409	771.92
878.586	787.03
878.762	770.57
878.938	763.98
879.115	722.13
879.291	751.19
879.467	682.41
879.644	737.43
879.82	746.54
879.996	713.99
880.172	688.61
880.349	729.1
880.525	763.4
880.701	721.35
880.877	736.27
881.053	746.35
881.229	737.05
881.405	773.08
881.581	730.46
881.757	726
881.933	744.99
882.109	763.78
882.285	754.48
882.461	685.9
882.637	749.25
882.813	686.87
882.989	732.2
883.165	776.96
883.341	718.25
883.517	781.8
883.693	746.73
883.869	743.83
884.044	690.55
884.22	747.9
884.396	774.83
884.572	779.48
884.747	759.72
884.923	753.71
885.099	757.78
885.275	775.02
885.45	741.31
885.626	728.33
885.801	712.83
885.977	723.87
886.153	673.3
886.328	714.38
886.504	692.29
886.679	758.17
886.855	716.7
887.03	730.27
887.206	730.07
887.381	749.06
887.557	742.47
887.732	741.31
887.908	753.13
888.083	746.73
888.258	721.16
888.434	724.45
888.609	734.53
888.784	744.22
888.96	736.27
889.135	710.12
889.31	696.75
889.485	724.65
889.661	711.67
889.836	740.92
890.011	718.45
890.186	698.68
890.361	696.17
890.537	694.03
890.712	747.12
890.887	733.17
891.062	719.42
891.237	760.88
891.412	697.33
891.587	737.82
891.762	755.45
891.937	785.48
892.112	692.87
892.287	716.12
892.462	703.92
892.637	666.72
892.812	650.05
892.987	649.86
893.161	663.23
893.336	655.29
893.511	665.36
893.686	665.75
893.861	691.71
894.035	654.32
894.21	665.94
894.385	597.94
894.56	634.75
894.734	594.26
894.909	568.29
895.084	600.45
895.258	580.31
895.433	637.27
895.608	611.5
895.782	562.48
895.957	578.17
896.131	579.92
896.306	513.66
896.48	519.08
896.655	533.03
896.829	481.11
897.004	472.39
897.178	476.84
897.353	477.04
897.527	508.23
897.701	494.09
897.876	447.01
898.05	531.87
898.224	534.77
898.399	552.02
898.573	493.7
898.747	414.07
898.921	479.17
899.096	385.98
899.27	410.39
899.444	434.22
899.618	426.28
899.792	433.44
899.967	414.46
900.141	466.19
900.315	409.03
900.489	400.7
900.663	445.26
900.837	428.41
901.011	394.89
901.185	500.09
901.359	430.34
901.533	455.92
901.707	453.59
901.881	415.81
902.055	376.29
902.229	442.94
902.403	494.28
902.576	423.76
902.75	442.94
902.924	518.11
903.098	481.88
903.272	510.75
903.446	529.35
903.619	505.52
903.793	515.01
903.967	464.25
904.14	579.72
904.314	541.56
904.488	537.49
904.661	581.27
904.835	530.9
905.009	576.04
905.182	596.39
905.356	553.18
905.529	539.81
905.703	479.17
905.876	527.61
906.05	462.12
906.223	474.52
906.397	438.09
906.57	445.65
906.744	412.52
906.917	403.8
907.09	437.9
907.264	424.73
907.437	392.95
907.61	363.89
907.784	388.3
907.957	398.18
908.13	344.71
908.304	427.83
908.477	380.94
908.65	402.45
908.823	343.16
908.996	459.6
909.17	374.55
909.343	356.33
909.516	378.42
909.689	387.14
909.862	343.93
910.035	384.81
910.208	361.18
910.381	382.3
910.554	430.15
910.727	371.83
910.9	367.38
911.073	336.96
911.246	418.91
911.419	432.09
911.592	415.43
911.765	360.6
911.938	362.92
912.11	362.73
912.283	374.16
912.456	403.41
912.629	365.63
912.802	341.41
912.974	327.08
913.147	308.09
913.32	255.97
913.493	269.53
913.665	329.79
913.838	332.7
914.01	313.9
914.183	327.85
914.356	337.15
914.528	345.1
914.701	388.88
914.873	359.82
915.046	323.01
915.218	305.38
915.391	255.58
915.563	284.26
915.736	343.93
915.908	342.19
916.081	327.85
916.253	284.65
916.425	331.53
916.598	323.01
916.77	325.14
916.942	288.52
917.115	258.3
917.287	332.7
917.459	301.5
917.632	260.43
917.804	245.12
917.976	285.23
918.148	318.36
918.32	262.95
918.493	303.63
918.665	358.66
918.837	320.1
919.009	404.77
919.181	339.86
919.353	335.6
919.525	295.5
919.697	320.68
919.869	339.28
920.041	383.65
920.213	440.03
920.385	367.96
920.557	349.36
920.729	353.43
920.901	341.03
921.073	343.93
921.244	317.58
921.416	373.77
921.588	351.88
921.76	300.34
921.932	392.37
922.103	344.13
922.275	367.57
922.447	352.26
922.619	264.11
922.79	320.88
922.962	324.56
923.134	334.44
923.305	299.18
923.477	284.65
923.648	260.23
923.82	292.01
923.991	227.49
924.163	261.59
924.335	298.6
924.506	274.18
924.677	358.27
924.849	262.75
925.02	304.02
925.192	322.23
925.363	273.02
925.535	296.66
925.706	281.35
925.877	322.04
926.049	238.92
926.22	293.95
926.391	300.53
926.562	329.98
926.734	271.08
926.905	310.22
927.076	236.4
927.247	285.62
927.419	219.94
927.59	207.15
927.761	261.01
927.932	232.72
928.103	237.57
928.274	214.9
928.445	225.75
928.616	212.19
928.787	220.9
928.958	231.37
929.129	233.5
929.3	211.22
929.471	173.05
929.642	151.35
929.813	85.67
929.984	204.44
930.155	113.37
930.326	166.27
930.496	140.69
930.667	76.76
930.838	135.07
931.009	104.46
931.18	120.54
931.35	110.27
931.521	123.45
931.692	75.21
931.863	44.79
932.033	86.83
932.204	94.19
932.374	111.05
932.545	56.03
932.716	129.26
932.886	126.36
933.057	56.99
933.227	66.88
933.398	130.23
933.568	36.46
933.739	12.43
933.909	41.11
934.08	73.66
934.25	6.43
934.421	41.3
934.591	50.21
934.761	30.45
934.932	5.46
935.102	20.18
935.272	31.03
935.443	43.04
935.613	29.87
935.783	47.5
935.953	5.46
936.123	167.43
936.294	-6.36
936.464	42.08
936.634	53.31
936.804	23.48
936.974	-7.72
937.144	38.78
937.314	35.29
937.484	6.81
937.655	-5.39
937.825	94.58
937.995	-4.04
938.165	72.3
938.334	2.16
938.504	57.77
938.674	31.61
938.844	34.71
939.014	85.86
939.184	84.89
939.354	109.69
939.524	88.96
939.694	56.61
939.863	28.32
940.033	109.31
940.203	121.51
940.373	81.6
940.542	88.77
940.712	55.25
940.882	129.65
941.051	106.4
941.221	93.22
941.391	127.52
941.56	50.02
941.73	50.41
941.899	137.79
942.069	50.99
942.238	86.25
942.408	47.31
942.577	86.83
942.747	52.15
942.916	28.51
943.086	49.44
943.255	94.19
943.425	45.76
943.594	16.69
943.763	-30.39
943.933	-2.49
944.102	-30.77
944.271	65.52
944.441	50.79
944.61	15.53
944.779	35.49
944.948	118.61
945.117	19.21
945.287	43.63
945.456	-12.56
945.625	22.31
945.794	61.45
945.963	21.93
946.132	83.54
946.301	26.58
946.47	75.59
946.639	4.88
946.808	26.58
946.977	85.86
947.146	106.01
947.315	33.55
947.484	72.3
947.653	42.46
947.822	42.46
947.991	12.24
948.16	126.94
948.329	95.55
948.498	66.49
948.666	63.58
948.835	67.65
949.004	13.21
949.173	-2.87
949.341	32.97
949.51	59.32
949.679	99.23
949.847	68.23
950.016	144.18
950.185	106.01
950.353	7.39
950.522	38.01
950.69	85.86
950.859	9.72
951.028	95.74
951.196	71.33
951.365	19.02
951.533	51.18
951.701	98.84
951.87	77.92
952.038	20.18
952.207	77.92
952.375	113.37
952.543	26.77
952.712	47.5
952.88	7.2
953.048	89.74
953.217	68.23
953.385	47.11
953.553	108.53
953.721	34.52
953.89	41.3
954.058	12.04
954.226	20.57
954.394	35.29
954.562	-8.11
954.73	55.44
954.898	46.34
955.067	84.12
955.235	49.24
955.403	94.19
955.571	100.78
955.739	89.93
955.907	42.66
956.075	18.05
956.243	12.82
956.41	50.6
956.578	-17.4
956.746	36.26
956.914	46.34
957.082	96.52
957.25	83.54
957.418	31.81
957.585	56.61
957.753	101.17
957.921	32.97
958.089	42.46
958.256	86.44
958.424	43.82
958.592	68.43
958.759	36.07
958.927	61.64
959.095	58.35
959.262	28.71
959.43	53.12
959.597	22.12
959.765	54.09
959.932	20.18
960.1	48.28
960.267	54.09
960.435	47.5
960.602	119.77
960.77	27.16
960.937	-16.63
961.104	76.17
961.272	-18.18
961.439	18.05
961.606	63.19
961.774	59.51
961.941	28.32
962.108	65.91
962.275	54.28
962.443	83.34
962.61	85.67
962.777	118.61
962.944	79.47
963.111	86.44
963.278	85.86
963.446	42.08
963.613	61.64
963.78	81.6
963.947	62.42
964.114	44.01
964.281	169.17
964.448	98.65
964.615	52.54
964.782	91.29
964.949	82.57
965.116	85.86
965.282	88.19
965.449	34.33
965.616	40.53
965.783	80.63
965.95	56.03
966.117	26.77
966.283	48.47
966.45	77.92
966.617	62.42
966.784	104.27
966.95	93.61
967.117	99.81
967.284	31.03
967.45	62.81
967.617	115.31
967.784	111.82
967.95	134.49
968.117	47.89
968.283	83.73
968.45	136.82
968.616	87.8
968.783	130.23
968.949	92.64
969.116	103.3
969.282	87.22
969.449	76.17
969.615	65.52
969.781	37.04
969.948	86.44
970.114	34.33
970.28	99.62
970.447	81.41
970.613	119.19
970.779	69.98
970.945	82.57
971.112	68.81
971.278	64.36
971.444	63.39
971.61	129.84
971.776	50.41
971.942	104.85
972.108	87.99
972.275	50.41
972.441	105.04
972.607	125.58
972.773	52.34
972.939	76.76
973.105	77.34
973.271	53.7
973.437	44.4
973.602	42.08
973.768	99.81
973.934	53.31
974.1	107.37
974.266	-7.33
974.432	60.29
974.598	44.21
974.763	68.62
974.929	67.65
975.095	116.86
975.261	33.16
975.426	32.19
975.592	50.79
975.758	123.64
975.923	23.67
976.089	33.94
976.255	92.26
976.42	76.37
976.586	103.11
976.751	75.4
976.917	140.5
977.082	102.91
977.248	37.23
977.413	12.04
977.579	60.09
977.744	78.11
977.91	13.4
978.075	43.04
978.24	71.72
978.406	56.61
978.571	41.88
978.736	41.3
978.902	78.11
979.067	50.99
979.232	7.98
979.397	80.82
979.563	113.96
979.728	8.75
979.893	61.26
980.058	42.66
980.223	101.36
980.388	54.86
980.554	57.96
980.719	47.89
980.884	69.59
981.049	100.59
981.214	74.24
981.379	81.99
981.544	23.09
981.709	45.37
981.874	52.54
982.039	68.81
982.204	96.91
982.368	63.78
982.533	34.71
982.698	77.34
982.863	101.56
983.028	29.48
983.193	65.71
983.357	31.03
983.522	57.58
983.687	49.24
983.852	49.24
984.016	48.66
984.181	75.4
984.346	65.52
984.51	90.71
984.675	49.63
984.839	91.48
985.004	61.64
985.168	107.76
985.333	78.11
985.498	41.11
985.662	77.92
985.827	67.84
985.991	72.49
986.155	54.28
986.32	85.47
986.484	133.52
986.649	53.7
986.813	14.37
986.977	69.01
987.142	55.25
987.306	39.36
987.47	18.24
987.634	46.92
987.799	82.37
987.963	66.68
988.127	78.11
988.291	114.92
988.455	55.06
988.62	51.18
988.784	100.39
988.948	83.15
989.112	48.47
989.276	79.08
989.44	63.39
989.604	62.03
989.768	44.59
989.932	142.44
990.096	35.1
990.26	31.61
990.424	20.76
990.588	77.72
990.752	106.59
990.915	61.84
991.079	28.71
991.243	43.24
991.407	81.02
991.571	43.04
991.734	94
991.898	89.16
992.062	143.41
992.226	62.61
992.389	6.43
992.553	20.76
992.717	29.09
992.88	33.36
993.044	36.46
993.207	67.46
993.371	82.96
993.535	61.26
993.698	66.49
993.862	90.9
994.025	108.92
994.189	63.58
994.352	76.56
994.515	73.27
994.679	85.86
994.842	52.15
995.006	73.46
995.169	32.58
995.332	39.17
995.496	63.19
995.659	2.36
995.822	36.46
995.985	48.66
996.149	106.01
996.312	77.72
996.475	112.99
996.638	24.25
996.801	106.59
996.964	107.37
997.128	52.73
997.291	52.15
997.454	60.29
997.617	5.07
997.78	110.66
997.943	28.71
998.106	98.46
998.269	36.26
998.432	41.49
998.595	56.03
998.758	4.88
998.92	32.39
999.083	37.81
999.246	33.74
999.409	-2.29
999.572	-40.07
999.735	4.88
999.897	48.66
1000.06	43.82
1000.223	32.19
1000.386	65.33
1000.548	73.07
1000.711	57.19
1000.874	69.2
1001.036	-2.1
1001.199	74.04
1001.361	18.24
1001.524	49.83
1001.687	65.91
1001.849	23.28
1002.012	55.44
1002.174	40.14
1002.337	69.78
1002.499	34.71
1002.661	74.43
1002.824	4.49
1002.986	19.21
1003.149	46.92
1003.311	9.14
1003.473	109.89
1003.636	2.94
1003.798	42.46
1003.96	53.51
1004.123	47.89
1004.285	31.61
1004.447	19.79
1004.609	24.06
1004.771	126.94
1004.933	-22.64
1005.096	23.28
1005.258	-13.53
1005.42	10.88
1005.582	63.78
1005.744	75.79
1005.906	-4.62
1006.068	30.06
1006.23	21.54
1006.392	-5.2
1006.554	-21.28
1006.716	73.66
1006.878	55.83
1007.04	-5.01
1007.202	-9.46
1007.363	36.07
1007.525	40.91
1007.687	29.09
1007.849	60.48
1008.011	-33.29
1008.172	-5.59
1008.334	51.18
1008.496	64.94
1008.658	-8.11
1008.819	11.08
1008.981	-2.87
1009.143	12.63
1009.304	26.96
1009.466	46.14
1009.627	84.51
1009.789	141.47
1009.95	28.51
1010.112	-4.04
1010.273	48.28
1010.435	32.39
1010.596	49.24
1010.758	32.78
1010.919	1.97
1011.081	6.04
1011.242	7.59
1011.403	54.28
1011.565	27.35
1011.726	41.69
1011.887	-8.49
1012.049	19.6
1012.21	61.45
1012.371	68.04
1012.532	-13.14
1012.693	38.59
1012.855	5.46
1013.016	-4.04
1013.177	60.29
1013.338	28.13
1013.499	97.49
1013.66	59.9
1013.821	60.68
1013.982	22.51
1014.143	40.91
1014.304	19.79
1014.465	37.04
1014.626	52.54
1014.787	3.91
1014.948	116.28
1015.109	-33.29
1015.27	75.59
1015.431	9.72
1015.592	-8.88
1015.752	56.22
1015.913	25.41
1016.074	46.34
1016.235	26.38
1016.395	36.26
1016.556	30.45
1016.717	15.92
1016.877	90.12
1017.038	2.36
1017.199	43.82
1017.359	29.09
1017.52	38.59
1017.681	5.46
1017.841	40.53
1018.002	28.13
1018.162	5.84
1018.323	56.61
1018.483	11.46
1018.644	19.6
1018.804	-22.83
1018.964	-16.63
1019.125	10.11
1019.285	41.88
1019.446	-8.3
1019.606	-6.36
1019.766	-25.93
1019.926	39.17
1020.087	41.11
1020.247	-37.94
1020.407	42.27
1020.567	74.24
1020.728	-3.46
1020.888	-25.35
1021.048	15.34
1021.208	5.46
1021.368	-8.69
1021.528	68.23
1021.688	68.23
1021.848	37.81
1022.008	14.76
1022.168	9.53
1022.328	34.13
1022.488	57.19
1022.648	3.71
1022.808	36.84
1022.968	52.54
1023.128	-6.75
1023.288	15.14
1023.448	9.14
1023.608	44.01
1023.767	24.44
1023.927	18.24
1024.087	1
1024.247	-31.35
1024.406	7.59
1024.566	-18.95
1024.726	-23.22
1024.885	15.14
1025.045	56.41
1025.205	20.96
1025.364	-9.27
1025.524	34.91
1025.683	18.44
1025.843	3.71
1026.003	25.03
1026.162	63.58
1026.321	65.52
1026.481	26.38
1026.64	-7.33
1026.8	35.29
1026.959	-4.62
1027.119	32.97
1027.278	40.33
1027.437	-7.52
1027.597	36.46
1027.756	37.62
1027.915	18.83
1028.074	34.71
1028.234	-3.84
1028.393	25.8
1028.552	-4.04
1028.711	-44.92
1028.87	15.53
1029.03	-34.65
1029.189	1.78
1029.348	-31.94
1029.507	-17.21
1029.666	20.38
1029.825	-20.7
1029.984	-7.14
1030.143	39.94
1030.302	-3.07
1030.461	-25.93
1030.62	28.71
1030.779	44.98
1030.938	-4.81
1031.097	-42.98
1031.255	23.67
1031.414	53.12
1031.573	40.14
1031.732	-50.73
1031.891	20.96
1032.049	55.83
1032.208	34.52
1032.367	-18.37
1032.525	1.58
1032.684	11.08
1032.843	16.11
1033.001	-34.45
1033.16	137.21
1033.319	51.18
1033.477	34.13
1033.636	-4.04
1033.794	-52.86
1033.953	40.91
1034.111	49.24
1034.27	-1.52
1034.428	20.76
1034.587	-17.02
1034.745	37.23
1034.903	-5.97
1035.062	38.2
1035.22	-32.9
1035.378	29.09
1035.537	-16.44
1035.695	29.48
1035.853	8.75
1036.011	49.63
1036.17	14.56
1036.328	-72.82
1036.486	4.29
1036.644	12.24
1036.802	-75.34
1036.96	-18.18
1037.119	26.58
1037.277	-14.5
1037.435	-37.75
1037.593	-10.24
1037.751	26.58
1037.909	28.32
1038.067	28.32
