Data from pine_FLMT105791__187__17-23-41-073.txt Node

Date: Mon Mar 20 17:23:41 GMT 2023
User: antho
Spectrometer: FLMT10579
Trigger mode: 0
Integration Time (sec): 1.000000E-1
Scans to average: 10
Electric dark correction enabled: true
Nonlinearity correction enabled: false
Boxcar width: 0
XAxis mode: Wavelengths
Number of Pixels in Spectrum: 3648
>>>>>Begin Spectral Data<<<<<
345.248	-170.58
345.464	-170.58
345.681	-170.58
345.898	-169.42
346.114	-173.87
346.331	-13.06
346.548	10.58
346.764	-8.22
346.981	2.44
347.197	-10.93
347.414	26.08
347.631	-28.17
347.847	63.27
348.064	-5.51
348.28	23.56
348.497	-43.87
348.713	-16.16
348.93	50.1
349.146	13.09
349.363	-16.55
349.579	18.52
349.796	24.53
350.012	-26.82
350.229	16.39
350.445	7.09
350.661	-37.47
350.878	1.28
351.094	12.71
351.311	15.81
351.527	8.83
351.743	-36.7
351.96	2.63
352.176	41.77
352.392	26.85
352.609	11.54
352.825	-1.63
353.041	10.38
353.257	-23.72
353.474	-2.41
353.69	-14.42
353.906	29.56
354.122	-47.16
354.339	76.64
354.555	-10.54
354.771	-19.84
354.987	81.68
355.203	40.02
355.42	-34.18
355.636	-12.67
355.852	-10.54
356.068	-23.72
356.284	-32.63
356.5	56.88
356.716	1.66
356.932	14.06
357.148	18.33
357.364	-2.21
357.58	43.9
357.796	61.53
358.012	34.6
358.228	12.9
358.444	-69.25
358.66	51.46
358.876	27.43
359.092	-35.92
359.308	23.94
359.524	9.61
359.74	1.66
359.956	-9.77
360.172	7.09
360.388	38.67
360.604	-17.13
360.819	88.07
361.035	8.06
361.251	29.95
361.467	-33.41
361.683	65.79
361.898	6.12
362.114	50.87
362.33	-4.15
362.546	30.14
362.762	-15
362.977	19.49
363.193	-23.33
363.409	28.98
363.624	-39.99
363.84	-21.97
364.056	-8.41
364.271	9.8
364.487	22.2
364.703	-10.35
364.918	-50.84
365.134	-33.02
365.35	7.48
365.565	69.86
365.781	4.38
365.996	17.36
366.212	46.81
366.427	17.16
366.643	-39.22
366.858	-19.46
367.074	-37.67
367.289	52.04
367.505	82.65
367.72	-51.81
367.936	-5.31
368.151	41.38
368.367	8.83
368.582	-10.93
368.798	-17.91
369.013	68.12
369.228	-11.9
369.444	17.16
369.659	49.13
369.874	13.09
370.09	48.94
370.305	-61.69
370.52	-21.39
370.736	49.91
370.951	-0.47
371.166	51.65
371.381	64.82
371.597	35.38
371.812	-18.68
372.027	-27.21
372.242	-9.77
372.458	82.46
372.673	8.64
372.888	7.67
373.103	15.81
373.318	92.92
373.533	6.7
373.749	3.99
373.964	-55.49
374.179	44.48
374.394	-38.25
374.609	61.92
374.824	-21.59
375.039	55.52
375.254	5.93
375.469	63.86
375.684	33.05
375.899	54.56
376.114	3.79
376.329	44.48
376.544	39.83
376.759	33.63
376.974	-18.68
377.189	1.28
377.404	8.06
377.619	45.06
377.834	-34.76
378.049	-28.37
378.264	-10.54
378.478	-1.63
378.693	-23.91
378.908	29.37
379.123	-13.84
379.338	48.94
379.553	17.74
379.767	27.24
379.982	44.87
380.197	13.48
380.412	9.03
380.626	33.63
380.841	73.74
381.056	3.02
381.271	56.69
381.485	-18.1
381.7	-15.77
381.915	16.58
382.129	-4.54
382.344	7.67
382.559	11.35
382.773	21.81
382.988	-34.57
383.202	-0.47
383.417	7.28
383.632	122.56
383.846	9.99
384.061	10.19
384.275	0.11
384.49	20.26
384.704	25.11
384.919	20.26
385.133	5.93
385.348	20.26
385.562	-22.94
385.777	56.11
385.991	15.03
386.206	-12.29
386.42	-1.24
386.634	57.27
386.849	3.21
387.063	12.32
387.277	-26.43
387.492	-23.52
387.706	-23.52
387.92	-24.11
388.135	59.59
388.349	16.97
388.563	31.5
388.778	25.88
388.992	43.12
389.206	22.39
389.42	78.19
389.635	-3.76
389.849	41.96
390.063	36.73
390.277	9.61
390.491	42.16
390.706	24.72
390.92	23.94
391.134	7.09
391.348	50.87
391.562	-51.04
391.776	29.18
391.99	-30.5
392.205	35.38
392.419	24.72
392.633	-13.06
392.847	78.58
393.061	-12.09
393.275	60.76
393.489	31.11
393.703	16.97
393.917	55.72
394.131	-6.86
394.345	32.28
394.559	19.29
394.773	1.66
394.986	8.83
395.2	-2.41
395.414	19.49
395.628	-33.21
395.842	24.72
396.056	-14.03
396.27	-55.1
396.484	13.29
396.697	11.74
396.911	51.65
397.125	46.81
397.339	38.09
397.553	13.09
397.766	70.64
397.98	55.72
398.194	60.76
398.408	0.89
398.621	34.6
398.835	44.67
399.049	23.94
399.262	53.97
399.476	19.88
399.69	26.27
399.903	81.49
400.117	-19.65
400.331	32.47
400.544	-16.55
400.758	115.78
400.971	29.37
401.185	42.16
401.398	-17.91
401.612	51.46
401.826	15.42
402.039	27.63
402.253	-13.64
402.466	45.64
402.68	-13.26
402.893	18.71
403.106	7.48
403.32	-8.22
403.533	28.98
403.747	29.76
403.96	9.41
404.174	53.59
404.387	-5.31
404.6	-4.92
404.814	69.47
405.027	57.46
405.24	17.16
405.454	-33.02
405.667	57.46
405.88	-50.46
406.094	10.58
406.307	44.29
406.52	10.96
406.733	-15.19
406.947	-24.69
407.16	79.55
407.373	84.01
407.586	-12.87
407.799	-10.93
408.012	42.74
408.226	16.19
408.439	77.42
408.652	-41.16
408.865	30.92
409.078	55.72
409.291	33.83
409.504	-23.14
409.717	17.55
409.93	27.24
410.143	26.27
410.357	-34.76
410.57	-1.24
410.783	14.64
410.996	25.3
411.209	-7.83
411.421	39.83
411.634	-2.6
411.847	-3.37
412.06	31.89
412.273	-21.39
412.486	35.96
412.699	106.09
412.912	-0.66
413.125	13.68
413.338	12.71
413.55	38.47
413.763	4.38
413.976	25.11
414.189	-22.56
414.402	-3.57
414.615	78
414.827	-24.88
415.04	61.34
415.253	15.81
415.466	46.22
415.678	74.51
415.891	28.01
416.104	30.34
416.316	-10.74
416.529	-19.07
416.742	40.99
416.954	42.54
417.167	15.03
417.38	18.91
417.592	65.79
417.805	9.22
418.017	-39.02
418.23	30.73
418.442	-7.25
418.655	2.83
418.868	20.84
419.08	42.54
419.293	65.79
419.505	30.73
419.718	40.22
419.93	77.81
420.142	21.62
420.355	52.81
420.567	80.52
420.78	33.83
420.992	0.89
421.205	99.12
421.417	-29.14
421.629	-29.92
421.842	-14.61
422.054	-25.07
422.266	35.76
422.479	45.84
422.691	-8.99
422.903	15.42
423.115	30.53
423.328	12.51
423.54	48.36
423.752	6.89
423.964	-26.04
424.177	34.41
424.389	6.31
424.601	110.16
424.813	29.37
425.025	39.44
425.238	50.1
425.45	-2.41
425.662	3.6
425.874	308.17
426.086	22.78
426.298	42.93
426.51	23.94
426.722	12.32
426.934	36.73
427.146	36.92
427.358	-22.17
427.57	72.38
427.782	11.54
427.994	26.27
428.206	-1.44
428.418	-31.66
428.63	15.42
428.842	51.65
429.054	31.31
429.266	52.62
429.478	4.76
429.69	25.11
429.902	-28.56
430.114	33.05
430.325	59.98
430.537	3.99
430.749	24.91
430.961	-12.09
431.173	18.52
431.384	40.02
431.596	-32.82
431.808	4.96
432.02	21.43
432.231	31.11
432.443	56.49
432.655	32.66
432.867	-27.59
433.078	12.71
433.29	73.35
433.502	40.41
433.713	56.49
433.925	-4.92
434.136	32.66
434.348	5.93
434.56	-35.73
434.771	94.66
434.983	-15.77
435.194	-3.37
435.406	25.69
435.617	42.74
435.829	71.22
436.04	31.89
436.252	49.13
436.463	69.86
436.675	35.76
436.886	30.34
437.098	43.51
437.309	59.4
437.521	-12.09
437.732	36.15
437.943	36.92
438.155	16.97
438.366	-23.14
438.578	43.12
438.789	4.76
439	61.53
439.211	31.69
439.423	52.81
439.634	37.7
439.845	54.17
440.057	41.96
440.268	64.44
440.479	-8.61
440.69	15.23
440.902	13.09
441.113	17.74
441.324	29.18
441.535	37.51
441.746	76.45
441.957	-9.57
442.168	5.73
442.38	62.89
442.591	63.27
442.802	-9.96
443.013	34.99
443.224	36.92
443.435	-2.02
443.646	8.44
443.857	26.27
444.068	17.16
444.279	0.31
444.49	96.6
444.701	16.39
444.912	107.06
445.123	34.21
445.334	67.15
445.545	21.23
445.756	26.85
445.967	-1.82
446.178	65.6
446.388	66.96
446.599	46.22
446.81	61.72
447.021	7.86
447.232	76.06
447.443	92.53
447.653	3.6
447.864	66.37
448.075	40.99
448.286	46.81
448.496	45.64
448.707	53.39
448.918	10.19
449.129	141.35
449.339	21.43
449.55	45.64
449.761	34.99
449.971	103.19
450.182	20.46
450.393	66.76
450.603	42.35
450.814	44.87
451.024	39.44
451.235	61.34
451.446	95.44
451.656	77.42
451.867	19.49
452.077	37.51
452.288	104.74
452.498	98.92
452.709	28.4
452.919	53.39
453.13	25.11
453.34	86.91
453.55	3.41
453.761	86.91
453.971	70.83
454.182	75.09
454.392	75.48
454.602	95.05
454.813	60.95
455.023	89.24
455.233	21.81
455.444	48.55
455.654	8.44
455.864	55.91
456.075	52.62
456.285	33.44
456.495	30.73
456.705	56.49
456.916	92.53
457.126	119.85
457.336	50.68
457.546	-8.99
457.756	33.24
457.967	64.05
458.177	46.22
458.387	74.32
458.597	57.27
458.807	46.61
459.017	29.37
459.227	49.52
459.437	53.01
459.647	73.54
459.857	72.19
460.068	33.44
460.278	91.37
460.488	81.87
460.698	110.36
460.908	49.52
461.117	3.21
461.327	31.89
461.537	42.54
461.747	58.24
461.957	53.59
462.167	138.45
462.377	99.12
462.587	59.21
462.797	44.09
463.007	67.54
463.216	75.48
463.426	69.09
463.636	104.35
463.846	20.65
464.056	49.52
464.265	110.16
464.475	25.88
464.685	61.92
464.895	82.65
465.104	70.25
465.314	65.41
465.524	31.11
465.733	34.6
465.943	123.14
466.153	109.39
466.362	113.26
466.572	87.3
466.782	45.64
466.991	78.19
467.201	121.59
467.41	11.93
467.62	70.83
467.829	53.97
468.039	82.07
468.249	62.11
468.458	73.16
468.668	92.92
468.877	70.25
469.086	102.99
469.296	85.75
469.505	16.39
469.715	128.95
469.924	94.27
470.134	117.52
470.343	123.34
470.552	59.01
470.762	62.89
470.971	33.05
471.18	55.72
471.39	50.68
471.599	36.73
471.808	96.41
472.018	30.73
472.227	95.05
472.436	109.58
472.645	58.62
472.855	23.94
473.064	92.14
473.273	86.91
473.482	96.99
473.691	106.29
473.901	117.72
474.11	54.36
474.319	170.22
474.528	75.67
474.737	91.56
474.946	73.93
475.155	90.79
475.364	111.32
475.573	99.7
475.783	77.81
475.992	75.48
476.201	126.24
476.41	57.85
476.619	65.02
476.828	96.41
477.037	67.54
477.245	74.51
477.454	121.98
477.663	76.06
477.872	65.6
478.081	138.64
478.29	36.73
478.499	132.44
478.708	88.46
478.917	122.95
479.125	74.32
479.334	109.77
479.543	68.51
479.752	85.75
479.961	61.34
480.169	121.59
480.378	49.91
480.587	178.17
480.796	99.89
481.004	100.67
481.213	108.61
481.422	91.56
481.63	69.86
481.839	98.73
482.048	132.25
482.256	87.3
482.465	100.09
482.674	116.75
482.882	117.72
483.091	175.45
483.299	133.22
483.508	123.92
483.716	96.99
483.925	104.35
484.134	85.17
484.342	75.87
484.551	115.2
484.759	157.05
484.967	121.98
485.176	132.44
485.384	103.57
485.593	132.25
485.801	136.7
486.01	142.9
486.218	144.45
486.426	79.74
486.635	95.82
486.843	122.56
487.051	139.42
487.26	98.54
487.468	127.79
487.676	104.16
487.885	80.91
488.093	117.91
488.301	102.61
488.509	95.63
488.717	135.74
488.926	106.48
489.134	88.85
489.342	124.3
489.55	96.6
489.758	117.72
489.967	96.21
490.175	202.58
490.383	98.54
490.591	130.5
490.799	40.61
491.007	165.57
491.215	128.18
491.423	125.08
491.631	119.07
491.839	113.26
492.047	149.88
492.255	108.22
492.463	75.09
492.671	125.47
492.879	148.52
493.087	115.59
493.295	134.19
493.503	129.92
493.711	147.94
493.919	168.87
494.127	140.58
494.334	186.69
494.542	115.01
494.75	128.95
494.958	129.73
495.166	181.27
495.374	139.22
495.581	117.91
495.789	131.86
495.997	205.1
496.205	146.2
496.412	134.38
496.62	115.59
496.828	131.86
497.035	127.4
497.243	162.47
497.451	136.9
497.658	131.67
497.866	161.12
498.074	179.14
498.281	109.97
498.489	216.14
498.696	140.58
498.904	124.11
499.112	133.8
499.319	212.07
499.527	132.25
499.734	183.79
499.942	127.4
500.149	118.88
500.357	164.99
500.564	80.32
500.771	149.69
500.979	127.4
501.186	170.61
501.394	176.42
501.601	170.61
501.808	189.99
502.016	150.46
502.223	167.9
502.43	140.58
502.638	152.79
502.845	110.55
503.052	197.35
503.26	140.19
503.467	202.97
503.674	148.33
503.881	180.1
504.089	218.27
504.296	190.76
504.503	144.07
504.71	169.25
504.917	119.66
505.125	180.1
505.332	148.72
505.539	180.69
505.746	222.53
505.953	182.62
506.16	176.62
506.367	219.43
506.574	198.9
506.781	213.23
506.988	151.43
507.195	169.84
507.402	164.41
507.609	190.95
507.816	156.47
508.023	154.92
508.23	147.94
508.437	147.75
508.644	186.3
508.851	234.74
509.058	189.21
509.265	172.74
509.472	195.22
509.679	269.03
509.885	155.89
510.092	170.8
510.299	166.54
510.506	214.2
510.713	181.27
510.92	188.05
511.126	206.65
511.333	244.04
511.54	208.78
511.746	252.37
511.953	229.51
512.16	208.2
512.367	144.45
512.573	192.89
512.78	203.94
512.987	187.47
513.193	179.14
513.4	144.65
513.606	172.55
513.813	218.66
514.02	196.57
514.226	273.3
514.433	242.1
514.639	156.66
514.846	233.19
515.052	174.68
515.259	185.72
515.465	214.98
515.672	190.18
515.878	282.21
516.085	187.85
516.291	218.66
516.497	154.53
516.704	218.08
516.91	190.95
517.117	173.52
517.323	142.71
517.529	215.17
517.736	209.94
517.942	215.95
518.148	172.35
518.354	208.59
518.561	184.17
518.767	224.47
518.973	246.37
519.179	238.81
519.386	209.17
519.592	172.94
519.798	185.34
520.004	238.81
520.21	189.21
520.417	234.16
520.623	222.92
520.829	268.45
521.035	229.7
521.241	211.3
521.447	256.44
521.653	323.28
521.859	212.65
522.065	249.47
522.271	288.8
522.477	256.63
522.683	277.37
522.889	256.83
523.095	265.93
523.301	233.19
523.507	259.93
523.713	246.56
523.919	211.1
524.125	273.1
524.331	222.53
524.537	286.28
524.742	276.78
524.948	277.95
525.154	264.77
525.36	356.03
525.566	270.78
525.772	327.16
525.977	260.9
526.183	300.23
526.389	313.01
526.595	245.4
526.8	256.25
527.006	250.24
527.212	251.21
527.417	240.94
527.623	239.97
527.829	291.51
528.034	255.47
528.24	284.15
528.446	225.63
528.651	288.02
528.857	296.16
529.062	334.91
529.268	257.6
529.473	296.16
529.679	259.54
529.884	317.66
530.09	328.9
530.295	353.12
530.501	328.9
530.706	285.31
530.912	259.93
531.117	292.28
531.323	290.15
531.528	286.08
531.733	294.61
531.939	285.89
532.144	287.44
532.35	289.57
532.555	366.88
532.76	346.53
532.966	341.11
533.171	327.55
533.376	291.12
533.581	288.8
533.787	316.5
533.992	310.11
534.197	368.04
534.402	282.98
534.607	329.68
534.813	389.74
535.018	286.47
535.223	294.42
535.428	296.35
535.633	365.71
535.838	308.36
536.043	315.34
536.249	387.61
536.454	288.41
536.659	333.16
536.864	287.63
537.069	305.07
537.274	339.36
537.479	322.51
537.684	332
537.889	272.91
538.094	400.78
538.299	336.65
538.504	342.27
538.708	326.19
538.913	354.09
539.118	334.71
539.323	336.46
539.528	293.06
539.733	341.5
539.938	337.23
540.142	364.55
540.347	343.43
540.552	319.8
540.757	348.28
540.962	331.23
541.166	276.78
541.371	301.2
541.576	323.67
541.781	243.85
541.985	327.55
542.19	351.38
542.395	362.23
542.599	387.99
542.804	369.01
543.008	418.22
543.213	332
543.418	326.38
543.622	347.11
543.827	301
544.031	385.86
544.236	391.29
544.44	324.06
544.645	424.61
544.849	339.56
545.054	371.33
545.258	433.72
545.463	383.15
545.667	319.8
545.872	351.76
546.076	370.36
546.281	352.73
546.485	336.07
546.689	382.76
546.894	390.9
547.098	346.15
547.302	344.79
547.507	353.31
547.711	357.58
547.915	420.54
548.119	332.39
548.324	355.45
548.528	408.34
548.732	358.93
548.936	400.59
549.141	380.25
549.345	353.31
549.549	352.35
549.753	344.4
549.957	439.34
550.161	403.88
550.366	349.05
550.57	307.4
550.774	341.5
550.978	365.33
551.182	365.13
551.386	358.74
551.59	313.6
551.794	349.25
551.998	376.37
552.202	328.51
552.406	330.06
552.61	362.81
552.814	402.91
553.018	440.11
553.222	380.83
553.426	369.2
553.63	438.18
553.833	375.01
554.037	333.94
554.241	397.1
554.445	384.51
554.649	350.41
554.853	343.05
555.056	398.65
555.26	405.82
555.464	382.18
555.668	401.17
555.871	410.28
556.075	392.45
556.279	343.82
556.483	339.75
556.686	348.28
556.89	368.81
557.094	403.88
557.297	350.8
557.501	402.33
557.704	324.25
557.908	391.87
558.112	351.18
558.315	433.72
558.519	383.35
558.722	387.22
558.926	383.15
559.129	340.53
559.333	300.61
559.536	342.08
559.74	335.68
559.943	324.83
560.147	310.3
560.35	365.33
560.553	310.3
560.757	307.78
560.96	429.07
561.164	336.46
561.367	407.18
561.57	349.05
561.774	350.21
561.977	337.04
562.18	322.7
562.384	415.89
562.587	365.52
562.79	340.53
562.993	346.53
563.197	383.35
563.4	394
563.603	410.28
563.806	431.98
564.009	344.98
564.212	363.39
564.416	314.56
564.619	372.11
564.822	319.21
565.025	391.29
565.228	340.91
565.431	326.96
565.634	271.17
565.837	342.46
566.04	329.68
566.243	338.2
566.446	277.95
566.649	372.5
566.852	319.21
567.055	323.86
567.258	394.19
567.461	430.23
567.664	368.62
567.867	286.47
568.07	341.3
568.273	345.18
568.475	387.8
568.678	320.57
568.881	324.45
569.084	362.03
569.287	292.67
569.489	300.42
569.692	380.05
569.895	358.55
570.098	299.26
570.3	305.46
570.503	227.18
570.706	287.63
570.909	279.69
571.111	280.47
571.314	280.27
571.516	281.24
571.719	315.92
571.922	307.98
572.124	292.87
572.327	306.62
572.529	256.44
572.732	257.99
572.935	308.75
573.137	357.19
573.34	289.77
573.542	306.43
573.745	332.97
573.947	286.47
574.15	294.03
574.352	274.46
574.554	332.97
574.757	259.54
574.959	255.47
575.162	276.4
575.364	292.48
575.566	363
575.769	267.48
575.971	297.71
576.173	205.68
576.376	261.09
576.578	345.76
576.78	372.5
576.982	199.67
577.185	282.21
577.387	213.43
577.589	224.86
577.791	301.97
577.993	334.13
578.196	268.07
578.398	315.34
578.6	342.66
578.802	248.88
579.004	258.57
579.206	279.11
579.408	276.01
579.61	226.02
579.812	306.23
580.014	280.85
580.216	289.57
580.418	261.87
580.62	229.9
580.822	226.99
581.024	259.73
581.226	322.31
581.428	220.4
581.63	339.17
581.832	242.1
582.034	292.67
582.236	235.71
582.438	299.45
582.64	299.84
582.841	314.18
583.043	353.51
583.245	280.08
583.447	315.34
583.649	270.97
583.85	290.35
584.052	310.88
584.254	243.07
584.456	319.99
584.657	236.87
584.859	271.17
585.061	276.2
585.262	249.47
585.464	228.15
585.666	311.46
585.867	265.55
586.069	321.35
586.27	304.3
586.472	274.65
586.674	271.75
586.875	237.26
587.077	273.1
587.278	275.82
587.48	248.3
587.681	370.95
587.883	273.3
588.084	202
588.285	235.9
588.487	285.89
588.688	282.6
588.89	263.03
589.091	231.45
589.292	276.2
589.494	273.3
589.695	266.52
589.896	188.05
590.098	189.99
590.299	282.79
590.5	210.33
590.702	220.02
590.903	263.8
591.104	290.73
591.305	246.17
591.507	325.22
591.708	264.58
591.909	214.98
592.11	336.26
592.311	272.33
592.512	257.6
592.714	177.78
592.915	201.03
593.116	229.9
593.317	254.31
593.518	210.72
593.719	251.4
593.92	271.55
594.121	285.12
594.322	274.65
594.523	256.63
594.724	211.3
594.925	275.43
595.126	273.88
595.327	289.57
595.528	270
595.729	299.45
595.929	224.67
596.13	249.85
596.331	240.94
596.532	240.55
596.733	289.96
596.934	260.9
597.135	274.46
597.335	290.73
597.536	201.42
597.737	260.32
597.938	205.87
598.138	271.94
598.339	247.14
598.54	269.42
598.74	252.76
598.941	269.62
599.142	297.9
599.342	274.07
599.543	235.52
599.744	215.56
599.944	239.58
600.145	225.25
600.345	264.97
600.546	329.48
600.746	306.23
600.947	351.57
601.147	270.78
601.348	293.64
601.548	252.18
601.749	264.38
601.949	206.84
602.15	219.63
602.35	278.72
602.551	302.36
602.751	226.8
602.951	236.87
603.152	202.97
603.352	266.32
603.552	259.54
603.753	253.53
603.953	282.6
604.153	259.93
604.354	234.16
604.554	270
604.754	236.68
604.954	202
605.155	269.42
605.355	249.47
605.555	298.68
605.755	284.73
605.955	256.05
606.155	300.23
606.356	283.37
606.556	270.2
606.756	269.42
606.956	220.02
607.156	314.18
607.356	217.11
607.556	252.18
607.756	268.26
607.956	284.73
608.156	263.42
608.356	231.06
608.556	308.95
608.756	263.22
608.956	233.58
609.156	251.98
609.356	224.86
609.556	236.29
609.755	255.47
609.955	185.14
610.155	276.59
610.355	279.11
610.555	236.48
610.755	259.15
610.954	204.13
611.154	234.74
611.354	295.97
611.554	226.22
611.753	232.61
611.953	207.04
612.153	288.6
612.352	254.12
612.552	190.76
612.752	169.06
612.951	243.27
613.151	233.97
613.351	185.14
613.55	208.97
613.75	268.65
613.949	257.8
614.149	234.93
614.348	243.27
614.548	227.57
614.747	202.77
614.947	225.05
615.146	178.36
615.346	272.33
615.545	231.64
615.745	235.32
615.944	267.48
616.144	245.59
616.343	255.28
616.542	231.83
616.742	244.82
616.941	227.18
617.14	185.14
617.34	228.73
617.539	254.12
617.738	241.72
617.938	295.19
618.137	230.09
618.336	191.34
618.535	225.63
618.734	230.09
618.934	245.78
619.133	237.65
619.332	240.36
619.531	235.71
619.73	213.82
619.929	258.96
620.128	263.22
620.328	292.87
620.527	207.42
620.726	223.89
620.925	240.75
621.124	201.22
621.323	248.69
621.522	189.02
621.721	180.1
621.92	173.9
622.119	265.16
622.318	202.58
622.517	200.84
622.715	227.18
622.914	152.98
623.113	213.62
623.312	180.1
623.511	222.92
623.71	197.15
623.909	176.81
624.107	269.23
624.306	158.21
624.505	203.16
624.704	179.52
624.902	222.92
625.101	267.29
625.3	231.64
625.499	191.15
625.697	181.07
625.896	194.83
626.095	222.34
626.293	180.69
626.492	185.14
626.69	236.87
626.889	171.97
627.088	201.61
627.286	203.55
627.485	193.47
627.683	193.28
627.882	233.58
628.08	144.07
628.279	189.79
628.477	259.15
628.676	180.88
628.874	209.36
629.073	196.38
629.271	202.77
629.469	214.2
629.668	187.08
629.866	197.74
630.065	201.8
630.263	234.55
630.461	174.68
630.66	190.37
630.858	212.46
631.056	221.95
631.254	229.7
631.453	199.87
631.651	251.6
631.849	209.17
632.047	206.45
632.245	207.23
632.444	222.34
632.642	216.72
632.84	238.81
633.038	184.95
633.236	159.95
633.434	176.81
633.632	163.05
633.83	180.88
634.028	191.92
634.227	199.29
634.425	227.57
634.623	190.18
634.821	212.27
635.019	170.8
635.216	169.84
635.414	210.91
635.612	202.97
635.81	152.98
636.008	246.37
636.206	184.17
636.404	211.3
636.602	168.48
636.8	207.42
636.997	198.7
637.195	235.13
637.393	221.95
637.591	240.17
637.789	227.18
637.986	146.39
638.184	201.61
638.382	220.21
638.58	203.35
638.777	273.49
638.975	198.32
639.173	192.89
639.37	221.95
639.568	199.87
639.765	251.02
639.963	184.95
640.161	256.05
640.358	246.37
640.556	180.88
640.753	148.72
640.951	143.87
641.148	200.06
641.346	166.54
641.543	201.22
641.741	209.17
641.938	188.05
642.136	185.92
642.333	176.42
642.531	254.12
642.728	263.22
642.925	166.35
643.123	202.58
643.32	221.95
643.517	196.19
643.715	206.26
643.912	193.86
644.109	207.81
644.306	201.42
644.504	163.64
644.701	184.95
644.898	237.07
645.095	162.09
645.293	207.62
645.49	233.58
645.687	213.62
645.884	237.26
646.081	154.14
646.278	183.2
646.475	169.25
646.672	175.07
646.87	219.63
647.067	214.59
647.264	189.21
647.461	134.19
647.658	138.25
647.855	195.02
648.052	197.93
648.249	102.61
648.446	196.96
648.642	145.23
648.839	151.62
649.036	153.56
649.233	117.14
649.43	136.51
649.627	153.75
649.824	155.5
650.021	153.95
650.217	150.65
650.414	137.29
650.611	188.24
650.808	138.64
651.004	172.94
651.201	170.22
651.398	218.27
651.595	199.87
651.791	144.84
651.988	202.77
652.185	142.32
652.381	171.58
652.578	135.35
652.775	162.09
652.971	138.45
653.168	151.04
653.364	179.14
653.561	109.58
653.757	143.49
653.954	151.43
654.15	136.51
654.347	210.52
654.543	214.78
654.74	107.45
654.936	113.84
655.133	153.95
655.329	150.46
655.525	178.94
655.722	183.2
655.918	125.85
656.115	193.67
656.311	138.84
656.507	124.69
656.704	105.12
656.9	140.39
657.096	129.54
657.292	101.44
657.489	185.14
657.685	171.39
657.881	143.29
658.077	158.79
658.273	123.14
658.47	220.02
658.666	161.31
658.862	188.24
659.058	100.86
659.254	201.03
659.45	138.84
659.646	171
659.842	158.99
660.038	183.98
660.234	121.98
660.43	135.35
660.626	201.42
660.822	188.82
661.018	201.42
661.214	167.12
661.41	103.38
661.606	168.48
661.802	189.02
661.998	151.24
662.194	136.51
662.39	173.32
662.586	180.49
662.781	180.3
662.977	164.99
663.173	181.07
663.369	146.39
663.564	146.39
663.76	190.95
663.956	172.16
664.152	213.82
664.347	97.96
664.543	168.09
664.739	164.02
664.934	120.24
665.13	102.22
665.326	152.59
665.521	152.98
665.717	128.18
665.912	114.81
666.108	80.91
666.304	138.25
666.499	162.67
666.695	77.03
666.89	142.9
667.086	177.2
667.281	183.2
667.477	190.18
667.672	169.25
667.867	146.2
668.063	147.17
668.258	125.85
668.454	140.77
668.649	217.5
668.844	158.02
669.04	186.3
669.235	151.04
669.43	98.54
669.626	108.81
669.821	120.82
670.016	118.3
670.211	133.99
670.407	121.79
670.602	141.55
670.797	135.93
670.992	171.39
671.187	113.26
671.382	185.14
671.578	154.34
671.773	146.59
671.968	133.22
672.163	156.08
672.358	209.36
672.553	141.94
672.748	128.37
672.943	203.35
673.138	114.81
673.333	178.55
673.528	125.08
673.723	139.03
673.918	149.69
674.113	105.12
674.308	189.21
674.503	162.09
674.698	159.18
674.892	162.86
675.087	196.19
675.282	187.27
675.477	113.26
675.672	161.31
675.867	132.25
676.061	125.66
676.256	115.97
676.451	130.89
676.646	140.77
676.84	125.85
677.035	115.01
677.23	78.58
677.424	163.64
677.619	171.19
677.814	176.04
678.008	179.72
678.203	102.61
678.397	115.01
678.592	152.98
678.787	181.85
678.981	112.29
679.176	144.26
679.37	131.47
679.565	104.16
679.759	107.84
679.954	152.4
680.148	202.77
680.342	201.61
680.537	171.77
680.731	127.02
680.926	138.06
681.12	162.67
681.314	78.39
681.509	120.82
681.703	153.75
681.897	148.14
682.092	129.34
682.286	100.28
682.48	201.61
682.674	183.98
682.869	131.47
683.063	135.15
683.257	194.64
683.451	104.93
683.645	146.2
683.839	149.69
684.034	121.79
684.228	195.8
684.422	104.54
684.616	100.09
684.81	167.51
685.004	124.3
685.198	127.99
685.392	159.57
685.586	117.72
685.78	140.58
685.974	166.35
686.168	165.96
686.362	193.86
686.556	128.76
686.75	82.65
686.944	119.46
687.138	170.42
687.331	82.84
687.525	151.43
687.719	84.78
687.913	154.14
688.107	118.69
688.301	94.86
688.494	141.55
688.688	90.59
688.882	79.16
689.076	93.5
689.269	118.69
689.463	195.02
689.657	94.86
689.85	112.1
690.044	107.26
690.238	121.59
690.431	120.82
690.625	95.63
690.818	118.3
691.012	136.9
691.205	158.99
691.399	73.93
691.593	126.63
691.786	189.79
691.98	151.24
692.173	177.97
692.366	145.23
692.56	129.92
692.753	190.95
692.947	118.11
693.14	192.5
693.333	173.32
693.527	102.22
693.72	155.89
693.914	144.84
694.107	153.56
694.3	178.55
694.493	141.55
694.687	189.79
694.88	121.79
695.073	208.39
695.266	176.62
695.46	132.05
695.653	204.13
695.846	195.6
696.039	98.73
696.232	133.6
696.425	171.19
696.618	185.34
696.812	145.04
697.005	216.14
697.198	236.87
697.391	199.09
697.584	180.49
697.777	251.21
697.97	188.24
698.163	236.29
698.356	196.77
698.549	275.04
698.742	234.35
698.935	194.05
699.127	254.89
699.32	194.83
699.513	200.84
699.706	235.13
699.899	246.95
700.092	212.85
700.285	226.41
700.477	160.92
700.67	255.08
700.863	249.85
701.056	313.79
701.248	285.7
701.441	275.62
701.634	216.53
701.826	336.46
702.019	251.98
702.212	304.3
702.404	253.92
702.597	220.02
702.79	255.86
702.982	284.15
703.175	296.55
703.367	264
703.56	298.87
703.752	378.89
703.945	312.05
704.137	323.48
704.33	328.71
704.522	335.49
704.715	328.71
704.907	331.42
705.1	327.74
705.292	363.78
705.484	327.55
705.677	359.9
705.869	349.25
706.061	365.91
706.254	406.21
706.446	371.14
706.638	365.52
706.831	406.01
707.023	351.18
707.215	435.66
707.407	409.5
707.599	406.21
707.792	432.94
707.984	415.7
708.176	448.06
708.368	397.1
708.56	443.21
708.752	402.91
708.944	406.79
709.136	463.17
709.329	435.66
709.521	522.65
709.713	486.42
709.905	453.48
710.097	497.07
710.289	440.31
710.481	468.4
710.672	523.42
710.864	471.69
711.056	553.65
711.248	516.45
711.44	514.71
711.632	498.04
711.824	506.96
712.016	570.89
712.207	539.51
712.399	549.19
712.591	611.77
712.783	572.05
712.975	594.72
713.166	533.31
713.358	545.9
713.55	638.51
713.741	607.32
713.933	601.89
714.125	604.22
714.316	572.05
714.508	651.1
714.7	637.74
714.891	641.03
715.083	696.83
715.274	625.53
715.466	629.4
715.657	692.18
715.849	582.71
716.04	669.9
716.232	594.53
716.423	691.4
716.615	608.87
716.806	619.14
716.998	632.12
717.189	579.61
717.381	548.61
717.572	555.97
717.763	591.43
717.955	578.25
718.146	582.71
718.337	557.52
718.528	532.14
718.72	469.37
718.911	569.92
719.102	519.74
719.293	570.5
719.485	562.17
719.676	581.35
719.867	528.27
720.058	516.45
720.249	549.77
720.44	554.23
720.632	599.76
720.823	607.51
721.014	644.32
721.205	640.64
721.396	661.76
721.587	727.83
721.778	706.71
721.969	676.87
722.16	769.87
722.351	708.45
722.542	831.48
722.733	820.05
722.924	740.42
723.115	822.38
723.305	809.59
723.496	827.8
723.687	744.88
723.878	768.9
724.069	770.84
724.26	794.09
724.45	750.88
724.641	721.63
724.832	766.58
725.023	776.26
725.213	733.45
725.404	735.38
725.595	778.59
725.785	732.67
725.976	797.77
726.167	823.15
726.357	793.9
726.548	835.74
726.739	796.03
726.929	830.71
727.12	835.74
727.31	904.33
727.501	843.69
727.691	883.41
727.882	883.6
728.072	873.91
728.263	870.43
728.453	902.2
728.644	872.56
728.834	891.35
729.024	875.85
729.215	850.86
729.405	876.82
729.596	969.04
729.786	945.6
729.976	936.69
730.167	987.45
730.357	930.49
730.547	922.74
730.737	963.04
730.928	994.04
731.118	1029.69
731.308	973.5
731.498	976.41
731.688	1033.75
731.879	1008.37
732.069	1070.57
732.259	1063.79
732.449	1081.03
732.639	1148.26
732.829	1114.74
733.019	1117.26
733.209	1185.85
733.399	1207.16
733.589	1212.39
733.779	1201.54
733.969	1196.11
734.159	1220.14
734.349	1293.38
734.539	1267.99
734.729	1280.78
734.919	1314.11
735.109	1335.03
735.299	1334.64
735.488	1326.51
735.678	1337.55
735.868	1322.44
736.058	1348.98
736.248	1303.64
736.437	1272.84
736.627	1247.26
736.817	1394.51
737.007	1332.51
737.196	1394.9
737.386	1327.67
737.576	1335.61
737.765	1379.4
737.955	1344.14
738.144	1456.12
738.334	1384.63
738.524	1352.08
738.713	1376.69
738.903	1410.79
739.092	1437.14
739.282	1421.83
739.471	1439.65
739.661	1427.26
739.85	1454.96
740.04	1451.86
740.229	1469.49
740.419	1494.49
740.608	1507.85
740.797	1503.01
740.987	1527.81
741.176	1518.32
741.365	1454.77
741.555	1482.47
741.744	1536.92
741.933	1491.97
742.123	1547.18
742.312	1562.1
742.501	1516.96
742.69	1537.11
742.88	1507.47
743.069	1618.48
743.258	1517.35
743.447	1611.12
743.636	1590.58
743.825	1572.37
744.014	1557.26
744.204	1621.97
744.393	1565.59
744.582	1583.42
744.771	1613.83
744.96	1598.33
745.149	1602.4
745.338	1548.93
745.527	1612.67
745.716	1608.22
745.905	1595.82
746.094	1590
746.283	1618.68
746.471	1664.4
746.66	1685.52
746.849	1620.23
747.038	1684.55
747.227	1661.3
747.416	1639.21
747.604	1606.47
747.793	1646.96
747.982	1645.03
748.171	1625.26
748.359	1689.59
748.548	1630.88
748.737	1647.55
748.926	1638.44
749.114	1606.08
749.303	1655.88
749.491	1654.13
749.68	1600.85
749.869	1682.23
750.057	1610.93
750.246	1597.95
750.434	1629.14
750.623	1660.14
750.811	1668.08
751	1673.31
751.188	1598.53
751.377	1658.4
751.565	1607.44
751.754	1616.55
751.942	1604.73
752.131	1633.4
752.319	1608.8
752.507	1564.82
752.696	1663.43
752.884	1681.26
753.072	1652
753.261	1633.4
753.449	1579.73
753.637	1604.92
753.825	1702.57
754.014	1623.33
754.202	1637.47
754.39	1671.96
754.578	1657.43
754.766	1636.5
754.955	1631.46
755.143	1736.48
755.331	1606.28
755.519	1625.65
755.707	1625.65
755.895	1618.1
756.083	1654.13
756.271	1590.78
756.459	1617.51
756.647	1665.18
756.835	1634.76
757.023	1580.32
757.211	1596.98
757.399	1605.7
757.587	1558.62
757.775	1537.11
757.963	1596.78
758.151	1599.88
758.339	1558.23
758.526	1546.99
758.714	1631.85
758.902	1575.47
759.09	1531.68
759.278	1376.88
759.465	1307.91
759.653	1071.54
759.841	1044.41
760.028	867.91
760.216	746.23
760.404	781.3
760.591	581.94
760.779	494.75
760.967	462.2
761.154	337.23
761.342	384.12
761.529	378.31
761.717	409.31
761.905	378.89
762.092	440.69
762.28	409.5
762.467	412.6
762.655	349.83
762.842	392.45
763.029	398.65
763.217	394
763.404	414.34
763.592	418.8
763.779	359.13
763.966	393.42
764.154	414.15
764.341	468.79
764.528	449.61
764.716	489.52
764.903	548.03
765.09	564.5
765.277	547.84
765.465	686.17
765.652	645.49
765.839	730.15
766.026	794.67
766.213	801.84
766.4	829.93
766.588	978.15
766.775	952.38
766.962	989.77
767.149	996.75
767.336	1133.15
767.523	1056.23
767.71	1115.32
767.897	1204.83
768.084	1258.7
768.271	1239.32
768.458	1306.36
768.645	1329.99
768.832	1275.16
769.019	1301.9
769.206	1311.59
769.392	1392.57
769.579	1472.01
769.766	1390.44
769.953	1374.75
770.14	1459.42
770.327	1406.91
770.513	1442.95
770.7	1497.97
770.887	1436.75
771.073	1463.87
771.26	1429.19
771.447	1427.45
771.634	1445.66
771.82	1528
772.007	1440.04
772.193	1454.57
772.38	1501.27
772.567	1453.99
772.753	1454.77
772.94	1514.64
773.126	1506.89
773.313	1512.31
773.499	1495.45
773.686	1470.65
773.872	1450.7
774.059	1487.7
774.245	1398.39
774.432	1437.91
774.618	1404.78
774.804	1444.5
774.991	1408.27
775.177	1476.08
775.363	1468.14
775.55	1475.69
775.736	1412.53
775.922	1414.08
776.109	1442.17
776.295	1449.73
776.481	1481.12
776.667	1487.32
776.853	1438.69
777.04	1409.24
777.226	1416.21
777.412	1499.14
777.598	1392.57
777.784	1406.14
777.97	1436.55
778.156	1424.16
778.342	1392.19
778.528	1414.47
778.715	1372.62
778.901	1390.06
779.087	1444.89
779.272	1400.52
779.458	1375.72
779.644	1414.47
779.83	1336.97
780.016	1491.39
780.202	1403.04
780.388	1361.38
780.574	1321.47
780.76	1369.32
780.946	1412.72
781.131	1385.21
781.317	1380.56
781.503	1311.39
781.689	1342.78
781.874	1459.8
782.06	1342.2
782.246	1361.57
782.432	1339.68
782.617	1378.82
782.803	1434.23
782.989	1297.64
783.174	1344.53
783.36	1301.71
783.545	1339.68
783.731	1345.69
783.916	1271.48
784.102	1354.21
784.288	1283.3
784.473	1339.29
784.659	1317.4
784.844	1357.51
785.029	1292.6
785.215	1288.34
785.4	1240.1
785.586	1373.59
785.771	1253.08
785.956	1313.91
786.142	1308.1
786.327	1267.41
786.512	1290.47
786.698	1279.43
786.883	1234.48
787.068	1255.01
787.254	1304.23
787.439	1249.78
787.624	1272.06
787.809	1241.65
787.994	1265.28
788.18	1311.98
788.365	1198.25
788.55	1235.06
788.735	1260.24
788.92	1263.93
789.105	1272.84
789.29	1282.33
789.475	1211.42
789.66	1233.9
789.845	1212.97
790.03	1210.84
790.215	1273.81
790.4	1288.53
790.585	1301.13
790.77	1225.76
790.955	1129.27
791.14	1195.34
791.325	1280.78
791.51	1125.2
791.695	1216.07
791.879	1196.5
792.064	1134.7
792.249	1263.34
792.434	1175.77
792.618	1177.32
792.803	1212
792.988	1160.47
793.173	1189.14
793.357	1224.98
793.542	1143.42
793.727	1198.44
793.911	1244.36
794.096	1171.32
794.281	1235.06
794.465	1260.24
794.65	1186.23
794.834	1199.02
795.019	1263.73
795.203	1250.56
795.388	1221.5
795.572	1253.46
795.757	1184.49
795.941	1243.78
796.126	1246.1
796.31	1168.02
796.494	1196.11
796.679	1169.18
796.863	1172.86
797.048	1229.44
797.232	1246.88
797.416	1203.09
797.601	1187.4
797.785	1260.63
797.969	1242.42
798.153	1176.93
798.338	1234.48
798.522	1244.75
798.706	1207.35
798.89	1257.15
799.074	1305.58
799.258	1286.59
799.443	1206.77
799.627	1244.94
799.811	1278.65
799.995	1199.21
800.179	1228.08
800.363	1213.94
800.547	1252.5
800.731	1253.08
800.915	1209.68
801.099	1215.68
801.283	1171.32
801.467	1195.53
801.651	1182.16
801.835	1240.29
802.019	1218.98
802.202	1245.52
802.386	1195.34
802.57	1189.33
802.754	1212.78
802.938	1196.89
803.121	1198.25
803.305	1254.24
803.489	1216.46
803.673	1220.14
803.856	1245.33
804.04	1232.15
804.224	1234.09
804.407	1223.82
804.591	1234.09
804.775	1212.39
804.958	1249.01
805.142	1299.77
805.326	1235.83
805.509	1186.04
805.693	1268.19
805.876	1254.05
806.06	1225.18
806.243	1244.94
806.427	1282.33
806.61	1260.05
806.794	1212.39
806.977	1255.98
807.16	1254.43
807.344	1216.46
807.527	1253.46
807.71	1189.91
807.894	1232.73
808.077	1260.44
808.26	1208.32
808.444	1243.78
808.627	1274.19
808.81	1202.12
808.993	1202.9
809.177	1157.37
809.36	1180.23
809.543	1243.78
809.726	1167.44
809.909	1150.58
810.092	1113
810.276	1165.31
810.459	1166.47
810.642	1122.3
810.825	1121.13
811.008	1141.67
811.191	1064.75
811.374	1066.69
811.557	1114.74
811.74	1170.15
811.923	1077.35
812.106	1073.09
812.289	1032.2
812.472	1082.19
812.654	1088.78
812.837	1040.92
813.02	1033.37
813.203	1028.72
813.386	949.67
813.569	986.87
813.751	944.82
813.934	970.21
814.117	945.02
814.3	901.62
814.482	892.51
814.665	902.59
814.848	883.99
815.03	835.16
815.213	861.71
815.396	834.19
815.578	817.53
815.761	795.25
815.943	882.63
816.126	795.83
816.309	780.53
816.491	726.47
816.674	718.72
816.856	766.38
817.039	744.1
817.221	812.69
817.403	749.72
817.586	747.2
817.768	775.68
817.951	713.88
818.133	732.09
818.315	708.26
818.498	779.95
818.68	829.54
818.862	775.3
819.045	811.14
819.227	833.42
819.409	752.43
819.591	800.48
819.774	795.45
819.956	731.7
820.138	821.21
820.32	799.13
820.502	791.38
820.684	855.7
820.866	855.12
821.048	905.88
821.231	870.23
821.413	879.34
821.595	866.94
821.777	843.88
821.959	861.71
822.141	928.55
822.323	811.53
822.505	777.62
822.686	783.82
822.868	752.63
823.05	691.21
823.232	684.82
823.414	656.53
823.596	707.1
823.778	720.85
823.96	669.9
824.141	694.7
824.323	681.91
824.505	725.12
824.687	771.23
824.868	769.87
825.05	855.51
825.232	825.67
825.413	904.33
825.595	871.01
825.777	802.23
825.958	889.22
826.14	828.58
826.321	857.83
826.503	828.96
826.685	864.03
826.866	877.4
827.048	885.54
827.229	838.07
827.411	825.48
827.592	792.15
827.773	820.83
827.955	784.21
828.136	759.6
828.318	740.42
828.499	797.38
828.68	733.06
828.862	791.38
829.043	818.7
829.224	757.47
829.406	744.49
829.587	725.5
829.768	732.28
829.949	779.75
830.131	790.8
830.312	810.17
830.493	776.07
830.674	792.73
830.855	756.7
831.036	732.87
831.218	830.9
831.399	826.64
831.58	789.05
831.761	794.28
831.942	810.17
832.123	754.18
832.304	716.01
832.485	772.39
832.666	771.03
832.847	747.78
833.028	775.1
833.209	784.79
833.389	767.35
833.57	734.22
833.751	753.01
833.932	797.19
834.113	746.62
834.294	701.87
834.475	749.33
834.655	823.15
834.836	811.91
835.017	757.47
835.198	721.05
835.378	751.66
835.559	803.39
835.74	767.55
835.92	749.72
836.101	765.41
836.281	783.63
836.462	792.73
836.643	827.61
836.823	821.21
837.004	820.05
837.184	862.87
837.365	812.11
837.545	811.33
837.726	780.14
837.906	849.5
838.087	794.86
838.267	803
838.448	725.7
838.628	819.47
838.808	784.01
838.989	851.83
839.169	759.8
839.349	820.63
839.53	824.89
839.71	825.86
839.89	782.85
840.07	856.09
840.251	777.23
840.431	834.78
840.611	802.42
840.791	778.98
840.971	793.51
841.151	785.95
841.332	788.08
841.512	844.66
841.692	729.96
841.872	811.33
842.052	758.25
842.232	810.75
842.412	733.83
842.592	790.41
842.772	789.83
842.952	832.26
843.132	753.79
843.312	757.47
843.492	745.85
843.672	797.38
843.851	721.05
844.031	779.95
844.211	791.18
844.391	723.95
844.571	807.07
844.751	799.71
844.93	784.21
845.11	741.2
845.29	763.28
845.47	791.76
845.649	769.87
845.829	787.11
846.009	750.69
846.188	798.16
846.368	743.71
846.547	751.46
846.727	813.46
846.907	733.25
847.086	792.73
847.266	792.35
847.445	763.09
847.625	764.06
847.804	737.9
847.984	734.42
848.163	708.84
848.343	716.01
848.522	749.14
848.701	756.89
848.881	716.4
849.06	749.53
849.239	763.86
849.419	791.96
849.598	702.64
849.777	721.43
849.957	756.89
850.136	692.18
850.315	656.92
850.494	661.18
850.674	709.42
850.853	741.78
851.032	701.28
851.211	758.63
851.39	703.42
851.569	674.74
851.748	678.03
851.927	734.03
852.107	724.15
852.286	687.33
852.465	637.15
852.644	712.72
852.823	722.4
853.002	681.72
853.181	686.75
853.359	687.92
853.538	664.28
853.717	709.03
853.896	662.92
854.075	648
854.254	640.45
854.433	568.95
854.611	632.7
854.79	595.69
854.969	632.31
855.148	668.93
855.327	588.72
855.505	632.7
855.684	604.6
855.863	635.22
856.041	598.21
856.22	630.95
856.399	603.44
856.577	719.11
856.756	664.86
856.934	771.23
857.113	764.64
857.291	670.48
857.47	629.02
857.648	653.23
857.827	673
858.005	686.37
858.184	621.27
858.362	741.97
858.541	635.8
858.719	676.48
858.898	658.27
859.076	668.35
859.254	722.4
859.433	630.95
859.611	661.95
859.789	613.52
859.967	686.75
860.146	713.1
860.324	604.6
860.502	630.18
860.68	605.57
860.859	628.63
861.037	639.67
861.215	674.55
861.393	644.52
861.571	642
861.749	604.41
861.927	666.22
862.105	652.85
862.283	628.63
862.461	591.62
862.639	592.79
862.817	606.54
862.995	629.79
863.173	584.65
863.351	614.87
863.529	652.07
863.707	674.35
863.885	634.05
864.063	549.19
864.241	589.88
864.418	653.04
864.596	580
864.774	568.95
864.952	600.15
865.129	649.17
865.307	596.47
865.485	544.54
865.663	649.55
865.84	551.13
866.018	600.34
866.196	483.9
866.373	554.81
866.551	545.32
866.728	471.69
866.906	496.3
867.084	557.33
867.261	567.6
867.439	530.79
867.616	532.72
867.794	576.51
867.971	542.41
868.149	548.03
868.326	603.83
868.503	597.44
868.681	568.95
868.858	549
869.035	530.4
869.213	557.72
869.39	545.9
869.567	627.85
869.745	527.88
869.922	568.57
870.099	582.71
870.276	615.65
870.454	610.8
870.631	571.86
870.808	541.83
870.985	599.18
871.162	642.77
871.339	604.6
871.517	523.81
871.694	528.66
871.871	572.44
872.048	578.84
872.225	541.64
872.402	561.2
872.579	508.51
872.756	582.32
872.933	518.19
873.11	548.03
873.287	579.03
873.463	533.5
873.64	524.78
873.817	571.47
873.994	535.05
874.171	515.67
874.348	536.02
874.524	493.39
874.701	549.39
874.878	494.17
875.055	586
875.231	521.68
875.408	546.67
875.585	502.11
875.762	505.41
875.938	532.92
876.115	519.16
876.291	519.74
876.468	473.82
876.645	476.34
876.821	489.52
876.998	514.71
877.174	567.99
877.351	508.31
877.527	514.32
877.704	523.04
877.88	495.72
878.057	488.55
878.233	537.37
878.409	503.27
878.586	531.37
878.762	503.08
878.938	492.62
879.115	424.23
879.291	482.35
879.467	459.49
879.644	467.82
879.82	515.29
879.996	482.16
880.172	410.86
880.349	485.45
880.525	462.59
880.701	439.92
880.877	421.9
881.053	503.27
881.229	495.52
881.405	512.77
881.581	456.19
881.757	470.34
881.933	450.96
882.109	496.11
882.285	465.3
882.461	426.16
882.637	461.81
882.813	442.05
882.989	467.24
883.165	535.82
883.341	446.31
883.517	523.42
883.693	468.21
883.869	494.75
884.044	453.87
884.22	487.58
884.396	500.56
884.572	482.54
884.747	510.83
884.923	481.77
885.099	500.17
885.275	531.17
885.45	449.03
885.626	452.32
885.801	435.08
885.977	453.09
886.153	425.58
886.328	489.91
886.504	470.34
886.679	505.79
886.855	472.86
887.03	458.13
887.206	464.72
887.381	472.47
887.557	495.52
887.732	468.21
887.908	495.52
888.083	505.79
888.258	459.29
888.434	445.73
888.609	468.98
888.784	488.94
888.96	464.91
889.135	428.49
889.31	445.54
889.485	455.23
889.661	463.17
889.836	506.37
890.011	465.49
890.186	445.54
890.361	452.51
890.537	497.27
890.712	478.67
890.887	451.74
891.062	467.43
891.237	527.49
891.412	441.28
891.587	489.91
891.762	495.14
891.937	520.71
892.112	406.59
892.287	499.01
892.462	406.98
892.637	410.66
892.812	392.84
892.987	419.96
893.161	405.82
893.336	396.91
893.511	442.05
893.686	456.58
893.861	428.88
894.035	407.56
894.21	443.02
894.385	374.82
894.56	444.38
894.734	380.63
894.909	406.21
895.084	402.72
895.258	371.72
895.433	388.38
895.608	361.06
895.782	361.65
895.957	375.21
896.131	365.52
896.306	311.08
896.48	323.86
896.655	348.47
896.829	283.18
897.004	289.77
897.178	301.78
897.353	302.75
897.527	347.7
897.701	292.09
897.876	267.87
898.05	331.42
898.224	327.35
898.399	361.26
898.573	331.42
898.747	239.58
898.921	333.16
899.096	248.5
899.27	269.81
899.444	244.43
899.618	233.77
899.792	248.5
899.967	246.75
900.141	300.23
900.315	228.15
900.489	237.65
900.663	282.6
900.837	267.1
901.011	216.14
901.185	330.06
901.359	291.32
901.533	296.55
901.707	259.35
901.881	269.03
902.055	205.1
902.229	259.73
902.403	308.17
902.576	302.94
902.75	291.32
902.924	408.53
903.098	304.68
903.272	348.47
903.446	344.6
903.619	320.18
903.793	335.68
903.967	310.69
904.14	357.19
904.314	356.8
904.488	354.48
904.661	367.65
904.835	317.28
905.009	387.41
905.182	400.98
905.356	344.4
905.529	340.91
905.703	308.36
905.876	340.33
906.05	308.17
906.223	286.86
906.397	269.23
906.57	275.82
906.744	264.38
906.917	264.58
907.09	270
907.264	257.02
907.437	230.67
907.61	255.47
907.784	268.84
907.957	275.04
908.13	220.4
908.304	279.88
908.477	225.25
908.65	260.51
908.823	199.29
908.996	309.33
909.17	229.51
909.343	247.72
909.516	214.4
909.689	229.7
909.862	212.27
910.035	250.24
910.208	202.58
910.381	229.7
910.554	295.77
910.727	246.56
910.9	226.41
911.073	222.92
911.246	286.28
911.419	293.25
911.592	252.57
911.765	207.62
911.938	221.18
912.11	234.35
912.283	231.25
912.456	264.58
912.629	241.91
912.802	212.85
912.974	208.97
913.147	188.44
913.32	155.5
913.493	169.64
913.665	210.72
913.838	195.6
914.01	190.37
914.183	220.98
914.356	167.32
914.528	200.25
914.701	274.65
914.873	243.07
915.046	216.14
915.218	199.87
915.391	141.74
915.563	157.44
915.736	214.78
915.908	207.42
916.081	196.96
916.253	176.81
916.425	185.53
916.598	216.53
916.77	187.85
916.942	171.77
917.115	122.95
917.287	204.13
917.459	188.63
917.632	158.02
917.804	108.81
917.976	213.43
918.148	191.92
918.32	189.4
918.493	209.55
918.665	225.44
918.837	206.65
919.009	275.62
919.181	246.75
919.353	206.84
919.525	218.47
919.697	208
919.869	202.77
920.041	243.07
920.213	267.68
920.385	242.49
920.557	191.34
920.729	225.05
920.901	214.59
921.073	205.87
921.244	197.93
921.416	234.35
921.588	237.26
921.76	195.02
921.932	273.49
922.103	175.26
922.275	180.69
922.447	193.67
922.619	142.9
922.79	199.87
922.962	211.3
923.134	228.15
923.305	164.22
923.477	177.2
923.648	154.92
923.82	170.8
923.991	141.16
924.163	139.8
924.335	181.27
924.506	145.42
924.677	195.41
924.849	147.17
925.02	196.96
925.192	192.7
925.363	176.42
925.535	182.04
925.706	168.29
925.877	216.33
926.049	138.84
926.22	186.5
926.391	188.63
926.562	206.84
926.734	137.87
926.905	197.74
927.076	115.97
927.247	122.56
927.419	115.2
927.59	155.5
927.761	164.8
927.932	120.24
928.103	171.77
928.274	113.65
928.445	108.81
928.616	133.8
928.787	157.05
928.958	158.6
929.129	162.28
929.3	132.44
929.471	112.1
929.642	72.96
929.813	42.54
929.984	119.85
930.155	23.94
930.326	115.78
930.496	70.44
930.667	41.77
930.838	80.91
931.009	49.52
931.18	79.94
931.35	67.92
931.521	68.7
931.692	32.66
931.863	3.99
932.033	48.16
932.204	53.01
932.374	76.84
932.545	41.96
932.716	104.93
932.886	73.93
933.057	-12.09
933.227	17.16
933.398	101.44
933.568	28.01
933.739	1.28
933.909	10.77
934.08	85.36
934.25	-19.07
934.421	-11.9
934.591	50.49
934.761	-15.39
934.932	-37.28
935.102	-4.73
935.272	-13.26
935.443	9.8
935.613	15.61
935.783	24.53
935.953	-10.54
936.123	148.91
936.294	-35.54
936.464	14.06
936.634	-0.08
936.804	-36.12
936.974	-32.24
937.144	37.7
937.314	33.24
937.484	21.04
937.655	-24.3
937.825	53.2
937.995	18.52
938.165	27.43
938.334	-2.99
938.504	10.38
938.674	-19.84
938.844	5.73
939.014	18.91
939.184	23.94
939.354	67.73
939.524	42.54
939.694	9.61
939.863	25.69
940.033	92.72
940.203	69.28
940.373	60.76
940.542	54.56
940.712	34.41
940.882	39.83
941.051	57.07
941.221	72.77
941.391	70.25
941.56	23.56
941.73	-19.46
941.899	116.56
942.069	32.28
942.238	50.87
942.408	16.39
942.577	75.48
942.747	37.7
942.916	-9.96
943.086	34.99
943.255	69.09
943.425	18.33
943.594	2.24
943.763	-21.01
943.933	-2.99
944.102	-54.72
944.271	17.74
944.441	35.38
944.61	18.33
944.779	17.74
944.948	108.22
945.117	-9.38
945.287	10.38
945.456	-15
945.625	-8.99
945.794	47.19
945.963	-26.43
946.132	38.28
946.301	6.51
946.47	48.16
946.639	-27.79
946.808	4.96
946.977	14.84
947.146	63.27
947.315	27.43
947.484	26.27
947.653	29.95
947.822	-4.54
947.991	-14.61
948.16	100.09
948.329	36.73
948.498	10.19
948.666	22.2
948.835	62.69
949.004	16
949.173	-25.07
949.341	42.74
949.51	28.01
949.679	64.24
949.847	61.72
950.016	108.61
950.185	60.37
950.353	-8.99
950.522	11.35
950.69	36.92
950.859	-6.09
951.028	35.76
951.196	45.26
951.365	-2.21
951.533	-12.87
951.701	49.13
951.87	59.01
952.038	-18.68
952.207	16.39
952.375	71.02
952.543	6.7
952.712	7.48
952.88	-6.86
953.048	76.26
953.217	12.13
953.385	12.32
953.553	65.21
953.721	-7.25
953.89	26.85
954.058	-10.16
954.226	-0.66
954.394	8.83
954.562	-5.51
954.73	15.23
954.898	9.99
955.067	64.05
955.235	16.58
955.403	66.76
955.571	85.36
955.739	28.4
955.907	4.18
956.075	-4.54
956.243	-5.89
956.41	33.05
956.578	-4.92
956.746	-25.66
956.914	33.05
957.082	63.86
957.25	35.96
957.418	-3.37
957.585	28.21
957.753	73.16
957.921	-11.51
958.089	20.07
958.256	40.02
958.424	14.45
958.592	15.23
958.759	-7.83
958.927	35.18
959.095	-4.73
959.262	18.33
959.43	57.66
959.597	6.89
959.765	2.83
959.932	-5.89
960.1	25.49
960.267	31.5
960.435	-1.05
960.602	43.51
960.77	-19.46
960.937	-52.2
961.104	51.65
961.272	-36.31
961.439	9.41
961.606	28.79
961.774	53.2
961.941	14.26
962.108	17.55
962.275	3.79
962.443	53.78
962.61	41.38
962.777	70.06
962.944	24.33
963.111	40.02
963.278	26.46
963.446	7.09
963.613	31.5
963.78	11.35
963.947	34.21
964.114	27.82
964.281	115.78
964.448	56.88
964.615	-1.82
964.782	39.64
964.949	70.44
965.116	46.61
965.282	78
965.449	28.79
965.616	-19.84
965.783	39.64
965.95	42.16
966.117	7.48
966.283	31.69
966.45	24.91
966.617	57.07
966.784	55.72
966.95	50.29
967.117	64.63
967.284	-3.76
967.45	-6.09
967.617	69.47
967.784	58.82
967.95	79.74
968.117	32.08
968.283	73.93
968.45	139.03
968.616	26.08
968.783	78.39
968.949	49.71
969.116	71.99
969.282	16.19
969.449	26.46
969.615	42.16
969.781	-18.29
969.948	19.68
970.114	-8.99
970.28	90.4
970.447	29.56
970.613	78.19
970.779	18.52
970.945	42.93
971.112	54.94
971.278	31.31
971.444	46.81
971.61	84.39
971.776	8.06
971.942	40.02
972.108	41.57
972.275	0.31
972.441	30.92
972.607	90.98
972.773	30.14
972.939	61.53
973.105	18.71
973.271	21.81
973.437	28.01
973.602	16.97
973.768	38.09
973.934	29.76
974.1	37.89
974.266	-30.5
974.432	43.71
974.598	16.97
974.763	52.81
974.929	-6.86
975.095	95.82
975.261	-11.9
975.426	8.25
975.592	21.62
975.758	96.79
975.923	-12.67
976.089	7.67
976.255	66.57
976.42	33.44
976.586	53.2
976.751	25.88
976.917	126.24
977.082	42.54
977.248	15.81
977.413	-28.95
977.579	42.93
977.744	18.71
977.91	-26.62
978.075	19.49
978.24	32.66
978.406	40.02
978.571	-7.06
978.736	24.33
978.902	45.06
979.067	-21.97
979.232	-21.39
979.397	28.21
979.563	71.8
979.728	24.91
979.893	2.05
980.058	-12.29
980.223	63.86
980.388	31.5
980.554	-0.08
980.719	-16.74
980.884	20.65
981.049	52.23
981.214	2.05
981.379	39.06
981.544	-18.1
981.709	12.71
981.874	40.41
982.039	28.79
982.204	59.21
982.368	43.32
982.533	4.38
982.698	62.69
982.863	78
983.028	-3.18
983.193	50.87
983.357	28.59
983.522	34.79
983.687	-1.82
983.852	9.61
984.016	2.05
984.181	21.62
984.346	31.11
984.51	48.94
984.675	16.39
984.839	65.79
985.004	38.67
985.168	65.79
985.333	45.26
985.498	34.79
985.662	47
985.827	34.6
985.991	5.34
986.155	26.46
986.32	74.51
986.484	71.22
986.649	41.77
986.813	-39.22
986.977	50.29
987.142	14.84
987.306	-4.15
987.47	-8.02
987.634	40.61
987.799	27.04
987.963	32.86
988.127	47.39
988.291	99.12
988.455	34.79
988.62	25.11
988.784	47.97
988.948	59.79
989.112	20.26
989.276	34.41
989.44	32.47
989.604	-5.7
989.768	-1.05
989.932	97.76
990.096	23.75
990.26	0.69
990.424	-21.39
990.588	19.49
990.752	96.02
990.915	43.32
991.079	10.38
991.243	19.68
991.407	59.21
991.571	39.06
991.734	43.71
991.898	70.64
992.062	110.16
992.226	45.26
992.389	-4.15
992.553	-22.17
992.717	-5.89
992.88	36.15
993.044	23.17
993.207	28.01
993.371	38.67
993.535	53.39
993.698	28.01
993.862	49.52
994.025	89.82
994.189	25.3
994.352	30.73
994.515	30.73
994.679	86.72
994.842	7.09
995.006	57.07
995.169	-4.15
995.332	-2.6
995.496	43.71
995.659	-22.94
995.822	31.11
995.985	10.96
996.149	110.74
996.312	16
996.475	88.07
996.638	3.6
996.801	70.83
996.964	87.88
997.128	27.63
997.291	9.41
997.454	24.53
997.617	-16.94
997.78	60.17
997.943	26.27
998.106	34.02
998.269	-3.18
998.432	24.14
998.595	43.9
998.758	-8.22
998.92	-2.6
999.083	-58.59
999.246	18.52
999.409	-23.14
999.572	-31.86
999.735	34.6
999.897	22.98
1000.06	-7.64
1000.223	24.33
1000.386	15.81
1000.548	30.92
1000.711	50.87
1000.874	39.83
1001.036	-18.68
1001.199	59.01
1001.361	16
1001.524	32.08
1001.687	66.96
1001.849	-7.44
1002.012	39.44
1002.174	33.24
1002.337	61.34
1002.499	12.9
1002.661	67.73
1002.824	0.5
1002.986	-26.62
1003.149	21.81
1003.311	6.89
1003.473	82.65
1003.636	6.89
1003.798	28.98
1003.96	31.69
1004.123	30.14
1004.285	-12.09
1004.447	2.44
1004.609	17.55
1004.771	112.49
1004.933	-15.19
1005.096	-16.94
1005.258	-41.54
1005.42	-2.79
1005.582	22.59
1005.744	24.91
1005.906	-25.27
1006.068	9.99
1006.23	-15
1006.392	-41.35
1006.554	-12.29
1006.716	50.68
1006.878	14.26
1007.04	-16.55
1007.202	4.96
1007.363	32.28
1007.525	7.67
1007.687	32.66
1007.849	53.59
1008.011	-10.16
1008.172	-27.59
1008.334	-4.73
1008.496	51.84
1008.658	-41.74
1008.819	-5.89
1008.981	-30.11
1009.143	-24.69
1009.304	-18.29
1009.466	43.12
1009.627	73.54
1009.789	122.17
1009.95	22.78
1010.112	0.69
1010.273	50.68
1010.435	-7.06
1010.596	3.21
1010.758	-4.92
1010.919	6.89
1011.081	-45.42
1011.242	11.54
1011.403	27.24
1011.565	-15
1011.726	32.47
1011.887	-12.87
1012.049	2.44
1012.21	54.17
1012.371	80.32
1012.532	-74.09
1012.693	1.66
1012.855	-23.52
1013.016	5.54
1013.177	25.88
1013.338	1.47
1013.499	65.79
1013.66	25.69
1013.821	51.84
1013.982	36.92
1014.143	16.97
1014.304	-7.44
1014.465	17.16
1014.626	48.36
1014.787	16.19
1014.948	66.96
1015.109	-58.2
1015.27	38.09
1015.431	-14.81
1015.592	-15.39
1015.752	53.97
1015.913	20.07
1016.074	42.16
1016.235	3.02
1016.395	12.51
1016.556	-5.51
1016.717	-2.02
1016.877	75.48
1017.038	-26.43
1017.199	8.83
1017.359	8.25
1017.52	36.73
1017.681	-5.12
1017.841	-0.66
1018.002	7.09
1018.162	-21.2
1018.323	39.25
1018.483	12.32
1018.644	29.18
1018.804	-51.23
1018.964	-25.46
1019.125	2.63
1019.285	14.45
1019.446	-33.6
1019.606	-33.02
1019.766	-69.44
1019.926	41.38
1020.087	22.98
1020.247	-33.99
1020.407	-3.57
1020.567	65.99
1020.728	12.13
1020.888	-32.63
1021.048	5.93
1021.208	-41.74
1021.368	0.5
1021.528	18.13
1021.688	30.14
1021.848	54.36
1022.008	3.02
1022.168	5.54
1022.328	36.34
1022.488	20.07
1022.648	-6.28
1022.808	-12.48
1022.968	33.83
1023.128	-13.06
1023.288	-3.57
1023.448	9.61
1023.608	3.79
1023.767	8.06
1023.927	4.38
1024.087	-46
1024.247	-33.21
1024.406	-8.02
1024.566	-54.91
1024.726	-21.2
1024.885	12.71
1025.045	-6.28
1025.205	7.28
1025.364	7.48
1025.524	27.63
1025.683	-11.71
1025.843	22.39
1026.003	1.66
1026.162	46.03
1026.321	44.67
1026.481	5.73
1026.64	-31.86
1026.8	25.69
1026.959	30.92
1027.119	4.96
1027.278	-7.64
1027.437	-6.28
1027.597	6.51
1027.756	8.44
1027.915	4.38
1028.074	29.95
1028.234	-40.96
1028.393	8.44
1028.552	-43.09
1028.711	-61.69
1028.87	37.51
1029.03	-29.53
1029.189	-6.09
1029.348	-57.43
1029.507	-11.12
1029.666	-21.59
1029.825	-23.33
1029.984	-51.23
1030.143	19.88
1030.302	-9.19
1030.461	-42.51
1030.62	-2.99
1030.779	21.43
1030.938	-16.94
1031.097	-44.06
1031.255	12.32
1031.414	44.09
1031.573	48.74
1031.732	-51.62
1031.891	1.86
1032.049	49.13
1032.208	12.71
1032.367	-24.3
1032.525	2.83
1032.684	-10.93
1032.843	-1.82
1033.001	-43.87
1033.16	112.1
1033.319	51.65
1033.477	1.47
1033.636	-13.06
1033.794	-61.3
1033.953	18.91
1034.111	26.85
1034.27	-33.99
1034.428	19.1
1034.587	-13.06
1034.745	12.71
1034.903	-1.63
1035.062	23.17
1035.22	-15.39
1035.378	24.53
1035.537	-21.59
1035.695	47
1035.853	20.46
1036.011	41.38
1036.17	20.65
1036.328	-47.94
1036.486	4.96
1036.644	1.08
1036.802	-66.92
1036.96	-18.49
1037.119	-0.66
1037.277	-24.88
1037.435	-54.52
1037.593	-15
1037.751	-0.08
1037.909	16.19
1038.067	16.19
