Data from pine_FLMT105791__121__17-22-20-075.txt Node

Date: Mon Mar 20 17:22:20 GMT 2023
User: antho
Spectrometer: FLMT10579
Trigger mode: 0
Integration Time (sec): 1.000000E-1
Scans to average: 10
Electric dark correction enabled: true
Nonlinearity correction enabled: false
Boxcar width: 0
XAxis mode: Wavelengths
Number of Pixels in Spectrum: 3648
>>>>>Begin Spectral Data<<<<<
345.248	-138.69
345.464	-138.69
345.681	-138.69
345.898	-174.15
346.114	-164.65
346.331	-26.32
346.548	29.87
346.764	3.33
346.981	-14.11
347.197	-11.98
347.414	33.16
347.631	-17.4
347.847	46.92
348.064	-7.33
348.28	23.67
348.497	-39.69
348.713	-20.12
348.93	12.24
349.146	12.82
349.363	5.84
349.579	28.32
349.796	-4.62
350.012	-21.09
350.229	18.44
350.445	10.3
350.661	-1.32
350.878	-3.46
351.094	12.24
351.311	24.83
351.527	32.97
351.743	31.81
351.96	33.94
352.176	73.46
352.392	27.16
352.609	42.85
352.825	-15.47
353.041	5.26
353.257	-12.37
353.474	28.13
353.69	15.92
353.906	23.67
354.122	-16.82
354.339	31.42
354.555	6.81
354.771	-3.84
354.987	81.41
355.203	58.93
355.42	-16.44
355.636	-15.08
355.852	-17.6
356.068	-0.36
356.284	-29.22
356.5	84.12
356.716	7.78
356.932	4.29
357.148	25.8
357.364	14.56
357.58	24.44
357.796	43.43
358.012	65.52
358.228	15.92
358.444	-73.2
358.66	64.16
358.876	28.9
359.092	-11.79
359.308	16.31
359.524	0.03
359.74	-20.31
359.956	-10.43
360.172	6.62
360.388	36.26
360.604	30.64
360.819	76.37
361.035	34.13
361.251	57.38
361.467	11.46
361.683	68.62
361.898	43.43
362.114	42.66
362.33	-2.49
362.546	59.32
362.762	27.54
362.977	38.98
363.193	-24.19
363.409	45.37
363.624	-17.79
363.84	-17.02
364.056	5.84
364.271	20.96
364.487	-6.75
364.703	-2.49
364.918	-16.05
365.134	6.43
365.35	20.38
365.565	87.41
365.781	-5.78
365.996	42.85
366.212	86.44
366.427	20.38
366.643	-2.87
366.858	15.14
367.074	-1.91
367.289	48.66
367.505	132.75
367.72	-25.74
367.936	3.52
368.151	33.94
368.367	50.41
368.582	39.94
368.798	22.7
369.013	65.71
369.228	28.32
369.444	33.74
369.659	62.81
369.874	24.25
370.09	91.29
370.305	-48.6
370.52	19.79
370.736	60.68
370.951	15.92
371.166	80.24
371.381	72.69
371.597	44.79
371.812	-24.77
372.027	9.91
372.242	13.59
372.458	93.03
372.673	18.24
372.888	16.5
373.103	57.77
373.318	102.52
373.533	53.31
373.749	41.11
373.964	-32.71
374.179	89.16
374.394	3.91
374.609	51.57
374.824	-15.08
375.039	38.78
375.254	14.76
375.469	90.12
375.684	24.83
375.899	57.96
376.114	15.34
376.329	2.74
376.544	39.36
376.759	50.99
376.974	5.07
377.189	29.29
377.404	-3.07
377.619	33.74
377.834	-21.47
378.049	-14.31
378.264	-24.57
378.478	1.39
378.693	18.05
378.908	61.26
379.123	14.18
379.338	55.83
379.553	14.95
379.767	34.71
379.982	57.58
380.197	42.66
380.412	38.59
380.626	42.66
380.841	109.89
381.056	45.18
381.271	70.36
381.485	2.55
381.7	-5.2
381.915	56.41
382.129	16.69
382.344	4.1
382.559	31.23
382.773	70.36
382.988	-10.43
383.202	25.8
383.417	-5.78
383.632	120.54
383.846	42.46
384.061	30.64
384.275	13.98
384.49	28.9
384.704	51.18
384.919	20.18
385.133	44.4
385.348	38.78
385.562	-6.17
385.777	73.85
385.991	32.58
386.206	28.51
386.42	23.86
386.634	62.23
386.849	36.07
387.063	49.44
387.277	-5.2
387.492	-8.49
387.706	-1.13
387.92	13.4
388.135	73.66
388.349	18.05
388.563	34.71
388.778	47.5
388.992	64.94
389.206	52.54
389.42	91.67
389.635	36.65
389.849	54.09
390.063	59.51
390.277	46.73
390.491	79.66
390.706	50.21
390.92	63.58
391.134	33.16
391.348	80.24
391.562	5.46
391.776	19.21
391.99	0.23
392.205	78.89
392.419	-2.68
392.633	25.03
392.847	78.5
393.061	-6.56
393.275	88.19
393.489	14.37
393.703	24.64
393.917	86.64
394.131	4.88
394.345	69.59
394.559	60.29
394.773	40.91
394.986	48.28
395.2	28.9
395.414	36.26
395.628	7.78
395.842	24.64
396.056	23.67
396.27	-12.56
396.484	38.98
396.697	54.28
396.911	74.82
397.125	40.33
397.339	60.68
397.553	40.53
397.766	114.54
397.98	88.96
398.194	74.43
398.408	22.89
398.621	52.15
398.835	57.38
399.049	61.84
399.262	82.76
399.476	48.66
399.69	59.9
399.903	133.52
400.117	41.69
400.331	70.94
400.544	26.96
400.758	168.98
400.971	43.43
401.185	85.86
401.398	20.76
401.612	112.79
401.826	67.46
402.039	81.41
402.253	49.24
402.466	58.54
402.68	76.95
402.893	53.12
403.106	49.63
403.32	56.41
403.533	68.81
403.747	54.67
403.96	49.05
404.174	84.12
404.387	-4.42
404.6	49.44
404.814	66.49
405.027	58.54
405.24	48.28
405.454	25.22
405.667	110.66
405.88	18.83
406.094	40.72
406.307	100.59
406.52	74.43
406.733	34.13
406.947	-9.46
407.16	106.01
407.373	107.76
407.586	27.74
407.799	24.64
408.012	95.16
408.226	67.84
408.439	123.45
408.652	6.04
408.865	73.27
409.078	94.58
409.291	74.62
409.504	27.54
409.717	90.71
409.93	101.75
410.143	55.44
410.357	18.63
410.57	19.21
410.783	43.24
410.996	67.65
411.209	61.26
411.421	91.29
411.634	57.19
411.847	33.74
412.06	51.38
412.273	52.93
412.486	71.14
412.699	162.39
412.912	46.92
413.125	94
413.338	56.8
413.55	104.46
413.763	68.23
413.976	79.27
414.189	50.99
414.402	41.3
414.615	104.85
414.827	53.31
415.04	85.86
415.253	99.42
415.466	107.37
415.678	124.42
415.891	84.12
416.104	45.56
416.316	68.81
416.529	34.33
416.742	109.11
416.954	95.16
417.167	72.11
417.38	56.22
417.592	128.29
417.805	37.04
418.017	-3.07
418.23	93.03
418.442	49.63
418.655	54.09
418.868	82.37
419.08	102.33
419.293	111.05
419.505	70.75
419.718	70.36
419.93	108.34
420.142	80.63
420.355	137.59
420.567	127.13
420.78	94.58
420.992	67.46
421.205	140.69
421.417	51.38
421.629	65.33
421.842	24.06
422.054	36.07
422.266	122.87
422.479	117.44
422.691	63.39
422.903	114.92
423.115	60.48
423.328	65.52
423.54	90.32
423.752	81.99
423.964	79.66
424.177	98.65
424.389	106.98
424.601	218
424.813	94.19
425.025	106.98
425.238	127.13
425.45	81.99
425.662	68.04
425.874	402.45
426.086	112.02
426.298	106.59
426.51	98.65
426.722	108.14
426.934	87.22
427.146	135.07
427.358	69.01
427.57	149.22
427.782	107.56
427.994	93.42
428.206	81.41
428.418	59.32
428.63	87.99
428.842	130.23
429.054	141.86
429.266	145.54
429.478	53.51
429.69	119.96
429.902	75.59
430.114	101.17
430.325	154.26
430.537	98.46
430.749	79.08
430.961	31.03
431.173	116.09
431.384	124.22
431.596	18.05
431.808	82.76
432.02	98.65
432.231	149.8
432.443	149.02
432.655	93.61
432.867	99.81
433.078	146.89
433.29	156.77
433.502	156.39
433.713	175.76
433.925	119.77
434.136	173.44
434.348	84.12
434.56	58.54
434.771	210.25
434.983	82.96
435.194	114.15
435.406	113.37
435.617	147.09
435.829	199.59
436.04	147.28
436.252	185.25
436.463	187.39
436.675	159.49
436.886	138.56
437.098	192.04
437.309	212.19
437.521	150.96
437.732	169.37
437.943	144.37
438.155	160.26
438.366	101.94
438.578	196.1
438.789	166.46
439	189.13
439.211	138.17
439.423	162.59
439.634	211.8
439.845	203.08
440.057	167.62
440.268	198.04
440.479	151.16
440.69	174.02
440.902	143.79
441.113	147.28
441.324	181.38
441.535	194.55
441.746	219.16
441.957	150.57
442.168	188.55
442.38	198.82
442.591	210.64
442.802	145.15
443.013	187
443.224	217.8
443.435	192.42
443.646	170.72
443.857	198.43
444.068	164.91
444.279	170.53
444.49	241.05
444.701	191.65
444.912	273.6
445.123	192.81
445.334	221.68
445.545	220.32
445.756	192.81
445.967	161.42
446.178	219.16
446.388	224.78
446.599	229.04
446.81	212.38
447.021	184.48
447.232	228.46
447.443	262.17
447.653	167.43
447.864	236.4
448.075	216.06
448.286	247.06
448.496	240.47
448.707	244.35
448.918	211.22
449.129	308.28
449.339	195.52
449.55	225.36
449.761	209.28
449.971	283.29
450.182	201.14
450.393	262.95
450.603	215.48
450.814	269.53
451.024	252.68
451.235	247.64
451.446	309.64
451.656	295.11
451.867	204.63
452.077	260.43
452.288	315.65
452.498	297.24
452.709	231.95
452.919	246.48
453.13	227.88
453.34	267.98
453.55	191.84
453.761	247.83
453.971	259.07
454.182	269.73
454.392	260.43
454.602	319.33
454.813	268.95
455.023	283.68
455.233	212.96
455.444	296.08
455.654	174.02
455.864	254.81
456.075	250.35
456.285	216.64
456.495	261.78
456.705	295.11
456.916	305.57
457.126	332.7
457.336	285.62
457.546	205.79
457.756	235.82
457.967	305.18
458.177	259.46
458.387	272.83
458.597	254.42
458.807	252.87
459.017	260.82
459.227	257.72
459.437	245.51
459.647	291.62
459.857	286.78
460.068	265.27
460.278	312.55
460.488	297.05
460.698	358.27
460.908	282.71
461.117	258.68
461.327	270.12
461.537	293.37
461.747	311.77
461.957	254.23
462.167	389.46
462.377	311.77
462.587	303.44
462.797	319.72
463.007	318.94
463.216	329.98
463.426	357.88
463.636	323.78
463.846	236.79
464.056	272.25
464.265	311.97
464.475	261.78
464.685	271.47
464.895	277.28
465.104	319.33
465.314	323.4
465.524	283.1
465.733	286.58
465.943	374.74
466.153	370.86
466.362	346.65
466.572	327.66
466.782	295.5
466.991	287.36
467.201	339.28
467.41	267.6
467.62	330.57
467.829	300.34
468.039	335.21
468.249	304.6
468.458	323.59
468.668	359.82
468.877	347.61
469.086	362.73
469.296	376.48
469.505	284.84
469.715	385.2
469.924	372.22
470.134	385.01
470.343	381.33
470.552	342.58
470.762	332.5
470.971	324.17
471.18	344.51
471.39	344.13
471.599	318.75
471.808	385.78
472.018	318.75
472.227	351.49
472.436	392.18
472.645	333.28
472.855	341.22
473.064	419.5
473.273	383.65
473.482	383.85
473.691	397.8
473.901	385.4
474.11	373.38
474.319	465.99
474.528	383.07
474.737	442.94
474.946	399.73
475.155	377.45
475.364	442.94
475.573	415.43
475.783	403.61
475.992	430.73
476.201	449.33
476.41	411.94
476.619	389.08
476.828	432.86
477.037	387.14
477.245	426.28
477.454	434.41
477.663	406.13
477.872	428.02
478.081	481.11
478.29	403.61
478.499	525.09
478.708	456.69
478.917	531.48
479.125	456.69
479.334	451.46
479.543	419.11
479.752	454.56
479.961	443.91
480.169	484.79
480.378	437.13
480.587	580.89
480.796	492.15
481.004	489.83
481.213	484.4
481.422	484.79
481.63	462.89
481.839	515.59
482.048	536.13
482.256	516.37
482.465	523.92
482.674	560.74
482.882	518.89
483.091	555.7
483.299	519.08
483.508	536.91
483.716	537.1
483.925	528.57
484.134	493.51
484.342	513.85
484.551	564.61
484.759	559.96
484.967	541.17
485.176	563.45
485.384	556.67
485.593	567.13
485.801	534.97
486.01	515.21
486.218	500.29
486.426	448.75
486.635	491.76
486.843	499.32
487.051	504.16
487.26	504.55
487.468	514.24
487.676	572.56
487.885	535.16
488.093	545.62
488.301	560.16
488.509	564.61
488.717	578.76
488.926	565.58
489.134	533.03
489.342	579.72
489.55	544.46
489.758	553.18
489.967	544.07
490.175	669.82
490.383	583.99
490.591	688.03
490.799	533.22
491.007	639.79
491.215	608.01
491.423	592.12
491.631	620.99
491.839	591.93
492.047	628.16
492.255	578.17
492.463	555.89
492.671	563.64
492.879	677.57
493.087	627.19
493.295	640.95
493.503	664.39
493.711	671.56
493.919	663.81
494.127	647.54
494.334	679.12
494.542	585.73
494.75	662.26
494.958	640.17
495.166	691.32
495.374	678.15
495.581	670.59
495.789	668.46
495.997	729.88
496.205	664.97
496.412	670.4
496.62	631.07
496.828	681.25
497.035	665.17
497.243	707.21
497.451	715.73
497.658	708.57
497.866	700.62
498.074	732.59
498.281	664.59
498.489	748.87
498.696	721.55
498.904	676.99
499.112	681.25
499.319	776.76
499.527	673.11
499.734	731.23
499.942	660.9
500.149	702.56
500.357	705.47
500.564	701.78
500.771	732.4
500.979	693.07
501.186	687.25
501.394	711.67
501.601	677.76
501.808	716.9
502.016	688.42
502.223	711.28
502.43	701.59
502.638	695.2
502.845	679.7
503.052	756.42
503.26	694.42
503.467	793.43
503.674	744.02
503.881	756.81
504.089	829.46
504.296	764.75
504.503	702.75
504.71	732.98
504.917	675.05
505.125	744.8
505.332	751.19
505.539	765.92
505.746	830.43
505.953	799.82
506.16	799.05
506.367	811.06
506.574	845.35
506.781	849.42
506.988	762.23
507.195	784.71
507.402	818.81
507.609	840.9
507.816	763.98
508.023	783.16
508.23	765.92
508.437	744.6
508.644	828.69
508.851	852.13
509.058	796.72
509.265	773.28
509.472	842.83
509.679	916.84
509.885	818.61
510.092	832.76
510.299	846.13
510.506	804.86
510.713	874.61
510.92	834.5
511.126	829.27
511.333	888.36
511.54	889.91
511.746	940.48
511.953	943
512.16	942.23
512.367	849.03
512.573	853.1
512.78	854.46
512.987	875.58
513.193	873.44
513.4	781.61
513.606	857.17
513.813	869.76
514.02	847.29
514.226	951.14
514.433	923.24
514.639	870.15
514.846	887.78
515.052	863.37
515.259	874.41
515.465	911.23
515.672	922.08
515.878	983.11
516.085	903.86
516.291	961.6
516.497	903.09
516.704	904.64
516.91	843.41
517.117	837.99
517.323	795.56
517.529	846.71
517.736	810.28
517.942	826.75
518.148	859.88
518.354	890.88
518.561	916.84
518.767	885.07
518.973	924.4
519.179	931.76
519.386	910.26
519.592	884.68
519.798	910.06
520.004	1010.62
520.21	964.12
520.417	998.61
520.623	1034.06
520.829	998.02
521.035	985.04
521.241	1029.02
521.447	1005.77
521.653	1129.77
521.859	994.73
522.065	1071.45
522.271	1128.42
522.477	1046.27
522.683	1095.29
522.889	1070.87
523.095	1088.89
523.301	1099.16
523.507	1043.55
523.713	1062.54
523.919	1011.59
524.125	1126.87
524.331	1098.39
524.537	1150.7
524.742	1164.65
524.948	1145.85
525.154	1147.02
525.36	1241.56
525.566	1163.1
525.772	1226.65
525.977	1116.6
526.183	1171.82
526.389	1204.75
526.595	1140.82
526.8	1113.3
527.006	1064.29
527.212	1049.75
527.417	1036.58
527.623	1048.79
527.829	1118.15
528.034	1153.99
528.24	1117.76
528.446	1094.12
528.651	1194.48
528.857	1171.43
529.062	1244.86
529.268	1233.43
529.473	1255.51
529.679	1239.24
529.884	1264.04
530.09	1260.55
530.295	1294.65
530.501	1272.56
530.706	1266.36
530.912	1224.13
531.117	1248.54
531.323	1265.01
531.528	1303.18
531.733	1307.63
531.939	1259.2
532.144	1267.33
532.35	1289.23
532.555	1336.31
532.76	1289.81
532.966	1306.86
533.171	1292.71
533.376	1250.48
533.581	1232.85
533.787	1238.46
533.992	1290.2
534.197	1321.78
534.402	1285.93
534.607	1287.87
534.813	1363.82
535.018	1298.72
535.223	1291.75
535.428	1329.72
535.633	1373.12
535.838	1335.73
536.043	1348.32
536.249	1467.09
536.454	1325.07
536.659	1391.91
536.864	1363.63
537.069	1304.92
537.274	1351.42
537.479	1357.81
537.684	1336.89
537.889	1284.58
538.094	1414.19
538.299	1341.34
538.504	1378.74
538.708	1393.85
538.913	1401.21
539.118	1350.64
539.323	1381.84
539.528	1327.78
539.733	1341.73
539.938	1377.38
540.142	1379.32
540.347	1357.81
540.552	1285.93
540.757	1332.24
540.962	1319.84
541.166	1299.3
541.371	1301.04
541.576	1321.97
541.781	1231.1
541.985	1329.72
542.19	1357.43
542.395	1438.8
542.599	1434.15
542.804	1411.29
543.008	1437.06
543.213	1391.14
543.418	1341.15
543.622	1363.24
543.827	1350.64
544.031	1454.69
544.236	1438.99
544.44	1402.37
544.645	1495.57
544.849	1414.39
545.054	1437.83
545.258	1541.49
545.463	1478.52
545.667	1367.11
545.872	1447.71
546.076	1455.07
546.281	1454.88
546.485	1424.27
546.689	1463.6
546.894	1467.28
547.098	1447.71
547.302	1414.19
547.507	1457.79
547.711	1439.77
547.915	1474.64
548.119	1420.97
548.324	1412.45
548.528	1503.32
548.732	1454.3
548.936	1425.62
549.141	1465.92
549.345	1399.66
549.549	1439.57
549.753	1459.72
549.957	1529.86
550.161	1504.67
550.366	1476.97
550.57	1407.02
550.774	1420.2
550.978	1448.87
551.182	1448.29
551.386	1442.48
551.59	1403.92
551.794	1450.81
551.998	1485.3
552.202	1434.15
552.406	1392.88
552.61	1458.37
552.814	1444.61
553.018	1530.83
553.222	1475.03
553.426	1436.67
553.63	1536.06
553.833	1478.13
554.037	1426.98
554.241	1490.14
554.445	1451.01
554.649	1485.88
554.853	1463.21
555.056	1514.94
555.26	1543.23
555.464	1450.42
555.668	1503.9
555.871	1523.27
556.075	1527.34
556.279	1463.99
556.483	1435.31
556.686	1487.43
556.89	1441.12
557.094	1491.5
557.297	1404.12
557.501	1515.33
557.704	1395.59
557.908	1476.77
558.112	1412.84
558.315	1505.25
558.519	1429.69
558.722	1407.41
558.926	1416.52
559.129	1355.29
559.333	1335.73
559.536	1382.03
559.74	1356.46
559.943	1366.92
560.147	1353.55
560.35	1349.68
560.553	1360.91
560.757	1345.22
560.96	1433.57
561.164	1366.14
561.367	1471.54
561.57	1392.11
561.774	1401.41
561.977	1374.86
562.18	1374.09
562.384	1473.67
562.587	1342.31
562.79	1359.56
562.993	1378.74
563.197	1394.43
563.4	1436.28
563.603	1420.01
563.806	1504.87
564.009	1376.61
564.212	1389.01
564.416	1317.51
564.619	1415.94
564.822	1348.51
565.025	1414.39
565.228	1322.16
565.431	1390.36
565.634	1279.15
565.837	1322.36
566.04	1271.21
566.243	1318.09
566.446	1219.48
566.649	1300.85
566.852	1223.74
567.055	1287.87
567.258	1338.05
567.461	1349.09
567.664	1371.76
567.867	1241.37
568.07	1300.08
568.273	1292.91
568.475	1349.87
568.678	1268.11
568.881	1276.44
569.084	1271.79
569.287	1159.42
569.489	1210.37
569.692	1299.11
569.895	1267.72
570.098	1216.18
570.3	1189.64
570.503	1182.67
570.706	1211.34
570.909	1215.99
571.111	1166.78
571.314	1137.33
571.516	1225.29
571.719	1231.3
571.922	1202.82
572.124	1194.68
572.327	1206.3
572.529	1153.6
572.732	1163.68
572.935	1208.82
573.137	1291.94
573.34	1150.12
573.542	1232.65
573.745	1223.74
573.947	1207.47
574.15	1187.32
574.352	1178.79
574.554	1216.96
574.757	1138.1
574.959	1133.45
575.162	1135.78
575.364	1126.67
575.566	1223.93
575.769	1137.91
575.971	1127.45
576.173	1019.14
576.376	1111.95
576.578	1188.67
576.78	1223.35
576.982	1063.9
577.185	1156.51
577.387	1110.59
577.589	1106.14
577.791	1164.26
577.993	1125.32
578.196	1118.92
578.398	1143.72
578.6	1146.43
578.802	1071.26
579.004	1117.95
579.206	1113.89
579.408	1092.19
579.61	1102.07
579.812	1155.93
580.014	1074.94
580.216	1093.15
580.418	1070.49
580.62	1069.9
580.822	1035.22
581.024	1076.69
581.226	1123.57
581.428	1102.65
581.63	1162.32
581.832	1065.45
582.034	1156.9
582.236	1101.87
582.438	1129.38
582.64	1106.52
582.841	1161.16
583.043	1225.68
583.245	1126.28
583.447	1150.5
583.649	1100.71
583.85	1118.15
584.052	1134.42
584.254	1111.75
584.456	1142.75
584.657	1079.4
584.859	1120.28
585.061	1122.8
585.262	1082.69
585.464	1037.55
585.666	1119.5
585.867	1051.89
586.069	1111.56
586.27	1101.49
586.472	1101.87
586.674	1101.87
586.875	1087.92
587.077	1082.5
587.278	1085.21
587.48	1079.2
587.681	1186.35
587.883	1077.27
588.084	996.28
588.285	1051.5
588.487	1028.06
588.688	1059.44
588.89	983.49
589.091	985.62
589.292	970.9
589.494	967.22
589.695	938.93
589.896	870.34
590.098	924.59
590.299	946.68
590.5	902.7
590.702	927.69
590.903	976.32
591.104	1013.91
591.305	969.74
591.507	1062.35
591.708	999.96
591.909	987.76
592.11	1014.69
592.311	1004.81
592.512	982.91
592.714	949.59
592.915	959.66
593.116	1001.51
593.317	990.08
593.518	957.14
593.719	957.14
593.92	1002.29
594.121	1018.76
594.322	967.22
594.523	973.22
594.724	937.19
594.925	973.42
595.126	975.16
595.327	1029.61
595.528	985.62
595.729	987.37
595.929	962.37
596.13	958.89
596.331	958.69
596.532	970.9
596.733	1009.84
596.934	1033.48
597.135	1032.9
597.335	992.02
597.536	949.2
597.737	976.91
597.938	994.34
598.138	1004.42
598.339	988.92
598.54	999.57
598.74	957.72
598.941	971.29
599.142	1046.27
599.342	980.2
599.543	970.51
599.744	980.39
599.944	992.79
600.145	979.62
600.345	974.97
600.546	1037.55
600.746	1023.6
600.947	1093.35
601.147	996.67
601.348	1030.96
601.548	969.74
601.749	985.24
601.949	933.12
602.15	932.73
602.35	967.02
602.551	1012.56
602.751	945.71
602.951	957.53
603.152	911.42
603.352	988.53
603.552	971.09
603.753	993.37
603.953	988.34
604.153	998.41
604.354	988.53
604.554	995.51
604.754	984.07
604.954	954.82
605.155	985.04
605.355	977.68
605.555	1014.88
605.755	1041.42
605.955	972.45
606.155	1014.88
606.356	974.58
606.556	993.96
606.756	987.56
606.956	935.25
607.156	1044.33
607.356	947.46
607.556	979.42
607.756	963.34
607.956	1005.77
608.156	959.08
608.356	942.03
608.556	981.94
608.756	966.44
608.956	964.51
609.156	976.71
609.356	956.95
609.556	893.01
609.755	983.11
609.955	919.36
610.155	939.32
610.355	932.73
610.555	905.03
610.755	950.56
610.954	848.26
611.154	949.01
611.354	978.46
611.554	918.2
611.753	932.34
611.953	874.8
612.153	932.93
612.352	919.17
612.552	859.88
612.752	844.19
612.951	907.93
613.151	908.9
613.351	908.51
613.55	899.79
613.75	912.97
613.949	897.86
614.149	876.16
614.348	922.08
614.548	884.29
614.747	849.61
614.947	826.36
615.146	825.2
615.346	885.26
615.545	892.82
615.745	876.74
615.944	910.64
616.144	903.48
616.343	902.51
616.542	851.55
616.742	870.15
616.941	875.77
617.14	846.51
617.34	846.9
617.539	849.81
617.738	866.28
617.938	937.19
618.137	849.81
618.336	846.32
618.535	900.76
618.734	862.21
618.934	905.03
619.133	869.96
619.332	893.79
619.531	859.88
619.73	858.14
619.929	919.94
620.128	905.41
620.328	928.47
620.527	852.13
620.726	844.38
620.925	869.57
621.124	855.04
621.323	878.68
621.522	833.73
621.721	800.79
621.92	817.84
622.119	845.35
622.318	823.65
622.517	848.84
622.715	845.16
622.914	758.17
623.113	833.73
623.312	785.48
623.511	844
623.71	797.5
623.909	806.41
624.107	854.46
624.306	776.18
624.505	791.68
624.704	810.28
624.902	812.8
625.101	857.17
625.3	819
625.499	749.06
625.697	752.55
625.896	757.2
626.095	803.89
626.293	786.06
626.492	780.25
626.69	818.61
626.889	775.99
627.088	814.16
627.286	786.84
627.485	796.14
627.683	784.51
627.882	807.18
628.08	727.75
628.279	770.18
628.477	810.09
628.676	745.77
628.874	782.96
629.073	757.78
629.271	745.96
629.469	767.47
629.668	733.56
629.866	760.3
630.065	745.77
630.263	808.35
630.461	728.91
630.66	760.68
630.858	780.83
631.056	831.79
631.254	832.56
631.453	737.43
631.651	791.1
631.849	761.65
632.047	775.8
632.245	733.17
632.444	765.33
632.642	793.04
632.84	788.58
633.038	756.03
633.236	695.39
633.434	727.55
633.632	742.47
633.83	751.19
634.028	814.55
634.227	744.99
634.425	797.69
634.623	755.84
634.821	766.69
635.019	769.6
635.216	770.18
635.414	804.47
635.612	787.42
635.81	756.23
636.008	829.46
636.206	750.03
636.404	773.66
636.602	738.6
636.8	733.17
636.997	788.58
637.195	772.89
637.393	745.77
637.591	819.39
637.789	784.32
637.986	757.39
638.184	773.28
638.382	813
638.58	812.22
638.777	810.09
638.975	780.45
639.173	759.72
639.37	791.68
639.568	775.6
639.765	775.02
639.963	754.29
640.161	808.15
640.358	784.32
640.556	711.08
640.753	719.8
640.951	729.68
641.148	752.93
641.346	725.81
641.543	730.85
641.741	750.61
641.938	734.33
642.136	763.78
642.333	717.87
642.531	772.5
642.728	805.05
642.925	770.37
643.123	734.14
643.32	724.45
643.517	708.76
643.715	723.87
643.912	743.63
644.109	761.46
644.306	751.38
644.504	701.59
644.701	728.33
644.898	768.05
645.095	707.79
645.293	723.29
645.49	720.58
645.687	722.71
645.884	769.4
646.081	644.63
646.278	701.2
646.475	646.18
646.672	694.81
646.87	740.53
647.067	716.9
647.264	704.5
647.461	640.37
647.658	603.17
647.855	711.67
648.052	682.02
648.249	620.41
648.446	648.5
648.642	654.32
648.839	623.9
649.036	620.02
649.233	612.08
649.43	623.32
649.627	629.52
649.824	639.01
650.021	596
650.217	600.45
650.414	646.57
650.611	670.01
650.808	684.54
651.004	640.56
651.201	700.23
651.398	689
651.595	638.82
651.791	622.35
651.988	657.22
652.185	630.49
652.381	639.01
652.578	575.46
652.775	666.33
652.971	644.82
653.168	636.1
653.364	639.4
653.561	572.94
653.757	676.21
653.954	624.67
654.15	615.76
654.347	726.58
654.543	634.17
654.74	582.82
654.936	597.74
655.133	653.15
655.329	627.39
655.525	614.79
655.722	650.25
655.918	585.92
656.115	617.89
656.311	554.73
656.507	535.94
656.704	500.87
656.9	535.36
657.096	544.46
657.292	534.58
657.489	625.45
657.685	606.07
657.881	575.07
658.077	596.39
658.273	581.47
658.47	683.19
658.666	600.07
658.862	621.19
659.058	597.74
659.254	634.36
659.45	583.02
659.646	615.18
659.842	609.37
660.038	617.7
660.234	570.62
660.43	614.02
660.626	669.62
660.822	623.32
661.018	643.08
661.214	612.85
661.41	558.99
661.606	600.07
661.802	664.97
661.998	568.68
662.194	585.15
662.39	602.39
662.586	604.52
662.781	615.57
662.977	615.76
663.173	646.37
663.369	570.04
663.564	628.16
663.76	634.36
663.956	586.51
664.152	639.01
664.347	556.47
664.543	599.68
664.739	576.04
664.934	540.78
665.13	540.78
665.326	632.62
665.521	580.11
665.717	566.36
665.912	586.12
666.108	526.64
666.304	549.31
666.499	589.02
666.695	466.96
666.89	554.92
667.086	624.67
667.281	563.06
667.477	617.89
667.672	575.85
667.867	579.53
668.063	595.03
668.258	549.5
668.454	583.02
668.649	642.3
668.844	550.08
669.04	579.72
669.235	578.17
669.43	543.11
669.626	518.69
669.821	549.5
670.016	536.91
670.211	551.63
670.407	540.01
670.602	541.56
670.797	540.2
670.992	568.68
671.187	558.02
671.382	594.26
671.578	549.69
671.773	572.36
671.968	524.12
672.163	531.29
672.358	581.08
672.553	529.93
672.748	519.86
672.943	611.3
673.138	528.57
673.333	578.95
673.528	518.11
673.723	550.86
673.918	528.57
674.113	508.23
674.308	632.23
674.503	579.14
674.698	585.92
674.892	553.18
675.087	565.77
675.282	555.51
675.477	503.78
675.672	575.46
675.867	531.48
676.061	490.79
676.256	485.37
676.451	516.56
676.646	537.49
676.84	507.46
677.035	520.05
677.23	503.97
677.424	543.3
677.619	537.49
677.814	572.36
678.008	570.42
678.203	452.43
678.397	508.81
678.592	546.98
678.787	587.09
678.981	534.77
679.176	528.77
679.37	515.79
679.565	485.56
679.759	530.9
679.954	580.31
680.148	580.31
680.342	578.95
680.537	540.2
680.731	506.1
680.926	546.4
681.12	570.62
681.314	497.77
681.509	517.34
681.703	552.99
681.897	578.37
682.092	550.27
682.286	517.92
682.48	587.47
682.674	559.77
682.869	527.41
683.063	542.14
683.257	600.84
683.451	516.37
683.645	564.81
683.839	526.83
684.034	516.17
684.228	578.95
684.422	488.28
684.616	474.52
684.81	530.51
685.004	516.56
685.198	514.43
685.392	563.45
685.586	518.5
685.78	534.58
685.974	539.42
686.168	581.86
686.362	592.71
686.556	493.7
686.75	453.79
686.944	483.63
687.138	480.91
687.331	382.68
687.525	415.62
687.719	366.21
687.913	416.59
688.107	418.72
688.301	395.66
688.494	452.24
688.688	426.66
688.882	399.15
689.076	385.01
689.269	435.38
689.463	517.14
689.657	433.83
689.85	436.54
690.044	484.98
690.238	464.44
690.431	460.76
690.625	463.28
690.818	487.69
691.012	517.72
691.205	500.68
691.399	471.03
691.593	509.59
691.786	563.06
691.98	545.04
692.173	578.56
692.366	540.78
692.56	572.94
692.753	589.61
692.947	514.24
693.14	586.51
693.333	592.51
693.527	513.46
693.72	554.54
693.914	557.06
694.107	570.62
694.3	570.23
694.493	603.94
694.687	607.62
694.88	567.52
695.073	662.45
695.266	613.63
695.46	592.12
695.653	664.39
695.846	661.68
696.039	581.47
696.232	620.22
696.425	669.43
696.618	676.21
696.812	687.64
697.005	725.81
697.198	811.83
697.391	732.2
697.584	741.7
697.777	769.79
697.97	763.78
698.163	769.98
698.356	766.5
698.549	847.87
698.742	772.5
698.935	721.16
699.127	775.6
699.32	753.13
699.513	752.16
699.706	782.77
699.899	789.55
700.092	757.39
700.285	802.15
700.477	769.02
700.67	846.9
700.863	861.43
701.056	930.21
701.248	881.97
701.441	873.25
701.634	855.43
701.826	972.06
702.019	828.88
702.212	935.06
702.404	892.24
702.597	871.51
702.79	915.49
702.982	945.52
703.175	969.74
703.367	983.11
703.56	970.9
703.752	1044.91
703.945	978.46
704.137	998.8
704.33	1043.55
704.522	1034.45
704.715	1047.24
704.907	1077.85
705.1	1099.55
705.292	1093.35
705.484	1033.48
705.677	1123.38
705.869	1127.06
706.061	1182.67
706.254	1207.85
706.446	1145.08
706.638	1126.28
706.831	1199.52
707.023	1136.17
707.215	1251.25
707.407	1201.65
707.599	1212.5
707.792	1266.36
707.984	1251.83
708.176	1259.2
708.368	1248.73
708.56	1288.84
708.752	1283.8
708.944	1283.22
709.136	1338.83
709.329	1271.6
709.521	1425.04
709.713	1358.59
709.905	1389.97
710.097	1402.57
710.289	1350.64
710.481	1390.17
710.672	1408.19
710.864	1406.25
711.056	1444.22
711.248	1437.44
711.44	1457.01
711.632	1445
711.824	1505.64
712.016	1548.27
712.207	1516.69
712.399	1528.7
712.591	1582.17
712.783	1527.92
712.975	1576.36
713.166	1506.8
713.358	1592.05
713.55	1627.9
713.741	1641.65
713.933	1604.45
714.125	1612.4
714.316	1593.99
714.508	1699.58
714.7	1649.98
714.891	1625.96
715.083	1674.01
715.274	1663.93
715.466	1687.57
715.657	1754.03
715.849	1617.24
716.04	1722.25
716.232	1611.62
716.423	1660.64
716.615	1572.48
716.806	1591.86
716.998	1566.48
717.189	1523.08
717.381	1405.47
717.572	1400.44
717.763	1433.96
717.955	1429.31
718.146	1391.33
718.337	1358.78
718.528	1326.23
718.72	1281.48
718.911	1334.37
719.102	1318.29
719.293	1351.03
719.485	1344.06
719.676	1322.36
719.867	1269.08
720.058	1293.49
720.249	1281.86
720.44	1325.65
720.632	1395.59
720.823	1375.64
721.014	1508.35
721.205	1495.18
721.396	1565.51
721.587	1652.5
721.778	1633.32
721.969	1647.46
722.16	1700.75
722.351	1698.81
722.542	1843.54
722.733	1842.37
722.924	1762.74
723.115	1819.9
723.305	1777.08
723.496	1782.89
723.687	1705.59
723.878	1706.56
724.069	1691.45
724.26	1717.02
724.45	1652.31
724.641	1647.08
724.832	1687.18
725.023	1688.93
725.213	1690.67
725.404	1639.33
725.595	1661.41
725.785	1639.72
725.976	1712.76
726.167	1680.6
726.357	1722.45
726.548	1811.76
726.739	1695.13
726.929	1756.16
727.12	1775.73
727.31	1820.29
727.501	1771.66
727.691	1776.89
727.882	1790.84
728.072	1831.52
728.263	1814.09
728.453	1841.02
728.644	1818.74
728.834	1832.88
729.024	1809.83
729.215	1818.93
729.405	1838.31
729.596	1939.83
729.786	1908.25
729.976	1908.05
730.167	1928.2
730.357	1878.61
730.547	1899.14
730.737	1947.97
730.928	1990.2
731.118	2026.05
731.308	1949.32
731.498	1976.84
731.688	1993.5
731.879	1996.6
732.069	2049.3
732.259	2107.61
732.449	2127.18
732.639	2176.2
732.829	2189.18
733.019	2239.75
733.209	2275.01
733.399	2290.12
733.589	2313.18
733.779	2363.75
733.969	2302.14
734.159	2357.74
734.349	2394.55
734.539	2446.28
734.729	2429.43
734.919	2442.6
735.109	2491.04
735.299	2425.36
735.488	2450.16
735.678	2479.61
735.868	2446.09
736.058	2480.19
736.248	2440.28
736.437	2379.25
736.627	2413.93
736.817	2564.86
737.007	2521.85
737.196	2496.27
737.386	2491.82
737.576	2462.95
737.765	2517.2
737.955	2491.82
738.144	2586.36
738.334	2577.06
738.524	2533.47
738.713	2576.29
738.903	2554.59
739.092	2616.2
739.282	2617.17
739.471	2602.83
739.661	2561.37
739.85	2605.93
740.04	2640.81
740.229	2645.84
740.419	2697.38
740.608	2655.53
740.797	2653.79
740.987	2744.27
741.176	2712.69
741.365	2659.79
741.555	2609.42
741.744	2716.95
741.933	2637.51
742.123	2677.43
742.312	2705.91
742.501	2768.68
742.69	2761.71
742.88	2673.55
743.069	2854.51
743.258	2739.62
743.447	2778.37
743.636	2739.62
743.825	2746.98
744.014	2748.34
744.204	2757.25
744.393	2740.2
744.582	2808.4
744.771	2839.4
744.96	2765.58
745.149	2792.51
745.338	2789.99
745.527	2797.35
745.716	2772.36
745.905	2771.2
746.094	2874.85
746.283	2848.5
746.471	2815.57
746.66	2870.59
746.849	2862.45
747.038	2859.35
747.227	2816.73
747.416	2841.34
747.604	2771.78
747.793	2815.18
747.982	2847.15
748.171	2818.67
748.359	2820.99
748.548	2824.87
748.737	2793.29
748.926	2780.5
749.114	2789.22
749.303	2808.01
749.491	2800.45
749.68	2768.49
749.869	2801.81
750.057	2750.86
750.246	2794.45
750.434	2752.79
750.623	2799.68
750.811	2763.45
751	2852.57
751.188	2790.96
751.377	2814.6
751.565	2771.78
751.754	2733.22
751.942	2735.55
752.131	2806.07
752.319	2763.84
752.507	2700.29
752.696	2774.11
752.884	2770.23
753.072	2733.81
753.261	2749.5
753.449	2767.71
753.637	2756.67
753.825	2791.15
754.014	2712.3
754.202	2711.52
754.39	2835.91
754.578	2840.75
754.766	2737.87
754.955	2747.17
755.143	2793.87
755.331	2728.38
755.519	2715.79
755.707	2682.27
755.895	2710.75
756.083	2720.44
756.271	2692.73
756.459	2702.22
756.647	2763.06
756.835	2675.29
757.023	2660.57
757.211	2677.62
757.399	2679.94
757.587	2695.83
757.775	2634.41
757.963	2650.88
758.151	2677.43
758.339	2634.99
758.526	2624.92
758.714	2628.02
758.902	2545.68
759.09	2517
759.278	2330.23
759.465	2204.1
759.653	1883.45
759.841	1736.59
760.028	1458.95
760.216	1289.81
760.404	1244.08
760.591	1004.22
760.779	845.74
760.967	741.12
761.154	614.21
761.342	637.85
761.529	623.32
761.717	722.52
761.905	671.95
762.092	778.7
762.28	678.54
762.467	722.71
762.655	622.93
762.842	653.35
763.029	669.24
763.217	672.34
763.404	680.47
763.592	699.07
763.779	704.3
763.966	707.79
764.154	729.1
764.341	810.86
764.528	760.88
764.716	836.25
764.903	893.4
765.09	882.16
765.277	954.82
765.465	1107.88
765.652	1140.62
765.839	1209.79
766.026	1302.21
766.213	1326.23
766.4	1401.21
766.588	1570.35
766.775	1557.57
766.962	1654.83
767.149	1685.83
767.336	1820.48
767.523	1772.63
767.71	1889.26
767.897	1986.72
768.084	2051.04
768.271	2086.69
768.458	2150.82
768.645	2140.36
768.832	2122.34
769.019	2159.35
769.206	2189.18
769.392	2264.36
769.579	2330.04
769.766	2289.16
769.953	2313.96
770.14	2376.54
770.327	2318.61
770.513	2370.92
770.7	2436.79
770.887	2340.69
771.073	2401.34
771.26	2349.22
771.447	2350.19
771.634	2374.79
771.82	2445.7
772.007	2353.48
772.193	2383.12
772.38	2410.25
772.567	2381.96
772.753	2364.14
772.94	2436.4
773.126	2436.4
773.313	2439.12
773.499	2419.55
773.686	2382.35
773.872	2430.98
774.059	2417.42
774.245	2341.08
774.432	2368.98
774.618	2311.63
774.804	2397.46
774.991	2308.92
775.177	2395.14
775.363	2360.84
775.55	2387.77
775.736	2295.55
775.922	2356.97
776.109	2361.04
776.295	2378.47
776.481	2316.47
776.667	2333.52
776.853	2363.94
777.04	2307.17
777.226	2300.97
777.412	2372.66
777.598	2304.46
777.784	2318.8
777.97	2360.84
778.156	2348.25
778.342	2300.2
778.528	2302.72
778.715	2197.71
778.901	2269.2
779.087	2346.89
779.272	2240.91
779.458	2250.6
779.644	2293.22
779.83	2236.84
780.016	2320.93
780.202	2248.47
780.388	2239.56
780.574	2195.96
780.76	2230.26
780.946	2251.38
781.131	2255.83
781.317	2247.31
781.503	2199.06
781.689	2228.32
781.874	2347.67
782.06	2183.18
782.246	2205.46
782.432	2208.56
782.617	2233.36
782.803	2279.27
782.989	2169.42
783.174	2198.48
783.36	2123.89
783.545	2180.66
783.731	2199.45
783.916	2095.6
784.102	2208.36
784.288	2157.99
784.473	2146.17
784.659	2152.18
784.844	2167.48
785.029	2099.09
785.215	2091.73
785.4	2052.4
785.586	2125.25
785.771	2068.28
785.956	2124.08
786.142	2107.42
786.327	2039.22
786.512	2102
786.698	2095.6
786.883	2041.35
787.068	2045.81
787.254	2101.61
787.439	2036.9
787.624	2039.22
787.809	2031.28
787.994	1990.79
788.18	2082.04
788.365	2026.05
788.55	2038.25
788.735	2039.22
788.92	2012.29
789.105	1984
789.29	2015.97
789.475	1957.85
789.66	1956.88
789.845	1973.15
790.03	1913.67
790.215	2002.8
790.4	1989.24
790.585	2025.27
790.77	1971.22
790.955	1884.42
791.14	1941.96
791.325	1953.78
791.51	1870.08
791.695	1914.84
791.879	1895.66
792.064	1866.4
792.249	1995.24
792.434	1947.58
792.618	1921.23
792.803	1921.23
792.988	1922
793.173	1910.19
793.357	1957.85
793.542	1866.59
793.727	1916
793.911	1967.34
794.096	1889.65
794.281	1961.92
794.465	2062.28
794.65	1923.75
794.834	1968.89
795.019	2028.18
795.203	2015.2
795.388	1992.72
795.572	2051.62
795.757	1942.35
795.941	1971.8
796.126	1966.95
796.31	1887.52
796.494	1968.31
796.679	1938.67
796.863	1905.92
797.048	2023.72
797.232	1956.88
797.416	1942.93
797.601	1916.77
797.785	2014.42
797.969	1998.34
798.153	1911.93
798.338	1978.19
798.522	2053.95
798.706	2017.91
798.89	2022.56
799.074	2117.88
799.258	2067.12
799.443	2006.09
799.627	2026.24
799.811	2052.4
799.995	1975.29
800.179	1925.49
800.363	1940.99
800.547	2006.67
800.731	2061.31
800.915	1969.28
801.099	1971.41
801.283	2012.48
801.467	2011.13
801.651	2008.61
801.835	2061.5
802.019	2019.46
802.202	2052.2
802.386	1941.77
802.57	1944.09
802.754	1949.9
802.938	1912.32
803.121	1941.19
803.305	2023.72
803.489	1957.27
803.673	2004.93
803.856	1990.79
804.04	1966.57
804.224	1983.42
804.407	1948.35
804.591	1923.36
804.775	1970.05
804.958	1950.49
805.142	2045.03
805.326	1966.37
805.509	1950.49
805.693	1969.09
805.876	1976.25
806.06	1977.8
806.243	2019.27
806.427	2040.38
806.61	2054.92
806.794	1974.12
806.977	2024.11
807.16	2001.83
807.344	1976.64
807.527	1979.55
807.71	1933.24
807.894	1996.6
808.077	2011.71
808.26	1970.44
808.444	1930.14
808.627	1992.53
808.81	1931.3
808.993	1872.02
809.177	1871.82
809.36	1919.68
809.543	1903.6
809.726	1829.2
809.909	1853.81
810.092	1839.08
810.276	1824.36
810.459	1846.83
810.642	1833.46
810.825	1850.32
811.008	1817.58
811.191	1728.45
811.374	1747.63
811.557	1779.21
811.74	1836.17
811.923	1719.35
812.106	1731.94
812.289	1719.15
812.472	1675.95
812.654	1706.95
812.837	1676.53
813.02	1675.36
813.203	1599.22
813.386	1542.45
813.569	1524.05
813.751	1497.89
813.934	1536.64
814.117	1530.25
814.3	1482.59
814.482	1483.17
814.665	1422.91
814.848	1426.98
815.03	1343.09
815.213	1347.16
815.396	1295.62
815.578	1311.12
815.761	1298.33
815.943	1372.34
816.126	1296.78
816.309	1248.35
816.491	1222.38
816.674	1139.65
816.856	1203.4
817.039	1224.9
817.221	1284.77
817.403	1200.68
817.586	1236.14
817.768	1240.79
817.951	1197.58
818.133	1174.72
818.315	1213.28
818.498	1263.85
818.68	1292.13
818.862	1241.18
819.045	1288.45
819.227	1273.34
819.409	1271.21
819.591	1276.44
819.774	1253.77
819.956	1234.4
820.138	1327.01
820.32	1295.23
820.502	1304.92
820.684	1398.5
820.866	1372.34
821.048	1411.67
821.231	1404.7
821.413	1423.11
821.595	1390.17
821.777	1403.54
821.959	1390.94
822.141	1436.09
822.323	1335.53
822.505	1265.4
822.686	1255.71
822.868	1209.6
823.05	1144.69
823.232	1116.79
823.414	1027.28
823.596	1113.5
823.778	1124.54
823.96	1123.18
824.141	1136.17
824.323	1118.92
824.505	1198.36
824.687	1257.84
824.868	1295.62
825.05	1381.84
825.232	1371.57
825.413	1420.39
825.595	1362.08
825.777	1305.31
825.958	1373.89
826.14	1372.15
826.321	1403.15
826.503	1357.23
826.685	1363.24
826.866	1399.86
827.048	1375.25
827.229	1317.51
827.411	1334.95
827.592	1238.85
827.773	1279.73
827.955	1205.14
828.136	1247.38
828.318	1211.34
828.499	1261.91
828.68	1180.53
828.862	1230.52
829.043	1264.04
829.224	1217.93
829.406	1196.81
829.587	1219.67
829.768	1233.62
829.949	1205.33
830.131	1231.68
830.312	1283.03
830.493	1181.7
830.674	1256.48
830.855	1219.86
831.036	1213.66
831.218	1290.58
831.399	1296.98
831.58	1234.01
831.761	1240.4
831.942	1262.3
832.123	1264.62
832.304	1190.42
832.485	1186.54
832.666	1202.04
832.847	1241.56
833.028	1236.14
833.209	1202.82
833.389	1201.46
833.57	1181.12
833.751	1198.94
833.932	1258.42
834.113	1233.62
834.294	1209.01
834.475	1268.11
834.655	1301.82
834.836	1282.45
835.017	1252.41
835.198	1207.66
835.378	1240.21
835.559	1305.11
835.74	1241.56
835.92	1227.23
836.101	1228.2
836.281	1266.17
836.462	1244.28
836.643	1316.35
836.823	1300.66
837.004	1283.22
837.184	1364.59
837.365	1294.26
837.545	1303.37
837.726	1265.78
837.906	1319.64
838.087	1297.36
838.267	1273.53
838.448	1240.6
838.628	1278.96
838.808	1244.28
838.989	1338.05
839.169	1261.52
839.349	1297.56
839.53	1266.17
839.71	1258.23
839.89	1231.1
840.07	1344.25
840.251	1253.96
840.431	1313.83
840.611	1271.4
840.791	1240.98
840.971	1300.85
841.151	1274.89
841.332	1222.96
841.512	1325.46
841.692	1218.51
841.872	1265.59
842.052	1252.41
842.232	1291.36
842.412	1235.56
842.592	1260.55
842.772	1275.66
842.952	1293.88
843.132	1249.9
843.312	1227.61
843.492	1205.92
843.672	1284.96
843.851	1209.01
844.031	1245.44
844.211	1252.22
844.391	1209.4
844.571	1245.63
844.751	1238.46
844.93	1217.15
845.11	1206.5
845.29	1257.45
845.47	1280.31
845.649	1264.43
845.829	1308.02
846.009	1241.95
846.188	1258.42
846.368	1226.84
846.547	1246.02
846.727	1293.1
846.907	1195.45
847.086	1228.78
847.266	1253.38
847.445	1215.41
847.625	1165.62
847.804	1186.73
847.984	1227.03
848.163	1160.97
848.343	1205.33
848.522	1248.15
848.701	1224.9
848.881	1181.31
849.06	1228.2
849.239	1199.91
849.419	1216.96
849.598	1127.64
849.777	1144.69
849.957	1138.3
850.136	1083.08
850.315	1062.54
850.494	1096.25
850.674	1081.14
850.853	1149.15
851.032	1113.69
851.211	1167.55
851.39	1119.89
851.569	1075.52
851.748	1078.24
851.927	1144.88
852.107	1115.05
852.286	1074.75
852.465	1070.68
852.644	1147.98
852.823	1170.46
853.002	1119.12
853.181	1123.77
853.359	1113.11
853.538	1069.52
853.717	1156.7
853.896	1046.46
854.075	994.15
854.254	996.86
854.433	919.94
854.611	993.76
854.79	933.12
854.969	996.86
855.148	1019.72
855.327	971.48
855.505	1004.81
855.684	989.69
855.863	1009.84
856.041	980.59
856.22	1013.91
856.399	956.37
856.577	1096.84
856.756	1073.97
856.934	1181.31
857.113	1172.2
857.291	1070.1
857.47	1071.26
857.648	1074.75
857.827	1072.81
858.005	1107.88
858.184	1061.38
858.362	1147.4
858.541	1039.49
858.719	1073.78
858.898	1012.94
859.076	1027.86
859.254	1088.31
859.433	1027.28
859.611	1046.65
859.789	1022.82
859.967	1102.84
860.146	1110.98
860.324	998.41
860.502	1036.77
860.68	993.37
860.859	1012.56
861.037	1045.88
861.215	1060.8
861.393	1061.96
861.571	1016.82
861.749	987.56
861.927	999.38
862.105	1026.51
862.283	1031.54
862.461	1002.09
862.639	984.07
862.817	997.64
862.995	1010.04
863.173	1005.97
863.351	1002.67
863.529	1013.33
863.707	1070.1
863.885	1029.8
864.063	920.14
864.241	975.16
864.418	1056.73
864.596	971.48
864.774	946.68
864.952	955.21
865.129	986.79
865.307	940.48
865.485	912
865.663	1008.1
865.84	902.89
866.018	957.72
866.196	838.57
866.373	839.15
866.551	838.57
866.728	807.96
866.906	821.13
867.084	858.33
867.261	916.65
867.439	883.13
867.616	911.42
867.794	895.73
867.971	895.14
868.149	910.45
868.326	1008.68
868.503	919.56
868.681	922.66
868.858	912.39
869.035	890.49
869.213	953.07
869.39	888.17
869.567	981.75
869.745	889.14
869.922	924.01
870.099	959.47
870.276	918.78
870.454	923.04
870.631	932.54
870.808	918.78
870.985	970.51
871.162	966.83
871.339	908.13
871.517	883.71
871.694	873.64
871.871	913.16
872.048	888.17
872.225	858.33
872.402	894.56
872.579	843.61
872.756	895.53
872.933	864.34
873.11	884.29
873.287	911.81
873.463	898.63
873.64	858.14
873.817	900.96
873.994	861.82
874.171	857.56
874.348	878.48
874.524	835.86
874.701	853.88
874.878	780.83
875.055	893.98
875.231	867.63
875.408	863.56
875.585	804.47
875.762	834.11
875.938	839.35
876.115	824.23
876.291	842.25
876.468	832.95
876.645	793.04
876.821	836.83
876.998	802.34
877.174	860.46
877.351	828.88
877.527	808.35
877.704	851.94
877.88	813.19
878.057	826.56
878.233	869.38
878.409	766.69
878.586	842.06
878.762	808.15
878.938	810.86
879.115	775.02
879.291	794.4
879.467	726.39
879.644	759.91
879.82	795.56
879.996	769.4
880.172	739.18
880.349	766.5
880.525	801.76
880.701	752.74
880.877	760.1
881.053	790.33
881.229	761.46
881.405	808.73
881.581	748.48
881.757	774.25
881.933	777.93
882.109	813.19
882.285	775.21
882.461	739.18
882.637	774.83
882.813	717.48
882.989	753.52
883.165	809.51
883.341	728.33
883.517	802.73
883.693	783.35
883.869	793.04
884.044	729.68
884.22	806.6
884.396	792.46
884.572	812.03
884.747	800.6
884.923	791.68
885.099	809.9
885.275	809.9
885.45	752.74
885.626	765.92
885.801	715.35
885.977	746.15
886.153	694.03
886.328	781.8
886.504	757
886.679	785.29
886.855	763.59
887.03	800.98
887.206	777.54
887.381	790.71
887.557	759.91
887.732	790.71
887.908	791.3
888.083	793.43
888.258	777.73
888.434	759.91
888.609	759.52
888.784	770.57
888.96	796.72
889.135	744.99
889.31	708.76
889.485	762.62
889.661	759.33
889.836	816.29
890.011	798.27
890.186	725.81
890.361	722.9
890.537	764.56
890.712	748.09
890.887	752.93
891.062	779.86
891.237	821.71
891.412	734.92
891.587	780.64
891.762	798.66
891.937	812.61
892.112	738.21
892.287	745.77
892.462	708.76
892.637	679.7
892.812	689.19
892.987	726.97
893.161	669.24
893.336	700.82
893.511	712.44
893.686	697.13
893.861	683.38
894.035	712.25
894.21	690.74
894.385	659.35
894.56	675.05
894.734	639.79
894.909	625.45
895.084	636.88
895.258	609.56
895.433	640.75
895.608	602.97
895.782	575.07
895.957	596.39
896.131	613.82
896.306	531.87
896.48	550.86
896.655	548.53
896.829	469.09
897.004	483.82
897.178	529.93
897.353	503.78
897.527	549.31
897.701	528.77
897.876	471.61
898.05	543.3
898.224	505.91
898.399	585.73
898.573	517.34
898.747	424.34
898.921	474.33
899.096	382.68
899.27	395.28
899.444	430.15
899.618	405.55
899.792	461.15
899.967	458.24
900.141	477.43
900.315	423.95
900.489	423.56
900.663	472.58
900.837	464.83
901.011	426.47
901.185	509.59
901.359	450.11
901.533	450.49
901.707	465.99
901.881	462.7
902.055	401.67
902.229	447.59
902.403	514.82
902.576	442.16
902.75	459.6
902.924	561.51
903.098	459.79
903.272	541.56
903.446	555.51
903.619	517.92
903.793	548.72
903.967	527.8
904.14	559.77
904.314	582.82
904.488	584.76
904.661	612.27
904.835	558.02
905.009	597.55
905.182	631.84
905.356	584.96
905.529	553.76
905.703	545.62
905.876	548.92
906.05	532.84
906.223	516.56
906.397	480.14
906.57	471.81
906.744	452.63
906.917	456.89
907.09	448.75
907.264	424.34
907.437	432.67
907.61	382.1
907.784	411.16
907.957	410.58
908.13	409.81
908.304	448.17
908.477	402.25
908.65	428.02
908.823	373.38
908.996	454.56
909.17	400.7
909.343	384.62
909.516	392.95
909.689	395.08
909.862	362.92
910.035	394.7
910.208	382.49
910.381	369.31
910.554	486.14
910.727	387.72
910.9	379.39
911.073	388.5
911.246	456.11
911.419	444.29
911.592	430.73
911.765	362.53
911.938	356.91
912.11	391.79
912.283	412.33
912.456	400.9
912.629	373
912.802	367.18
912.974	316.62
913.147	312.93
913.32	274.57
913.493	284.84
913.665	316.81
913.838	318.55
914.01	333.28
914.183	333.67
914.356	329.6
914.528	341.8
914.701	388.11
914.873	368.35
915.046	343.74
915.218	320.88
915.391	270.31
915.563	289.49
915.736	310.8
915.908	330.57
916.081	307.7
916.253	308.09
916.425	322.43
916.598	330.95
916.77	337.93
916.942	290.85
917.115	224.2
917.287	344.71
917.459	339.28
917.632	292.98
917.804	252.87
917.976	337.54
918.148	316.62
918.32	319.91
918.493	331.34
918.665	396.63
918.837	333.08
919.009	397.6
919.181	407.1
919.353	357.88
919.525	355.56
919.697	350.71
919.869	346.26
920.041	394.31
920.213	448.56
920.385	399.73
920.557	369.9
920.729	377.84
920.901	383.65
921.073	368.93
921.244	331.92
921.416	403.8
921.588	364.86
921.76	336.76
921.932	406.71
922.103	358.27
922.275	369.12
922.447	362.34
922.619	312.16
922.79	356.72
922.962	356.33
923.134	353.23
923.305	304.6
923.477	305.77
923.648	308.67
923.82	341.61
923.991	274.77
924.163	281.16
924.335	317.97
924.506	294.14
924.677	353.81
924.849	272.05
925.02	308.09
925.192	329.98
925.363	288.33
925.535	294.53
925.706	296.85
925.877	355.95
926.049	272.44
926.22	296.47
926.391	304.8
926.562	330.37
926.734	287.94
926.905	317.58
927.076	275.15
927.247	298.4
927.419	262.56
927.59	251.52
927.761	265.66
927.932	243.57
928.103	262.17
928.274	223.81
928.445	196.49
928.616	235.63
928.787	242.8
928.958	260.82
929.129	232.34
929.3	206.37
929.471	170.14
929.642	157.74
929.813	132.75
929.984	203.27
930.155	143.6
930.326	175.18
930.496	155.22
930.667	95.94
930.838	131.78
931.009	99.81
931.18	117.25
931.35	109.89
931.521	130.62
931.692	114.54
931.863	57.38
932.033	89.35
932.204	117.83
932.374	106.98
932.545	62.23
932.716	103.3
932.886	82.57
933.057	32.39
933.227	42.46
933.398	115.51
933.568	42.85
933.739	39.94
933.909	32.19
934.08	71.33
934.25	-2.87
934.421	16.11
934.591	72.3
934.761	25.41
934.932	-14.5
935.102	28.71
935.272	49.63
935.443	32.39
935.613	23.28
935.783	30.26
935.953	-1.91
936.123	171.89
936.294	-2.1
936.464	16.31
936.634	14.18
936.804	7.59
936.974	-8.69
937.144	48.66
937.314	38.2
937.484	10.11
937.655	5.26
937.825	77.92
937.995	24.44
938.165	75.21
938.334	25.61
938.504	37.04
938.674	4.1
938.844	21.73
939.014	109.31
939.184	55.25
939.354	119.57
939.524	85.47
939.694	64.74
939.863	56.22
940.033	132.94
940.203	121.51
940.373	87.02
940.542	92.06
940.712	82.18
940.882	99.04
941.051	102.52
941.221	91.48
941.391	138.95
941.56	51.57
941.73	66.88
941.899	160.07
942.069	67.26
942.238	106.21
942.408	70.94
942.577	100.2
942.747	73.27
942.916	25.41
943.086	38.78
943.255	94.58
943.425	62.03
943.594	34.52
943.763	-23.99
943.933	19.79
944.102	-14.31
944.271	46.53
944.441	82.96
944.61	47.89
944.779	31.61
944.948	149.41
945.117	25.8
945.287	24.83
945.456	-17.79
945.625	19.79
945.794	61.26
945.963	-1.13
946.132	77.72
946.301	46.34
946.47	73.85
946.639	6.23
946.808	27.93
946.977	40.53
947.146	124.81
947.315	64.16
947.484	37.04
947.653	27.74
947.822	27.35
947.991	28.9
948.16	116.09
948.329	87.22
948.498	34.52
948.666	33.74
948.835	69.2
949.004	36.84
949.173	38.39
949.341	64.36
949.51	75.79
949.679	88.57
949.847	79.47
950.016	106.98
950.185	96.52
950.353	27.93
950.522	35.29
950.69	88.19
950.859	32.39
951.028	90.32
951.196	55.25
951.365	31.42
951.533	48.66
951.701	58.35
951.87	68.04
952.038	22.89
952.207	55.44
952.375	131.78
952.543	27.16
952.712	36.26
952.88	33.16
953.048	102.33
953.217	65.13
953.385	53.89
953.553	73.07
953.721	33.36
953.89	45.76
954.058	4.49
954.226	2.55
954.394	77.53
954.562	3.91
954.73	21.93
954.898	35.1
955.067	101.94
955.235	56.61
955.403	93.61
955.571	137.59
955.739	67.84
955.907	27.16
956.075	23.28
956.243	55.25
956.41	79.08
956.578	8.56
956.746	21.54
956.914	27.93
957.082	77.14
957.25	96.13
957.418	32
957.585	38.59
957.753	93.61
957.921	31.81
958.089	47.11
958.256	63.58
958.424	71.53
958.592	49.63
958.759	29.29
958.927	87.61
959.095	32.78
959.262	54.48
959.43	84.7
959.597	40.72
959.765	56.41
959.932	29.87
960.1	77.34
960.267	91.29
960.435	54.09
960.602	80.82
960.77	55.25
960.937	9.72
961.104	58.93
961.272	4.29
961.439	45.76
961.606	63.19
961.774	90.9
961.941	26.77
962.108	66.68
962.275	77.92
962.443	79.86
962.61	55.44
962.777	129.84
962.944	75.4
963.111	86.83
963.278	85.67
963.446	57.58
963.613	63.58
963.78	94.97
963.947	89.35
964.114	90.32
964.281	154.45
964.448	73.85
964.615	73.66
964.782	67.07
964.949	97.29
965.116	93.22
965.282	114.15
965.449	53.89
965.616	40.53
965.783	63.78
965.95	90.32
966.117	19.21
966.283	51.38
966.45	83.15
966.617	70.94
966.784	94.77
966.95	108.72
967.117	79.66
967.284	37.04
967.45	44.79
967.617	109.5
967.784	87.8
967.95	121.32
968.117	64.16
968.283	97.87
968.45	167.82
968.616	88.77
968.783	106.21
968.949	75.98
969.116	113.76
969.282	60.29
969.449	73.85
969.615	97.49
969.781	56.8
969.948	70.36
970.114	44.21
970.28	120.93
970.447	94.39
970.613	126.55
970.779	69.78
970.945	83.15
971.112	106.01
971.278	72.69
971.444	50.6
971.61	113.57
971.776	73.85
971.942	102.52
972.108	113.37
972.275	68.62
972.441	68.23
972.607	141.66
972.773	54.28
972.939	107.76
973.105	90.71
973.271	23.09
973.437	44.79
973.602	72.3
973.768	98.46
973.934	88.77
974.1	106.79
974.266	25.99
974.432	85.86
974.598	56.8
974.763	92.45
974.929	56.99
975.095	116.86
975.261	52.34
975.426	28.9
975.592	85.09
975.758	129.07
975.923	27.54
976.089	30.26
976.255	105.62
976.42	102.91
976.586	91.67
976.751	106.98
976.917	175.95
977.082	85.67
977.248	24.44
977.413	28.32
977.579	64.74
977.744	74.24
977.91	37.04
978.075	40.72
978.24	83.92
978.406	74.04
978.571	59.32
978.736	45.18
978.902	78.69
979.067	53.51
979.232	21.54
979.397	52.54
979.563	130.23
979.728	25.61
979.893	49.63
980.058	30.26
980.223	88.38
980.388	69.01
980.554	58.93
980.719	51.18
980.884	73.46
981.049	95.55
981.214	51.38
981.379	77.92
981.544	43.43
981.709	68.43
981.874	24.25
982.039	62.42
982.204	49.83
982.368	50.21
982.533	52.15
982.698	109.11
982.863	94.77
983.028	83.73
983.193	99.42
983.357	85.28
983.522	72.49
983.687	43.24
983.852	72.3
984.016	81.21
984.181	62.61
984.346	87.8
984.51	100.39
984.675	63.97
984.839	85.67
985.004	55.06
985.168	99.62
985.333	73.46
985.498	70.56
985.662	90.9
985.827	101.75
985.991	54.86
986.155	39.17
986.32	94.77
986.484	140.5
986.649	88.77
986.813	35.88
986.977	82.18
987.142	92.84
987.306	18.83
987.47	43.43
987.634	57.77
987.799	74.24
987.963	79.27
988.127	87.61
988.291	126.36
988.455	64.36
988.62	23.86
988.784	72.3
988.948	77.14
989.112	43.24
989.276	69.78
989.44	88.57
989.604	33.36
989.768	51.96
989.932	138.56
990.096	36.26
990.26	14.95
990.424	14.56
990.588	33.36
990.752	108.53
990.915	108.34
991.079	52.54
991.243	31.81
991.407	101.36
991.571	72.88
991.734	100.97
991.898	71.72
992.062	149.22
992.226	41.88
992.389	35.68
992.553	25.41
992.717	18.44
992.88	62.03
993.044	61.26
993.207	73.27
993.371	68.43
993.535	97.87
993.698	72.49
993.862	114.34
994.025	98.65
994.189	70.17
994.352	67.07
994.515	62.61
994.679	91.09
994.842	25.03
995.006	75.01
995.169	61.26
995.332	63.58
995.496	69.39
995.659	12.24
995.822	53.89
995.985	61.06
996.149	88.38
996.312	50.41
996.475	104.07
996.638	55.44
996.801	93.03
996.964	99.23
997.128	43.43
997.291	56.03
997.454	88.38
997.617	13.79
997.78	86.25
997.943	32.78
998.106	69.59
998.269	30.06
998.432	48.08
998.595	64.16
998.758	4.49
998.92	8.17
999.083	7.78
999.246	55.44
999.409	18.83
999.572	-9.27
999.735	36.84
999.897	64.55
1000.06	23.09
1000.223	35.88
1000.386	77.34
1000.548	39.56
1000.711	82.37
1000.874	55.44
1001.036	35.1
1001.199	68.23
1001.361	3.71
1001.524	56.99
1001.687	67.26
1001.849	23.86
1002.012	56.22
1002.174	75.79
1002.337	87.8
1002.499	36.26
1002.661	47.31
1002.824	18.24
1002.986	27.54
1003.149	50.21
1003.311	24.25
1003.473	105.24
1003.636	-3.84
1003.798	74.04
1003.96	79.27
1004.123	38.78
1004.285	18.44
1004.447	43.04
1004.609	41.49
1004.771	113.57
1004.933	-8.11
1005.096	0.42
1005.258	-6.56
1005.42	7.98
1005.582	63
1005.744	27.74
1005.906	5.26
1006.068	50.02
1006.23	-2.29
1006.392	-18.57
1006.554	4.29
1006.716	79.08
1006.878	57.77
1007.04	-6.94
1007.202	28.71
1007.363	50.41
1007.525	40.14
1007.687	59.51
1007.849	53.89
1008.011	-11.59
1008.172	-16.44
1008.334	37.23
1008.496	40.91
1008.658	-47.82
1008.819	37.81
1008.981	-0.36
1009.143	12.82
1009.304	34.13
1009.466	67.26
1009.627	92.26
1009.789	127.52
1009.95	59.32
1010.112	38.59
1010.273	50.99
1010.435	31.23
1010.596	-1.32
1010.758	19.6
1010.919	24.25
1011.081	-21.67
1011.242	4.68
1011.403	37.81
1011.565	24.83
1011.726	26.19
1011.887	-0.94
1012.049	36.46
1012.21	59.13
1012.371	97.29
1012.532	-39.49
1012.693	24.06
1012.855	9.33
1013.016	42.27
1013.177	59.13
1013.338	35.1
1013.499	93.42
1013.66	58.16
1013.821	64.36
1013.982	51.18
1014.143	32
1014.304	26.96
1014.465	65.33
1014.626	80.24
1014.787	11.66
1014.948	95.16
1015.109	-42.01
1015.27	60.48
1015.431	12.63
1015.592	7.59
1015.752	67.26
1015.913	37.62
1016.074	39.36
1016.235	12.43
1016.395	46.34
1016.556	11.08
1016.717	13.59
1016.877	59.32
1017.038	-2.49
1017.199	49.24
1017.359	37.23
1017.52	33.16
1017.681	14.76
1017.841	23.28
1018.002	-3.07
1018.162	-6.17
1018.323	51.96
1018.483	22.31
1018.644	4.68
1018.804	-40.07
1018.964	-27.29
1019.125	-4.04
1019.285	24.83
1019.446	21.34
1019.606	-8.69
1019.766	-23.99
1019.926	39.56
1020.087	33.16
1020.247	1
1020.407	26.38
1020.567	59.51
1020.728	19.21
1020.888	-24.57
1021.048	6.04
1021.208	-36.59
1021.368	13.01
1021.528	56.22
1021.688	32.78
1021.848	62.61
1022.008	15.53
1022.168	33.16
1022.328	25.61
1022.488	51.38
1022.648	0.81
1022.808	6.62
1022.968	10.88
1023.128	9.53
1023.288	16.5
1023.448	19.21
1023.608	24.64
1023.767	40.33
1023.927	-16.05
1024.087	-14.11
1024.247	-33.1
1024.406	19.41
1024.566	-0.55
1024.726	-15.27
1024.885	2.16
1025.045	22.51
1025.205	10.69
1025.364	24.25
1025.524	41.69
1025.683	-12.95
1025.843	52.73
1026.003	-1.52
1026.162	64.74
1026.321	49.83
1026.481	34.13
1026.64	25.22
1026.8	37.62
1026.959	27.54
1027.119	16.5
1027.278	-11.21
1027.437	24.25
1027.597	16.11
1027.756	47.69
1027.915	46.14
1028.074	48.28
1028.234	6.43
1028.393	17.86
1028.552	-1.91
1028.711	-53.25
1028.87	44.01
1029.03	-13.53
1029.189	22.31
1029.348	-46.85
1029.507	-11.21
1029.666	12.82
1029.825	-28.25
1029.984	23.48
1030.143	26.58
1030.302	-22.05
1030.461	-43.95
1030.62	20.96
1030.779	23.09
1030.938	13.98
1031.097	-36.2
1031.255	43.24
1031.414	75.21
1031.573	65.33
1031.732	-59.64
1031.891	15.34
1032.049	48.86
1032.208	56.41
1032.367	-10.04
1032.525	-3.26
1032.684	19.6
1032.843	-22.44
1033.001	-46.66
1033.16	144.57
1033.319	35.1
1033.477	32.97
1033.636	-9.27
1033.794	-43.95
1033.953	38.2
1034.111	46.53
1034.27	-3.07
1034.428	22.51
1034.587	-34.84
1034.745	7.2
1034.903	16.11
1035.062	60.29
1035.22	-33.29
1035.378	47.31
1035.537	-9.27
1035.695	41.88
1035.853	-21.67
1036.011	32.97
1036.17	18.05
1036.328	-40.07
1036.486	13.79
1036.644	5.46
1036.802	-57.7
1036.96	-7.33
1037.119	21.54
1037.277	10.3
1037.435	-19.73
1037.593	-16.82
1037.751	17.47
1037.909	37.62
1038.067	37.62
