Data from pine_FLMT105791__116__17-22-15-075.txt Node

Date: Mon Mar 20 17:22:15 GMT 2023
User: antho
Spectrometer: FLMT10579
Trigger mode: 0
Integration Time (sec): 1.000000E-1
Scans to average: 10
Electric dark correction enabled: true
Nonlinearity correction enabled: false
Boxcar width: 0
XAxis mode: Wavelengths
Number of Pixels in Spectrum: 3648
>>>>>Begin Spectral Data<<<<<
345.248	-153.95
345.464	-153.95
345.681	-153.95
345.898	-144.84
346.114	-158.79
346.331	-14.06
346.548	32.05
346.764	-18.52
346.981	10.16
347.197	-28.59
347.414	23.72
347.631	15.77
347.847	32.44
348.064	-16.97
348.28	12.29
348.497	-41.77
348.713	-6.51
348.93	36.89
349.146	17.91
349.363	-28.79
349.579	21.2
349.796	-19.68
350.012	-12.13
350.229	33.02
350.445	5.12
350.661	-14.26
350.878	-6.31
351.094	13.26
351.311	-6.31
351.527	7.06
351.743	-22.59
351.96	39.8
352.176	32.24
352.392	46.77
352.609	23.52
352.825	-10.38
353.041	23.72
353.257	6.09
353.474	26.04
353.69	10.35
353.906	6.28
354.122	-17.16
354.339	40.96
354.555	3.57
354.771	-29.76
354.987	47.16
355.203	69.83
355.42	0.66
355.636	-10.96
355.852	-28.59
356.068	0.66
356.284	-10.19
356.5	64.21
356.716	16.74
356.932	20.23
357.148	14.03
357.364	14.42
357.58	68.67
357.796	35.15
358.012	57.43
358.228	24.11
358.444	-78.39
358.66	56.07
358.876	13.84
359.092	-15.03
359.308	21.78
359.524	29.34
359.74	14.81
359.956	-3.02
360.172	22.75
360.388	58.2
360.604	-15.81
360.819	87.27
361.035	26.82
361.251	29.34
361.467	-24.91
361.683	54.14
361.898	27.4
362.114	49.29
362.33	16.36
362.546	53.36
362.762	25.27
362.977	3.57
363.193	0.86
363.409	44.45
363.624	-3.6
363.84	-3.21
364.056	-1.28
364.271	9.77
364.487	18.29
364.703	5.51
364.918	-19.68
365.134	6.28
365.35	20.62
365.565	110.71
365.781	33.41
365.996	20.81
366.212	80.87
366.427	42.12
366.643	3.18
366.858	-19.49
367.074	-10.96
367.289	68.28
367.505	110.9
367.72	-22.78
367.936	18.1
368.151	51.42
368.367	23.14
368.582	27.4
368.798	-10.77
369.013	70.41
369.228	0.66
369.444	18.87
369.659	75.64
369.874	47.36
370.09	45.81
370.305	-32.28
370.52	-0.31
370.736	56.46
370.951	5.51
371.166	38.64
371.381	80.87
371.597	35.34
371.812	-3.41
372.027	-5.73
372.242	20.04
372.458	113.81
372.673	9.96
372.888	0.66
373.103	32.05
373.318	84.17
373.533	39.02
373.749	50.84
373.964	-41.38
374.179	59.17
374.394	6.47
374.609	97.92
374.824	-52.42
375.039	66.54
375.254	-4.96
375.469	67.31
375.684	21.59
375.899	71.19
376.114	24.88
376.329	29.53
376.544	57.62
376.759	43.29
376.974	0.27
377.189	4.54
377.404	21.59
377.619	72.54
377.834	-19.29
378.049	-19.1
378.264	-13.87
378.478	31.27
378.693	-3.02
378.908	31.47
379.123	19.26
379.338	62.27
379.553	29.92
379.767	31.47
379.982	61.89
380.197	53.17
380.412	29.53
380.626	55.69
380.841	95.21
381.056	52.2
381.271	73.32
381.485	6.86
381.7	-1.66
381.915	20.23
382.129	11.32
382.344	54.14
382.559	1.05
382.773	72.15
382.988	-20.07
383.202	28.17
383.417	5.7
383.632	128.34
383.846	47.36
384.061	55.3
384.275	31.47
384.49	56.46
384.704	55.1
384.919	24.49
385.133	27.98
385.348	60.53
385.562	-22.59
385.777	50.26
385.991	10.74
386.206	12.87
386.42	10.16
386.634	104.7
386.849	42.9
387.063	27.59
387.277	-9.03
387.492	10.54
387.706	-2.05
387.92	10.93
388.135	82.04
388.349	52.78
388.563	46
388.778	36.12
388.992	70.22
389.206	52.59
389.42	99.86
389.635	35.34
389.849	57.24
390.063	81.45
390.277	31.66
390.491	88.24
390.706	54.14
390.92	77.39
391.134	50.65
391.348	39.8
391.562	-0.89
391.776	17.52
391.99	4.54
392.205	78.16
392.419	22.75
392.633	51.04
392.847	69.25
393.061	36.31
393.275	88.24
393.489	38.25
393.703	36.51
393.917	71.38
394.131	10.74
394.345	76.03
394.559	66.34
394.773	9.57
394.986	54.14
395.2	18.29
395.414	61.11
395.628	10.93
395.842	42.71
396.056	19.84
396.27	-1.08
396.484	71.96
396.697	34.18
396.911	88.04
397.125	60.72
397.339	80.29
397.553	65.18
397.766	84.94
397.98	89.59
398.194	89.59
398.408	16.55
398.621	52.59
398.835	87.27
399.049	58.59
399.262	96.57
399.476	69.44
399.69	81.26
399.903	124.47
400.117	34.96
400.331	59.56
400.544	49.68
400.758	174.65
400.971	78.35
401.185	108.77
401.398	53.55
401.612	123.3
401.826	108.19
402.039	119.82
402.253	41.54
402.466	89.4
402.68	41.16
402.893	79.13
403.106	76.22
403.32	65.37
403.533	98.5
403.747	87.46
403.96	70.8
404.174	82.23
404.387	35.15
404.6	61.3
404.814	110.52
405.027	73.7
405.24	76.8
405.454	42.51
405.667	105.29
405.88	2.6
406.094	108
406.307	107.42
406.52	89.79
406.733	34.96
406.947	30.69
407.16	133.96
407.373	92.69
407.586	57.43
407.799	20.62
408.012	100.64
408.226	81.45
408.439	105.87
408.652	55.88
408.865	90.75
409.078	120.98
409.291	63.05
409.504	41.16
409.717	83.2
409.93	104.7
410.143	87.46
410.357	28.95
410.57	21.97
410.783	90.75
410.996	89.01
411.209	94.24
411.421	121.95
411.634	54.33
411.847	59.37
412.06	114.78
412.273	88.82
412.486	100.64
412.699	179.68
412.912	76.42
413.125	105.48
413.338	70.02
413.55	123.3
413.763	102.38
413.976	108
414.189	77.97
414.402	73.51
414.615	138.61
414.827	58.79
415.04	107.42
415.253	103.74
415.466	128.54
415.678	160.12
415.891	83.97
416.104	90.56
416.316	84.36
416.529	72.54
416.742	120.4
416.954	129.89
417.167	108.77
417.38	86.3
417.592	132.99
417.805	52.59
418.017	43.87
418.23	117.88
418.442	65.18
418.655	72.93
418.868	111.29
419.08	136.29
419.293	162.44
419.505	107.61
419.718	132.02
419.93	159.34
420.142	79.52
420.355	129.12
420.567	140.74
420.78	100.05
420.992	105.67
421.205	164.96
421.417	72.54
421.629	104.51
421.842	91.34
422.054	55.49
422.266	122.53
422.479	181.82
422.691	103.74
422.903	145.78
423.115	109.55
423.328	85.72
423.54	132.22
423.752	99.09
423.964	87.27
424.177	151.01
424.389	104.7
424.601	220.18
424.813	145.97
425.025	152.95
425.238	164.77
425.45	108.58
425.662	110.32
425.874	430.39
426.086	144.23
426.298	140.35
426.51	156.24
426.722	141.9
426.934	128.54
427.146	154.11
427.358	101.41
427.57	169.03
427.782	138.22
427.994	139.38
428.206	119.43
428.418	89.59
428.63	141.52
428.842	184.33
429.054	137.06
429.266	167.87
429.478	128.73
429.69	142.87
429.902	72.54
430.114	172.71
430.325	149.27
430.537	118.85
430.749	127.95
430.961	79.71
431.173	139.77
431.384	143.84
431.596	80.49
431.808	130.47
432.02	157.98
432.231	183.95
432.443	201.97
432.655	162.44
432.867	132.99
433.078	161.47
433.29	237.03
433.502	209.52
433.713	214.56
433.925	218.24
434.136	225.02
434.348	126.79
434.56	125.63
434.771	251.76
434.983	132.41
435.194	152.95
435.406	177.75
435.617	215.33
435.829	242.65
436.04	211.65
436.252	209.72
436.463	238
436.675	214.56
436.886	234.51
437.098	223.08
437.309	248.27
437.521	221.53
437.732	216.5
437.943	211.07
438.155	199.45
438.366	154.69
438.578	263.77
438.789	213.2
439	247.11
439.211	193.44
439.423	222.89
439.634	234.71
439.845	231.22
440.057	203.52
440.268	246.53
440.479	228.51
440.69	247.88
440.902	238.58
441.113	212.43
441.324	226.96
441.535	245.36
441.746	289.73
441.957	194.99
442.168	214.95
442.38	269
442.591	287.6
442.802	220.95
443.013	245.95
443.224	263.58
443.435	219.21
443.646	238.58
443.857	263.38
444.068	253.5
444.279	232.58
444.49	329.26
444.701	274.81
444.912	371.88
445.123	305.43
445.334	310.66
445.545	282.76
445.756	286.25
445.967	239.94
446.178	290.51
446.388	304.07
446.599	309.5
446.81	311.82
447.021	240.13
447.232	322.86
447.443	363.74
447.653	260.28
447.864	314.34
448.075	292.83
448.286	337.2
448.496	321.12
448.707	335.07
448.918	273.46
449.129	365.88
449.339	270.94
449.55	320.34
449.761	306.4
449.971	328.48
450.182	304.26
450.393	337.78
450.603	277.33
450.814	344.95
451.024	314.34
451.235	364.91
451.446	377.89
451.656	370.14
451.867	296.71
452.077	333.33
452.288	379.83
452.498	391.45
452.709	342.63
452.919	348.24
453.13	319.18
453.34	364.71
453.55	283.53
453.761	337.01
453.971	359.87
454.182	365.1
454.392	358.71
454.602	424.19
454.813	366.07
455.023	374.79
455.233	299.61
455.444	346.89
455.654	277.72
455.864	351.15
456.075	325.96
456.285	325.96
456.495	353.48
456.705	358.51
456.916	376.73
457.126	424.58
457.336	356.19
457.546	302.52
457.756	324.99
457.967	405.4
458.177	359.29
458.387	390.68
458.597	335.84
458.807	349.79
459.017	348.05
459.227	352.31
459.437	350.57
459.647	377.31
459.857	364.13
460.068	333.52
460.278	398.62
460.488	371.69
460.698	446.86
460.908	370.33
461.117	337.98
461.327	343.01
461.537	393.78
461.747	390.09
461.957	394.16
462.167	481.16
462.377	430.2
462.587	394.94
462.797	424.19
463.007	393.58
463.216	418.77
463.426	450.16
463.636	433.3
463.846	377.31
464.056	395.33
464.265	428.07
464.475	384.28
464.685	418.19
464.895	425.94
465.104	403.66
465.314	459.84
465.524	398.04
465.733	403.07
465.943	454.61
466.153	468.37
466.362	444.73
466.572	447.64
466.782	428.46
466.991	442.41
467.201	475.92
467.41	363.55
467.62	445.51
467.829	405.59
468.039	456.94
468.249	431.17
468.458	447.64
468.668	478.06
468.877	447.83
469.086	490.26
469.296	504.21
469.505	432.72
469.715	523.97
469.924	443.18
470.134	492.97
470.343	494.72
470.552	469.92
470.762	446.28
470.971	448.22
471.18	469.72
471.39	461.97
471.599	439.89
471.808	543.74
472.018	448.22
472.227	510.02
472.436	529.98
472.645	499.56
472.855	453.84
473.064	552.07
473.273	519.52
473.482	518.16
473.691	565.05
473.901	532.69
474.11	536.76
474.319	573.96
474.528	541.22
474.737	575.32
474.946	538.89
475.155	546.45
475.364	596.24
475.573	549.55
475.783	570.28
475.992	593.14
476.201	567.95
476.41	530.56
476.619	553.62
476.828	564.66
477.037	546.64
477.245	571.44
477.454	598.76
477.663	589.07
477.872	584.23
478.081	639.06
478.29	552.07
478.499	698.35
478.708	592.95
478.917	671.61
479.125	589.85
479.334	588.88
479.543	601.67
479.752	653.2
479.961	642.93
480.169	682.65
480.378	646.62
480.587	766.93
480.796	645.45
481.004	642.35
481.213	661.53
481.422	673.74
481.63	639.64
481.839	695.25
482.048	769.64
482.256	688.08
482.465	710.75
482.674	709.58
482.882	727.6
483.091	789.21
483.299	723.15
483.508	745.81
483.716	719.66
483.925	730.31
484.134	696.6
484.342	719.46
484.551	721.79
484.759	734
484.967	746.4
485.176	762.67
485.384	735.93
485.593	794.06
485.801	734.77
486.01	744.85
486.218	706.48
486.426	624.72
486.635	655.14
486.843	655.33
487.051	709.58
487.26	679.36
487.468	732.06
487.676	767.51
487.885	713.07
488.093	753.37
488.301	750.85
488.509	763.64
488.717	822.34
488.926	789.99
489.134	778.94
489.342	797.74
489.55	753.95
489.758	804.71
489.967	765.38
490.175	906.04
490.383	813.04
490.591	893.64
490.799	804.13
491.007	876.21
491.215	861.29
491.423	826.61
491.631	854.89
491.839	856.25
492.047	864.19
492.255	800.84
492.463	784.76
492.671	807.62
492.879	875.82
493.087	827.19
493.295	850.24
493.503	858.77
493.711	874.85
493.919	911.66
494.127	902.94
494.334	941.11
494.542	857.41
494.75	896.94
494.958	862.84
495.166	946.34
495.374	933.17
495.581	959.13
495.789	917.86
495.997	970.37
496.205	901.78
496.412	904.11
496.62	904.11
496.828	904.3
497.035	910.89
497.243	960.68
497.451	948.47
497.658	943.82
497.866	982.77
498.074	980.83
498.281	892.87
498.489	1016.28
498.696	944.79
498.904	927.74
499.112	911.47
499.319	1007.37
499.527	927.74
499.734	1046.51
499.942	954.29
500.149	934.52
500.357	967.46
500.564	921.54
500.771	961.84
500.979	901.59
501.186	942.08
501.394	970.56
501.601	948.09
501.808	982.77
502.016	976.95
502.223	969.59
502.43	970.75
502.638	954.67
502.845	959.71
503.052	1067.82
503.26	977.73
503.467	1068.79
503.674	981.8
503.881	988
504.089	1059.1
504.296	1056.97
504.503	949.05
504.71	1031.01
504.917	958.74
505.125	1063.56
505.332	1021.71
505.539	1043.6
505.746	1104.83
505.953	1093.01
506.16	1050.58
506.367	1116.84
506.574	1129.82
506.781	1129.82
506.988	1067.63
507.195	1111.61
507.402	1072.08
507.609	1110.83
507.816	1056.58
508.023	1079.06
508.23	1068.4
508.437	1026.75
508.644	1078.09
508.851	1116.45
509.058	1139.51
509.265	1132.53
509.472	1136.02
509.679	1212.74
509.885	1135.44
510.092	1140.86
510.299	1157.72
510.506	1130.01
510.713	1138.93
510.92	1136.6
511.126	1131.18
511.333	1203.83
511.54	1204.03
511.746	1239.68
511.953	1216.81
512.16	1251.49
512.367	1203.64
512.573	1197.83
512.78	1212.36
512.987	1215.65
513.193	1188.72
513.4	1116.06
513.606	1203.25
513.813	1187.56
514.02	1201.51
514.226	1269.51
514.433	1258.86
514.639	1191.43
514.846	1176.9
515.052	1194.34
515.259	1243.55
515.465	1247.23
515.672	1260.99
515.878	1325.51
516.085	1292.37
516.291	1273.78
516.497	1230.96
516.704	1215.84
516.91	1195.5
517.117	1145.51
517.323	1100.56
517.529	1160.63
517.736	1168.18
517.942	1192.98
518.148	1184.65
518.354	1228.44
518.561	1212.74
518.767	1241.61
518.973	1248.2
519.179	1287.72
519.386	1228.05
519.592	1224.76
519.798	1267.38
520.004	1330.54
520.21	1318.34
520.417	1354.96
520.623	1390.22
520.829	1381.89
521.035	1410.95
521.241	1395.25
521.447	1425.29
521.653	1516.93
521.859	1424.7
522.065	1440.79
522.271	1527.78
522.477	1481.67
522.683	1495.03
522.889	1437.49
523.095	1467.91
523.301	1501.62
523.507	1453.57
523.713	1461.52
523.919	1428.39
524.125	1529.72
524.331	1526.62
524.537	1599.08
524.742	1560.71
524.948	1584.55
525.154	1572.92
525.36	1675.99
525.566	1591.33
525.772	1636.47
525.977	1555.87
526.183	1596.75
526.389	1603.15
526.595	1546.57
526.8	1530.3
527.006	1466.36
527.212	1445.05
527.417	1430.32
527.623	1459.19
527.829	1522.55
528.034	1510.34
528.24	1549.86
528.446	1562.46
528.651	1651.78
528.857	1638.41
529.062	1687.43
529.268	1674.44
529.473	1657.59
529.679	1673.09
529.884	1735.86
530.09	1733.92
530.295	1737.99
530.501	1707.77
530.706	1716.29
530.912	1670.57
531.117	1713.19
531.323	1719.59
531.528	1776.74
531.733	1805.42
531.939	1716.68
532.144	1787.4
532.35	1756.21
532.555	1771.51
532.76	1741.09
532.966	1726.37
533.171	1726.76
533.376	1670.38
533.581	1676.58
533.787	1698.28
533.992	1764.92
534.197	1798.83
534.402	1738.96
534.607	1728.31
534.813	1851.34
535.018	1751.75
535.223	1752.14
535.428	1808.52
535.633	1832.54
535.838	1829.25
536.043	1801.15
536.249	1914.69
536.454	1797.47
536.659	1833.51
536.864	1813.17
537.069	1813.36
537.274	1833.51
537.479	1831.38
537.684	1850.56
537.889	1776.55
538.094	1907.13
538.299	1839.71
538.504	1867.8
538.708	1852.89
538.913	1893.77
539.118	1859.47
539.323	1895.12
539.528	1797.67
539.733	1837
539.938	1867.61
540.142	1878.85
540.347	1873.23
540.552	1827.89
540.757	1840.29
540.962	1823.63
541.166	1788.56
541.371	1763.57
541.576	1837.58
541.781	1696.53
541.985	1877.49
542.19	1854.63
542.395	1921.67
542.599	1896.67
542.804	1894.15
543.008	1934.65
543.213	1837.58
543.418	1837
543.622	1898.61
543.827	1830.22
544.031	1906.17
544.236	1947.24
544.44	1906.94
544.645	1979.21
544.849	1913.72
545.054	1957.9
545.258	2001.68
545.463	1984.83
545.667	1926.12
545.872	1949.95
546.076	1930.97
546.281	1940.07
546.485	1920.89
546.689	1965.45
546.894	1989.86
547.098	1937.36
547.302	1910.82
547.507	1935.03
547.711	1929.61
547.915	2026.1
548.119	1877.49
548.324	1934.45
548.528	2000.13
548.732	1928.83
548.936	1982.89
549.141	2004.4
549.345	1958.28
549.549	1972.23
549.753	1995.68
549.957	2011.37
550.161	2036.75
550.366	1990.83
550.57	1965.07
550.774	1972.82
550.978	1944.53
551.182	1980.18
551.386	1920.31
551.59	1940.85
551.794	1939.88
551.998	2005.95
552.202	1987.54
552.406	1953.25
552.61	2033.46
552.814	1982.31
553.018	2024.74
553.222	1948.98
553.426	1992.19
553.63	2083.25
553.833	1987.15
554.037	1956.73
554.241	2000.91
554.445	1974.36
554.649	1990.83
554.853	1942.4
555.056	2006.72
555.26	2000.71
555.464	1988.12
555.668	1981.73
555.871	2031.52
556.075	2031.13
556.279	2000.71
556.483	1943.37
556.686	1947.43
556.89	1987.73
557.094	2001.1
557.297	1903.26
557.501	1958.28
557.704	1898.03
557.908	1973.4
558.112	1902.29
558.315	2000.52
558.519	1913.33
558.722	1951.7
558.926	1898.42
559.129	1818.98
559.333	1852.3
559.536	1835.45
559.74	1837.77
559.943	1800.38
560.147	1806.39
560.35	1858.7
560.553	1870.9
560.757	1839.52
560.96	1934.26
561.164	1872.84
561.367	1985.02
561.57	1874
561.774	1887.18
561.977	1872.45
562.18	1843.39
562.384	1915.85
562.587	1859.09
562.79	1806.77
562.993	1847.65
563.197	1900.55
563.4	1923.02
563.603	1928.45
563.806	1936.2
564.009	1849.4
564.212	1895.12
564.416	1767.06
564.619	1872.45
564.822	1760.47
565.025	1865.09
565.228	1839.71
565.431	1837.58
565.634	1750.01
565.837	1804.45
566.04	1718.04
566.243	1767.83
566.446	1664.18
566.649	1767.44
566.852	1723.27
567.055	1732.76
567.258	1771.9
567.461	1821.69
567.664	1812.78
567.867	1732.57
568.07	1787.79
568.273	1766.28
568.475	1765.89
568.678	1725.21
568.881	1722.3
569.084	1749.04
569.287	1659.53
569.489	1665.53
569.692	1726.56
569.895	1739.54
570.098	1674.83
570.3	1639.18
570.503	1604.89
570.706	1655.84
570.909	1613.22
571.111	1572.73
571.314	1549.67
571.516	1609.73
571.719	1620
571.922	1606.25
572.124	1577.38
572.327	1601.79
572.529	1555.68
572.732	1568.27
572.935	1638.02
573.137	1700.99
573.34	1571.95
573.542	1642.48
573.745	1606.05
573.947	1605.28
574.15	1598.88
574.352	1601.01
574.554	1642.67
574.757	1571.18
574.959	1559.55
575.162	1574.47
575.364	1527.97
575.566	1665.53
575.769	1518.28
575.971	1548.51
576.173	1441.17
576.376	1523.32
576.578	1577.76
576.78	1583.77
576.982	1470.82
577.185	1539.01
577.387	1485.93
577.589	1486.51
577.791	1516.54
577.993	1540.95
578.196	1486.9
578.398	1501.62
578.6	1561.1
578.802	1422.19
579.004	1444.85
579.206	1438.65
579.408	1486.12
579.61	1476.05
579.812	1544.05
580.014	1448.73
580.216	1460.16
580.418	1474.88
580.62	1441.56
580.822	1435.36
581.024	1463.07
581.226	1556.26
581.428	1494.84
581.63	1587.26
581.832	1470.04
582.034	1528.17
582.236	1491.55
582.438	1548.9
582.64	1541.92
582.841	1599.08
583.043	1585.32
583.245	1518.28
583.447	1532.43
583.649	1534.56
583.85	1531.07
584.052	1583.58
584.254	1466.36
584.456	1552.96
584.657	1439.62
584.859	1531.27
585.061	1521.19
585.262	1467.91
585.464	1442.92
585.666	1509.76
585.867	1438.65
586.069	1534.37
586.27	1490.58
586.472	1474.88
586.674	1461.32
586.875	1455.7
587.077	1424.32
587.278	1475.85
587.48	1477.21
587.681	1529.52
587.883	1500.07
588.084	1392.35
588.285	1424.12
588.487	1407.46
588.688	1412.89
588.89	1373.94
589.091	1334.81
589.292	1342.17
589.494	1307.49
589.695	1314.07
589.896	1193.56
590.098	1208.09
590.299	1295.28
590.5	1249.75
590.702	1306.52
590.903	1328.22
591.104	1357.28
591.305	1342.36
591.507	1386.73
591.708	1380.14
591.909	1332.87
592.11	1445.24
592.311	1376.27
592.512	1328.41
592.714	1310.97
592.915	1274.16
593.116	1317.95
593.317	1378.2
593.518	1348.76
593.719	1332.09
593.92	1362.32
594.121	1390.99
594.322	1351.86
594.523	1332.09
594.724	1301.09
594.925	1338.87
595.126	1345.07
595.327	1337.32
595.528	1357.67
595.729	1329.38
595.929	1329.57
596.13	1332.67
596.331	1349.53
596.532	1352.44
596.733	1387.31
596.934	1376.27
597.135	1355.34
597.335	1350.31
597.536	1317.95
597.737	1332.87
597.938	1299.93
598.138	1303.81
598.339	1328.02
598.54	1340.81
598.74	1283.46
598.941	1284.24
599.142	1361.35
599.342	1322.41
599.543	1299.16
599.744	1344.11
599.944	1303.81
600.145	1329.77
600.345	1345.85
600.546	1379.75
600.746	1374.91
600.947	1400.1
601.147	1353.99
601.348	1364.84
601.548	1306.91
601.749	1328.99
601.949	1287.53
602.15	1316.01
602.35	1340.04
602.551	1349.14
602.751	1300.71
602.951	1307.29
603.152	1235.22
603.352	1338.49
603.552	1312.52
603.753	1349.14
603.953	1318.53
604.153	1343.33
604.354	1324.15
604.554	1327.25
604.754	1316.59
604.954	1271.84
605.155	1341.78
605.355	1316.79
605.555	1347.59
605.755	1376.46
605.955	1296.83
606.155	1332.09
606.356	1316.59
606.556	1331.71
606.756	1322.02
606.956	1245.88
607.156	1382.08
607.356	1277.07
607.556	1295.47
607.756	1308.84
607.956	1359.99
608.156	1312.52
608.356	1279.01
608.556	1323.57
608.756	1281.72
608.956	1256.92
609.156	1264.48
609.356	1250.91
609.556	1233.67
609.755	1279.39
609.955	1230.18
610.155	1277.07
610.355	1274.36
610.555	1226.89
610.755	1261.57
610.954	1178.45
611.154	1300.12
611.354	1313.49
611.554	1244.33
611.753	1231.15
611.953	1174.96
612.153	1287.34
612.352	1238.13
612.552	1222.24
612.752	1168.38
612.951	1227.66
613.151	1228.63
613.351	1180.78
613.55	1186.01
613.75	1228.63
613.949	1190.85
614.149	1215.84
614.348	1187.17
614.548	1197.05
614.747	1115.29
614.947	1187.56
615.146	1112.58
615.346	1244.52
615.545	1188.14
615.745	1219.91
615.944	1240.45
616.144	1184.26
616.343	1206.54
616.542	1166.44
616.742	1118.78
616.941	1181.94
617.14	1124.98
617.34	1186.59
617.539	1175.55
617.738	1119.16
617.938	1209.64
618.137	1137.38
618.336	1128.46
618.535	1201.31
618.734	1181.16
618.934	1180.78
619.133	1172.06
619.332	1183.49
619.531	1115.68
619.73	1157.72
619.929	1218.56
620.128	1181.55
620.328	1208.09
620.527	1140.86
620.726	1141.06
620.925	1189.3
621.124	1146.29
621.323	1160.82
621.522	1092.82
621.721	1108.7
621.92	1117.03
622.119	1138.93
622.318	1113.16
622.517	1124.4
622.715	1128.08
622.914	1077.12
623.113	1109.09
623.312	1082.74
623.511	1125.56
623.71	1097.47
623.909	1085.07
624.107	1153.65
624.306	1070.15
624.505	1095.14
624.704	1088.94
624.902	1089.52
625.101	1123.62
625.3	1072.86
625.499	1069.57
625.697	1083.13
625.896	1036.24
626.095	1091.27
626.293	1003.3
626.492	1049.03
626.69	1101.53
626.889	1063.37
627.088	1118
627.286	1030.04
627.485	1053.87
627.683	1046.7
627.882	1037.4
628.08	971.53
628.279	1016.48
628.477	1087.97
628.676	963.59
628.874	1057.55
629.073	1026.94
629.271	988.19
629.469	1034.5
629.668	1015.51
629.866	1015.9
630.065	988.77
630.263	1051.93
630.461	995.55
630.66	1044.77
630.858	1026.94
631.056	1069.76
631.254	1083.13
631.453	994.39
631.651	1047.28
631.849	1030.62
632.047	990.9
632.245	1031.59
632.444	1018.22
632.642	1046.7
632.84	1031.78
633.038	1027.52
633.236	979.67
633.434	1001.56
633.632	998.07
633.83	1006.6
634.028	1058.13
634.227	1041.08
634.425	1100.95
634.623	1027.72
634.821	1032.56
635.019	1038.76
635.216	1003.89
635.414	1079.06
635.612	1056.78
635.81	1021.52
636.008	1067.63
636.206	1007.37
636.404	1054.84
636.602	1016.28
636.8	1018.8
636.997	1054.45
637.195	1056.58
637.393	1011.05
637.591	1092.82
637.789	1048.25
637.986	1029.27
638.184	1068.21
638.382	1064.92
638.58	1079.25
638.777	1098.43
638.975	1056.97
639.173	1030.43
639.37	1051.16
639.568	1043.41
639.765	1067.24
639.963	992.26
640.161	1052.32
640.358	1031.78
640.556	999.24
640.753	1009.5
640.951	957
641.148	1023.65
641.346	996.72
641.543	992.07
641.741	1015.32
641.938	952.93
642.136	1022.1
642.333	973.08
642.531	1038.76
642.728	1072.28
642.925	1028.49
643.123	979.67
643.32	973.66
643.517	975.79
643.715	1029.65
643.912	964.55
644.109	989.74
644.306	990.9
644.504	926.19
644.701	971.34
644.898	983.93
645.095	930.26
645.293	949.44
645.49	989.74
645.687	954.87
645.884	1019
646.081	884.15
646.278	949.44
646.475	930.26
646.672	930.84
646.87	964.36
647.067	954.67
647.264	942.47
647.461	907.01
647.658	864.77
647.855	942.08
648.052	905.27
648.249	826.41
648.446	893.26
648.642	873.49
648.839	874.66
649.036	845.79
649.233	828.93
649.43	851.21
649.627	810.53
649.824	873.11
650.021	833
650.217	830.68
650.414	854.7
650.611	881.24
650.808	883.57
651.004	896.16
651.201	892.29
651.398	921.93
651.595	860.32
651.791	858.77
651.988	913.02
652.185	794.83
652.381	920.19
652.578	831.64
652.775	858.38
652.971	859.54
653.168	873.69
653.364	870.59
653.561	802.97
653.757	843.85
653.954	868.84
654.15	821.57
654.347	940.53
654.543	853.73
654.74	848.89
654.936	774.1
655.133	830.29
655.329	833.19
655.525	825.64
655.722	855.67
655.918	772.16
656.115	814.79
656.311	699.9
656.507	690.98
656.704	662.12
656.9	719.27
657.096	756.47
657.292	717.14
657.489	791.54
657.685	764.8
657.881	763.44
658.077	770.42
658.273	783.01
658.47	843.27
658.666	781.85
658.862	860.32
659.058	788.05
659.254	831.84
659.45	784.95
659.646	835.71
659.842	789.41
660.038	860.51
660.234	779.91
660.43	792.89
660.626	868.84
660.822	838.81
661.018	827.77
661.214	837.07
661.41	768.09
661.606	850.24
661.802	826.03
661.998	805.49
662.194	796.96
662.39	797.74
662.586	814.21
662.781	826.61
662.977	848.11
663.173	852.76
663.369	801.61
663.564	804.91
663.76	851.21
663.956	812.27
664.152	836.1
664.347	758.02
664.543	780.88
664.739	766.54
664.934	723.34
665.13	717.72
665.326	799.87
665.521	815.37
665.717	773.33
665.912	763.83
666.108	731.86
666.304	748.91
666.499	763.25
666.695	709.58
666.89	761.7
667.086	824.09
667.281	778.17
667.477	819.05
667.672	774.1
667.867	769.45
668.063	773.13
668.258	720.63
668.454	766.74
668.649	795.8
668.844	771.19
669.04	797.35
669.235	743.49
669.43	734
669.626	708.42
669.821	739.23
670.016	704.74
670.211	751.04
670.407	708.61
670.602	725.47
670.797	722.56
670.992	759.76
671.187	729.73
671.382	799.09
671.578	741.36
671.773	740.2
671.968	675.87
672.163	714.04
672.358	762.48
672.553	677.81
672.748	703.77
672.943	782.24
673.138	721.79
673.333	735.55
673.528	708.81
673.723	752.59
673.918	744.65
674.113	671.61
674.308	795.41
674.503	745.62
674.698	740.58
674.892	746.98
675.087	729.93
675.282	752.21
675.477	678.97
675.672	744.65
675.867	714.81
676.061	682.07
676.256	665.41
676.451	729.93
676.646	724.11
676.84	696.41
677.035	668.31
677.23	652.62
677.424	731.48
677.619	726.63
677.814	752.01
678.008	758.21
678.203	625.69
678.397	720.82
678.592	726.44
678.787	779.53
678.981	702.61
679.176	718.88
679.37	694.28
679.565	692.15
679.759	683.43
679.954	706.48
680.148	777.2
680.342	763.06
680.537	736.9
680.731	726.63
680.926	727.21
681.12	717.72
681.314	686.33
681.509	700.86
681.703	718.69
681.897	722.95
682.092	717.91
682.286	682.07
682.48	764.41
682.674	735.74
682.869	708.03
683.063	692.53
683.257	771.97
683.451	687.69
683.645	711.91
683.839	721.6
684.034	691.56
684.228	734.58
684.422	661.34
684.616	680.71
684.81	756.66
685.004	702.03
685.198	685.36
685.392	741.55
685.586	654.95
685.78	709.58
685.974	721.01
686.168	744.26
686.362	746.01
686.556	648.55
686.75	616.58
686.944	608.45
687.138	604.18
687.331	534.24
687.525	563.69
687.719	495.1
687.913	544.12
688.107	552.65
688.301	542.96
688.494	588.49
688.688	547.42
688.882	513.12
689.076	527.85
689.269	536.76
689.463	668.9
689.657	567.76
689.85	593.14
690.044	621.82
690.238	594.11
690.431	584.62
690.625	599.53
690.818	629.37
691.012	654.37
691.205	641.77
691.399	619.49
691.593	633.44
691.786	710.94
691.98	717.14
692.173	731.86
692.366	724.5
692.56	734.58
692.753	793.48
692.947	677.61
693.14	768.87
693.333	774.49
693.527	686.14
693.72	759.18
693.914	734.38
694.107	741.16
694.3	748.14
694.493	747.56
694.687	811.88
694.88	761.31
695.073	813.43
695.266	801.03
695.46	810.72
695.653	859.35
695.846	856.83
696.039	766.74
696.232	823.89
696.425	895.58
696.618	877.37
696.812	878.53
697.005	959.9
697.198	1028.49
697.391	949.25
697.584	950.22
697.777	1024.62
697.97	974.63
698.163	1005.05
698.356	978.12
698.549	1079.06
698.742	1053.29
698.935	1025.2
699.127	1024.23
699.32	1006.79
699.513	1009.5
699.706	1052.71
699.899	1044.18
700.092	1030.43
700.285	1055.81
700.477	1024.03
700.67	1074.6
700.863	1121.3
701.056	1159.46
701.248	1171.09
701.441	1167.21
701.634	1123.23
701.826	1202.09
702.019	1142.8
702.212	1186.01
702.404	1148.03
702.597	1164.11
702.79	1209.26
702.982	1217.78
703.175	1254.98
703.367	1261.57
703.56	1310.2
703.752	1338.68
703.945	1332.48
704.137	1359.22
704.33	1343.14
704.522	1360.19
704.715	1389.25
704.907	1412.5
705.1	1433.04
705.292	1449.12
705.484	1399.32
705.677	1453.38
705.869	1453.77
706.061	1512.47
706.254	1536.88
706.446	1493.48
706.638	1514.22
706.831	1576.8
707.023	1507.82
707.215	1631.82
707.407	1611.86
707.599	1626.39
707.792	1667.66
707.984	1640.34
708.176	1660.88
708.368	1678.51
708.56	1656.43
708.752	1671.15
708.944	1647.51
709.136	1725.21
709.329	1689.94
709.521	1816.46
709.713	1768.22
709.905	1762.6
710.097	1848.82
710.289	1784.88
710.481	1822.66
710.672	1812.2
710.864	1822.66
711.056	1870.13
711.248	1861.22
711.44	1880.4
711.632	1873.81
711.824	1867.8
712.016	1952.08
712.207	1964.48
712.399	1962.35
712.591	1998.78
712.783	1978.82
712.975	1960.61
713.166	1989.48
713.358	1990.45
713.55	2025.71
713.741	2061.94
713.933	2060.39
714.125	2025.32
714.316	2040.05
714.508	2147.19
714.7	2104.18
714.891	2084.99
715.083	2157.84
715.274	2116.38
715.466	2107.86
715.657	2153.77
715.849	2031.13
716.04	2109.21
716.232	2057.29
716.423	2115.41
716.615	2048.76
716.806	1978.82
716.998	1949.18
717.189	1884.27
717.381	1772.09
717.572	1810.45
717.763	1810.07
717.955	1755.04
718.146	1743.61
718.337	1656.23
718.528	1659.91
718.72	1601.98
718.911	1675.8
719.102	1622.13
719.293	1687.81
719.485	1657.2
719.676	1643.83
719.867	1583.58
720.058	1629.49
720.249	1613.41
720.44	1632.21
720.632	1730.44
720.823	1769.77
721.014	1897.45
721.205	1880.98
721.396	1940.46
721.587	2062.91
721.778	2075.5
721.969	2145.06
722.16	2189.42
722.351	2195.04
722.542	2282.42
722.733	2285.72
722.924	2229.14
723.115	2289.98
723.305	2260.53
723.496	2265.57
723.687	2146.41
723.878	2115.8
724.069	2174.7
724.26	2177.99
724.45	2078.41
724.641	2080.73
724.832	2098.17
725.023	2078.02
725.213	2112.89
725.404	2060.2
725.595	2083.83
725.785	2047.6
725.976	2137.89
726.167	2098.75
726.357	2109.02
726.548	2249.68
726.739	2122.97
726.929	2202.02
727.12	2233.21
727.31	2274.48
727.501	2214.61
727.691	2212.67
727.882	2196.98
728.072	2230.69
728.263	2246.19
728.453	2289.59
728.644	2272.93
728.834	2274.48
729.024	2237.47
729.215	2231.27
729.405	2274.67
729.596	2325.43
729.786	2347.13
729.976	2389.18
730.167	2396.93
730.357	2328.34
730.547	2355.47
730.737	2405.45
730.928	2384.53
731.118	2454.08
731.308	2375.23
731.498	2420.76
731.688	2462.41
731.879	2489.73
732.069	2536.62
732.259	2575.56
732.449	2571.3
732.639	2684.25
732.829	2712.93
733.019	2725.72
733.209	2758.07
733.399	2742.19
733.589	2831.7
733.779	2884.2
733.969	2848.94
734.159	2899.9
734.349	2959.96
734.539	2956.47
734.729	2974.88
734.919	2995.41
735.109	3040.36
735.299	3021.96
735.488	3005.49
735.678	3033.97
735.868	3043.66
736.058	3064.97
736.248	2965.58
736.437	2990.76
736.627	2954.53
736.817	3073.3
737.007	3024.28
737.196	3049.08
737.386	3035.91
737.576	2976.23
737.765	3118.83
737.955	3056.06
738.144	3148.28
738.334	3127.94
738.524	3078.92
738.713	3131.62
738.903	3132.78
739.092	3146.34
739.282	3143.63
739.471	3146.73
739.661	3153.12
739.85	3269.18
740.04	3155.06
740.229	3216.87
740.419	3225.39
740.608	3274.22
740.797	3259.68
740.987	3286.81
741.176	3275.38
741.365	3202.33
741.555	3175.79
741.744	3284.48
741.933	3230.62
742.123	3245.73
742.312	3272.08
742.501	3251.74
742.69	3315.87
742.88	3231.78
743.069	3354.81
743.258	3297.66
743.447	3398.79
743.636	3365.86
743.825	3302.5
744.014	3337.18
744.204	3343.19
744.393	3283.13
744.582	3346.1
744.771	3425.34
744.96	3281.19
745.149	3368.76
745.338	3306.18
745.527	3361.98
745.716	3339.31
745.905	3300.18
746.094	3368.96
746.283	3380.39
746.471	3367.8
746.66	3424.95
746.849	3387.56
747.038	3417.01
747.227	3349.2
747.416	3431.73
747.604	3336.8
747.793	3344.35
747.982	3394.73
748.171	3397.63
748.359	3387.75
748.548	3422.04
748.737	3419.33
748.926	3355.4
749.114	3292.62
749.303	3359.08
749.491	3350.94
749.68	3262.59
749.869	3373.61
750.057	3348.61
750.246	3317.81
750.434	3312.77
750.623	3311.03
750.811	3274.6
751	3362.56
751.188	3293.01
751.377	3293.2
751.565	3289.13
751.754	3247.28
751.942	3266.08
752.131	3324.98
752.319	3236.43
752.507	3213.96
752.696	3325.36
752.884	3346.87
753.072	3281.97
753.261	3305.41
753.449	3259.1
753.637	3261.04
753.825	3314.9
754.014	3250.97
754.202	3281.77
754.39	3342.03
754.578	3331.37
754.766	3237.21
754.955	3243.99
755.143	3342.8
755.331	3226.17
755.519	3287.97
755.707	3237.79
755.895	3219.38
756.083	3255.03
756.271	3232.37
756.459	3202.33
756.647	3220.74
756.835	3226.36
757.023	3184.12
757.211	3154.87
757.399	3178.89
757.587	3190.13
757.775	3161.26
757.963	3145.57
758.151	3153.12
758.339	3117.67
758.526	3100.81
758.714	3137.43
758.902	2994.64
759.09	2987.66
759.278	2746.06
759.465	2575.95
759.653	2195.43
759.841	2045.66
760.028	1713.39
760.216	1495.81
760.404	1425.67
760.591	1135.83
760.779	956.22
760.967	824.09
761.154	705.71
761.342	728.18
761.529	740.39
761.717	798.13
761.905	760.93
762.092	808.78
762.28	780.69
762.467	795.41
762.655	712.49
762.842	751.24
763.029	753.56
763.217	785.14
763.404	809.17
763.592	822.93
763.779	743.88
763.966	789.21
764.154	840.17
764.341	920.19
764.528	910.69
764.716	984.12
764.903	1011.64
765.09	1095.33
765.277	1128.85
765.465	1280.56
765.652	1303.22
765.839	1401.45
766.026	1523.9
766.213	1561.1
766.4	1636.47
766.588	1806.19
766.775	1816.07
766.962	1929.8
767.149	1987.93
767.336	2162.49
767.523	2105.14
767.71	2231.27
767.897	2339.19
768.084	2393.44
768.271	2468.61
768.458	2481.6
768.645	2550.76
768.832	2527.9
769.019	2607.92
769.206	2620.9
769.392	2648.8
769.579	2772.6
769.766	2670.11
769.953	2681.74
770.14	2725.33
770.327	2720.1
770.513	2817.36
770.7	2872
770.887	2740.44
771.073	2809.8
771.26	2767.95
771.447	2796.63
771.634	2755.75
771.82	2872.96
772.007	2780.35
772.193	2852.43
772.38	2878.58
772.567	2790.23
772.753	2779.58
772.94	2837.32
773.126	2872.19
773.313	2896.99
773.499	2850.1
773.686	2873.74
773.872	2795.47
774.059	2819.49
774.245	2764.85
774.432	2754.78
774.618	2738.89
774.804	2744.51
774.991	2730.17
775.177	2774.73
775.363	2789.07
775.55	2797.4
775.736	2719.71
775.922	2729.59
776.109	2731.92
776.295	2752.65
776.481	2778.61
776.667	2768.15
776.853	2710.99
777.04	2713.9
777.226	2748
777.412	2795.85
777.598	2677.28
777.784	2678.83
777.97	2674.18
778.156	2725.72
778.342	2734.63
778.528	2698.98
778.715	2640.86
778.901	2667.01
779.087	2697.62
779.272	2606.17
779.458	2592.42
779.644	2663.52
779.83	2626.52
780.016	2734.05
780.202	2684.64
780.388	2647.83
780.574	2578.28
780.76	2551.93
780.946	2623.61
781.131	2599.01
781.317	2597.07
781.503	2555.99
781.689	2602.69
781.874	2680.96
782.06	2566.84
782.246	2590.09
782.432	2590.87
782.617	2608.69
782.803	2634.66
782.989	2557.74
783.174	2575.56
783.36	2501.94
783.545	2530.23
783.731	2585.44
783.916	2460.48
784.102	2560.84
784.288	2486.83
784.473	2537.01
784.659	2502.52
784.844	2544.95
785.029	2506.59
785.215	2500.39
785.4	2441.1
785.586	2560.06
785.771	2449.24
785.956	2502.33
786.142	2444.78
786.327	2451.56
786.512	2449.24
786.698	2414.17
786.883	2370.77
787.068	2393.83
787.254	2427.54
787.439	2401.19
787.624	2381.23
787.809	2351.59
787.994	2359.92
788.18	2423.47
788.365	2322.53
788.55	2342.68
788.735	2357.4
788.92	2332.41
789.105	2348.88
789.29	2395.38
789.475	2301.8
789.66	2303.35
789.845	2272.35
790.03	2287.85
790.215	2301.22
790.4	2347.13
790.585	2350.23
790.77	2265.37
790.955	2204.73
791.14	2284.36
791.325	2349.27
791.51	2164.04
791.695	2218.29
791.879	2295.21
792.064	2193.11
792.249	2323.5
792.434	2225.46
792.618	2246.58
792.803	2295.02
792.988	2251.23
793.173	2229.34
793.357	2277
793.542	2218.49
793.727	2254.72
793.911	2269.44
794.096	2209.96
794.281	2273.7
794.465	2317.69
794.65	2265.76
794.834	2239.99
795.019	2340.35
795.203	2314.97
795.388	2341.52
795.572	2310.71
795.757	2316.72
795.941	2278.74
796.126	2295.6
796.31	2261.3
796.494	2252.2
796.679	2256.85
796.863	2214.81
797.048	2316.33
797.232	2275.25
797.416	2257.82
797.601	2239.99
797.785	2365.54
797.969	2364.77
798.153	2223.91
798.338	2321.95
798.522	2302.77
798.706	2315.75
798.89	2344.42
799.074	2417.08
799.258	2366.9
799.443	2291.72
799.627	2298.89
799.811	2365.93
799.995	2337.06
800.179	2283.2
800.363	2264.99
800.547	2305.09
800.731	2332.8
800.915	2261.5
801.099	2237.67
801.283	2279.9
801.467	2280.87
801.651	2287.46
801.835	2335.12
802.019	2291.34
802.202	2305.87
802.386	2215.97
802.57	2264.21
802.754	2262.66
802.938	2270.41
803.121	2228.56
803.305	2333.96
803.489	2264.6
803.673	2263.44
803.856	2294.63
804.04	2277.39
804.224	2302.38
804.407	2283
804.591	2281.84
804.775	2289.79
804.958	2302.57
805.142	2361.47
805.326	2259.75
805.509	2305.29
805.693	2289.98
805.876	2335.32
806.06	2309.55
806.243	2331.44
806.427	2345.39
806.61	2351.01
806.794	2283
806.977	2323.69
807.16	2310.32
807.344	2320.01
807.527	2279.71
807.71	2305.67
807.894	2288.04
808.077	2347.52
808.26	2271.77
808.444	2243.67
808.627	2291.92
808.81	2283
808.993	2214.42
809.177	2255.49
809.36	2223.72
809.543	2242.9
809.726	2153.58
809.909	2143.7
810.092	2151.84
810.276	2149.51
810.459	2176.25
810.642	2183.22
810.825	2101.85
811.008	2133.63
811.191	2034.43
811.374	2040.05
811.557	2097.39
811.74	2157.26
811.923	1979.6
812.106	2017.76
812.289	1983.86
812.472	2006.72
812.654	2004.01
812.837	1976.69
813.02	1954.02
813.203	1886.02
813.386	1806.58
813.569	1818.4
813.751	1767.44
813.934	1805.61
814.117	1772.87
814.3	1725.4
814.482	1715.91
814.665	1675.22
814.848	1631.43
815.03	1590.75
815.213	1556.26
815.396	1563.81
815.578	1537.46
815.761	1521.38
815.943	1587.26
816.126	1485.15
816.309	1471.59
816.491	1403.97
816.674	1366.19
816.856	1407.65
817.039	1421.41
817.221	1471.59
817.403	1434.59
817.586	1421.02
817.768	1475.27
817.951	1337.91
818.133	1343.72
818.315	1416.95
818.498	1436.72
818.68	1497.75
818.862	1494.45
819.045	1480.7
819.227	1476.82
819.409	1457.64
819.591	1444.85
819.774	1427.22
819.956	1454.54
820.138	1499.3
820.32	1498.33
820.502	1504.33
820.684	1623.68
820.866	1581.06
821.048	1622.13
821.231	1634.53
821.413	1634.73
821.595	1621.36
821.777	1623.49
821.959	1605.66
822.141	1675.8
822.323	1532.82
822.505	1515.96
822.686	1471.98
822.868	1381.89
823.05	1291.79
823.232	1257.5
823.414	1216.04
823.596	1290.63
823.778	1277.65
823.96	1312.52
824.141	1293.73
824.323	1354.96
824.505	1406.88
824.687	1472.56
824.868	1462.29
825.05	1575.25
825.232	1570.6
825.413	1623.1
825.595	1579.9
825.777	1525.07
825.958	1575.63
826.14	1572.34
826.321	1592.68
826.503	1555.29
826.685	1609.35
826.866	1646.74
827.048	1635.89
827.229	1568.85
827.411	1526.42
827.592	1484.57
827.773	1466.75
827.955	1423.74
828.136	1415.99
828.318	1388.67
828.499	1466.94
828.68	1408.82
828.862	1479.92
829.043	1466.94
829.224	1460.55
829.406	1391.57
829.587	1406.3
829.768	1437.1
829.949	1442.53
830.131	1413.85
830.312	1472.75
830.493	1431.29
830.674	1449.89
830.855	1443.3
831.036	1432.65
831.218	1492.13
831.399	1482.83
831.58	1433.62
831.761	1415.79
831.942	1413.27
832.123	1436.14
832.304	1421.99
832.485	1404.94
832.666	1432.84
832.847	1426.25
833.028	1436.14
833.209	1425.09
833.389	1406.3
833.57	1375.1
833.751	1386.73
833.932	1446.79
834.113	1432.07
834.294	1378.4
834.475	1449.7
834.655	1451.63
834.836	1452.41
835.017	1436.72
835.198	1379.95
835.378	1478.37
835.559	1503.37
835.74	1422.57
835.92	1425.09
836.101	1430.52
836.281	1460.55
836.462	1471.98
836.643	1475.47
836.823	1492.32
837.004	1513.83
837.184	1503.95
837.365	1518.87
837.545	1514.6
837.726	1468.3
837.906	1506.08
838.087	1480.7
838.267	1481.28
838.448	1437.88
838.628	1493.68
838.808	1504.72
838.989	1541.34
839.169	1458.22
839.349	1497.75
839.53	1524.1
839.71	1528.75
839.89	1476.24
840.07	1545.41
840.251	1472.17
840.431	1514.41
840.611	1493.48
840.791	1472.56
840.971	1537.27
841.151	1521.19
841.332	1432.07
841.512	1531.46
841.692	1442.72
841.872	1483.8
842.052	1481.28
842.232	1539.4
842.412	1421.41
842.592	1460.74
842.772	1471.59
842.952	1492.32
843.132	1435.17
843.312	1437.3
843.492	1451.83
843.672	1458.22
843.851	1381.3
844.031	1426.06
844.211	1441.56
844.391	1430.9
844.571	1452.8
844.751	1455.51
844.93	1468.3
845.11	1403.39
845.29	1442.14
845.47	1460.16
845.649	1440.2
845.829	1473.92
846.009	1435.94
846.188	1449.12
846.368	1428.39
846.547	1442.34
846.727	1466.75
846.907	1384.21
847.086	1405.52
847.266	1449.12
847.445	1419.67
847.625	1424.7
847.804	1404.55
847.984	1404.55
848.163	1378.01
848.343	1374.52
848.522	1398.16
848.701	1430.32
848.881	1379.75
849.06	1350.69
849.239	1400.29
849.419	1385.76
849.598	1340.81
849.777	1321.44
849.957	1299.54
850.136	1289.66
850.315	1220.88
850.494	1249.17
850.674	1256.92
850.853	1329.57
851.032	1277.65
851.211	1353.02
851.39	1327.06
851.569	1258.86
851.748	1242.39
851.927	1313.3
852.107	1294.89
852.286	1244.13
852.465	1258.47
852.644	1304.39
852.823	1332.48
853.002	1304.97
853.181	1313.49
853.359	1335.97
853.538	1215.84
853.717	1305.36
853.896	1198.02
854.075	1139.31
854.254	1158.5
854.433	1073.44
854.611	1156.17
854.79	1089.52
854.969	1124.4
855.148	1143.96
855.327	1093.78
855.505	1192.98
855.684	1158.5
855.863	1167.41
856.041	1149.78
856.22	1231.73
856.399	1141.83
856.577	1277.46
856.756	1231.54
856.934	1325.7
857.113	1318.53
857.291	1235.8
857.47	1215.26
857.648	1234.64
857.827	1265.25
858.005	1251.49
858.184	1192.79
858.362	1311.94
858.541	1237.54
858.719	1258.28
858.898	1215.46
859.076	1213.13
859.254	1308.26
859.433	1212.16
859.611	1233.67
859.789	1178.06
859.967	1291.02
860.146	1279.59
860.324	1171.86
860.502	1210.42
860.68	1149.2
860.859	1172.45
861.037	1208.29
861.215	1167.21
861.393	1193.95
861.571	1197.24
861.749	1161.4
861.927	1222.43
862.105	1203.64
862.283	1165.08
862.461	1171.86
862.639	1126.14
862.817	1130.4
862.995	1172.25
863.173	1131.18
863.351	1148.42
863.529	1130.01
863.707	1207.9
863.885	1171.28
864.063	1087.97
864.241	1119.16
864.418	1199.76
864.596	1110.83
864.774	1108.9
864.952	1148.03
865.129	1118.58
865.307	1098.82
865.485	1083.71
865.663	1139.31
865.84	1075.57
866.018	1109.67
866.196	983.74
866.373	994.2
866.551	984.7
866.728	927.16
866.906	975.4
867.084	1013.77
867.261	1025.97
867.439	1018.03
867.616	1073.83
867.794	1042.44
867.971	1074.8
868.149	1061.04
868.326	1104.63
868.503	1081.19
868.681	1080.22
868.858	1032.56
869.035	1042.05
869.213	1101.34
869.39	1028.49
869.567	1135.63
869.745	1036.24
869.922	1069.57
870.099	1073.63
870.276	1090.49
870.454	1081.77
870.631	1095.14
870.808	1048.83
870.985	1096.69
871.162	1129.63
871.339	1071.12
871.517	1001.75
871.694	1031.4
871.871	1048.83
872.048	1037.4
872.225	998.46
872.402	1023.26
872.579	975.6
872.756	1029.65
872.933	936.27
873.11	1023.26
873.287	1003.11
873.463	1005.82
873.64	981.22
873.817	1051.74
873.994	993.23
874.171	968.04
874.348	1003.5
874.524	938.79
874.701	988
874.878	946.54
875.055	990.13
875.231	986.06
875.408	980.44
875.585	938.01
875.762	960.1
875.938	965.72
876.115	975.02
876.291	974.24
876.468	959.32
876.645	906.62
876.821	942.66
876.998	963.78
877.174	977.92
877.351	936.07
877.527	934.91
877.704	912.44
877.88	942.27
878.057	935.1
878.233	982.57
878.409	932.2
878.586	933.36
878.762	922.71
878.938	922.9
879.115	882.02
879.291	931.81
879.467	848.89
879.644	871.94
879.82	916.51
879.996	882.21
880.172	855.86
880.349	878.34
880.525	928.32
880.701	865.55
880.877	863.61
881.053	857.22
881.229	873.49
881.405	910.5
881.581	871.17
881.757	904.88
881.933	897.71
882.109	925.8
882.285	879.69
882.461	857.41
882.637	889.19
882.813	847.92
882.989	868.26
883.165	930.65
883.341	863.03
883.517	948.67
883.693	891.9
883.869	925.42
884.044	854.7
884.22	910.89
884.396	901.39
884.572	890.54
884.747	901.78
884.923	890.74
885.099	921.35
885.275	925.42
885.45	864.58
885.626	839.78
885.801	851.02
885.977	853.73
886.153	829.71
886.328	873.49
886.504	872.14
886.679	875.43
886.855	847.53
887.03	918.83
887.206	921.16
887.381	898.49
887.557	894.42
887.732	905.66
887.908	894.61
888.083	907.21
888.258	853.34
888.434	845.4
888.609	861.29
888.784	915.54
888.96	871.75
889.135	856.83
889.31	800.84
889.485	865.55
889.661	857.22
889.836	877.37
890.011	884.73
890.186	862.26
890.361	851.6
890.537	890.16
890.712	871.56
890.887	888.41
891.062	852.18
891.237	930.65
891.412	821.57
891.587	891.32
891.762	921.16
891.937	896.36
892.112	833.58
892.287	858.77
892.462	829.9
892.637	791.15
892.812	787.86
892.987	815.18
893.161	771.58
893.336	800.64
893.511	768.48
893.686	808.59
893.861	796.58
894.035	808.01
894.21	786.5
894.385	736.32
894.56	796.77
894.734	707.26
894.909	727.8
895.084	723.34
895.258	721.4
895.433	714.62
895.608	699.7
895.782	668.9
895.957	692.92
896.131	664.63
896.306	624.14
896.48	602.05
896.655	618.13
896.829	575.51
897.004	588.1
897.178	596.05
897.353	567.18
897.527	616
897.701	578.8
897.876	546.45
898.05	641.38
898.224	620.65
898.399	646.03
898.573	597.4
898.747	511.19
898.921	541.6
899.096	447.83
899.27	477.86
899.444	473.99
899.618	488.52
899.792	537.54
899.967	513.32
900.141	548.19
900.315	502.08
900.489	520.1
900.663	514.48
900.837	483.29
901.011	451.9
901.185	577.64
901.359	528.62
901.533	523
901.707	517.19
901.881	522.62
902.055	475.92
902.229	508.86
902.403	569.89
902.576	517.19
902.75	541.99
902.924	622.01
903.098	544.51
903.272	588.49
903.446	654.56
903.619	591.01
903.793	633.44
903.967	623.95
904.14	673.74
904.314	665.21
904.488	629.37
904.661	641.58
904.835	606.51
905.009	670.83
905.182	706.48
905.356	664.83
905.529	652.23
905.703	611.74
905.876	606.7
906.05	583.45
906.223	594.11
906.397	525.72
906.57	510.22
906.744	490.07
906.917	504.4
907.09	490.26
907.264	517.39
907.437	479.8
907.61	453.45
907.784	495.3
907.957	475.34
908.13	430.97
908.304	500.72
908.477	458.1
908.65	448.99
908.823	435.62
908.996	520.68
909.17	455.58
909.343	457.71
909.516	473.41
909.689	452.67
909.862	437.37
910.035	463.33
910.208	408.11
910.381	441.05
910.554	504.79
910.727	448.41
910.9	423.81
911.073	442.79
911.246	462.17
911.419	499.56
911.592	474.37
911.765	420.32
911.938	411.6
912.11	444.92
912.283	461.39
912.456	475.73
912.629	418.96
912.802	443.18
912.974	375.18
913.147	351.93
913.32	310.08
913.493	364.52
913.665	385.44
913.838	380.21
914.01	379.05
914.183	396.29
914.356	366.26
914.528	442.99
914.701	473.02
914.873	433.69
915.046	373.82
915.218	367.62
915.391	312.98
915.563	325.96
915.736	382.15
915.908	405.4
916.081	354.64
916.253	369.56
916.425	380.21
916.598	390.29
916.77	393.19
916.942	330.61
917.115	290.9
917.287	381.57
917.459	370.72
917.632	331.39
917.804	297.87
917.976	348.83
918.148	362.78
918.32	362.78
918.493	394.94
918.665	430.97
918.837	384.28
919.009	459.26
919.181	431.56
919.353	408.69
919.525	401.33
919.697	418.77
919.869	403.85
920.041	459.84
920.213	489.87
920.385	436.01
920.557	401.14
920.729	427.1
920.901	408.31
921.073	412.37
921.244	388.93
921.416	435.43
921.588	396.88
921.76	393.58
921.932	498.79
922.103	393.58
922.275	412.76
922.447	410.05
922.619	349.02
922.79	400.75
922.962	376.92
923.134	400.36
923.305	346.69
923.477	314.73
923.648	329.26
923.82	358.51
923.991	307.56
924.163	289.15
924.335	335.84
924.506	300.78
924.677	388.16
924.849	309.3
925.02	333.52
925.192	369.36
925.363	358.51
925.535	394.55
925.706	344.76
925.877	391.26
926.049	321.12
926.22	361.61
926.391	345.34
926.562	382.54
926.734	316.47
926.905	403.27
927.076	302.13
927.247	312.98
927.419	280.05
927.59	258.73
927.761	298.26
927.932	272.3
928.103	290.51
928.274	240.52
928.445	244.01
928.616	240.91
928.787	250.21
928.958	267.26
929.129	265.9
929.3	252.92
929.471	179.68
929.642	180.07
929.813	147.52
929.984	220.37
930.155	134.74
930.326	185.11
930.496	148.68
930.667	116.14
930.838	169.22
931.009	131.05
931.18	134.15
931.35	127.18
931.521	139.19
931.692	86.49
931.863	55.49
932.033	122.53
932.204	98.5
932.374	119.43
932.545	45.42
932.716	119.43
932.886	102.19
933.057	75.64
933.227	68.28
933.398	118.07
933.568	51.23
933.739	15.19
933.909	39.61
934.08	87.27
934.25	22.17
934.421	15.97
934.591	58.59
934.761	36.7
934.932	-14.06
935.102	48.32
935.272	15.97
935.443	46.19
935.613	41.93
935.783	49.29
935.953	-14.64
936.123	181.43
936.294	30.69
936.464	23.33
936.634	27.4
936.804	8.61
936.974	-3.79
937.144	57.43
937.314	31.86
937.484	20.23
937.655	10.35
937.825	52
937.995	12.48
938.165	58.98
938.334	27.59
938.504	75.84
938.674	22.36
938.844	44.06
939.014	102.57
939.184	92.89
939.354	108
939.524	107.8
939.694	73.32
939.863	59.75
940.033	140.35
940.203	136.09
940.373	108.39
940.542	114.39
940.712	81.84
940.882	90.95
941.051	107.03
941.221	90.37
941.391	124.27
941.56	57.82
941.73	48.91
941.899	152.95
942.069	59.37
942.238	84.75
942.408	54.14
942.577	115.36
942.747	52
942.916	10.16
943.086	24.11
943.255	103.35
943.425	64.99
943.594	55.3
943.763	-1.86
943.933	24.88
944.102	-1.66
944.271	50.07
944.441	45.03
944.61	51.23
944.779	71.77
944.948	151.59
945.117	17.13
945.287	40.77
945.456	-9.61
945.625	15.97
945.794	80.68
945.963	3.76
946.132	79.13
946.301	31.66
946.47	76.22
946.639	-5.15
946.808	21.97
946.977	53.36
947.146	109.55
947.315	15
947.484	73.51
947.653	70.41
947.822	26.43
947.991	21.01
948.16	136.48
948.329	88.24
948.498	64.02
948.666	50.84
948.835	60.53
949.004	14.81
949.173	12.09
949.341	55.49
949.51	69.44
949.679	106.45
949.847	77.97
950.016	133.57
950.185	87.65
950.353	40.57
950.522	56.65
950.69	108.58
950.859	33.79
951.028	91.53
951.196	70.22
951.365	18.29
951.533	61.5
951.701	63.05
951.87	91.72
952.038	40.96
952.207	71.77
952.375	135.32
952.543	38.64
952.712	47.74
952.88	31.86
953.048	130.28
953.217	70.6
953.385	53.36
953.553	118.65
953.721	46
953.89	56.85
954.058	23.52
954.226	33.99
954.394	62.08
954.562	-0.89
954.73	63.24
954.898	54.72
955.067	92.69
955.235	26.62
955.403	84.75
955.571	126.6
955.739	66.34
955.907	22.36
956.075	41.74
956.243	34.96
956.41	65.95
956.578	-0.69
956.746	4.92
956.914	49.68
957.082	72.35
957.25	81.07
957.418	19.65
957.585	94.63
957.753	110.32
957.921	51.23
958.089	56.85
958.256	86.49
958.424	91.34
958.592	52.39
958.759	29.72
958.927	71.57
959.095	36.7
959.262	52.2
959.43	75.06
959.597	35.73
959.765	100.05
959.932	29.53
960.1	88.24
960.267	58.79
960.435	63.82
960.602	104.32
960.77	64.99
960.937	12.29
961.104	80.49
961.272	13.06
961.439	47.55
961.606	70.41
961.774	83.2
961.941	39.41
962.108	61.11
962.275	74.67
962.443	89.01
962.61	66.73
962.777	136.67
962.944	92.69
963.111	68.67
963.278	66.54
963.446	42.12
963.613	87.85
963.78	67.7
963.947	91.72
964.114	68.09
964.281	139.38
964.448	89.59
964.615	34.57
964.782	92.11
964.949	95.4
965.116	90.37
965.282	101.22
965.449	60.14
965.616	67.5
965.783	100.05
965.95	93.47
966.117	28.76
966.283	52.59
966.45	96.95
966.617	90.95
966.784	119.43
966.95	114.78
967.117	129.31
967.284	42.51
967.45	67.12
967.617	139.58
967.784	102.77
967.95	153.53
968.117	66.15
968.283	114.2
968.45	148.88
968.616	112.07
968.783	130.67
968.949	86.3
969.116	114.78
969.282	74.87
969.449	91.53
969.615	80.29
969.781	63.24
969.948	52.59
970.114	31.47
970.28	120.01
970.447	102.57
970.613	93.85
970.779	88.04
970.945	99.09
971.112	86.1
971.278	112.65
971.444	82.42
971.61	121.75
971.776	89.01
971.942	86.3
972.108	101.22
972.275	96.76
972.441	90.95
972.607	159.15
972.773	47.36
972.939	78.74
973.105	86.3
973.271	38.06
973.437	40.38
973.602	53.75
973.768	86.1
973.934	81.65
974.1	86.1
974.266	1.24
974.432	80.87
974.598	66.34
974.763	93.08
974.929	72.35
975.095	143.07
975.261	44.64
975.426	55.88
975.592	79.9
975.758	131.05
975.923	28.37
976.089	40.77
976.255	70.02
976.42	109.55
976.586	99.86
976.751	67.12
976.917	154.69
977.082	112.45
977.248	39.99
977.413	19.84
977.579	53.36
977.744	73.12
977.91	55.88
978.075	45.03
978.24	109.74
978.406	48.91
978.571	60.53
978.736	44.26
978.902	112.45
979.067	52.2
979.232	26.04
979.397	82.62
979.563	147.72
979.728	40.77
979.893	72.35
980.058	54.14
980.223	78.94
980.388	70.8
980.554	89.01
980.719	45.22
980.884	82.23
981.049	117.88
981.214	65.76
981.379	103.74
981.544	49.68
981.709	80.49
981.874	42.51
982.039	95.79
982.204	108.58
982.368	65.18
982.533	39.99
982.698	103.35
982.863	121.75
983.028	47.36
983.193	80.87
983.357	64.4
983.522	69.64
983.687	71.19
983.852	59.95
984.016	60.53
984.181	80.68
984.346	110.52
984.51	110.71
984.675	74.29
984.839	83.39
985.004	79.32
985.168	112.07
985.333	70.6
985.498	64.79
985.662	106.64
985.827	88.24
985.991	64.6
986.155	59.37
986.32	116.91
986.484	135.7
986.649	74.48
986.813	12.87
986.977	94.24
987.142	80.49
987.306	23.33
987.47	49.49
987.634	71.57
987.799	66.54
987.963	82.42
988.127	88.24
988.291	146.36
988.455	73.32
988.62	64.79
988.784	89.4
988.948	89.59
989.112	67.7
989.276	93.47
989.44	83.97
989.604	44.06
989.768	44.26
989.932	155.47
990.096	55.3
990.26	34.57
990.424	16.94
990.588	60.53
990.752	133.96
990.915	86.49
991.079	66.54
991.243	42.32
991.407	76.61
991.571	60.92
991.734	64.4
991.898	87.27
992.062	169.22
992.226	51.04
992.389	58.98
992.553	2.41
992.717	58.4
992.88	65.37
993.044	62.27
993.207	68.28
993.371	57.43
993.535	72.74
993.698	59.37
993.862	98.5
994.025	95.21
994.189	83.97
994.352	50.65
994.515	62.66
994.679	111.87
994.842	53.36
995.006	102.57
995.169	31.27
995.332	37.28
995.496	106.84
995.659	49.87
995.822	32.82
995.985	51.62
996.149	97.54
996.312	59.37
996.475	118.46
996.638	50.26
996.801	97.92
996.964	130.86
997.128	47.74
997.291	49.68
997.454	56.27
997.617	23.33
997.78	113.42
997.943	60.72
998.106	107.42
998.269	29.53
998.432	38.44
998.595	74.48
998.758	28.76
998.92	20.04
999.083	6.67
999.246	58.2
999.409	31.27
999.572	-0.89
999.735	38.06
999.897	65.37
1000.06	51.42
1000.223	24.49
1000.386	78.55
1000.548	58.59
1000.711	82.04
1000.874	54.52
1001.036	2.21
1001.199	99.28
1001.361	29.34
1001.524	49.1
1001.687	92.69
1001.849	27.4
1002.012	71.19
1002.174	55.1
1002.337	45.81
1002.499	42.9
1002.661	73.32
1002.824	20.62
1002.986	16.36
1003.149	38.64
1003.311	21.78
1003.473	94.24
1003.636	40.77
1003.798	82.23
1003.96	50.84
1004.123	55.69
1004.285	7.25
1004.447	36.89
1004.609	62.27
1004.771	102.57
1004.933	-6.89
1005.096	26.82
1005.258	-13.87
1005.42	46.58
1005.582	57.43
1005.744	21.78
1005.906	4.92
1006.068	25.27
1006.23	11.32
1006.392	14.03
1006.554	-0.5
1006.716	60.72
1006.878	58.98
1007.04	19.46
1007.202	21.97
1007.363	33.79
1007.525	43.48
1007.687	53.75
1007.849	73.12
1008.011	-15.42
1008.172	24.88
1008.334	25.27
1008.496	67.5
1008.658	5.7
1008.819	13.06
1008.981	2.02
1009.143	-5.34
1009.304	14.42
1009.466	54.52
1009.627	87.27
1009.789	157.79
1009.95	52.2
1010.112	27.4
1010.273	28.95
1010.435	13.26
1010.596	41.74
1010.758	7.44
1010.919	20.62
1011.081	-10.38
1011.242	9.77
1011.403	63.82
1011.565	23.33
1011.726	64.21
1011.887	6.47
1012.049	8.99
1012.21	51.42
1012.371	78.55
1012.532	-20.46
1012.693	46
1012.855	27.79
1013.016	16.55
1013.177	79.13
1013.338	31.86
1013.499	84.94
1013.66	49.1
1013.821	50.26
1013.982	56.85
1014.143	26.04
1014.304	-7.09
1014.465	32.63
1014.626	64.21
1014.787	26.04
1014.948	106.45
1015.109	-28.98
1015.27	73.9
1015.431	21.78
1015.592	0.86
1015.752	77.58
1015.913	50.46
1016.074	72.93
1016.235	21.39
1016.395	13.26
1016.556	8.02
1016.717	27.01
1016.877	52.2
1017.038	13.45
1017.199	18.87
1017.359	47.55
1017.52	41.35
1017.681	2.21
1017.841	22.17
1018.002	11.9
1018.162	25.46
1018.323	87.85
1018.483	35.92
1018.644	36.7
1018.804	1.44
1018.964	-6.7
1019.125	6.67
1019.285	-5.54
1019.446	-3.41
1019.606	-15.42
1019.766	-10.38
1019.926	57.04
1020.087	22.75
1020.247	-12.51
1020.407	46.77
1020.567	46.58
1020.728	6.28
1020.888	-11.16
1021.048	14.03
1021.208	8.22
1021.368	-11.74
1021.528	53.17
1021.688	69.83
1021.848	44.45
1022.008	26.43
1022.168	4.34
1022.328	35.73
1022.488	39.22
1022.648	-1.66
1022.808	43.87
1022.968	40.19
1023.128	2.02
1023.288	3.76
1023.448	-5.73
1023.608	49.49
1023.767	42.51
1023.927	-3.6
1024.087	-27.63
1024.247	-27.24
1024.406	-33.05
1024.566	-39.06
1024.726	-4.57
1024.885	3.37
1025.045	45.03
1025.205	9.38
1025.364	22.94
1025.524	38.06
1025.683	15.58
1025.843	55.3
1026.003	27.98
1026.162	66.92
1026.321	43.48
1026.481	34.76
1026.64	15.39
1026.8	19.65
1026.959	6.09
1027.119	21.59
1027.278	16.74
1027.437	-9.8
1027.597	20.23
1027.756	29.14
1027.915	20.23
1028.074	42.51
1028.234	-24.14
1028.393	8.61
1028.552	16.36
1028.711	-53.01
1028.87	53.36
1029.03	-4.18
1029.189	8.61
1029.348	-55.14
1029.507	-8.83
1029.666	4.54
1029.825	-8.25
1029.984	-20.26
1030.143	24.88
1030.302	3.76
1030.461	-31.31
1030.62	29.92
1030.779	23.91
1030.938	-42.54
1031.097	-13.29
1031.255	32.24
1031.414	68.47
1031.573	52.97
1031.732	-38.47
1031.891	0.47
1032.049	40.96
1032.208	43.29
1032.367	-13.29
1032.525	-16.97
1032.684	-1.47
1032.843	22.56
1033.001	-56.11
1033.16	154.11
1033.319	48.13
1033.477	38.64
1033.636	-13.68
1033.794	-44.87
1033.953	35.54
1034.111	49.68
1034.27	-20.46
1034.428	33.41
1034.587	-4.38
1034.745	6.86
1034.903	1.44
1035.062	28.76
1035.22	-39.25
1035.378	40.57
1035.537	-12.32
1035.695	40.77
1035.853	1.44
1036.011	66.15
1036.17	35.92
1036.328	-65.21
1036.486	46.97
1036.644	32.05
1036.802	-68.51
1036.96	-28.4
1037.119	15.19
1037.277	-15.03
1037.435	-42.93
1037.593	-26.85
1037.751	1.63
1037.909	27.4
1038.067	27.4
