Data from pine_FLMT105791__8__17-19-42-080.txt Node

Date: Mon Mar 20 17:19:42 GMT 2023
User: antho
Spectrometer: FLMT10579
Trigger mode: 0
Integration Time (sec): 1.000000E-1
Scans to average: 10
Electric dark correction enabled: true
Nonlinearity correction enabled: false
Boxcar width: 0
XAxis mode: Wavelengths
Number of Pixels in Spectrum: 3648
>>>>>Begin Spectral Data<<<<<
345.248	-161.73
345.464	-161.73
345.681	-161.73
345.898	-166.19
346.114	-144.87
346.331	-58.27
346.548	44.8
346.764	-6.35
346.981	0.05
347.197	-10.61
347.414	8.57
347.631	-11.19
347.847	56.62
348.064	-0.92
348.28	11.87
348.497	-29.59
348.713	-4.99
348.93	25.04
349.146	39.19
349.363	5.09
349.579	-4.41
349.796	4.12
350.012	18.26
350.229	32.6
350.445	5.86
350.661	-10.61
350.878	-15.26
351.094	16.52
351.311	-10.41
351.527	34.54
351.743	12.45
351.96	28.14
352.176	31.05
352.392	44.8
352.609	36.09
352.825	-10.03
353.041	-29.01
353.257	0.44
353.474	1.21
353.69	-0.15
353.906	-5.38
354.122	-17.2
354.339	56.04
354.555	27.95
354.771	-5.57
354.987	65.15
355.203	66.31
355.42	-4.6
355.636	-10.03
355.852	13.22
356.068	-12.74
356.284	-48.78
356.5	74.06
356.716	12.06
356.932	9.93
357.148	36.86
357.364	20.2
357.58	63.4
357.796	82.97
358.012	54.1
358.228	-0.92
358.444	-51.1
358.66	56.43
358.876	16.32
359.092	-7.9
359.308	9.15
359.524	19.23
359.74	9.35
359.956	-25.33
360.172	26.01
360.388	54.1
360.604	-0.53
360.819	73.09
361.035	21.94
361.251	54.1
361.467	-20.68
361.683	30.27
361.898	34.34
362.114	22.33
362.33	1.79
362.546	14.97
362.762	1.6
362.977	38.22
363.193	-5.96
363.409	28.14
363.624	-25.53
363.84	-17.78
364.056	6.44
364.271	12.84
364.487	17.49
364.703	-4.41
364.918	-15.06
365.134	-9.25
365.35	-5.18
365.565	97.7
365.781	21.17
365.996	18.07
366.212	99.44
366.427	24.46
366.643	-12.55
366.858	-19.52
367.074	-44.9
367.289	45.58
367.505	114.36
367.72	-38.89
367.936	9.54
368.151	36.09
368.367	38.02
368.582	1.6
368.798	15.35
369.013	53.33
369.228	1.79
369.444	13.42
369.659	63.4
369.874	29.69
370.09	57.98
370.305	-35.02
370.52	-11.96
370.736	57.59
370.951	20.97
371.166	39.96
371.381	60.3
371.597	32.79
371.812	3.34
372.027	-24.17
372.242	13.22
372.458	66.31
372.673	-6.35
372.888	18.07
373.103	42.29
373.318	94.21
373.533	34.54
373.749	26.79
373.964	-27.85
374.179	54.1
374.394	-2.47
374.609	59.53
374.824	-33.47
375.039	70.38
375.254	20.97
375.469	73.87
375.684	24.07
375.899	76.58
376.114	18.84
376.329	18.65
376.544	35.7
376.759	55.65
376.974	13.61
377.189	-4.99
377.404	2.57
377.619	53.14
377.834	-52.46
378.049	-35.6
378.264	10.51
378.478	12.25
378.693	-0.53
378.908	34.92
379.123	0.44
379.338	38.8
379.553	29.69
379.767	31.63
379.982	31.82
380.197	19.23
380.412	27.17
380.626	8.19
380.841	106.42
381.056	28.53
381.271	74.45
381.485	-29.59
381.7	-14.48
381.915	55.65
382.129	20.78
382.344	17.29
382.559	6.64
382.773	31.82
382.988	-36.57
383.202	43.64
383.417	-7.7
383.632	106.03
383.846	19.04
384.061	10.9
384.275	16.71
384.49	34.15
384.704	44.8
384.919	26.98
385.133	1.21
385.348	44.42
385.562	-23.01
385.777	71.35
385.991	16.9
386.206	0.24
386.42	-16.03
386.634	84.13
386.849	25.43
387.063	23.49
387.277	-10.03
387.492	-3.05
387.706	-7.51
387.92	-6.54
388.135	40.15
388.349	52.17
388.563	34.92
388.778	30.08
388.992	30.66
389.206	58.37
389.42	110.48
389.635	20.97
389.849	42.09
390.063	61.85
390.277	32.02
390.491	77.35
390.706	23.49
390.92	70.38
391.134	27.56
391.348	62.05
391.562	-43.54
391.776	21.55
391.99	-1.7
392.205	57.4
392.419	2.57
392.633	-10.61
392.847	81.42
393.061	23.1
393.275	81.23
393.489	10.32
393.703	50.04
393.917	64.37
394.131	12.84
394.345	59.14
394.559	54.49
394.773	7.02
394.986	24.07
395.2	15.74
395.414	28.92
395.628	-19.52
395.842	32.6
396.056	4.31
396.27	-18.75
396.484	48.49
396.697	31.82
396.911	74.83
397.125	78.13
397.339	68.05
397.553	53.33
397.766	116.88
397.98	82.39
398.194	94.21
398.408	15.94
398.621	44.22
398.835	64.76
399.049	22.14
399.262	57.01
399.476	57.2
399.69	57.4
399.903	87.43
400.117	19.04
400.331	32.6
400.544	8.96
400.758	134.9
400.971	60.3
401.185	60.3
401.398	12.64
401.612	88.78
401.826	61.27
402.039	53.14
402.253	30.27
402.466	63.02
402.68	44.03
402.893	44.22
403.106	56.24
403.32	17.87
403.533	54.49
403.747	25.82
403.96	60.69
404.174	59.72
404.387	14.58
404.6	51.97
404.814	79.48
405.027	76.19
405.24	58.17
405.454	52.55
405.667	93.43
405.88	-4.21
406.094	38.41
406.307	66.7
406.52	60.89
406.733	15.55
406.947	-20.3
407.16	89.56
407.373	97.31
407.586	26.2
407.799	25.24
408.012	61.66
408.226	48.49
408.439	80.26
408.652	-8.48
408.865	33.76
409.078	99.44
409.291	52.36
409.504	19.23
409.717	66.5
409.93	52.94
410.143	45.39
410.357	14
410.57	-13.71
410.783	63.6
410.996	63.79
411.209	42.87
411.421	76.19
411.634	40.35
411.847	28.92
412.06	22.33
412.273	50.23
412.486	48.68
412.699	136.25
412.912	47.32
413.125	69.22
413.338	48.29
413.55	92.47
413.763	85.68
413.976	58.37
414.189	2.76
414.402	43.25
414.615	84.52
414.827	24.85
415.04	81.42
415.253	54.88
415.466	85.1
415.678	120.17
415.891	28.14
416.104	45.77
416.316	52.36
416.529	15.35
416.742	60.69
416.954	84.52
417.167	33.95
417.38	42.48
417.592	96.53
417.805	9.54
418.017	25.04
418.23	81.03
418.442	15.16
418.655	36.67
418.868	36.09
419.08	68.25
419.293	93.82
419.505	69.22
419.718	77.55
419.93	105.06
420.142	60.11
420.355	106.03
420.567	117.65
420.78	85.68
420.992	54.1
421.205	114.55
421.417	51.97
421.629	44.42
421.842	18.84
422.054	6.44
422.266	80.07
422.479	75.42
422.691	54.88
422.903	82
423.115	46.16
423.328	76.58
423.54	75.42
423.752	52.17
423.964	17.87
424.177	62.44
424.389	55.27
424.601	143.23
424.813	81.81
425.025	87.23
425.238	75.22
425.45	55.65
425.662	57.2
425.874	355.57
426.086	61.47
426.298	87.43
426.51	79.29
426.722	66.31
426.934	34.73
427.146	88.59
427.358	51
427.57	132.38
427.782	74.45
427.994	74.64
428.206	32.79
428.418	-11.96
428.63	109.71
428.842	127.92
429.054	88.98
429.266	110.1
429.478	44.42
429.69	74.45
429.902	26.79
430.114	98.86
430.325	68.25
430.537	77.16
430.749	107.58
430.961	18.07
431.173	64.18
431.384	92.27
431.596	27.37
431.808	76.58
432.02	97.31
432.231	75.42
432.443	145.75
432.655	94.02
432.867	39.77
433.078	99.44
433.29	163.57
433.502	137.22
433.713	114.75
433.925	76.97
434.136	149.62
434.348	50.04
434.56	44.8
434.771	175.2
434.983	22.72
435.194	65.34
435.406	79.1
435.617	148.85
435.829	172.48
436.04	109.71
436.252	123.08
436.463	143.62
436.675	123.85
436.886	136.64
437.098	92.66
437.309	179.07
437.521	124.63
437.732	120.56
437.943	89.56
438.155	132.57
438.366	68.63
438.578	165.51
438.789	102.15
439	126.95
439.211	130.05
439.423	126.18
439.634	130.25
439.845	133.93
440.057	124.63
440.268	168.61
440.479	96.53
440.69	130.83
440.902	106.22
441.113	129.47
441.324	96.92
441.535	136.25
441.746	180.23
441.957	84.52
442.168	113
442.38	129.67
442.591	166.09
442.802	105.45
443.013	97.12
443.224	130.83
443.435	92.66
443.646	135.28
443.857	103.51
444.068	119.98
444.279	87.23
444.49	175.78
444.701	138.19
444.912	207.55
445.123	183.72
445.334	148.65
445.545	150.59
445.756	151.37
445.967	120.56
446.178	165.12
446.388	183.14
446.599	185.46
446.81	162.99
447.021	134.12
447.232	175.58
447.443	192.25
447.653	116.88
447.864	159.89
448.075	130.44
448.286	167.83
448.496	159.7
448.707	179.46
448.918	145.94
449.129	248.43
449.339	111.07
449.55	175.2
449.761	179.07
449.971	224.99
450.182	145.17
450.393	174.03
450.603	159.31
450.814	188.37
451.024	154.85
451.235	189.92
451.446	213.95
451.656	225.18
451.867	154.27
452.077	210.46
452.288	237.97
452.498	221.31
452.709	175.2
452.919	172.48
453.13	157.37
453.34	213.95
453.55	127.15
453.761	242.81
453.971	196.51
454.182	193.41
454.392	193.99
454.602	241.26
454.813	194.57
455.023	219.56
455.233	171.71
455.444	205.42
455.654	124.43
455.864	176.55
456.075	134.7
456.285	161.25
456.495	175
456.705	194.76
456.916	211.43
457.126	225.76
457.336	182.75
457.546	119.98
457.756	181.59
457.967	239.33
458.177	181.59
458.387	182.95
458.597	168.8
458.807	189.73
459.017	186.24
459.227	182.56
459.437	178.49
459.647	234.68
459.857	205.03
460.068	161.83
460.278	236.42
460.488	196.9
460.698	269.36
460.908	192.05
461.117	144.39
461.327	172.29
461.537	221.31
461.747	192.83
461.957	198.25
462.167	308.69
462.377	233.13
462.587	194.76
462.797	236.61
463.007	220.92
463.216	247.85
463.426	258.7
463.636	254.24
463.846	164.35
464.056	202.13
464.265	271.88
464.475	190.5
464.685	234.29
464.895	230.22
465.104	223.44
465.314	252.69
465.524	205.03
465.733	186.82
465.943	266.64
466.153	280.21
466.362	260.64
466.572	216.46
466.782	194.96
466.991	226.15
467.201	276.53
467.41	163.76
467.62	218.6
467.829	217.24
468.039	256.38
468.249	184.3
468.458	216.66
468.668	246.69
468.877	255.41
469.086	278.66
469.296	268
469.505	205.42
469.715	273.43
469.924	250.76
470.134	288.15
470.343	294.54
470.552	203.29
470.762	230.41
470.971	204.26
471.18	247.27
471.39	242.43
471.599	234.68
471.808	244.36
472.018	209.68
472.227	301.13
472.436	266.06
472.645	234.29
472.855	217.43
473.064	313.92
473.273	274.98
473.482	293.38
473.691	319.93
473.901	279.63
474.11	264.51
474.319	349.96
474.528	271.29
474.737	327.09
474.946	308.11
475.155	274.01
475.364	308.3
475.573	293.19
475.783	294.16
475.992	294.74
476.201	327.09
476.41	284.86
476.619	274.39
476.828	290.28
477.037	272.26
477.245	305.39
477.454	346.66
477.663	284.08
477.872	284.28
478.081	349.76
478.29	275.56
478.499	364.87
478.708	295.32
478.917	353.83
479.125	301.91
479.334	333.68
479.543	293.19
479.752	313.34
479.961	330.58
480.169	344.53
480.378	266.45
480.587	430.75
480.796	321.28
481.004	319.54
481.213	361.58
481.422	294.74
481.63	313.92
481.839	343.95
482.048	360.42
482.256	345.69
482.465	354.99
482.674	383.47
482.882	396.65
483.091	429.59
483.299	371.27
483.508	386.19
483.716	377.08
483.925	351.7
484.134	346.47
484.342	325.16
484.551	399.75
484.759	381.73
484.967	394.71
485.176	411.18
485.384	392.39
485.593	435.79
485.801	410.79
486.01	362.36
486.218	374.37
486.426	333.29
486.635	358.87
486.843	340.07
487.051	359.26
487.26	361.19
487.468	360.42
487.676	407.69
487.885	345.69
488.093	362.94
488.301	411.57
488.509	374.76
488.717	399.17
488.926	395.49
489.134	371.85
489.342	388.12
489.55	347.63
489.758	380.96
489.967	357.71
490.175	509.8
490.383	385.41
490.591	458.84
490.799	366.62
491.007	442.37
491.215	427.26
491.423	409.63
491.631	410.99
491.839	409.05
492.047	432.49
492.255	371.85
492.463	359.45
492.671	395.68
492.879	484.61
493.087	418.35
493.295	463.49
493.503	456.52
493.711	446.83
493.919	480.93
494.127	480.93
494.334	454.58
494.542	387.54
494.75	468.14
494.958	418.15
495.166	516.38
495.374	492.94
495.581	479.19
495.789	468.53
495.997	508.63
496.205	454.39
496.412	438.89
496.62	433.46
496.828	468.34
497.035	467.17
497.243	483.84
497.451	465.62
497.658	488.1
497.866	439.27
498.074	492.55
498.281	447.6
498.489	543.12
498.696	471.82
498.904	465.62
499.112	493.14
499.319	535.37
499.527	469.5
499.734	530.53
499.942	463.69
500.149	463.1
500.357	501.47
500.564	442.95
500.771	500.5
500.979	466.59
501.186	491.97
501.394	493.14
501.601	489.26
501.808	511.73
502.016	492.36
502.223	472.6
502.43	493.14
502.638	482.48
502.845	467.37
503.052	553.58
503.26	465.82
503.467	561.92
503.674	519.87
503.881	535.37
504.089	591.56
504.296	527.04
504.503	479.57
504.71	509.6
504.917	472.21
505.125	520.84
505.332	519.68
505.539	520.26
505.746	600.66
505.953	557.46
506.16	552.62
506.367	574.12
506.574	585.75
506.781	563.27
506.988	523.36
507.195	553.78
507.402	551.45
507.609	579.93
507.816	533.05
508.023	547.77
508.23	557.46
508.437	504.57
508.644	546.42
508.851	626.63
509.058	603.57
509.265	565.02
509.472	583.23
509.679	654.53
509.885	586.13
510.092	569.47
510.299	555.52
510.506	566.95
510.713	606.09
510.92	574.32
511.126	571.02
511.333	609.19
511.54	631.86
511.746	634.76
511.953	633.99
512.16	621.78
512.367	587.88
512.573	623.14
512.78	598.53
512.987	609.19
513.193	604.54
513.4	543.7
513.606	591.36
513.813	622.56
514.02	590.01
514.226	687.85
514.433	659.56
514.639	588.27
514.846	599.89
515.052	570.83
515.259	618.49
515.465	627.01
515.672	604.54
515.878	706.64
516.085	620.43
516.291	676.61
516.497	605.12
516.704	583.03
516.91	609
517.117	575.28
517.323	557.85
517.529	576.83
517.736	556.68
517.942	614.61
518.148	586.91
518.354	615
518.561	594.08
518.767	594.27
518.973	629.34
519.179	650.26
519.386	584.97
519.592	608.61
519.798	593.5
520.004	667.51
520.21	639.61
520.417	678.55
520.623	693.47
520.829	677.19
521.035	698.89
521.241	683.98
521.447	703.74
521.653	791.51
521.859	672.55
522.065	731.83
522.271	813.98
522.477	735.9
522.683	774.07
522.889	741.33
523.095	728.73
523.301	726.02
523.507	695.02
523.713	719.04
523.919	683.78
524.125	769.22
524.331	732.41
524.537	768.26
524.742	786.86
524.948	786.66
525.154	768.64
525.36	844.59
525.566	809.52
525.772	813.79
525.977	712.26
526.183	797.32
526.389	834.32
526.595	761.48
526.8	760.89
527.006	711.1
527.212	713.62
527.417	705.68
527.623	680.49
527.829	801.97
528.034	786.27
528.24	765.54
528.446	714.01
528.651	811.85
528.857	807.2
529.062	843.82
529.268	794.8
529.473	807.78
529.679	796.54
529.884	853.12
530.09	840.72
530.295	870.75
530.501	838.2
530.706	831.22
530.912	800.81
531.117	841.11
531.323	844.98
531.528	869.39
531.733	885.86
531.939	831.61
532.144	860.87
532.35	853.5
532.555	883.34
532.76	890.9
532.966	889.93
533.171	884.12
533.376	817.66
533.581	809.72
533.787	865.13
533.992	872.69
534.197	900.78
534.402	820.76
534.607	831.81
534.813	961.03
535.018	841.69
535.223	880.82
535.428	886.25
535.633	931.2
535.838	920.35
536.043	887.22
536.249	1003.66
536.454	878.89
536.659	939.53
536.864	863.39
537.069	914.54
537.274	925
537.479	938.37
537.684	907.37
537.889	866.29
538.094	966.27
538.299	898.07
538.504	924.03
538.708	919.38
538.913	949.8
539.118	932.75
539.323	908.34
539.528	891.09
539.733	895.16
539.938	943.79
540.142	939.92
540.347	914.34
540.552	904.46
540.757	915.5
540.962	892.64
541.166	894.19
541.371	871.33
541.576	896.13
541.781	811.07
541.985	927.32
542.19	933.91
542.395	999.4
542.599	975.57
542.804	968.59
543.008	1003.08
543.213	922.09
543.418	902.52
543.622	935.07
543.827	891.29
544.031	978.08
544.236	965.88
544.44	939.33
544.645	1042.99
544.849	960.26
545.054	969.17
545.258	1051.51
545.463	1015.48
545.667	953.67
545.872	967.82
546.076	954.25
546.281	971.88
546.485	917.25
546.689	990.48
546.894	993.78
547.098	969.56
547.302	945.92
547.507	997.85
547.711	1004.24
547.915	1005.98
548.119	918.41
548.324	973.82
548.528	1036.4
548.732	957.16
548.936	980.6
549.141	1012.57
549.345	953.67
549.549	989.52
549.753	978.67
549.957	1047.45
550.161	1096.08
550.366	970.92
550.57	972.08
550.774	987.19
550.978	962.97
551.182	1010.63
551.386	991.26
551.59	1008.89
551.794	996.49
551.998	1002.88
552.202	950.57
552.406	933.72
552.61	993.78
552.814	1002.88
553.018	1030.4
553.222	998.04
553.426	993.58
553.63	1073.8
553.833	978.67
554.037	933.72
554.241	1024.97
554.445	1005.79
554.649	1000.37
554.853	983.7
555.056	1011.02
555.26	1014.7
555.464	1028.85
555.668	1004.05
555.871	1018.38
556.075	1042.41
556.279	972.27
556.483	956.19
556.686	999.4
556.89	1014.32
557.094	1016.83
557.297	938.75
557.501	1013.73
557.704	908.14
557.908	1032.14
558.112	932.17
558.315	1043.38
558.519	974.21
558.722	1005.79
558.926	956.97
559.129	923.25
559.333	918.41
559.536	982.35
559.74	910.85
559.943	921.12
560.147	906.2
560.35	948.25
560.553	938.37
560.757	850.02
560.96	992.81
561.164	910.85
561.367	1024.58
561.57	950.57
561.774	970.72
561.977	959.48
562.18	920.74
562.384	1021.29
562.587	950.18
562.79	919.77
562.993	931.97
563.197	986.8
563.4	999.2
563.603	1022.26
563.806	1033.88
564.009	936.24
564.212	993
564.416	880.63
564.619	967.23
564.822	915.7
565.025	969.17
565.228	909.69
565.431	918.22
565.634	870.94
565.837	932.75
566.04	895.35
566.243	883.54
566.446	851.96
566.649	932.55
566.852	878.89
567.055	873.65
567.258	923.84
567.461	967.62
567.664	954.83
567.867	839.17
568.07	911.24
568.273	895.16
568.475	974.98
568.678	878.5
568.881	885.47
569.084	909.69
569.287	808.36
569.489	853.7
569.692	925
569.895	903.3
570.098	815.72
570.3	848.27
570.503	779.88
570.706	814.17
570.909	804.1
571.111	797.32
571.314	783.37
571.516	818.24
571.719	845.56
571.922	806.62
572.124	837.81
572.327	808.36
572.529	764.96
572.732	764.38
572.935	820.37
573.137	885.86
573.34	800.42
573.542	843.24
573.745	849.24
573.947	846.53
574.15	801.39
574.352	767.09
574.554	877.14
574.757	788.79
574.959	799.84
575.162	748.11
575.364	786.08
575.566	897.68
575.769	787.05
575.971	828.51
576.173	728.54
576.376	789.18
576.578	820.37
576.78	868.62
576.982	709.55
577.185	771.94
577.387	768.26
577.589	749.27
577.791	796.54
577.993	801.58
578.196	788.99
578.398	820.18
578.6	844.98
578.802	779.49
579.004	722.14
579.206	745.2
579.408	820.37
579.61	764.77
579.812	801.58
580.014	764.19
580.216	758.38
580.418	740.16
580.62	714.98
580.822	689.01
581.024	759.34
581.226	787.82
581.428	756.44
581.63	849.24
581.832	702.38
582.034	809.91
582.236	788.99
582.438	811.27
582.64	832
582.841	842.66
583.043	881.4
583.245	789.37
583.447	826.77
583.649	768.06
583.85	780.07
584.052	825.61
584.254	749.85
584.456	817.86
584.657	720.4
584.859	796.74
585.061	758.96
585.262	749.66
585.464	714.2
585.666	787.63
585.867	784.53
586.069	811.27
586.27	790.15
586.472	776.39
586.674	760.31
586.875	750.82
587.077	743.84
587.278	779.3
587.48	737.64
587.681	854.67
587.883	781.43
588.084	706.06
588.285	701.61
588.487	753.14
588.688	748.88
588.89	720.01
589.091	696.38
589.292	701.61
589.494	695.79
589.695	691.34
589.896	631.08
590.098	623.33
590.299	659.37
590.5	654.14
590.702	647.55
590.903	688.82
591.104	752.95
591.305	708
591.507	771.36
591.708	736.87
591.909	695.41
592.11	789.96
592.311	723.89
592.512	701.03
592.714	653.17
592.915	652.4
593.116	690.18
593.317	712.26
593.518	707.61
593.719	689.21
593.92	741.71
594.121	731.06
594.322	714.01
594.523	721.76
594.724	692.11
594.925	718.85
595.126	720.01
595.327	717.88
595.528	717.11
595.729	732.99
595.929	709.36
596.13	685.53
596.331	714.2
596.532	705.09
596.733	767.67
596.934	739
597.135	742.68
597.335	730.86
597.536	681.46
597.737	726.21
597.938	666.15
598.138	749.08
598.339	689.21
598.54	713.43
598.74	712.46
598.941	695.6
599.142	726.6
599.342	726.21
599.543	665.76
599.744	732.03
599.944	699.48
600.145	707.61
600.345	739.19
600.546	790.54
600.746	750.63
600.947	765.54
601.147	726.41
601.348	766.71
601.548	679.91
601.749	707.81
601.949	672.35
602.15	692.11
602.35	704.32
602.551	741.33
602.751	663.05
602.951	678.36
603.152	624.69
603.352	728.93
603.552	711.29
603.753	729.7
603.953	725.24
604.153	713.62
604.354	718.27
604.554	690.76
604.754	712.65
604.954	637.28
605.155	698.51
605.355	669.06
605.555	739.78
605.755	771.16
605.955	688.82
606.155	744.23
606.356	741.33
606.556	734.35
606.756	734.54
606.956	664.8
607.156	757.41
607.356	673.71
607.556	715.17
607.756	707.42
607.956	771.36
608.156	698.51
608.356	649.1
608.556	712.84
608.756	709.55
608.956	677.19
609.156	692.11
609.356	663.63
609.556	648.91
609.755	724.66
609.955	657.63
610.155	694.05
610.355	701.22
610.555	664.6
610.755	701.99
610.954	640.96
611.154	683.39
611.354	708.39
611.554	684.36
611.753	690.37
611.953	638.06
612.153	693.47
612.352	677.58
612.552	635.35
612.752	604.54
612.951	653.56
613.151	658.79
613.351	607.25
613.55	660.34
613.75	656.46
613.949	622.95
614.149	674.1
614.348	677.39
614.548	650.26
614.747	576.64
614.947	627.21
615.146	584.78
615.346	678.55
615.545	637.09
615.745	646.39
615.944	657.05
616.144	648.13
616.343	659.95
616.542	596.79
616.742	650.46
616.941	646.2
617.14	611.13
617.34	624.11
617.539	634.76
617.738	620.23
617.938	676.23
618.137	630.7
618.336	595.24
618.535	635.93
618.734	666.35
618.934	646.39
619.133	633.6
619.332	654.14
619.531	597.37
619.73	617.91
619.929	674.29
620.128	644.26
620.328	690.95
620.527	606.86
620.726	616.75
620.925	657.63
621.124	607.83
621.323	647.94
621.522	598.92
621.721	602.8
621.92	596.01
622.119	624.69
622.318	594.46
622.517	618.49
622.715	605.31
622.914	550.48
623.113	615.2
623.312	539.63
623.511	611.32
623.71	609.19
623.909	584
624.107	654.91
624.306	591.56
624.505	542.35
624.704	574.7
624.902	567.92
625.101	653.17
625.3	597.37
625.499	573.93
625.697	587.88
625.896	565.02
626.095	615.97
626.293	531.5
626.492	537.89
626.69	613.45
626.889	565.6
627.088	594.27
627.286	565.02
627.485	542.54
627.683	532.47
627.882	598.53
628.08	491
628.279	588.65
628.477	620.43
628.676	551.84
628.874	593.3
629.073	548.93
629.271	535.76
629.469	552.81
629.668	552.23
629.866	560.75
630.065	531.3
630.263	584.78
630.461	527.04
630.66	584.39
630.858	563.66
631.056	589.43
631.254	588.07
631.453	533.63
631.651	586.52
631.849	571.99
632.047	558.04
632.245	564.24
632.444	573.35
632.642	566.37
632.84	552.62
633.038	550.87
633.236	530.72
633.434	557.27
633.632	537.5
633.83	551.84
634.028	558.43
634.227	544.87
634.425	602.6
634.623	565.6
634.821	549.32
635.019	562.88
635.216	542.93
635.414	569.86
635.612	537.12
635.81	549.9
636.008	620.81
636.206	582.45
636.404	579.55
636.602	506.5
636.8	585.94
636.997	591.36
637.195	595.43
637.393	586.91
637.591	603.57
637.789	576.45
637.986	553.39
638.184	568.89
638.382	592.72
638.58	590.4
638.777	620.62
638.975	550.29
639.173	546.03
639.37	570.05
639.568	585.55
639.765	592.72
639.963	564.24
640.161	612.1
640.358	578.58
640.556	569.47
640.753	513.09
640.951	532.27
641.148	612.48
641.346	555.72
641.543	556.49
641.741	565.4
641.938	507.67
642.136	568.31
642.333	531.3
642.531	577.03
642.728	595.82
642.925	534.4
643.123	551.07
643.32	567.34
643.517	533.24
643.715	547.19
643.912	499.34
644.109	556.49
644.306	541.96
644.504	492.55
644.701	529.75
644.898	590.59
645.095	529.37
645.293	535.95
645.49	557.85
645.687	548.55
645.884	546.03
646.081	481.32
646.278	503.98
646.475	530.53
646.672	502.05
646.87	559.78
647.067	523.75
647.264	529.56
647.461	475.31
647.658	468.14
647.855	536.15
648.052	454.77
648.249	442.57
648.446	500.89
648.642	477.83
648.839	470.85
649.036	477.64
649.233	435.2
649.43	453.61
649.627	460.2
649.824	481.32
650.021	474.34
650.217	467.95
650.414	465.04
650.611	509.41
650.808	512.9
651.004	485.19
651.201	526.07
651.398	540.99
651.595	485.77
651.791	456.32
651.988	507.67
652.185	469.89
652.381	489.65
652.578	437.72
652.775	477.25
652.971	502.24
653.168	479.19
653.364	494.3
653.561	445.86
653.757	475.5
653.954	491.97
654.15	459.42
654.347	544.87
654.543	464.85
654.74	442.37
654.936	446.05
655.133	465.62
655.329	460.59
655.525	477.25
655.722	501.85
655.918	470.47
656.115	490.04
656.311	429.97
656.507	408.66
656.704	363.32
656.9	406.53
657.096	428.42
657.292	428.62
657.489	451.67
657.685	471.05
657.881	433.65
658.077	418.15
658.273	440.05
658.47	495.07
658.666	412.92
658.862	475.31
659.058	439.66
659.254	477.25
659.45	420.29
659.646	456.32
659.842	432.88
660.038	497.98
660.234	401.11
660.43	457.87
660.626	531.3
660.822	497.98
661.018	502.82
661.214	439.08
661.41	419.9
661.606	494.88
661.802	477.83
661.998	460.59
662.194	432.69
662.39	485.19
662.586	445.86
662.781	490.23
662.977	478.99
663.173	497.01
663.369	436.17
663.564	455.16
663.76	480.74
663.956	462.91
664.152	487.52
664.347	416.6
664.543	460.78
664.739	440.24
664.934	416.02
665.13	427.26
665.326	468.72
665.521	464.07
665.717	415.44
665.912	414.67
666.108	359.45
666.304	419.51
666.499	443.73
666.695	334.26
666.89	406.34
667.086	475.12
667.281	472.6
667.477	486.16
667.672	416.6
667.867	448.77
668.063	455.55
668.258	414.47
668.454	422.8
668.649	506.12
668.844	443.34
669.04	458.65
669.235	444.5
669.43	420.09
669.626	393.36
669.821	419.12
670.016	410.02
670.211	439.08
670.407	378.05
670.602	431.72
670.797	422.22
670.992	455.94
671.187	414.09
671.382	465.24
671.578	414.09
671.773	416.8
671.968	409.05
672.163	416.99
672.358	429.59
672.553	407.69
672.748	403.62
672.943	484.03
673.138	414.28
673.333	456.9
673.528	392.77
673.723	421.84
673.918	436.37
674.113	381.73
674.308	511.73
674.503	423
674.698	450.9
674.892	413.31
675.087	437.14
675.282	433.85
675.477	398.01
675.672	447.02
675.867	413.31
676.061	373.01
676.256	371.07
676.451	424.35
676.646	404.4
676.84	388.32
677.035	370.88
677.23	356.93
677.424	425.32
677.619	448.38
677.814	456.9
678.008	423.97
678.203	345.11
678.397	387.54
678.592	438.5
678.787	440.63
678.981	391.42
679.176	445.09
679.37	399.94
679.565	361.39
679.759	422.03
679.954	435.98
680.148	469.11
680.342	454.19
680.537	435.4
680.731	389.48
680.926	400.14
681.12	444.5
681.314	379.6
681.509	389.87
681.703	414.67
681.897	434.24
682.092	383.09
682.286	373.98
682.48	461.17
682.674	448.96
682.869	402.27
683.063	412.34
683.257	464.46
683.451	376.5
683.645	412.54
683.839	420.87
684.034	399.17
684.228	439.66
684.422	380.76
684.616	398.2
684.81	438.3
685.004	424.35
685.198	406.14
685.392	445.67
685.586	386.77
685.78	427.07
685.974	446.25
686.168	409.82
686.362	462.72
686.556	393.55
686.75	375.14
686.944	372.24
687.138	399.36
687.331	338.52
687.525	341.24
687.719	278.27
687.913	342.21
688.107	351.12
688.301	324.77
688.494	351.7
688.688	332.13
688.882	308.88
689.076	286.79
689.269	355.38
689.463	424.35
689.657	337.75
689.85	315.66
690.044	365.26
690.238	330.19
690.431	341.04
690.625	352.86
690.818	387.74
691.012	382.89
691.205	395.68
691.399	388.9
691.593	398.78
691.786	445.47
691.98	442.95
692.173	451.87
692.366	427.07
692.56	459.04
692.753	468.14
692.947	409.44
693.14	488.87
693.333	451.48
693.527	370.3
693.72	461.75
693.914	435.98
694.107	437.92
694.3	455.35
694.493	437.53
694.687	502.24
694.88	424.94
695.073	521.62
695.266	470.27
695.46	448.38
695.653	528.4
695.846	502.82
696.039	436.75
696.232	459.23
696.425	485.39
696.618	522.39
696.812	508.83
697.005	566.37
697.198	627.4
697.391	525.68
697.584	553.2
697.777	593.5
697.97	590.78
698.163	593.11
698.356	556.1
698.549	650.26
698.742	640
698.935	595.43
699.127	609.96
699.32	539.63
699.513	556.88
699.706	615.78
699.899	620.43
700.092	599.31
700.285	610.16
700.477	566.95
700.67	617.91
700.863	626.82
701.056	739.58
701.248	678.74
701.441	662.08
701.634	644.84
701.826	742.68
702.019	664.6
702.212	705.09
702.404	653.95
702.597	652.2
702.79	651.81
702.982	700.06
703.175	717.69
703.367	737.26
703.56	717.88
703.752	809.52
703.945	769.81
704.137	755.28
704.33	766.51
704.522	778.52
704.715	807.39
704.907	805.84
705.1	844.98
705.292	826.96
705.484	819.79
705.677	850.41
705.869	854.47
706.061	841.11
706.254	862.61
706.446	881.6
706.638	862.03
706.831	924.03
707.023	869.97
707.215	965.1
707.407	936.04
707.599	945.53
707.792	963.55
707.984	954.64
708.176	992.23
708.368	952.9
708.56	984.87
708.752	981.96
708.944	964.52
709.136	1016.83
709.329	1019.55
709.521	1112.93
709.713	1087.55
709.905	1077.86
710.097	1095.3
710.289	1000.75
710.481	1070.31
710.672	1075.54
710.864	1064.3
711.056	1122.23
711.248	1132.89
711.44	1093.75
711.632	1106.54
711.824	1133.66
712.016	1183.65
712.207	1177.06
712.399	1160.21
712.591	1223.37
712.783	1194.11
712.975	1230.34
713.166	1149.94
713.358	1200.89
713.55	1265.8
713.741	1278.97
713.933	1242.36
714.125	1269.48
714.316	1235.38
714.508	1297.96
714.7	1337.68
714.891	1311.14
715.083	1360.74
715.274	1352.6
715.466	1328.57
715.657	1379.33
715.849	1252.82
716.04	1349.11
716.232	1241.77
716.423	1361.12
716.615	1264.83
716.806	1281.88
716.998	1241
717.189	1188.3
717.381	1128.43
717.572	1133.86
717.763	1207.48
717.955	1156.14
718.146	1125.14
718.337	1088.52
718.528	1070.31
718.72	1049
718.911	1114.29
719.102	1040.86
719.293	1102.66
719.485	1096.66
719.676	1091.04
719.867	1031.75
720.058	1033.5
720.249	1046.48
720.44	1134.05
720.632	1123.39
720.823	1135.02
721.014	1238.09
721.205	1231.31
721.396	1284.59
721.587	1359.57
721.778	1370.62
721.969	1391.54
722.16	1403.17
722.351	1438.82
722.542	1528.91
722.733	1552.35
722.924	1439.98
723.115	1525.23
723.305	1473.88
723.496	1514.38
723.687	1398.9
723.878	1441.14
724.069	1409.56
724.26	1463.81
724.45	1402.2
724.641	1420.8
724.832	1450.63
725.023	1422.54
725.213	1408.98
725.404	1408.2
725.595	1427.77
725.785	1389.22
725.976	1459.74
726.167	1473.5
726.357	1455.87
726.548	1547.9
726.739	1446.18
726.929	1526.2
727.12	1541.7
727.31	1546.93
727.501	1510.5
727.691	1556.42
727.882	1565.72
728.072	1593.43
728.263	1586.45
728.453	1615.51
728.644	1557
728.834	1545.96
729.024	1535.11
729.215	1568.63
729.405	1568.63
729.596	1648.06
729.786	1672.09
729.976	1666.47
730.167	1703.28
730.357	1631.59
730.547	1638.96
730.737	1687.2
730.928	1717.81
731.118	1786.01
731.308	1713.74
731.498	1699.41
731.688	1790.66
731.879	1743.58
732.069	1823.98
732.259	1831.15
732.449	1850.33
732.639	1900.71
732.829	1912.91
733.019	1956.9
733.209	1995.26
733.399	2009.01
733.589	2039.43
733.779	2074.31
733.969	2066.36
734.159	2068.88
734.349	2114.99
734.539	2183.97
734.729	2127.59
734.919	2198.3
735.109	2233.95
735.299	2169.24
735.488	2182.8
735.678	2228.53
735.868	2216.32
736.058	2192.69
736.248	2204.12
736.437	2142.12
736.627	2139.79
736.817	2278.71
737.007	2229.5
737.196	2257.01
737.386	2231.05
737.576	2197.72
737.765	2284.52
737.955	2265.15
738.144	2387.21
738.334	2327.53
738.524	2255.85
738.713	2258.37
738.903	2284.33
739.092	2322.88
739.282	2354.66
739.471	2355.63
739.661	2331.8
739.85	2340.32
740.04	2356.79
740.229	2404.84
740.419	2402.32
740.608	2422.28
740.797	2392.05
740.987	2474.98
741.176	2458.7
741.365	2382.36
741.555	2409.3
741.744	2467.42
741.933	2402.71
742.123	2475.56
742.312	2473.62
742.501	2458.51
742.69	2491.83
742.88	2468
743.069	2562.16
743.258	2478.27
743.447	2544.72
743.636	2544.14
743.825	2476.33
744.014	2492.99
744.204	2553.44
744.393	2458.31
744.582	2553.83
744.771	2601.1
744.96	2538.33
745.149	2545.11
745.338	2526.32
745.527	2522.06
745.716	2540.85
745.905	2496.29
746.094	2568.36
746.283	2567.78
746.471	2618.15
746.66	2641.79
746.849	2573.21
747.038	2640.82
747.227	2590.84
747.416	2607.69
747.604	2532.52
747.793	2526.12
747.982	2620.87
748.171	2594.71
748.359	2606.53
748.548	2610.6
748.737	2569.33
748.926	2571.27
749.114	2519.54
749.303	2580.37
749.491	2584.83
749.68	2493.77
749.869	2640.63
750.057	2552.47
750.246	2544.72
750.434	2575.34
750.623	2536.97
750.811	2567.59
751	2578.63
751.188	2538.14
751.377	2615.64
751.565	2512.37
751.754	2485.83
751.942	2486.02
752.131	2605.37
752.319	2520.31
752.507	2481.18
752.696	2528.06
752.884	2595.49
753.072	2523.22
753.261	2572.43
753.449	2538.91
753.637	2536.39
753.825	2620.67
754.014	2521.09
754.202	2538.14
754.39	2617.57
754.578	2508.3
754.766	2521.28
754.955	2515.47
755.143	2585.02
755.331	2517.02
755.519	2549.96
755.707	2495.71
755.895	2462.38
756.083	2531.55
756.271	2445.33
756.459	2523.99
756.647	2525.74
756.835	2480.01
757.023	2487.96
757.211	2457.93
757.399	2473.81
757.587	2470.13
757.775	2462.77
757.963	2452.11
758.151	2447.66
758.339	2412.2
758.526	2418.6
758.714	2453.08
758.902	2379.26
759.09	2307.19
759.278	2144.64
759.465	1994.68
759.653	1724.59
759.841	1617.45
760.028	1376.24
760.216	1150.91
760.404	1156.14
760.591	918.99
760.779	765.16
760.967	697.54
761.154	559.78
761.342	589.62
761.529	609
761.717	641.16
761.905	618.88
762.092	698.51
762.28	643.1
762.467	671.19
762.655	598.34
762.842	632.25
763.029	637.67
763.217	641.35
763.404	608.22
763.592	685.53
763.779	615.78
763.966	674.29
764.154	702.77
764.341	719.24
764.528	720.4
764.716	788.41
764.903	830.84
765.09	875.79
765.277	874.04
765.465	1028.65
765.652	1112.93
765.839	1151.49
766.026	1210.97
766.213	1224.72
766.4	1313.85
766.588	1496.36
766.775	1441.92
766.962	1545.18
767.149	1555.84
767.336	1711.42
767.523	1649.03
767.71	1756.56
767.897	1845.1
768.084	1919.7
768.271	1931.71
768.458	1959.03
768.645	2012.89
768.832	1992.35
769.019	2027.23
769.206	2045.44
769.392	2110.54
769.579	2186.68
769.766	2144.25
769.953	2136.5
770.14	2186.29
770.327	2166.92
770.513	2192.69
770.7	2231.63
770.887	2174.67
771.073	2251.58
771.26	2202.57
771.447	2232.79
771.634	2179.9
771.82	2279.1
772.007	2181.06
772.193	2221.17
772.38	2286.46
772.567	2194.24
772.753	2199.47
772.94	2243.64
773.126	2260.11
773.313	2248.49
773.499	2226.79
773.686	2257.59
773.872	2184.94
774.059	2234.54
774.245	2165.56
774.432	2218.84
774.618	2148.9
774.804	2188.81
774.991	2137.66
775.177	2200.05
775.363	2181.84
775.55	2235.31
775.736	2166.72
775.922	2144.06
776.109	2172.73
776.295	2173.5
776.481	2190.36
776.667	2176.41
776.853	2183.77
777.04	2142.89
777.226	2165.17
777.412	2257.59
777.598	2148.71
777.784	2125.46
777.97	2116.35
778.156	2159.36
778.342	2118.09
778.528	2104.14
778.715	2113.25
778.901	2103.17
779.087	2159.56
779.272	2066.36
779.458	2053.96
779.644	2117.9
779.83	2052.03
780.016	2188.62
780.202	2124.29
780.388	2078.18
780.574	2047.57
780.76	2049.51
780.946	2110.73
781.131	2061.13
781.317	2053.58
781.503	2052.22
781.689	2054.74
781.874	2146.38
782.06	2051.44
782.246	2066.56
782.432	2050.48
782.617	2071.98
782.803	2114.8
782.989	2003.39
783.174	2023.35
783.36	1980.34
783.545	2048.54
783.731	2015.41
783.916	1935
784.102	2013.47
784.288	2001.84
784.473	1977.43
784.659	1998.16
784.844	2030.33
785.029	1961.35
785.215	1965.23
785.4	1901.48
785.586	2016.38
785.771	1913.88
785.956	1962.71
786.142	1951.28
786.327	1922.8
786.512	1917.37
786.698	1919.89
786.883	1864.67
787.068	1901.1
787.254	1937.91
787.439	1924.54
787.624	1911.17
787.809	1881.33
787.994	1905.55
788.18	1968.91
788.365	1842.78
788.55	1894.9
788.735	1858.86
788.92	1877.07
789.105	1868.55
789.29	1858.28
789.475	1838.71
789.66	1822.24
789.845	1830.96
790.03	1800.93
790.215	1898.19
790.4	1850.14
790.585	1864.87
790.77	1795.89
790.955	1757.53
791.14	1830.77
791.325	1880.56
791.51	1722.07
791.695	1772.25
791.879	1804.42
792.064	1748.62
792.249	1861.77
792.434	1805.77
792.618	1797.64
792.803	1836.19
792.988	1792.21
793.173	1797.44
793.357	1868.16
793.542	1752.1
793.727	1776.71
793.911	1845.3
794.096	1756.17
794.281	1785.04
794.465	1890.63
794.65	1769.93
794.834	1818.75
795.019	1845.1
795.203	1873.39
795.388	1786.4
795.572	1867.38
795.757	1822.63
795.941	1835.61
796.126	1842.58
796.31	1750.94
796.494	1822.82
796.679	1812.36
796.863	1787.37
797.048	1857.5
797.232	1850.33
797.416	1818.56
797.601	1808.87
797.785	1873.97
797.969	1866.03
798.153	1795.31
798.338	1817.78
798.522	1874.94
798.706	1846.46
798.89	1791.63
799.074	1968.52
799.258	1882.69
799.443	1863.12
799.627	1837.93
799.811	1878.43
799.995	1841.23
800.179	1847.82
800.363	1818.37
800.547	1866.42
800.731	1896.25
800.915	1799.38
801.099	1799.57
801.283	1848.59
801.467	1842.97
801.651	1805
801.835	1862.54
802.019	1842.97
802.202	1849.37
802.386	1793.95
802.57	1796.28
802.754	1820.69
802.938	1768.19
803.121	1816.62
803.305	1867.77
803.489	1822.05
803.673	1841.62
803.856	1823.02
804.04	1839.1
804.224	1848.4
804.407	1842.39
804.591	1804.03
804.775	1814.88
804.958	1845.88
805.142	1940.62
805.326	1829.99
805.509	1860.41
805.693	1885.4
805.876	1866.8
806.06	1844.72
806.243	1842.2
806.427	1879.59
806.61	1905.36
806.794	1843.94
806.977	1894.12
807.16	1831.35
807.344	1842.58
807.527	1834.25
807.71	1838.32
807.894	1834.06
808.077	1848.59
808.26	1808.1
808.444	1797.83
808.627	1878.62
808.81	1803.45
808.993	1778.45
809.177	1765.47
809.36	1788.92
809.543	1826.7
809.726	1733.7
809.909	1735.44
810.092	1708.9
810.276	1735.64
810.459	1728.85
810.642	1712
810.825	1689.91
811.008	1726.34
811.191	1613.38
811.374	1637.21
811.557	1674.02
811.74	1699.41
811.923	1581.99
812.106	1611.83
812.289	1576.57
812.472	1586.45
812.654	1634.89
812.837	1602.92
813.02	1533.95
813.203	1532.01
813.386	1452.77
813.569	1459.35
813.751	1380.5
813.934	1459.16
814.117	1427.38
814.3	1387.47
814.482	1369.26
814.665	1328.96
814.848	1301.45
815.03	1253.98
815.213	1260.18
815.396	1274.71
815.578	1268.51
815.761	1202.64
815.943	1261.73
816.126	1190.04
816.309	1196.05
816.491	1136.96
816.674	1075.35
816.856	1192.56
817.039	1116.81
817.221	1214.84
817.403	1169.12
817.586	1160.59
817.768	1196.83
817.951	1093.95
818.133	1103.63
818.315	1133.66
818.498	1163.89
818.68	1220.07
818.862	1204.19
819.045	1229.96
819.227	1200.51
819.409	1148.39
819.591	1193.92
819.774	1180.36
819.956	1145.87
820.138	1229.18
820.32	1180.16
820.502	1215.04
820.684	1306.1
820.866	1282.46
821.048	1277.81
821.231	1307.26
821.413	1291.57
821.595	1267.35
821.777	1317.53
821.959	1284.01
822.141	1357.25
822.323	1243.71
822.505	1221.04
822.686	1206.71
822.868	1108.48
823.05	1015.28
823.232	1028.46
823.414	979.44
823.596	1028.65
823.778	1044.15
823.96	1050.93
824.141	1030.98
824.323	1067.6
824.505	1124.94
824.687	1148.97
824.868	1195.66
825.05	1256.5
825.232	1271.22
825.413	1341.55
825.595	1289.44
825.777	1245.07
825.958	1260.18
826.14	1253.01
826.321	1282.66
826.503	1262.12
826.685	1281.11
826.866	1309.59
827.048	1270.84
827.229	1231.7
827.411	1184.81
827.592	1225.31
827.773	1194.31
827.955	1135.79
828.136	1140.25
828.318	1129.98
828.499	1168.93
828.68	1120.68
828.862	1184.62
829.043	1169.89
829.224	1131.92
829.406	1136.18
829.587	1116.23
829.768	1127.66
829.949	1152.65
830.131	1157.69
830.312	1210.77
830.493	1149.94
830.674	1166.02
830.855	1177.64
831.036	1135.79
831.218	1175.32
831.399	1236.74
831.58	1162.92
831.761	1153.62
831.942	1147.81
832.123	1159.04
832.304	1110.8
832.485	1148.19
832.666	1154.39
832.847	1188.3
833.028	1128.04
833.209	1137.54
833.389	1137.93
833.57	1089.3
833.751	1120.49
833.932	1150.13
834.113	1145.68
834.294	1138.12
834.475	1151.88
834.655	1214.84
834.836	1198.18
835.017	1166.79
835.198	1107.31
835.378	1175.71
835.559	1221.24
835.74	1158.46
835.92	1148.19
836.101	1150.71
836.281	1194.69
836.462	1194.89
836.643	1208.06
836.823	1228.99
837.004	1191.79
837.184	1237.71
837.365	1215.81
837.545	1234.8
837.726	1173.19
837.906	1250.88
838.087	1181.91
838.267	1195.47
838.448	1135.79
838.628	1185.39
838.808	1184.43
838.989	1236.93
839.169	1141.61
839.349	1211.94
839.53	1190.43
839.71	1223.95
839.89	1182.88
840.07	1279.36
840.251	1159.04
840.431	1238.48
840.611	1191.79
840.791	1152.84
840.971	1215.42
841.151	1171.06
841.332	1161.56
841.512	1222.79
841.692	1145.48
841.872	1218.72
842.052	1205.16
842.232	1219.88
842.412	1134.05
842.592	1165.83
842.772	1170.67
842.952	1187.14
843.132	1147.61
843.312	1124.36
843.492	1120.49
843.672	1195.47
843.851	1089.1
844.031	1145.48
844.211	1169.12
844.391	1126.11
844.571	1169.31
844.751	1172.03
844.93	1129.21
845.11	1147.42
845.29	1178.42
845.47	1172.41
845.649	1151.88
845.829	1153.62
846.009	1149.74
846.188	1168.54
846.368	1133.47
846.547	1131.14
846.727	1171.64
846.907	1135.99
847.086	1129.4
847.266	1169.89
847.445	1139.48
847.625	1098.21
847.804	1108.86
847.984	1145.48
848.163	1104.21
848.343	1084.26
848.522	1137.73
848.701	1142.77
848.881	1105.38
849.06	1105.96
849.239	1106.35
849.419	1115.64
849.598	1069.92
849.777	1068.18
849.957	1059.46
850.136	1013.93
850.315	1035.63
850.494	996.88
850.674	1042.99
850.853	1114.48
851.032	1045.51
851.211	1080.77
851.39	1033.3
851.569	1028.46
851.748	988.16
851.927	1074.96
852.107	1036.6
852.286	1008.7
852.465	976.73
852.644	1055.58
852.823	1051.71
853.002	1043.38
853.181	1015.87
853.359	1064.5
853.538	1001.53
853.717	1083.87
853.896	970.92
854.075	913.76
854.254	922.09
854.433	895.94
854.611	941.08
854.79	840.91
854.969	941.66
855.148	945.15
855.327	886.64
855.505	932.55
855.684	909.3
855.863	951.35
856.041	912.79
856.22	964.72
856.399	912.99
856.577	993
856.756	989.52
856.934	1114.29
857.113	1090.07
857.291	1011.22
857.47	1001.14
857.648	996.68
857.827	1023.81
858.005	1044.73
858.184	1004.43
858.362	1043.57
858.541	979.25
858.719	983.51
858.898	932.94
859.076	981.18
859.254	1030.59
859.433	966.46
859.611	971.5
859.789	942.63
859.967	1040.66
860.146	1044.15
860.324	901.55
860.502	951.93
860.68	942.24
860.859	967.62
861.037	990.48
861.215	958.52
861.393	964.72
861.571	953.48
861.749	899.42
861.927	956.38
862.105	973.24
862.283	960.07
862.461	902.72
862.639	868.62
862.817	937.4
862.995	979.44
863.173	911.44
863.351	930.42
863.529	923.25
863.707	1001.53
863.885	964.13
864.063	879.66
864.241	896.52
864.418	976.34
864.596	884.89
864.774	896.32
864.952	919.96
865.129	961.62
865.307	868.04
865.485	844.4
865.663	954.06
865.84	838.2
866.018	915.89
866.196	781.24
866.373	805.26
866.551	796.54
866.728	749.08
866.906	772.13
867.084	788.6
867.261	844.21
867.439	833.36
867.616	857.57
867.794	824.44
867.971	837.81
868.149	857.38
868.326	886.25
868.503	866.1
868.681	844.79
868.858	837.81
869.035	819.79
869.213	864.74
869.39	839.56
869.567	926.94
869.745	819.79
869.922	845.17
870.099	886.44
870.276	884.89
870.454	898.45
870.631	853.89
870.808	863.39
870.985	870.36
871.162	920.74
871.339	877.14
871.517	827.16
871.694	822.51
871.871	843.62
872.048	832.39
872.225	821.15
872.402	846.53
872.579	791.7
872.756	872.88
872.933	780.85
873.11	803.32
873.287	843.62
873.463	795.96
873.64	773.29
873.817	820.37
873.994	828.51
874.171	812.04
874.348	852.92
874.524	779.11
874.701	818.44
874.878	754.5
875.055	818.44
875.231	771.55
875.408	807.59
875.585	751.79
875.762	785.5
875.938	788.21
876.115	768.84
876.291	792.09
876.468	780.66
876.645	732.8
876.821	756.44
876.998	766.32
877.174	801.77
877.351	739.58
877.527	740.55
877.704	788.41
877.88	773.68
878.057	753.53
878.233	782.98
878.409	743.65
878.586	773.87
878.762	751.98
878.938	755.28
879.115	671
879.291	741.91
879.467	682.62
879.644	698.12
879.82	760.51
879.996	702.38
880.172	701.61
880.349	701.41
880.525	756.24
880.701	664.41
880.877	702.38
881.053	703.54
881.229	721.18
881.405	773.1
881.581	687.46
881.757	715.56
881.933	733.19
882.109	739.58
882.285	712.26
882.461	673.9
882.637	690.76
882.813	682.62
882.989	732.03
883.165	743.46
883.341	700.25
883.517	755.86
883.693	744.23
883.869	733.38
884.044	692.69
884.22	711.88
884.396	772.13
884.572	733.77
884.747	766.9
884.923	728.34
885.099	719.63
885.275	772.71
885.45	687.85
885.626	689.4
885.801	680.68
885.977	701.8
886.153	618.88
886.328	724.86
886.504	663.25
886.679	728.93
886.855	693.08
887.03	741.52
887.206	718.46
887.381	694.05
887.557	760.51
887.732	723.89
887.908	746.56
888.083	714.2
888.258	724.08
888.434	689.98
888.609	691.14
888.784	768.26
888.96	692.89
889.135	654.72
889.31	672.74
889.485	693.08
889.661	694.83
889.836	750.43
890.011	736.09
890.186	719.82
890.361	674.68
890.537	712.07
890.712	689.98
890.887	728.73
891.062	713.23
891.237	740.55
891.412	675.26
891.587	696.96
891.762	759.54
891.937	758.38
892.112	661.89
892.287	695.02
892.462	659.95
892.637	638.83
892.812	636.7
892.987	635.35
893.161	623.91
893.336	664.99
893.511	637.86
893.686	621.98
893.861	655.5
894.035	620.81
894.21	649.88
894.385	614.81
894.56	642.32
894.734	566.18
894.909	587.68
895.084	589.82
895.258	596.6
895.433	600.47
895.608	595.43
895.782	540.99
895.957	567.34
896.131	540.6
896.306	530.72
896.48	509.6
896.655	553
896.829	458.84
897.004	465.82
897.178	494.69
897.353	474.73
897.527	545.06
897.701	495.65
897.876	419.9
898.05	533.43
898.224	486.94
898.399	517.35
898.573	464.85
898.747	393.55
898.921	456.13
899.096	357.71
899.27	384.64
899.444	403.04
899.618	398.78
899.792	411.18
899.967	409.24
900.141	455.74
900.315	373.79
900.489	389.29
900.663	419.32
900.837	457.87
901.011	405.37
901.185	494.3
901.359	405.76
901.533	440.63
901.707	444.12
901.881	429.2
902.055	379.79
902.229	420.87
902.403	486.16
902.576	417.19
902.75	430.75
902.924	524.72
903.098	463.69
903.272	478.8
903.446	519.1
903.619	468.53
903.793	536.92
903.967	497.4
904.14	573.93
904.314	516.19
904.488	531.5
904.661	546.61
904.835	520.45
905.009	535.95
905.182	566.18
905.356	548.16
905.529	551.84
905.703	497.59
905.876	501.66
906.05	475.31
906.223	488.87
906.397	427.45
906.57	418.93
906.744	433.65
906.917	395.49
907.09	422.22
907.264	425.9
907.437	403.04
907.61	379.6
907.784	408.66
907.957	395.87
908.13	361.58
908.304	432.3
908.477	365.07
908.65	402.07
908.823	353.06
908.996	457.68
909.17	384.44
909.343	399.36
909.516	392.39
909.689	365.26
909.862	356.54
910.035	378.63
910.208	368.56
910.381	362.74
910.554	449.93
910.727	382.89
910.9	370.49
911.073	342.01
911.246	408.08
911.419	419.12
911.592	413.51
911.765	379.79
911.938	356.16
912.11	363.71
912.283	375.14
912.456	415.83
912.629	360.03
912.802	330.77
912.974	327.09
913.147	325.54
913.32	258.51
913.493	291.06
913.665	313.14
913.838	322.44
914.01	325.54
914.183	327.68
914.356	295.9
914.528	360.22
914.701	388.12
914.873	367.39
915.046	323.8
915.218	297.64
915.391	254.24
915.563	274.59
915.736	339.49
915.908	352.28
916.081	336.2
916.253	286.21
916.425	312.76
916.598	343.76
916.77	319.15
916.942	285.83
917.115	230.22
917.287	299.39
917.459	310.63
917.632	262.96
917.804	226.15
917.976	319.73
918.148	271.29
918.32	297.64
918.493	326.9
918.665	377.47
918.837	322.25
919.009	368.56
919.181	381.15
919.353	344.34
919.525	324.96
919.697	347.44
919.869	331.16
920.041	374.76
920.213	439.66
920.385	346.08
920.557	328.06
920.729	362.74
920.901	344.34
921.073	326.13
921.244	332.32
921.416	369.33
921.588	335.42
921.76	288.73
921.932	379.79
922.103	315.08
922.275	305.78
922.447	342.01
922.619	286.41
922.79	301.13
922.962	313.92
923.134	349.76
923.305	286.02
923.477	237.39
923.648	286.6
923.82	305.78
923.991	232.35
924.163	241.07
924.335	273.62
924.506	270.91
924.677	312.37
924.849	272.26
925.02	277.11
925.192	306.56
925.363	266.45
925.535	277.49
925.706	285.05
925.877	343.76
926.049	273.43
926.22	280.59
926.391	280.79
926.562	317.6
926.734	284.47
926.905	316.24
927.076	238.16
927.247	279.82
927.419	248.63
927.59	231.58
927.761	238.55
927.932	234.87
928.103	229.25
928.274	203.1
928.445	204.06
928.616	213.95
928.787	217.63
928.958	228.86
929.129	216.08
929.3	206.39
929.471	175.97
929.642	136.06
929.813	88.4
929.984	197.67
930.155	108.55
930.326	173.84
930.496	147.88
930.667	79.1
930.838	125.02
931.009	93.24
931.18	127.92
931.35	103.7
931.521	121.72
931.692	94.6
931.863	63.4
932.033	96.92
932.204	100.41
932.374	93.43
932.545	76.38
932.716	111.45
932.886	108.55
933.057	32.79
933.227	75.22
933.398	147.68
933.568	33.76
933.739	7.6
933.909	25.43
934.08	93.05
934.25	-4.21
934.421	-0.53
934.591	57.98
934.761	27.75
934.932	3.73
935.102	22.33
935.272	34.15
935.443	14.19
935.613	11.09
935.783	39.38
935.953	-13.71
936.123	176.75
936.294	24.65
936.464	34.15
936.634	31.24
936.804	1.6
936.974	-1.11
937.144	47.52
937.314	43.45
937.484	15.16
937.655	3.92
937.825	83.55
937.995	31.05
938.165	65.73
938.334	14
938.504	41.51
938.674	6.44
938.844	26.2
939.014	80.26
939.184	63.79
939.354	119.59
939.524	115.13
939.694	52.17
939.863	66.7
940.033	140.52
940.203	113.97
940.373	82.58
940.542	107
940.712	39.38
940.882	96.34
941.051	79.29
941.221	91.3
941.391	108.16
941.56	50.42
941.73	44.03
941.899	173.26
942.069	41.51
942.238	61.08
942.408	37.44
942.577	101.18
942.747	47.13
942.916	20.39
943.086	34.34
943.255	67.67
943.425	58.75
943.594	58.17
943.763	-4.99
943.933	32.6
944.102	-12.16
944.271	32.21
944.441	46.55
944.61	38.02
944.779	45.39
944.948	133.93
945.117	14.39
945.287	50.04
945.456	-3.63
945.625	25.04
945.794	59.53
945.963	8.38
946.132	68.63
946.301	30.47
946.47	78.13
946.639	-16.42
946.808	17.1
946.977	37.05
947.146	105.25
947.315	34.92
947.484	59.34
947.653	39.57
947.822	36.86
947.991	19.23
948.16	112.23
948.329	100.41
948.498	65.73
948.666	89.17
948.835	67.67
949.004	4.89
949.173	-5.96
949.341	53.52
949.51	55.46
949.679	104.09
949.847	78.32
950.016	114.94
950.185	107.97
950.353	-4.21
950.522	61.27
950.69	92.47
950.859	36.28
951.028	85.1
951.196	50.04
951.365	19.42
951.533	58.75
951.701	75.61
951.87	81.42
952.038	26.2
952.207	70.38
952.375	110.1
952.543	21.36
952.712	47.13
952.88	20.59
953.048	87.62
953.217	70.96
953.385	51.39
953.553	102.93
953.721	24.85
953.89	35.12
954.058	26.2
954.226	3.92
954.394	64.57
954.562	11.29
954.73	46.55
954.898	47.32
955.067	92.66
955.235	38.22
955.403	76.19
955.571	118.04
955.739	74.25
955.907	40.74
956.075	37.44
956.243	27.17
956.41	61.08
956.578	5.28
956.746	26.59
956.914	43.84
957.082	75.22
957.25	74.83
957.418	0.24
957.585	69.99
957.753	88.98
957.921	4.89
958.089	35.89
958.256	60.11
958.424	28.92
958.592	67.08
958.759	18.45
958.927	64.76
959.095	26.79
959.262	41.9
959.43	42.87
959.597	26.01
959.765	37.05
959.932	12.84
960.1	64.37
960.267	49.45
960.435	30.66
960.602	77.55
960.77	40.35
960.937	21.75
961.104	63.99
961.272	5.47
961.439	48.49
961.606	96.34
961.774	77.74
961.941	51.59
962.108	71.93
962.275	74.83
962.443	77.93
962.61	48.49
962.777	140.13
962.944	100.8
963.111	63.21
963.278	52.17
963.446	61.27
963.613	70.96
963.78	72.32
963.947	75.42
964.114	56.43
964.281	161.83
964.448	81.42
964.615	68.83
964.782	70.38
964.949	82.78
965.116	51.39
965.282	117.07
965.449	59.34
965.616	21.94
965.783	91.3
965.95	78.32
966.117	22.33
966.283	86.85
966.45	75.22
966.617	82.39
966.784	103.7
966.95	105.25
967.117	95.18
967.284	38.6
967.45	34.73
967.617	96.15
967.784	77.93
967.95	132.77
968.117	69.41
968.283	110.29
968.45	184.3
968.616	87.23
968.783	97.12
968.949	87.23
969.116	94.6
969.282	73.48
969.449	77.16
969.615	62.24
969.781	21.55
969.948	94.6
970.114	46.35
970.28	113.39
970.447	64.76
970.613	127.92
970.779	53.72
970.945	95.57
971.112	57.2
971.278	65.15
971.444	80.26
971.61	114.55
971.776	48.68
971.942	93.82
972.108	71.93
972.275	50.23
972.441	90.92
972.607	170.93
972.773	37.05
972.939	98.67
973.105	76.58
973.271	50.81
973.437	49.07
973.602	32.02
973.768	88.98
973.934	61.85
974.1	71.15
974.266	-20.88
974.432	71.15
974.598	65.92
974.763	95.76
974.929	63.21
975.095	133.73
975.261	57.59
975.426	11.29
975.592	47.9
975.758	126.57
975.923	37.05
976.089	49.65
976.255	77.55
976.42	92.85
976.586	80.45
976.751	62.44
976.917	132.96
977.082	74.25
977.248	-3.25
977.413	17.49
977.579	51
977.744	75.03
977.91	36.86
978.075	32.4
978.24	87.23
978.406	49.07
978.571	32.99
978.736	53.72
978.902	81.03
979.067	32.4
979.232	13.61
979.397	96.34
979.563	108.93
979.728	37.25
979.893	57.79
980.058	49.84
980.223	91.11
980.388	97.89
980.554	62.05
980.719	44.8
980.884	68.63
981.049	98.67
981.214	61.85
981.379	75.03
981.544	44.03
981.709	55.65
981.874	52.36
982.039	50.04
982.204	79.48
982.368	84.13
982.533	38.41
982.698	94.6
982.863	95.37
983.028	32.21
983.193	57.01
983.357	61.47
983.522	81.42
983.687	26.4
983.852	72.32
984.016	36.09
984.181	58.17
984.346	81.03
984.51	84.52
984.675	44.22
984.839	72.32
985.004	48.87
985.168	68.83
985.333	68.05
985.498	57.4
985.662	98.86
985.827	83.75
985.991	56.82
986.155	36.67
986.32	114.17
986.484	109.13
986.649	64.95
986.813	-0.53
986.977	72.12
987.142	46.74
987.306	-4.02
987.47	35.89
987.634	42.48
987.799	62.24
987.963	74.45
988.127	95.95
988.291	124.24
988.455	61.27
988.62	45.97
988.784	68.25
988.948	63.79
989.112	50.62
989.276	61.27
989.44	46.94
989.604	47.71
989.768	55.85
989.932	144.2
990.096	54.1
990.26	26.2
990.424	-2.08
990.588	33.37
990.752	132.77
990.915	78.52
991.079	52.75
991.243	41.32
991.407	95.18
991.571	55.07
991.734	76.58
991.898	92.47
992.062	144.78
992.226	49.84
992.389	53.91
992.553	-30.56
992.717	34.73
992.88	60.3
993.044	49.65
993.207	51.2
993.371	82.78
993.535	87.82
993.698	63.99
993.862	92.66
994.025	124.43
994.189	55.46
994.352	57.59
994.515	88.98
994.679	81.62
994.842	27.75
995.006	95.95
995.169	46.35
995.332	33.18
995.496	76.19
995.659	21.36
995.822	59.14
995.985	64.76
996.149	117.46
996.312	50.62
996.475	142.65
996.638	16.52
996.801	84.91
996.964	120.75
997.128	29.89
997.291	56.43
997.454	52.36
997.617	3.15
997.78	87.04
997.943	29.89
998.106	102.73
998.269	47.71
998.432	41.7
998.595	44.03
998.758	7.99
998.92	-9.83
999.083	7.99
999.246	21.75
999.409	16.9
999.572	-6.93
999.735	41.32
999.897	56.43
1000.06	28.92
1000.223	-5.38
1000.386	45
1000.548	60.89
1000.711	53.91
1000.874	53.14
1001.036	-12.35
1001.199	94.02
1001.361	0.24
1001.524	56.43
1001.687	68.44
1001.849	7.41
1002.012	60.5
1002.174	46.94
1002.337	86.46
1002.499	59.14
1002.661	77.35
1002.824	-6.15
1002.986	20.39
1003.149	54.69
1003.311	-0.73
1003.473	82.78
1003.636	7.41
1003.798	82.2
1003.96	41.12
1004.123	42.67
1004.285	25.82
1004.447	34.34
1004.609	36.28
1004.771	101.18
1004.933	-3.83
1005.096	29.5
1005.258	-11
1005.42	8.19
1005.582	49.26
1005.744	68.63
1005.906	-2.08
1006.068	51.2
1006.23	-15.84
1006.392	3.34
1006.554	18.84
1006.716	84.91
1006.878	70.38
1007.04	-20.3
1007.202	1.02
1007.363	37.83
1007.525	52.36
1007.687	47.13
1007.849	76.38
1008.011	-7.31
1008.172	0.82
1008.334	18.65
1008.496	78.32
1008.658	-18.16
1008.819	13.22
1008.981	-12.55
1009.143	9.93
1009.304	14
1009.466	33.76
1009.627	67.28
1009.789	109.52
1009.95	45.58
1010.112	20.97
1010.273	54.49
1010.435	13.8
1010.596	20.78
1010.758	15.94
1010.919	16.9
1011.081	-13.51
1011.242	25.04
1011.403	58.17
1011.565	0.24
1011.726	52.36
1011.887	-4.02
1012.049	49.45
1012.21	54.1
1012.371	82
1012.532	-42.58
1012.693	25.24
1012.855	1.4
1013.016	52.36
1013.177	69.99
1013.338	13.61
1013.499	91.11
1013.66	34.54
1013.821	78.13
1013.982	20
1014.143	36.86
1014.304	-9.25
1014.465	45.58
1014.626	65.53
1014.787	15.94
1014.948	94.21
1015.109	-30.95
1015.27	69.02
1015.431	-10.03
1015.592	32.79
1015.752	75.61
1015.913	32.79
1016.074	43.45
1016.235	43.84
1016.395	21.17
1016.556	31.24
1016.717	25.62
1016.877	65.53
1017.038	-2.47
1017.199	43.06
1017.359	20.59
1017.52	27.56
1017.681	18.45
1017.841	22.91
1018.002	14.97
1018.162	13.8
1018.323	84.33
1018.483	22.14
1018.644	6.44
1018.804	-40.83
1018.964	-36.57
1019.125	36.47
1019.285	37.05
1019.446	-18.55
1019.606	-11.96
1019.766	-30.37
1019.926	44.8
1020.087	55.46
1020.247	-22.62
1020.407	22.14
1020.567	66.5
1020.728	-7.12
1020.888	-22.23
1021.048	4.31
1021.208	-13.13
1021.368	-6.73
1021.528	65.53
1021.688	47.13
1021.848	36.47
1022.008	39.19
1022.168	2.95
1022.328	21.94
1022.488	20.2
1022.648	3.54
1022.808	23.49
1022.968	30.27
1023.128	-1.7
1023.288	-14.87
1023.448	21.75
1023.608	61.08
1023.767	8.77
1023.927	-25.14
1024.087	-13.13
1024.247	-13.71
1024.406	-4.99
1024.566	-6.15
1024.726	-25.14
1024.885	49.45
1025.045	45.19
1025.205	10.12
1025.364	15.94
1025.524	28.92
1025.683	3.34
1025.843	9.35
1026.003	-11.77
1026.162	71.35
1026.321	62.63
1026.481	45.58
1026.64	-11.96
1026.8	15.35
1026.959	13.42
1027.119	-8.28
1027.278	15.74
1027.437	2.57
1027.597	2.76
1027.756	14.19
1027.915	12.64
1028.074	13.42
1028.234	8.19
1028.393	17.1
1028.552	6.64
1028.711	-68.73
1028.87	62.82
1029.03	-12.16
1029.189	35.31
1029.348	-41.99
1029.507	-13.71
1029.666	13.22
1029.825	-11.19
1029.984	-9.83
1030.143	29.69
1030.302	11.87
1030.461	-44.71
1030.62	15.94
1030.779	15.35
1030.938	5.28
1031.097	-17
1031.255	40.54
1031.414	74.25
1031.573	50.81
1031.732	-21.26
1031.891	-15.06
1032.049	68.25
1032.208	3.92
1032.367	0.24
1032.525	10.51
1032.684	1.6
1032.843	17.1
1033.001	-38.12
1033.16	144.78
1033.319	40.35
1033.477	36.28
1033.636	8.57
1033.794	-10.8
1033.953	-4.41
1034.111	28.72
1034.27	1.4
1034.428	16.13
1034.587	-20.68
1034.745	18.45
1034.903	21.55
1035.062	32.4
1035.22	-17
1035.378	54.3
1035.537	-18.75
1035.695	56.04
1035.853	15.94
1036.011	23.49
1036.17	20
1036.328	-59.24
1036.486	23.3
1036.644	22.52
1036.802	-78.42
1036.96	-21.07
1037.119	-0.34
1037.277	-11.38
1037.435	-47.42
1037.593	-17.97
1037.751	-4.21
1037.909	28.53
1038.067	28.53
