Data from tests_FLMT105791__1__15-39-57-264.txt Node

Date: Mon Mar 20 15:39:57 GMT 2023
User: antho
Spectrometer: FLMT10579
Trigger mode: 0
Integration Time (sec): 1.000000E-1
Scans to average: 10
Electric dark correction enabled: true
Nonlinearity correction enabled: false
Boxcar width: 0
XAxis mode: Wavelengths
Number of Pixels in Spectrum: 3648
>>>>>Begin Spectral Data<<<<<
345.248	-167.67
345.464	-167.67
345.681	-167.67
345.898	-172.52
346.114	-159.92
346.331	-26.04
346.548	35.96
346.764	-29.92
346.981	-2.99
347.197	6.89
347.414	11.54
347.631	-1.63
347.847	60.17
348.064	-4.73
348.28	26.46
348.497	-59.37
348.713	-16.36
348.93	33.83
349.146	180.3
349.363	266.13
349.579	243.27
349.796	230.28
350.012	250.82
350.229	265.93
350.445	265.74
350.661	264
350.878	299.45
351.094	312.82
351.311	320.76
351.527	325.22
351.743	295.77
351.96	336.65
352.176	354.48
352.392	339.56
352.609	338.78
352.825	318.83
353.041	330.26
353.257	308.95
353.474	305.26
353.69	369.2
353.906	370.56
354.122	340.14
354.339	437.59
354.555	376.56
354.771	381.8
354.987	448.83
355.203	478.67
355.42	413.76
355.636	367.85
355.852	394.58
356.068	422.48
356.284	357.38
356.5	432.75
356.716	430.43
356.932	371.33
357.148	391.29
357.364	358.16
357.58	399.04
357.796	411.83
358.012	411.05
358.228	398.26
358.444	329.87
358.66	381.99
358.876	392.06
359.092	331.81
359.308	387.61
359.524	442.63
359.74	470.34
359.956	493.78
360.172	527.88
360.388	566.05
360.604	525.36
360.819	606.54
361.035	517.22
361.251	525.56
361.467	445.73
361.683	545.9
361.898	533.89
362.114	536.41
362.33	506.57
362.546	573.02
362.762	572.05
362.977	620.3
363.193	594.14
363.409	631.15
363.624	605.96
363.84	574.19
364.056	618.17
364.271	656.53
364.487	677.07
364.703	689.27
364.918	683.85
365.134	642.77
365.35	663.5
365.565	779.56
365.781	764.06
365.996	828.19
366.212	905.49
366.427	855.12
366.643	868.88
366.858	837.29
367.074	855.31
367.289	919.06
367.505	955.87
367.72	844.46
367.936	863.84
368.151	898.33
368.367	888.83
368.582	863.84
368.798	830.51
369.013	883.21
369.228	855.7
369.444	870.81
369.659	910.72
369.874	897.16
370.09	1002.95
370.305	918.28
370.52	968.27
370.736	1023.68
370.951	927.19
371.166	944.24
371.381	963.23
371.597	957.81
371.812	967.3
372.027	935.91
372.242	950.83
372.458	977.57
372.673	891.35
372.888	872.75
373.103	886.7
373.318	957.42
373.533	897.74
373.749	858.03
373.964	732.28
374.179	804.36
374.394	744.68
374.609	850.08
374.824	783.43
375.039	859.58
375.254	776.26
375.469	897.55
375.684	901.62
375.899	1026
376.114	1025.23
376.329	1020.58
376.544	997.52
376.759	1011.09
376.974	951.99
377.189	998.69
377.404	1010.12
377.619	1131.98
377.834	1102.15
378.049	1173.06
378.264	1214.13
378.478	1302.68
378.693	1318.95
378.908	1343.36
379.123	1272.26
379.338	1249.98
379.553	1147.68
379.767	1114.16
379.982	1103.7
380.197	1123.85
380.412	1110.67
380.626	1202.9
380.841	1307.52
381.056	1346.08
381.271	1418.34
381.485	1369.91
381.7	1262.38
381.915	1244.16
382.129	1137.02
382.344	1084.71
382.559	1052.35
382.773	1041.7
382.988	922.16
383.202	943.27
383.417	871.59
383.632	952.57
383.846	886.31
384.061	900.46
384.275	919.44
384.49	1075.99
384.704	1140.12
384.919	1255.6
385.133	1312.75
385.348	1406.52
385.562	1320.89
385.777	1355.96
385.991	1286.01
386.206	1299.58
386.42	1270.13
386.634	1334.64
386.849	1363.9
387.063	1416.41
387.277	1393.74
387.492	1361.96
387.706	1352.86
387.92	1366.03
388.135	1481.7
388.349	1472.2
388.563	1459.61
388.778	1435.39
388.992	1393.16
389.206	1480.73
389.42	1584.97
389.635	1570.24
389.849	1711.48
390.063	1821.34
390.277	1856.6
390.491	1893.8
390.706	1858.34
390.92	1875
391.134	1899.61
391.348	1950.76
391.562	1993.58
391.776	2135.59
391.99	2110.8
392.205	2117.19
392.419	1982.73
392.633	1929.84
392.847	1783.94
393.061	1627.4
393.275	1531.88
393.489	1266.83
393.703	1073.67
393.917	1041.7
394.131	1043.44
394.345	1261.21
394.559	1502.43
394.773	1668.08
394.986	1936.62
395.2	2032.91
395.414	2183.26
395.628	2265.02
395.842	2408.97
396.056	2348.72
396.27	2160.98
396.484	2161.36
396.697	1920.73
396.911	1662.66
397.125	1457.87
397.339	1367.39
397.553	1386.76
397.766	1577.41
397.98	1905.62
398.194	2236.73
398.408	2496.93
398.621	2712.38
398.835	2872.22
399.049	2921.24
399.262	3076.24
399.476	3140.56
399.69	3204.89
399.903	3292.46
400.117	3241.5
400.331	3367.05
400.544	3332.57
400.758	3457.14
400.971	3416.65
401.185	3510.23
401.398	3420.53
401.612	3550.53
401.826	3595.67
402.039	3635.39
402.253	3708.24
402.466	3822.75
402.68	3788.84
402.893	3905.28
403.106	3823.33
403.32	3718.7
403.533	3767.14
403.747	3657.48
403.96	3744.67
404.174	3828.17
404.387	3837.66
404.6	3855.1
404.814	3870.8
405.027	3787.48
405.24	3721.22
405.454	3735.95
405.667	3852.39
405.88	3898.69
406.094	3944.42
406.307	3935.12
406.52	3772.37
406.733	3723.55
406.947	3733.04
407.16	3842.31
407.373	3903.15
407.586	3963.02
407.799	3966.12
408.012	3946.16
408.226	3981.62
408.439	4160.06
408.652	4160.06
408.865	4333.46
409.078	4465.41
409.291	4502.6
409.504	4439.44
409.717	4528.37
409.93	4463.66
410.143	4168.97
410.357	4034.32
410.57	3814.8
410.783	3867.89
410.996	3999.06
411.209	4149.98
411.421	4504.93
411.634	4615.56
411.847	4677.56
412.06	4731.81
412.273	4823.64
412.486	4812.02
412.699	4783.15
412.912	4871.11
413.125	4763.19
413.338	4801.75
413.55	4703.33
413.763	4670.39
413.976	4733.55
414.189	4686.08
414.402	4838.37
414.615	4996.08
414.827	4890.87
415.04	4897.46
415.253	4877.51
415.466	4971.86
415.678	4985.04
415.891	4947.84
416.104	4826.55
416.316	4955.59
416.529	5080.17
416.742	5203
416.954	5192.34
417.167	5193.89
417.38	5066.6
417.592	5020.88
417.805	4890.87
418.017	4955.2
418.23	4904.82
418.442	4841.47
418.655	4989.3
418.868	4918.19
419.08	4986
419.293	5053.82
419.505	5208.81
419.718	5072.42
419.93	5204.74
420.142	5103.61
420.355	5023.4
420.567	4924.78
420.78	5097.02
420.992	5082.68
421.205	5350.64
421.417	5513
421.629	5574.41
421.842	5548.26
422.054	5508.54
422.266	5575.38
422.479	5495.75
422.691	5198.74
422.903	5225.48
423.115	5116.59
423.328	5068.73
423.54	5129.38
423.752	5164.06
423.964	5420
424.177	5387.25
424.389	5357.42
424.601	5494.01
424.813	5575.38
425.025	5617.23
425.238	5535.08
425.45	5546.9
425.662	5472.5
425.874	5715.08
426.086	5474.25
426.298	5542.25
426.51	5563.56
426.722	5519.2
426.934	5616.46
427.146	5625.76
427.358	5609.1
427.57	5496.14
427.782	5331.65
427.994	5300.65
428.206	5334.17
428.418	5728.44
428.63	5807.88
428.842	5840.04
429.054	5659.28
429.266	5547.68
429.478	5515.32
429.69	5378.15
429.902	5300.07
430.114	5255.7
430.325	4939.89
430.537	4693.06
430.749	4459.79
430.961	4261.97
431.173	4314.67
431.384	4403.02
431.596	4572.16
431.808	5122.79
432.02	5717.01
432.231	6280.24
432.443	6644.29
432.655	6475.34
432.867	6306.39
433.078	6278.1
433.29	6319.57
433.502	6441.05
433.713	6682.84
433.925	6893.64
434.136	6600.5
434.348	6132.99
434.56	6032.05
434.771	6186.66
434.983	6072.73
435.194	6506.92
435.406	6813.23
435.617	6912.24
435.829	7021.9
436.04	7059.87
436.252	6920.76
436.463	7290.43
436.675	7564.2
436.886	7664.56
437.098	7635.69
437.309	7674.25
437.521	7508.59
437.732	7331.31
437.943	7211.97
438.155	7187.36
438.366	7133.11
438.578	7138.92
438.789	6858.76
439	6698.15
439.211	6765.38
439.423	6747.36
439.634	7095.14
439.845	7343.91
440.057	7444.85
440.268	7717.45
440.479	7685.1
440.69	7667.47
440.902	7485.92
441.113	7356.11
441.324	7567.88
441.535	7865.48
441.746	8041.59
441.957	8057.48
442.168	8294.04
442.38	8274.28
442.591	8343.45
442.802	8160.17
443.013	8506.78
443.224	8565.68
443.435	8451.95
443.646	8366.89
443.857	8313.23
444.068	8371.16
444.279	8341.32
444.49	8744.51
444.701	8519.76
444.912	8865.4
445.123	8892.72
445.334	8559.09
445.545	8771.44
445.756	8455.82
445.967	8418.62
446.178	8217.32
446.388	8119.48
446.599	8232.43
446.81	8295.79
447.021	8292.49
447.232	8470.16
447.443	8666.04
447.653	8966.54
447.864	9131.81
448.075	9120.38
448.286	9075.04
448.496	8975.65
448.707	9086.47
448.918	8823.56
449.129	8970.8
449.339	9055.08
449.55	9197.29
449.761	9062.06
449.971	9007.03
450.182	9290.68
450.393	9330.2
450.603	9255.81
450.814	9685.34
451.024	9621.79
451.235	9962.98
451.446	9878.12
451.656	9892.85
451.867	9782.8
452.077	9493.73
452.288	9696
452.498	9530.54
452.709	9527.05
452.919	9207.95
453.13	9031.25
453.34	9007.03
453.55	8670.88
453.761	9059.73
453.971	8930.12
454.182	9101.97
454.392	9237.21
454.602	9610.56
454.813	9696.19
455.023	9433.86
455.233	9269.56
455.444	9459.63
455.654	9131.81
455.864	9347.45
456.075	9559.21
456.285	9446.84
456.495	9616.37
456.705	9654.73
456.916	9926.75
457.126	10030.6
457.336	9894.98
457.546	9692.9
457.756	9931.21
457.967	10076.71
458.177	9796.17
458.387	9884.71
458.597	9619.28
458.807	9859.91
459.017	9583.04
459.227	9640.01
459.437	9633.61
459.647	9878.9
459.857	9819.42
460.068	10048.62
460.278	9991.27
460.488	9966.28
460.698	9987.98
460.908	10058.89
461.117	10208.07
461.327	10336.53
461.537	10453.94
461.747	10524.27
461.957	10485.52
462.167	10659.31
462.377	10553.91
462.587	10514.19
462.797	10747.27
463.007	10632.38
463.216	10882.12
463.426	11131.28
463.636	10831.36
463.846	10610.1
464.056	10592.08
464.265	10488.04
464.475	10610.68
464.685	10882.31
464.895	10644.39
465.104	10439.79
465.314	10778.27
465.524	10660.47
465.733	10589.76
465.943	10926.29
466.153	11129.73
466.362	11154.72
466.572	11123.14
466.782	10918.35
466.991	11115.78
467.201	10904.01
467.41	10695.54
467.62	11002.63
467.829	11101.83
468.039	11255.86
468.249	11242.88
468.458	11546.87
468.668	11386.64
468.877	11572.83
469.086	11646.26
469.296	11906.07
469.505	12074.44
469.715	11852.99
469.924	11770.64
470.134	11976.4
470.343	11633.67
470.552	11653.43
470.762	11633.67
470.971	11729.76
471.18	11878.56
471.39	12047.7
471.599	11867.52
471.808	12043.44
472.018	12515.6
472.227	12660.53
472.436	13152.06
472.645	13140.63
472.855	13037.17
473.064	13453.53
473.273	13532.19
473.482	13043.95
473.691	13323.72
473.901	13092.78
474.11	12945.92
474.319	13391.92
474.528	13406.26
474.737	14104.33
474.946	13810.22
475.155	14030.12
475.364	14261.07
475.573	14075.66
475.783	14513.52
475.992	14228.91
476.201	14251
476.41	14480.39
476.619	14272.31
476.828	14249.45
477.037	14183.77
477.245	14234.53
477.454	14403.48
477.663	14949.07
477.872	15222.45
478.081	15519.27
478.29	15410.96
478.499	15656.25
478.708	15889.13
478.917	15818.99
479.125	15398.95
479.334	15542.52
479.543	15959.07
479.752	16064.66
479.961	16038.9
480.169	16430.46
480.378	16635.64
480.587	16914.05
480.796	16762.74
481.004	16696.09
481.213	16848.57
481.422	17013.25
481.63	17282.75
481.839	17423.8
482.048	17628.79
482.256	17522.42
482.465	18104.63
482.674	17806.65
482.882	17945.18
483.091	17979.47
483.299	17712.1
483.508	18267.57
483.716	18346.62
483.925	18409.59
484.134	17843.07
484.342	18301.28
484.551	18227.27
484.759	18063.94
484.967	18803.28
485.176	18595.97
485.384	18703.31
485.593	18420.63
485.801	18325.69
486.01	17614.06
486.218	16761.77
486.426	16119.49
486.635	15598.7
486.843	15598.31
487.051	16159.21
487.26	16463.78
487.468	16829.97
487.676	17380.98
487.885	17970.36
488.093	18281.52
488.301	18980.37
488.509	18965.06
488.717	19412.04
488.926	19461.83
489.134	19164.81
489.342	19146.02
489.55	18971.07
489.758	19316.32
489.967	19937.67
490.175	19880.9
490.383	20666.35
490.591	21111.78
490.799	20890.91
491.007	20814.38
491.215	20793.65
491.423	20727.97
491.631	20623.73
491.839	20542.36
492.047	20395.11
492.255	19938.45
492.463	20022.53
492.671	19578.85
492.879	20213.76
493.087	20418.94
493.295	20568.71
493.503	20902.34
493.711	21618.04
493.919	21266.97
494.127	21308.05
494.334	21211.37
494.542	21350.09
494.75	21798.03
494.958	21545.39
495.166	22148.71
495.374	22285.69
495.581	22477.31
495.789	22326.19
495.997	22343.43
496.205	21557.79
496.412	21836.98
496.62	22332.77
496.828	22052.81
497.035	22417.44
497.243	22408.53
497.451	22498.82
497.658	22548.22
497.866	22499.2
498.074	22759.79
498.281	22323.28
498.489	22412.99
498.696	21978.6
498.904	21788.54
499.112	21718.79
499.319	22091.56
499.527	22433.14
499.734	22605.18
499.942	22571.28
500.149	22400.2
500.357	22643.16
500.564	22102.99
500.771	22050.68
500.979	21750.56
501.186	21513.81
501.394	21998.95
501.601	21407.44
501.808	21507.99
502.016	21663.57
502.223	21497.53
502.43	21612.04
502.638	21614.17
502.845	22090.78
503.052	22327.16
503.26	22317.66
503.467	22594.33
503.674	22696.44
503.881	22716.59
504.089	22431.39
504.296	22188.82
504.503	21997.59
504.71	21941.02
504.917	22232.41
505.125	22337.62
505.332	22625.33
505.539	22621.26
505.746	23135.08
505.953	23385.79
506.16	23511.34
506.367	23568.49
506.574	23960.06
506.781	23880.62
506.988	23763.21
507.195	23545.44
507.402	23398.38
507.609	23462.13
507.816	23067.66
508.023	23038.6
508.23	22826.06
508.437	22557.33
508.644	22711.16
508.851	22810.17
509.058	23281.55
509.265	23252.88
509.472	23641.92
509.679	23764.76
509.885	23813.78
510.092	23737.64
510.299	23678.54
510.506	23201.34
510.713	23369.32
510.92	23284.65
511.126	23437.52
511.333	23645.22
511.54	23789.95
511.746	23856.4
511.953	24094.52
512.16	24292.33
512.367	24080.37
512.573	23964.71
512.78	23819.4
512.987	23738.22
513.193	23377.46
513.4	23093.43
513.606	23274.39
513.813	23385.98
514.02	23171.51
514.226	23111.25
514.433	23174.99
514.639	22812.88
514.846	22911.11
515.052	22818.89
515.259	23221.11
515.465	23157.94
515.672	23262.57
515.878	23322.05
516.085	23760.69
516.291	23560.36
516.497	23630.3
516.704	22830.51
516.91	22375.4
517.117	21425.65
517.323	20739.2
517.529	20360.82
517.736	20330.01
517.942	20483.46
518.148	21184.24
518.354	21460.52
518.561	21487.46
518.767	21322.19
518.973	21354.93
519.179	21723.44
519.386	22110.93
519.592	22123.14
519.798	22106.28
520.004	23028.33
520.21	23119
520.417	23263.73
520.623	23415.24
520.829	23502.81
521.035	23528.78
521.241	23305.58
521.447	23547.96
521.653	23960.83
521.859	23609.18
522.065	23938.16
522.271	24039.49
522.477	23993.19
522.683	24341.93
522.889	23712.06
523.095	23421.63
523.301	23518.51
523.507	23340.45
523.713	23367.38
523.919	23423.38
524.125	23965.1
524.331	24171.05
524.537	24598.65
524.742	24732.53
524.948	24699.2
525.154	24849.36
525.36	24716.45
525.566	24418.27
525.772	24627.13
525.977	24497.13
526.183	24256.68
526.389	24492.09
526.595	23644.83
526.8	23515.41
527.006	22547.45
527.212	22125.85
527.417	21965.82
527.623	21984.8
527.829	22362.61
528.034	22887.28
528.24	22964.78
528.446	23558.61
528.651	24035.04
528.857	24268.7
529.062	24194.3
529.268	24674.6
529.473	24934.8
529.679	25374.99
529.884	25169.82
530.09	25003
530.295	24420.4
530.501	24835.99
530.706	24836.38
530.912	24969.09
531.117	25115.18
531.323	25056.47
531.528	25483.3
531.733	25491.24
531.939	25364.92
532.144	25309.51
532.35	25035.55
532.555	24992.92
532.76	24395.8
532.966	24251.07
533.171	23943.59
533.376	23664.21
533.581	23807.38
533.787	24145.67
533.992	24462.83
534.197	24019.54
534.402	24721.29
534.607	24681.77
534.813	24614.92
535.018	24693.58
535.223	24993.7
535.428	24923.95
535.633	25139.2
535.838	25458.69
536.043	25649.73
536.249	25861.49
536.454	25622.6
536.659	25766.94
536.864	25574.55
537.069	25052.99
537.274	24898.38
537.479	24813.71
537.684	24715.48
537.889	24670.14
538.094	25285.1
538.299	25092.7
538.504	25365.31
538.708	25226
538.913	25666.58
539.118	25561.77
539.323	25464.7
539.528	25167.49
539.733	25016.95
539.938	24913.29
540.142	24675.18
540.347	24662
540.552	24476.78
540.757	24104.01
540.962	24400.45
541.166	24161.94
541.371	24120.48
541.576	24176.47
541.781	24366.15
541.985	24914.84
542.19	24455.47
542.395	25297.49
542.599	25154.7
542.804	24827.27
543.008	25163.03
543.213	25143.85
543.418	24792.2
543.622	25118.08
543.827	24781.74
544.031	25150.25
544.236	25144.82
544.44	25567.97
544.645	25533.29
544.849	25389.33
545.054	25677.05
545.258	25633.45
545.463	25638.1
545.667	25262.04
545.872	25673.56
546.076	25506.35
546.281	25508.68
546.485	25304.47
546.689	25486.59
546.894	25335.28
547.098	25636.55
547.302	25491.44
547.507	25505.19
547.711	25614.47
547.915	25363.56
548.119	25045.62
548.324	24896.63
548.528	25102.2
548.732	25099.1
548.936	25464.12
549.141	25290.71
549.345	25445.52
549.549	25513.52
549.753	25820.81
549.957	25617.18
550.161	25872.54
550.366	25838.63
550.57	25596.25
550.774	25484.07
550.978	25659.22
551.182	25397.08
551.386	25265.14
551.59	25439.71
551.794	25362.01
551.998	25551.5
552.202	25554.4
552.406	25503.25
552.61	25857.42
552.814	25651.08
553.018	25361.24
553.222	25272.7
553.426	25372.86
553.63	25529.41
553.833	25466.05
554.037	25184.15
554.241	25261.85
554.445	25546.27
554.649	25552.27
554.853	25368.41
555.056	25555.57
555.26	25782.83
555.464	25369.57
555.668	25689.64
555.871	25558.28
556.075	25637.52
556.279	25508.1
556.483	25324.62
556.686	25140.17
556.89	25216.31
557.094	25110.14
557.297	24785.81
557.501	24865.63
557.704	24465.16
557.908	24773.99
558.112	24802.28
558.315	24918.53
558.519	24798.01
558.722	24423.5
558.926	24565.91
559.129	23915.3
559.333	24294.27
559.536	24127.65
559.74	23971.49
559.943	23752.17
560.147	24085.41
560.35	23915.5
560.553	24339.03
560.757	24197.59
560.96	24361.7
561.164	24659.1
561.367	24751.13
561.57	24822.62
561.774	24621.51
561.977	24391.92
562.18	24387.46
562.384	24461.09
562.587	24341.74
562.79	24528.71
562.993	24329.15
563.197	24328.95
563.4	24634.88
563.603	24720.9
563.806	24695.91
564.009	24690.29
564.212	24758.49
564.416	24403.55
564.619	24305.9
564.822	24162.33
565.025	24552.15
565.228	24435.13
565.431	24624.61
565.634	24247
565.837	24243.32
566.04	23896.12
566.243	23730.85
566.446	23494.87
566.649	23850.2
566.852	23668.86
567.055	23913.56
567.258	23830.63
567.461	24108.08
567.664	24158.26
567.867	24212.51
568.07	23942.43
568.273	24195.46
568.475	24424.47
568.678	23782.39
568.881	23863.57
569.084	23393.73
569.287	23276.13
569.489	23598.53
569.692	23573.73
569.895	23740.93
570.098	23419.12
570.3	23523.55
570.503	23454.57
570.706	23298.8
570.909	23209.48
571.111	22870.81
571.314	22759.02
571.516	22909.17
571.719	23042.08
571.922	22959.16
572.124	23092.46
572.327	23312.17
572.529	23373.39
572.732	23553.77
572.935	23669.63
573.137	24017.21
573.34	23709.74
573.542	23867.25
573.745	23893.02
573.947	23769.99
574.15	23653.94
574.352	23748.49
574.554	23927.7
574.757	23638.82
574.959	23344.52
575.162	23708.19
575.364	23290.08
575.566	23381.92
575.769	23199.6
575.971	23317.4
576.173	22721.04
576.376	23079.28
576.578	23244.55
576.78	23169.76
576.982	23110.86
577.185	23249.01
577.387	23173.83
577.589	23444.69
577.791	23288.14
577.993	23217.42
578.196	23293.95
578.398	22999.46
578.6	22886.7
578.802	22701.28
579.004	22607.12
579.206	22817.53
579.408	22987.06
579.61	22720.46
579.812	23112.41
580.014	22774.32
580.216	22909.56
580.418	23224.59
580.62	23199.02
580.822	23213.74
581.024	23194.17
581.226	23261.99
581.428	23195.14
581.63	23548.15
581.832	23214.52
582.034	23342.78
582.236	23240.29
582.438	23521.8
582.64	23549.12
582.841	23635.92
583.043	23918.6
583.245	23395.48
583.447	23689.97
583.649	23622.16
583.85	23658.97
584.052	23584.58
584.254	23454.57
584.456	23515.41
584.657	23425.12
584.859	23685.71
585.061	23334.45
585.262	23414.27
585.464	23318.75
585.666	23231.96
585.867	22873.33
586.069	22899.1
586.27	22768.9
586.472	22800.48
586.674	22691.79
586.875	22827.61
587.077	22855.31
587.278	23006.24
587.48	22998.88
587.681	23032.4
587.883	23111.83
588.084	22709.42
588.285	22802.03
588.487	22348.66
588.688	22523.62
588.89	21792.8
589.091	21416.54
589.292	20838.01
589.494	20392.98
589.695	20085.31
589.896	19822.2
590.098	20047.14
590.299	20085.69
590.5	20301.14
590.702	20738.62
590.903	20961.82
591.104	21308.24
591.305	21711.04
591.507	21602.54
591.708	21611.07
591.909	21778.27
592.11	21594.6
592.311	21918.74
592.512	21474.86
592.714	21539.38
592.915	21849.38
593.116	21595.18
593.317	21965.62
593.518	21849.76
593.719	22008.05
593.92	22058.62
594.121	21904.01
594.322	21879.99
594.523	21781.56
594.724	21576.39
594.925	21667.83
595.126	21432.82
595.327	21379.54
595.528	21614.75
595.729	21614.17
595.929	21492.88
596.13	21655.24
596.331	21969.11
596.532	21837.36
596.733	22111.9
596.934	22025.88
597.135	22097.76
597.335	22032.85
597.536	21935.79
597.737	21901.88
597.938	21807.33
598.138	21769.94
598.339	21886.38
598.54	21814.31
598.74	21494.43
598.941	21598.86
599.142	21928.42
599.342	21855.96
599.543	21685.66
599.744	21807.33
599.944	21800.36
600.145	21972.4
600.345	21807.53
600.546	21890.45
600.746	21848.02
600.947	22133.99
601.147	21580.07
601.348	21945.86
601.548	21648.46
601.749	21625.6
601.949	21400.27
602.15	21518.07
602.35	21261.35
602.551	21238.49
602.751	21398.14
602.951	21590.72
603.152	21384.96
603.352	21646.91
603.552	21537.05
603.753	21821.28
603.953	21915.06
604.153	21862.55
604.354	21967.17
604.554	21866.23
604.754	21953.61
604.954	21878.44
605.155	22096.02
605.355	21859.45
605.555	21958.84
605.755	21840.08
605.955	21778.66
606.155	21814.89
606.356	21785.63
606.556	21774.2
606.756	21821.67
606.956	21716.85
607.156	21785.05
607.356	21629.08
607.556	21666.67
607.756	21638.77
607.956	21666.48
608.156	21643.42
608.356	21379.54
608.556	21474.86
608.756	21253.8
608.956	21393.88
609.156	21273.75
609.356	21283.05
609.556	21142.39
609.755	21251.28
609.955	21110.42
610.155	21036.8
610.355	21152.66
610.555	20878.7
610.755	20648.92
610.954	20740.75
611.154	21037.57
611.354	20954.65
611.554	20818.45
611.753	21126.89
611.953	20875.21
612.153	21024.79
612.352	20887.61
612.552	20734.36
612.752	20680.5
612.951	20856.61
613.151	20620.63
613.351	20722.35
613.55	20703.75
613.75	20631.87
613.949	20329.04
614.149	20392.2
614.348	20383.1
614.548	20276.92
614.747	20299.01
614.947	20433.66
615.146	20258.9
615.346	20620.82
615.545	20613.07
615.745	20367.02
615.944	20308.31
616.144	20268.01
616.343	19914.03
616.542	20099.84
616.742	19828.98
616.941	19717.77
617.14	19541.07
617.34	19766.01
617.539	19827.43
617.738	19894.27
617.938	20012.26
618.137	19983.4
618.336	20064.77
618.535	20283.7
618.734	20204.27
618.934	20009.94
619.133	20115.34
619.332	20368.76
619.531	19937.48
619.73	20309.47
619.929	20165.91
620.128	20281.38
620.328	20231.59
620.527	20251.35
620.726	20285.64
620.925	20275.95
621.124	20432.5
621.323	20181.21
621.522	19896.21
621.721	20248.64
621.92	19907.83
622.119	19948.72
622.318	19929.34
622.517	19835.95
622.715	19803.99
622.914	19774.34
623.113	19860.17
623.312	19267.89
623.511	19675.14
623.71	19547.27
623.909	19347.9
624.107	19651.7
624.306	19400.02
624.505	19370.96
624.704	19306.83
624.902	19067.55
625.101	19245.61
625.3	19018.73
625.499	19012.92
625.697	19081.12
625.896	18988.7
626.095	18800.18
626.293	18748.64
626.492	19027.64
626.69	18867.41
626.889	19205.5
627.088	19170.24
627.286	19222.36
627.485	18881.17
627.683	18883.11
627.882	18729.46
628.08	18590.93
628.279	18395.25
628.477	18435.55
628.676	18183.48
628.874	18445.24
629.073	18314.46
629.271	18359.02
629.469	18485.92
629.668	18353.79
629.866	18224.17
630.065	18332.86
630.263	18282.49
630.461	18189.3
630.66	18404.36
630.858	18279.78
631.056	18439.42
631.254	18502.39
631.453	18261.76
631.651	18349.72
631.849	18195.5
632.047	18092.04
632.245	18049.8
632.444	18224.95
632.642	18383.43
632.84	18545.6
633.038	18238.31
633.236	18211.77
633.434	18399.51
633.632	18484.95
633.83	18183.1
634.028	18496.77
634.227	18285.78
634.425	18514.79
634.623	18255.95
634.821	18472.94
635.019	18405.71
635.216	18515.57
635.414	18542.5
635.612	18309.03
635.81	18344.88
636.008	18433.22
636.206	18462.09
636.404	18186.2
636.602	18254.01
636.8	18003.3
636.997	18378.39
637.195	18243.35
637.393	18248
637.591	18452.02
637.789	18396.22
637.986	18424.7
638.184	18449.31
638.382	18546.18
638.58	18392.34
638.777	18639.57
638.975	18406.1
639.173	18469.46
639.37	18356.89
639.568	18297.41
639.765	18343.71
639.963	18230.95
640.161	17970.56
640.358	18257.88
640.556	17915.34
640.753	17975.98
640.951	17864.38
641.148	17935.1
641.346	17862.64
641.543	17789.21
641.741	17866.32
641.938	17624.33
642.136	17824.86
642.333	17682.45
642.531	17924.64
642.728	17902.94
642.925	17965.52
643.123	17830.09
643.32	17876.78
643.517	17768.48
643.715	17675.29
643.912	17879.49
644.109	17742.71
644.306	17873.1
644.504	17739.22
644.701	17802
644.898	17850.82
645.095	17634.79
645.293	17655.14
645.49	17520.48
645.687	17592.75
645.884	17629.37
646.081	17304.45
646.278	17356.96
646.475	17255.43
646.672	17154.11
646.87	17049.68
647.067	17095.98
647.264	16999.88
647.461	17005.11
647.658	16822.02
647.855	16938.27
648.052	16770.87
648.249	16626.92
648.446	16706.16
648.642	16917.35
648.839	16566.08
649.036	16674.97
649.233	16630.21
649.43	16545.35
649.627	16190.21
649.824	16408.18
650.021	16146.62
650.217	16423.68
650.414	16443.83
650.611	16518.61
650.808	16790.05
651.004	16651.33
651.201	16759.44
651.398	16922
651.595	16690.08
651.791	16593.21
651.988	16695.12
652.185	16273.52
652.381	16792.96
652.578	16436.85
652.775	16638.54
652.971	16754.79
653.168	16572.28
653.364	16846.82
653.561	16550.2
653.757	16696.09
653.954	16884.22
654.15	16451
654.347	16705.97
654.543	16734.45
654.74	16437.43
654.936	16370.01
655.133	16278.37
655.329	16327.58
655.525	15927.69
655.722	15903.27
655.918	15692.67
656.115	15040.9
656.311	14730.33
656.507	14210.5
656.704	13994.09
656.9	14032.84
657.096	14282.58
657.292	14320.36
657.489	14707.85
657.685	14943.06
657.881	14951.78
658.077	15137.2
658.273	15383.26
658.47	15686.08
658.666	15619.24
658.862	15995.11
659.058	15987.17
659.254	15932.53
659.45	16130.93
659.646	15933.5
659.842	16055.56
660.038	16228.57
660.234	16055.17
660.43	16126.08
660.626	16243.3
660.822	16259.96
661.018	16283.41
661.214	16187.11
661.41	16131.7
661.606	16309.17
661.802	16430.46
661.998	16280.69
662.194	16331.07
662.39	16332.04
662.586	16331.26
662.781	16230.12
662.977	16503.31
663.173	16128.21
663.369	16225.09
663.564	16142.36
663.76	16174.13
663.956	16295.42
664.152	15963.33
664.347	15896.1
664.543	16090.63
664.739	15972.05
664.934	15827.13
665.13	16036.96
665.326	16021.27
665.521	16144.1
665.717	15924
665.912	16048.58
666.108	15747.69
666.304	16050.13
666.499	15842.05
666.695	15682.59
666.89	15874.99
667.086	15904.44
667.281	15853.48
667.477	15905.4
667.672	15793.03
667.867	15670.78
668.063	15686.28
668.258	15655.66
668.454	15750.79
668.649	15641.71
668.844	15767.65
669.04	15809.89
669.235	15636.1
669.43	15849.02
669.626	15510.93
669.821	15629.12
670.016	15597.93
670.211	15710.69
670.407	15360.2
670.602	15673.49
670.797	15471.02
670.992	15622.53
671.187	15445.06
671.382	15623.7
671.578	15224.96
671.773	15339.08
671.968	15106.2
672.163	15303.43
672.358	15324.74
672.553	15073.65
672.748	15250.34
672.943	15286.58
673.138	15303.24
673.333	15351.87
673.528	15020.56
673.723	15297.81
673.918	15107.75
674.113	15135.84
674.308	15287.35
674.503	15037.61
674.698	15248.21
674.892	14902.96
675.087	15062.41
675.282	15063.77
675.477	14980.65
675.672	15050.59
675.867	14911.09
676.061	15001.57
676.256	14821.39
676.451	15036.84
676.646	14992.85
676.84	14822.74
677.035	14791.75
677.23	14883.78
677.424	14912.84
677.619	14769.66
677.814	14977.55
678.008	14848.32
678.203	14773.53
678.397	14750.86
678.592	14743.7
678.787	14863.82
678.981	14731.3
679.176	14748.73
679.37	14647.98
679.565	14726.65
679.759	14678.4
679.954	14608.27
680.148	14639.46
680.342	14682.47
680.537	14544.72
680.731	14500.54
680.926	14618.73
681.12	14531.54
681.314	14531.54
681.509	14531.93
681.703	14503.26
681.897	14325.98
682.092	14354.65
682.286	14400.96
682.48	14448.04
682.674	14346.51
682.869	14251.58
683.063	14477.87
683.257	14340.9
683.451	14228.33
683.645	14232.98
683.839	14204.69
684.034	14102.59
684.228	13982.08
684.422	13812.93
684.616	14025.47
684.81	13966.77
685.004	13960.38
685.198	13993.7
685.392	13836.18
685.586	13938.48
685.78	13800.53
685.974	13835.41
686.168	13749.58
686.362	13797.24
686.556	13127.46
686.75	12850.79
686.944	12217.62
687.138	11619.91
687.331	11094.66
687.525	10856.16
687.719	10667.64
687.913	10723.05
688.107	10908.47
688.301	10937.92
688.494	11017.74
688.688	11015.22
688.882	10919.9
689.076	11004.57
689.269	11004.57
689.463	11177.97
689.657	11133.8
689.85	11158.4
690.044	11327.74
690.238	11390.32
690.431	11470.34
690.625	11435.07
690.818	11576.32
691.012	11640.06
691.205	11784.21
691.399	11793.51
691.593	11782.08
691.786	11880.69
691.98	11998.1
692.173	12010.7
692.366	12114.93
692.56	12132.95
692.753	12044.99
692.947	11988.03
693.14	12005.08
693.333	11994.81
693.527	12000.43
693.72	12002.56
693.914	11905.88
694.107	11744.1
694.3	11743.52
694.493	11587.55
694.687	11861.9
694.88	11601.12
695.073	11859.96
695.266	11737.9
695.46	11767.35
695.653	11746.23
695.846	11691.98
696.039	11837.1
696.232	11716.2
696.425	11945.21
696.618	11943.08
696.812	12095.17
697.005	12144.19
697.198	12349.17
697.391	12190.11
697.584	12344.52
697.777	12381.14
697.97	12194.18
698.163	12270.9
698.356	12106.21
698.549	12194.95
698.742	12199.21
698.935	12021.55
699.127	12013.6
699.32	11934.36
699.513	11832.06
699.706	11769.29
699.899	11957.03
700.092	11801.64
700.285	11667.76
700.477	11493.97
700.67	11707.1
700.863	11575.73
701.056	11691.79
701.248	11621.85
701.441	11572.83
701.634	11523.62
701.826	11572.83
702.019	11362.61
702.212	11414.15
702.404	11317.86
702.597	11377.73
702.79	11350.79
702.982	11317.08
703.175	11486.61
703.367	11382.96
703.56	11487
703.752	11524
703.945	11511.02
704.137	11463.36
704.33	11543.19
704.522	11544.54
704.715	11598.02
704.907	11622.43
705.1	11706.32
705.292	11576.12
705.484	11471.69
705.677	11519.55
705.869	11622.04
706.061	11653.23
706.254	11700.51
706.446	11426.94
706.638	11462.78
706.831	11561.98
707.023	11489.32
707.215	11685.98
707.407	11674.74
707.599	11463.17
707.792	11645.48
707.984	11558.3
708.176	11497.07
708.368	11514.32
708.56	11458.32
708.752	11552.1
708.944	11403.69
709.136	11502.11
709.329	11409.11
709.521	11475.37
709.713	11362.03
709.905	11376.37
710.097	11582.32
710.289	11280.08
710.481	11370.17
710.672	11343.24
710.864	11423.84
711.056	11401.75
711.248	11332.58
711.44	11353.89
711.632	11338.01
711.824	11388.58
712.016	11300.61
712.207	11289.76
712.399	11214.98
712.591	11299.06
712.783	11225.25
712.975	11208.97
713.166	11118.88
713.358	11138.06
713.55	11145.81
713.741	11110.55
713.933	11115
714.125	11027.82
714.316	10911.76
714.508	11095.24
714.7	10930.36
714.891	10868.75
715.083	10836.98
715.274	10798.42
715.466	10821.28
715.657	10782.53
715.849	10586.07
716.04	10541.51
716.232	10477.96
716.423	10340.02
716.615	10157.7
716.806	9897.3
716.998	9683.21
717.189	9362.75
717.381	9155.64
717.572	8932.44
717.763	8770.47
717.955	8666.43
718.146	8513.75
718.337	8286.29
718.528	8124.13
718.72	7895.12
718.911	7884.46
719.102	7740.9
719.293	7787.2
719.485	7674.83
719.676	7601.98
719.867	7529.13
720.058	7478.56
720.249	7459.96
720.44	7487.47
720.632	7571.95
720.823	7690.72
721.014	8017.37
721.205	8103.2
721.396	8278.16
721.587	8578.66
721.778	8757.1
721.969	8746.25
722.16	8861.34
722.351	9035.71
722.542	9116.7
722.733	9150.79
722.924	8962.47
723.115	9056.83
723.305	8794.11
723.496	8881.87
723.687	8451.95
723.878	8521.89
724.069	8342.29
724.26	8371.16
724.45	8180.12
724.641	8158.03
724.832	8092.74
725.023	7921.66
725.213	7994.51
725.404	7947.04
725.595	7806.38
725.785	7891.83
725.976	8015.05
726.167	7969.52
726.357	7887.18
726.548	8099.33
726.739	7843.97
726.929	8117.15
727.12	8063.29
727.31	8067.36
727.501	7870.13
727.691	7835.83
727.882	7883.11
728.072	7932.9
728.263	7988.7
728.453	8087.9
728.644	8090.8
728.834	7922.44
729.024	7837.19
729.215	7842.03
729.405	7857.14
729.596	7931.16
729.786	7908.49
729.976	7964.09
730.167	8003.04
730.357	7926.12
730.547	7913.72
730.737	7896.86
730.928	7949.76
731.118	8047.21
731.308	7894.73
731.498	7892.99
731.688	8067.36
731.879	8113.67
732.069	8107.66
732.259	8206.66
732.449	8256.07
732.639	8372.32
732.829	8314.19
733.019	8439.94
733.209	8546.5
733.399	8567.03
733.589	8673.4
733.779	8731.91
733.969	8710.99
734.159	8896.79
734.349	8808.25
734.539	8972.16
734.729	8943.68
734.919	8913.84
735.109	9027.77
735.299	8807.86
735.488	8878.77
735.678	8859.4
735.868	8887.1
736.058	8755.36
736.248	8802.24
736.437	8692.39
736.627	8697.43
736.817	8826.27
737.007	8678.44
737.196	8843.51
737.386	8807.86
737.576	8690.06
737.765	8834.21
737.955	8669.14
738.144	8915.97
738.334	8818.32
738.524	8689.87
738.713	8765.82
738.903	8719.71
739.092	8757.88
739.282	8683.86
739.471	8741.99
739.661	8644.73
739.85	8702.46
740.04	8709.83
740.229	8729.98
740.419	8761.75
740.608	8748.96
740.797	8658.29
740.987	8746.83
741.176	8741.79
741.365	8660.42
741.555	8528.48
741.744	8738.69
741.933	8619.35
742.123	8644.53
742.312	8691.42
742.501	8735.21
742.69	8703.24
742.88	8534.29
743.069	8756.33
743.258	8728.04
743.447	8771.83
743.636	8715.64
743.825	8671.27
744.014	8676.7
744.204	8790.23
744.393	8555.02
744.582	8782.48
744.771	8698.01
744.96	8631.75
745.149	8671.85
745.338	8655.58
745.527	8673.4
745.716	8605.59
745.905	8592.61
746.094	8741.41
746.283	8678.05
746.471	8541.46
746.66	8598.42
746.849	8673.79
747.038	8615.28
747.227	8547.85
747.416	8605.01
747.604	8495.35
747.793	8486.44
747.982	8518.4
748.171	8565.68
748.359	8485.85
748.548	8496.51
748.737	8440.32
748.926	8477.52
749.114	8285.71
749.303	8406.03
749.491	8400.22
749.68	8219.26
749.869	8396.15
750.057	8279.32
750.246	8289.78
750.434	8314.78
750.623	8249.68
750.811	8236.5
751	8261.69
751.188	8151.45
751.377	8217.71
751.565	8177.8
751.754	8089.06
751.942	8062.32
752.131	8152.22
752.319	8060.39
752.507	8080.15
752.696	8106.11
752.884	8025.9
753.072	8062.71
753.261	8064.84
753.449	8067.36
753.637	7919.34
753.825	8098.75
754.014	8058.45
754.202	8015.63
754.39	8082.67
754.578	8048.95
754.766	7994.9
754.955	7914.69
755.143	7985.02
755.331	7879.43
755.519	7944.52
755.707	7915.46
755.895	7799.02
756.083	7934.26
756.271	7790.11
756.459	7838.16
756.647	7845.52
756.835	7737.41
757.023	7813.36
757.211	7713.38
757.399	7681.42
757.587	7730.43
757.775	7603.34
757.963	7617.09
758.151	7663.78
758.339	7558.19
758.526	7570.98
758.714	7583.38
758.902	7347.4
759.09	7189.69
759.278	6882.6
759.465	6406.75
759.653	5760.02
759.841	5209.98
760.028	4685.7
760.216	4129.25
760.404	3783.22
760.591	3286.26
760.779	2926.66
760.967	2598.07
761.154	2352.79
761.342	2380.69
761.529	2427.38
761.717	2541.5
761.905	2647.67
762.092	2815.84
762.28	2790.65
762.467	2771.09
762.655	2727.11
762.842	2773.02
763.029	2791.82
763.217	2867.38
763.404	2859.43
763.592	2947.4
763.779	2960.96
763.966	2988.86
764.154	3060.16
764.341	3159.74
764.528	3196.36
764.716	3341.48
764.903	3456.95
765.09	3562.74
765.277	3647.4
765.465	3884.16
765.652	4017.66
765.839	4125.57
766.026	4379.77
766.213	4483.04
766.4	4678.53
766.588	4906.18
766.775	5082.68
766.962	5192.54
767.149	5297.55
767.336	5562.4
767.523	5548.84
767.71	5721.47
767.897	5938.47
768.084	5981.28
768.271	6079.32
768.458	6163.79
768.645	6257.37
768.832	6353.67
769.019	6358.32
769.206	6322.09
769.392	6455
769.579	6578.22
769.766	6471.85
769.953	6516.03
770.14	6637.31
770.327	6598.56
770.513	6662.89
770.7	6682.45
770.887	6570.08
771.073	6553.03
771.26	6649.71
771.447	6572.6
771.634	6567.76
771.82	6677.61
772.007	6490.26
772.193	6665.99
772.38	6624.72
772.567	6572.02
772.753	6587.13
772.94	6697.37
773.126	6619.1
773.313	6637.31
773.499	6587.13
773.686	6681.68
773.872	6500.72
774.059	6644.48
774.245	6522.03
774.432	6510.99
774.618	6438.14
774.804	6482.12
774.991	6444.53
775.177	6465.07
775.363	6447.63
775.55	6455.38
775.736	6336.23
775.922	6409.85
776.109	6434.07
776.295	6420.51
776.481	6473.6
776.667	6435.43
776.853	6427.87
777.04	6364.32
777.226	6404.23
777.412	6378.27
777.598	6260.86
777.784	6349.21
777.97	6208.94
778.156	6289.73
778.342	6292.83
778.528	6231.02
778.715	6185.3
778.901	6171.93
779.087	6222.89
779.272	6212.42
779.458	6104.51
779.644	6141.71
779.83	6162.82
780.016	6198.47
780.202	6120.78
780.388	6158.56
780.574	6053.16
780.76	6060.53
780.946	6120.78
781.131	6143.64
781.317	6068.66
781.503	5988.65
781.689	6042.51
781.874	6131.24
782.06	5930.91
782.246	6040.76
782.432	5951.25
782.617	5976.63
782.803	6025.65
782.989	5942.15
783.174	5895.26
783.36	5832.1
783.545	5887.12
783.731	5796.64
783.916	5761.57
784.102	5797.42
784.288	5795.67
784.473	5834.42
784.659	5751.89
784.844	5816.4
785.029	5768.36
785.215	5745.11
785.4	5651.53
785.586	5777.07
785.771	5653.85
785.956	5768.74
786.142	5602.31
786.327	5697.06
786.512	5614.13
786.698	5649.59
786.883	5534.5
787.068	5625.37
787.254	5639.9
787.439	5547.48
787.624	5475.99
787.809	5538.18
787.994	5491.1
788.18	5588.17
788.365	5473.08
788.55	5446.93
788.735	5503.31
788.92	5443.25
789.105	5488.97
789.29	5449.06
789.475	5321.19
789.66	5362.65
789.845	5297.16
790.03	5270.43
790.215	5324.48
790.4	5370.01
790.585	5346.96
790.77	5288.83
790.955	5275.85
791.14	5301.62
791.325	5383.77
791.51	5180.14
791.695	5253.76
791.879	5285.92
792.064	5199.9
792.249	5294.06
792.434	5281.08
792.618	5257.83
792.803	5326.81
792.988	5264.81
793.173	5263.45
793.357	5282.24
793.542	5208.23
793.727	5254.34
793.911	5307.43
794.096	5293.87
794.281	5333.59
794.465	5319.06
794.65	5264.23
794.834	5369.43
795.019	5362.46
795.203	5346.96
795.388	5327.19
795.572	5376.02
795.757	5342.11
795.941	5352.19
796.126	5317.12
796.31	5288.44
796.494	5304.52
796.679	5325.84
796.863	5289.41
797.048	5432.2
797.232	5342.5
797.416	5384.93
797.601	5386.48
797.785	5392.87
797.969	5393.45
798.153	5269.46
798.338	5470.37
798.522	5451.58
798.706	5445.19
798.89	5477.35
799.074	5594.95
799.258	5435.5
799.443	5479.87
799.627	5417.48
799.811	5488.97
799.995	5375.82
800.179	5327.58
800.363	5355.29
800.547	5439.18
800.731	5466.11
800.915	5286.31
801.099	5299.49
801.283	5378.34
801.467	5331.65
801.651	5324.87
801.835	5369.82
802.019	5373.69
802.202	5406.24
802.386	5336.11
802.57	5312.47
802.754	5334.36
802.938	5277.59
803.121	5267.13
803.305	5427.94
803.489	5263.06
803.673	5330.68
803.856	5368.65
804.04	5283.21
804.224	5358.97
804.407	5268.68
804.591	5259.19
804.775	5268.88
804.958	5250.47
805.142	5420.77
805.326	5273.91
805.509	5288.06
805.693	5316.54
805.876	5296.58
806.06	5340.56
806.243	5354.32
806.427	5393.45
806.61	5407.4
806.794	5364.2
806.977	5355.48
807.16	5337.66
807.344	5335.14
807.527	5322.35
807.71	5329.91
807.894	5310.92
808.077	5330.29
808.26	5213.27
808.444	5228.38
808.627	5313.63
808.81	5203.78
808.993	5159.02
809.177	5150.11
809.36	5143.13
809.543	5156.31
809.726	5032.31
809.909	5028.63
810.092	5010.8
810.276	5005.38
810.459	5003.64
810.642	5041.03
810.825	4959.65
811.008	4963.72
811.191	4835.85
811.374	4843.21
811.557	4849.99
811.74	4912.96
811.923	4766.68
812.106	4734.91
812.289	4751.38
812.472	4661.09
812.654	4669.23
812.837	4656.25
813.02	4592.5
813.203	4502.99
813.386	4409.02
813.569	4341.02
813.751	4227.87
813.934	4322.61
814.117	4179.63
814.3	4147.08
814.482	4106.39
814.665	4022.5
814.848	3934.54
815.03	3854.71
815.213	3872.73
815.396	3844.45
815.578	3766.95
815.761	3738.08
815.943	3760.75
816.126	3645.08
816.309	3586.57
816.491	3555.76
816.674	3419.36
816.856	3460.05
817.039	3476.91
817.221	3564.09
817.403	3492.41
817.586	3488.92
817.768	3546.66
817.951	3389.33
818.133	3401.54
818.315	3394.18
818.498	3446.68
818.68	3511.59
818.862	3519.73
819.045	3567.77
819.227	3525.15
819.409	3479.43
819.591	3552.66
819.774	3498.8
819.956	3477.68
820.138	3563.12
820.32	3534.64
820.502	3700.49
820.684	3769.66
820.866	3762.3
821.048	3861.11
821.231	3859.95
821.413	3858.01
821.595	3847.35
821.777	3883.78
821.959	3868.66
822.141	3922.33
822.323	3721.22
822.505	3621.44
822.686	3522.63
822.868	3320.75
823.05	3153.16
823.232	3076.63
823.414	3047.95
823.596	3165.75
823.778	3073.91
823.96	3169.82
824.141	3197.14
824.323	3224.07
824.505	3347.48
824.687	3442.03
824.868	3530.19
825.05	3679.76
825.232	3671.82
825.413	3786.52
825.595	3720.45
825.777	3685.19
825.958	3727.42
826.14	3684.02
826.321	3732.46
826.503	3706.69
826.685	3775.08
826.866	3790.58
827.048	3752.22
827.229	3720.25
827.411	3604.39
827.592	3515.08
827.773	3519.14
827.955	3403.09
828.136	3392.43
828.318	3394.56
828.499	3452.69
828.68	3357.56
828.862	3363.37
829.043	3377.51
829.224	3349.81
829.406	3262.43
829.587	3348.65
829.768	3342.25
829.949	3337.22
830.131	3361.43
830.312	3408.32
830.493	3393.4
830.674	3402.12
830.855	3352.13
831.036	3311.25
831.218	3414.33
831.399	3466.64
831.58	3339.35
831.761	3385.07
831.942	3384.1
832.123	3375.19
832.304	3255.84
832.485	3337.02
832.666	3309.9
832.847	3325.98
833.028	3316.1
833.209	3364.53
833.389	3329.08
833.57	3276.77
833.751	3242.28
833.932	3354.07
834.113	3287.81
834.294	3271.73
834.475	3347.48
834.655	3383.52
834.836	3347.1
835.017	3393.6
835.198	3353.88
835.378	3355.04
835.559	3418.2
835.74	3345.35
835.92	3361.05
836.101	3340.32
836.281	3397.66
836.462	3376.35
836.643	3405.03
836.823	3411.03
837.004	3409.48
837.184	3473.81
837.365	3467.99
837.545	3422.46
837.726	3350.39
837.906	3463.15
838.087	3435.64
838.267	3369.57
838.448	3337.41
838.628	3381.58
838.808	3435.25
838.989	3431.57
839.169	3337.22
839.349	3383.71
839.53	3387.98
839.71	3404.45
839.89	3354.27
840.07	3451.33
840.251	3394.76
840.431	3419.75
840.611	3343.22
840.791	3343.03
840.971	3393.79
841.151	3331.4
841.332	3323.07
841.512	3369.38
841.692	3285.68
841.872	3349.62
842.052	3339.73
842.232	3363.18
842.412	3259.33
842.592	3262.04
842.772	3323.65
842.952	3292.46
843.132	3265.53
843.312	3277.73
843.492	3260.49
843.672	3300.79
843.851	3158.77
844.031	3227.94
844.211	3239.37
844.391	3242.47
844.571	3249.84
844.751	3253.9
844.93	3230.46
845.11	3231.82
845.29	3201.2
845.47	3251.39
845.649	3204.5
845.829	3249.64
846.009	3204.69
846.188	3281.61
846.368	3242.09
846.547	3211.28
846.727	3249.45
846.907	3151.22
847.086	3205.66
847.266	3222.52
847.445	3192.29
847.625	3125.45
847.804	3111.11
847.984	3125.45
848.163	3122.93
848.343	3101.81
848.522	3138.82
848.701	3151.22
848.881	3093.29
849.06	3148.12
849.239	3086.7
849.419	3105.69
849.598	2981.88
849.777	2957.66
849.957	2920.27
850.136	2845.29
850.315	2822.24
850.494	2806.54
850.674	2870.09
850.853	2984.21
851.032	2879.97
851.211	2913.3
851.39	2924.73
851.569	2858.08
851.748	2887.33
851.927	2940.42
852.107	2876.87
852.286	2870.48
852.465	2830.37
852.644	2933.64
852.823	2952.24
853.002	2885.59
853.181	2905.16
853.359	2866.6
853.538	2764.69
853.717	2879.39
853.896	2732.34
854.075	2588.58
854.254	2582.38
854.433	2442.88
854.611	2498.87
854.79	2407.03
854.969	2467.29
855.148	2509.91
855.327	2456.83
855.505	2602.91
855.684	2592.26
855.863	2597.49
856.041	2614.93
856.22	2668.01
856.399	2642.24
856.577	2782.32
856.756	2751.9
856.934	2878.81
857.113	2857.5
857.291	2771.67
857.47	2741.06
857.648	2802.47
857.827	2789.3
858.005	2769.15
858.184	2767.99
858.362	2841.03
858.541	2741.64
858.719	2752.1
858.898	2672.47
859.076	2716.06
859.254	2795.11
859.433	2706.96
859.611	2709.86
859.789	2643.79
859.967	2763.92
860.146	2713.74
860.324	2618.8
860.502	2662.01
860.68	2633.53
860.859	2649.03
861.037	2648.83
861.215	2658.52
861.393	2657.55
861.571	2629.46
861.749	2613.38
861.927	2615.7
862.105	2625.97
862.283	2588.19
862.461	2570.17
862.639	2600.39
862.817	2589.54
862.995	2581.02
863.173	2557
863.351	2623.26
863.529	2577.92
863.707	2664.91
863.885	2639.92
864.063	2511.66
864.241	2526.19
864.418	2589.16
864.596	2518.63
864.774	2483.37
864.952	2513.98
865.129	2511.08
865.307	2531.03
865.485	2429.9
865.663	2505.26
865.84	2375.65
866.018	2386.89
866.196	2224.52
866.373	2189.07
866.551	2171.05
866.728	2121.26
866.906	2142.38
867.084	2176.48
867.261	2233.05
867.439	2264.82
867.616	2299.51
867.794	2274.51
867.971	2325.27
868.149	2305.12
868.326	2387.66
868.503	2377.59
868.681	2335.54
868.858	2315.97
869.035	2309.97
869.213	2339.22
869.39	2318.3
869.567	2418.27
869.745	2284.59
869.922	2338.84
870.099	2371.19
870.276	2351.43
870.454	2367.12
870.631	2335.54
870.808	2330.89
870.985	2323.34
871.162	2358.02
871.339	2329.92
871.517	2258.43
871.694	2288.46
871.871	2266.37
872.048	2278.58
872.225	2290.79
872.402	2281.87
872.579	2205.73
872.756	2302.02
872.933	2201.08
873.11	2250.29
873.287	2263.66
873.463	2258.04
873.64	2169.11
873.817	2210.96
873.994	2203.02
874.171	2175.51
874.348	2183.06
874.524	2154.39
874.701	2166.79
874.878	2134.63
875.055	2143.54
875.231	2165.43
875.408	2163.88
875.585	2078.63
875.762	2098.2
875.938	2130.36
876.115	2100.91
876.291	2093.55
876.468	2124.55
876.645	2076.89
876.821	2079.8
876.998	2097.43
877.174	2092.78
877.351	2096.26
877.527	2053.06
877.704	2055.58
877.88	2081.15
878.057	2015.86
878.233	2074.56
878.409	2066.62
878.586	2075.53
878.762	2028.45
878.938	2073.01
879.115	1967.81
879.291	2011.6
879.467	1969.36
879.644	1975.17
879.82	2060.81
879.996	1989.51
880.172	1936.62
880.349	1990.87
880.525	1996.29
880.701	1920.54
880.877	1907.94
881.053	1938.17
881.229	1951.54
881.405	1947.66
881.581	1925.77
881.757	1963.74
881.933	1955.99
882.109	1996.68
882.285	1978.27
882.461	1924.6
882.637	1964.52
882.813	1901.16
882.989	1938.55
883.165	1994.16
883.341	1930.61
883.517	1980.4
883.693	1961.8
883.869	1999.78
884.044	1907.36
884.22	1955.02
884.396	2017.02
884.572	1960.06
884.747	1995.13
884.923	1951.73
885.099	1957.54
885.275	2000.36
885.45	1939.72
885.626	1961.22
885.801	1913.56
885.977	1955.22
886.153	1863.96
886.328	1961.42
886.504	1902.52
886.679	1950.57
886.855	1933.13
887.03	1950.76
887.206	1954.83
887.381	1934.29
887.557	1958.51
887.732	1940.3
887.908	1969.75
888.083	1965.87
888.258	1919.37
888.434	1889.73
888.609	1944.56
888.784	1988.73
888.96	1888.37
889.135	1928.29
889.31	1892.44
889.485	1954.25
889.661	1941.65
889.836	1980.4
890.011	1969.17
890.186	1916.27
890.361	1928.87
890.537	1953.47
890.712	1906.78
890.887	1941.07
891.062	1941.65
891.237	1970.72
891.412	1930.42
891.587	1928.29
891.762	1954.25
891.937	2002.88
892.112	1887.02
892.287	1903.1
892.462	1842.46
892.637	1836.26
892.812	1824.44
892.987	1829.67
893.161	1801.19
893.336	1819.21
893.511	1782.2
893.686	1805.64
893.861	1807
894.035	1768.64
894.21	1783.94
894.385	1748.1
894.56	1749.65
894.734	1662.85
894.909	1674.09
895.084	1668.08
895.258	1659.36
895.433	1673.31
895.608	1612.86
895.782	1564.23
895.957	1596.59
896.131	1558.81
896.306	1506.89
896.48	1505.34
896.655	1465.04
896.829	1366.22
897.004	1382.31
897.178	1395.48
897.353	1361.38
897.527	1426.48
897.701	1410.21
897.876	1379.01
898.05	1482.47
898.224	1439.85
898.399	1426.29
898.573	1362.93
898.747	1241.84
898.921	1271.48
899.096	1126.75
899.27	1146.52
899.444	1153.3
899.618	1243.2
899.792	1276.71
899.967	1286.21
900.141	1307.33
900.315	1205.22
900.489	1212.78
900.663	1236.8
900.837	1231.57
901.011	1149.81
901.185	1256.76
901.359	1216.65
901.533	1255.4
901.707	1258.31
901.881	1254.82
902.055	1214.52
902.229	1216.65
902.403	1276.13
902.576	1218.98
902.75	1246.3
902.924	1341.62
903.098	1341.81
903.272	1401.87
903.446	1437.33
903.619	1462.32
903.793	1464.65
903.967	1480.34
904.14	1515.6
904.314	1525.68
904.488	1478.6
904.661	1480.15
904.835	1470.65
905.009	1549.32
905.182	1560.94
905.356	1486.54
905.529	1465.42
905.703	1463.68
905.876	1447.02
906.05	1411.76
906.223	1377.46
906.397	1309.07
906.57	1307.52
906.744	1241.84
906.917	1235.25
907.09	1223.82
907.264	1212.39
907.437	1172.09
907.61	1156.2
907.784	1153.88
907.957	1167.25
908.13	1104.47
908.304	1156.78
908.477	1090.91
908.65	1113.58
908.823	1072.31
908.996	1111.83
909.17	1067.08
909.343	1115.32
909.516	1102.34
909.689	1066.3
909.862	1064.56
910.035	1066.11
910.208	1021.35
910.381	1060.88
910.554	1090.33
910.727	1083.94
910.9	1083.74
911.073	1077.15
911.246	1117.07
911.419	1131.6
911.592	1130.63
911.765	1082
911.938	1066.89
912.11	1083.16
912.283	1087.23
912.456	1151.36
912.629	1086.45
912.802	1031.82
912.974	973.69
913.147	907.82
913.32	898.71
913.493	875.27
913.665	943.47
913.838	969.62
914.01	937.27
914.183	1023.49
914.356	995.2
914.528	1036.27
914.701	1059.33
914.873	1029.88
915.046	929.71
915.218	869.26
915.391	834.97
915.563	826.64
915.736	898.13
915.908	910.72
916.081	929.32
916.253	948.12
916.425	959.55
916.598	982.99
916.77	982.8
916.942	938.82
917.115	877.4
917.287	886.51
917.459	857.83
917.632	879.14
917.804	783.05
917.976	868.1
918.148	890.77
918.32	913.44
918.493	983.96
918.665	991.71
918.837	962.07
919.009	1022.32
919.181	1005.85
919.353	949.67
919.525	982.02
919.697	977.76
919.869	971.76
920.041	1034.92
920.213	1112.8
920.385	1047.51
920.557	998.69
920.729	1032.4
920.901	1006.44
921.073	949.86
921.244	950.44
921.416	1030.07
921.588	964.01
921.76	963.81
921.932	1035.69
922.103	960.32
922.275	977.96
922.447	996.75
922.619	908.01
922.79	945.02
922.962	927.77
923.134	944.24
923.305	896.97
923.477	849.11
923.648	868.68
923.82	895.23
923.991	823.15
924.163	827.03
924.335	877.01
924.506	833.61
924.677	919.06
924.849	817.92
925.02	864.61
925.192	896.97
925.363	827.8
925.535	865.39
925.706	823.93
925.877	906.46
926.049	852.21
926.22	852.21
926.391	855.12
926.562	902.01
926.734	826.06
926.905	874.3
927.076	778.01
927.247	821.8
927.419	756.31
927.59	742.55
927.761	727.25
927.932	691.4
928.103	705.16
928.274	656.72
928.445	646.45
928.616	642.58
928.787	595.5
928.958	654.4
929.129	609.25
929.3	610.22
929.471	548.81
929.642	502.11
929.813	450.58
929.984	536.99
930.155	447.67
930.326	505.41
930.496	478.28
930.667	402.33
930.838	421.13
931.009	385.86
931.18	397.29
931.35	367.07
931.521	392.45
931.692	308.56
931.863	268.65
932.033	302.55
932.204	302.16
932.374	285.7
932.545	242.88
932.716	283.76
932.886	271.94
933.057	201.42
933.227	190.37
933.398	280.66
933.568	195.22
933.739	122.56
933.909	172.55
934.08	209.75
934.25	141.55
934.421	145.23
934.591	201.61
934.761	150.85
934.932	142.52
935.102	208.2
935.272	179.72
935.443	142.9
935.613	139.03
935.783	152.2
935.953	133.41
936.123	298.68
936.294	149.88
936.464	178.75
936.634	138.06
936.804	97.18
936.974	123.14
937.144	155.5
937.314	154.14
937.484	132.44
937.655	130.12
937.825	172.16
937.995	146.39
938.165	208.2
938.334	174.29
938.504	211.1
938.674	201.03
938.844	218.85
939.014	280.66
939.184	321.15
939.354	354.28
939.524	350.6
939.694	270.2
939.863	268.84
940.033	348.66
940.203	330.45
940.373	275.23
940.542	292.09
940.712	277.56
940.882	311.85
941.051	324.64
941.221	279.69
941.391	307.01
941.56	267.87
941.73	252.57
941.899	339.17
942.069	253.53
942.238	278.14
942.408	236.87
942.577	286.28
942.747	239.97
942.916	173.13
943.086	209.75
943.255	269.81
943.425	250.82
943.594	210.52
943.763	164.6
943.933	158.6
944.102	150.46
944.271	165.38
944.441	234.55
944.61	195.41
944.779	215.37
944.948	285.31
945.117	165.57
945.287	196.57
945.456	135.93
945.625	163.83
945.794	221.95
945.963	174.68
946.132	206.45
946.301	195.41
946.47	212.07
946.639	146.2
946.808	188.44
946.977	213.82
947.146	233.77
947.315	155.69
947.484	228.35
947.653	187.85
947.822	192.5
947.991	177.39
948.16	274.27
948.329	221.57
948.498	214.98
948.666	198.32
948.835	231.25
949.004	146.59
949.173	145.81
949.341	198.12
949.51	193.86
949.679	236.68
949.847	219.63
950.016	278.33
950.185	260.9
950.353	204.32
950.522	206.84
950.69	272.52
950.859	221.95
951.028	229.51
951.196	217.88
951.365	195.02
951.533	167.32
951.701	186.89
951.87	210.72
952.038	153.75
952.207	202.97
952.375	233.19
952.543	163.44
952.712	192.31
952.88	196.19
953.048	265.55
953.217	194.44
953.385	214.4
953.553	256.25
953.721	182.04
953.89	219.05
954.058	160.15
954.226	153.17
954.394	216.14
954.562	118.69
954.73	163.25
954.898	181.27
955.067	241.91
955.235	183.79
955.403	214.59
955.571	255.86
955.739	198.7
955.907	168.29
956.075	192.5
956.243	153.75
956.41	184.56
956.578	145.04
956.746	142.71
956.914	184.17
957.082	237.07
957.25	241.72
957.418	192.12
957.585	199.87
957.753	267.68
957.921	171.77
958.089	174.49
958.256	235.52
958.424	202.19
958.592	198.32
958.759	170.8
958.927	200.25
959.095	171.58
959.262	183.59
959.43	195.02
959.597	156.27
959.765	205.87
959.932	159.95
960.1	218.85
960.267	200.06
960.435	197.35
960.602	215.37
960.77	191.92
960.937	171
961.104	207.04
961.272	177.78
961.439	191.34
961.606	206.26
961.774	227.18
961.941	169.25
962.108	220.6
962.275	219.82
962.443	230.48
962.61	233.58
962.777	277.75
962.944	254.89
963.111	244.23
963.278	265.55
963.446	240.36
963.613	213.23
963.78	215.95
963.947	229.7
964.114	212.07
964.281	278.14
964.448	257.99
964.615	200.25
964.782	224.08
964.949	266.32
965.116	234.16
965.282	259.93
965.449	214.78
965.616	194.44
965.783	233.97
965.95	227.38
966.117	174.29
966.283	205.87
966.45	223.7
966.617	225.83
966.784	231.83
966.95	265.93
967.117	265.55
967.284	224.28
967.45	223.12
967.617	293.83
967.784	292.48
967.95	278.33
968.117	244.82
968.283	291.51
968.45	361.65
968.616	262.06
968.783	301.97
968.949	274.07
969.116	314.56
969.282	267.87
969.449	254.89
969.615	291.9
969.781	231.64
969.948	252.37
970.114	241.91
970.28	328.9
970.447	256.44
970.613	313.79
970.779	258.18
970.945	270.58
971.112	270.2
971.278	272.33
971.444	258.38
971.61	285.31
971.776	235.71
971.942	287.25
972.108	278.14
972.275	236.1
972.441	259.93
972.607	328.13
972.773	224.86
972.939	272.72
973.105	241.91
973.271	201.61
973.437	257.41
973.602	214.78
973.768	252.18
973.934	240.94
974.1	260.51
974.266	174.1
974.432	253.53
974.598	227.18
974.763	255.47
974.929	219.82
975.095	291.9
975.261	201.03
975.426	190.76
975.592	203.16
975.758	281.43
975.923	160.34
976.089	196.96
976.255	240.94
976.42	219.24
976.586	242.1
976.751	250.43
976.917	301.39
977.082	244.62
977.248	176.23
977.413	145.81
977.579	206.65
977.744	220.4
977.91	198.51
978.075	188.82
978.24	234.35
978.406	190.57
978.571	201.8
978.736	204.13
978.902	216.72
979.067	189.02
979.232	151.43
979.397	208.2
979.563	274.46
979.728	181.65
979.893	192.31
980.058	183.2
980.223	251.98
980.388	201.22
980.554	223.5
980.719	195.41
980.884	195.8
981.049	234.93
981.214	166.54
981.379	218.47
981.544	172.74
981.709	192.5
981.874	185.14
982.039	208.59
982.204	220.6
982.368	221.57
982.533	193.47
982.698	211.49
982.863	231.25
983.028	186.69
983.193	210.14
983.357	225.44
983.522	219.63
983.687	185.72
983.852	202.77
984.016	183.2
984.181	232.42
984.346	218.47
984.51	218.08
984.675	176.42
984.839	210.52
985.004	209.36
985.168	251.98
985.333	192.89
985.498	192.12
985.662	219.43
985.827	225.63
985.991	204.9
986.155	205.68
986.32	236.87
986.484	251.79
986.649	224.47
986.813	142.71
986.977	221.18
987.142	227.77
987.306	160.73
987.47	181.85
987.634	185.53
987.799	220.21
987.963	215.56
988.127	179.72
988.291	269.03
988.455	195.8
988.62	169.84
988.784	205.68
988.948	226.41
989.112	188.82
989.276	201.42
989.44	205.49
989.604	181.65
989.768	182.24
989.932	228.93
990.096	170.03
990.26	162.09
990.424	149.88
990.588	185.14
990.752	259.35
990.915	209.36
991.079	176.04
991.243	171.19
991.407	207.04
991.571	164.99
991.734	204.13
991.898	199.48
992.062	256.83
992.226	198.51
992.389	140.39
992.553	123.92
992.717	157.24
992.88	184.37
993.044	196.77
993.207	145.04
993.371	179.52
993.535	185.34
993.698	162.28
993.862	183.98
994.025	195.22
994.189	168.09
994.352	184.37
994.515	141.94
994.679	202
994.842	160.92
995.006	203.74
995.169	125.27
995.332	149.88
995.496	195.02
995.659	108.03
995.822	130.7
995.985	143.87
996.149	174.68
996.312	139.22
996.475	218.66
996.638	144.84
996.801	195.02
996.964	232.22
997.128	135.74
997.291	148.91
997.454	187.66
997.617	104.74
997.78	196.38
997.943	116.17
998.106	173.71
998.269	126.44
998.432	152.4
998.595	157.82
998.758	124.69
998.92	107.84
999.083	78
999.246	170.61
999.409	114.04
999.572	80.91
999.735	106.09
999.897	164.6
1000.06	133.22
1000.223	120.43
1000.386	155.69
1000.548	143.68
1000.711	155.5
1000.874	142.13
1001.036	101.83
1001.199	173.52
1001.361	100.09
1001.524	105.51
1001.687	163.05
1001.849	100.47
1002.012	151.24
1002.174	116.17
1002.337	159.76
1002.499	118.49
1002.661	162.67
1002.824	96.6
1002.986	102.22
1003.149	124.89
1003.311	78.39
1003.473	189.6
1003.636	102.61
1003.798	154.92
1003.96	113.84
1004.123	131.67
1004.285	102.41
1004.447	122.76
1004.609	110.74
1004.771	178.36
1004.933	74.9
1005.096	83.04
1005.258	64.24
1005.42	65.79
1005.582	151.04
1005.744	111.52
1005.906	105.32
1006.068	130.31
1006.23	84.01
1006.392	49.91
1006.554	85.17
1006.716	126.05
1006.878	132.05
1007.04	72.96
1007.202	92.72
1007.363	96.99
1007.525	116.36
1007.687	140.58
1007.849	148.91
1008.011	48.36
1008.172	52.23
1008.334	120.43
1008.496	134.96
1008.658	58.24
1008.819	69.09
1008.981	49.32
1009.143	38.86
1009.304	70.83
1009.466	106.87
1009.627	150.07
1009.789	197.93
1009.95	67.73
1010.112	103.57
1010.273	107.06
1010.435	91.37
1010.596	79.94
1010.758	82.84
1010.919	65.6
1011.081	58.82
1011.242	68.7
1011.403	109.58
1011.565	65.99
1011.726	113.07
1011.887	62.5
1012.049	60.56
1012.21	106.29
1012.371	131.09
1012.532	34.41
1012.693	89.82
1012.855	69.86
1013.016	78.77
1013.177	87.11
1013.338	91.37
1013.499	138.25
1013.66	75.48
1013.821	95.05
1013.982	80.13
1014.143	82.84
1014.304	62.11
1014.465	96.6
1014.626	97.76
1014.787	48.55
1014.948	149.3
1015.109	19.1
1015.27	142.32
1015.431	65.6
1015.592	35.96
1015.752	117.91
1015.913	87.49
1016.074	84.59
1016.235	90.4
1016.395	80.13
1016.556	72.96
1016.717	87.11
1016.877	105.12
1017.038	65.6
1017.199	73.54
1017.359	75.29
1017.52	95.63
1017.681	59.21
1017.841	58.82
1018.002	51.65
1018.162	44.67
1018.323	112.68
1018.483	48.36
1018.644	49.52
1018.804	5.34
1018.964	32.47
1019.125	52.04
1019.285	79.36
1019.446	36.54
1019.606	39.25
1019.766	35.57
1019.926	60.76
1020.087	87.88
1020.247	2.05
1020.407	83.04
1020.567	118.88
1020.728	70.44
1020.888	46.03
1021.048	35.38
1021.208	37.12
1021.368	33.05
1021.528	116.36
1021.688	92.72
1021.848	56.49
1022.008	66.37
1022.168	51.26
1022.328	63.86
1022.488	67.34
1022.648	60.17
1022.808	61.14
1022.968	93.89
1023.128	53.39
1023.288	48.74
1023.448	48.55
1023.608	92.72
1023.767	77.22
1023.927	56.3
1024.087	27.82
1024.247	46.61
1024.406	43.12
1024.566	8.64
1024.726	28.59
1024.885	47.77
1025.045	58.43
1025.205	37.7
1025.364	50.49
1025.524	37.89
1025.683	23.56
1025.843	52.23
1026.003	28.79
1026.162	102.61
1026.321	63.08
1026.481	66.76
1026.64	49.71
1026.8	57.66
1026.959	69.67
1027.119	46.22
1027.278	10.96
1027.437	30.92
1027.597	41.96
1027.756	78.58
1027.915	45.26
1028.074	56.69
1028.234	38.86
1028.393	67.73
1028.552	41.19
1028.711	-29.34
1028.87	64.63
1029.03	24.33
1029.189	27.24
1029.348	-12.67
1029.507	15.61
1029.666	45.64
1029.825	-13.64
1029.984	10.77
1030.143	62.5
1030.302	35.18
1030.461	1.28
1030.62	34.02
1030.779	68.7
1030.938	19.68
1031.097	8.83
1031.255	36.92
1031.414	98.73
1031.573	76.64
1031.732	5.54
1031.891	27.82
1032.049	78.58
1032.208	52.23
1032.367	15.81
1032.525	12.51
1032.684	42.16
1032.843	51.65
1033.001	-13.45
1033.16	189.6
1033.319	79.55
1033.477	42.74
1033.636	31.5
1033.794	-17.52
1033.953	57.07
1034.111	71.02
1034.27	7.09
1034.428	68.31
1034.587	0.31
1034.745	44.48
1034.903	44.48
1035.062	69.67
1035.22	-5.89
1035.378	75.09
1035.537	14.26
1035.695	57.46
1035.853	20.46
1036.011	54.36
1036.17	75.48
1036.328	-15.39
1036.486	44.87
1036.644	41.96
1036.802	-33.41
1036.96	17.74
1037.119	34.79
1037.277	2.83
1037.435	-4.34
1037.593	0.69
1037.751	1.28
1037.909	53.39
1038.067	53.39
