Data from tests_FLMT105791__7__15-40-03-264.txt Node

Date: Mon Mar 20 15:40:03 GMT 2023
User: antho
Spectrometer: FLMT10579
Trigger mode: 0
Integration Time (sec): 1.000000E-1
Scans to average: 10
Electric dark correction enabled: true
Nonlinearity correction enabled: false
Boxcar width: 0
XAxis mode: Wavelengths
Number of Pixels in Spectrum: 3648
>>>>>Begin Spectral Data<<<<<
345.248	-161.65
345.464	-161.65
345.681	-161.65
345.898	-181.02
346.114	-157.19
346.331	-33
346.548	28.61
346.764	10.59
346.981	-17.11
347.197	-27.38
347.414	5.17
347.631	-25.25
347.847	58.25
348.064	-7.04
348.28	66.78
348.497	-60.13
348.713	0.52
348.93	24.15
349.146	151.64
349.363	252
349.579	249.68
349.796	241.15
350.012	270.79
350.229	287.07
350.445	309.74
350.661	283.58
350.878	310.9
351.094	313.42
351.311	335.51
351.527	335.12
351.743	290.17
351.96	332.99
352.176	326.21
352.392	335.89
352.609	328.92
352.825	308.19
353.041	317.87
353.257	291.91
353.474	345.39
353.69	356.04
353.906	348.49
354.122	361.47
354.339	454.08
354.555	394.02
354.771	360.89
354.987	473.65
355.203	473.07
355.42	403.7
355.636	396.92
355.852	400.02
356.068	399.83
356.284	381.81
356.5	449.43
356.716	446.14
356.932	389.75
357.148	388.98
357.364	361.66
357.58	424.44
357.796	469.38
358.012	433.35
358.228	402.54
358.444	318.26
358.66	402.15
358.876	338.8
359.092	366.12
359.308	398.86
359.524	451.95
359.74	459.7
359.956	524.99
360.172	545.33
360.388	582.34
360.604	544.56
360.819	597.84
361.035	519.95
361.251	558.12
361.467	479.85
361.683	561.22
361.898	531.97
362.114	533.13
362.33	534.1
362.546	588.35
362.762	576.53
362.977	627.1
363.193	586.99
363.409	646.86
363.624	632.91
363.84	622.06
364.056	622.45
364.271	632.33
364.487	699.94
364.703	697.62
364.918	675.34
365.134	665.07
365.35	675.53
365.565	830.14
365.781	772.21
365.996	828.4
366.212	890.2
366.427	897.18
366.643	890.98
366.858	868.89
367.074	872.96
367.289	899.5
367.505	977.97
367.72	879.94
367.936	893.3
368.151	929.34
368.367	880.71
368.582	883.23
368.798	817.94
369.013	886.72
369.228	888.07
369.444	874.9
369.659	906.67
369.874	925.66
370.09	999.67
370.305	951.82
370.52	964.99
370.736	1009.16
370.951	956.27
371.166	961.89
371.381	966.54
371.597	970.22
371.812	935.15
372.027	948.91
372.242	966.93
372.458	988.82
372.673	878.77
372.888	890.98
373.103	893.11
373.318	967.12
373.533	920.82
373.749	847.97
373.964	767.37
374.179	848.94
374.394	762.72
374.609	861.72
374.824	790.04
375.039	864.63
375.254	781.32
375.469	903.38
375.684	933.99
375.899	1008.97
376.114	1036.48
376.329	1030.28
376.544	1022.15
376.759	1002.19
376.974	932.44
377.189	999.09
377.404	1057.02
377.619	1111.66
377.834	1100.81
378.049	1145.76
378.264	1270.53
378.478	1324.97
378.693	1303.66
378.908	1356.36
379.123	1275.95
379.338	1260.65
379.553	1184.51
379.767	1134.52
379.982	1140.53
380.197	1174.24
380.412	1139.56
380.626	1228.87
380.841	1326.52
381.056	1334.66
381.271	1412.35
381.485	1326.91
381.7	1262.2
381.915	1281.57
382.129	1175.01
382.344	1127.35
382.559	1058.38
382.773	1053.92
382.988	941.55
383.202	954.14
383.417	908.42
383.632	994.83
383.846	899.89
384.061	900.86
384.275	933.22
384.49	1037.26
384.704	1157.38
384.919	1266.85
385.133	1329.43
385.348	1394.53
385.562	1334.08
385.777	1437.73
385.991	1329.24
386.206	1319.74
386.42	1271.3
386.634	1371.47
386.849	1353.84
387.063	1448
387.277	1425.92
387.492	1415.65
387.706	1357.91
387.92	1402.28
388.135	1481.13
388.349	1463.7
388.563	1436.76
388.778	1438.12
388.992	1431.34
389.206	1516.78
389.42	1613.85
389.635	1596.03
389.849	1735.52
390.063	1852.55
390.277	1900.01
390.491	1913.96
390.706	1899.63
390.92	1895.56
391.134	1910.09
391.348	2020.33
391.562	2043.97
391.776	2137.74
391.99	2158.47
392.205	2148.01
392.419	2008.9
392.633	1912.22
392.847	1825.81
393.061	1625.86
393.275	1533.25
393.489	1270.92
393.703	1086.66
393.917	1083.56
394.131	1075.81
394.345	1262.78
394.559	1496.63
394.773	1641.36
394.986	1946.9
395.2	2049.59
395.414	2240.23
395.628	2300.68
395.842	2407.83
396.056	2393.68
396.27	2240.82
396.484	2179.01
396.697	1934.89
396.911	1679.92
397.125	1455.56
397.339	1357.13
397.553	1384.26
397.766	1602.03
397.98	1928.88
398.194	2257.87
398.408	2507.61
398.621	2742.04
398.835	2904.79
399.049	2977.64
399.262	3163.44
399.476	3206.26
399.69	3213.62
399.903	3313.79
400.117	3291.51
400.331	3357.57
400.544	3362.03
400.758	3541.25
400.971	3439.92
401.185	3485.64
401.398	3483.9
401.612	3607.7
401.826	3669.12
402.039	3707.48
402.253	3749.72
402.466	3855.51
402.68	3809.2
402.893	3989
403.106	3904.33
403.32	3766.96
403.533	3801.84
403.747	3657.5
403.96	3782.85
404.174	3883.79
404.387	3887.67
404.6	3929.52
404.814	3921.77
405.027	3804.94
405.24	3808.81
405.454	3782.46
405.667	3952.19
405.88	3943.85
406.094	3941.14
406.307	3954.7
406.52	3811.14
406.733	3758.24
406.947	3801.45
407.16	3897.74
407.373	3996.36
407.586	3979.7
407.799	4042.67
408.012	4046.54
408.226	4000.43
408.439	4254.24
408.652	4186.04
408.865	4410.2
409.078	4560.36
409.291	4502.43
409.504	4489.45
409.717	4581.09
409.93	4580.7
410.143	4238.16
410.357	4045.38
410.57	3892.9
410.783	3942.11
410.996	4021.16
411.209	4256.76
411.421	4555.71
411.634	4687.26
411.847	4700.44
412.06	4746.16
412.273	4911.04
412.486	4820.37
412.699	4906.58
412.912	4941.85
413.125	4811.84
413.338	4823.08
413.55	4760.89
413.763	4695.59
413.976	4756.62
414.189	4777.55
414.402	4867.06
414.615	5031.94
414.827	4913.56
415.04	4927.9
415.253	4976.14
415.466	5028.45
415.678	5014.69
415.891	5016.83
416.104	4910.85
416.316	5010.24
416.529	5144.7
416.742	5323.14
416.954	5279.35
417.167	5260.75
417.38	5179.19
417.592	5038.33
417.805	4929.64
418.017	4990.67
418.23	4957.15
418.442	4916.85
418.655	5064.29
418.868	5005.98
419.08	5084.06
419.293	5086.38
419.505	5233.82
419.718	5155.55
419.93	5253.59
420.142	5122.42
420.355	5122.61
420.567	4964.13
420.78	5169.31
420.992	5208.44
421.205	5407.03
421.417	5567.07
421.629	5621.12
421.842	5618.02
422.054	5611.44
422.266	5670.14
422.479	5560.29
422.691	5356.47
422.903	5293.69
423.115	5159.81
423.328	5128.42
423.54	5130.75
423.752	5254.17
423.964	5475.23
424.177	5536.07
424.389	5456.05
424.601	5608.34
424.813	5602.91
425.025	5635.27
425.238	5626.35
425.45	5605.82
425.662	5526.19
425.874	5835.6
426.086	5583.15
426.298	5658.9
426.51	5628.87
426.722	5606.4
426.934	5702.89
427.146	5652.32
427.358	5668.98
427.57	5565.32
427.782	5435.51
427.994	5413.04
428.206	5417.69
428.418	5747.06
428.63	5899.15
428.842	5882.49
429.054	5741.05
429.266	5618.02
429.478	5523.09
429.69	5435.13
429.902	5273.15
430.114	5275.48
430.325	4987.57
430.537	4731.24
430.749	4546.6
430.961	4323.79
431.173	4352.47
431.384	4457.28
431.596	4572.95
431.808	5182.48
432.02	5821.07
432.231	6342.83
432.443	6667.36
432.655	6542.2
432.867	6386.23
433.078	6372.67
433.29	6443.39
433.502	6544.14
433.713	6756.1
433.925	6999.83
434.136	6680.53
434.348	6262.43
434.56	6065.77
434.771	6279.28
434.983	6128.94
435.194	6546.07
435.406	6915.94
435.617	6950.81
435.829	7090.89
436.04	7144.75
436.252	6991.11
436.463	7263.52
436.675	7653.92
436.886	7725.61
437.098	7787.41
437.309	7768.04
437.521	7554.14
437.732	7351.29
437.943	7304.21
438.155	7218.38
438.366	7135.06
438.578	7298.01
438.789	6952.75
439	6818.29
439.211	6805.69
439.423	6863.43
439.634	7162.19
439.845	7438.86
440.057	7557.63
440.268	7834.69
440.479	7790.9
440.69	7789.54
440.902	7513.84
441.113	7483.81
441.324	7681.63
441.535	7961.98
441.746	8179.94
441.957	8147.2
442.168	8358.38
442.38	8353.73
442.591	8439.56
442.802	8302.59
443.013	8581
443.224	8686.4
443.435	8506.02
443.646	8536.63
443.857	8388.61
444.068	8540.51
444.279	8341.72
444.49	8832.48
444.701	8624.98
444.912	8981.86
445.123	8905.91
445.334	8615.29
445.545	8897.58
445.756	8657.14
445.967	8514.93
446.178	8336.68
446.388	8240.97
446.599	8306.07
446.81	8390.74
447.021	8360.71
447.232	8616.84
447.443	8794.9
447.653	9023.71
447.864	9186.27
448.075	9185.1
448.286	9185.69
448.496	9102.76
448.707	9251.75
448.918	8952.61
449.129	9072.15
449.339	9149.84
449.55	9300.96
449.761	9189.17
449.971	9077.77
450.182	9369.75
450.393	9405.59
450.603	9393.58
450.814	9777.78
451.024	9705.12
451.235	10062.78
451.446	10033.14
451.656	9981.41
451.867	9891.89
452.077	9590.81
452.288	9824.08
452.498	9581.7
452.709	9672.18
452.919	9368.39
453.13	9170.96
453.34	9071.57
453.55	8713.33
453.761	9166.12
453.971	9023.13
454.182	9281.2
454.392	9316.08
454.602	9779.91
454.813	9804.13
455.023	9563.1
455.233	9424.58
455.444	9593.14
455.654	9235.87
455.864	9504.79
456.075	9619.49
456.285	9590.81
456.495	9751.23
456.705	9839.78
456.916	10094.94
457.126	10192.78
457.336	10013.57
457.546	9849.27
457.756	10002.33
457.967	10179.03
458.177	9926.19
458.387	9973.46
458.597	9807.42
458.807	9956.8
459.017	9728.37
459.227	9762.86
459.437	9721.2
459.647	10040.11
459.857	9904.68
460.068	10191.23
460.278	10063.36
460.488	10037.59
460.698	10163.92
460.908	10266.99
461.117	10475.07
461.327	10482.63
461.537	10618.83
461.747	10592.68
461.957	10586.87
462.167	10745.54
462.377	10692.65
462.587	10681.22
462.797	10893.37
463.007	10736.05
463.216	10968.35
463.426	11260.52
463.636	10970.1
463.846	10763.37
464.056	10729.27
464.265	10617.48
464.475	10664.17
464.685	11007.1
464.895	10863.34
465.104	10556.45
465.314	10940.26
465.524	10788.36
465.733	10696.72
465.943	11035.58
466.153	11218.67
466.362	11338.22
466.572	11276.8
466.782	11066.78
466.991	11304.7
467.201	11103.78
467.41	10843.77
467.62	11158.61
467.829	11191.94
468.039	11394.4
468.249	11393.82
468.458	11609.27
468.668	11514.33
468.877	11737.14
469.086	11825.49
469.296	12095.96
469.505	12277.12
469.715	11986.69
469.924	11932.63
470.134	12212.02
470.343	11825.49
470.552	11851.07
470.762	11767.17
470.971	11940.77
471.18	12018.66
471.39	12106.04
471.599	12020.59
471.808	12252.7
472.018	12586.34
472.227	12797.33
472.436	13313.66
472.645	13326.64
472.855	13209.23
473.064	13747.46
473.273	13666.28
473.482	13180.56
473.691	13473.12
473.901	13281.7
474.11	13069.54
474.319	13571.15
474.528	13553.52
474.737	14245.78
474.946	13993.91
475.155	14127.01
475.364	14487.97
475.573	14193.28
475.783	14611.77
475.992	14446.31
476.201	14375.98
476.41	14596.08
476.619	14411.05
476.828	14414.92
477.037	14363.97
477.245	14402.91
477.454	14667.76
477.663	15061.26
477.872	15502.62
478.081	15684.55
478.29	15630.3
478.499	15836.64
478.708	16156.32
478.917	15972.84
479.125	15656.46
479.334	15768.44
479.543	16182.48
479.752	16325.46
479.961	16272.38
480.169	16696.49
480.378	16794.72
480.587	17222.71
480.796	16941.39
481.004	16964.64
481.213	17191.51
481.422	17127.38
481.63	17597.61
481.839	17634.42
482.048	17829.91
482.256	17801.24
482.465	18341.21
482.674	18111.81
482.882	18145.33
483.091	18247.82
483.299	17908.96
483.508	18525.66
483.716	18602.77
483.925	18691.12
484.134	18056.4
484.342	18514.23
484.551	18498.34
484.759	18219.73
484.967	19066.99
485.176	18762.61
485.384	18895.33
485.593	18643.26
485.801	18485.94
486.01	17835.92
486.218	17011.91
486.426	16251.45
486.635	15746.55
486.843	15795.18
487.051	16313.06
487.26	16560.48
487.468	17098.9
487.676	17703.39
487.885	18142.62
488.093	18510.35
488.301	19206.87
488.509	19229.93
488.717	19540.51
488.926	19709.65
489.134	19414.38
489.342	19376.79
489.55	19188.47
489.758	19569.18
489.967	20214.16
490.175	20080.09
490.383	20801.41
490.591	21250.52
490.799	21142.8
491.007	21048.83
491.215	21089.71
491.423	20943.24
491.631	20957.96
491.839	20731.86
492.047	20715.97
492.255	20324.02
492.463	20243.42
492.671	19878.21
492.879	20353.47
493.087	20677.8
493.295	20889.96
493.503	21161.59
493.711	21798.05
493.919	21625.81
494.127	21471
494.334	21426.64
494.542	21517.5
494.75	22012.33
494.958	21753.87
495.166	22480.23
495.374	22616.24
495.581	22701.88
495.789	22621.47
495.997	22618.76
496.205	21901.32
496.412	22247.74
496.62	22589.51
496.828	22425.79
497.035	22706.53
497.243	22722.61
497.451	22982.62
497.658	22890.01
497.866	22692
498.074	23053.72
498.281	22564.51
498.489	22724.94
498.696	22310.12
498.904	21998.58
499.112	21920.69
499.319	22500.96
499.527	22679.4
499.734	22879.35
499.942	22842.93
500.149	22746.05
500.357	22937.86
500.564	22422.11
500.771	22354.49
500.979	21990.44
501.186	21963.7
501.394	22190
501.601	21757.75
501.808	21739.34
502.016	21824.01
502.223	21747.48
502.43	21871.67
502.638	21894.73
502.845	22408.35
503.052	22504.45
503.26	22575.36
503.467	22789.45
503.674	23036.67
503.881	22927.01
504.089	22616.05
504.296	22566.84
504.503	22308.19
504.71	22084.41
504.917	22435.09
505.125	22592.8
505.332	22967.7
505.539	22854.36
505.746	23348.03
505.953	23680.69
506.16	23773.69
506.367	23810.69
506.574	24283.63
506.781	24173.2
506.988	24010.45
507.195	23770.59
507.402	23738.43
507.609	23685.92
507.816	23382.71
508.023	23348.61
508.23	23146.34
508.437	22959.95
508.644	23063.8
508.851	23114.17
509.058	23589.82
509.265	23606.49
509.472	23937.41
509.679	24095.31
509.885	24142.2
510.092	24065.67
510.299	23999.79
510.506	23459.24
510.713	23609
510.92	23659.96
511.126	23886.64
511.333	23949.03
511.54	24175.13
511.746	24122.24
511.953	24228.8
512.16	24603.7
512.367	24434.95
512.573	24279.18
512.78	24125.15
512.987	24093.57
513.193	23596.41
513.4	23330.59
513.606	23559.02
513.813	23664.42
514.02	23432.31
514.226	23331.56
514.433	23406.73
514.639	23210.08
514.846	23348.22
515.052	23250.57
515.259	23402.08
515.465	23526.27
515.672	23556.5
515.878	23580.72
516.085	24067.41
516.291	23941.28
516.497	23821.16
516.704	23082.59
516.91	22594.74
517.117	21703.89
517.323	21035.07
517.529	20703.38
517.736	20531.72
517.942	20730.31
518.148	21425.09
518.354	21663.39
518.561	21715.32
518.767	21599.65
518.973	21550.44
519.179	21905.97
519.386	22280.09
519.592	22344.03
519.798	22438
520.004	23359.46
520.21	23316.45
520.417	23612.3
520.623	23709.75
520.829	23693.67
521.035	23797.71
521.241	23626.83
521.447	23764.2
521.653	24123.4
521.859	23907.18
522.065	24126.12
522.271	24288.09
522.477	24219.31
522.683	24390.58
522.889	23929.46
523.095	23844.02
523.301	23719.44
523.507	23375.73
523.713	23567.74
523.919	23559.21
524.125	24214.46
524.331	24510.9
524.537	24933.07
524.742	24959.81
524.948	25028.78
525.154	25134.38
525.36	25042.35
525.566	24662.21
525.772	24970.47
525.977	24882.89
526.183	24583.16
526.389	24773.81
526.595	23991.27
526.8	23684.37
527.006	22937.09
527.212	22314
527.417	22245.8
527.623	22317.1
527.829	22557.54
528.034	23158.15
528.24	23192.64
528.446	23821.74
528.651	24365.01
528.857	24506.25
529.062	24660.28
529.268	25053.2
529.473	25236.09
529.679	25521.29
529.884	25458.71
530.09	25224.27
530.295	24806.17
530.501	25090.4
530.706	25171.19
530.912	25409.3
531.117	25396.32
531.323	25415.89
531.528	25908.2
531.733	25973.5
531.939	25694.5
532.144	25585.81
532.35	25488.74
532.555	25387.6
532.76	24690.5
532.966	24518.07
533.171	24285.96
533.376	23980.03
533.581	23991.27
533.787	24390.39
533.992	24766.45
534.197	24297.39
534.402	25045.06
534.607	24995.46
534.813	24945.08
535.018	24929.97
535.223	25328.9
535.428	25229.89
535.633	25474.4
535.838	25698.37
536.043	25887.86
536.249	26167.63
536.454	25788.47
536.659	25984.54
536.864	25906.65
537.069	25515.67
537.274	25310.88
537.479	25086.71
537.684	24991.78
537.889	24864.1
538.094	25523.23
538.299	25306.62
538.504	25737.51
538.708	25527.3
538.913	25882.82
539.118	25769.09
539.323	25616.23
539.528	25343.62
539.733	25293.05
539.938	25181.65
540.142	25016.58
540.347	24939.66
540.552	24758.12
540.757	24416.74
540.962	24721.89
541.166	24358.03
541.371	24399.49
541.576	24456.26
541.781	24623.08
541.985	25262.64
542.19	24881.73
542.395	25547.44
542.599	25590.26
542.804	25150.07
543.008	25506.37
543.213	25422.87
543.418	25064.24
543.622	25375.59
543.827	25011.73
544.031	25362.03
544.236	25501.14
544.44	25836.32
544.645	25808.23
544.849	25683.07
545.054	25847.37
545.258	25774.52
545.463	25936.88
545.667	25467.81
545.872	25963.42
546.076	25653.04
546.281	25799.7
546.485	25720.07
546.689	25822.57
546.894	25651.87
547.098	25985.12
547.302	25792.54
547.507	25747.78
547.711	25852.79
547.915	25651.49
548.119	25334.52
548.324	25283.95
548.528	25389.54
548.732	25489.71
548.936	25667.96
549.141	25688.3
549.345	25859.96
549.549	25827.8
549.753	26085.67
549.957	25846.2
550.161	26065.33
550.366	26099.04
550.57	25861.9
550.774	25853.37
550.978	25889.6
551.182	25755.72
551.386	25526.33
551.59	25687.72
551.794	25586
551.998	25718.91
552.202	25828.18
552.406	25773.74
552.61	26185.84
552.814	25916.73
553.018	25782.65
553.222	25492.23
553.426	25616.81
553.63	25836.52
553.833	25789.05
554.037	25424.03
554.241	25439.92
554.445	25927
554.649	25893.48
554.853	25604.6
555.056	25907.62
555.26	26086.06
555.464	25843.3
555.668	25963.61
555.871	25944.24
556.075	26083.74
556.279	25878.37
556.483	25780.33
556.686	25484.48
556.89	25639.86
557.094	25525.75
557.297	25172.16
557.501	25225.05
557.704	24811.21
557.908	25182.04
558.112	25158.4
558.315	25247.14
558.519	25074.51
558.722	24834.26
558.926	24833.29
559.129	24267.74
559.333	24548.1
559.536	24478.35
559.74	24203.23
559.943	24098.22
560.147	24406.47
560.35	24174.16
560.553	24684.3
560.757	24565.92
560.96	24642.65
561.164	24928.04
561.367	25112.48
561.57	25040.21
561.774	24892.19
561.977	24623.46
562.18	24751.92
562.384	24748.63
562.587	24607
562.79	24832.52
562.993	24585.1
563.197	24568.83
563.4	24905.37
563.603	24953.03
563.806	25048.16
564.009	24941.4
564.212	25027.23
564.416	24558.95
564.619	24622.69
564.822	24453.55
565.025	24674.61
565.228	24592.46
565.431	24867.78
565.634	24551.58
565.837	24301.07
566.04	24178.04
566.243	23898.46
566.446	23784.73
566.649	24152.46
566.852	23846.93
567.055	24126.7
567.258	24108.29
567.461	24371.01
567.664	24426.62
567.867	24550.03
568.07	24273.17
568.273	24548.1
568.475	24708.91
568.678	24060.05
568.881	24051.91
569.084	23675.27
569.287	23522.21
569.489	23866.69
569.692	23828.52
569.895	24067.22
570.098	23790.35
570.3	23798.29
570.503	23744.43
570.706	23614.04
570.909	23550.49
571.111	23180.24
571.314	23015.94
571.516	23102.55
571.719	23190.7
571.922	23130.06
572.124	23406.93
572.327	23671.58
572.529	23693.09
572.732	23807.79
572.935	23949.03
573.137	24328.39
573.34	23843.83
573.542	24257.67
573.745	24089.69
573.947	24124.18
574.15	23927.14
574.352	23982.55
574.554	24239.26
574.757	23925.01
574.959	23512.71
575.162	24057.53
575.364	23612.1
575.566	23709.56
575.769	23414.48
575.971	23495.27
576.173	22941.93
576.376	23248.63
576.578	23464.08
576.78	23403.44
576.982	23339.11
577.185	23556.69
577.387	23460.01
577.589	23681.85
577.791	23505.35
577.993	23571.8
578.196	23474.74
578.398	23178.11
578.6	23091.51
578.802	23087.05
579.004	22872.57
579.206	23008.78
579.408	23243.98
579.61	23000.83
579.812	23454.39
580.014	23066.71
580.216	23211.05
580.418	23490.82
580.62	23471.25
580.822	23415.84
581.024	23362.56
581.226	23465.05
581.428	23392.39
581.63	23794.03
581.832	23530.15
582.034	23714.4
582.236	23719.44
582.438	23925.2
582.64	23787.64
582.841	23922.49
583.043	24209.23
583.245	23798.1
583.447	24058.88
583.649	23938.76
583.85	23782.41
584.052	23988.55
584.254	23744.43
584.456	23764
584.657	23794.23
584.859	24074.19
585.061	23585.56
585.262	23752.76
585.464	23485.2
585.666	23560.76
585.867	23216.08
586.069	23083.95
586.27	23082.59
586.472	23145.75
586.674	23137.81
586.875	23126.96
587.077	23312.38
587.278	23232.17
587.48	23217.83
587.681	23445.68
587.883	23342.21
588.084	22965.18
588.285	23081.62
588.487	22702.27
588.688	22847.58
588.89	22034.61
589.091	21633.94
589.292	21228.04
589.494	20634.21
589.695	20377.88
589.896	20132.98
590.098	20278.68
590.299	20320.14
590.5	20635.76
590.702	21059.48
590.903	21408.42
591.104	21590.74
591.305	21936.97
591.507	21852.3
591.708	22016.4
591.909	21876.9
592.11	21931.35
592.311	22174.31
592.512	21782.16
592.714	21722.29
592.915	22079.95
593.116	21838.54
593.317	22137.49
593.518	22101.46
593.719	22173.72
593.92	22201.04
594.121	22156.67
594.322	22203.76
594.523	22054.76
594.724	21809.29
594.925	21962.93
595.126	21722.87
595.327	21647.51
595.528	21876.9
595.729	21849.39
595.929	21869.93
596.13	21966.8
596.331	22330.08
596.532	22021.63
596.733	22351.2
596.934	22266.34
597.135	22336.47
597.335	22249.67
597.536	22180.7
597.737	22149.31
597.938	22084.99
598.138	22158.81
598.339	22192.52
598.54	22248.51
598.74	21885.82
598.941	21874.19
599.142	22176.44
599.342	22091.58
599.543	21962.93
599.744	22117.15
599.944	22075.11
600.145	22142.34
600.345	22088.28
600.546	22027.83
600.746	22153.19
600.947	22411.26
601.147	21775.57
601.348	22193.49
601.548	21992.76
601.749	21930.57
601.949	21792.62
602.15	21842.22
602.35	21543.85
602.551	21619.22
602.751	21632.39
602.951	21790.3
603.152	21680.83
603.352	21824.2
603.552	21852.69
603.753	21953.82
603.953	22327.37
604.153	22081.69
604.354	22208.21
604.554	22046.05
604.754	22228.36
604.954	22151.44
605.155	22266.53
605.355	22106.3
605.555	22157.64
605.755	22131.29
605.955	21979.4
606.155	22035.97
606.356	22086.15
606.556	21957.5
606.756	22078.98
606.956	21923.4
607.156	22021.44
607.356	21916.62
607.556	21971.65
607.756	21970.1
607.956	21959.25
608.156	21925.34
608.356	21597.13
608.556	21858.11
608.756	21573.11
608.956	21655.84
609.156	21535.13
609.356	21559.55
609.556	21398.15
609.755	21509.37
609.955	21376.84
610.155	21331.89
610.355	21472.36
610.555	21135.82
610.755	21016.67
610.954	20964.35
611.154	21169.53
611.354	21182.71
611.554	21045.53
611.753	21362.5
611.953	21170.11
612.153	21167.79
612.352	21195.11
612.552	20989.93
612.752	20943.43
612.951	21197.43
613.151	20770.41
613.351	20947.69
613.55	21006.98
613.75	20877.75
613.949	20579.77
614.149	20667.92
614.348	20592.36
614.548	20580.93
614.747	20510.21
614.947	20725.08
615.146	20504.4
615.346	20803.35
615.545	20823.5
615.745	20650.87
615.944	20578.02
616.144	20628.2
616.343	20185.49
616.542	20340.1
616.742	19951.64
616.941	20041.15
617.14	19821.44
617.34	20028.36
617.539	20005.31
617.738	20055.1
617.938	20328.09
618.137	20183.75
618.336	20367.61
618.535	20562.72
618.734	20471.07
618.934	20379.82
619.133	20418.18
619.332	20678.77
619.531	20195.95
619.73	20545.47
619.929	20433.29
620.128	20530.55
620.328	20580.35
620.527	20442.59
620.726	20605.34
620.925	20532.1
621.124	20648.74
621.323	20431.16
621.522	20192.08
621.721	20475.53
621.92	20158.37
622.119	20159.72
622.318	20104.89
622.517	20075.05
622.715	20043.28
622.914	19929.74
623.113	20032.43
623.312	19629.44
623.511	19902.43
623.71	19677.68
623.909	19575.19
624.107	19865.42
624.306	19626.72
624.505	19601.15
624.704	19518.42
624.902	19306.07
625.101	19561.04
625.3	19240.78
625.499	19274.3
625.697	19444.21
625.896	19154.76
626.095	19062.73
626.293	19022.04
626.492	19203.58
626.69	19196.99
626.889	19460.29
627.088	19382.6
627.286	19393.26
627.485	19171.61
627.683	19140.61
627.882	19014.48
628.08	18847.47
628.279	18636.09
628.477	18679.69
628.676	18498.34
628.874	18702.36
629.073	18616.91
629.271	18705.65
629.469	18691.31
629.668	18693.64
629.866	18509.77
630.065	18616.14
630.263	18494.66
630.461	18410.18
630.66	18626.99
630.858	18480.32
631.056	18582.81
631.254	18679.88
631.453	18519.46
631.651	18541.35
631.849	18405.92
632.047	18354.58
632.245	18312.73
632.444	18277.08
632.642	18538.45
632.84	18813.18
633.038	18549.3
633.236	18331.14
633.434	18597.73
633.632	18617.88
633.83	18372.79
634.028	18648.88
634.227	18406.5
634.425	18712.82
634.623	18341.02
634.821	18552.01
635.019	18588.43
635.216	18710.88
635.414	18803.69
635.612	18548.33
635.81	18509.77
636.008	18624.08
636.206	18519.07
636.404	18399.53
636.602	18532.63
636.8	18311.95
636.997	18602.19
637.195	18510.35
637.393	18547.55
637.591	18702.74
637.789	18628.34
637.986	18752.73
638.184	18673.1
638.382	18750.4
638.58	18640.55
638.777	18788.19
638.975	18671.94
639.173	18668.06
639.37	18512.1
639.568	18616.14
639.765	18508.41
639.963	18311.18
640.161	18224.96
640.358	18520.43
640.556	18077.91
640.753	18328.62
640.951	18177.69
641.148	18179.04
641.346	18189.7
641.543	18095.35
641.741	18080.04
641.938	17867.5
642.136	18033.35
642.333	17902.37
642.531	18175.17
642.728	18117.63
642.925	18276.31
643.123	18068.41
643.32	18069.77
643.517	17882.03
643.715	17942.67
643.912	18068.8
644.109	18033.93
644.306	18066.67
644.504	17907.41
644.701	18050.59
644.898	17957.59
645.095	17858.2
645.293	17870.21
645.49	17760.36
645.687	17733.81
645.884	17772.17
646.081	17441.64
646.278	17497.05
646.475	17436.41
646.672	17397.47
646.87	17251.96
647.067	17230.46
647.264	17362.01
647.461	17112.66
647.658	16972
647.855	17065.77
648.052	16995.64
648.249	16904.19
648.446	16960.96
648.642	17203.91
648.839	16768.18
649.036	16920.66
649.233	16909.22
649.43	16820.29
649.627	16429.12
649.824	16542.07
650.021	16306.09
650.217	16575.79
650.414	16710.44
650.611	16680.02
650.808	17014.62
651.004	16933.06
651.201	16944.87
651.398	17167.68
651.595	16852.26
651.791	16710.44
651.988	16886.17
652.185	16498.87
652.381	16939.64
652.578	16634.68
652.775	16817
652.971	16904.57
653.168	16728.46
653.364	17054.34
653.561	16743.38
653.757	16908.45
653.954	17066.16
654.15	16690.29
654.347	16985.37
654.543	16943.32
654.74	16613.95
654.936	16626.16
655.133	16504.29
655.329	16526.77
655.525	16158.26
655.722	16197.2
655.918	15888.95
656.115	15277.68
656.311	14920.6
656.507	14431.39
656.704	14111.51
656.9	14295.38
657.096	14540.66
657.292	14562.56
657.489	14791.37
657.685	15058.16
657.881	15162.59
658.077	15400.71
658.273	15642.12
658.47	15890.31
658.666	15818.04
658.862	16099.17
659.058	16173.95
659.254	16292.53
659.45	16365.76
659.646	16190.23
659.842	16185
660.038	16488.41
660.234	16242.54
660.43	16329.92
660.626	16476.78
660.822	16399.67
661.018	16536.84
661.214	16502.36
661.41	16340.96
661.606	16524.64
661.802	16664.13
661.998	16447.72
662.194	16504.29
662.39	16522.89
662.586	16536.26
662.781	16524.64
662.977	16709.86
663.173	16366.73
663.369	16552.54
663.564	16343.48
663.76	16406.45
663.956	16367.7
664.152	16241.18
664.347	16109.05
664.543	16333.99
664.739	16194.1
664.934	16062.36
665.13	16267.15
665.326	16166.98
665.521	16322.75
665.717	16159.42
665.912	16233.05
666.108	15939.33
666.304	16194.68
666.499	16070.69
666.695	15850.59
666.89	16144.31
667.086	15992.03
667.281	16009.08
667.477	16158.26
667.672	15977.11
667.867	15882.75
668.063	15879.65
668.258	15794.21
668.454	15929.83
668.649	15870.74
668.844	16036.78
669.04	15960.25
669.235	15858.34
669.43	15959.48
669.626	15835.28
669.821	15845.75
670.016	15786.85
670.211	15851.36
670.407	15509.98
670.602	15902.32
670.797	15623.32
670.992	15862.41
671.187	15708.57
671.382	15750.04
671.578	15482.28
671.773	15607.82
671.968	15329.02
672.163	15474.14
672.358	15482.28
672.553	15288.53
672.748	15508.82
672.943	15495.45
673.138	15432.29
673.333	15506.49
673.528	15240.48
673.723	15488.67
673.918	15201.15
674.113	15302.29
674.308	15445.27
674.503	15268.96
674.698	15406.91
674.892	15120.36
675.087	15256.17
675.282	15197.66
675.477	15180.03
675.672	15294.34
675.867	15061.84
676.061	15175.38
676.256	15008.95
676.451	15189.72
676.646	15211.42
676.84	15029.1
677.035	14941.92
677.23	15152.91
677.424	15068.43
677.619	14967.68
677.814	15184.29
678.008	14986.48
678.203	15061.84
678.397	14895.8
678.592	14802.22
678.787	15018.83
678.981	14957.22
679.176	14886.89
679.37	14833.22
679.565	14890.57
679.759	14883.21
679.954	14854.73
680.148	14750.88
680.342	14834.77
680.537	14741.58
680.731	14622.43
680.926	14808.81
681.12	14603.83
681.314	14660.59
681.509	14653.43
681.703	14660.21
681.897	14467.62
682.092	14584.84
682.286	14644.32
682.48	14572.83
682.674	14459.1
682.869	14495.13
683.063	14659.24
683.257	14497.46
683.451	14329.67
683.645	14462.39
683.839	14305.46
684.034	14300.61
684.228	14115
684.422	13999.53
684.616	14142.71
684.81	14090.4
685.004	14040.6
685.198	14121.01
685.392	14011.54
685.586	14138.64
685.78	13888.9
685.974	13902.66
686.168	13878.05
686.362	13913.7
686.556	13288.28
686.75	12948.64
686.944	12434.05
687.138	11784.03
687.331	11257.42
687.525	10957.89
687.719	10830.02
687.913	10827.69
688.107	10955.37
688.301	11053.99
688.494	11221.19
688.688	11091.77
688.882	11057.67
689.076	11101.46
689.269	11144.66
689.463	11295.01
689.657	11281.26
689.85	11319.81
690.044	11463.18
690.238	11492.63
690.431	11541.26
690.625	11601.91
690.818	11791.97
691.012	11714.47
691.205	11987.27
691.399	11947.55
691.593	11957.43
691.786	12014.78
691.98	12172.69
692.173	12269.95
692.366	12233.72
692.56	12365.27
692.753	12179.08
692.947	12187.02
693.14	12039.19
693.333	12145.56
693.527	12152.34
693.72	12166.68
693.914	12034.35
694.107	11899.89
694.3	11923.91
694.493	11777.25
694.687	11966.73
694.88	11760
695.073	11965.57
695.266	11925.85
695.46	11876.83
695.653	11797.01
695.846	11865.79
696.039	11937.48
696.232	11901.83
696.425	12117.47
696.618	12078.53
696.812	12228.87
697.005	12327.1
697.198	12507.68
697.391	12322.07
697.584	12480.16
697.777	12540.61
697.97	12393.95
698.163	12375.73
698.356	12270.92
698.549	12403.05
698.742	12338.73
698.935	12085.31
699.127	12155.25
699.32	11994.44
699.513	12064.38
699.706	11891.56
699.899	12010.33
700.092	11911.13
700.285	11823.36
700.477	11655.96
700.67	11778.02
700.863	11618.96
701.056	11832.08
701.248	11785.97
701.441	11776.47
701.634	11610.63
701.826	11686.77
702.019	11529.83
702.212	11638.91
702.404	11549.01
702.597	11409.32
702.79	11485.46
702.982	11443.23
703.175	11574.39
703.367	11617.99
703.56	11614.89
703.752	11725.91
703.945	11703.24
704.137	11668.56
704.33	11676.11
704.522	11741.4
704.715	11677.27
704.907	11726.49
705.1	11861.33
705.292	11731.91
705.484	11730.75
705.677	11745.47
705.869	11747.02
706.061	11787.52
706.254	11771.44
706.446	11639.11
706.638	11643.95
706.831	11716.61
707.023	11612.37
707.215	11782.87
707.407	11770.47
707.599	11604.62
707.792	11734.04
707.984	11726.68
708.176	11693.36
708.368	11664.87
708.56	11630.39
708.752	11664.1
708.944	11502.9
709.136	11652.67
709.329	11500.96
709.521	11679.79
709.713	11572.46
709.905	11563.93
710.097	11655.77
710.289	11545.91
710.481	11623.61
710.672	11462.6
710.864	11648.99
711.056	11567.23
711.248	11499.61
711.44	11476.55
711.632	11491.47
711.824	11520.92
712.016	11370.19
712.207	11474.81
712.399	11345.77
712.591	11431.99
712.783	11435.48
712.975	11293.27
713.166	11293.07
713.358	11233.59
713.55	11305.09
713.741	11292.88
713.933	11308.96
714.125	11160.36
714.316	11045.08
714.508	11181.67
714.7	11062.13
714.891	11077.05
715.083	11009.04
715.274	10886.79
715.466	11035.58
715.657	10907.9
715.849	10740.31
716.04	10721.91
716.232	10649.64
716.423	10413.46
716.615	10259.63
716.806	9988.19
716.998	9756.85
717.189	9477.47
717.381	9353.86
717.572	9068.86
717.763	8914.83
717.955	8780.75
718.146	8597.08
718.337	8449.45
718.528	8252.6
718.72	7978.64
718.911	7945.32
719.102	7857.35
719.293	7874.02
719.485	7794.19
719.676	7663.8
719.867	7653.34
720.058	7633.19
720.249	7522.95
720.44	7602.38
720.632	7756.22
720.823	7771.91
721.014	8129.18
721.205	8219.66
721.396	8418.06
721.587	8629.05
721.778	8760.6
721.969	8919.67
722.16	8996.01
722.351	9093.85
722.542	9264.15
722.733	9206.8
722.924	9099.86
723.115	9161.08
723.305	8927.81
723.496	8992.91
723.687	8614.71
723.878	8607.54
724.069	8501.76
724.26	8478.9
724.45	8223.92
724.641	8207.65
724.832	8223.92
725.023	8119.3
725.213	8068.15
725.404	8086.56
725.595	7967.4
725.785	7946.28
725.976	8162.89
726.167	8037.54
726.357	8049.75
726.548	8217.53
726.739	7951.32
726.929	8183.82
727.12	8149.91
727.31	8179.94
727.501	7982.32
727.691	7960.62
727.882	7975.35
728.072	8051.88
728.263	8041.8
728.453	8208.81
728.644	8141.19
728.834	8019.52
729.024	7966.43
729.215	7938.92
729.405	7911.8
729.596	8013.9
729.786	8005.57
729.976	8033.28
730.167	8132.28
730.357	8082.29
730.547	8019.91
730.737	8020.68
730.928	8046.84
731.118	8107.48
731.308	7980.58
731.498	8029.6
731.688	8198.16
731.879	8144.1
732.069	8250.85
732.259	8285.54
732.449	8424.65
732.639	8439.76
732.829	8488.58
733.019	8539.34
733.209	8680
733.399	8672.84
733.589	8789.47
733.779	8865.23
733.969	8855.35
734.159	9059.36
734.349	8961.71
734.539	9007.24
734.729	9048.9
734.919	9006.08
735.109	9176
735.299	8922.38
735.488	8992.33
735.678	8946.21
735.868	8921.61
736.058	8882.08
736.248	8882.47
736.437	8770.68
736.627	8760.02
736.817	8917.15
737.007	8796.45
737.196	8852.63
737.386	8849.15
737.576	8778.43
737.765	8961.33
737.955	8779.4
738.144	9058.39
738.334	8852.05
738.524	8762.35
738.713	8814.27
738.903	8780.56
739.092	8792.77
739.282	8696.28
739.471	8761.38
739.661	8769.9
739.85	8886.73
740.04	8801.1
740.229	8889.64
740.419	8859.41
740.608	8844.69
740.797	8793.35
740.987	8838.88
741.176	8815.24
741.365	8776.3
741.555	8607.93
741.744	8810.98
741.933	8767.19
742.123	8740.65
742.312	8709.07
742.501	8790.63
742.69	8830.16
742.88	8652.69
743.069	8862.9
743.258	8776.49
743.447	8795.87
743.636	8817.57
743.825	8769.32
744.014	8825.32
744.204	8803.23
744.393	8687.17
744.582	8887.7
744.771	8834.62
744.96	8671.09
745.149	8750.34
745.338	8692.6
745.527	8801.87
745.716	8709.65
745.905	8651.91
746.094	8787.34
746.283	8779.2
746.471	8614.71
746.66	8710.62
746.849	8733.67
747.038	8721.85
747.227	8622.27
747.416	8707.52
747.604	8542.44
747.793	8563.95
747.982	8611.03
748.171	8693.76
748.359	8638.74
748.548	8611.22
748.737	8581
748.926	8587.59
749.114	8358.77
749.303	8525.01
749.491	8468.43
749.68	8360.71
749.869	8477.93
750.057	8398.88
750.246	8356.45
750.434	8409.53
750.623	8341.14
750.811	8297.35
751	8387.83
751.188	8304.14
751.377	8255.89
751.565	8211.14
751.754	8221.41
751.942	8164.64
752.131	8278.75
752.319	8153.01
752.507	8217.14
752.696	8241.75
752.884	8182.27
753.072	8126.47
753.261	8193.31
753.449	8189.05
753.637	8016.23
753.825	8188.47
754.014	8131.7
754.202	8098.76
754.39	8153.59
754.578	8122.01
754.766	8029.6
754.955	8001.89
755.143	8097.02
755.331	8020.49
755.519	8012.93
755.707	8011
755.895	7946.48
756.083	7962.75
756.271	7846.5
756.459	7932.92
756.647	7918.19
756.835	7893
757.023	7833.72
757.211	7810.27
757.399	7804.07
757.587	7819.77
757.775	7722.12
757.963	7708.17
758.151	7783.92
758.339	7715.73
758.526	7628.93
758.714	7639
758.902	7449.32
759.09	7300.91
759.278	6926.21
759.465	6540.65
759.653	5885.39
759.841	5309.38
760.028	4750.62
760.216	4184.68
760.404	3880.5
760.591	3332
760.779	2905.37
760.967	2626.76
761.154	2417.13
761.342	2439.79
761.529	2433.59
761.717	2593.05
761.905	2650.2
762.092	2819.93
762.28	2803.26
762.467	2801.33
762.655	2761.41
762.842	2827.09
763.029	2879.21
763.217	2864.49
763.404	2906.34
763.592	2953.42
763.779	2933.66
763.966	3016.77
764.154	3091.17
764.341	3206.45
764.528	3178.36
764.716	3357.19
764.903	3451.54
765.09	3634.44
765.277	3678.81
765.465	3949.09
765.652	4068.82
765.839	4222.08
766.026	4460.77
766.213	4590.97
766.4	4732.99
766.588	4964.13
766.775	5093.55
766.962	5239.44
767.149	5408.58
767.336	5624.42
767.523	5609.89
767.71	5794.33
767.897	5985.37
768.084	6049.5
768.271	6159.35
768.458	6208.37
768.645	6368.79
768.832	6371.31
769.019	6437.19
769.206	6485.04
769.392	6573.39
769.579	6619.5
769.766	6573.78
769.953	6599.35
770.14	6654.57
770.327	6622.8
770.513	6681.7
770.7	6764.43
770.887	6681.89
771.073	6771.01
771.26	6745.83
771.447	6664.84
771.634	6611.75
771.82	6777.41
772.007	6613.88
772.193	6720.45
772.38	6681.11
772.567	6662.71
772.753	6632.68
772.94	6688.48
773.126	6682.47
773.313	6704.36
773.499	6661.16
773.686	6684.41
773.872	6538.13
774.059	6681.11
774.245	6627.45
774.432	6638.68
774.618	6478.26
774.804	6501.12
774.991	6467.8
775.177	6554.6
775.363	6500.54
775.55	6562.54
775.736	6432.34
775.922	6547.24
776.109	6443.77
776.295	6437.57
776.481	6571.65
776.667	6480.78
776.853	6430.6
777.04	6444.36
777.226	6481.17
777.412	6483.88
777.598	6354.26
777.784	6409.48
777.97	6306.41
778.156	6374.8
778.342	6401.73
778.528	6359.69
778.715	6238.01
778.901	6230.07
779.087	6252.16
779.272	6213.8
779.458	6243.05
779.644	6265.14
779.83	6221.35
780.016	6310.86
780.202	6239.95
780.388	6255.45
780.574	6096
780.76	6144.24
780.946	6227.36
781.131	6176.4
781.317	6063.84
781.503	6057.44
781.689	6073.33
781.874	6192.48
782.06	6045.24
782.246	6161.1
782.432	6035.94
782.617	6029.93
782.803	6117.7
782.989	6015.01
783.174	5977.62
783.36	5911.74
783.545	5966.77
783.731	5959.02
783.916	5853.23
784.102	5961.93
784.288	5888.3
784.473	5932.09
784.659	5791.23
784.844	5885.2
785.029	5819.52
785.215	5803.63
785.4	5730.4
785.586	5852.07
785.771	5720.9
785.956	5810.03
786.142	5726.52
786.327	5764.11
786.512	5729.82
786.698	5721.1
786.883	5640.69
787.068	5705.79
787.254	5678.67
787.439	5655.61
787.624	5607.95
787.809	5596.13
787.994	5556.22
788.18	5664.52
788.365	5551.37
788.55	5560.29
788.735	5554.09
788.92	5549.63
789.105	5493.25
789.29	5519.41
789.475	5459.93
789.66	5433.38
789.845	5401.03
790.03	5384.36
790.215	5415.56
790.4	5482.4
790.585	5410.13
790.77	5403.16
790.955	5319.65
791.14	5404.71
791.325	5452.56
791.51	5281.68
791.695	5369.25
791.879	5386.88
792.064	5271.99
792.249	5427.57
792.434	5316.94
792.618	5340.58
792.803	5383.4
792.988	5313.45
793.173	5326.43
793.357	5349.49
793.542	5297.57
793.727	5318.1
793.911	5382.04
794.096	5336.9
794.281	5418.66
794.465	5474.07
794.65	5351.82
794.834	5415.17
795.019	5383.4
795.203	5426.41
795.388	5403.35
795.572	5486.47
795.757	5449.85
795.941	5380.88
796.126	5387.27
796.31	5354.14
796.494	5402.96
796.679	5372.93
796.863	5312.87
797.048	5466.71
797.232	5346.39
797.416	5473.1
797.601	5471.36
797.785	5520.38
797.969	5518.63
798.153	5454.89
798.338	5512.24
798.522	5526.19
798.706	5530.06
798.89	5508.17
799.074	5610.08
799.258	5580.05
799.443	5497.9
799.627	5466.71
799.811	5575.79
799.995	5437.65
800.179	5396.18
800.363	5398.9
800.547	5443.46
800.731	5460.12
800.915	5347.94
801.099	5358.02
801.283	5408
801.467	5417.3
801.651	5372.16
801.835	5463.22
802.019	5452.18
802.202	5451.79
802.386	5405.87
802.57	5370.8
802.754	5394.63
802.938	5343.29
803.121	5404.13
803.305	5444.23
803.489	5407.61
803.673	5386.11
803.856	5411.3
804.04	5339.42
804.224	5396.18
804.407	5316.55
804.591	5369.06
804.775	5347.75
804.958	5373.13
805.142	5476.59
805.326	5383.98
805.509	5413.23
805.693	5422.73
805.876	5355.69
806.06	5423.31
806.243	5489.38
806.427	5448.88
806.61	5466.32
806.794	5387.08
806.977	5417.3
807.16	5401.61
807.344	5447.72
807.527	5371.38
807.71	5330.12
807.894	5381.85
808.077	5305.51
808.26	5261.72
808.444	5303.77
808.627	5390.95
808.81	5256.69
808.993	5219.1
809.177	5154.19
809.36	5216.58
809.543	5220.07
809.726	5154.39
809.909	5109.44
810.092	5109.05
810.276	5126.49
810.459	5011.98
810.642	5086.19
810.825	4999
811.008	5092.58
811.191	4885.08
811.374	4950.76
811.557	4970.13
811.74	4951.15
811.923	4857.18
812.106	4834.32
812.289	4825.21
812.472	4795.37
812.654	4758.17
812.837	4714.58
813.02	4620.61
813.203	4648.32
813.386	4394.7
813.569	4426.87
813.751	4284.27
813.934	4343.17
814.117	4264.51
814.3	4214.33
814.482	4131.6
814.665	4053.13
814.848	4044.6
815.03	3879.92
815.213	3891.15
815.396	3868.87
815.578	3832.26
815.761	3791.76
815.943	3825.47
816.126	3711.55
816.309	3660.98
816.491	3597.63
816.674	3462.39
816.856	3546.48
817.039	3516.06
817.221	3598.4
817.403	3579.03
817.586	3554.81
817.768	3592.98
817.951	3450.19
818.133	3413.76
818.315	3493.39
818.498	3548.22
818.68	3582.13
818.862	3563.72
819.045	3602.28
819.227	3596.66
819.409	3556.94
819.591	3585.03
819.774	3545.7
819.956	3530.01
820.138	3680.94
820.32	3572.83
820.502	3731.89
820.684	3907.04
820.866	3850.66
821.048	3945.99
821.231	3900.84
821.413	3941.53
821.595	3902
821.777	3943.85
821.959	3911.5
822.141	3991.52
822.323	3787.69
822.505	3667.18
822.686	3591.43
822.868	3388.38
823.05	3228.35
823.232	3157.43
823.414	3052.81
823.596	3188.82
823.778	3107.83
823.96	3212.85
824.141	3216.72
824.323	3258.76
824.505	3402.52
824.687	3474.02
824.868	3591.62
825.05	3672.8
825.232	3739.26
825.413	3854.15
825.595	3749.91
825.777	3728.41
825.958	3752.63
826.14	3703.22
826.321	3783.43
826.503	3758.44
826.685	3778.59
826.866	3830.51
827.048	3803.39
827.229	3718.72
827.411	3665.63
827.592	3614.48
827.773	3564.11
827.955	3495.91
828.136	3451.35
828.318	3448.05
828.499	3481.77
828.68	3397.49
828.862	3424.22
829.043	3442.63
829.224	3400.78
829.406	3380.24
829.587	3359.12
829.768	3441.66
829.949	3449.02
830.131	3413.57
830.312	3505.6
830.493	3423.45
830.674	3435.27
830.855	3391.87
831.036	3405.62
831.218	3480.22
831.399	3542.99
831.58	3458.9
831.761	3421.12
831.942	3428.87
832.123	3430.04
832.304	3328.71
832.485	3355.83
832.666	3370.36
832.847	3429.84
833.028	3370.75
833.209	3352.73
833.389	3399.23
833.57	3234.16
833.751	3294.99
833.932	3348.08
834.113	3382.18
834.294	3345.95
834.475	3444.76
834.655	3424.22
834.836	3402.33
835.017	3457.94
835.198	3370.75
835.378	3396.32
835.559	3478.28
835.74	3432.56
835.92	3440.3
836.101	3423.26
836.281	3462.78
836.462	3424.81
836.643	3477.31
836.823	3490.1
837.004	3515.09
837.184	3532.14
837.365	3474.21
837.545	3471.69
837.726	3419.19
837.906	3552.87
838.087	3472.66
838.267	3466.27
838.448	3424.03
838.628	3449.22
838.808	3470.14
838.989	3466.46
839.169	3399.81
839.349	3455.03
839.53	3510.44
839.71	3478.67
839.89	3363.97
840.07	3486.22
840.251	3412.6
840.431	3507.15
840.611	3421.71
840.791	3427.13
840.971	3437.01
841.151	3413.57
841.332	3382.76
841.512	3476.15
841.692	3363.58
841.872	3410.27
842.052	3350.02
842.232	3427.13
842.412	3310.88
842.592	3329.48
842.772	3392.06
842.952	3425.58
843.132	3332.97
843.312	3329.68
843.492	3301.58
843.672	3363.97
843.851	3259.93
844.031	3286.47
844.211	3338.01
844.391	3276.78
844.571	3279.49
844.751	3294.61
844.93	3274.65
845.11	3249.46
845.29	3284.14
845.47	3271.94
845.649	3261.48
845.829	3345.56
846.009	3240.75
846.188	3311.85
846.368	3296.54
846.547	3259.15
846.727	3231.06
846.907	3214.2
847.086	3214.59
847.266	3290.93
847.445	3266.51
847.625	3199.09
847.804	3156.85
847.984	3214.2
848.163	3208.39
848.343	3160.92
848.522	3137.87
848.701	3160.73
848.881	3157.82
849.06	3169.45
849.239	3089.43
849.419	3117.72
849.598	3025.1
849.777	3005.54
849.957	3009.8
850.136	2911.18
850.315	2876.5
850.494	2910.99
850.674	2927.65
850.853	2979.57
851.032	2930.56
851.211	2999.34
851.39	2989.84
851.569	2877.08
851.748	2915.83
851.927	2971.63
852.107	2945.67
852.286	2919.12
852.465	2908.86
852.644	2955.74
852.823	2951.48
853.002	2985
853.181	2917.38
853.359	2932.3
853.538	2843.18
853.717	2928.81
853.896	2741.26
854.075	2665.51
854.254	2599.64
854.433	2449.68
854.611	2504.12
854.79	2420.23
854.969	2501.41
855.148	2545.39
855.327	2535.89
855.505	2637.61
855.684	2621.14
855.863	2663.57
856.041	2656.21
856.22	2746.69
856.399	2720.53
856.577	2835.23
856.756	2754.05
856.934	2901.69
857.113	2895.29
857.291	2822.25
857.47	2794.55
857.648	2804.43
857.827	2840.27
858.005	2856.35
858.184	2806.75
858.362	2853.64
858.541	2743.59
858.719	2778.66
858.898	2762.96
859.076	2763.35
859.254	2833.88
859.433	2751.73
859.611	2732.35
859.789	2642.07
859.967	2801.52
860.146	2800.36
860.324	2688.37
860.502	2692.63
860.68	2665.51
860.859	2647.1
861.037	2719.37
861.215	2696.51
861.393	2686.63
861.571	2707.17
861.749	2658.73
861.927	2682.37
862.105	2659.31
862.283	2647.88
862.461	2649.24
862.639	2619.59
862.817	2646.14
862.995	2641.1
863.173	2613.39
863.351	2628.31
863.529	2655.82
863.707	2670.16
863.885	2657.18
864.063	2540.54
864.241	2561.47
864.418	2596.92
864.596	2604.67
864.774	2524.66
864.952	2568.64
865.129	2581.42
865.307	2530.66
865.485	2467.31
865.663	2497.53
865.84	2408.6
866.018	2400.27
866.196	2245.08
866.373	2245.66
866.551	2165.06
866.728	2151.5
866.906	2203.62
867.084	2255.93
867.261	2261.74
867.439	2291.97
867.616	2359.58
867.794	2328.97
867.971	2370.43
868.149	2330.91
868.326	2442.12
868.503	2412.67
868.681	2358.61
868.858	2370.24
869.035	2342.34
869.213	2368.5
869.39	2335.95
869.567	2402.98
869.745	2334.59
869.922	2338.85
870.099	2313.86
870.276	2373.15
870.454	2363.26
870.631	2344.86
870.808	2362.3
870.985	2369.27
871.162	2398.33
871.339	2386.13
871.517	2256.9
871.694	2279.76
871.871	2336.33
872.048	2281.5
872.225	2325.68
872.402	2318.31
872.579	2247.21
872.756	2343.31
872.933	2260.77
873.11	2295.65
873.287	2296.03
873.463	2253.41
873.64	2259.22
873.817	2257.67
873.994	2252.83
874.171	2190.25
874.348	2245.08
874.524	2151.69
874.701	2196.25
874.878	2119.72
875.055	2159.05
875.231	2174.75
875.408	2204.78
875.585	2120.69
875.762	2174.36
875.938	2145.3
876.115	2141.42
876.291	2129.02
876.468	2115.07
876.645	2092.6
876.821	2081.75
876.998	2123.79
877.174	2164.09
877.351	2095.12
877.527	2086.21
877.704	2123.79
877.88	2114.3
878.057	2065.67
878.233	2118.95
878.409	2100.54
878.586	2086.4
878.762	2043.39
878.938	2057.92
879.115	1979.84
879.291	2062.37
879.467	1961.82
879.644	2040.48
879.82	2038.74
879.996	2029.05
880.172	1996.31
880.349	2015.68
880.525	2032.73
880.701	1986.62
880.877	1923.65
881.053	1983.71
881.229	1945.35
881.405	2049.78
881.581	1972.67
881.757	2003.09
881.933	2009.48
882.109	1991.46
882.285	1987.98
882.461	1957.75
882.637	1968.41
882.813	1971.89
882.989	2005.61
883.165	2011.03
883.341	1973.83
883.517	2028.28
883.693	1954.84
883.869	1995.73
884.044	1940.51
884.22	1998.83
884.396	2036.8
884.572	2009.48
884.747	2005.8
884.923	2023.63
885.099	1993.01
885.275	2043.77
885.45	1972.48
885.626	2022.27
885.801	1957.94
885.977	1967.83
886.153	1875.8
886.328	1990.3
886.504	1918.23
886.679	1939.93
886.855	1917.06
887.03	1947.87
887.206	1997.86
887.381	1952.33
887.557	1954.46
887.732	1960.08
887.908	1974.41
888.083	1987.59
888.258	1941.67
888.434	1934.31
888.609	1921.52
888.784	1989.72
888.96	1928.69
889.135	1942.83
889.31	1938.57
889.485	2001.15
889.661	1958.91
889.836	1974.22
890.011	1958.72
890.186	1959.3
890.361	1944
890.537	1971.7
890.712	1969.18
890.887	1993.79
891.062	1955.43
891.237	1999.79
891.412	1919.2
891.587	1965.5
891.762	1977.32
891.937	1987.2
892.112	1893.04
892.287	1912.41
892.462	1880.64
892.637	1861.46
892.812	1862.04
892.987	1852.16
893.161	1811.47
893.336	1829.3
893.511	1822.52
893.686	1814.57
893.861	1815.54
894.035	1856.03
894.21	1811.08
894.385	1751.22
894.56	1788.8
894.734	1738.82
894.909	1685.92
895.084	1701.81
895.258	1650.47
895.433	1642.52
895.608	1594.86
895.782	1590.79
895.957	1598.35
896.131	1570.64
896.306	1508.06
896.48	1490.05
896.655	1507.29
896.829	1348.22
897.004	1415.45
897.178	1428.43
897.353	1425.33
897.527	1448.78
897.701	1425.33
897.876	1388.13
898.05	1470.86
898.224	1438.7
898.399	1451.68
898.573	1362.95
898.747	1290.49
898.921	1264.14
899.096	1138.01
899.27	1172.88
899.444	1202.33
899.618	1251.16
899.792	1289.13
899.967	1282.74
900.141	1343.57
900.315	1225.77
900.489	1264.14
900.663	1285.84
900.837	1259.87
901.011	1179.66
901.185	1313.93
901.359	1256.19
901.533	1237.21
901.707	1265.88
901.881	1247.28
902.055	1205.24
902.229	1241.47
902.403	1311.02
902.576	1256
902.75	1295.72
902.924	1417.58
903.098	1333.11
903.272	1434.25
903.446	1476.68
903.619	1449.55
903.793	1508.26
903.967	1508.65
904.14	1543.91
904.314	1497.6
904.488	1513.49
904.661	1539.06
904.835	1517.75
905.009	1564.06
905.182	1553.21
905.356	1534.99
905.529	1509.61
905.703	1511.94
905.876	1448.2
906.05	1451.1
906.223	1398.98
906.397	1337.57
906.57	1305.02
906.744	1246.89
906.917	1256.19
907.09	1235.07
907.264	1212.6
907.437	1218.8
907.61	1124.44
907.784	1166.1
907.957	1190.12
908.13	1107.98
908.304	1168.04
908.477	1129.29
908.65	1148.08
908.823	1098.29
908.996	1157.96
909.17	1098.68
909.343	1108.36
909.516	1102.55
909.689	1091.51
909.862	1084.92
910.035	1121.15
910.208	1051.79
910.381	1075.23
910.554	1167.65
910.727	1090.73
910.9	1077.75
911.073	1071.16
911.246	1141.3
911.419	1172.69
911.592	1162.03
911.765	1082.98
911.938	1086.66
912.11	1107.78
912.283	1109.33
912.456	1150.21
912.629	1137.62
912.802	1072.52
912.974	1019.24
913.147	956.27
913.32	905.9
913.493	897.57
913.665	944.07
913.838	990.37
914.01	931.28
914.183	1000.06
914.356	1005.87
914.528	1056.05
914.701	1085.89
914.873	1011.68
915.046	981.65
915.218	919.85
915.391	877.8
915.563	866.57
915.736	928.76
915.908	982.62
916.081	955.11
916.253	958.98
916.425	989.21
916.598	1021.76
916.77	969.83
916.942	945.42
917.115	857.46
917.287	941.16
917.459	869.28
917.632	864.44
917.804	843.9
917.976	897.57
918.148	934.18
918.32	928.37
918.493	966.54
918.665	996.96
918.837	976.03
919.009	1014.2
919.181	1021.56
919.353	1012.46
919.525	975.26
919.697	1005.68
919.869	989.02
920.041	1060.51
920.213	1131.03
920.385	1058.96
920.557	1046.17
920.729	1054.31
920.901	1028.35
921.073	972.16
921.244	951.43
921.416	1018.27
921.588	944.65
921.76	969.06
921.932	1013.23
922.103	1002.77
922.275	984.95
922.447	971
922.619	970.61
922.79	929.53
922.962	921.59
923.134	981.85
923.305	934.38
923.477	902.41
923.648	851.45
923.82	897.37
923.991	828.2
924.163	818.13
924.335	879.94
924.506	835.37
924.677	910.55
924.849	852.42
925.02	876.64
925.192	894.66
925.363	875.29
925.535	868.12
925.706	853.59
925.877	911.32
926.049	829.17
926.22	855.14
926.391	861.72
926.562	922.17
926.734	844.48
926.905	872.57
927.076	811.16
927.247	820.07
927.419	767.76
927.59	743.73
927.761	753.42
927.932	719.13
928.103	733.46
928.274	671.66
928.445	660.42
928.616	669.91
928.787	649.96
928.958	678.83
929.129	636.98
929.3	623.03
929.471	566.06
929.642	530.8
929.813	444.2
929.984	535.45
930.155	454.85
930.326	503.68
930.496	439.55
930.667	437.8
930.838	400.8
931.009	362.24
931.18	401.19
931.35	378.13
931.521	380.45
931.692	316.71
931.863	265.95
932.033	308.38
932.204	307.02
932.374	312.64
932.545	232.43
932.716	318.26
932.886	307.22
933.057	197.36
933.227	188.26
933.398	278.93
933.568	174.5
933.739	136.72
933.909	164.23
934.08	204.73
934.25	124.9
934.421	144.08
934.591	192.71
934.761	162.88
934.932	139.24
935.102	195.43
935.272	184.77
935.443	197.56
935.613	141.18
935.783	170.05
935.953	140.21
936.123	281.45
936.294	135.56
936.464	170.05
936.634	159.97
936.804	129.94
936.974	122.96
937.144	192.13
937.314	160.36
937.484	153.77
937.655	124.71
937.825	174.31
937.995	130.71
938.165	195.62
938.334	185.93
938.504	198.33
938.674	209.38
938.844	232.04
939.014	305.47
939.184	314.77
939.354	344.03
939.524	296.37
939.694	302.18
939.863	271.18
940.033	306.44
940.203	308.77
940.373	287.65
940.542	294.62
940.712	264.4
940.882	304.89
941.051	329.5
941.221	307.02
941.391	311.48
941.56	265.37
941.73	239.99
941.899	379.68
942.069	259.94
942.238	303.54
942.408	229.14
942.577	269.24
942.747	236.5
942.916	215.77
943.086	216.54
943.255	283
943.425	228.75
943.594	223.13
943.763	149.51
943.933	163.46
944.102	144.66
944.271	195.04
944.441	222.16
944.61	195.81
944.779	231.27
944.948	289.39
945.117	170.05
945.287	192.33
945.456	130.52
945.625	160.36
945.794	195.23
945.963	166.17
946.132	203.95
946.301	177.41
946.47	238.24
946.639	152.8
946.808	181.67
946.977	203.76
947.146	251.61
947.315	225.84
947.484	234.56
947.653	203.18
947.822	212.09
947.991	163.26
948.16	279.9
948.329	248.32
948.498	213.64
948.666	211.7
948.835	239.99
949.004	188.45
949.173	162.68
949.341	182.83
949.51	190.39
949.679	201.82
949.847	212.86
950.016	260.33
950.185	227.78
950.353	191.75
950.522	223.52
950.69	263.04
950.859	208.02
951.028	263.43
951.196	269.44
951.365	206.47
951.533	195.43
951.701	221.97
951.87	216.93
952.038	165.2
952.207	188.65
952.375	254.91
952.543	153.58
952.712	184.38
952.88	177.99
953.048	275.25
953.217	213.83
953.385	217.71
953.553	250.84
953.721	161.33
953.89	202.98
954.058	160.55
954.226	193.68
954.394	201.82
954.562	130.52
954.73	171.98
954.898	193.1
955.067	224.68
955.235	181.86
955.403	233.4
955.571	268.08
955.739	230.11
955.907	183.22
956.075	170.05
956.243	168.5
956.41	227.78
956.578	117.93
956.746	157.65
956.914	202.6
957.082	218.68
957.25	227.78
957.418	200.08
957.585	223.13
957.753	273.89
957.921	170.24
958.089	197.17
958.256	193.49
958.424	205.69
958.592	213.25
958.759	170.82
958.927	195.81
959.095	174.7
959.262	199.5
959.43	172.18
959.597	181.86
959.765	209.96
959.932	163.85
960.1	230.49
960.267	196.59
960.435	211.51
960.602	230.49
960.77	185.93
960.937	161.52
961.104	236.11
961.272	175.66
961.439	182.45
961.606	198.33
961.774	234.76
961.941	183.41
962.108	215.58
962.275	212.48
962.443	239.99
962.61	246.19
962.777	270.21
962.944	242.89
963.111	234.76
963.278	262.08
963.446	216.16
963.613	198.53
963.78	244.25
963.947	249.29
964.114	235.14
964.281	291.72
964.448	251.23
964.615	207.24
964.782	234.95
964.949	234.18
965.116	255.68
965.282	273.31
965.449	209.76
965.616	185.35
965.783	279.51
965.95	247.35
966.117	173.92
966.283	221.19
966.45	204.92
966.617	247.74
966.784	250.06
966.95	237.86
967.117	258.78
967.284	219.45
967.45	238.63
967.617	288.43
967.784	255.49
967.95	320.59
968.117	229.33
968.283	292.88
968.45	361.27
968.616	265.37
968.783	300.24
968.949	306.44
969.116	295.59
969.282	270.21
969.449	263.04
969.615	275.44
969.781	218.68
969.948	259.36
970.114	198.53
970.28	331.82
970.447	265.18
970.613	317.68
970.779	281.45
970.945	276.22
971.112	269.63
971.278	272.93
971.444	237.08
971.61	297.34
971.776	235.34
971.942	304.7
972.108	260.72
972.275	261.88
972.441	263.82
972.607	307.8
972.773	228.17
972.939	260.91
973.105	266.92
973.271	207.63
973.437	249.09
973.602	214.8
973.768	235.73
973.934	212.67
974.1	230.11
974.266	167.91
974.432	231.27
974.598	217.13
974.763	268.47
974.929	203.37
975.095	282.81
975.261	212.86
975.426	216.54
975.592	200.85
975.758	288.81
975.923	177.6
976.089	200.85
976.255	246.19
976.42	247.54
976.586	230.69
976.751	246.58
976.917	281.64
977.082	224.49
977.248	171.01
977.413	162.88
977.579	206.47
977.744	227.98
977.91	194.07
978.075	196.78
978.24	258.2
978.406	227.98
978.571	200.66
978.736	176.83
978.902	231.85
979.067	220.42
979.232	175.66
979.397	245.61
979.563	237.66
979.728	187.48
979.893	201.43
980.058	183.41
980.223	289.78
980.388	224.29
980.554	234.76
980.719	197.56
980.884	233.59
981.049	225.65
981.214	195.43
981.379	235.53
981.544	189.61
981.709	191.36
981.874	199.5
982.039	191.55
982.204	244.06
982.368	218.09
982.533	204.14
982.698	223.52
982.863	242.12
983.028	198.14
983.193	229.14
983.357	226.43
983.522	211.12
983.687	211.89
983.852	222.36
984.016	185.55
984.181	203.56
984.346	259.94
984.51	250.64
984.675	210.15
984.839	219.06
985.004	213.06
985.168	257.23
985.333	236.11
985.498	178.18
985.662	236.69
985.827	232.43
985.991	194.07
986.155	188.06
986.32	214.22
986.484	247.16
986.649	221.39
986.813	147.38
986.977	224.1
987.142	220.61
987.306	162.1
987.47	196.59
987.634	200.27
987.799	200.85
987.963	220.42
988.127	211.51
988.291	250.64
988.455	203.18
988.62	201.05
988.784	202.79
988.948	234.76
989.112	168.11
989.276	231.66
989.44	208.99
989.604	169.27
989.768	177.6
989.932	249.48
990.096	173.15
990.26	139.82
990.424	148.54
990.588	205.11
990.752	237.47
990.915	203.37
991.079	151.83
991.243	158.61
991.407	211.89
991.571	180.7
991.734	221.58
991.898	205.11
992.062	267.89
992.226	175.08
992.389	148.54
992.553	133.81
992.717	137.5
992.88	155.13
993.044	174.5
993.207	166.95
993.371	182.25
993.535	181.86
993.698	177.41
993.862	222.55
994.025	161.71
994.189	149.7
994.352	182.06
994.515	200.46
994.679	191.55
994.842	136.91
995.006	194.85
995.169	140.4
995.332	154.74
995.496	193.1
995.659	97.2
995.822	147.57
995.985	153.77
996.149	218.09
996.312	139.05
996.475	225.07
996.638	124.32
996.801	189.81
996.964	219.26
997.128	180.12
997.291	174.7
997.454	173.15
997.617	113.08
997.78	198.14
997.943	113.28
998.106	192.52
998.269	125.48
998.432	144.28
998.595	135.75
998.758	92.16
998.92	116.57
999.083	94.29
999.246	172.95
999.409	122.19
999.572	68.33
999.735	139.43
999.897	140.6
1000.06	121.61
1000.223	108.05
1000.386	151.06
1000.548	155.32
1000.711	154.55
1000.874	155.32
1001.036	111.92
1001.199	173.53
1001.361	114.44
1001.524	153.96
1001.687	160.75
1001.849	100.88
1002.012	133.62
1002.174	141.18
1002.337	147.57
1002.499	116.76
1002.661	140.98
1002.824	106.69
1002.986	125.29
1003.149	122
1003.311	91.19
1003.473	180.31
1003.636	105.92
1003.798	172.37
1003.96	144.08
1004.123	125.87
1004.285	82.08
1004.447	124.32
1004.609	106.5
1004.771	172.37
1004.933	84.22
1005.096	93.52
1005.258	61.55
1005.42	99.13
1005.582	145.05
1005.744	110.57
1005.906	81.12
1006.068	115.22
1006.23	79.18
1006.392	48.18
1006.554	103.78
1006.716	136.33
1006.878	127.03
1007.04	88.28
1007.202	97.78
1007.363	107.47
1007.525	101.65
1007.687	125.29
1007.849	148.73
1008.011	66.58
1008.172	80.15
1008.334	119.67
1008.496	106.3
1008.658	53.6
1008.819	92.16
1008.981	79.57
1009.143	85.18
1009.304	82.28
1009.466	107.47
1009.627	149.9
1009.789	191.36
1009.95	100.68
1010.112	98.55
1010.273	121.41
1010.435	74.14
1010.596	97.97
1010.758	69.49
1010.919	86.15
1011.081	71.82
1011.242	90.22
1011.403	130.33
1011.565	106.69
1011.726	104.75
1011.887	40.62
1012.049	86.15
1012.21	102.82
1012.371	143.31
1012.532	23.19
1012.693	112.5
1012.855	38.1
1013.016	88.28
1013.177	145.63
1013.338	58.64
1013.499	135.36
1013.66	123.35
1013.821	121.03
1013.982	78.02
1014.143	87.7
1014.304	52.25
1014.465	92.55
1014.626	92.74
1014.787	71.82
1014.948	181.67
1015.109	29
1015.27	112.89
1015.431	52.44
1015.592	69.68
1015.752	113.86
1015.913	72.78
1016.074	107.08
1016.235	66.58
1016.395	58.25
1016.556	74.72
1016.717	78.02
1016.877	115.02
1017.038	51.67
1017.199	76.85
1017.359	86.35
1017.52	89.06
1017.681	72.01
1017.841	87.7
1018.002	69.88
1018.162	58.45
1018.323	122.19
1018.483	60
1018.644	69.49
1018.804	41.78
1018.964	17.18
1019.125	75.5
1019.285	72.2
1019.446	50.12
1019.606	20.67
1019.766	20.47
1019.926	81.5
1020.087	90.8
1020.247	34.23
1020.407	52.05
1020.567	111.34
1020.728	69.3
1020.888	40.62
1021.048	46.63
1021.208	24.15
1021.368	41.2
1021.528	103.59
1021.688	115.02
1021.848	77.43
1022.008	79.57
1022.168	48.57
1022.328	65.62
1022.488	79.18
1022.648	52.44
1022.808	60.19
1022.968	82.86
1023.128	38.49
1023.288	40.82
1023.448	60
1023.608	70.07
1023.767	72.59
1023.927	27.06
1024.087	16.6
1024.247	6.33
1024.406	25.32
1024.566	20.47
1024.726	15.24
1024.885	49.73
1025.045	55.73
1025.205	36.17
1025.364	33.84
1025.524	30.93
1025.683	35.39
1025.843	65.62
1026.003	44.11
1026.162	96.03
1026.321	73.17
1026.481	44.3
1026.64	40.62
1026.8	63.1
1026.959	34.03
1027.119	43.53
1027.278	43.33
1027.437	22.41
1027.597	60
1027.756	63.87
1027.915	64.84
1028.074	63.48
1028.234	34.81
1028.393	53.41
1028.552	8.85
1028.711	-56.64
1028.87	74.33
1029.03	25.12
1029.189	19.7
1029.348	-3.55
1029.507	29
1029.666	25.32
1029.825	1.29
1029.984	11.75
1030.143	50.31
1030.302	14.27
1030.461	-19.25
1030.62	57.09
1030.779	88.67
1030.938	37.91
1031.097	-0.65
1031.255	52.25
1031.414	96.23
1031.573	96.03
1031.732	-3.55
1031.891	47.79
1032.049	81.31
1032.208	76.27
1032.367	24.74
1032.525	29
1032.684	26.29
1032.843	38.3
1033.001	-8.2
1033.16	167.53
1033.319	58.64
1033.477	79.18
1033.636	-9.17
1033.794	-2.97
1033.953	48.37
1034.111	57.09
1034.27	18.54
1034.428	62.52
1034.587	2.65
1034.745	51.47
1034.903	57.87
1035.062	56.32
1035.22	0.32
1035.378	48.76
1035.537	-12.46
1035.695	54.57
1035.853	23.77
1036.011	61.16
1036.17	39.07
1036.328	-44.63
1036.486	46.43
1036.644	46.24
1036.802	-49.47
1036.96	29.19
1037.119	22.41
1037.277	13.5
1037.435	-10.33
1037.593	-5.88
1037.751	31.13
1037.909	46.63
1038.067	46.63
