Data from tests_FLMT105791__6__15-40-02-264.txt Node

Date: Mon Mar 20 15:40:02 GMT 2023
User: antho
Spectrometer: FLMT10579
Trigger mode: 0
Integration Time (sec): 1.000000E-1
Scans to average: 10
Electric dark correction enabled: true
Nonlinearity correction enabled: false
Boxcar width: 0
XAxis mode: Wavelengths
Number of Pixels in Spectrum: 3648
>>>>>Begin Spectral Data<<<<<
345.248	-160.05
345.464	-160.05
345.681	-160.05
345.898	-165.09
346.114	-138.93
346.331	-23.46
346.548	26.53
346.764	-0.6
346.981	-16.48
347.197	-13.19
347.414	17.61
347.631	-18.81
347.847	56.75
348.064	5.99
348.28	17.61
348.497	-35.28
348.713	-16.68
348.93	21.1
349.146	151.69
349.363	258.64
349.579	273.55
349.796	254.18
350.012	244.69
350.229	294.87
350.445	268.91
350.661	276.27
350.878	301.26
351.094	328.39
351.311	327.22
351.527	330.9
351.743	287.89
351.96	348.54
352.176	339.82
352.392	334
352.609	342.72
352.825	299.9
353.041	332.84
353.257	311.72
353.474	315.99
353.69	358.8
353.906	363.26
354.122	351.64
354.339	414.8
354.555	400.07
354.771	401.43
354.987	450.64
355.203	461.88
355.42	404.72
355.636	410.15
355.852	359
356.068	413.25
356.284	374.5
356.5	465.17
356.716	433.59
356.932	361.9
357.148	392.9
357.364	354.15
357.58	402.2
357.796	441.73
358.012	404.92
358.228	426.03
358.444	281.3
358.66	384.77
358.876	369.27
359.092	349.7
359.308	396.78
359.524	461.68
359.74	460.13
359.956	510.9
360.172	562.43
360.388	579.48
360.604	531.82
360.819	600.21
361.035	492.88
361.251	521.94
361.467	468.27
361.683	539.18
361.898	485.71
362.114	566.5
362.33	524.65
362.546	581.23
362.762	575.8
362.977	618.23
363.193	601.76
363.409	678.49
363.624	613.97
363.84	624.43
364.056	642.06
364.271	652.72
364.487	690.5
364.703	668.61
364.918	655.62
365.134	630.82
365.35	673.06
365.565	813.14
365.781	746.88
365.996	814.69
366.212	902.26
366.427	873.98
366.643	869.72
366.858	855.77
367.074	857.7
367.289	949.93
367.505	967.17
367.72	836
367.936	883.86
368.151	898.58
368.367	873.4
368.582	860.8
368.798	838.52
369.013	876.5
369.228	894.9
369.444	908.85
369.659	926.29
369.874	912.53
370.09	1004.18
370.305	949.93
370.52	973.18
370.736	1013.86
370.951	911.76
371.166	974.53
371.381	924.93
371.597	949.35
371.812	959.42
372.027	951.67
372.242	941.4
372.458	983.83
372.673	852.67
372.888	859.45
373.103	925.9
373.318	977.05
373.533	856.73
373.749	847.43
373.964	756.37
374.179	828.64
374.394	776.72
374.609	847.63
374.824	813.33
375.039	883.08
375.254	772.84
375.469	881.15
375.684	906.53
375.899	1012.7
376.114	1026.65
376.329	1022.97
376.544	1036.53
376.759	991.58
376.974	953.03
377.189	1014.83
377.404	1061.14
377.619	1127.79
377.834	1102.21
378.049	1193.08
378.264	1255.47
378.478	1348.66
378.693	1307.97
378.908	1338.2
379.123	1262.25
379.338	1233.96
379.553	1188.62
379.767	1155.3
379.982	1115.58
380.197	1137.28
380.412	1135.54
380.626	1241.9
380.841	1310.68
381.056	1352.92
381.271	1437.78
381.485	1319.6
381.7	1242.1
381.915	1252.75
382.129	1126.62
382.344	1064.43
382.559	1052.61
382.773	1058.42
382.988	915.83
383.202	953.22
383.417	898.78
383.632	966.98
383.846	919.12
384.061	919.51
384.275	903.62
384.49	1054.74
384.704	1133.99
384.919	1270.77
385.133	1307
385.348	1425.58
385.562	1350.6
385.777	1372.88
385.991	1322.7
386.206	1306.23
386.42	1303.52
386.634	1375.78
386.849	1351.56
387.063	1419.57
387.277	1426.16
387.492	1369.78
387.706	1373.85
387.92	1373.85
388.135	1425.58
388.349	1462.39
388.563	1462.39
388.778	1433.13
388.992	1411.04
389.206	1522.84
389.42	1614.09
389.635	1585.8
389.849	1737.12
390.063	1846.2
390.277	1869.64
390.491	1928.93
390.706	1887.28
390.92	1881.46
391.134	1920.79
391.348	2003.33
391.562	2045.18
391.776	2150
391.99	2130.43
392.205	2148.25
392.419	1997.52
392.633	1908.39
392.847	1798.35
393.061	1617.58
393.275	1536.59
393.489	1273.48
393.703	1084.77
393.917	1032.27
394.131	1060.56
394.345	1262.05
394.559	1523.22
394.773	1655.36
394.986	1920.6
395.2	2089.74
395.414	2192.43
395.628	2304.61
395.842	2386.17
396.056	2363.12
396.27	2251.13
396.484	2194.17
396.697	1914.98
396.911	1644.9
397.125	1431.19
397.339	1363.96
397.553	1386.44
397.766	1605.18
397.98	1926.41
398.194	2223.62
398.408	2488.09
398.621	2707.6
398.835	2886.24
399.049	2989.31
399.262	3094.13
399.476	3189.84
399.69	3270.24
399.903	3324.69
400.117	3226.65
400.331	3347.55
400.544	3382.81
400.758	3554.28
400.971	3457.21
401.185	3509.33
401.398	3503.13
401.612	3586.83
401.826	3636.23
402.039	3710.24
402.253	3771.85
402.466	3846.64
402.68	3827.85
402.893	3915.81
403.106	3854.2
403.32	3799.75
403.533	3810.99
403.747	3651.93
403.96	3784.45
404.174	3860.4
404.387	3839.28
404.6	3892.75
404.814	3917.17
405.027	3751.9
405.24	3740.47
405.454	3730.97
405.667	3934.22
405.88	3973.93
406.094	3965.6
406.307	3969.67
406.52	3749.96
406.733	3716.25
406.947	3766.62
407.16	3880.35
407.373	3935.18
407.586	3977.42
407.799	4012.3
408.012	4006.1
408.226	4028.96
408.439	4150.44
408.652	4178.53
408.865	4381.58
409.078	4535.03
409.291	4492.79
409.504	4521.46
409.717	4579.59
409.93	4531.34
410.143	4253.32
410.357	4058.79
410.57	3868.92
410.783	3935.96
410.996	4046.78
411.209	4195
411.421	4583.85
411.634	4680.14
411.847	4707.85
412.06	4772.37
412.273	4847.15
412.486	4909.73
412.699	4873.89
412.912	4883.19
413.125	4839.6
413.338	4842.5
413.55	4672.39
413.763	4661.35
413.976	4768.1
414.189	4792.13
414.402	4876.99
414.615	5037.22
414.827	4897.14
415.04	4891.71
415.253	4938.02
415.466	5023.07
415.678	5070.74
415.891	4899.66
416.104	4902.56
416.316	4982.58
416.529	5113.17
416.742	5274.75
416.954	5271.85
417.167	5234.65
417.38	5187.76
417.592	5023.07
417.805	4887.45
418.017	4979.29
418.23	4965.34
418.442	4932.4
418.655	5014.55
418.868	4974.64
419.08	5039.54
419.293	5096.89
419.505	5156.76
419.718	5134.29
419.93	5231.93
420.142	5133.9
420.355	5105.61
420.567	4998.66
420.78	5184.27
420.992	5137.19
421.205	5389.64
421.417	5544.45
421.629	5608.38
421.842	5578.94
422.054	5550.65
422.266	5667.87
422.479	5557.43
422.691	5371.04
422.903	5295.87
423.115	5144.75
423.328	5094.37
423.54	5131.96
423.752	5203.07
423.964	5474.7
424.177	5522.94
424.389	5450.67
424.601	5583.2
424.813	5611.68
425.025	5637.25
425.238	5615.17
425.45	5555.49
425.662	5518.87
425.874	5803.1
426.086	5564.21
426.298	5626.4
426.51	5558.01
426.722	5569.83
426.934	5669.61
427.146	5716.88
427.358	5660.7
427.57	5561.3
427.782	5377.63
427.994	5401.27
428.206	5400.11
428.418	5768.03
428.63	5854.44
428.842	5891.06
429.054	5730.64
429.266	5608.19
429.478	5528.37
429.69	5387.13
429.902	5322.41
430.114	5283.08
430.325	5001.57
430.537	4720.44
430.749	4536.19
430.961	4314.15
431.173	4376.15
431.384	4449
431.596	4532.31
431.808	5165.67
432.02	5788.96
432.231	6317.11
432.443	6690.27
432.655	6501.17
432.867	6327.38
433.078	6358.19
433.29	6339.2
433.502	6503.69
433.713	6755.37
433.925	6938.65
434.136	6678.84
434.348	6246.2
434.56	6137.31
434.771	6213.84
434.983	6099.92
435.194	6564.72
435.406	6925.48
435.617	6918.7
435.829	7103.34
436.04	7076.02
436.252	6984.57
436.463	7363.73
436.675	7587.13
436.886	7697.95
437.098	7794.63
437.309	7755.3
437.521	7623.74
437.732	7313.17
437.943	7280.62
438.155	7260.47
438.366	7175.99
438.578	7294.95
438.789	6881.5
439	6780.75
439.211	6831.9
439.423	6828.41
439.634	7159.53
439.845	7388.34
440.057	7514.86
440.268	7810.32
440.479	7783.59
440.69	7777.97
440.902	7546.83
441.113	7489.48
441.324	7672.76
441.535	7930.45
441.746	8181.15
441.957	8124.58
442.168	8302.63
442.38	8316.2
442.591	8391.56
442.802	8337.51
443.013	8593.84
443.224	8715.12
443.435	8471
443.646	8367.93
443.857	8400.86
444.068	8495.8
444.279	8364.25
444.49	8822.85
444.701	8596.35
444.912	8923.79
445.123	8937.54
445.334	8646.92
445.545	8825.95
445.756	8577.17
445.967	8524.67
446.178	8338.86
446.388	8198.98
446.599	8255.17
446.81	8327.05
447.021	8411.13
447.232	8591.12
447.443	8794.17
447.653	9092.35
447.864	9153.77
448.075	9235.72
448.286	9145.63
448.496	9016.98
448.707	9171.98
448.918	8923.4
449.129	9043.33
449.339	9065.61
449.55	9247.93
449.761	9155.7
449.971	9069.1
450.182	9319.42
450.393	9394.4
450.603	9392.27
450.814	9822.19
451.024	9741.21
451.235	10004.9
451.446	9963.82
451.656	9980.87
451.867	9803.21
452.077	9571.68
452.288	9737.33
452.498	9634.65
452.709	9614.69
452.919	9310.12
453.13	9170.82
453.34	9091.19
453.55	8707.95
453.761	9133.62
453.971	9029.57
454.182	9256.65
454.392	9278.54
454.602	9700.13
454.813	9729.39
455.023	9583.5
455.233	9415.71
455.444	9547.27
455.654	9202.59
455.864	9444
456.075	9610.82
456.285	9543.78
456.495	9683.28
456.705	9672.62
456.916	10033.57
457.126	10175.59
457.336	10003.54
457.546	9720.09
457.756	10017.49
457.967	10142.65
458.177	9926.82
458.387	9920.23
458.597	9770.27
458.807	9833.82
459.017	9718.73
459.227	9725.51
459.437	9735.78
459.647	9996.95
459.857	9902.79
460.068	10109.71
460.278	10031.44
460.488	10059.34
460.698	10093.05
460.908	10154.47
461.117	10469.89
461.327	10490.04
461.537	10542.16
461.747	10582.65
461.957	10518.13
462.167	10741.72
462.377	10706.46
462.587	10621.98
462.797	10800.81
463.007	10729.71
463.216	10997.46
463.426	11183.46
463.636	10980.8
463.846	10649.69
464.056	10702.58
464.265	10628.96
464.475	10680.69
464.685	10972.66
464.895	10802.17
465.104	10495.66
465.314	10896.72
465.524	10732.61
465.733	10689.6
465.943	10930.62
466.153	11208.07
466.362	11271.42
466.572	11215.82
466.782	10979.64
466.991	11298.35
467.201	11025.36
467.41	10795.77
467.62	11150.14
467.829	11201.67
468.039	11371.59
468.249	11408.21
468.458	11643.61
468.668	11505.47
468.877	11681.39
469.086	11746.49
469.296	12084.39
469.505	12184.75
469.715	12029.17
469.924	11894.51
470.134	12163.63
470.343	11735.45
470.552	11797.83
470.762	11799.19
470.971	11878.43
471.18	12051.06
471.39	12180.29
471.599	11993.91
471.808	12180.68
472.018	12549.57
472.227	12821.98
472.436	13244.16
472.645	13271.67
472.855	13201.53
473.064	13601.62
473.273	13634.17
473.482	13125.58
473.691	13436.55
473.901	13224.78
474.11	13110.86
474.319	13532.65
474.528	13489.83
474.737	14196.42
474.946	13938.93
475.155	14120.09
475.364	14375.45
475.573	14183.44
475.783	14512.23
475.992	14302.6
476.201	14339.6
476.41	14531.61
476.619	14402.38
476.828	14379.52
477.037	14322.36
477.245	14380.48
477.454	14595.54
477.663	15017.14
477.872	15436.79
478.081	15687.7
478.29	15530.37
478.499	15830.49
478.708	16017.84
478.917	15951.97
479.125	15567.57
479.334	15711.53
479.543	16114.91
479.752	16295.87
479.961	16143.78
480.169	16540.18
480.378	16649.85
480.587	17020.68
480.796	16926.9
481.004	16918.38
481.213	17108.45
481.422	17173.74
481.63	17422.12
481.839	17529.65
482.048	17848.56
482.256	17747.23
482.465	18187.42
482.674	18007.82
482.882	18048.89
483.091	18143.25
483.299	17777.84
483.508	18429.22
483.716	18517.38
483.925	18598.36
484.134	18019.06
484.342	18451.89
484.551	18448.79
484.759	18147.32
484.967	18924.63
485.176	18784.94
485.384	18860.89
485.593	18593.52
485.801	18349.2
486.01	17870.45
486.218	16937.75
486.426	16292.58
486.635	15713.08
486.843	15748.92
487.051	16293.93
487.26	16583.2
487.468	16964.3
487.676	17591.84
487.885	18138.79
488.093	18529.39
488.301	19187.74
488.509	19159.84
488.717	19564.77
488.926	19662.23
489.134	19269.31
489.342	19329.37
489.55	19133.3
489.758	19553.92
489.967	20187.48
490.175	20024.73
490.383	20910.93
490.591	21338.14
490.799	21138.97
491.007	20947.35
491.215	21086.46
491.423	20895.23
491.631	20926.04
491.839	20734.23
492.047	20711.37
492.255	20175.85
492.463	20175.85
492.671	19723.06
492.879	20364.56
493.087	20624.76
493.295	20792.16
493.503	21074.06
493.711	21790.93
493.919	21612.29
494.127	21459.04
494.334	21354.61
494.542	21520.84
494.75	21969.95
494.958	21696.19
495.166	22345.43
495.374	22561.65
495.581	22646.32
495.789	22548.87
495.997	22533.17
496.205	21786.08
496.412	22022.46
496.62	22551.58
496.828	22294.09
497.035	22583.16
497.243	22630.24
497.451	22685.46
497.658	22744.55
497.866	22659.88
498.074	22879.21
498.281	22550.03
498.489	22512.44
498.696	22179.2
498.904	21902.72
499.112	21901.17
499.319	22378.76
499.527	22566.3
499.734	22777.3
499.942	22633.15
500.149	22768
500.357	22858.28
500.564	22321.41
500.771	22234.03
500.979	22024.98
501.186	21787.83
501.394	22213.88
501.601	21627.6
501.808	21688.05
502.016	21818.25
502.223	21613.46
502.43	21877.34
502.638	21882.18
502.845	22260.77
503.052	22560.49
503.26	22537.24
503.467	22750.75
503.674	22956.9
503.881	22869.13
504.089	22700.38
504.296	22537.44
504.503	22216.01
504.71	22092.4
504.917	22370.43
505.125	22593.04
505.332	22869.52
505.539	22835.61
505.746	23385.27
505.953	23601.11
506.16	23803.96
506.367	23874.87
506.574	24236.6
506.781	24149.61
506.988	23985.31
507.195	23826.63
507.402	23721.43
507.609	23723.56
507.816	23332.77
508.023	23308.74
508.23	23158.59
508.437	22749.98
508.644	22993.52
508.851	23066.17
509.058	23571.08
509.265	23585.22
509.472	23867.7
509.679	24076.18
509.885	24076.37
510.092	24026.77
510.299	23891.15
510.506	23447.66
510.713	23592.58
510.92	23575.34
511.126	23696.82
511.333	23798.34
511.54	24047.11
511.746	24037.04
511.953	24285.04
512.16	24610.34
512.367	24437.9
512.573	24170.34
512.78	24093.23
512.987	23962.25
513.193	23595.49
513.4	23399.81
513.606	23536.4
513.813	23610.02
514.02	23313.01
514.226	23304.87
514.433	23311.46
514.639	23075.09
514.846	23208.38
515.052	23147.93
515.259	23327.73
515.465	23400.77
515.672	23507.34
515.878	23569.33
516.085	24002.75
516.291	23806.48
516.497	23926.6
516.704	22991
516.91	22489.19
517.117	21622.95
517.323	20949.68
517.529	20639.29
517.736	20561.8
517.942	20619.92
518.148	21374.95
518.354	21598.34
518.561	21679.52
518.767	21470.86
518.973	21424.36
519.179	21943.41
519.386	22280.14
519.592	22246.43
519.798	22324.31
520.004	23281.23
520.21	23199.08
520.417	23419.96
520.623	23598.98
520.829	23689.84
521.035	23773.93
521.241	23378.3
521.447	23708.25
521.653	23988.6
521.859	23839.03
522.065	24083.15
522.271	24309.64
522.477	24142.05
522.683	24511.53
522.889	23948.3
523.095	23629.98
523.301	23710.96
523.507	23404.26
523.713	23661.17
523.919	23576.5
524.125	24109.7
524.331	24512.5
524.537	24868.8
524.742	24949.4
524.948	24942.81
525.154	25013.53
525.36	24992.8
525.566	24619.25
525.772	24829.27
525.977	24678.92
526.183	24493.51
526.389	24731.43
526.595	23865.96
526.8	23682.68
527.006	22852.86
527.212	22255.15
527.417	22056.36
527.623	22243.91
527.829	22419.25
528.034	23076.05
528.24	23200.25
528.446	23928.93
528.651	24247.26
528.857	24407.48
529.062	24539.23
529.268	25015.46
529.473	25252.03
529.679	25430.66
529.884	25365.37
530.09	25171.62
530.295	24723.87
530.501	25037.16
530.706	25061.77
530.912	25298.53
531.117	25355.3
531.323	25264.43
531.528	25721.48
531.733	25729.23
531.939	25595.93
532.144	25527.15
532.35	25417.88
532.555	25377.58
532.76	24677.57
532.966	24459.8
533.171	24192.23
533.376	23964
533.581	23992.48
533.787	24297.63
533.992	24695.59
534.197	24177.89
534.402	24933.7
534.607	24954.05
534.813	24879.45
535.018	24913.55
535.223	25186.54
535.428	25109.24
535.633	25343.67
535.838	25737.75
536.043	26046.78
536.249	26146.95
536.454	25826.68
536.659	25911.16
536.864	25817.38
537.069	25369.44
537.274	25212.12
537.479	25098.19
537.684	25025.15
537.889	24839.73
538.094	25497.12
538.299	25315.38
538.504	25658.32
538.708	25477.55
538.913	25898.37
539.118	25863.3
539.323	25617.82
539.528	25433.57
539.733	25182.47
539.938	25225.87
540.142	25025.15
540.347	24934.28
540.552	24687.06
540.757	24315.26
540.962	24606.08
541.166	24323.01
541.371	24342.19
541.576	24410.58
541.781	24626.81
541.985	25197.59
542.19	24769.21
542.395	25519.21
542.599	25558.15
542.804	25115.82
543.008	25452.75
543.213	25277.6
543.418	25043.94
543.622	25463.79
543.827	25043.75
544.031	25341.54
544.236	25366.92
544.44	25908.06
544.645	25783.09
544.849	25720.12
545.054	25885.19
545.258	25874.54
545.463	25886.55
545.667	25553.89
545.872	25856.13
546.076	25644.56
546.281	25658.32
546.485	25644.95
546.689	25792.58
546.894	25690.87
547.098	25849.55
547.302	25789.87
547.507	25669.36
547.711	25816.41
547.915	25664.71
548.119	25284.97
548.324	25099.74
548.528	25304.92
548.732	25362.27
548.936	25743.37
549.141	25551.56
549.345	25604.65
549.549	25717.22
549.753	26047.36
549.957	25958.04
550.161	25981.1
550.366	26033.99
550.57	25862.33
550.774	25721.67
550.978	25797.04
551.182	25755.19
551.386	25426.98
551.59	25724.97
551.794	25518.82
551.998	25812.73
552.202	25784.83
552.406	25813.31
552.61	26069.06
552.814	25901.08
553.018	25716.25
553.222	25503.9
553.426	25523.86
553.63	25749.18
553.833	25591.09
554.037	25432.6
554.241	25453.53
554.445	25787.35
554.649	25847.03
554.853	25624.41
555.056	25902.44
555.26	26020.82
555.464	25842.18
555.668	25904.57
555.871	25839.86
556.075	25923.36
556.279	25682.73
556.483	25670.91
556.686	25459.73
556.89	25525.79
557.094	25386.49
557.297	24980.2
557.501	25159.42
557.704	24911.03
557.908	25089.67
558.112	25121.64
558.315	25224.32
558.519	25106.33
558.722	24772.12
558.926	24763.01
559.129	24211.22
559.333	24517.15
559.536	24377.26
559.74	24136.82
559.943	23975.04
560.147	24288.33
560.35	24082.76
560.553	24637.85
560.757	24559.58
560.96	24610.14
561.164	24868.41
561.367	25130.55
561.57	25041.81
561.774	24807.57
561.977	24714.96
562.18	24690.36
562.384	24703.34
562.587	24546.4
562.79	24786.26
562.993	24595.81
563.197	24508.23
563.4	24791.69
563.603	24897.67
563.806	24774.05
564.009	24796.72
564.212	24883.72
564.416	24549.31
564.619	24570.04
564.822	24370.87
565.025	24740.54
565.228	24616.73
565.431	24819
565.634	24391.98
565.837	24320.49
566.04	24146.31
566.243	23978.53
566.446	23677.64
566.649	24116.09
566.852	23846.01
567.055	24145.54
567.258	24068.23
567.461	24361.95
567.664	24449.92
567.867	24554.35
568.07	24192.04
568.273	24399.73
568.475	24671.76
568.678	23954.89
568.881	24159.1
569.084	23671.63
569.287	23524.19
569.489	23830.31
569.692	23817.52
569.895	23962.83
570.098	23673.38
570.3	23776.06
570.503	23595.68
570.706	23550.35
570.909	23532.13
571.111	23109.38
571.314	23087.29
571.516	23182.81
571.719	23197.53
571.922	23164.98
572.124	23430.03
572.327	23585.42
572.529	23516.05
572.732	23752.04
572.935	23792.53
573.137	24291.24
573.34	23858.79
573.542	24170.34
573.745	23957.41
573.947	24175.18
574.15	23888.44
574.352	23909.55
574.554	24111.44
574.757	23901.03
574.959	23456.77
575.162	23921.76
575.364	23476.14
575.566	23668.15
575.769	23374.42
575.971	23474.98
576.173	22893.35
576.376	23269.22
576.578	23556.93
576.78	23367.06
576.982	23383.72
577.185	23469.75
577.387	23354.86
577.589	23648.19
577.791	23454.05
577.993	23516.25
578.196	23437
578.398	23060.75
578.6	23096.4
578.802	22929.77
579.004	22794.54
579.206	23001.07
579.408	23100.66
579.61	22898.78
579.812	23403.68
580.014	23040.21
580.216	23039.05
580.418	23435.65
580.62	23360.28
580.822	23336.26
581.024	23434.29
581.226	23458.7
581.428	23394.38
581.63	23641.41
581.832	23418.41
582.034	23524.58
582.236	23550.93
582.438	23753.98
582.64	23862.28
582.841	23838.64
583.043	24162.01
583.245	23729.37
583.447	23957.22
583.649	23811.13
583.85	23839.03
584.052	23765.41
584.254	23610.02
584.456	23740.61
584.657	23617
584.859	23925.64
585.061	23539.88
585.262	23598.78
585.464	23358.73
585.666	23486.8
585.867	23133.4
586.069	23166.15
586.27	23072.18
586.472	23013.28
586.674	22932.49
586.875	23036.14
587.077	23205.28
587.278	23088.65
587.48	23029.94
587.681	23307.78
587.883	23225.24
588.084	23004.17
588.285	23024.9
588.487	22627.72
588.688	22719.56
588.89	21980.99
589.091	21608.61
589.292	21076.78
589.494	20585.63
589.695	20296.94
589.896	20027.25
590.098	20240.37
590.299	20251.22
590.5	20574.78
590.702	20882.06
590.903	21192.06
591.104	21498.18
591.305	21865.13
591.507	21780.47
591.708	21821.73
591.909	21879.08
592.11	21744.04
592.311	22048.61
592.512	21649.11
592.714	21708.59
592.915	22021.29
593.116	21709.94
593.317	22116.23
593.518	22041.44
593.719	22127.27
593.92	22003.86
594.121	22073.99
594.322	22057.14
594.523	21999.21
594.724	21824.06
594.925	21916.67
595.126	21684.95
595.327	21690.76
595.528	21855.06
595.729	21768.65
595.929	21828.9
596.13	21894.58
596.331	22238.68
596.532	21941.86
596.733	22226.47
596.934	22279.56
597.135	22251.66
597.335	22248.56
597.536	22217.37
597.737	22160.79
597.938	22042.22
598.138	21957.74
598.339	22117.39
598.54	22151.49
598.74	21787.25
598.941	21851.96
599.142	22065.86
599.342	21907.18
599.543	21931.01
599.744	21992.62
599.944	22086.78
600.145	22233.25
600.345	21941.66
600.546	22041.06
600.746	22034.47
600.947	22247.4
601.147	21680.49
601.348	22126.11
601.548	21873.08
601.749	21860.48
601.949	21580.91
602.15	21714.98
602.35	21477.83
602.551	21552.43
602.751	21693.47
602.951	21838.78
603.152	21670.22
603.352	21824.45
603.552	21879.86
603.753	22103.64
603.953	22195.67
604.153	22067.79
604.354	22145.87
604.554	22068.18
604.754	22162.92
604.954	22199.15
605.155	22227.44
605.355	22034.08
605.555	22032.34
605.755	22078.45
605.955	21908.53
606.155	21895.94
606.356	21929.07
606.556	21860.87
606.756	21880.44
606.956	21843.24
607.156	22011.41
607.356	21792.48
607.556	21879.86
607.756	21863.97
607.956	21872.88
608.156	21815.73
608.356	21615.97
608.556	21800.81
608.756	21490.81
608.956	21622.56
609.156	21492.95
609.356	21414.28
609.556	21218.02
609.755	21503.41
609.955	21256.96
610.155	21158.54
610.355	21384.25
610.555	21017.3
610.755	20900.08
610.954	20852.22
611.154	21121.14
611.354	21161.25
611.554	20992.69
611.753	21287.77
611.953	21027.56
612.153	21119.4
612.352	21067.09
612.552	20950.45
612.752	20845.64
612.951	21041.71
613.151	20779.96
613.351	20918.48
613.55	20929.14
613.75	20825.29
613.949	20431.4
614.149	20500.38
614.348	20520.92
614.548	20462.98
614.747	20507.93
614.947	20616.82
615.146	20442.25
615.346	20739.85
615.545	20742.95
615.745	20661.58
615.944	20463.37
616.144	20479.07
616.343	20100.87
616.542	20239.21
616.742	19999.93
616.941	19896.66
617.14	19725.97
617.34	19962.73
617.539	19938.51
617.738	19992.76
617.938	20179.34
618.137	20110.56
618.336	20254.71
618.535	20353.32
618.734	20369.21
618.934	20276.6
619.133	20385.87
619.332	20518.78
619.531	20146.79
619.73	20484.3
619.929	20334.34
620.128	20410.87
620.328	20448.65
620.527	20453.49
620.726	20514.72
620.925	20421.91
621.124	20728.03
621.323	20384.9
621.522	20120.44
621.721	20411.64
621.92	20093.12
622.119	20175.08
622.318	20052.05
622.517	19998.57
622.715	19952.85
622.914	19870.31
623.113	20022.4
623.312	19512.07
623.511	19861.79
623.71	19711.44
623.909	19536.29
624.107	19817.61
624.306	19572.72
624.505	19572.91
624.704	19465.77
624.902	19231.91
625.101	19377.81
625.3	19208.86
625.499	19247.41
625.697	19272.02
625.896	19072.46
626.095	19022.28
626.293	18953.11
626.492	19138.34
626.69	19113.15
626.889	19382.46
627.088	19357.08
627.286	19407.64
627.485	19181.54
627.683	19187.74
627.882	18880.26
628.08	18804.12
628.279	18578.99
628.477	18721
628.676	18435.42
628.874	18628.59
629.073	18483.47
629.271	18626.26
629.469	18744.83
629.668	18772.54
629.866	18476.88
630.065	18519.12
630.263	18501.29
630.461	18423.8
630.66	18571.43
630.858	18378.85
631.056	18743.28
631.254	18690.39
631.453	18465.45
631.651	18469.91
631.849	18432.51
632.047	18297.86
632.245	18239.35
632.444	18320.72
632.642	18543.14
632.84	18676.44
633.038	18418.95
633.236	18343.2
633.434	18571.43
633.632	18597.59
633.83	18368.77
634.028	18684.58
634.227	18456.54
634.425	18750.26
634.623	18426.51
634.821	18642.73
635.019	18690.78
635.216	18671.79
635.414	18703.37
635.612	18473.01
635.81	18513.11
636.008	18629.75
636.206	18563.87
636.404	18423.99
636.602	18442.4
636.8	18303.09
636.997	18535.39
637.195	18444.33
637.393	18412.75
637.591	18736.12
637.789	18551.28
637.986	18626.84
638.184	18634.59
638.382	18769.05
638.58	18545.86
638.777	18801.41
638.975	18504.78
639.173	18661.91
639.37	18613.86
639.568	18505.56
639.765	18498.39
639.963	18362.96
640.161	18161.66
640.358	18440.46
640.556	17990.77
640.753	18207.96
640.951	17988.83
641.148	18102.56
641.346	18146.54
641.543	17967.71
641.741	18050.64
641.938	17886.34
642.136	18049.09
642.333	17906.3
642.531	18098.3
642.728	18044.05
642.925	18032.81
643.123	18094.23
643.32	18077.76
643.517	17947.76
643.715	17872.39
643.912	18037.08
644.109	17982.83
644.306	18065.94
644.504	17882.66
644.701	17997.75
644.898	17911.72
645.095	17799.74
645.293	17905.52
645.49	17762.92
645.687	17694.72
645.884	17837.32
646.081	17457
646.278	17523.06
646.475	17439.56
646.672	17363.8
646.87	17273.32
647.067	17188.85
647.264	17317.69
647.461	17119.68
647.658	16888.54
647.855	17034.43
648.052	16926.32
648.249	16794.38
648.446	16996.07
648.642	17072.02
648.839	16699.25
649.036	16772.88
649.233	16825.38
649.43	16744.39
649.627	16310.01
649.824	16520.81
650.021	16281.73
650.217	16586.3
650.414	16715.14
650.611	16737.42
650.808	16950.74
651.004	16859.67
651.201	16938.72
651.398	17018.74
651.595	16828.09
651.791	16684.53
651.988	16873.82
652.185	16531.66
652.381	16887.38
652.578	16640.93
652.775	16765.71
652.971	16916.44
653.168	16676
653.364	17002.85
653.561	16716.3
653.757	16875.17
653.954	16953.84
654.15	16647.13
654.347	16871.88
654.543	16887.77
654.74	16549.68
654.936	16590.56
655.133	16346.24
655.329	16501.05
655.525	16084.3
655.722	16059.5
655.918	15723.93
656.115	15145.98
656.311	14886.75
656.507	14345.8
656.704	14124.35
656.9	14184.22
657.096	14480.65
657.292	14427.18
657.489	14774.57
657.685	15033.22
657.881	15017.53
658.077	15267.27
658.273	15523.98
658.47	15753.38
658.666	15761.13
658.862	16095.15
659.058	16066.09
659.254	16007.38
659.45	16284.63
659.646	16031.99
659.842	16123.82
660.038	16239.88
660.234	16110.65
660.43	16235.03
660.626	16390.42
660.822	16397.78
661.018	16407.08
661.214	16333.65
661.41	16224.38
661.606	16444.28
661.802	16575.25
661.998	16453.77
662.194	16409.41
662.39	16512.09
662.586	16534.57
662.781	16429.75
662.977	16622.91
663.173	16287.93
663.369	16415.8
663.564	16491.94
663.76	16334.04
663.956	16344.89
664.152	16174.97
664.347	16162.18
664.543	16340.24
664.739	16171.68
664.934	16031.99
665.13	16205.78
665.326	16171.68
665.521	16248.21
665.717	16146.3
665.912	16186.01
666.108	15873.11
666.304	16212.36
666.499	16041.48
666.695	15829.52
666.89	16095.92
667.086	15899.46
667.281	15950.42
667.477	16057.95
667.672	15992.66
667.867	15805.88
668.063	15881.06
668.258	15721.41
668.454	15833.01
668.649	15804.91
668.844	15982.97
669.04	15977.74
669.235	15813.63
669.43	15944.61
669.626	15725.28
669.821	15805.88
670.016	15729.35
670.211	15809.37
670.407	15497.82
670.602	15838.63
670.797	15600.9
670.992	15851.03
671.187	15577.07
671.382	15777.4
671.578	15475.74
671.773	15597.02
671.968	15255.45
672.163	15475.35
672.358	15465.47
672.553	15245.57
672.748	15511.39
672.943	15492.21
673.138	15375.38
673.333	15443.38
673.528	15149.27
673.723	15409.09
673.918	15230.65
674.113	15250.6
674.308	15348.83
674.503	15214.18
674.698	15389.33
674.892	15058.02
675.087	15152.18
675.282	15192.67
675.477	15189.38
675.672	15222.12
675.867	14976.84
676.061	15149.27
676.256	15000.28
676.451	15220.38
676.646	15098.51
676.84	15049.3
677.035	14915.81
677.23	15009.19
677.424	15007.64
677.619	14900.5
677.814	15173.49
678.008	14928.6
678.203	14864.66
678.397	14876.09
678.592	14759.07
678.787	14951.26
678.981	14834.43
679.176	14826.88
679.37	14799.95
679.565	14784.25
679.759	14823.58
679.954	14702.49
680.148	14691.84
680.342	14822.23
680.537	14718.77
680.731	14612.21
680.926	14737.95
681.12	14586.24
681.314	14560.48
681.509	14611.82
681.703	14635.07
681.897	14416.91
682.092	14613.95
682.286	14636.04
682.48	14590.51
682.674	14510.3
682.869	14461.86
683.063	14607.56
683.257	14429.7
683.451	14305.12
683.645	14430.86
683.839	14303.37
684.034	14156.9
684.228	14031.74
684.422	13908.52
684.616	14132.88
684.81	14086.18
685.004	13921.3
685.198	14120.09
685.392	13909.1
685.586	14082.89
685.78	13884.1
685.974	14002.1
686.168	13854.65
686.362	13854.27
686.556	13164.91
686.75	12931.06
686.944	12407.75
687.138	11718.4
687.331	11264.84
687.525	10992.04
687.719	10771.36
687.913	10830.07
688.107	10940.11
688.301	10965.88
688.494	11195.86
688.688	11105.96
688.882	11052.1
689.076	11040.28
689.269	11055.59
689.463	11332.26
689.657	11254.76
689.85	11264.45
690.044	11416.35
690.238	11452.38
690.431	11522.91
690.625	11515.93
690.818	11773.42
691.012	11729.25
691.205	11917.76
691.399	11934.43
691.593	11859.64
691.786	11902.07
691.98	12113.45
692.173	12221.17
692.366	12202.18
692.56	12326.18
692.753	12119.65
692.947	12132.82
693.14	12021.81
693.333	12132.24
693.527	12066.17
693.72	12062.3
693.914	12019.09
694.107	11830.58
694.3	11920.09
694.493	11589.56
694.687	11937.14
694.88	11753.47
695.073	11892.38
695.266	11817.98
695.46	11854.21
695.653	11889.67
695.846	11838.52
696.039	11929.97
696.232	11856.15
696.425	12143.67
696.618	12179.9
696.812	12230.08
697.005	12273.87
697.198	12514.12
697.391	12274.45
697.584	12486.8
697.777	12495.91
697.97	12325.21
698.163	12391.28
698.356	12295.96
698.549	12331.22
698.742	12281.81
698.935	12151.04
699.127	12098.34
699.32	11938.88
699.513	12010.57
699.706	11890.25
699.899	12059.2
700.092	11863.13
700.285	11750.56
700.477	11600.99
700.67	11724.21
700.863	11635.67
701.056	11795.32
701.248	11662.79
701.441	11660.27
701.634	11589.75
701.826	11664.92
702.019	11421.38
702.212	11539.18
702.404	11490.16
702.597	11478.34
702.79	11519.23
702.982	11438.63
703.175	11544.61
703.367	11510.12
703.56	11593.04
703.752	11676.55
703.945	11579.87
704.137	11635.47
704.33	11625.79
704.522	11637.8
704.715	11691.27
704.907	11711.81
705.1	11882.7
705.292	11692.44
705.484	11643.61
705.677	11591.3
705.869	11736.22
706.061	11672.29
706.254	11731.18
706.446	11532.79
706.638	11594.59
706.831	11632.57
707.023	11569.6
707.215	11796.48
707.407	11705.8
707.599	11538.99
707.792	11753.27
707.984	11661.44
708.176	11648.07
708.368	11614.94
708.56	11633.34
708.752	11643.61
708.944	11532.98
709.136	11590.72
709.329	11550.81
709.521	11665.89
709.713	11475.24
709.905	11538.41
710.097	11624.43
710.289	11520.58
710.481	11464.39
710.672	11467.88
710.864	11548.29
711.056	11513.8
711.248	11463.23
711.44	11474.86
711.632	11419.45
711.824	11457.42
712.016	11443.66
712.207	11484.35
712.399	11309.2
712.591	11380.7
712.783	11399.1
712.975	11281.69
713.166	11249.14
713.358	11245.07
713.55	11209.62
713.741	11247.4
713.933	11275.69
714.125	11155.95
714.316	11071.09
714.508	11123.4
714.7	11043.58
714.891	10983.9
715.083	10984.1
715.274	10902.72
715.466	11044.35
715.657	10835.3
715.849	10710.14
716.04	10678.17
716.232	10553.98
716.423	10435.79
716.615	10272.27
716.806	9994.82
716.998	9753.61
717.189	9488.17
717.381	9218.67
717.572	9041.59
717.763	8863.92
717.955	8701.75
718.146	8598.49
718.337	8422.76
718.528	8228.43
718.72	7960.28
718.911	7921.53
719.102	7819.23
719.293	7875.61
719.485	7784.94
719.676	7636.34
719.867	7537.14
720.058	7522.41
720.249	7486.76
720.44	7516.21
720.632	7653.39
720.823	7776.03
721.014	8017.24
721.205	8266.6
721.396	8363.47
721.587	8616.31
721.778	8735.85
721.969	8837.96
722.16	8954.21
722.351	9135.75
722.542	9162.87
722.733	9207.82
722.924	9099.52
723.115	9140.4
723.305	8910.42
723.496	8918.75
723.687	8545.98
723.878	8505.87
724.069	8439.81
724.26	8424.69
724.45	8252.84
724.641	8188.52
724.832	8192.78
725.023	8055.02
725.213	8129.62
725.404	7944.2
725.595	7956.41
725.785	7928.12
725.976	8111.02
726.167	8017.05
726.357	8109.08
726.548	8176.5
726.739	7909.33
726.929	8132.14
727.12	8158.49
727.31	8140.08
727.501	7995.74
727.691	7937.61
727.882	7932.77
728.072	8049.02
728.263	8073.04
728.453	8106.37
728.644	8086.61
728.834	7957.76
729.024	7946.53
729.215	7876.78
729.405	7942.46
729.596	8010.46
729.786	8049.21
729.976	8058.32
730.167	8006.2
730.357	8017.83
730.547	8038.17
730.737	8038.17
730.928	7984.69
731.118	8058.51
731.308	7990.7
731.498	7939.94
731.688	8172.63
731.879	8110.24
732.069	8213.32
732.259	8282.1
732.449	8352.62
732.639	8442.33
732.829	8530.67
733.019	8543.66
733.209	8670.75
733.399	8679.28
733.589	8798.63
733.779	8799.6
733.969	8753.87
734.159	8951.88
734.349	8960.02
734.539	9022.02
734.729	8998.38
734.919	9007.1
735.109	9108.23
735.299	8950.91
735.488	8938.12
735.678	8928.44
735.868	8878.06
736.058	8887.75
736.248	8838.93
736.437	8831.18
736.627	8758.33
736.817	8948.39
737.007	8698.27
737.196	8899.57
737.386	8885.43
737.576	8791.26
737.765	8918.56
737.955	8795.53
738.144	9024.15
738.334	8865.66
738.524	8788.75
738.713	8891.43
738.903	8743.41
739.092	8862.95
739.282	8781.96
739.471	8823.04
739.661	8794.95
739.85	8908.87
740.04	8778.28
740.229	8829.05
740.419	8868.18
740.608	8871.28
740.797	8774.8
740.987	8877.68
741.176	8858.11
741.365	8779.25
741.555	8671.92
741.744	8840.67
741.933	8728.68
742.123	8820.13
742.312	8798.05
742.501	8820.33
742.69	8778.09
742.88	8666.49
743.069	8850.55
743.258	8850.55
743.447	8893.56
743.636	8784.68
743.825	8747.48
744.014	8788.55
744.204	8849.39
744.393	8663.58
744.582	8858.88
744.771	8821.3
744.96	8787.58
745.149	8787.39
745.338	8734.5
745.527	8780.03
745.716	8670.56
745.905	8638.01
746.094	8766.85
746.283	8728.49
746.471	8622.9
746.66	8707.57
746.849	8746.31
747.038	8719.19
747.227	8632.2
747.416	8681.02
747.604	8633.36
747.793	8605.85
747.982	8543.46
748.171	8661.26
748.359	8573.69
748.548	8654.48
748.737	8611.85
748.926	8510.72
749.114	8358.24
749.303	8483.98
749.491	8503.55
749.68	8380.13
749.869	8455.31
750.057	8341.19
750.246	8341.58
750.434	8357.66
750.623	8361.34
750.811	8279.19
751	8395.05
751.188	8268.15
751.377	8243.35
751.565	8204.21
751.754	8231.72
751.942	8150.93
752.131	8253.23
752.319	8199.37
752.507	8119.16
752.696	8163.91
752.884	8152.67
753.072	8141.05
753.261	8117.02
753.449	8089.32
753.637	8034.88
753.825	8199.17
754.014	8120.32
754.202	8061.03
754.39	8110.82
754.578	8072.66
754.766	8006.01
754.955	7900.22
755.143	8013.18
755.331	7970.55
755.519	8019.38
755.707	7962.41
755.895	7864.57
756.083	7925.99
756.271	7827.57
756.459	7858.57
756.647	7915.33
756.835	7829.89
757.023	7811.29
757.211	7810.13
757.399	7755.69
757.587	7770.22
757.775	7674.7
757.963	7711.51
758.151	7711.51
758.339	7643.89
758.526	7662.3
758.714	7586.74
758.902	7467.39
759.09	7308.32
759.278	6928.19
759.465	6477.92
759.653	5856.38
759.841	5324.16
760.028	4703.97
760.216	4199.26
760.404	3865.24
760.591	3348.13
760.779	2902.51
760.967	2622.16
761.154	2414.07
761.342	2392.57
761.529	2429.77
761.717	2551.25
761.905	2635.91
762.092	2772.89
762.28	2754.49
762.467	2807.19
762.655	2781.03
762.842	2789.17
763.029	2865.31
763.217	2889.72
763.404	2881.59
763.592	2936.61
763.779	2910.07
763.966	3005.97
764.154	3092.96
764.341	3191.58
764.528	3197.2
764.716	3351.04
764.903	3504.29
765.09	3611.43
765.277	3649.99
765.465	3940.03
765.652	4058.79
765.839	4167.1
766.026	4434.08
766.213	4499.76
766.4	4714.82
766.588	4982.39
766.775	5118.01
766.962	5253.44
767.149	5391.19
767.336	5602.57
767.523	5642.87
767.71	5834.1
767.897	5985.8
768.084	6016.61
768.271	6100.5
768.458	6251.24
768.645	6389.57
768.832	6361.87
769.019	6394.42
769.206	6422.32
769.392	6510.47
769.579	6601.15
769.766	6579.45
769.953	6631.76
770.14	6621.49
770.327	6635.44
770.513	6696.08
770.7	6758.27
770.887	6681.74
771.073	6664.5
771.26	6715.65
771.447	6718.56
771.634	6566.46
771.82	6756.34
772.007	6579.25
772.193	6735.61
772.38	6692.98
772.567	6599.4
772.753	6596.11
772.94	6718.94
773.126	6679.81
773.313	6683.68
773.499	6632.53
773.686	6670.51
773.872	6583.32
774.059	6644.74
774.245	6537.98
774.432	6595.33
774.618	6457.97
774.804	6506.02
774.991	6518.61
775.177	6482.57
775.363	6514.54
775.55	6514.54
775.736	6477.73
775.922	6511.83
776.109	6439.95
776.295	6488.77
776.481	6536.43
776.667	6512.22
776.853	6401
777.04	6431.23
777.226	6479.86
777.412	6517.64
777.598	6375.04
777.784	6384.34
777.97	6287.86
778.156	6375.62
778.342	6338.23
778.528	6317.69
778.715	6241.36
778.901	6295.41
779.087	6286.31
779.272	6297.74
779.458	6269.26
779.644	6253.56
779.83	6231.86
780.016	6357.22
780.202	6179.16
780.388	6253.95
780.574	6090.43
780.76	6183.04
780.946	6211.71
781.131	6154.75
781.317	6100.5
781.503	6032.89
781.689	6105.73
781.874	6199.31
782.06	6014.67
782.246	6121.82
782.432	6101.08
782.617	6046.83
782.803	6117.17
782.989	5950.93
783.174	5982.51
783.36	5889.32
783.545	5921.48
783.731	5972.63
783.916	5869.36
784.102	5904.24
784.288	5823.25
784.473	5887.57
784.659	5787.79
784.844	5859.29
785.029	5825.58
785.215	5815.11
785.4	5765.9
785.586	5876.92
785.771	5670.38
785.956	5797.29
786.142	5719.79
786.327	5722.31
786.512	5709.52
786.698	5690.73
786.883	5591.53
787.068	5698.28
787.254	5673.68
787.439	5591.92
787.624	5576.8
787.809	5609.16
787.994	5547.55
788.18	5633.18
788.365	5528.95
788.55	5480.32
788.735	5553.36
788.92	5464.43
789.105	5508.61
789.29	5529.72
789.475	5400.49
789.66	5461.14
789.845	5392.55
790.03	5364.46
790.215	5442.92
790.4	5458.62
790.585	5409.99
790.77	5401.66
790.955	5322.03
791.14	5357.48
791.325	5450.48
791.51	5240.07
791.695	5330.16
791.879	5373.18
792.064	5223.22
792.249	5371.63
792.434	5333.46
792.618	5289.09
792.803	5353.61
792.988	5257.31
793.173	5337.72
793.357	5298.97
793.542	5273.4
793.727	5275.91
793.911	5350.12
794.096	5333.07
794.281	5361.36
794.465	5428.97
794.65	5336.36
794.834	5363.88
795.019	5424.71
795.203	5395.65
795.388	5366.78
795.572	5445.25
795.757	5409.6
795.941	5419.29
796.126	5381.7
796.31	5318.35
796.494	5377.83
796.679	5337.33
796.863	5283.66
797.048	5453
797.232	5381.31
797.416	5426.84
797.601	5414.25
797.785	5440.6
797.969	5467.53
798.153	5384.22
798.338	5458.04
798.522	5472.37
798.706	5508.02
798.89	5546
799.074	5627.57
799.258	5535.34
799.443	5498.34
799.627	5477.61
799.811	5549.68
799.995	5485.16
800.179	5403.59
800.363	5392.16
800.547	5485.74
800.731	5485.16
800.915	5382.09
801.099	5363.29
801.283	5417.35
801.467	5451.06
801.651	5377.63
801.835	5407.47
802.019	5464.82
802.202	5447.96
802.386	5384.99
802.57	5355.74
802.754	5390.23
802.938	5385.77
803.121	5340.63
803.305	5446.41
803.489	5362.52
803.673	5391.19
803.856	5376.86
804.04	5358.64
804.224	5427.62
804.407	5367.75
804.591	5342.95
804.775	5363.1
804.958	5365.62
805.142	5455.91
805.326	5345.86
805.509	5383.06
805.693	5419.48
805.876	5402.63
806.06	5404.56
806.243	5450.67
806.427	5404.37
806.61	5523.91
806.794	5382.67
806.977	5442.73
807.16	5486.52
807.344	5440.02
807.527	5407.47
807.71	5346.83
807.894	5359.61
808.077	5350.12
808.26	5320.67
808.444	5304.98
808.627	5391.39
808.81	5252.28
808.993	5218.95
809.177	5216.63
809.36	5218.57
809.543	5193.18
809.726	5091.27
809.909	5085.27
810.092	5108.52
810.276	5076.74
810.459	5062.79
810.642	5061.82
810.825	4982.97
811.008	5026.17
811.191	4853.93
811.374	4941.7
811.557	4923.88
811.74	4962.43
811.923	4849.28
812.106	4844.83
812.289	4805.88
812.472	4759.58
812.654	4744.27
812.837	4714.82
813.02	4609.62
813.203	4557.31
813.386	4432.15
813.569	4376.15
813.751	4285.48
813.934	4333.72
814.117	4243.24
814.3	4199.07
814.482	4112.08
814.665	4025.08
814.848	3999.31
815.03	3925.5
815.213	3865.43
815.396	3859.23
815.578	3798.59
815.761	3762.56
815.943	3868.53
816.126	3688.54
816.309	3651.73
816.491	3556.6
816.674	3494.99
816.856	3523.47
817.039	3515.33
817.221	3593.8
817.403	3554.66
817.586	3546.14
817.768	3553.5
817.951	3453.33
818.133	3423.5
818.315	3487.05
818.498	3491.7
818.68	3548.27
818.862	3547.69
819.045	3604.65
819.227	3577.33
819.409	3512.81
819.591	3536.06
819.774	3521.73
819.956	3524.63
820.138	3593.22
820.32	3562.61
820.502	3707.14
820.684	3813.9
820.866	3770.69
821.048	3908.06
821.231	3959.79
821.413	3943.32
821.595	3887.91
821.777	3915.62
821.959	3915.03
822.141	3965.41
822.323	3805.37
822.505	3668.39
822.686	3538.97
822.868	3400.83
823.05	3214.83
823.232	3127.06
823.414	3047.24
823.596	3182.48
823.778	3116.8
823.96	3245.44
824.141	3279.16
824.323	3244.67
824.505	3402.19
824.687	3468.25
824.868	3572.68
825.05	3683.7
825.232	3777.09
825.413	3834.05
825.595	3782.32
825.777	3716.44
825.958	3713.73
826.14	3722.64
826.321	3791.04
826.503	3753.06
826.685	3807.7
826.866	3805.95
827.048	3821.26
827.229	3695.13
827.411	3633.71
827.592	3546.14
827.773	3574.43
827.955	3465.93
828.136	3467.87
828.318	3461.47
828.499	3483.75
828.68	3378.94
828.862	3413.23
829.043	3430.67
829.224	3407.61
829.406	3347.74
829.587	3359.37
829.768	3397.73
829.949	3372.15
830.131	3373.51
830.312	3473.29
830.493	3448.1
830.674	3412.07
830.855	3392.3
831.036	3427.76
831.218	3459.34
831.399	3479.88
831.58	3364.99
831.761	3405.87
831.942	3430.86
832.123	3380.49
832.304	3289.62
832.485	3317.71
832.666	3379.13
832.847	3420.59
833.028	3395.6
833.209	3417.3
833.389	3357.62
833.57	3259.97
833.751	3302.02
833.932	3410.32
834.113	3358.2
834.294	3322.75
834.475	3399.86
834.655	3415.94
834.836	3421.56
835.017	3412.07
835.198	3392.5
835.378	3408.39
835.559	3478.91
835.74	3432.02
835.92	3438.8
836.101	3380.49
836.281	3457.21
836.462	3439
836.643	3469.8
836.823	3463.02
837.004	3460.7
837.184	3504.68
837.365	3487.63
837.545	3468.45
837.726	3431.05
837.906	3488.6
838.087	3436.48
838.267	3484.92
838.448	3415.36
838.628	3383.2
838.808	3461.08
838.989	3491.12
839.169	3370.99
839.349	3464.18
839.53	3479.88
839.71	3505.65
839.89	3420.59
840.07	3479.3
840.251	3382.42
840.431	3519.79
840.611	3448.1
840.791	3414.97
840.971	3423.5
841.151	3384.36
841.332	3373.32
841.512	3453.33
841.692	3359.95
841.872	3446.94
842.052	3399.67
842.232	3354.91
842.412	3293.3
842.592	3337.67
842.772	3370.99
842.952	3371.77
843.132	3333.4
843.312	3294.85
843.492	3294.46
843.672	3351.23
843.851	3262.11
844.031	3270.63
844.211	3308.02
844.391	3269.27
844.571	3301.63
844.751	3279.74
844.93	3265.21
845.11	3233.04
845.29	3294.27
845.47	3316.16
845.649	3256.49
845.829	3306.47
846.009	3269.08
846.188	3336.31
846.368	3250.09
846.547	3285.94
846.727	3276.06
846.907	3167.56
847.086	3214.64
847.266	3262.11
847.445	3224.91
847.625	3165.43
847.804	3174.14
847.984	3194.68
848.163	3210.57
848.343	3144.31
848.522	3186.35
848.701	3162.33
848.881	3154.77
849.06	3159.23
849.239	3135.01
849.419	3132.68
849.598	3054.8
849.777	2976.52
849.957	2944.36
850.136	2913.55
850.315	2883.91
850.494	2874.22
850.674	2931.96
850.853	2930.22
851.032	2903.87
851.211	2957.34
851.39	2950.37
851.569	2884.49
851.748	2884.88
851.927	2977.88
852.107	2955.6
852.286	2928.28
852.465	2900.57
852.644	2980.4
852.823	2947.65
853.002	2894.95
853.181	2926.92
853.359	2942.62
853.538	2805.25
853.717	2893.02
853.896	2741.51
854.075	2637.46
854.254	2576.82
854.433	2451.66
854.611	2492.54
854.79	2411.17
854.969	2511.53
855.148	2537.88
855.327	2514.44
855.505	2585.35
855.684	2614.8
855.863	2641.15
856.041	2643.66
856.22	2713.61
856.399	2687.84
856.577	2811.26
856.756	2766.69
856.934	2926.15
857.113	2862.41
857.291	2812.42
857.47	2764.18
857.648	2786.26
857.827	2843.42
858.005	2828.69
858.184	2762.43
858.362	2884.11
858.541	2765.92
858.719	2744.41
858.898	2740.93
859.076	2757.78
859.254	2806.02
859.433	2738.6
859.611	2758.75
859.789	2667.88
859.967	2731.24
860.146	2784.91
860.324	2709.15
860.502	2675.83
860.68	2652.38
860.859	2655.48
861.037	2692.3
861.215	2696.56
861.393	2665.17
861.571	2681.25
861.749	2629.91
861.927	2659.55
862.105	2677.38
862.283	2637.27
862.461	2584.96
862.639	2632.04
862.817	2621.19
862.995	2660.13
863.173	2603.17
863.351	2615.57
863.529	2635.53
863.707	2619.25
863.885	2604.72
864.063	2551.44
864.241	2573.92
864.418	2634.95
864.596	2534.2
864.774	2485.95
864.952	2523.93
865.129	2555.12
865.307	2483.44
865.485	2469.68
865.663	2506.3
865.84	2391.79
866.018	2359.83
866.196	2219.16
866.373	2211.22
866.551	2180.42
866.728	2118.61
866.906	2203.66
867.084	2257.72
867.261	2253.46
867.439	2285.62
867.616	2318.17
867.794	2318.36
867.971	2347.43
868.149	2334.25
868.326	2393.15
868.503	2370.87
868.681	2313.71
868.858	2342.19
869.035	2311
869.213	2387.53
869.39	2339.68
869.567	2412.14
869.745	2368.16
869.922	2380.17
870.099	2369.9
870.276	2375.32
870.454	2360.21
870.631	2327.47
870.808	2314.68
870.985	2358.86
871.162	2383.46
871.339	2316.62
871.517	2291.24
871.694	2280.97
871.871	2293.37
872.048	2269.73
872.225	2331.15
872.402	2285.23
872.579	2246.29
872.756	2312.36
872.933	2195.72
873.11	2261.6
873.287	2285.23
873.463	2227.3
873.64	2221.88
873.817	2252.68
873.994	2197.46
874.171	2165.11
874.348	2203.86
874.524	2137.98
874.701	2203.86
874.878	2141.08
875.055	2194.95
875.231	2128.88
875.408	2178.67
875.585	2108.53
875.762	2147.48
875.938	2129.07
876.115	2094.2
876.291	2116.09
876.468	2130.23
876.645	2061.65
876.821	2130.82
876.998	2123.26
877.174	2097.49
877.351	2077.54
877.527	2058.94
877.704	2090.13
877.88	2097.1
878.057	2083.74
878.233	2142.83
878.409	2047.31
878.586	2069.98
878.762	2064.55
878.938	2060.29
879.115	1972.14
879.291	2050.22
879.467	1930.09
879.644	2043.24
879.82	2053.32
879.996	1985.51
880.172	1949.86
880.349	2030.07
880.525	1988.99
880.701	1936.68
880.877	1892.12
881.053	2007.01
881.229	1949.66
881.405	2028.52
881.581	1923.12
881.757	1962.84
881.933	1992.87
882.109	1985.12
882.285	1990.35
882.461	1929.51
882.637	1983.57
882.813	1977.95
882.989	1957.02
883.165	2021.93
883.341	1911.88
883.517	1991.51
883.693	1979.31
883.869	2028.9
884.044	1968.07
884.22	1995.97
884.396	2050.22
884.572	1971.56
884.747	2005.66
884.923	1996.16
885.099	1957.02
885.275	2016.12
885.45	1967.49
885.626	1933.19
885.801	1933.58
885.977	1932.42
886.153	1890.18
886.328	1982.21
886.504	1905.29
886.679	1950.24
886.855	1921.57
887.03	1968.46
887.206	1975.24
887.381	1928.16
887.557	1964.58
887.732	1957.99
887.908	1939.59
888.083	1956.44
888.258	1934.74
888.434	1926.22
888.609	1940.94
888.784	2029.87
888.96	1943.07
889.135	1940.56
889.31	1963.81
889.485	1981.82
889.661	1918.86
889.836	1994.22
890.011	1987.06
890.186	1948.89
890.361	1945.21
890.537	1967.29
890.712	1951.99
890.887	1951.79
891.062	1958.57
891.237	2016.51
891.412	1906.84
891.587	1943.85
891.762	1975.62
891.937	1978.14
892.112	1912.66
892.287	1925.64
892.462	1864.22
892.637	1853.95
892.812	1872.55
892.987	1852.59
893.161	1818.3
893.336	1862.67
893.511	1845.23
893.686	1822.56
893.861	1827.21
894.035	1806.68
894.21	1815.2
894.385	1733.63
894.56	1791.76
894.734	1701.08
894.909	1703.99
895.084	1675.32
895.258	1638.31
895.433	1641.41
895.608	1617.97
895.782	1563.91
895.957	1592.39
896.131	1586
896.306	1493.39
896.48	1491.64
896.655	1521.67
896.829	1422.86
897.004	1434.49
897.178	1424.99
897.353	1385.28
897.527	1447.66
897.701	1441.27
897.876	1364.55
898.05	1490.29
898.224	1427.32
898.399	1450.96
898.573	1333.93
898.747	1223.5
898.921	1274.65
899.096	1157.43
899.27	1166.15
899.444	1185.33
899.618	1208.58
899.792	1299.06
899.967	1288.21
900.141	1314.37
900.315	1193.85
900.489	1247.72
900.663	1247.72
900.837	1259.92
901.011	1193.66
901.185	1285.3
901.359	1249.27
901.533	1288.02
901.707	1267.67
901.881	1262.83
902.055	1217.88
902.229	1265.93
902.403	1342.46
902.576	1269.42
902.75	1267.48
902.924	1364.93
903.098	1363.19
903.272	1393.22
903.446	1461.61
903.619	1442.63
903.793	1513.73
903.967	1474.01
904.14	1535.82
904.314	1520.32
904.488	1517.8
904.661	1539.31
904.835	1515.28
905.009	1543.76
905.182	1575.34
905.356	1522.26
905.529	1517.22
905.703	1510.82
905.876	1470.14
906.05	1425.38
906.223	1400.2
906.397	1327.54
906.57	1302.35
906.744	1238.8
906.917	1248.1
907.09	1228.15
907.264	1226.6
907.437	1207.42
907.61	1145.03
907.784	1160.92
907.957	1181.65
908.13	1125.66
908.304	1176.03
908.477	1096.59
908.65	1093.11
908.823	1096.98
908.996	1158.98
909.17	1071.02
909.343	1104.15
909.516	1122.75
909.689	1081.67
909.862	1086.91
910.035	1083.22
910.208	1077.99
910.381	1044.48
910.554	1148.32
910.727	1076.83
910.9	1087.87
911.073	1070.82
911.246	1189.2
911.419	1173.51
911.592	1132.05
911.765	1087.1
911.938	1108.61
912.11	1108.22
912.283	1090.97
912.456	1131.47
912.629	1107.44
912.802	1037.69
912.974	981.51
913.147	948.76
913.32	880.57
913.493	910.01
913.665	954.19
913.838	954.38
914.01	953.8
914.183	1004.95
914.356	1033.04
914.528	1060.17
914.701	1074.12
914.873	1033.43
915.046	964.85
915.218	907.5
915.391	845.11
915.563	811.2
915.736	916.99
915.908	939.85
916.081	955.55
916.253	960.97
916.425	976.86
916.598	1005.34
916.77	979.18
916.942	937.91
917.115	860.03
917.287	925.51
917.459	872.23
917.632	842.98
917.804	814.88
917.976	898.97
918.148	898.58
918.32	940.24
918.493	981.7
918.665	1009.79
918.837	980.73
919.009	1038.86
919.181	1045.06
919.353	977.44
919.525	963.49
919.697	979.76
919.869	987.9
920.041	1062.3
920.213	1136.31
920.385	1073.92
920.557	1030.72
920.729	1030.14
920.901	994.29
921.073	980.93
921.244	966.98
921.416	1005.53
921.588	990.61
921.76	947.8
921.932	1009.21
922.103	987.9
922.275	1004.18
922.447	997.01
922.619	913.89
922.79	950.7
922.962	930.36
923.134	984.8
923.305	912.73
923.477	921.64
923.648	851.7
923.82	889.67
923.991	825.35
924.163	851.31
924.335	846.47
924.506	834.26
924.677	887.54
924.849	827.48
925.02	890.06
925.192	872.23
925.363	866.42
925.535	861.97
925.706	827.87
925.877	890.83
926.049	818.95
926.22	865.84
926.391	879.98
926.562	869.52
926.734	828.45
926.905	843.56
927.076	804.03
927.247	808.49
927.419	756.18
927.59	728.28
927.761	732.93
927.932	709.49
928.103	722.85
928.274	672.67
928.445	661.63
928.616	664.54
928.787	641.29
928.958	701.93
929.129	641.87
929.3	582.19
929.471	557.01
929.642	519.61
929.813	459.94
929.984	535.89
930.155	446.76
930.326	517.48
930.496	459.36
930.667	414.99
930.838	431.65
931.009	416.35
931.18	411.7
931.35	404.33
931.521	380.89
931.692	303.2
931.863	254.18
932.033	310.17
932.204	304.36
932.374	309.79
932.545	249.53
932.716	268.91
932.886	307.07
933.057	205.16
933.227	216.98
933.398	271.04
933.568	169.51
933.739	155.56
933.909	165.44
934.08	208.65
934.25	124.56
934.421	126.69
934.591	213.69
934.761	146.46
934.932	158.28
935.102	201.67
935.272	146.65
935.443	155.76
935.613	133.09
935.783	189.27
935.953	135.22
936.123	291.57
936.294	135.41
936.464	153.63
936.634	153.04
936.804	126.11
936.974	91.82
937.144	193.34
937.314	152.27
937.484	145.88
937.655	124.95
937.825	194.89
937.995	131.73
938.165	205.74
938.334	183.66
938.504	221.05
938.674	182.69
938.844	269.68
939.014	299.32
939.184	294.29
939.354	304.55
939.524	309.2
939.694	287.89
939.863	285.18
940.033	326.25
940.203	314.82
940.373	325.67
940.542	301.07
940.712	274.52
940.882	292.93
941.051	315.21
941.221	282.27
941.391	297.77
941.56	292.93
941.73	281.5
941.899	365.2
942.069	249.14
942.238	269.87
942.408	240.04
942.577	268.13
942.747	228.22
942.916	191.02
943.086	215.82
943.255	279.17
943.425	233.06
943.594	212.33
943.763	158.08
943.933	171.06
944.102	115.26
944.271	172.03
944.441	232.87
944.61	197.8
944.779	221.44
944.948	298.74
945.117	188.11
945.287	180.36
945.456	142.19
945.625	157.31
945.794	211.94
945.963	180.56
946.132	187.92
946.301	197.61
946.47	203.61
946.639	141.23
946.808	193.73
946.977	234.22
947.146	235.77
947.315	194.12
947.484	235
947.653	186.37
947.822	187.72
947.991	173.97
948.16	245.46
948.329	242.17
948.498	207.49
948.666	231.71
948.835	268.52
949.004	173.19
949.173	131.73
949.341	188.11
949.51	198.19
949.679	237.13
949.847	202.26
950.016	262.71
950.185	272.59
950.353	221.05
950.522	235.97
950.69	278.2
950.859	239.84
951.028	246.04
951.196	216.98
951.365	182.3
951.533	194.31
951.701	216.79
951.87	200.12
952.038	142
952.207	175.33
952.375	218.72
952.543	173.19
952.712	187.72
952.88	180.56
953.048	260.96
953.217	229.57
953.385	220.47
953.553	260.19
953.721	153.63
953.89	219.11
954.058	155.95
954.226	149.56
954.394	206.32
954.562	151.3
954.73	201.48
954.898	175.91
955.067	219.5
955.235	193.54
955.403	217.95
955.571	258.44
955.739	211.56
955.907	161.96
956.075	167.77
956.243	163.31
956.41	192.18
956.578	168.35
956.746	157.11
956.914	181.33
957.082	222.02
957.25	230.16
957.418	176.29
957.585	185.79
957.753	248.37
957.921	190.05
958.089	221.24
958.256	206.91
958.424	220.86
958.592	225.7
958.759	172.03
958.927	199.35
959.095	187.72
959.262	197.8
959.43	210.59
959.597	185.4
959.765	166.99
959.932	169.9
960.1	236.74
960.267	201.29
960.435	230.54
960.602	240.23
960.77	200.12
960.937	161.76
961.104	218.92
961.272	140.84
961.439	197.22
961.606	205.55
961.774	229.19
961.941	174.74
962.108	204
962.275	189.66
962.443	230.93
962.61	248.17
962.777	304.94
962.944	240.81
963.111	220.86
963.278	254.96
963.446	251.27
963.613	197.22
963.78	251.66
963.947	215.24
964.114	226.47
964.281	299.13
964.448	222.02
964.615	201.67
964.782	213.88
964.949	259.99
965.116	251.27
965.282	285.37
965.449	204.58
965.616	208.07
965.783	253.79
965.95	216.98
966.117	175.13
966.283	224.34
966.45	238.1
966.617	207.87
966.784	269.87
966.95	261.93
967.117	265.81
967.284	186.76
967.45	227.25
967.617	287.5
967.784	267.94
967.95	307.46
968.117	262.51
968.283	284.79
968.45	362.68
968.616	261.16
968.783	288.67
968.949	289.25
969.116	306.88
969.282	253.6
969.449	289.64
969.615	278.98
969.781	222.02
969.948	232.48
970.114	237.32
970.28	297.39
970.447	284.6
970.613	314.05
970.779	274.14
970.945	306.69
971.112	278.01
971.278	266.58
971.444	262.51
971.61	309.59
971.776	261.74
971.942	286.15
972.108	296.22
972.275	236.94
972.441	288.67
972.607	328.39
972.773	202.26
972.939	236.55
973.105	254.57
973.271	214.27
973.437	227.64
973.602	219.11
973.768	269.49
973.934	219.5
974.1	232.67
974.266	161.57
974.432	249.92
974.598	205.74
974.763	253.02
974.929	223.37
975.095	268.13
975.261	202.84
975.426	205.55
975.592	229.38
975.758	275.69
975.923	163.51
976.089	160.99
976.255	273.94
976.42	216.4
976.586	241.59
976.751	211.36
976.917	314.24
977.082	225.89
977.248	164.09
977.413	150.91
977.579	219.69
977.744	240.23
977.91	183.46
978.075	191.99
978.24	242.36
978.406	211.17
978.571	204.77
978.736	165.44
978.902	224.92
979.067	196.83
979.232	156.14
979.397	216.59
979.563	258.25
979.728	184.62
979.893	224.15
980.058	183.07
980.223	227.06
980.388	202.45
980.554	200.51
980.719	180.75
980.884	225.89
981.049	258.64
981.214	207.29
981.379	222.6
981.544	178.62
981.709	208.26
981.874	178.43
982.039	202.45
982.204	232.87
982.368	203.61
982.533	185.01
982.698	223.76
982.863	228.22
983.028	189.27
983.193	216.4
983.357	198.19
983.522	200.9
983.687	197.22
983.852	197.41
984.016	179.01
984.181	222.02
984.346	226.47
984.51	214.85
984.675	185.98
984.839	207.87
985.004	228.41
985.168	233.06
985.333	215.24
985.498	192.18
985.662	229.19
985.827	198.19
985.991	192.18
986.155	172.42
986.32	226.47
986.484	260.57
986.649	213.11
986.813	180.94
986.977	209.42
987.142	200.71
987.306	153.24
987.47	188.31
987.634	191.99
987.799	165.44
987.963	198.38
988.127	205.94
988.291	289.44
988.455	200.71
988.62	191.79
988.784	212.91
988.948	202.26
989.112	183.85
989.276	194.51
989.44	185.59
989.604	173.97
989.768	177.26
989.932	274.33
990.096	148.59
990.26	166.99
990.424	154.01
990.588	161.96
990.752	246.04
990.915	215.62
991.079	177.26
991.243	157.5
991.407	195.09
991.571	176.68
991.734	181.33
991.898	201.87
992.062	264.64
992.226	182.3
992.389	165.25
992.553	130.18
992.717	186.95
992.88	169.9
993.044	160.02
993.207	156.73
993.371	187.72
993.535	179.39
993.698	164.86
993.862	176.88
994.025	203.22
994.189	174.16
994.352	163.12
994.515	168.93
994.679	195.47
994.842	150.14
995.006	210.78
995.169	128.05
995.332	145.1
995.496	193.92
995.659	123.21
995.822	166.41
995.985	157.89
996.149	195.67
996.312	168.16
996.475	207.68
996.638	134.44
996.801	207.68
996.964	210.78
997.128	141.81
997.291	151.88
997.454	171.26
997.617	114.88
997.78	189.47
997.943	111
998.106	181.53
998.269	129.02
998.432	153.24
998.595	151.88
998.758	126.69
998.92	134.06
999.083	114.1
999.246	138.51
999.409	101.12
999.572	74.77
999.735	121.27
999.897	167.19
1000.06	124.95
1000.223	115.84
1000.386	173.58
1000.548	150.72
1000.711	137.54
1000.874	142.97
1001.036	89.5
1001.199	167.96
1001.361	92.6
1001.524	118.75
1001.687	149.56
1001.849	100.34
1002.012	145.29
1002.174	126.89
1002.337	138.32
1002.499	120.69
1002.661	150.53
1002.824	113.71
1002.986	114.68
1003.149	127.66
1003.311	92.4
1003.473	179.98
1003.636	111
1003.798	138.32
1003.96	139.68
1004.123	122.24
1004.285	104.99
1004.447	118.56
1004.609	104.99
1004.771	197.41
1004.933	100.73
1005.096	101.7
1005.258	54.81
1005.42	97.63
1005.582	157.89
1005.744	115.26
1005.906	91.82
1006.068	109.45
1006.23	57.33
1006.392	61.4
1006.554	94.73
1006.716	139.09
1006.878	113.91
1007.04	60.24
1007.202	76.32
1007.363	139.29
1007.525	107.71
1007.687	106.93
1007.849	133.67
1008.011	59.85
1008.172	69.93
1008.334	79.23
1008.496	101.12
1008.658	39.31
1008.819	76.32
1008.981	64.31
1009.143	86.01
1009.304	87.56
1009.466	112.36
1009.627	123.21
1009.789	185.79
1009.95	84.26
1010.112	63.53
1010.273	141.03
1010.435	67.99
1010.596	75.55
1010.758	78.26
1010.919	74.58
1011.081	48.23
1011.242	83.3
1011.403	89.69
1011.565	78.84
1011.726	112.94
1011.887	66.05
1012.049	91.24
1012.21	122.04
1012.371	153.24
1012.532	30.21
1012.693	91.24
1012.855	54.62
1013.016	96.86
1013.177	134.06
1013.338	71.09
1013.499	138.13
1013.66	92.6
1013.821	117.98
1013.982	91.82
1014.143	75.55
1014.304	66.25
1014.465	96.86
1014.626	110.23
1014.787	65.86
1014.948	149.17
1015.109	0.76
1015.27	120.3
1015.431	78.26
1015.592	55.01
1015.752	132.7
1015.913	68.96
1016.074	71.48
1016.235	110.23
1016.395	61.01
1016.556	61.6
1016.717	59.46
1016.877	107.51
1017.038	82.71
1017.199	74.77
1017.359	66.25
1017.52	70.31
1017.681	71.67
1017.841	59.85
1018.002	70.12
1018.162	56.75
1018.323	118.17
1018.483	63.15
1018.644	58.3
1018.804	39.7
1018.964	17.42
1019.125	17.81
1019.285	89.88
1019.446	21.3
1019.606	35.44
1019.766	-1.18
1019.926	76.51
1020.087	78.06
1020.247	21.68
1020.407	74.38
1020.567	89.69
1020.728	55.59
1020.888	26.14
1021.048	22.46
1021.208	21.68
1021.368	57.91
1021.528	95.89
1021.688	105.19
1021.848	106.74
1022.008	74.77
1022.168	38.73
1022.328	59.46
1022.488	76.32
1022.648	51.71
1022.808	54.04
1022.968	64.7
1023.128	10.64
1023.288	34.47
1023.448	32.73
1023.608	102.28
1023.767	58.5
1023.927	31.18
1024.087	24.4
1024.247	4.44
1024.406	27.3
1024.566	21.1
1024.726	2.89
1024.885	49.97
1025.045	75.35
1025.205	54.04
1025.364	53.85
1025.524	59.08
1025.683	28.08
1025.843	37.57
1026.003	34.47
1026.162	111.39
1026.321	67.41
1026.481	75.93
1026.64	40.28
1026.8	45.51
1026.959	61.4
1027.119	60.24
1027.278	20.52
1027.437	23.23
1027.597	47.65
1027.756	64.11
1027.915	70.9
1028.074	50.16
1028.234	5.41
1028.393	70.7
1028.552	29.82
1028.711	-17.84
1028.87	53.07
1029.03	23.23
1029.189	39.12
1029.348	-2.73
1029.507	8.31
1029.666	40.67
1029.825	8.12
1029.984	38.73
1030.143	46.68
1030.302	32.73
1030.461	-15.71
1030.62	28.46
1030.779	54.04
1030.938	-5.25
1031.097	21.49
1031.255	67.6
1031.414	85.62
1031.573	71.48
1031.732	-14.55
1031.891	14.51
1032.049	83.49
1032.208	61.21
1032.367	52.49
1032.525	11.22
1032.684	-2.73
1032.843	65.08
1033.001	18.78
1033.16	153.82
1033.319	73.61
1033.477	67.6
1033.636	-4.08
1033.794	1.73
1033.953	52.88
1034.111	61.6
1034.27	32.92
1034.428	46.1
1034.587	18.2
1034.745	21.68
1034.903	21.1
1035.062	48.81
1035.22	1.53
1035.378	48.23
1035.537	1.15
1035.695	47.45
1035.853	48.42
1036.011	73.41
1036.17	41.45
1036.328	-18.81
1036.486	40.86
1036.644	43
1036.802	-46.9
1036.96	8.12
1037.119	2.5
1037.277	3.67
1037.435	6.96
1037.593	17.61
1037.751	14.51
1037.909	66.05
1038.067	66.05
