Data from tests_FLMT105791__5__15-40-01-264.txt Node

Date: Mon Mar 20 15:40:01 GMT 2023
User: antho
Spectrometer: FLMT10579
Trigger mode: 0
Integration Time (sec): 1.000000E-1
Scans to average: 10
Electric dark correction enabled: true
Nonlinearity correction enabled: false
Boxcar width: 0
XAxis mode: Wavelengths
Number of Pixels in Spectrum: 3648
>>>>>Begin Spectral Data<<<<<
345.248	-142.1
345.464	-142.1
345.681	-142.1
345.898	-170.58
346.114	-143.45
346.331	-49.68
346.548	21.04
346.764	-21.39
346.981	-6.67
347.197	-7.25
347.414	3.79
347.631	-23.52
347.847	76.06
348.064	10.38
348.28	28.01
348.497	-34.18
348.713	3.41
348.93	28.01
349.146	147.36
349.363	240.94
349.579	236.1
349.796	236.87
350.012	211.1
350.229	298.1
350.445	271.17
350.661	267.29
350.878	307.01
351.094	320.76
351.311	323.86
351.527	307.01
351.743	272.52
351.96	327.16
352.176	358.16
352.392	354.86
352.609	333.75
352.825	277.56
353.041	319.41
353.257	307.59
353.474	316.31
353.69	369.78
353.906	351.38
354.122	345.37
354.339	446.12
354.555	391.09
354.771	389.93
354.987	463.94
355.203	457.55
355.42	421.71
355.636	398.07
355.852	397.29
356.068	409.31
356.284	373.27
356.5	447.09
356.716	411.83
356.932	366.68
357.148	436.24
357.364	379.47
357.58	401.56
357.796	428.88
358.012	396.71
358.228	393.81
358.444	315.53
358.66	398.84
358.876	371.72
359.092	329.1
359.308	388.96
359.524	448.83
359.74	462.78
359.956	456.78
360.172	553.46
360.388	595.3
360.604	515.67
360.819	608.87
361.035	518.97
361.251	538.15
361.467	476.54
361.683	534.08
361.898	533.31
362.114	560.24
362.33	521.68
362.546	578.25
362.762	586.2
362.977	640.64
363.193	592.79
363.409	635.8
363.624	605.38
363.84	611.97
364.056	600.92
364.271	699.54
364.487	649.17
364.703	683.27
364.918	631.73
365.134	671.25
365.35	687.14
365.565	816.56
365.781	749.91
365.996	817.34
366.212	912.86
366.427	866.55
366.643	882.24
366.858	829.35
367.074	839.04
367.289	929.32
367.505	964.2
367.72	870.43
367.936	847.37
368.151	902.98
368.367	875.85
368.582	845.82
368.798	795.25
369.013	908.79
369.228	877.01
369.444	907.82
369.659	911.5
369.874	911.89
370.09	1005.66
370.305	921.96
370.52	964.2
370.736	1031.24
370.951	915.18
371.166	928.55
371.381	945.02
371.597	972.14
371.812	928.55
372.027	914.79
372.242	944.82
372.458	982.41
372.673	864.42
372.888	853.38
373.103	903.36
373.318	975.82
373.533	885.15
373.749	852.99
373.964	764.83
374.179	822.18
374.394	787.89
374.609	856.09
374.824	785.76
375.039	868.1
375.254	802.23
375.469	907.24
375.684	908.98
375.899	1011.86
376.114	1051.97
376.329	1032.79
376.544	1001.4
376.759	1011.86
376.974	964.78
377.189	992.87
377.404	1026.59
377.619	1144.38
377.834	1104.47
378.049	1159.3
378.264	1226.15
378.478	1323.02
378.693	1301.13
378.908	1324.38
379.123	1271.87
379.338	1264.31
379.553	1165.31
379.767	1139.73
379.982	1109.51
380.197	1132.18
380.412	1106.22
380.626	1209.48
380.841	1315.85
381.056	1318.18
381.271	1435.78
381.485	1346.85
381.7	1260.44
381.915	1244.75
382.129	1109.9
382.344	1097.3
382.559	1043.64
382.773	1046.93
382.988	924.29
383.202	923.9
383.417	877.4
383.632	947.34
383.846	901.43
384.061	884.38
384.275	889.22
384.49	1055.26
384.704	1147.68
384.919	1201.54
385.133	1314.3
385.348	1408.27
385.562	1329.99
385.777	1376.88
385.991	1313.72
386.206	1275.74
386.42	1288.14
386.634	1346.27
386.849	1373.59
387.063	1438.1
387.277	1426.09
387.492	1371.65
387.706	1385.21
387.92	1399.36
388.135	1444.11
388.349	1436.36
388.563	1461.74
388.778	1455.15
388.992	1453.22
389.206	1485.38
389.42	1604.15
389.635	1584.97
389.849	1765.73
390.063	1873.07
390.277	1855.24
390.491	1872.68
390.706	1868.22
390.92	1894.19
391.134	1907.36
391.348	1969.75
391.562	2025.35
391.776	2115.83
391.99	2095.3
392.205	2172.79
392.419	2021.48
392.633	1937.59
392.847	1811.26
393.061	1655.88
393.275	1534.2
393.489	1255.4
393.703	1048.87
393.917	1067.66
394.131	1053.9
394.345	1286.59
394.559	1494.87
394.773	1693.08
394.986	1964.52
395.2	2056.16
395.414	2210.19
395.628	2277.61
395.842	2400.06
396.056	2400.64
396.27	2217.16
396.484	2160.78
396.697	1935.26
396.911	1673.9
397.125	1472.01
397.339	1354.41
397.553	1409.82
397.766	1618.87
397.98	1921.31
398.194	2287.3
398.408	2477.17
398.621	2724.59
398.835	2893.53
399.049	2944.49
399.262	3139.01
399.476	3164.59
399.69	3227.75
399.903	3307.96
400.117	3243.25
400.331	3320.17
400.544	3394.37
400.758	3488.14
400.971	3458.89
401.185	3506.74
401.398	3456.18
401.612	3613.89
401.826	3641.98
402.039	3689.45
402.253	3762.88
402.466	3839.41
402.68	3859.17
402.893	3949.65
403.106	3799.11
403.32	3727.81
403.533	3718.7
403.747	3634.42
403.96	3793.88
404.174	3831.85
404.387	3877.77
404.6	3886.68
404.814	3902.57
405.027	3796.59
405.24	3761.13
405.454	3756.48
405.667	3895.98
405.88	3911.87
406.094	4003.9
406.307	3913.81
406.52	3781.67
406.733	3733.62
406.947	3763.27
407.16	3855.49
407.373	3919.23
407.586	3954.88
407.799	3982.78
408.012	3971.93
408.226	4016.11
408.439	4228.84
408.652	4209.66
408.865	4407.09
409.078	4525.27
409.291	4513.84
409.504	4509.58
409.717	4584.37
409.93	4502.02
410.143	4264.1
410.357	4068.61
410.57	3870.8
410.783	3937.25
410.996	3988.98
411.209	4166.07
411.421	4552.98
411.634	4657.99
411.847	4717.28
412.06	4772.49
412.273	4872.27
412.486	4846.7
412.699	4853.48
412.912	4928.27
413.125	4770.94
413.338	4775.4
413.55	4658.57
413.763	4663.22
413.976	4690.73
414.189	4759.51
414.402	4884.67
414.615	5079.97
414.827	4859.49
415.04	4906.57
415.253	4928.27
415.466	5011.77
415.678	5044.71
415.891	4941.44
416.104	4850.38
416.316	4927.69
416.529	5064.47
416.742	5245.82
416.954	5275.46
417.167	5219.28
417.38	5159.6
417.592	5016.42
417.805	4923.42
418.017	4894.36
418.23	4932.14
418.442	4889.13
418.655	4984.65
418.868	4940.86
419.08	5021.85
419.293	5060.21
419.505	5181.69
419.718	5102.83
419.93	5185.76
420.142	5144.1
420.355	5071.45
420.567	4986.78
420.78	5114.07
420.992	5147.59
421.205	5350.83
421.417	5579.45
421.629	5641.06
421.842	5603.86
422.054	5542.64
422.266	5621.69
422.479	5528.3
422.691	5364.39
422.903	5317.89
423.115	5104
423.328	5095.67
423.54	5103.61
423.752	5212.11
423.964	5460.68
424.177	5500.4
424.389	5431.62
424.601	5554.07
424.813	5600.96
425.025	5641.26
425.238	5553.88
425.45	5588.75
425.662	5506.99
425.874	5775.52
426.086	5542.83
426.298	5653.85
426.51	5587.78
426.722	5581.2
426.934	5645.91
427.146	5634.28
427.358	5638.93
427.57	5616.46
427.782	5397.91
427.994	5317.89
428.206	5371.17
428.418	5756.34
428.63	5877.24
428.842	5848.95
429.054	5696.48
429.266	5580.42
429.478	5480.64
429.69	5479.67
429.902	5299.68
430.114	5289.61
430.325	4949.77
430.537	4724.45
430.749	4497.57
430.961	4292.39
431.173	4317
431.384	4401.28
431.596	4568.09
431.808	5147.98
432.02	5764.48
432.231	6267.84
432.443	6737.48
432.655	6468.36
432.867	6333.71
433.078	6273.65
433.29	6349.79
433.502	6544.12
433.713	6714.81
433.925	6874.26
434.136	6591.59
434.348	6192.86
434.56	6047.93
434.771	6218.24
434.983	6091.33
435.194	6577.64
435.406	6878.91
435.617	6891.9
435.829	7025.19
436.04	7080.61
436.252	6968.23
436.463	7280.17
436.675	7508.21
436.886	7660.3
437.098	7771.7
437.309	7809.48
437.521	7548.12
437.732	7318.33
437.943	7236.57
438.155	7253.62
438.366	7165.08
438.578	7208.87
438.789	6884.53
439	6744.84
439.211	6784.56
439.423	6836.48
439.634	7169.54
439.845	7408.62
440.057	7498.52
440.268	7752.71
440.479	7743.03
440.69	7715.32
440.902	7514.79
441.113	7485.34
441.324	7656.03
441.535	7884.46
441.746	8103.59
441.957	8158.62
442.168	8309.35
442.38	8352.94
442.591	8442.65
442.802	8202.6
443.013	8544.56
443.224	8662.75
443.435	8460.47
443.646	8430.25
443.857	8295.98
444.068	8434.7
444.279	8356.04
444.49	8738.69
444.701	8562.77
444.912	8957.82
445.123	8915.2
445.334	8556.96
445.545	8800.89
445.756	8499.8
445.967	8447.88
446.178	8270.02
446.388	8122.19
446.599	8221.2
446.81	8333.38
447.021	8322.53
447.232	8473.84
447.443	8713.12
447.653	8956.47
447.864	9120.18
448.075	9185.09
448.286	9079.11
448.496	9007.23
448.707	9102.55
448.918	8895.63
449.129	8999.87
449.339	9128.13
449.55	9150.79
449.761	9131.23
449.971	8985.72
450.182	9260.07
450.393	9396.47
450.603	9287
450.814	9676.24
451.024	9630.32
451.235	9982.36
451.446	10013.16
451.656	9832.4
451.867	9784.35
452.077	9499.15
452.288	9654.54
452.498	9523.95
452.709	9594.48
452.919	9238.95
453.13	9071.16
453.34	9003.55
453.55	8714.67
453.761	9106.62
453.971	8930.31
454.182	9164.55
454.392	9298.43
454.602	9650.08
454.813	9694.45
455.023	9486.17
455.233	9422.62
455.444	9553.4
455.654	9124.25
455.864	9404.41
456.075	9578.01
456.285	9488.88
456.495	9563.09
456.705	9723.71
456.916	9969.18
457.126	10032.73
457.336	9882
457.546	9767.88
457.756	9917.45
457.967	10124.18
458.177	9904.08
458.387	9952.71
458.597	9696
458.807	9849.83
459.017	9652.99
459.227	9631.87
459.437	9656.67
459.647	9898.47
459.857	9900.21
460.068	10109.46
460.278	10035.83
460.488	9985.46
460.698	10072.06
460.908	10063.34
461.117	10421.97
461.327	10392.71
461.537	10485.52
461.747	10528.72
461.957	10517.29
462.167	10678.88
462.377	10690.89
462.587	10533.76
462.797	10820.7
463.007	10710.85
463.216	10935.98
463.426	11144.45
463.636	10942.38
463.846	10676.55
464.056	10715.69
464.265	10529.31
464.475	10621.14
464.685	10921.06
464.895	10723.83
465.104	10527.95
465.314	10905.18
465.524	10617.85
465.733	10623.08
465.943	10933.85
466.153	11174.48
466.362	11215.95
466.572	11181.85
466.782	10970.08
466.991	11188.82
467.201	10972.21
467.41	10722.08
467.62	11176.03
467.829	11084
468.039	11338.01
468.249	11319.02
468.458	11616.23
468.668	11386.06
468.877	11662.53
469.086	11712.91
469.296	12003.92
469.505	12188.36
469.715	11880.89
469.924	11837.29
470.134	12048.67
470.343	11772.78
470.552	11806.68
470.762	11713.88
470.971	11869.46
471.18	11924.09
471.39	12087.81
471.599	11900.46
471.808	12149.23
472.018	12601.43
472.227	12731.24
472.436	13211.54
472.645	13240.22
472.855	13177.64
473.064	13559.9
473.273	13643.79
473.482	13075.14
473.691	13359.18
473.901	13237.89
474.11	13024.58
474.319	13468.06
474.528	13491.12
474.737	14188.42
474.946	13928.99
475.155	14128.94
475.364	14401.73
475.573	14135.33
475.783	14436.99
475.992	14386.62
476.201	14326.17
476.41	14477.68
476.619	14315.13
476.828	14286.65
477.037	14308.54
477.245	14377.51
477.454	14587.73
477.663	14998.86
477.872	15418.71
478.081	15619.05
478.29	15510.35
478.499	15809.31
478.708	16049.16
478.917	16012.55
479.125	15562.08
479.334	15644.62
479.543	16178.2
479.752	16219.47
479.961	16177.43
480.169	16580.42
480.378	16717.01
480.587	17085.91
480.796	16836.17
481.004	16894.87
481.213	17036.11
481.422	17159.53
481.63	17491.81
481.839	17448.6
482.048	17724.5
482.256	17682.84
482.465	18163.53
482.674	17887.44
482.882	17983.73
483.091	18133.69
483.299	17818.66
483.508	18296.83
483.716	18545.6
483.925	18518.86
484.134	18028.49
484.342	18378.39
484.551	18366.19
484.759	18130.98
484.967	18886.21
485.176	18664.36
485.384	18835.83
485.593	18552.96
485.801	18421.79
486.01	17795.21
486.218	16965.98
486.426	16225.09
486.635	15723.86
486.843	15733.55
487.051	16269.46
487.26	16534.7
487.468	17033.79
487.676	17537.34
487.885	18141.25
488.093	18494.06
488.301	19172.18
488.509	19124.9
488.717	19487.4
488.926	19516.47
489.134	19412.81
489.342	19344.81
489.55	19115.41
489.758	19452.53
489.967	20072.71
490.175	19961.89
490.383	20862.04
490.591	21206.33
490.799	21043.58
491.007	20886.45
491.215	20938.96
491.423	20794.03
491.631	20857.97
491.839	20680.89
492.047	20592.54
492.255	20192.45
492.463	20185.86
492.671	19688.51
492.879	20257.55
493.087	20605.32
493.295	20805.66
493.503	21153.63
493.711	21683.14
493.919	21485.91
494.127	21401.43
494.334	21286.15
494.542	21388.06
494.75	21964.66
494.958	21684.5
495.166	22321.15
495.374	22471.5
495.581	22661.56
495.789	22570.12
495.997	22536.4
496.205	21684.88
496.412	22082.65
496.62	22506.95
496.828	22245.2
497.035	22557.13
497.243	22640.25
497.451	22740.23
497.658	22776.84
497.866	22609.25
498.074	22987.64
498.281	22441.27
498.489	22497.07
498.696	22081.29
498.904	21893.36
499.112	21923.58
499.319	22345.17
499.527	22613.13
499.734	22787.5
499.942	22569.34
500.149	22714.46
500.357	22833.42
500.564	22251.79
500.771	22251.01
500.979	21901.69
501.186	21684.69
501.394	22206.65
501.601	21563.6
501.808	21622.3
502.016	21729.45
502.223	21681.59
502.43	21720.34
502.638	21768.97
502.845	22247.33
503.052	22407.17
503.26	22515.87
503.467	22735.96
503.674	22758.44
503.881	22888.25
504.089	22453.67
504.296	22378.5
504.503	22127.79
504.71	22080.9
504.917	22285.11
505.125	22523.03
505.332	22759.6
505.539	22729.18
505.746	23275.55
505.953	23513.47
506.16	23611.12
506.367	23692.3
506.574	24028.45
506.781	24028.06
506.988	23915.5
507.195	23779.49
507.402	23663.24
507.609	23589.03
507.816	23242.22
508.023	23225.76
508.23	23098.85
508.437	22851.82
508.644	22833.81
508.851	22988.03
509.058	23436.36
509.265	23588.45
509.472	23772.12
509.679	24008.49
509.885	23878.1
510.092	23923.63
510.299	23816.3
510.506	23334.06
510.713	23442.37
510.92	23434.81
511.126	23669.82
511.333	23774.84
511.54	23893.8
511.746	23957.54
511.953	24105.56
512.16	24519.41
512.367	24276.06
512.573	24089.09
512.78	24061.58
512.987	23782
513.193	23501.46
513.4	23214.91
513.606	23467.75
513.813	23544.86
514.02	23320.11
514.226	23225.56
514.433	23263.15
514.639	23035.88
514.846	23139.73
515.052	23090.91
515.259	23289.69
515.465	23367
515.672	23358.47
515.878	23473.75
516.085	23759.14
516.291	23697.14
516.497	23704.89
516.704	23025.61
516.91	22549.97
517.117	21543.84
517.323	20858.36
517.529	20491.21
517.736	20481.33
517.942	20681.08
518.148	21320.83
518.354	21567.67
518.561	21608.94
518.767	21463.82
518.973	21455.29
519.179	21806.56
519.386	22173.13
519.592	22263.03
519.798	22191.53
520.004	23162.01
520.21	23282.52
520.417	23390.44
520.623	23593.88
520.829	23552.41
521.035	23717.29
521.241	23455.15
521.447	23612.28
521.653	23901.93
521.859	23848.46
522.065	24019.34
522.271	24217.74
522.477	24131.91
522.683	24432.8
522.889	23868.42
523.095	23647.93
523.301	23745.39
523.507	23500.88
523.713	23518.7
523.919	23500.68
524.125	24079.6
524.331	24424.47
524.537	24803.25
524.742	24966.38
524.948	24843.16
525.154	25085.92
525.36	24892.56
525.566	24455.86
525.772	24835.41
525.977	24694.94
526.183	24452.76
526.389	24607.95
526.595	23842.07
526.8	23631.46
527.006	22790.41
527.212	22144.65
527.417	22047.97
527.623	22095.82
527.829	22348.08
528.034	23025.23
528.24	23006.63
528.446	23648.32
528.651	24179.57
528.857	24327.6
529.062	24438.03
529.268	24810.8
529.473	25107.24
529.679	25392.82
529.884	25283.93
530.09	25156.06
530.295	24545.76
530.501	24912.91
530.706	24933.44
530.912	25073.72
531.117	25191.9
531.323	25188.61
531.528	25726.84
531.733	25576.88
531.939	25428.47
532.144	25332.76
532.35	25198.88
532.555	25179.5
532.76	24500.42
532.966	24405.87
533.171	24110.41
533.376	23862.41
533.581	23932.93
533.787	24319.27
533.992	24599.42
534.197	24210.38
534.402	24888.49
534.607	24773.02
534.813	24678.08
535.018	24763.14
535.223	25111.89
535.428	24984.01
535.633	25244.6
535.838	25603.62
536.043	25711.34
536.249	25984.52
536.454	25756.48
536.659	25811.12
536.864	25676.08
537.069	25300.59
537.274	24981.11
537.479	24996.41
537.684	24886.56
537.889	24831.73
538.094	25418.78
538.299	25232.2
538.504	25506.16
538.708	25314.74
538.913	25794.07
539.118	25722.38
539.323	25487.95
539.528	25264.56
539.733	25011.91
539.938	25151.41
540.142	24825.14
540.347	24886.94
540.552	24669.17
540.757	24273.73
540.962	24612.02
541.166	24231.89
541.371	24255.72
541.576	24381.85
541.781	24399.86
541.985	25152.38
542.19	24650.77
542.395	25419.56
542.599	25532.9
542.804	25028.38
543.008	25467.22
543.213	25285.87
543.418	24976.84
543.622	25271.73
543.827	24855.94
544.031	25244.41
544.236	25382.74
544.44	25824.49
544.645	25711.92
544.849	25681.11
545.054	25775.28
545.258	25790.97
545.463	25797.36
545.667	25367.63
545.872	25879.51
546.076	25620.08
546.281	25564.87
546.485	25593.73
546.689	25614.66
546.894	25550.53
547.098	25774.69
547.302	25648.95
547.507	25661.93
547.711	25774.11
547.915	25517.01
548.119	25197.13
548.324	25137.85
548.528	25271.53
548.732	25329.66
548.936	25593.93
549.141	25460.63
549.345	25641.01
549.549	25706.11
549.753	25931.63
549.957	25780.89
550.161	25889.39
550.366	25964.76
550.57	25685.76
550.774	25633.26
550.978	25824.49
551.182	25537.94
551.386	25451.91
551.59	25577.46
551.794	25439.32
551.998	25637.33
552.202	25610.98
552.406	25738.08
552.61	25886.49
552.814	25843.67
553.018	25666
553.222	25439.51
553.426	25446.49
553.63	25585.6
553.833	25609.43
554.037	25366.86
554.241	25398.63
554.445	25677.05
554.649	25646.82
554.853	25448.23
555.056	25778.38
555.26	25956.04
555.464	25701.07
555.668	25787.29
555.871	25771.59
556.075	25855.1
556.279	25706.69
556.483	25611.37
556.686	25248.28
556.89	25449.59
557.094	25380.61
557.297	25003.39
557.501	24948.94
557.704	24651.54
557.908	25037.29
558.112	24932.86
558.315	25177.76
558.519	25013.46
558.722	24635.65
558.926	24670.92
559.129	24056.74
559.333	24505.65
559.536	24262.5
559.74	24041.43
559.943	23907.55
560.147	24235.57
560.35	24023.99
560.553	24416.33
560.757	24497.51
560.96	24495.77
561.164	24765.66
561.367	24966.57
561.57	24876.68
561.774	24708.7
561.977	24494.8
562.18	24581.79
562.384	24620.54
562.587	24443.07
562.79	24771.08
562.993	24512.43
563.197	24407.61
563.4	24710.25
563.603	24732.33
563.806	24837.93
564.009	24801.31
564.212	24765.46
564.416	24543.82
564.619	24549.63
564.822	24294.08
565.025	24515.34
565.228	24532.77
565.431	24682.54
565.634	24311.71
565.837	24166.79
566.04	24085.99
566.243	23831.41
566.446	23655.68
566.649	23890.31
566.852	23714.19
567.055	24024.19
567.258	24013.34
567.461	24281.29
567.664	24266.37
567.867	24432.03
568.07	24158.26
568.273	24333.41
568.475	24421.95
568.678	23902.13
568.881	23925.96
569.084	23590.19
569.287	23376.68
569.489	23627.39
569.692	23759.92
569.895	23812.23
570.098	23553.38
570.3	23673.51
570.503	23656.84
570.706	23436.36
570.909	23324.95
571.111	23100.21
571.314	23023.68
571.516	23026.2
571.719	23152.33
571.922	23008.57
572.124	23296.67
572.327	23472.01
572.529	23543.31
572.732	23711.67
572.935	23795.76
573.137	24222
573.34	23823.85
573.542	24194.3
573.745	23948.05
573.947	24011.4
574.15	23800.41
574.352	23922.08
574.554	24098.39
574.757	23757.79
574.959	23430.74
575.162	23836.06
575.364	23434.03
575.566	23506.88
575.769	23234.28
575.971	23425.32
576.173	22859.77
576.376	23156.39
576.578	23392.38
576.78	23284.27
576.982	23159.49
577.185	23350.14
577.387	23320.5
577.589	23595.62
577.791	23301.9
577.993	23389.47
578.196	23373.78
578.398	23102.92
578.6	23009.73
578.802	22926.61
579.004	22719.88
579.206	22852.6
579.408	23174.99
579.61	22912.66
579.812	23322.44
580.014	22954.32
580.216	22973.11
580.418	23301.9
580.62	23358.67
580.822	23259.08
581.024	23245.52
581.226	23430.93
581.428	23258.69
581.63	23551.64
581.832	23362.74
582.034	23630.11
582.236	23480.92
582.438	23558.61
582.64	23615.38
582.841	23659.17
583.043	24056.16
583.245	23592.33
583.447	23821.14
583.649	23744.8
583.85	23776
584.052	23742.09
584.254	23604.92
584.456	23667.69
584.657	23629.91
584.859	23823.66
585.061	23430.93
585.262	23536.91
585.464	23351.89
585.666	23424.73
585.867	23052.55
586.069	23069.21
586.27	22858.8
586.472	22887.67
586.674	22888.83
586.875	22935.33
587.077	22926.22
587.278	23088.58
587.48	22990.16
587.681	23274.77
587.883	23145.16
588.084	22856.67
588.285	22934.36
588.487	22522.84
588.688	22644.51
588.89	21872.04
589.091	21540.74
589.292	21095.12
589.494	20524.92
589.695	20279.64
589.896	19966.35
590.098	20196.71
590.299	20157.57
590.5	20469.7
590.702	20930.43
590.903	21078.84
591.104	21434.95
591.305	21861.19
591.507	21675.97
591.708	21796.87
591.909	21740.68
592.11	21666.67
592.311	21972.6
592.512	21613.59
592.714	21641.48
592.915	21892
593.116	21763.16
593.317	22084.39
593.518	21955.74
593.719	22113.84
593.92	22071.22
594.121	22093.69
594.322	21993.52
594.523	21937.72
594.724	21749.01
594.925	21752.11
595.126	21488.04
595.327	21522.52
595.528	21702.9
595.729	21681.59
595.929	21667.25
596.13	21716.08
596.331	22150.85
596.532	21835.04
596.733	22144.45
596.934	22107.06
597.135	22169.06
597.335	22123.33
597.536	22076.45
597.737	22042.35
597.938	21948.38
598.138	21933.46
598.339	21964.07
598.54	22026.46
598.74	21697.67
598.941	21780.98
599.142	21993.72
599.342	21957.49
599.543	21841.43
599.744	21935.59
599.944	22005.15
600.145	22140.97
600.345	21948.38
600.546	21975.7
600.746	21919.9
600.947	22142.71
601.147	21631.41
601.348	21915.25
601.548	21745.91
601.749	21681.01
601.949	21461.49
602.15	21623.08
602.35	21357.84
602.551	21414.99
602.751	21483.97
602.951	21648.46
603.152	21503.92
603.352	21749.21
603.552	21810.43
603.753	21905.37
603.953	22152.01
604.153	21965.62
604.354	22065.98
604.554	21968.72
604.754	22064.05
604.954	22035.76
605.155	22163.44
605.355	21897.23
605.555	22020.07
605.755	22029.56
605.955	21921.06
606.155	21867.59
606.356	21892.77
606.556	21832.33
606.756	21904.79
606.956	21797.45
607.156	21886.57
607.356	21750.56
607.556	21729.45
607.756	21796.87
607.956	21802.49
608.156	21715.69
608.356	21411.31
608.556	21686.43
608.756	21400.46
608.956	21573.87
609.156	21380.12
609.356	21378.18
609.556	21205.94
609.755	21355.9
609.955	21111.39
610.155	21124.95
610.355	21369.46
610.555	20999.02
610.755	20829.49
610.954	20855.45
611.154	21050.36
611.354	21067.02
611.554	20885.68
611.753	21172.04
611.953	20907.96
612.153	21026.92
612.352	20961.63
612.552	20730.87
612.752	20743.47
612.951	20990.11
613.151	20663.06
613.351	20855.26
613.55	20774.66
613.75	20751.41
613.949	20399.18
614.149	20516.59
614.348	20450.71
614.548	20407.51
614.747	20418.36
614.947	20540.81
615.146	20389.88
615.346	20669.65
615.545	20610.75
615.745	20528.79
615.944	20419.91
616.144	20538.48
616.343	20051.59
616.542	20251.93
616.742	19940.97
616.941	19921.2
617.14	19638.53
617.34	19848.94
617.539	19841.77
617.738	20002.77
617.938	20211.82
618.137	20025.05
618.336	20152.54
618.535	20344.73
618.734	20357.52
618.934	20128.71
619.133	20280.6
619.332	20425.14
619.531	19980.68
619.73	20352.29
619.929	20277.5
620.128	20289.13
620.328	20265.49
620.527	20244.18
620.726	20427.46
620.925	20319.35
621.124	20493.92
621.323	20225.97
621.522	19995.99
621.721	20268.98
621.92	19988.63
622.119	20059.15
622.318	19925.27
622.517	19915.39
622.715	19838.09
622.914	19711.57
623.113	19875.87
623.312	19461.05
623.511	19781.51
623.71	19633.88
623.909	19410.49
624.107	19710.79
624.306	19408.94
624.505	19472.1
624.704	19409.32
624.902	19222.94
625.101	19363.6
625.3	19157.06
625.499	19096.03
625.697	19195.04
625.896	18934.45
626.095	18983.66
626.293	18954.6
626.492	19032.29
626.69	19031.13
626.889	19337.25
627.088	19205.31
627.286	19208.02
627.485	19022.6
627.683	18983.47
627.882	18808.13
628.08	18706.6
628.279	18493.09
628.477	18626.39
628.676	18378.78
628.874	18473.14
629.073	18377.81
629.271	18496.39
629.469	18625.03
629.668	18615.73
629.866	18319.11
630.065	18394.47
630.263	18413.66
630.461	18279
630.66	18482.24
630.858	18316.01
631.056	18583.38
631.254	18595.39
631.453	18333.06
631.651	18390.02
631.849	18396.8
632.047	18240.06
632.245	18222.04
632.444	18288.88
632.642	18487.28
632.84	18705.63
633.038	18376.26
633.236	18307.09
633.434	18472.17
633.632	18560.9
633.83	18245.29
634.028	18535.14
634.227	18301.67
634.425	18622.71
634.623	18281.52
634.821	18533.78
635.019	18488.05
635.216	18583.96
635.414	18685.68
635.612	18343.33
635.81	18365.8
636.008	18428.96
636.206	18416.37
636.404	18297.6
636.602	18297.41
636.8	18236.96
636.997	18356.5
637.195	18429.35
637.393	18354.37
637.591	18554.12
637.789	18439.23
637.986	18472.17
638.184	18574.08
638.382	18639.18
638.58	18510.34
638.777	18678.9
638.975	18620.58
639.173	18529.71
639.37	18453.18
639.568	18492.7
639.765	18424.31
639.963	18267.96
640.161	18039.53
640.358	18314.84
640.556	18005.24
640.753	18180.97
640.951	18023.06
641.148	18090.29
641.346	18136.4
641.543	17943.63
641.741	17943.82
641.938	17841.13
642.136	17979.66
642.333	17793.86
642.531	17987.02
642.728	17968.62
642.925	18044.37
643.123	17990.51
643.32	17965.52
643.517	17890.73
643.715	17867.29
643.912	18035.27
644.109	17862.44
644.306	17963.58
644.504	17813.43
644.701	17999.81
644.898	17963.58
645.095	17800.06
645.293	17803.16
645.49	17755.3
645.687	17706.28
645.884	17731.47
646.081	17421.86
646.278	17511.76
646.475	17370.71
646.672	17291.67
646.87	17170.96
647.067	17121.75
647.264	17142.29
647.461	17086.68
647.658	16922.38
647.855	16991.94
648.052	16831.71
648.249	16732.51
648.446	16885.18
648.642	17060.14
648.839	16690.08
649.036	16788.89
649.233	16741.04
649.43	16718.37
649.627	16328.55
649.824	16466.5
650.021	16280.31
650.217	16589.91
650.414	16635.06
650.611	16552.33
650.808	16811.95
651.004	16809.24
651.201	16807.49
651.398	17045.41
651.595	16814.85
651.791	16710.62
651.988	16816.79
652.185	16415.15
652.381	16810.4
652.578	16577.9
652.775	16718.37
652.971	16836.17
653.168	16618.01
653.364	16891.58
653.561	16684.66
653.757	16836.75
653.954	16943.31
654.15	16602.12
654.347	16791.22
654.543	16808.27
654.74	16585.26
654.936	16578.68
655.133	16440.73
655.329	16465.72
655.525	16050.33
655.722	16188.28
655.918	15756.61
656.115	15166.26
656.311	14864.79
656.507	14328.69
656.704	14159.74
656.9	14082.24
657.096	14469.35
657.292	14425.95
657.489	14784
657.685	14981.04
657.881	15045.36
658.077	15249.76
658.273	15550.07
658.47	15770.36
658.666	15832.17
658.862	16049.55
659.058	16075.9
659.254	16141.39
659.45	16236.71
659.646	16037.93
659.842	16091.4
660.038	16373.5
660.234	16116.78
660.43	16199.51
660.626	16292.51
660.822	16270.23
661.018	16339.01
661.214	16324.67
661.41	16201.26
661.606	16392.29
661.802	16485.68
661.998	16370.4
662.194	16394.42
662.39	16418.25
662.586	16359.16
662.781	16391.9
662.977	16545.74
663.173	16225.28
663.369	16330.87
663.564	16285.73
663.76	16219.86
663.956	16304.72
664.152	16070.67
664.347	16093.53
664.543	16102.64
664.739	16142.36
664.934	15923.42
665.13	16162.12
665.326	16007.12
665.521	16200.09
665.717	16047.03
665.912	16211.91
666.108	15802.72
666.304	16151.08
666.499	15960.04
666.695	15746.34
666.89	15964.88
667.086	16023.98
667.281	15886.22
667.477	15996.47
667.672	15843.79
667.867	15771.14
668.063	15737.04
668.258	15619.82
668.454	15855.22
668.649	15802.91
668.844	15851.16
669.04	15907.54
669.235	15785.86
669.43	15926.33
669.626	15646.36
669.821	15656.05
670.016	15676.59
670.211	15786.06
670.407	15490.79
670.602	15810.86
670.797	15558.4
670.992	15842.63
671.187	15603.93
671.382	15690.15
671.578	15418.9
671.773	15593.08
671.968	15275.92
672.163	15485.17
672.358	15431.11
672.553	15246.86
672.748	15488.27
672.943	15447.58
673.138	15437.89
673.333	15468.89
673.528	15213.53
673.723	15404.18
673.918	15166.65
674.113	15262.36
674.308	15470.25
674.503	15166.45
674.698	15380.74
674.892	15126.15
675.087	15142.82
675.282	15260.81
675.477	15158.51
675.672	15200.36
675.867	14949.07
676.061	15087.98
676.256	14965.92
676.451	15166.26
676.646	15122.86
676.84	15041.87
677.035	14872.54
677.23	15048.65
677.424	15018.62
677.619	14870.6
677.814	15096.9
678.008	14916.32
678.203	14959.34
678.397	14810.15
678.592	14860.33
678.787	14945.97
678.981	14811.89
679.176	14914
679.37	14786.51
679.565	14763.46
679.759	14805.31
679.954	14735.95
680.148	14759.97
680.342	14868.66
680.537	14696.23
680.731	14591.41
680.926	14728
681.12	14612.53
681.314	14653.99
681.509	14557.7
681.703	14597.42
681.897	14416.84
682.092	14499.57
682.286	14511.01
682.48	14480.01
682.674	14495.12
682.869	14365.89
683.063	14592.57
683.257	14418.59
683.451	14349.61
683.645	14437.96
683.839	14280.83
684.034	14166.33
684.228	14056.28
684.422	13941.39
684.616	14060.54
684.81	14094.26
685.004	13987.5
685.198	14103.75
685.392	13942.55
685.586	14035.74
685.78	13809.06
685.974	13933.64
686.168	13845.68
686.362	13896.44
686.556	13245.84
686.75	12935.84
686.944	12368.74
687.138	11701.48
687.331	11195.8
687.525	10910.6
687.719	10770.13
687.913	10842.6
688.107	10937.34
688.301	10991.78
688.494	11130.89
688.688	11075.87
688.882	10964.27
689.076	10996.04
689.269	11062.3
689.463	11240.36
689.657	11184.95
689.85	11239.2
690.044	11406.98
690.238	11499.01
690.431	11458.91
690.625	11482.54
690.818	11731.51
691.012	11628.43
691.205	11908.4
691.399	11898.71
691.593	11944.82
691.786	12015.15
691.98	12097.11
692.173	12166.08
692.366	12140.7
692.56	12246.1
692.753	12080.64
692.947	12083.55
693.14	12067.08
693.333	12017.87
693.527	12052.74
693.72	12043.25
693.914	11916.92
694.107	11830.51
694.3	11843.49
694.493	11613.13
694.687	11927.58
694.88	11660.98
695.073	11886.89
695.266	11792.93
695.46	11918.28
695.653	11784.79
695.846	11763.86
696.039	11862.67
696.232	11791.96
696.425	12025.62
696.618	12114.35
696.812	12185.46
697.005	12183.13
697.198	12382.3
697.391	12259.28
697.584	12377.85
697.777	12467.94
697.97	12323.41
698.163	12309.46
698.356	12247.46
698.549	12309.84
698.742	12275.55
698.935	12054.48
699.127	12001.59
699.32	11965.36
699.513	11940.95
699.706	11858.22
699.899	11987.06
700.092	11857.83
700.285	11757.66
700.477	11512.38
700.67	11723.18
700.863	11568.57
701.056	11737.13
701.248	11690.63
701.441	11615.45
701.634	11474.79
701.826	11693.34
702.019	11449.8
702.212	11553.84
702.404	11479.44
702.597	11392.06
702.79	11453.29
702.982	11475.57
703.175	11539.7
703.367	11537.57
703.56	11538.73
703.752	11592.78
703.945	11568.76
704.137	11569.15
704.33	11598.02
704.522	11637.15
704.715	11717.56
704.907	11752.24
705.1	11780.33
705.292	11688.11
705.484	11637.35
705.677	11654.78
705.869	11688.88
706.061	11663.7
706.254	11716.59
706.446	11537.76
706.638	11564.89
706.831	11619.91
707.023	11536.79
707.215	11796.99
707.407	11717.17
707.599	11569.34
707.792	11674.16
707.984	11618.75
708.176	11615.84
708.368	11628.24
708.56	11631.34
708.752	11605.38
708.944	11440.5
709.136	11577.67
709.329	11468.98
709.521	11562.56
709.713	11535.63
709.905	11538.54
710.097	11620.68
710.289	11478.09
710.481	11490.29
710.672	11435.46
710.864	11567.21
711.056	11501.53
711.248	11320.96
711.44	11363.78
711.632	11381.6
711.824	11494.36
712.016	11348.28
712.207	11321.93
712.399	11313.01
712.591	11277.17
712.783	11333.36
712.975	11310.3
713.166	11252.37
713.358	11184.56
713.55	11191.34
713.741	11135.15
713.933	11194.25
714.125	11096.6
714.316	10932.11
714.508	11079.55
714.7	10943.93
714.891	11003.41
715.083	10987.52
715.274	10818.57
715.466	10941.21
715.657	10897.62
715.849	10635.48
716.04	10660.67
716.232	10566.31
716.423	10437.66
716.615	10196.64
716.806	9966.28
716.998	9698.91
717.189	9444.52
717.381	9183.73
717.572	8954.33
717.763	8805.54
717.955	8668.56
718.146	8486.24
718.337	8332.6
718.528	8166.56
718.72	7924.37
718.911	7904.22
719.102	7728.3
719.293	7779.26
719.485	7756.78
719.676	7576.21
719.867	7537.66
720.058	7561.1
720.249	7478.37
720.44	7488.44
720.632	7677.35
720.823	7702.53
721.014	8010.59
721.205	8153.97
721.396	8327.76
721.587	8592.22
721.778	8689.09
721.969	8845.06
722.16	8884
722.351	9038.03
722.542	9198.26
722.733	9173.08
722.924	9016.72
723.115	9051.79
723.305	8893.89
723.496	8873.54
723.687	8521.7
723.878	8566.26
724.069	8454.66
724.26	8403.32
724.45	8171.79
724.641	8212.67
724.832	8179.35
725.023	8078.4
725.213	8036.17
725.404	8020.09
725.595	7953.63
725.785	7944.52
725.976	8091
726.167	7990.25
726.357	8007.69
726.548	8143.89
726.739	7919.14
726.929	8120.83
727.12	8080.92
727.31	8123.55
727.501	7904.81
727.691	7836.22
727.882	7937.16
728.072	7917.59
728.263	7976.69
728.453	8052.83
728.644	8072.79
728.834	7909.84
729.024	7896.09
729.215	7840.29
729.405	7871.48
729.596	7946.07
729.786	7901.9
729.976	8012.14
730.167	7989.09
730.357	7921.86
730.547	7921.66
730.737	7950.92
730.928	8021.44
731.118	8005.75
731.308	7940.46
731.498	7954.79
731.688	8080.73
731.879	8099.72
732.069	8090.61
732.259	8269.24
732.449	8331.44
732.639	8412.81
732.829	8438
733.019	8489.92
733.209	8585.63
733.399	8585.44
733.589	8755.16
733.779	8737.34
733.969	8746.64
734.159	8897.37
734.349	8874.9
734.539	8977.39
734.729	8982.04
734.919	8945.23
735.109	9048.88
735.299	8902.02
735.488	8894.27
735.678	8891.95
735.868	8881.68
736.058	8776.86
736.248	8832.47
736.437	8713.89
736.627	8631.16
736.817	8885.94
737.007	8669.33
737.196	8788.49
737.386	8807.47
737.576	8726.68
737.765	8815.42
737.955	8782.09
738.144	8918.69
738.334	8838.09
738.524	8700.14
738.713	8780.93
738.903	8741.41
739.092	8732.88
739.282	8676.31
739.471	8760.39
739.661	8642.6
739.85	8854.75
740.04	8746.06
740.229	8792.36
740.419	8773.18
740.608	8828.4
740.797	8727.65
740.987	8783.84
741.176	8725.33
741.365	8742.76
741.555	8658.48
741.744	8798.56
741.933	8653.45
742.123	8697.23
742.312	8662.36
742.501	8745.28
742.69	8748.38
742.88	8657.71
743.069	8755.74
743.258	8766.21
743.447	8764.08
743.636	8758.26
743.825	8702.46
744.014	8737.14
744.204	8723
744.393	8637.95
744.582	8773.18
744.771	8814.26
744.96	8697.43
745.149	8721.64
745.338	8594.35
745.527	8769.89
745.716	8663.52
745.905	8618.38
746.094	8708.86
746.283	8662.94
746.471	8634.85
746.66	8644.73
746.849	8664.1
747.038	8638.14
747.227	8583.5
747.416	8621.09
747.604	8529.06
747.793	8529.45
747.982	8588.35
748.171	8585.63
748.359	8513.75
748.548	8637.17
748.737	8484.69
748.926	8498.45
749.114	8326.01
749.303	8453.69
749.491	8438
749.68	8372.32
749.869	8431.22
750.057	8338.99
750.246	8323.3
750.434	8435.29
750.623	8312.84
750.811	8256.26
751	8352.17
751.188	8267.89
751.377	8291.72
751.565	8240.18
751.754	8176.44
751.942	8073.37
752.131	8295.4
752.319	8204.15
752.507	8078.79
752.696	8130.13
752.884	8147.38
753.072	8070.27
753.261	8158.81
753.449	8112.7
753.637	8038.69
753.825	8144.67
754.014	8067.36
754.202	8101.27
754.39	8065.62
754.578	8136.92
754.766	7981.92
754.955	7989.47
755.143	8054.77
755.331	8042.56
755.519	7986.57
755.707	7956.15
755.895	7942.59
756.083	7932.32
756.271	7862.18
756.459	7908.68
756.647	7834.86
756.835	7838.54
757.023	7814.91
757.211	7785.65
757.399	7722.49
757.587	7781.2
757.775	7685.48
757.963	7668.05
758.151	7706.22
758.339	7597.14
758.526	7576.4
758.714	7630.46
758.902	7444.66
759.09	7300.7
759.278	6934.71
759.465	6427.68
759.653	5797.61
759.841	5301.23
760.028	4674.46
760.216	4176.92
760.404	3777.6
760.591	3314.16
760.779	2897.22
760.967	2625.78
761.154	2349.1
761.342	2406.45
761.529	2417.5
761.717	2542.46
761.905	2621.71
762.092	2780.19
762.28	2778.64
762.467	2874.16
762.655	2720.52
762.842	2787.55
763.029	2813.9
763.217	2893.34
763.404	2838.7
763.592	2902.25
763.779	2963.67
763.966	2997.96
764.154	3071.98
764.341	3173.89
764.528	3209.73
764.716	3295.56
764.903	3426.15
765.09	3604.01
765.277	3702.82
765.465	3900.83
765.652	4054.66
765.839	4169.17
766.026	4440.22
766.213	4530.31
766.4	4691.7
766.588	4935.05
766.775	5089.47
766.962	5199.51
767.149	5347.73
767.336	5567.63
767.523	5602.51
767.71	5730.77
767.897	5896.42
768.084	6076.41
768.271	6132.6
768.458	6200.22
768.645	6317.63
768.832	6308.52
769.019	6354.63
769.206	6370.72
769.392	6498.78
769.579	6540.24
769.766	6494.91
769.953	6588.1
770.14	6668.12
770.327	6645.06
770.513	6630.34
770.7	6727.79
770.887	6597.59
771.073	6663.27
771.26	6664.63
771.447	6653.39
771.634	6575.89
771.82	6748.14
772.007	6591.2
772.193	6696.79
772.38	6647.58
772.567	6639.83
772.753	6609.02
772.94	6684
773.126	6671.8
773.313	6664.24
773.499	6556.91
773.686	6666.18
773.872	6549.74
774.059	6657.07
774.245	6631.31
774.432	6596.24
774.618	6419.73
774.804	6477.47
774.991	6429.61
775.177	6449.18
775.363	6476.31
775.55	6538.31
775.736	6380.02
775.922	6512.15
776.109	6481.54
776.295	6429.42
776.481	6474.18
776.667	6452.48
776.853	6431.55
777.04	6396.48
777.226	6414.89
777.412	6426.51
777.598	6358.51
777.784	6373.04
777.97	6293.22
778.156	6337
778.342	6300
778.528	6281.79
778.715	6230.06
778.901	6251.17
779.087	6258.92
779.272	6208.55
779.458	6203.12
779.644	6197.89
779.83	6218.04
780.016	6246.72
780.202	6208.36
780.388	6163.79
780.574	6048.13
780.76	6122.53
780.946	6111.87
781.131	6096.37
781.317	6076.41
781.503	6045.03
781.689	6057.04
781.874	6161.66
782.06	6028.75
782.246	6095.21
782.432	5990.97
782.617	6010.73
782.803	6079.51
782.989	5996.2
783.174	5935.37
783.36	5871.24
783.545	5892.74
783.731	5937.5
783.916	5757.31
784.102	5892.16
784.288	5831.9
784.473	5898.17
784.659	5809.24
784.844	5865.42
785.029	5783.86
785.215	5762.35
785.4	5727.67
785.586	5838.69
785.771	5698.41
785.956	5773.78
786.142	5720.31
786.327	5730.57
786.512	5678.65
786.698	5713.53
786.883	5584.49
787.068	5648.43
787.254	5699.58
787.439	5550.78
787.624	5543.61
787.809	5548.84
787.994	5554.46
788.18	5618.59
788.365	5456.23
788.55	5475.22
788.735	5508.35
788.92	5428.33
789.105	5471.92
789.29	5479.28
789.475	5440.34
789.66	5432.2
789.845	5392.1
790.03	5343.27
790.215	5380.67
790.4	5433.17
790.585	5407.02
790.77	5376.4
790.955	5277.01
791.14	5326.61
791.325	5434.72
791.51	5262.68
791.695	5322.93
791.879	5323.51
792.064	5194.28
792.249	5399.65
792.434	5308.01
792.618	5283.79
792.803	5342.69
792.988	5309.56
793.173	5312.86
793.357	5287.47
793.542	5185.56
793.727	5269.07
793.911	5331.26
794.096	5296.97
794.281	5338.62
794.465	5361.87
794.65	5281.47
794.834	5392.49
795.019	5392.49
795.203	5413.22
795.388	5372.92
795.572	5436.66
795.757	5361.68
795.941	5399.85
796.126	5330.68
796.31	5278.56
796.494	5365.75
796.679	5290.96
796.863	5319.25
797.048	5440.54
797.232	5404.11
797.416	5432.59
797.601	5393.26
797.785	5399.07
797.969	5510.67
798.153	5361.29
798.338	5493.43
798.522	5519.97
798.706	5468.82
798.89	5469.98
799.074	5560.27
799.258	5514.55
799.443	5524.43
799.627	5454.87
799.811	5501.76
799.995	5432.59
800.179	5338.04
800.363	5349.67
800.547	5421.94
800.731	5478.7
800.915	5392.1
801.099	5352.57
801.283	5390.55
801.467	5445.77
801.651	5378.92
801.835	5468.05
802.019	5433.37
802.202	5413.22
802.386	5339.98
802.57	5349.09
802.754	5370.59
802.938	5345.02
803.121	5316.54
803.305	5440.92
803.489	5358.97
803.673	5416.51
803.856	5372.34
804.04	5350.64
804.224	5387.64
804.407	5357.81
804.591	5283.02
804.775	5324.29
804.958	5377.18
805.142	5449.06
805.326	5346.96
805.509	5377.18
805.693	5357.22
805.876	5360.71
806.06	5374.27
806.243	5419.03
806.427	5390.74
806.61	5445.77
806.794	5340.95
806.977	5413.41
807.16	5381.64
807.344	5381.44
807.527	5347.15
807.71	5353.74
807.894	5352.96
808.077	5318.28
808.26	5301.23
808.444	5297.36
808.627	5345.79
808.81	5244.27
808.993	5183.24
809.177	5126.47
809.36	5162.9
809.543	5155.73
809.726	5035.99
809.909	5053.23
810.092	5069.51
810.276	5038.12
810.459	5014.1
810.642	5013.32
810.825	4937.37
811.008	4977.29
811.191	4862.97
811.374	4869.56
811.557	4922.07
811.74	4970.89
811.923	4831.59
812.106	4854.45
812.289	4728.9
812.472	4761.84
812.654	4750.02
812.837	4701.58
813.02	4573.13
813.203	4565.19
813.386	4421.42
813.569	4362.53
813.751	4260.81
813.934	4310.21
814.117	4251.51
814.3	4199.97
814.482	4069.58
814.665	4021.53
814.848	3963.41
815.03	3864.21
815.213	3867.7
815.396	3819.65
815.578	3803.18
815.761	3753.58
815.943	3823.52
816.126	3628.8
816.309	3662.13
816.491	3549.56
816.674	3481.56
816.856	3501.32
817.039	3519.73
817.221	3579.79
817.403	3547.62
817.586	3557.12
817.768	3531.93
817.951	3407.35
818.133	3397.47
818.315	3465.09
818.498	3494.93
818.68	3597.03
818.862	3566.03
819.045	3579.79
819.227	3551.5
819.409	3532.51
819.591	3555.57
819.774	3477.68
819.956	3488.34
820.138	3590.64
820.32	3569.32
820.502	3720.45
820.684	3762.68
820.866	3796.78
821.048	3875.06
821.231	3883.39
821.413	3883.78
821.595	3822.16
821.777	3904.31
821.959	3864.6
822.141	3943.26
822.323	3739.24
822.505	3648.76
822.686	3508.1
822.868	3346.71
823.05	3174.08
823.232	3171.95
823.414	3001.06
823.596	3108.01
823.778	3127
823.96	3187.25
824.141	3234.34
824.323	3229.3
824.505	3332.18
824.687	3417.43
824.868	3538.32
825.05	3660.39
825.232	3681.12
825.413	3817.13
825.595	3772.95
825.777	3726.26
825.958	3695.84
826.14	3689.25
826.321	3776.25
826.503	3720.45
826.685	3780.12
826.866	3815.77
827.048	3774.7
827.229	3695.84
827.411	3598.77
827.592	3546.27
827.773	3518.18
827.955	3432.73
828.136	3465.09
828.318	3456.95
828.499	3457.34
828.68	3368.41
828.862	3414.13
829.043	3418.2
829.224	3369.18
829.406	3318.81
829.587	3356.4
829.768	3386.62
829.949	3367.44
830.131	3361.24
830.312	3391.46
830.493	3404.83
830.674	3411.03
830.855	3416.26
831.036	3434.86
831.218	3454.04
831.399	3476.33
831.58	3395.53
831.761	3411.03
831.942	3372.28
832.123	3432.35
832.304	3312.42
832.485	3351.36
832.666	3357.17
832.847	3405.61
833.028	3365.5
833.209	3336.44
833.389	3330.24
833.57	3277.35
833.751	3234.92
833.932	3300.21
834.113	3343.22
834.294	3289.75
834.475	3352.91
834.655	3397.86
834.836	3368.21
835.017	3426.53
835.198	3362.4
835.378	3353.88
835.559	3443.97
835.74	3356.59
835.92	3417.62
836.101	3335.67
836.281	3448.23
836.462	3425.95
836.643	3414.33
836.823	3440.1
837.004	3467.61
837.184	3434.28
837.365	3465.28
837.545	3453.66
837.726	3380.61
837.906	3476.13
838.087	3431.38
838.267	3431.57
838.448	3391.85
838.628	3430.6
838.808	3407.16
838.989	3437.19
839.169	3429.25
839.349	3450.75
839.53	3472.45
839.71	3451.14
839.89	3401.35
840.07	3459.86
840.251	3423.05
840.431	3477.29
840.611	3403.48
840.791	3365.89
840.971	3411.42
841.151	3397.08
841.332	3324.04
841.512	3417.43
841.692	3325.4
841.872	3401.93
842.052	3371.9
842.232	3379.65
842.412	3299.82
842.592	3277.93
842.772	3365.5
842.952	3340.7
843.132	3271.53
843.312	3288.97
843.492	3293.43
843.672	3320.36
843.851	3207.21
844.031	3236.27
844.211	3264.56
844.391	3229.49
844.571	3272.31
844.751	3237.44
844.93	3226.39
845.11	3248.67
845.29	3234.14
845.47	3275.41
845.649	3261.27
845.829	3270.95
846.009	3186.67
846.188	3285.29
846.368	3283.16
846.547	3204.89
846.727	3251.77
846.907	3174.66
847.086	3219.22
847.266	3252.16
847.445	3225.23
847.625	3138.04
847.804	3146.57
847.984	3190.55
848.163	3172.14
848.343	3146.37
848.522	3207.79
848.701	3168.66
848.881	3137.66
849.06	3161.29
849.239	3120.41
849.419	3121.19
849.598	3059.58
849.777	2980.72
849.957	2953.21
850.136	2890.43
850.315	2878.62
850.494	2876.1
850.674	2933.25
850.853	2964.06
851.032	2912.91
851.211	2979.17
851.39	2949.14
851.569	2897.99
851.748	2916.2
851.927	2977.04
852.107	2952.82
852.286	2915.04
852.465	2895.28
852.644	3000.1
852.823	2923.56
853.002	2943.91
853.181	2895.28
853.359	2962.31
853.538	2839.48
853.717	2902.25
853.896	2745.7
854.075	2659.29
854.254	2563.97
854.433	2453.73
854.611	2519.02
854.79	2435.32
854.969	2486.28
855.148	2572.88
855.327	2522.9
855.505	2599.23
855.684	2605.82
855.863	2662.59
856.041	2634.49
856.22	2730.01
856.399	2672.66
856.577	2788.52
856.756	2771.09
856.934	2877.07
857.113	2852.27
857.291	2801.31
857.47	2771.67
857.648	2801.7
857.827	2771.86
858.005	2842
858.184	2764.5
858.362	2886.75
858.541	2788.91
858.719	2750.55
858.898	2723.42
859.076	2731.17
859.254	2801.7
859.433	2738.34
859.611	2692.81
859.789	2675.57
859.967	2727.3
860.146	2775.93
860.324	2677.31
860.502	2649.61
860.68	2638.18
860.859	2701.53
861.037	2665.49
861.215	2656
861.393	2692.81
861.571	2665.88
861.749	2642.83
861.927	2625.97
862.105	2658.32
862.283	2639.92
862.461	2626.94
862.639	2602.14
862.817	2632.94
862.995	2611.05
863.173	2617.25
863.351	2587.61
863.529	2599.04
863.707	2622.87
863.885	2604.66
864.063	2527.55
864.241	2591.09
864.418	2611.63
864.596	2560.48
864.774	2526
864.952	2509.53
865.129	2543.24
865.307	2483.76
865.485	2460.7
865.663	2487.44
865.84	2423.7
866.018	2412.07
866.196	2209.03
866.373	2253.97
866.551	2168.53
866.728	2159.62
866.906	2180.16
867.084	2215.42
867.261	2233.24
867.439	2267.34
867.616	2285.36
867.794	2293.31
867.971	2326.05
868.149	2328.57
868.326	2381.27
868.503	2351.82
868.681	2354.14
868.858	2345.81
869.035	2319.46
869.213	2366.15
869.39	2342.52
869.567	2419.24
869.745	2318.88
869.922	2344.65
870.099	2364.8
870.276	2374.68
870.454	2330.7
870.631	2308.22
870.808	2345.42
870.985	2356.08
871.162	2352.59
871.339	2344.84
871.517	2291.56
871.694	2245.26
871.871	2309.39
872.048	2284.97
872.225	2276.26
872.402	2303.57
872.579	2258.04
872.756	2256.3
872.933	2210.19
873.11	2255.33
873.287	2262.5
873.463	2223.36
873.64	2219.68
873.817	2245.06
873.994	2233.82
874.171	2172.02
874.348	2240.99
874.524	2167.76
874.701	2197.01
874.878	2124.94
875.055	2195.46
875.231	2148.58
875.408	2201.66
875.585	2102.27
875.762	2182.29
875.938	2110.02
876.115	2109.25
876.291	2134.43
876.468	2119.51
876.645	2069.14
876.821	2061.97
876.998	2077.08
877.174	2134.43
877.351	2083.67
877.527	2056.55
877.704	2082.12
877.88	2091.03
878.057	2061.58
878.233	2123
878.409	2048.6
878.586	2088.9
878.762	2030.78
878.938	2045.5
879.115	1970.52
879.291	2051.9
879.467	1964.9
879.644	1998.03
879.82	2029.23
879.996	1988.73
880.172	1941.65
880.349	2030.78
880.525	2002.49
880.701	1951.92
880.877	1925.38
881.053	1940.49
881.229	1941.46
881.405	2013.92
881.581	1967.81
881.757	1948.44
881.933	2008.88
882.109	1989.7
882.285	1998.62
882.461	1910.27
882.637	2000.36
882.813	1926.35
882.989	1957.93
883.165	2052.86
883.341	1947.66
883.517	2009.27
883.693	1952.5
883.869	2027.29
884.044	1916.47
884.22	1953.86
884.396	2043.95
884.572	1947.47
884.747	2015.47
884.923	2002.68
885.099	1979.82
885.275	2016.83
885.45	1928.48
885.626	1938.36
885.801	1934.49
885.977	1953.67
886.153	1872.68
886.328	1954.44
886.504	1877.72
886.679	1932.74
886.855	1899.22
887.03	1938.94
887.206	1974.4
887.381	1933.13
887.557	1975.95
887.732	1974.59
887.908	1976.53
888.083	1992.03
888.258	1934.87
888.434	1929.45
888.609	1924.41
888.784	2014.5
888.96	1924.99
889.135	1969.55
889.31	1942.82
889.485	1951.92
889.661	1947.47
889.836	1993.38
890.011	1934.29
890.186	1948.63
890.361	1908.91
890.537	1952.7
890.712	1977.3
890.887	1986.41
891.062	1940.49
891.237	2015.28
891.412	1905.62
891.587	1952.89
891.762	1963.55
891.937	1992.42
892.112	1868.03
892.287	1921.5
892.462	1893.99
892.637	1845.17
892.812	1850.21
892.987	1835.48
893.161	1813.59
893.336	1816.49
893.511	1784.14
893.686	1850.59
893.861	1800.22
894.035	1792.66
894.21	1778.71
894.385	1757.59
894.56	1760.89
894.734	1708.19
894.909	1678.16
895.084	1688.43
895.258	1639.41
895.433	1626.43
895.608	1620.81
895.782	1569.08
895.957	1551.64
896.131	1574.31
896.306	1526.84
896.48	1500.49
896.655	1483.44
896.829	1373.39
897.004	1370.1
897.178	1388.12
897.353	1377.07
897.527	1447.21
897.701	1410.21
897.876	1356.73
898.05	1461.55
898.224	1437.33
898.399	1429.97
898.573	1366.81
898.747	1246.3
898.921	1278.84
899.096	1145.74
899.27	1181
899.444	1169.38
899.618	1225.56
899.792	1264.89
899.967	1280.01
900.141	1305.19
900.315	1204.06
900.489	1216.26
900.663	1241.65
900.837	1204.25
901.011	1190.88
901.185	1290.28
901.359	1265.28
901.533	1259.86
901.707	1265.48
901.881	1238.93
902.055	1188.95
902.229	1244.36
902.403	1274.39
902.576	1259.86
902.75	1259.08
902.924	1344.14
903.098	1332.9
903.272	1415.44
903.446	1483.83
903.619	1444.89
903.793	1496.81
903.967	1454.96
904.14	1533.04
904.314	1542.92
904.488	1512.12
904.661	1504.95
904.835	1517.35
905.009	1537.88
905.182	1577.02
905.356	1509.4
905.529	1548.93
905.703	1468.72
905.876	1422.61
906.05	1399.16
906.223	1406.14
906.397	1303.64
906.57	1265.28
906.744	1239.32
906.917	1237.96
907.09	1220.53
907.264	1243.78
907.437	1196.31
907.61	1159.5
907.784	1165.5
907.957	1175.58
908.13	1128.88
908.304	1152.72
908.477	1106.6
908.65	1120.36
908.823	1089.55
908.996	1152.91
909.17	1092.65
909.343	1088.39
909.516	1094.98
909.689	1085.1
909.862	1053.9
910.035	1088.78
910.208	1049.84
910.381	1010.5
910.554	1150
910.727	1084.9
910.9	1067.47
911.073	1067.47
911.246	1126.37
911.419	1136.44
911.592	1131.21
911.765	1088.78
911.938	1109.51
912.11	1084.71
912.283	1078.12
912.456	1128.11
912.629	1117.26
912.802	1051.97
912.974	979.12
913.147	945.6
913.32	853.96
913.493	916.73
913.665	962.26
913.838	955.67
914.01	959.94
914.183	983.96
914.356	1006.44
914.528	1047.32
914.701	1085.48
914.873	1049.84
915.046	962.26
915.218	901.81
915.391	842.72
915.563	857.64
915.736	889.99
915.908	951.02
916.081	939.21
916.253	955.67
916.425	989.39
916.598	996.56
916.77	965.56
916.942	885.93
917.115	882.44
917.287	877.4
917.459	882.44
917.632	795.06
917.804	796.22
917.976	880.89
918.148	921.57
918.32	930.68
918.493	930.1
918.665	1017.29
918.837	959.74
919.009	1024.26
919.181	1021.74
919.353	987.84
919.525	996.56
919.697	967.49
919.869	991.13
920.041	1054.29
920.213	1102.53
920.385	1042.09
920.557	1003.53
920.729	1037.82
920.901	1021.74
921.073	974.86
921.244	996.75
921.416	1000.43
921.588	976.41
921.76	947.54
921.932	1018.64
922.103	959.16
922.275	1011.09
922.447	1021.55
922.619	903.36
922.79	924.29
922.962	928.36
923.134	965.94
923.305	898.52
923.477	856.09
923.648	865.97
923.82	864.23
923.991	844.27
924.163	832.64
924.335	844.85
924.506	850.66
924.677	908.21
924.849	828.19
925.02	886.31
925.192	900.65
925.363	847.95
925.535	867.33
925.706	820.83
925.877	869.84
926.049	859.58
926.22	866.36
926.391	863.45
926.562	862.29
926.734	802.81
926.905	877.21
927.076	766
927.247	809.01
927.419	791.76
927.59	726.86
927.761	732.28
927.932	695.28
928.103	718.92
928.274	654.01
928.445	647.62
928.616	625.53
928.787	624.75
928.958	641.61
929.129	639.48
929.3	628.63
929.471	539.51
929.642	489.71
929.813	467.43
929.984	545.12
930.155	449.03
930.326	484.09
930.496	454.64
930.667	382.38
930.838	447.86
931.009	357.77
931.18	398.26
931.35	367.07
931.521	371.33
931.692	298.87
931.863	244.43
932.033	293.45
932.204	285.7
932.374	305.46
932.545	258.77
932.716	284.34
932.886	279.5
933.057	179.52
933.227	202.19
933.398	304.1
933.568	167.9
933.739	139.42
933.909	153.17
934.08	204.32
934.25	119.27
934.421	138.06
934.591	192.12
934.761	164.41
934.932	140.39
935.102	189.4
935.272	155.5
935.443	142.9
935.613	142.9
935.783	180.69
935.953	148.14
936.123	289.77
936.294	159.57
936.464	150.27
936.634	150.46
936.804	119.27
936.974	101.25
937.144	180.49
937.314	143.49
937.484	137.29
937.655	123.53
937.825	172.94
937.995	142.32
938.165	192.31
938.334	183.59
938.504	216.92
938.674	202.77
938.844	231.83
939.014	298.48
939.184	311.85
939.354	353.9
939.524	342.27
939.694	287.83
939.863	260.51
940.033	348.66
940.203	307.98
940.373	318.83
940.542	303.13
940.712	262.64
940.882	287.83
941.051	338.2
941.221	310.11
941.391	314.76
941.56	237.26
941.73	260.9
941.899	372.69
942.069	245.98
942.238	257.6
942.408	237.65
942.577	249.08
942.747	224.67
942.916	168.87
943.086	208.2
943.255	246.17
943.425	231.45
943.594	211.68
943.763	167.7
943.933	171
944.102	123.53
944.271	208.39
944.441	212.46
944.61	190.76
944.779	216.53
944.948	306.04
945.117	190.57
945.287	204.9
945.456	149.69
945.625	150.65
945.794	200.25
945.963	186.3
946.132	190.57
946.301	186.11
946.47	231.45
946.639	130.5
946.808	171.19
946.977	213.43
947.146	259.93
947.315	196.57
947.484	220.02
947.653	202.77
947.822	176.23
947.991	162.86
948.16	243.85
948.329	250.24
948.498	203.94
948.666	235.9
948.835	228.54
949.004	194.64
949.173	142.13
949.341	196.19
949.51	187.66
949.679	229.32
949.847	204.71
950.016	270.39
950.185	263.8
950.353	172.16
950.522	230.09
950.69	272.33
950.859	210.14
951.028	264.19
951.196	237.65
951.365	199.87
951.533	205.29
951.701	213.82
951.87	218.27
952.038	144.65
952.207	182.62
952.375	232.42
952.543	169.84
952.712	191.92
952.88	186.5
953.048	260.32
953.217	199.67
953.385	216.72
953.553	243.46
953.721	176.62
953.89	200.84
954.058	182.62
954.226	171.77
954.394	176.81
954.562	141.94
954.73	183.79
954.898	162.28
955.067	241.72
955.235	177.2
955.403	222.34
955.571	243.27
955.739	192.12
955.907	163.83
956.075	193.67
956.243	180.69
956.41	193.47
956.578	158.02
956.746	162.67
956.914	174.1
957.082	247.72
957.25	240.17
957.418	189.02
957.585	214.4
957.753	250.05
957.921	186.3
958.089	190.37
958.256	205.49
958.424	199.67
958.592	194.83
958.759	166.15
958.927	226.02
959.095	174.87
959.262	196.57
959.43	200.64
959.597	162.47
959.765	163.64
959.932	149.88
960.1	251.4
960.267	207.04
960.435	222.34
960.602	222.15
960.77	199.09
960.937	145.81
961.104	208.39
961.272	159.37
961.439	180.1
961.606	228.73
961.774	235.32
961.941	176.81
962.108	200.25
962.275	214.59
962.443	230.87
962.61	241.13
962.777	301
962.944	237.07
963.111	220.79
963.278	241.91
963.446	240.75
963.613	225.63
963.78	226.6
963.947	235.32
964.114	223.31
964.281	290.15
964.448	228.15
964.615	221.57
964.782	221.18
964.949	254.89
965.116	247.92
965.282	290.15
965.449	237.26
965.616	179.72
965.783	255.28
965.95	217.3
966.117	182.82
966.283	224.28
966.45	232.22
966.617	233.77
966.784	252.95
966.95	276.98
967.117	264.58
967.284	206.45
967.45	198.32
967.617	308.95
967.784	277.95
967.95	317.47
968.117	233.19
968.283	281.24
968.45	355.83
968.616	277.95
968.783	289.96
968.949	278.72
969.116	315.34
969.282	274.85
969.449	251.98
969.615	237.84
969.781	255.86
969.948	209.36
970.114	223.89
970.28	299.84
970.447	268.65
970.613	309.91
970.779	268.07
970.945	294.61
971.112	287.63
971.278	266.13
971.444	251.4
971.61	309.14
971.776	221.95
971.942	276.98
972.108	272.13
972.275	263.8
972.441	235.9
972.607	326.38
972.773	231.64
972.939	274.85
973.105	218.66
973.271	210.52
973.437	233.77
973.602	219.82
973.768	245.01
973.934	201.42
974.1	245.01
974.266	166.74
974.432	226.02
974.598	207.81
974.763	270.78
974.929	218.66
975.095	294.42
975.261	193.28
975.426	189.99
975.592	206.26
975.758	266.52
975.923	148.52
976.089	190.76
976.255	255.08
976.42	229.9
976.586	221.57
976.751	231.45
976.917	283.57
977.082	244.23
977.248	177.97
977.413	161.31
977.579	193.28
977.744	218.27
977.91	176.81
978.075	192.5
978.24	230.67
978.406	206.07
978.571	202.77
978.736	179.72
978.902	214.4
979.067	177.59
979.232	137.09
979.397	219.82
979.563	243.46
979.728	194.64
979.893	194.83
980.058	180.69
980.223	246.75
980.388	225.63
980.554	221.18
980.719	187.85
980.884	207.42
981.049	261.09
981.214	214.2
981.379	228.73
981.544	179.14
981.709	201.61
981.874	181.85
982.039	191.73
982.204	233.58
982.368	172.74
982.533	184.75
982.698	246.56
982.863	233.77
983.028	191.15
983.193	199.29
983.357	203.35
983.522	198.7
983.687	185.72
983.852	191.73
984.016	181.65
984.181	209.17
984.346	226.41
984.51	227.96
984.675	225.25
984.839	229.51
985.004	223.31
985.168	245.2
985.333	206.07
985.498	200.84
985.662	232.8
985.827	204.52
985.991	219.63
986.155	184.17
986.32	216.92
986.484	254.5
986.649	234.35
986.813	145.81
986.977	193.67
987.142	218.47
987.306	183.4
987.47	171
987.634	215.17
987.799	214.59
987.963	200.64
988.127	229.7
988.291	263.42
988.455	212.07
988.62	185.34
988.784	198.32
988.948	223.5
989.112	181.85
989.276	226.41
989.44	184.95
989.604	144.07
989.768	177
989.932	271.36
990.096	142.71
990.26	124.69
990.424	133.22
990.588	165.19
990.752	238.81
990.915	212.46
991.079	182.04
991.243	168.48
991.407	172.35
991.571	177.39
991.734	218.08
991.898	207.42
992.062	261.09
992.226	145.23
992.389	154.72
992.553	176.62
992.717	152.4
992.88	179.33
993.044	180.49
993.207	165.38
993.371	202.97
993.535	190.37
993.698	152.2
993.862	188.82
994.025	223.12
994.189	180.69
994.352	184.75
994.515	179.33
994.679	210.33
994.842	158.02
995.006	177.78
995.169	148.91
995.332	157.44
995.496	186.3
995.659	107.06
995.822	162.47
995.985	160.54
996.149	200.45
996.312	171.97
996.475	209.17
996.638	151.62
996.801	198.7
996.964	219.05
997.128	159.57
997.291	150.07
997.454	151.04
997.617	119.66
997.78	187.85
997.943	134.77
998.106	180.69
998.269	127.79
998.432	150.46
998.595	148.52
998.758	100.28
998.92	99.12
999.083	89.24
999.246	145.81
999.409	124.89
999.572	104.54
999.735	122.95
999.897	106.48
1000.06	116.17
1000.223	152.01
1000.386	146.97
1000.548	150.27
1000.711	144.45
1000.874	142.13
1001.036	76.64
1001.199	153.95
1001.361	107.64
1001.524	134.96
1001.687	149.1
1001.849	114.81
1002.012	136.7
1002.174	130.7
1002.337	141.94
1002.499	109.97
1002.661	160.54
1002.824	87.49
1002.986	106.09
1003.149	126.63
1003.311	93.5
1003.473	162.67
1003.636	83.81
1003.798	133.02
1003.96	127.79
1004.123	105.9
1004.285	115.78
1004.447	122.76
1004.609	133.8
1004.771	181.65
1004.933	60.56
1005.096	110.36
1005.258	63.86
1005.42	62.69
1005.582	139.8
1005.744	119.27
1005.906	82.26
1006.068	108.61
1006.23	74.51
1006.392	53.39
1006.554	72.19
1006.716	120.82
1006.878	127.02
1007.04	62.89
1007.202	116.17
1007.363	112.87
1007.525	119.46
1007.687	117.91
1007.849	139.8
1008.011	67.92
1008.172	67.15
1008.334	95.82
1008.496	138.64
1008.658	46.03
1008.819	75.29
1008.981	56.88
1009.143	72.57
1009.304	78.39
1009.466	112.68
1009.627	155.69
1009.789	188.24
1009.95	118.88
1010.112	95.05
1010.273	111.13
1010.435	88.46
1010.596	75.29
1010.758	83.04
1010.919	83.23
1011.081	52.81
1011.242	79.36
1011.403	113.84
1011.565	85.75
1011.726	109.39
1011.887	63.08
1012.049	67.73
1012.21	108.03
1012.371	122.95
1012.532	10.58
1012.693	96.79
1012.855	74.51
1013.016	76.06
1013.177	131.67
1013.338	74.32
1013.499	134.57
1013.66	111.13
1013.821	101.64
1013.982	86.33
1014.143	84.59
1014.304	64.24
1014.465	109.19
1014.626	91.95
1014.787	83.62
1014.948	151.24
1015.109	26.46
1015.27	121.21
1015.431	35.38
1015.592	74.71
1015.752	134.77
1015.913	81.68
1016.074	77.42
1016.235	90.01
1016.395	85.75
1016.556	83.81
1016.717	84.59
1016.877	119.27
1017.038	40.02
1017.199	87.3
1017.359	73.16
1017.52	58.43
1017.681	60.37
1017.841	58.04
1018.002	46.61
1018.162	49.71
1018.323	126.05
1018.483	94.08
1018.644	51.65
1018.804	33.83
1018.964	26.85
1019.125	51.84
1019.285	76.06
1019.446	35.18
1019.606	44.29
1019.766	22.78
1019.926	80.52
1020.087	54.94
1020.247	22.98
1020.407	92.92
1020.567	103.57
1020.728	48.55
1020.888	33.44
1021.048	68.12
1021.208	17.36
1021.368	28.4
1021.528	97.96
1021.688	90.59
1021.848	106.87
1022.008	56.49
1022.168	40.41
1022.328	65.99
1022.488	65.79
1022.648	44.48
1022.808	33.05
1022.968	50.68
1023.128	8.44
1023.288	37.89
1023.448	50.49
1023.608	56.88
1023.767	55.33
1023.927	35.76
1024.087	23.94
1024.247	2.83
1024.406	16.19
1024.566	26.27
1024.726	32.86
1024.885	25.69
1025.045	68.31
1025.205	65.6
1025.364	22.01
1025.524	62.89
1025.683	34.41
1025.843	65.41
1026.003	34.6
1026.162	124.3
1026.321	112.49
1026.481	55.91
1026.64	44.67
1026.8	54.94
1026.959	42.16
1027.119	57.46
1027.278	45.06
1027.437	28.01
1027.597	59.4
1027.756	52.62
1027.915	84.01
1028.074	49.71
1028.234	36.34
1028.393	21.23
1028.552	27.04
1028.711	-40.77
1028.87	89.82
1029.03	24.91
1029.189	31.31
1029.348	-5.7
1029.507	11.74
1029.666	45.45
1029.825	-17.13
1029.984	26.46
1030.143	38.67
1030.302	22.39
1030.461	4.57
1030.62	28.4
1030.779	53.01
1030.938	24.33
1031.097	-31.66
1031.255	54.17
1031.414	77.03
1031.573	48.94
1031.732	-16.55
1031.891	7.09
1032.049	60.76
1032.208	29.18
1032.367	21.81
1032.525	29.37
1032.684	37.7
1032.843	56.88
1033.001	15.61
1033.16	150.27
1033.319	79.36
1033.477	55.91
1033.636	6.89
1033.794	-4.54
1033.953	40.99
1034.111	47.58
1034.27	30.34
1034.428	64.82
1034.587	24.53
1034.745	15.23
1034.903	5.15
1035.062	75.29
1035.22	-4.34
1035.378	51.46
1035.537	17.74
1035.695	26.46
1035.853	26.46
1036.011	80.32
1036.17	34.6
1036.328	-22.94
1036.486	27.04
1036.644	7.28
1036.802	-58.01
1036.96	-14.22
1037.119	12.51
1037.277	3.02
1037.435	15.42
1037.593	-9.57
1037.751	34.6
1037.909	74.32
1038.067	74.32
