Data from calibration2_FLMT105791__5__17-17-47-084.txt Node

Date: Mon Mar 20 17:17:47 GMT 2023
User: antho
Spectrometer: FLMT10579
Trigger mode: 0
Integration Time (sec): 1.000000E-1
Scans to average: 10
Electric dark correction enabled: true
Nonlinearity correction enabled: false
Boxcar width: 0
XAxis mode: Wavelengths
Number of Pixels in Spectrum: 3648
>>>>>Begin Spectral Data<<<<<
345.248	-156.73
345.464	-156.73
345.681	-156.73
345.898	-167.58
346.114	-141.03
346.331	-24.59
346.548	26.56
346.764	-4.05
346.981	-16.84
347.197	-26.14
347.414	18.23
347.631	-14.9
347.847	86.43
348.064	-20.71
348.28	23.65
348.497	-24.78
348.713	-22.85
348.93	28.5
349.146	63.37
349.363	61.63
349.579	103.67
349.796	88.56
350.012	75.97
350.229	130.8
350.445	111.42
350.661	78.48
350.878	118.01
351.094	142.81
351.311	105.61
351.527	113.55
351.743	94.76
351.96	122.66
352.176	162.76
352.392	122.27
352.609	120.91
352.825	106.19
353.041	114.71
353.257	116.85
353.474	97.28
353.69	139.51
353.906	122.08
354.122	103.28
354.339	179.23
354.555	143.2
354.771	119.56
354.987	204.42
355.203	191.24
355.42	130.6
355.636	127.31
355.852	117.23
356.068	124.6
356.284	117.81
356.5	214.88
356.716	152.5
356.932	150.95
357.148	177.29
357.364	139.9
357.58	176.91
357.796	165.48
358.012	175.16
358.228	157.15
358.444	75
358.66	172.06
358.876	143.78
359.092	109.29
359.308	171.29
359.524	198.61
359.74	182.33
359.956	197.44
360.172	195.31
360.388	217.21
360.604	166.06
360.819	265.84
361.035	187.18
361.251	213.72
361.467	174.58
361.683	233.29
361.898	185.04
362.114	223.99
362.33	194.73
362.546	267.77
362.762	226.89
362.977	245.11
363.193	200.74
363.409	271.46
363.624	227.48
363.84	185.24
364.056	207.13
364.271	234.84
364.487	268.55
364.703	258.47
364.918	227.09
365.134	238.13
365.35	227.28
365.565	354.38
365.781	268.55
365.996	314.86
366.212	369.3
366.427	324.16
366.643	305.94
366.858	301.49
367.074	279.79
367.289	370.46
367.505	387.12
367.72	282.69
367.936	316.79
368.151	350.89
368.367	349.54
368.582	331.52
368.798	281.14
369.013	359.03
369.228	318.73
369.444	295.67
369.659	381.5
369.874	315.82
370.09	377.44
370.305	292.57
370.52	333.65
370.736	384.22
370.951	333.65
371.166	352.25
371.381	384.6
371.597	367.17
371.812	317.76
372.027	324.35
372.242	333.46
372.458	405.72
372.673	341.01
372.888	299.16
373.103	343.72
373.318	426.45
373.533	355.15
373.749	305.36
373.964	257.12
374.179	351.47
374.394	288.89
374.609	346.05
374.824	290.44
375.039	353.02
375.254	302.84
375.469	385.19
375.684	378.4
375.899	444.28
376.114	385.77
376.329	397.97
376.544	398.55
376.759	391.39
376.974	350.5
377.189	391.19
377.404	392.35
377.619	440.21
377.834	367.17
378.049	400.3
378.264	456.1
378.478	465.2
378.693	462.1
378.908	533.21
379.123	473.15
379.338	516.93
379.553	432.46
379.767	420.84
379.982	425.1
380.197	440.98
380.412	424.32
380.626	462.1
380.841	540.18
381.056	519.65
381.271	553.16
381.485	470.05
381.7	426.65
381.915	472.57
382.129	417.35
382.344	413.09
382.559	409.4
382.773	401.85
382.988	361.35
383.202	380.34
383.417	310.01
383.632	452.42
383.846	341.79
384.061	357.29
384.275	348.18
384.49	391.19
384.704	472.18
384.919	491.94
385.133	495.04
385.348	590.17
385.562	467.14
385.777	563.24
385.991	484.97
386.206	461.33
386.42	496.59
386.634	538.44
386.849	558.98
387.063	565.18
387.277	507.83
387.492	537.66
387.706	504.53
387.92	512.09
388.135	610.13
388.349	550.45
388.563	568.47
388.778	529.53
388.992	578.74
389.206	575.45
389.42	680.07
389.635	620.2
389.849	679.88
390.063	758.73
390.277	691.89
390.491	777.52
390.706	725.41
390.92	755.82
391.134	776.75
391.348	789.15
391.562	756.21
391.776	813.17
391.99	793.8
392.205	831.77
392.419	757.96
392.633	720.95
392.847	743.81
393.061	611.87
393.275	600.25
393.489	486.9
393.703	398.55
393.917	465.59
394.131	420.84
394.345	519.45
394.559	651.78
394.773	647.71
394.986	763.19
395.2	806.2
395.414	882.15
395.628	863.94
395.842	929.42
396.056	900.55
396.27	819.76
396.484	843.79
396.697	737.61
396.911	668.64
397.125	572.35
397.339	569.44
397.553	559.75
397.766	716.3
397.98	826.54
398.194	958.87
398.408	978.44
398.621	1101.66
398.835	1134.6
399.049	1211.13
399.262	1248.14
399.476	1266.35
399.69	1271.58
399.903	1336.48
400.117	1287.08
400.331	1361.87
400.544	1290.18
400.758	1460.48
400.971	1339.78
401.185	1395.58
401.398	1344.23
401.612	1467.65
401.826	1467.85
402.039	1458.74
402.253	1449.44
402.466	1526.36
402.68	1489.16
402.893	1557.55
403.106	1492.64
403.32	1464.55
403.533	1501.56
403.747	1472.11
403.96	1502.91
404.174	1533.53
404.387	1501.36
404.6	1535.08
404.814	1529.07
405.027	1485.09
405.24	1520.93
405.454	1498.84
405.667	1590.1
405.88	1512.6
406.094	1556.39
406.307	1578.86
406.52	1525.97
406.733	1469.01
406.947	1446.34
407.16	1579.64
407.373	1630.98
407.586	1590.49
407.799	1586.22
408.012	1639.89
408.226	1602.31
408.439	1734.25
408.652	1661.4
408.865	1773.58
409.078	1846.43
409.291	1790.43
409.504	1810
409.717	1828.8
409.93	1785.59
410.143	1696.27
410.357	1566.85
410.57	1563.94
410.783	1547.28
410.996	1633.89
411.209	1705.38
411.421	1856.89
411.634	1898.16
411.847	1885.95
412.06	1931.09
412.273	1955.89
412.486	1955.89
412.699	2025.26
412.912	2013.82
413.125	1953.18
413.338	1946.4
413.55	1937.29
413.763	1894.48
413.976	1948.92
414.189	1926.83
414.402	1977.79
414.615	2074.66
414.827	1965.39
415.04	1969.07
415.253	2012.47
415.466	2063.81
415.678	2096.17
415.891	2052.77
416.104	2012.08
416.316	2021.77
416.529	2093.07
416.742	2190.13
416.954	2165.53
417.167	2116.51
417.38	2086.09
417.592	2081.25
417.805	1967.13
418.017	2033.97
418.23	2047.92
418.442	1998.33
418.655	2095.2
418.868	2049.28
419.08	2112.05
419.293	2121.94
419.505	2168.82
419.718	2103.72
419.93	2157.2
420.142	2128.72
420.355	2138.02
420.567	2126.78
420.78	2154.49
420.992	2144.6
421.205	2303.48
421.417	2304.06
421.629	2328.28
421.842	2309.1
422.054	2239.73
422.266	2333.9
422.479	2310.65
422.691	2162.24
422.903	2189.94
423.115	2056.84
423.328	2134.92
423.54	2127.75
423.752	2187.03
423.964	2259.69
424.177	2291.27
424.389	2262.6
424.601	2383.69
424.813	2347.46
425.025	2361.79
425.238	2374.19
425.45	2299.8
425.662	2272.09
425.874	2604.95
426.086	2337.58
426.298	2383.69
426.51	2340.1
426.722	2345.33
426.934	2378.46
427.146	2404.23
427.358	2313.94
427.57	2335.83
427.782	2247.29
427.994	2299.8
428.206	2293.21
428.418	2378.65
428.63	2439.1
428.842	2516.6
429.054	2379.81
429.266	2339.51
429.478	2304.25
429.69	2292.24
429.902	2208.73
430.114	2223.27
430.325	2070.79
430.537	1968.49
430.749	1910.36
430.961	1793.15
431.173	1862.31
431.384	1914.43
431.596	1965
431.808	2221.13
432.02	2515.44
432.231	2743.28
432.443	2848.68
432.655	2739.21
432.867	2678.57
433.078	2690.2
433.29	2768.66
433.502	2818.26
433.713	2856.82
433.925	2913.01
434.136	2811.87
434.348	2589.45
434.56	2571.04
434.771	2752.97
434.983	2586.15
435.194	2829.31
435.406	2977.91
435.617	2993.8
435.829	3057.93
436.04	3041.46
436.252	3030.22
436.463	3173.01
436.675	3254.39
436.886	3320.07
437.098	3346.81
437.309	3298.76
437.521	3238.11
437.732	3123.8
437.943	3120.32
438.155	3101.52
438.366	3012.98
438.578	3129.81
438.789	2936.06
439	2883.94
439.211	2929.09
439.423	2945.94
439.634	3099.2
439.845	3207.7
440.057	3251.87
440.268	3403.57
440.479	3349.71
440.69	3315.22
440.902	3232.69
441.113	3218.35
441.324	3316.58
441.535	3431.86
441.746	3552.57
441.957	3501.8
442.168	3548.3
442.38	3588.21
442.591	3660.68
442.802	3563.03
443.013	3704.66
443.224	3744.38
443.435	3673.66
443.646	3619.8
443.857	3617.86
444.068	3636.65
444.279	3585.89
444.49	3840.28
444.701	3744.38
444.912	3927.27
445.123	3897.82
445.334	3723.84
445.545	3812.77
445.756	3741.86
445.967	3658.74
446.178	3599.26
446.388	3581.63
446.599	3654.67
446.81	3633.94
447.021	3698.07
447.232	3809.28
447.443	3851.13
447.653	3899.37
447.864	4047.2
448.075	4002.06
448.286	4020.08
448.496	3961.37
448.707	4050.11
448.918	3940.06
449.129	3983.65
449.339	4015.81
449.55	4060.38
449.761	4022.98
449.971	4037.13
450.182	4094.67
450.393	4137.68
450.603	4158.8
450.814	4311.86
451.024	4247.34
451.235	4401.18
451.446	4422.1
451.656	4457.75
451.867	4328.91
452.077	4190.77
452.288	4339.18
452.498	4221.57
452.709	4241.92
452.919	4111.33
453.13	4026.47
453.34	4055.73
453.55	3827.3
453.761	4089.25
453.971	4034.22
454.182	4121.02
454.392	4172.56
454.602	4320.77
454.813	4344.99
455.023	4257.61
455.233	4154.15
455.444	4255.48
455.654	4079.36
455.864	4218.67
456.075	4246.96
456.285	4247.54
456.495	4334.53
456.705	4337.44
456.916	4489.72
457.126	4516.07
457.336	4489.72
457.546	4378.51
457.756	4446.13
457.967	4526.73
458.177	4394.78
458.387	4392.85
458.597	4300.04
458.807	4414.55
459.017	4316.51
459.227	4331.82
459.437	4332.01
459.647	4472.48
459.857	4429.66
460.068	4497.86
460.278	4530.8
460.488	4498.44
460.698	4543.58
460.908	4587.37
461.117	4640.46
461.327	4668.94
461.537	4742.37
461.747	4777.44
461.957	4707.88
462.167	4865.59
462.377	4790.22
462.587	4782.86
462.797	4885.74
463.007	4801.07
463.216	4970.99
463.426	5046.16
463.636	4911.31
463.846	4753.6
464.056	4830.33
464.265	4779.37
464.475	4763.1
464.685	4934.56
464.895	4858.42
465.104	4753.41
465.314	4965.95
465.524	4840.79
465.733	4866.95
465.943	5022.33
466.153	5089.95
466.362	5096.73
466.572	5080.84
466.782	4970.6
466.991	5055.85
467.201	5039.77
467.41	4909.76
467.62	5124.05
467.829	5111.07
468.039	5185.27
468.249	5109.13
468.458	5234.1
468.668	5286.02
468.877	5337.75
469.086	5376.89
469.296	5520.07
469.505	5475.51
469.715	5491.78
469.924	5408.86
470.134	5579.55
470.343	5363.52
470.552	5345.89
470.762	5327.1
470.971	5429.39
471.18	5430.56
471.39	5533.24
471.599	5453.61
471.808	5523.17
472.018	5728.15
472.227	5870.36
472.436	6055.2
472.645	6016.84
472.855	6017.03
473.064	6218.14
473.273	6255.15
473.482	6010.25
473.691	6153.82
473.901	6080.39
474.11	6024.78
474.319	6201.86
474.528	6167.18
474.737	6514.19
474.946	6414.79
475.155	6446.76
475.364	6556.03
475.573	6490.35
475.783	6634.31
475.992	6537.24
476.201	6534.34
476.41	6622.1
476.619	6533.37
476.828	6532.79
477.037	6508.57
477.245	6524.84
477.454	6667.63
477.663	6835.81
477.872	7018.12
478.081	7160.91
478.29	7000.68
478.499	7225.82
478.708	7329.47
478.917	7352.53
479.125	7113.06
479.334	7171.18
479.543	7367.45
479.752	7435.26
479.961	7381.59
480.169	7607.5
480.378	7644.31
480.587	7946.36
480.796	7768.51
481.004	7752.23
481.213	7835.74
481.422	7902
481.63	8050.02
481.839	8112.41
482.048	8242.99
482.256	8138.56
482.465	8407.68
482.674	8301.89
482.882	8354.01
483.091	8457.66
483.299	8262.75
483.508	8485.95
483.716	8559.19
483.925	8637.66
484.134	8382.68
484.342	8519.86
484.551	8569.26
484.759	8479.94
484.967	8754.68
485.176	8706.63
485.384	8720.97
485.593	8630.29
485.801	8526.83
486.01	8179.64
486.218	7782.07
486.426	7488.54
486.635	7324.63
486.843	7432.55
487.051	7686.16
487.26	7799.7
487.468	8032.19
487.676	8294.53
487.885	8515.79
488.093	8724.07
488.301	8980.39
488.509	8926.34
488.717	9142.56
488.926	9118.92
489.134	9074.36
489.342	9080.75
489.55	8948.23
489.758	9238.66
489.967	9521.34
490.175	9469.41
490.383	9833.66
490.591	9988.65
490.799	9940.61
491.007	9886.55
491.215	9846.25
491.423	9808.47
491.631	9818.54
491.839	9680.6
492.047	9686.99
492.255	9506.61
492.463	9495.37
492.671	9316.16
492.879	9651.92
493.087	9767.2
493.295	9829.01
493.503	9948.16
493.711	10241.69
493.919	10069.06
494.127	10158.96
494.334	10075.84
494.542	10083.2
494.75	10400.56
494.958	10249.63
495.166	10554.01
495.374	10568.35
495.581	10653.4
495.789	10621.24
495.997	10691.18
496.205	10250.41
496.412	10419.74
496.62	10694.09
496.828	10591.21
497.035	10661.73
497.243	10777.98
497.451	10747.76
497.658	10725.09
497.866	10675.49
498.074	10900.24
498.281	10585.2
498.489	10669.29
498.696	10501.31
498.904	10357.16
499.112	10398.82
499.319	10649.91
499.527	10703.39
499.734	10803.56
499.942	10763.26
500.149	10743.11
500.357	10738.65
500.564	10588.11
500.771	10500.53
500.979	10407.92
501.186	10240.72
501.394	10541.42
501.601	10286.83
501.808	10267.84
502.016	10374.6
502.223	10271.33
502.43	10389.52
502.638	10312.02
502.845	10617.56
503.052	10716.76
503.26	10692.93
503.467	10792.51
503.674	10870.98
503.881	10787.86
504.089	10708.04
504.296	10642.16
504.503	10491.82
504.71	10503.05
504.917	10616.2
505.125	10718.69
505.332	10886.48
505.539	10856.84
505.746	11121.49
505.953	11273
506.16	11262.93
506.367	11339.46
506.574	11506.66
506.781	11414.25
506.988	11392.16
507.195	11224.57
507.402	11255.57
507.609	11269.9
507.816	11132.54
508.023	11126.92
508.23	10980.64
508.437	10898.1
508.644	10952.74
508.851	11013.77
509.058	11323.19
509.265	11282.11
509.472	11441.37
509.679	11593.46
509.885	11470.63
510.092	11441.76
510.299	11375.3
510.506	11277.27
510.713	11304.2
510.92	11327.25
511.126	11419.28
511.333	11463.65
511.54	11544.83
511.746	11580.09
511.953	11656.62
512.16	11808.91
512.367	11657.79
512.573	11582.03
512.78	11491.16
512.987	11513.45
513.193	11340.82
513.4	11203.64
513.606	11341.01
513.813	11318.92
514.02	11235.42
514.226	11234.26
514.433	11227.28
514.639	11073.25
514.846	11134.48
515.052	11141.06
515.259	11297.61
515.465	11249.95
515.672	11320.67
515.878	11403.2
516.085	11495.81
516.291	11538.63
516.497	11392.55
516.704	11102.51
516.91	10806.85
517.117	10315.89
517.323	10067.7
517.529	10048.52
517.736	9932.27
517.942	10042.9
518.148	10268.43
518.354	10433.3
518.561	10392.04
518.767	10326.74
518.973	10461.59
519.179	10655.73
519.386	10788.25
519.592	10701.06
519.798	10803.56
520.004	11381.31
520.21	11298.19
520.417	11328.03
520.623	11405.14
520.829	11408.63
521.035	11488.45
521.241	11357.67
521.447	11505.11
521.653	11749.62
521.859	11603.15
522.065	11665.34
522.271	11729.67
522.477	11728.5
522.683	11875.56
522.889	11521.2
523.095	11502.6
523.301	11548.51
523.507	11353.41
523.713	11533.01
523.919	11437.88
524.125	11736.25
524.331	11897.26
524.537	12102.24
524.742	12057.49
524.948	12120.07
525.154	12139.83
525.36	12173.35
525.566	11955.19
525.772	12141.38
525.977	11963.71
526.183	11841.27
526.389	11884.08
526.595	11544.64
526.8	11387.7
527.006	11061.43
527.212	10814.6
527.417	10766.36
527.623	10808.59
527.829	11011.64
528.034	11239.49
528.24	11268.74
528.446	11483.8
528.651	11763.77
528.857	11885.44
529.062	11936.4
529.268	12037.73
529.473	12167.92
529.679	12319.05
529.884	12285.72
530.09	12255.3
530.295	11935.04
530.501	12088.1
530.706	12097.01
530.912	12237.28
531.117	12313.43
531.323	12262.67
531.528	12456.61
531.733	12488.38
531.939	12388.21
532.144	12323.89
532.35	12269.25
532.555	12213.65
532.76	11984.83
532.966	11784.5
533.171	11731.22
533.376	11703.12
533.581	11651.01
533.787	11864.13
533.992	12045.09
534.197	11798.06
534.402	12089.26
534.607	12200.67
534.813	12098.17
535.018	12090.81
535.223	12328.93
535.428	12143.51
535.633	12372.33
535.838	12582.74
536.043	12586.03
536.249	12805.55
536.454	12582.54
536.659	12556.39
536.864	12506.4
537.069	12373.1
537.274	12260.92
537.479	12285.72
537.684	12181.49
537.889	12178.39
538.094	12509.11
538.299	12363.22
538.504	12591.65
538.708	12391.31
538.913	12583.32
539.118	12553.29
539.323	12530.81
539.528	12327.18
539.733	12356.25
539.938	12281.85
540.142	12171.99
540.347	12168.7
540.552	12128.79
540.757	11899
540.962	11994.13
541.166	11882.15
541.371	11967.98
541.576	11966.62
541.781	11987.54
541.985	12328.93
542.19	12176.64
542.395	12527.52
542.599	12469.98
542.804	12236.51
543.008	12454.48
543.213	12339.58
543.418	12282.23
543.622	12418.24
543.827	12170.64
544.031	12388.41
544.236	12452.93
544.44	12597.07
544.645	12585.84
544.849	12599.98
545.054	12628.27
545.258	12719.91
545.463	12767.18
545.667	12521.51
545.872	12706.54
546.076	12576.34
546.281	12623.23
546.485	12629.62
546.689	12632.53
546.894	12623.81
547.098	12679.03
547.302	12621.49
547.507	12604.05
547.711	12674.57
547.915	12606.57
548.119	12378.91
548.324	12389.18
548.528	12513.57
548.732	12492.84
548.936	12622.26
549.141	12591.26
549.345	12613.74
549.549	12644.74
549.753	12739.87
549.957	12808.65
550.161	12736.96
550.366	12799.35
550.57	12718.36
550.774	12641.64
550.978	12736.96
551.182	12742.97
551.386	12619.16
551.59	12643.96
551.794	12560.65
551.998	12691.43
552.202	12748.58
552.406	12670.31
552.61	12856.11
552.814	12783.46
553.018	12689.1
553.222	12551.54
553.426	12585.45
553.63	12784.62
553.833	12697.63
554.037	12504.27
554.241	12547.86
554.445	12808.84
554.649	12686.39
554.853	12607.54
555.056	12814.26
555.26	12887.5
555.464	12749.55
555.668	12772.22
555.871	12707.7
556.075	12785.59
556.279	12686.97
556.483	12621.1
556.686	12513.57
556.89	12516.67
557.094	12525.58
557.297	12314.4
557.501	12436.65
557.704	12259.76
557.908	12403.13
558.112	12310.72
558.315	12451.96
558.519	12391.7
558.722	12174.12
558.926	12158.24
559.129	11955.96
559.333	12058.65
559.536	12078.8
559.74	11965.26
559.943	11885.63
560.147	11975.14
560.35	11932.33
560.553	12160.17
560.757	12049.74
560.96	12187.49
561.164	12320.21
561.367	12466.1
561.57	12327.38
561.774	12198.92
561.977	12125.88
562.18	12157.46
562.384	12185.36
562.587	12064.85
562.79	12263.25
562.993	12084.81
563.197	12154.17
563.4	12291.53
563.603	12263.83
563.806	12255.11
564.009	12208.22
564.212	12240.38
564.416	12057.29
564.619	12115.42
564.822	11948.21
565.025	12179.35
565.228	12069.69
565.431	12151.45
565.634	12029.2
565.837	11890.28
566.04	11806.78
566.243	11735.87
566.446	11584.36
566.649	11846.5
566.852	11614.19
567.055	11837.58
567.258	11776.17
567.461	11965.07
567.664	11977.08
567.867	11917.21
568.07	11895.13
568.273	11922.06
568.475	12043.93
568.678	11675.61
568.881	11702.35
569.084	11553.94
569.287	11412.7
569.489	11549.09
569.692	11657.21
569.895	11665.92
570.098	11507.05
570.3	11573.51
570.503	11424.52
570.706	11416.18
570.909	11367.94
571.111	11216.43
571.314	11221.66
571.516	11257.51
571.719	11301.29
571.922	11276.49
572.124	11345.27
572.327	11521.2
572.529	11446.6
572.732	11539.41
572.935	11583.58
573.137	11706.61
573.34	11590.56
573.542	11677.55
573.745	11683.36
573.947	11643.84
574.15	11504.34
574.352	11556.26
574.554	11684.52
574.757	11523.13
574.959	11360.77
575.162	11480.7
575.364	11299.35
575.566	11461.52
575.769	11249.56
575.971	11298.39
576.173	10961.65
576.376	11224.57
576.578	11352.83
576.78	11324.54
576.982	11233.29
577.185	11318.15
577.387	11303.04
577.589	11396.42
577.791	11307.69
577.993	11400.1
578.196	11339.46
578.398	11202.87
578.6	11210.42
578.802	11045.35
579.004	10982.19
579.206	11142.03
579.408	11262.16
579.61	11099.99
579.812	11386.15
580.014	11252.27
580.216	11235.03
580.418	11384.6
580.62	11430.13
580.822	11416.77
581.024	11441.18
581.226	11500.08
581.428	11446.21
581.63	11632.99
581.832	11512.09
582.034	11564.21
582.236	11581.64
582.438	11673.29
582.64	11784.69
582.841	11774.42
583.043	11919.35
583.245	11758.34
583.447	11880.21
583.649	11808.13
583.85	11770.55
584.052	11798.25
584.254	11738.97
584.456	11805.03
584.657	11736.45
584.859	11931.94
585.061	11760.67
585.262	11769.97
585.464	11640.16
585.666	11690.34
585.867	11556.07
586.069	11541.34
586.27	11499.88
586.472	11522.94
586.674	11517.9
586.875	11515.38
587.077	11544.83
587.278	11608.58
587.48	11490.58
587.681	11671.54
587.883	11574.28
588.084	11426.65
588.285	11422.58
588.487	11213.33
588.688	11209.84
588.89	10799.68
589.091	10654.18
589.292	10419.16
589.494	10139.2
589.695	10031.86
589.896	9895.66
590.098	9939.64
590.299	10012.68
590.5	10150.24
590.702	10367.43
590.903	10508.48
591.104	10668.51
591.305	10797.36
591.507	10808.79
591.708	10866.33
591.909	10785.73
592.11	10767.52
592.311	10944.41
592.512	10731.09
592.714	10713.08
592.915	10877.37
593.116	10761.12
593.317	10963.78
593.518	10916.32
593.719	11031.6
593.92	11042.83
594.121	11023.26
594.322	10987.62
594.523	10852.38
594.724	10769.26
594.925	10810.92
595.126	10699.71
595.327	10709.98
595.528	10830.87
595.729	10820.8
595.929	10891.13
596.13	10825.06
596.331	11074.03
596.532	10901.79
596.733	11147.07
596.934	11118.98
597.135	11160.24
597.335	11123.63
597.536	11021.13
597.737	11056.59
597.938	10934.33
598.138	10985.29
598.339	10946.54
598.54	11062.01
598.74	10907.6
598.941	10938.21
599.142	11157.92
599.342	11025.59
599.543	10998.47
599.744	11131.38
599.944	11076.16
600.145	11166.44
600.345	11018.03
600.546	11094.56
600.746	11121.49
600.947	11253.63
601.147	10948.09
601.348	11136.8
601.548	11000.02
601.749	10968.43
601.949	10852.19
602.15	10910.31
602.35	10769.26
602.551	10870.01
602.751	10868.27
602.951	10999.43
603.152	10888.22
603.352	11040.9
603.552	11020.75
603.753	11118.78
603.953	11214.49
604.153	11168.38
604.354	11167.22
604.554	11168.38
604.754	11197.83
604.954	11050.97
605.155	11189.5
605.355	11198.8
605.555	11186.79
605.755	11292.38
605.955	11117.62
606.155	11177.29
606.356	11195.12
606.556	11097.86
606.756	11154.24
606.956	11064.73
607.156	11178.84
607.356	11089.53
607.556	11114.33
607.756	11146.68
607.956	11173.61
608.156	11134.09
608.356	10942.67
608.556	11122.85
608.756	10944.99
608.956	11032.95
609.156	10943.83
609.356	10982.19
609.556	10858
609.755	10967.66
609.955	10914.96
610.155	10945.18
610.355	10931.62
610.555	10737.88
610.755	10731.48
610.954	10736.13
611.154	10865.75
611.354	10857.61
611.554	10812.86
611.753	10870.2
611.953	10791.16
612.153	10873.69
612.352	10781.86
612.552	10717.14
612.752	10654.95
612.951	10842.3
613.151	10609.03
613.351	10716.37
613.55	10726.44
613.75	10749.31
613.949	10493.75
614.149	10611.55
614.348	10551.88
614.548	10529.6
614.747	10507.9
614.947	10657.86
615.146	10465.47
615.346	10699.13
615.545	10704.36
615.745	10576.68
615.944	10535.41
616.144	10556.53
616.343	10388.74
616.542	10449.39
616.742	10279.66
616.941	10323.06
617.14	10178.72
617.34	10330.04
617.539	10356.77
617.738	10322.48
617.938	10490.07
618.137	10450.55
618.336	10449.97
618.535	10569.7
618.734	10552.27
618.934	10432.14
619.133	10534.44
619.332	10672.78
619.531	10398.43
619.73	10541.8
619.929	10565.63
620.128	10568.73
620.328	10613.1
620.527	10499.18
620.726	10624.15
620.925	10518.36
621.124	10636.35
621.323	10549.94
621.522	10386.42
621.721	10600.51
621.92	10314.92
622.119	10433.5
622.318	10376.54
622.517	10425.75
622.715	10360.26
622.914	10235.68
623.113	10325.97
623.312	10057.63
623.511	10270.75
623.71	10249.44
623.909	10129.31
624.107	10256.03
624.306	10167.48
624.505	10046.2
624.704	10033.99
624.902	9954.75
625.101	10069.25
625.3	9945.45
625.499	9975.09
625.697	9995.82
625.896	9864.46
626.095	9776.11
626.293	9838.5
626.492	9865.24
626.69	9899.53
626.889	9984.78
627.088	9996.02
627.286	9931.5
627.485	9781.15
627.683	9773.21
627.882	9616.47
628.08	9454.11
628.279	9386.49
628.477	9426.79
628.676	9282.45
628.874	9485.49
629.073	9337.28
629.271	9391.53
629.469	9467.67
629.668	9440.93
629.866	9295.23
630.065	9394.04
630.263	9427.18
630.461	9342.51
630.66	9441.12
630.858	9409.35
631.056	9567.64
631.254	9611.43
631.453	9462.24
631.651	9506.42
631.849	9433.96
632.047	9385.71
632.245	9350.45
632.444	9458.56
632.642	9548.46
632.84	9726.9
633.038	9511.26
633.236	9474.64
633.434	9580.24
633.632	9668.39
633.83	9469.02
634.028	9707.53
634.227	9581.98
634.425	9766.23
634.623	9578.88
634.821	9699.2
635.019	9685.05
635.216	9737.95
635.414	9718.18
635.612	9658.32
635.81	9657.54
636.008	9709.66
636.206	9717.41
636.404	9654.44
636.602	9627.32
636.8	9558.73
636.997	9705.78
637.195	9689.32
637.393	9655.8
637.591	9796.65
637.789	9746.28
637.986	9794.71
638.184	9744.73
638.382	9811.38
638.58	9838.69
638.777	9860.01
638.975	9820.87
639.173	9817.96
639.37	9778.05
639.568	9831.91
639.765	9833.27
639.963	9708.5
640.161	9663.35
640.358	9729.81
640.556	9543.23
640.753	9621.7
640.951	9562.22
641.148	9604.07
641.346	9649.79
641.543	9550.4
641.741	9587.02
641.938	9469.61
642.136	9606.58
642.333	9478.13
642.531	9669.75
642.728	9602.32
642.925	9716.83
643.123	9663.74
643.32	9629.64
643.517	9612.98
643.715	9588.18
643.912	9608.33
644.109	9626.15
644.306	9591.67
644.504	9533.35
644.701	9607.36
644.898	9606
645.095	9587.4
645.293	9519.98
645.49	9478.32
645.687	9488.59
645.884	9521.53
646.081	9305.89
646.278	9395.79
646.475	9277.21
646.672	9281.09
646.87	9222
647.067	9128.03
647.264	9184.22
647.461	9096.06
647.658	8964.31
647.855	9088.5
648.052	8923.82
648.249	8864.92
648.446	8959.08
648.642	9009.84
648.839	8832.18
649.036	8824.43
649.233	8891.27
649.43	8854.65
649.627	8634.94
649.824	8777.15
650.021	8687.84
650.217	8801.76
650.414	8927.69
650.611	8911.23
650.808	9116.6
651.004	8991.63
651.201	9038.32
651.398	9107.1
651.595	8965.28
651.791	8866.08
651.988	8960.05
652.185	8770.37
652.381	9029.02
652.578	8812.42
652.775	8997.06
652.971	9066.42
653.168	8888.75
653.364	9138.3
653.561	8878.48
653.757	9041.62
653.954	9117.95
654.15	8875.19
654.347	9017.4
654.543	9004.22
654.74	8911.23
654.936	8794.59
655.133	8733.75
655.329	8874.22
655.525	8598.32
655.722	8606.27
655.918	8410
656.115	8119.57
656.311	7897.93
656.507	7720.65
656.704	7551.12
656.9	7652.45
657.096	7850.07
657.292	7855.69
657.489	7959.35
657.685	8093.61
657.881	8121.32
658.077	8299.76
658.273	8412.13
658.47	8592.71
658.666	8486.14
658.862	8686.48
659.058	8654.12
659.254	8730.07
659.45	8823.85
659.646	8696.94
659.842	8803.89
660.038	8847.1
660.234	8682.02
660.43	8777.15
660.626	8959.86
660.822	8835.86
661.018	8970.32
661.214	8836.83
661.41	8781.61
661.606	8945.91
661.802	9006.74
661.998	8947.26
662.194	8860.08
662.39	8941.84
662.586	8971.87
662.781	8970.9
662.977	9045.11
663.173	8881.97
663.369	8932.15
663.564	8886.43
663.76	8944.94
663.956	8963.54
664.152	8817.84
664.347	8756.42
664.543	8901.54
664.739	8794.78
664.934	8707.6
665.13	8829.27
665.326	8858.14
665.521	8773.67
665.717	8787.81
665.912	8861.43
666.108	8672.92
666.304	8831.4
666.499	8705.85
666.695	8570.62
666.89	8746.54
667.086	8786.65
667.281	8765.53
667.477	8868.8
667.672	8751
667.867	8666.33
668.063	8773.28
668.258	8619.64
668.454	8705.66
668.649	8682.6
668.844	8749.06
669.04	8756.62
669.235	8673.11
669.43	8774.05
669.626	8569.46
669.821	8650.83
670.016	8635.52
670.211	8729.88
670.407	8490.21
670.602	8689.97
670.797	8516.37
670.992	8709.15
671.187	8551.83
671.382	8696.55
671.578	8422.4
671.773	8529.54
671.968	8406.13
672.163	8570.04
672.358	8477.23
672.553	8389.08
672.748	8501.26
672.943	8500.29
673.138	8514.63
673.333	8562.09
673.528	8291.62
673.723	8546.21
673.918	8418.53
674.113	8375.32
674.308	8567.13
674.503	8382.88
674.698	8505.13
674.892	8375.32
675.087	8441.39
675.282	8363.12
675.477	8390.82
675.672	8482.08
675.867	8299.18
676.061	8330.76
676.256	8255.97
676.451	8360.79
676.646	8362.73
676.84	8237.18
677.035	8240.47
677.23	8311.38
677.424	8296.08
677.619	8284.84
677.814	8389.27
678.008	8292.79
678.203	8211.02
678.397	8245.7
678.592	8229.04
678.787	8323.98
678.981	8198.04
679.176	8233.3
679.37	8189.91
679.565	8156.77
679.759	8267.79
679.954	8161.62
680.148	8104.27
680.342	8202.69
680.537	8228.07
680.731	8132.17
680.926	8195.52
681.12	8089.35
681.314	8125.39
681.509	8122.67
681.703	8062.42
681.897	8010.69
682.092	8050.79
682.286	8073.85
682.48	8068.04
682.674	8041.69
682.869	7952.18
683.063	8016.11
683.257	8075.59
683.451	7944.62
683.645	8013.6
683.839	7911.49
684.034	7876.03
684.228	7848.14
684.422	7706.51
684.616	7818.3
684.81	7842.13
685.004	7728.4
685.198	7822.37
685.392	7732.66
685.586	7752.62
685.78	7702.05
685.974	7731.69
686.168	7690.04
686.362	7660.01
686.556	7219.81
686.75	6908.46
686.944	6543.25
687.138	6106.35
687.331	5815.73
687.525	5593.11
687.719	5424.16
687.913	5487.33
688.107	5611.32
688.301	5592.92
688.494	5694.44
688.688	5602.6
688.882	5571.61
689.076	5630.31
689.269	5633.02
689.463	5812.82
689.657	5717.88
689.85	5738.42
690.044	5863.58
690.238	5927.91
690.431	5947.28
690.625	5922.48
690.818	6112.16
691.012	6117.58
691.205	6244.68
691.399	6227.83
691.593	6303.19
691.786	6338.07
691.98	6477.37
692.173	6539.37
692.366	6557.39
692.56	6592.85
692.753	6589.36
692.947	6495.59
693.14	6524.84
693.333	6506.05
693.527	6470.79
693.72	6492.49
693.914	6446.18
694.107	6337.68
694.3	6421.77
694.493	6260.96
694.687	6470.59
694.88	6334.19
695.073	6435.14
695.266	6432.42
695.46	6417.31
695.653	6459.55
695.846	6428.36
696.039	6488.42
696.232	6470.98
696.425	6645.93
696.618	6638.38
696.812	6713.55
697.005	6795.7
697.198	6928.42
697.391	6826.89
697.584	6917.76
697.777	6919.7
697.97	6828.83
698.163	6824.18
698.356	6761.79
698.549	6865.64
698.742	6813.91
698.935	6657.36
699.127	6703.09
699.32	6597.5
699.513	6581.61
699.706	6532.79
699.899	6541.5
700.092	6447.92
700.285	6440.95
700.477	6293.7
700.67	6418.86
700.863	6414.41
701.056	6539.95
701.248	6446.37
701.441	6435.52
701.634	6331.29
701.826	6450.06
702.019	6271.61
702.212	6369.07
702.404	6321.6
702.597	6249.53
702.79	6281.5
702.982	6302.61
703.175	6385.15
703.367	6390.57
703.56	6378.95
703.752	6532.4
703.945	6454.12
704.137	6441.34
704.33	6419.83
704.522	6474.08
704.715	6427
704.907	6501.59
705.1	6568.43
705.292	6471.56
705.484	6403.56
705.677	6525.81
705.869	6548.67
706.061	6459.55
706.254	6519.42
706.446	6465.36
706.638	6414.21
706.831	6551.58
707.023	6393.09
707.215	6594.98
707.407	6548.48
707.599	6391.74
707.792	6574.05
707.984	6518.64
708.176	6529.1
708.368	6443.08
708.56	6505.66
708.752	6441.72
708.944	6400.07
709.136	6463.23
709.329	6408.4
709.521	6503.92
709.713	6444.24
709.905	6460.9
710.097	6521.35
710.289	6418.09
710.481	6428.55
710.672	6395.81
710.864	6440.76
711.056	6470.98
711.248	6416.15
711.44	6416.15
711.632	6362.09
711.824	6370.81
712.016	6372.17
712.207	6360.16
712.399	6340.98
712.591	6424.09
712.783	6436.3
712.975	6347.56
713.166	6288.08
713.358	6286.34
713.55	6314.82
713.741	6295.06
713.933	6317.53
714.125	6253.4
714.316	6204.77
714.508	6243.71
714.7	6167.77
714.891	6153.23
715.083	6181.33
715.274	6101.5
715.466	6111.19
715.657	6073.6
715.849	5958.32
716.04	5957.16
716.232	5836.07
716.423	5784.34
716.615	5632.05
716.806	5444.12
716.998	5278.47
717.189	5067.86
717.381	4996.56
717.572	4786.15
717.763	4766.59
717.955	4677.66
718.146	4642.59
718.337	4504.64
718.528	4368.43
718.72	4180.69
718.911	4271.56
719.102	4193.67
719.293	4182.83
719.485	4103
719.676	4061.73
719.867	4013.1
720.058	4017.95
720.249	3936.18
720.44	3955.75
720.632	4087.5
720.823	4127.03
721.014	4322.13
721.205	4409.32
721.396	4523.05
721.587	4686.57
721.778	4767.36
721.969	4844.86
722.16	4877.22
722.351	4947.16
722.542	5086.07
722.733	5038.03
722.924	4917.13
723.115	4961.88
723.305	4894.65
723.496	4815.8
723.687	4605.19
723.878	4644.52
724.069	4578.84
724.26	4582.91
724.45	4426.17
724.641	4411.45
724.832	4422.49
725.023	4324.45
725.213	4330.65
725.404	4292.68
725.595	4272.72
725.785	4241.92
725.976	4350.61
726.167	4289.58
726.357	4249.86
726.548	4363.01
726.739	4262.46
726.929	4352.55
727.12	4365.14
727.31	4336.08
727.501	4264.2
727.691	4263.23
727.882	4250.44
728.072	4338.4
728.263	4343.83
728.453	4393.04
728.644	4358.17
728.834	4306.82
729.024	4279.31
729.215	4186.12
729.405	4258.19
729.596	4326.2
729.786	4318.25
729.976	4361.85
730.167	4350.03
730.357	4272.92
730.547	4282.22
730.737	4354.1
730.928	4348.67
731.118	4369.6
731.308	4283.77
731.498	4329.69
731.688	4393.62
731.879	4418.81
732.069	4503.67
732.259	4523.24
732.449	4548.62
732.639	4586.59
732.829	4635.03
733.019	4661.19
733.209	4810.76
733.399	4806.69
733.589	4871.98
733.779	4873.34
733.969	4854.74
734.159	4977.38
734.349	5005.67
734.539	5047.71
734.729	4990.94
734.919	5019.23
735.109	5098.67
735.299	4994.82
735.488	4993.66
735.678	4998.89
735.868	5020.59
736.058	4967.7
736.248	4921.39
736.437	4844.08
736.627	4850.09
736.817	5003.54
737.007	4943.28
737.196	4987.46
737.386	4912.28
737.576	4871.02
737.765	4963.63
737.955	4861.13
738.144	5089.56
738.334	4999.28
738.524	4928.56
738.713	4924.1
738.903	4904.73
739.092	4976.41
739.282	4914.61
739.471	4942.7
739.661	4937.66
739.85	5002.57
740.04	4976.61
740.229	4995.4
740.419	4989.59
740.608	4978.16
740.797	5000.63
740.987	5017.1
741.176	4953.94
741.365	4926.62
741.555	4881.28
741.744	5023.88
741.933	4933.98
742.123	4962.46
742.312	4958.2
742.501	4954.71
742.69	5029.11
742.88	4907.44
743.069	5046.16
743.258	5036.28
743.447	5061.47
743.636	5036.48
743.825	4964.4
744.014	5012.45
744.204	5016.52
744.393	4933.4
744.582	5033.96
744.771	5034.54
744.96	4913.45
745.149	4959.36
745.338	4956.85
745.527	5008.96
745.716	4987.46
745.905	4891.75
746.094	5008.19
746.283	5001.79
746.471	4945.61
746.66	4988.62
746.849	5014.39
747.038	4983.39
747.227	4909.76
747.416	4985.13
747.604	4868.5
747.793	4879.15
747.982	4931.66
748.171	4943.67
748.359	4896.78
748.548	4899.3
748.737	4890.2
748.926	4904.53
749.114	4766.97
749.303	4825.1
749.491	4820.45
749.68	4742.56
749.869	4883.22
750.057	4809.02
750.246	4770.65
750.434	4779.18
750.623	4762.52
750.811	4723.57
751	4792.16
751.188	4734.81
751.377	4717.37
751.565	4697.22
751.754	4654.99
751.942	4640.46
752.131	4747.4
752.319	4660.61
752.507	4639.1
752.696	4732.87
752.884	4705.17
753.072	4605.19
753.261	4635.22
753.449	4684.24
753.637	4634.26
753.825	4723.77
754.014	4674.17
754.202	4607.33
754.39	4665.45
754.578	4623.6
754.766	4582.33
754.955	4536.41
755.143	4645.69
755.331	4565.09
755.519	4581.17
755.707	4574.97
755.895	4552.11
756.083	4515.88
756.271	4466.28
756.459	4512.78
756.647	4494.56
756.835	4509.68
757.023	4459.5
757.211	4474.8
757.399	4394.78
757.587	4428.88
757.775	4379.28
757.963	4419.39
758.151	4432.37
758.339	4345.38
758.526	4326.39
758.714	4344.6
758.902	4186.12
759.09	4163.45
759.278	3866.24
759.465	3543.27
759.653	3129.42
759.841	2844.61
760.028	2401.71
760.216	2090.16
760.404	1956.48
760.591	1606.96
760.779	1382.79
760.967	1171.99
761.154	1015.25
761.342	1073.96
761.529	1052.45
761.717	1122.01
761.905	1124.91
762.092	1181.87
762.28	1136.73
762.467	1133.82
762.655	1094.11
762.842	1105.54
763.029	1099.92
763.217	1097.01
763.404	1124.53
763.592	1167.73
763.779	1125.69
763.966	1188.46
764.154	1210.74
764.341	1279.72
764.528	1313.82
764.716	1389.38
764.903	1441.5
765.09	1549.22
765.277	1618
765.465	1798.18
765.652	1892.93
765.839	1968.1
766.026	2110.31
766.213	2166.69
766.4	2308.51
766.588	2527.06
766.775	2581.89
766.962	2674.12
767.149	2813.23
767.336	2932.19
767.523	2890.92
767.71	3077.3
767.897	3208.66
768.084	3260.2
768.271	3352.81
768.458	3416.55
768.645	3494.83
768.832	3469.45
769.019	3526.99
769.206	3533.19
769.392	3647.31
769.579	3728.1
769.766	3717.44
769.953	3715.7
770.14	3738.56
770.327	3722.29
770.513	3757.16
770.7	3867.21
770.887	3743.6
771.073	3789.71
771.26	3773.44
771.447	3780.22
771.634	3740.11
771.82	3899.76
772.007	3794.36
772.193	3833.31
772.38	3838.73
772.567	3814.9
772.753	3796.69
772.94	3879.8
773.126	3836.02
773.313	3867.79
773.499	3853.84
773.686	3839.12
773.872	3786.22
774.059	3800.56
774.245	3781.77
774.432	3792.42
774.618	3684.12
774.804	3737.21
774.991	3708.53
775.177	3751.93
775.363	3718.99
775.55	3803.27
775.736	3716.67
775.922	3746.89
776.109	3693.61
776.295	3735.08
776.481	3727.33
776.667	3796.11
776.853	3715.31
777.04	3689.54
777.226	3708.73
777.412	3764.52
777.598	3705.04
777.784	3673.66
777.97	3632
778.156	3656.41
778.342	3665.91
778.528	3627.16
778.715	3560.32
778.901	3580.66
779.087	3637.04
779.272	3586.47
779.458	3590.35
779.644	3635.49
779.83	3592.67
780.016	3639.95
780.202	3603.13
780.388	3547.14
780.574	3471.58
780.76	3554.12
780.946	3560.12
781.131	3557.99
781.317	3504.52
781.503	3487.27
781.689	3491.53
781.874	3575.81
782.06	3439.22
782.246	3495.99
782.432	3505.87
782.617	3493.28
782.803	3543.85
782.989	3416.75
783.174	3395.63
783.36	3348.36
783.545	3397.76
783.731	3401.25
783.916	3360.95
784.102	3410.55
784.288	3330.14
784.473	3371.61
784.659	3327.04
784.844	3407.64
785.029	3322.39
785.215	3387.3
785.4	3288.49
785.586	3417.14
785.771	3260.39
785.956	3367.15
786.142	3269.11
786.327	3261.17
786.512	3279.77
786.698	3273.18
786.883	3213.51
787.068	3240.05
787.254	3249.35
787.439	3222.03
787.624	3220.29
787.809	3204.21
787.994	3207.31
788.18	3262.14
788.365	3144.53
788.55	3131.75
788.735	3179.41
788.92	3172.63
789.105	3164.88
789.29	3163.91
789.475	3079.05
789.66	3103.07
789.845	3054.63
790.03	3039.33
790.215	3048.24
790.4	3068.78
790.585	3091.83
790.77	3088.35
790.955	3009.1
791.14	3020.54
791.325	3088.35
791.51	2948.27
791.695	3006.78
791.879	2983.72
792.064	2991.28
792.249	3064.9
792.434	2956.79
792.618	3027.32
792.803	3098.42
792.988	2976.36
793.173	3043.01
793.357	3063.74
793.542	3003.87
793.727	3032.94
793.911	3036.23
794.096	3043.01
794.281	3055.02
794.465	3151.51
794.65	3040.3
794.834	3024.8
795.019	3108.69
795.203	3125.74
795.388	3097.07
795.572	3128.07
795.757	3088.35
795.941	3111.02
796.126	3038.17
796.31	3000.19
796.494	3067.42
796.679	3007.94
796.863	2960.47
797.048	3164.68
797.232	3042.24
797.416	3082.92
797.601	3076.53
797.785	3175.73
797.969	3132.72
798.153	3052.5
798.338	3135.43
798.522	3178.25
798.706	3162.94
798.89	3122.64
799.074	3229.78
799.258	3212.73
799.443	3115.86
799.627	3061.03
799.811	3145.7
799.995	3114.89
800.179	3032.35
800.363	3050.37
800.547	3086.41
800.731	3146.66
800.915	3011.62
801.099	3028.87
801.283	3058.12
801.467	3093.19
801.651	3053.08
801.835	3118.18
802.019	3055.02
802.202	3094.74
802.386	3038.55
802.57	3005.81
802.754	3024.22
802.938	2985.85
803.121	3024.22
803.305	3087.57
803.489	3086.02
803.673	3055.41
803.856	3039.72
804.04	3037.59
804.224	3044.37
804.407	3046.69
804.591	3018.21
804.775	3026.54
804.958	3050.95
805.142	3158.87
805.326	3046.89
805.509	3036.81
805.693	3117.41
805.876	3052.12
806.06	3079.05
806.243	3108.88
806.427	3121.67
806.61	3138.91
806.794	3048.24
806.977	3123.8
807.16	3096.1
807.344	3064.71
807.527	3087.96
807.71	3084.47
807.894	3081.37
808.077	3093.58
808.26	3037.2
808.444	3031.19
808.627	3098.62
808.81	2998.64
808.993	3006
809.177	2934.32
809.36	2959.7
809.543	2963.19
809.726	2892.86
809.909	2905.84
810.092	2867.67
810.276	2850.23
810.459	2889.17
810.642	2845.78
810.825	2800.05
811.008	2848.1
811.191	2692.72
811.374	2759.75
811.557	2746.96
811.74	2804.51
811.923	2700.27
812.106	2684.97
812.289	2666.17
812.472	2622.19
812.654	2705.7
812.837	2631.49
813.02	2519.31
813.203	2531.71
813.386	2402.48
813.569	2398.22
813.751	2351.91
813.934	2359.66
814.117	2331.57
814.3	2307.35
814.482	2256.2
814.665	2229.66
814.848	2175.41
815.03	2115.15
815.213	2088.42
815.396	2091.52
815.578	2052.77
815.761	2025.84
815.943	2125.42
816.126	1969.46
816.309	1960.54
816.491	1885.56
816.674	1814.27
816.856	1882.08
817.039	1889.44
817.221	1941.17
817.403	1872.2
817.586	1934.78
817.768	1916.37
817.951	1866.58
818.133	1838.1
818.315	1876.07
818.498	1908.62
818.68	1996.97
818.862	1949.11
819.045	1949.69
819.227	1939.43
819.409	1910.75
819.591	1957.06
819.774	1914.24
819.956	1911.14
820.138	1999.68
820.32	2002.59
820.502	2052.38
820.684	2116.9
820.866	2104.11
821.048	2160.49
821.231	2176.96
821.413	2170.76
821.595	2152.35
821.777	2153.13
821.959	2138.99
822.141	2207.18
822.323	2076.79
822.505	2018.09
822.686	1932.64
822.868	1892.54
823.05	1712.55
823.232	1694.92
823.414	1674.19
823.596	1717.59
823.778	1678.84
823.96	1720.3
824.141	1769.12
824.323	1800.51
824.505	1876.65
824.687	1917.34
824.868	1960.16
825.05	2026.03
825.232	2083.77
825.413	2140.73
825.595	2104.69
825.777	2050.25
825.958	2103.92
826.14	2061.87
826.321	2081.44
826.503	2095.39
826.685	2111.09
826.866	2128.52
827.048	2125.81
827.229	2058.39
827.411	2011.89
827.592	1973.33
827.773	1972.36
827.955	1891.18
828.136	1925.67
828.318	1879.17
828.499	1904.16
828.68	1866.19
828.862	1870.65
829.043	1912.69
829.224	1904.94
829.406	1822.6
829.587	1848.17
829.768	1902.61
829.949	1881.5
830.131	1873.16
830.312	1943.69
830.493	1884.21
830.674	1944.27
830.855	1884.01
831.036	1856.5
831.218	1941.94
831.399	1960.93
831.58	1924.31
831.761	1915.98
831.942	1902.23
832.123	1892.35
832.304	1837.51
832.485	1853.01
832.666	1891.76
832.847	1890.41
833.028	1880.33
833.209	1885.37
833.389	1853.21
833.57	1835.96
833.751	1824.92
833.932	1893.12
834.113	1859.21
834.294	1843.91
834.475	1882.27
834.655	1951.44
834.836	1958.99
835.017	1967.71
835.198	1847.4
835.378	1911.91
835.559	1947.76
835.74	1911.72
835.92	1870.45
836.101	1896.41
836.281	1920.05
836.462	1926.83
836.643	1988.64
836.823	1955.31
837.004	1937.49
837.184	2021.19
837.365	1972.17
837.545	1944.46
837.726	1928.38
837.906	1998.91
838.087	1940.01
838.267	1951.24
838.448	1897
838.628	1964.42
838.808	1914.05
838.989	1992.9
839.169	1919.66
839.349	1973.14
839.53	1952.6
839.71	2000.07
839.89	1928.38
840.07	1990.96
840.251	1934.78
840.431	1972.75
840.611	1955.51
840.791	1905.91
840.971	1970.81
841.151	1919.08
841.332	1873.16
841.512	2004.33
841.692	1885.56
841.872	1933.03
842.052	1926.25
842.232	1951.63
842.412	1852.82
842.592	1879.95
842.772	1919.86
842.952	1927.8
843.132	1893.7
843.312	1843.33
843.492	1877.62
843.672	1934
843.851	1842.16
844.031	1879.17
844.211	1907.65
844.391	1859.6
844.571	1882.85
844.751	1908.43
844.93	1903.2
845.11	1866.77
845.29	1880.14
845.47	1886.34
845.649	1916.95
845.829	1915.79
846.009	1820.85
846.188	1914.24
846.368	1846.62
846.547	1847.59
846.727	1895.45
846.907	1819.3
847.086	1869.29
847.266	1874.71
847.445	1860.76
847.625	1827.25
847.804	1810.58
847.984	1831.51
848.163	1825.7
848.343	1812.52
848.522	1808.07
848.701	1840.81
848.881	1786.75
849.06	1801.09
849.239	1783.85
849.419	1800.32
849.598	1732.89
849.777	1718.75
849.957	1709.84
850.136	1644.74
850.315	1664.3
850.494	1660.24
850.674	1665.08
850.853	1751.88
851.032	1655.2
851.211	1744.9
851.39	1712.94
851.569	1653.84
851.748	1653.07
851.927	1720.88
852.107	1709.84
852.286	1630.79
852.465	1656.55
852.644	1692.4
852.823	1678.25
853.002	1669.92
853.181	1673.02
853.359	1693.95
853.538	1616.45
853.717	1685.81
853.896	1549.61
854.075	1489.16
854.254	1481.02
854.433	1404.88
854.611	1472.88
854.79	1388.6
854.969	1474.24
855.148	1476.56
855.327	1463.97
855.505	1515.51
855.684	1514.93
855.863	1528.29
856.041	1503.11
856.22	1549.99
856.399	1508.34
856.577	1632.34
856.756	1588.36
856.934	1722.04
857.113	1711.77
857.291	1612.38
857.47	1575.76
857.648	1602.89
857.827	1605.79
858.005	1635.63
858.184	1602.69
858.362	1653.84
858.541	1590.87
858.719	1571.69
858.898	1573.44
859.076	1589.13
859.254	1640.67
859.433	1570.14
859.611	1555.61
859.789	1532.36
859.967	1617.22
860.146	1637.96
860.324	1510.47
860.502	1549.99
860.68	1493.23
860.859	1506.59
861.037	1516.48
861.215	1525.78
861.393	1540.69
861.571	1502.14
861.749	1472.69
861.927	1515.12
862.105	1531.39
862.283	1520.74
862.461	1488.77
862.639	1475.01
862.817	1500.01
862.995	1476.76
863.173	1464.16
863.351	1498.07
863.529	1515.89
863.707	1562.78
863.885	1505.04
864.063	1435.68
864.241	1449.25
864.418	1535.27
864.596	1470.95
864.774	1415.34
864.952	1475.98
865.129	1485.48
865.307	1442.46
865.485	1425.03
865.663	1459.13
865.84	1380.47
866.018	1377.95
866.196	1268.87
866.373	1283.2
866.551	1257.05
866.728	1204.35
866.906	1283.2
867.084	1293.67
867.261	1347.14
867.439	1333.19
867.616	1373.68
867.794	1354.89
867.971	1378.14
868.149	1332.8
868.326	1451.76
868.503	1347.53
868.681	1365.93
868.858	1333.19
869.035	1343.85
869.213	1389.38
869.39	1358.18
869.567	1417.66
869.745	1328.93
869.922	1393.06
870.099	1371.94
870.276	1374.27
870.454	1365.35
870.631	1388.02
870.808	1342.1
870.985	1391.51
871.162	1420.18
871.339	1336.29
871.517	1262.47
871.694	1298.32
871.871	1331.25
872.048	1324.08
872.225	1336.29
872.402	1346.37
872.579	1302.77
872.756	1373.1
872.933	1292.7
873.11	1317.88
873.287	1332.22
873.463	1295.02
873.64	1314.59
873.817	1298.7
873.994	1290.95
874.171	1225.85
874.348	1298.12
874.524	1235.74
874.701	1261.89
874.878	1185.36
875.055	1279.33
875.231	1228.95
875.408	1282.82
875.585	1193.89
875.762	1237.48
875.938	1217.72
876.115	1192.53
876.291	1235.54
876.468	1240.58
876.645	1192.14
876.821	1193.89
876.998	1235.93
877.174	1211.71
877.351	1207.26
877.527	1190.01
877.704	1222.95
877.88	1232.64
878.057	1201.06
878.233	1243.87
878.409	1179.16
878.586	1197.96
878.762	1197.18
878.938	1199.7
879.115	1116.97
879.291	1158.62
879.467	1145.06
879.644	1161.92
879.82	1208.03
879.996	1133.82
880.172	1124.33
880.349	1165.02
880.525	1172.38
880.701	1126.85
880.877	1124.33
881.053	1144.67
881.229	1151.65
881.405	1195.44
881.581	1144.48
881.757	1155.91
881.933	1180.71
882.109	1165.41
882.285	1117.36
882.461	1045.28
882.637	1142.35
882.813	1101.08
882.989	1142.54
883.165	1204.35
883.341	1120.84
883.517	1166.57
883.693	1148.94
883.869	1161.53
884.044	1106.51
884.22	1182.84
884.396	1170.64
884.572	1173.35
884.747	1185.17
884.923	1177.61
885.099	1189.43
885.275	1185.75
885.45	1134.21
885.626	1105.73
885.801	1120.46
885.977	1120.46
886.153	1080.35
886.328	1164.82
886.504	1085
886.679	1129.76
886.855	1103.41
887.03	1125.49
887.206	1123.17
887.381	1131.69
887.557	1147.19
887.732	1158.43
887.908	1165.02
888.083	1193.11
888.258	1098.56
888.434	1092.75
888.609	1123.94
888.784	1174.32
888.96	1102.44
889.135	1101.66
889.31	1093.33
889.485	1139.06
889.661	1122.98
889.836	1163.27
890.011	1116
890.186	1129.95
890.361	1116.78
890.537	1112.9
890.712	1130.72
890.887	1144.67
891.062	1105.73
891.237	1184.39
891.412	1076.28
891.587	1124.33
891.762	1135.18
891.937	1162.89
892.112	1059.04
892.287	1103.99
892.462	1045.48
892.637	1031.91
892.812	1013.12
892.987	1020.29
893.161	1048.77
893.336	993.55
893.511	1016.61
893.686	1053.61
893.861	1029.59
894.035	1013.9
894.21	1003.43
894.385	935.23
894.56	1001.88
894.734	951.12
894.909	926.9
895.084	935.43
895.258	921.09
895.433	922.83
895.608	900.75
895.782	831.19
895.957	880.4
896.131	862.58
896.306	804.65
896.48	813.17
896.655	812.59
896.829	751.17
897.004	737.03
897.178	771.13
897.353	762.99
897.527	800.19
897.701	790.7
897.876	703.9
898.05	814.53
898.224	811.82
898.399	803.1
898.573	755.82
898.747	663.79
898.921	693.24
899.096	592.5
899.27	635.51
899.444	627.37
899.618	669.8
899.792	652.17
899.967	651.78
900.141	730.06
900.315	656.04
900.489	665.15
900.663	671.74
900.837	661.47
901.011	641.51
901.185	748.66
901.359	692.66
901.533	686.27
901.707	675.03
901.881	664.38
902.055	606.44
902.229	660.89
902.403	719.98
902.576	670.96
902.75	685.11
902.924	811.82
903.098	728.31
903.272	779.46
903.446	816.85
903.619	783.34
903.793	839.91
903.967	811.82
904.14	864.32
904.314	846.3
904.488	819.18
904.661	841.85
904.835	831.39
905.009	878.85
905.182	899.39
905.356	878.47
905.529	855.8
905.703	777.14
905.876	808.91
906.05	801.35
906.223	792.05
906.397	675.42
906.57	695.96
906.744	667.09
906.917	664.38
907.09	688.21
907.264	643.06
907.437	640.74
907.61	610.13
907.784	654.69
907.957	616.33
908.13	583.2
908.304	642.29
908.477	583.39
908.65	626.59
908.823	551.23
908.996	657.98
909.17	579.71
909.343	571.18
909.516	618.07
909.689	579.32
909.862	561.88
910.035	577
910.208	575.45
910.381	574.86
910.554	645.58
910.727	584.36
910.9	576.8
911.073	589.59
911.246	621.75
911.419	612.64
911.592	634.54
911.765	584.94
911.938	575.45
912.11	577.96
912.283	604.7
912.456	629.89
912.629	596.56
912.802	557.62
912.974	519.45
913.147	464.62
913.32	434.98
913.493	473.73
913.665	505.12
913.838	521.78
914.01	532.63
914.183	538.25
914.356	511.32
914.528	565.95
914.701	579.9
914.873	556.85
915.046	521.2
915.218	477.8
915.391	415.6
915.563	442.34
915.736	485.74
915.908	511.7
916.081	486.52
916.253	524.68
916.425	518.29
916.598	517.71
916.77	519.84
916.942	473.53
917.115	441.37
917.287	510.93
917.459	466.95
917.632	440.79
917.804	400.49
917.976	462.68
918.148	470.24
918.32	493.88
918.493	544.83
918.665	545.22
918.837	523.13
919.009	575.45
919.181	562.66
919.353	513.45
919.525	514.61
919.697	530.3
919.869	548.13
920.041	589.01
920.213	634.15
920.385	585.52
920.557	515
920.729	568.08
920.901	549.29
921.073	524.49
921.244	545.41
921.416	591.72
921.588	523.71
921.76	514.03
921.932	565.95
922.103	555.88
922.275	558.59
922.447	551.81
922.619	460.75
922.79	550.06
922.962	524.49
923.134	550.45
923.305	472.57
923.477	456.87
923.648	470.43
923.82	470.24
923.991	449.32
924.163	391.77
924.335	441.95
924.506	434.4
924.677	482.45
924.849	447.96
925.02	484.38
925.192	477.02
925.363	463.65
925.535	474.12
925.706	421.22
925.877	524.1
926.049	425.68
926.22	451.45
926.391	474.31
926.562	482.64
926.734	437.5
926.905	483.22
927.076	400.88
927.247	437.11
927.419	396.81
927.59	388.48
927.761	396.04
927.932	349.73
928.103	373.37
928.274	333.26
928.445	343.14
928.616	342.95
928.787	307.11
928.958	364.07
929.129	337.14
929.3	345.66
929.471	297.42
929.642	233.48
929.813	190.47
929.984	279.98
930.155	216.24
930.326	288.89
930.496	237.74
930.667	183.49
930.838	223.79
931.009	177.29
931.18	201.71
931.35	193.96
931.521	161.8
931.692	135.25
931.863	87.01
932.033	156.76
932.204	155.98
932.374	158.11
932.545	110.84
932.716	154.82
932.886	127.7
933.057	86.43
933.227	71.9
933.398	181.75
933.568	69.77
933.739	44.38
933.909	39.15
934.08	91.27
934.25	41.67
934.421	48.45
934.591	75.38
934.761	56.78
934.932	22.68
935.102	42.06
935.272	62.21
935.443	61.24
935.613	42.83
935.783	59.88
935.953	59.3
936.123	220.5
936.294	28.69
936.464	50.2
936.634	55.82
936.804	32.37
936.974	12.22
937.144	65.5
937.314	70.73
937.484	56.4
937.655	12.61
937.825	89.14
937.995	32.37
938.165	102.12
938.334	46.71
938.504	93.6
938.674	59.3
938.844	74.61
939.014	145.91
939.184	129.05
939.354	167.61
939.524	176.52
939.694	112.58
939.863	79.45
940.033	182.14
940.203	171.29
940.373	176.52
940.542	135.64
940.712	146.3
940.882	147.46
941.051	185.04
941.221	143.58
941.391	166.64
941.56	113.55
941.73	93.98
941.899	202.87
942.069	94.18
942.238	128.08
942.408	119.75
942.577	135.83
942.747	116.85
942.916	48.26
943.086	68.02
943.255	112.2
943.425	97.66
943.594	65.89
943.763	20.94
943.933	40.32
944.102	16.68
944.271	84.3
944.441	105.8
944.61	78.48
944.779	84.88
944.948	167.61
945.117	48.07
945.287	77.52
945.456	33.53
945.625	42.25
945.794	106.38
945.963	61.05
946.132	92.24
946.301	87.59
946.47	136.22
946.639	41.48
946.808	52.52
946.977	90.88
947.146	143.78
947.315	91.08
947.484	105.41
947.653	77.71
947.822	66.86
947.991	72.48
948.16	167.99
948.329	125.56
948.498	107.35
948.666	83.33
948.835	120.14
949.004	44
949.173	61.05
949.341	85.46
949.51	109.29
949.679	114.52
949.847	104.06
950.016	158.11
950.185	149.01
950.353	83.91
950.522	54.27
950.69	139.71
950.859	90.88
951.028	110.84
951.196	96.89
951.365	75.58
951.533	78.68
951.701	92.43
951.87	117.23
952.038	69.77
952.207	80.42
952.375	175.94
952.543	85.46
952.712	83.33
952.88	66.28
953.048	133.7
953.217	98.83
953.385	87.01
953.553	145.13
953.721	56.01
953.89	76.93
954.058	75.38
954.226	76.93
954.394	92.05
954.562	41.67
954.73	86.23
954.898	58.14
955.067	106.19
955.235	75.77
955.403	135.25
955.571	160.44
955.739	130.02
955.907	32.37
956.075	54.65
956.243	64.73
956.41	96.11
956.578	49.81
956.746	22.1
956.914	59.88
957.082	105.41
957.25	106.58
957.418	82.16
957.585	93.6
957.753	151.72
957.921	46.32
958.089	66.47
958.256	122.27
958.424	87.4
958.592	81.39
958.759	79.84
958.927	85.85
959.095	83.91
959.262	93.21
959.43	97.47
959.597	58.14
959.765	77.71
959.932	63.57
960.1	126.34
960.267	97.28
960.435	70.35
960.602	150.75
960.77	68.22
960.937	59.11
961.104	110.06
961.272	43.42
961.439	48.45
961.606	107.35
961.774	106.77
961.941	68.8
962.108	121.88
962.275	101.54
962.443	132.54
962.61	101.35
962.777	160.83
962.944	138.35
963.111	89.33
963.278	144.94
963.446	98.63
963.613	129.83
963.78	107.93
963.947	129.83
964.114	112.78
964.281	175.36
964.448	130.8
964.615	79.65
964.782	119.17
964.949	139.32
965.116	141.45
965.282	165.28
965.449	84.1
965.616	61.24
965.783	148.04
965.95	97.66
966.117	67.83
966.283	87.4
966.45	143.97
966.617	119.17
966.784	158.31
966.95	144.75
967.117	158.11
967.284	85.65
967.45	88.75
967.617	177.49
967.784	158.31
967.95	206.74
968.117	125.56
968.283	170.9
968.45	225.34
968.616	143.2
968.783	155.01
968.949	122.66
969.116	166.25
969.282	140.87
969.449	130.6
969.615	121.88
969.781	100.96
969.948	135.25
970.114	90.69
970.28	200.35
970.447	148.62
970.613	194.73
970.779	117.04
970.945	155.79
971.112	158.89
971.278	116.85
971.444	130.6
971.61	178.26
971.776	122.27
971.942	180.2
972.108	136.61
972.275	138.35
972.441	139.71
972.607	204.81
972.773	115.88
972.939	132.93
973.105	137.96
973.271	79.84
973.437	107.55
973.602	79.26
973.768	134.86
973.934	118.98
974.1	120.91
974.266	58.53
974.432	129.25
974.598	123.63
974.763	123.63
974.929	93.4
975.095	153.66
975.261	88.56
975.426	79.26
975.592	81.58
975.758	196.86
975.923	60.85
976.089	75.19
976.255	133.51
976.42	127.7
976.586	134.09
976.751	128.28
976.917	184.27
977.082	155.01
977.248	76.35
977.413	66.08
977.579	94.18
977.744	122.85
977.91	83.13
978.075	77.13
978.24	138.93
978.406	114.13
978.571	87.98
978.736	108.13
978.902	120.91
979.067	64.34
979.232	34.7
979.397	121.69
979.563	171.29
979.728	86.81
979.893	125.95
980.058	91.85
980.223	136.61
980.388	91.85
980.554	87.78
980.719	93.21
980.884	124.98
981.049	162.57
981.214	84.68
981.379	115.68
981.544	94.37
981.709	95.53
981.874	106.58
982.039	100.57
982.204	108.71
982.368	111.23
982.533	85.26
982.698	137.38
982.863	143.39
983.028	89.72
983.193	145.52
983.357	124.4
983.522	119.56
983.687	122.27
983.852	107.74
984.016	99.41
984.181	100.76
984.346	136.61
984.51	121.3
984.675	96.31
984.839	135.06
985.004	93.6
985.168	157.53
985.333	145.52
985.498	129.83
985.662	135.45
985.827	138.55
985.991	94.76
986.155	85.26
986.32	139.32
986.484	188.14
986.649	120.14
986.813	81.97
986.977	107.16
987.142	148.62
987.306	76.16
987.47	96.31
987.634	105.61
987.799	127.5
987.963	113.16
988.127	126.73
988.291	190.28
988.455	113.36
988.62	111.23
988.784	144.36
988.948	145.13
989.112	65.5
989.276	112.2
989.44	116.07
989.604	101.93
989.768	102.31
989.932	182.72
990.096	57.56
990.26	73.83
990.424	75.77
990.588	93.21
990.752	148.04
990.915	123.05
991.079	82.75
991.243	80.81
991.407	111.23
991.571	101.15
991.734	118.2
991.898	120.72
992.062	194.93
992.226	90.11
992.389	65.5
992.553	47.87
992.717	54.07
992.88	85.46
993.044	86.23
993.207	92.82
993.371	104.25
993.535	124.98
993.698	113.55
993.862	100.38
994.025	152.11
994.189	126.15
994.352	113.94
994.515	95.15
994.679	135.45
994.842	78.29
995.006	120.91
995.169	77.52
995.332	68.99
995.496	104.64
995.659	35.08
995.822	93.4
995.985	69.38
996.149	110.45
996.312	91.27
996.475	149.98
996.638	90.88
996.801	159.47
996.964	162.76
997.128	79.26
997.291	82.55
997.454	65.31
997.617	44.38
997.78	143
997.943	84.3
998.106	111.42
998.269	69.57
998.432	69.96
998.595	87.2
998.758	57.75
998.92	38.96
999.083	4.86
999.246	72.09
999.409	39.35
999.572	17.65
999.735	62.79
999.897	80.23
1000.06	60.66
1000.223	70.15
1000.386	98.25
1000.548	90.11
1000.711	91.66
1000.874	89.14
1001.036	28.3
1001.199	130.8
1001.361	22.3
1001.524	84.3
1001.687	119.56
1001.849	63.95
1002.012	78.87
1002.174	79.07
1002.337	109.68
1002.499	41.28
1002.661	100.38
1002.824	46.71
1002.986	42.06
1003.149	75
1003.311	33.15
1003.473	100.76
1003.636	30.05
1003.798	78.1
1003.96	66.67
1004.123	65.31
1004.285	44.19
1004.447	66.28
1004.609	51.94
1004.771	97.86
1004.933	34.12
1005.096	41.09
1005.258	-2.89
1005.42	55.82
1005.582	97.86
1005.744	65.12
1005.906	16.48
1006.068	71.51
1006.23	35.86
1006.392	10.48
1006.554	8.73
1006.716	99.6
1006.878	67.63
1007.04	-13.55
1007.202	51.75
1007.363	55.62
1007.525	56.78
1007.687	61.43
1007.849	109.29
1008.011	10.28
1008.172	23.27
1008.334	48.84
1008.496	73.83
1008.658	15.32
1008.819	19.97
1008.981	-0.57
1009.143	13.19
1009.304	33.73
1009.466	93.79
1009.627	105.22
1009.789	164.31
1009.95	60.08
1010.112	27.33
1010.273	70.15
1010.435	16.29
1010.596	65.5
1010.758	20.17
1010.919	34.31
1011.081	25.98
1011.242	63.76
1011.403	53.88
1011.565	42.45
1011.726	55.82
1011.887	20.36
1012.049	34.7
1012.21	55.04
1012.371	116.65
1012.532	-29.24
1012.693	55.43
1012.855	20.94
1013.016	42.64
1013.177	87.59
1013.338	29.66
1013.499	126.53
1013.66	83.91
1013.821	75
1013.982	50.58
1014.143	49.62
1014.304	19.97
1014.465	51.17
1014.626	64.92
1014.787	33.34
1014.948	116.65
1015.109	-33.7
1015.27	103.48
1015.431	14.35
1015.592	37.02
1015.752	78.48
1015.913	55.82
1016.074	66.08
1016.235	30.05
1016.395	18.42
1016.556	19
1016.717	31.6
1016.877	87.2
1017.038	18.62
1017.199	56.59
1017.359	49.42
1017.52	31.6
1017.681	22.1
1017.841	29.66
1018.002	8.15
1018.162	9.32
1018.323	88.36
1018.483	29.66
1018.644	25.2
1018.804	1.76
1018.964	14.16
1019.125	15.13
1019.285	34.89
1019.446	-8.7
1019.606	9.12
1019.766	-27.3
1019.926	64.73
1020.087	59.3
1020.247	-11.8
1020.407	68.6
1020.567	63.76
1020.728	13.97
1020.888	5.05
1021.048	12.8
1021.208	0.6
1021.368	11.45
1021.528	69.38
1021.688	71.51
1021.848	46.52
1022.008	39.54
1022.168	14.93
1022.328	38.77
1022.488	25.4
1022.648	8.73
1022.808	37.99
1022.968	68.41
1023.128	19.39
1023.288	0.79
1023.448	29.85
1023.608	62.4
1023.767	64.15
1023.927	2.92
1024.087	-6.18
1024.247	-14.71
1024.406	25.4
1024.566	-5.8
1024.726	-21.68
1024.885	33.73
1025.045	74.61
1025.205	10.28
1025.364	20.17
1025.524	33.53
1025.683	18.42
1025.843	46.32
1026.003	17.45
1026.162	62.6
1026.321	58.72
1026.481	38.18
1026.64	3.89
1026.8	42.83
1026.959	29.47
1027.119	54.46
1027.278	8.54
1027.437	-9.28
1027.597	37.02
1027.756	30.24
1027.915	19.58
1028.074	58.72
1028.234	-9.48
1028.393	24.43
1028.552	7.77
1028.711	-61.6
1028.87	37.02
1029.03	-34.28
1029.189	11.83
1029.348	-31.37
1029.507	10.87
1029.666	-37.76
1029.825	-14.9
1029.984	-9.67
1030.143	39.54
1030.302	33.53
1030.461	-33.7
1030.62	51.17
1030.779	46.9
1030.938	7.57
1031.097	-24.2
1031.255	63.76
1031.414	59.69
1031.573	76.16
1031.732	-50.36
1031.891	13.58
1032.049	79.07
1032.208	23.27
1032.367	-8.51
1032.525	10.87
1032.684	-8.9
1032.843	22.1
1033.001	-35.25
1033.16	153.27
1033.319	62.79
1033.477	45.93
1033.636	16.68
1033.794	-26.91
1033.953	52.13
1034.111	48.65
1034.27	-8.9
1034.428	22.88
1034.587	0.02
1034.745	24.43
1034.903	26.37
1035.062	47.48
1035.22	-15.87
1035.378	25.01
1035.537	-25.56
1035.695	45.55
1035.853	25.4
1036.011	28.5
1036.17	22.68
1036.328	-40.48
1036.486	16.48
1036.644	40.32
1036.802	-47.84
1036.96	-30.6
1037.119	21.33
1037.277	-24.4
1037.435	-27.3
1037.593	-16.26
1037.751	24.43
1037.909	44.58
1038.067	44.58
