Data from calibration2_FLMT105791__9__17-17-51-083.txt Node

Date: Mon Mar 20 17:17:51 GMT 2023
User: antho
Spectrometer: FLMT10579
Trigger mode: 0
Integration Time (sec): 1.000000E-1
Scans to average: 10
Electric dark correction enabled: true
Nonlinearity correction enabled: false
Boxcar width: 0
XAxis mode: Wavelengths
Number of Pixels in Spectrum: 3648
>>>>>Begin Spectral Data<<<<<
345.248	-154.03
345.464	-154.03
345.681	-154.03
345.898	-163.91
346.114	-166.43
346.331	-37.2
346.548	14.53
346.764	-1.16
346.981	-1.55
347.197	-15.5
347.414	27.12
347.631	-36.62
347.847	54.44
348.064	4.46
348.28	32.55
348.497	-52.31
348.713	11.24
348.93	8.72
349.146	79.63
349.363	100.94
349.579	100.55
349.796	102.88
350.012	73.24
350.229	147.44
350.445	113.15
350.661	80.21
350.878	113.92
351.094	127.68
351.311	124.19
351.527	124.58
351.743	77.89
351.96	126.13
352.176	148.8
352.392	155.58
352.609	125.35
352.825	117.6
353.041	122.64
353.257	119.54
353.474	95.52
353.69	116.44
353.906	150.54
354.122	91.64
354.339	185.22
354.555	151.51
354.771	112.18
354.987	191.42
355.203	228.82
355.42	134.07
355.636	132.33
355.852	160.23
356.068	157.9
356.284	88.54
356.5	187.74
356.716	147.25
356.932	133.88
357.148	156.74
357.364	136.4
357.58	170.3
357.796	168.95
358.012	164.69
358.228	160.81
358.444	49.21
358.66	189.1
358.876	168.17
359.092	130.39
359.308	152.87
359.524	190.65
359.74	177.47
359.956	157.52
360.172	201.3
360.388	238.12
360.604	164.3
360.819	268.34
361.035	209.63
361.251	208.86
361.467	144.73
361.683	213.12
361.898	199.17
362.114	239.47
362.33	204.6
362.546	210.6
362.762	210.41
362.977	237.73
363.193	219.71
363.409	275.9
363.624	220.48
363.84	200.53
364.056	198.59
364.271	251.48
364.487	250.13
364.703	229.01
364.918	234.24
365.134	249.74
365.35	257.1
365.565	369.67
365.781	280.74
365.996	289.85
366.212	358.43
366.427	330.53
366.643	279
366.858	334.99
367.074	270.86
367.289	400.86
367.505	427.41
367.72	276.48
367.936	314.45
368.151	351.07
368.367	350.1
368.582	315.61
368.798	284.23
369.013	353.78
369.228	314.65
369.444	319.88
369.659	343.9
369.874	356.88
370.09	380.33
370.305	281.9
370.52	336.35
370.736	379.94
370.951	339.06
371.166	372.58
371.381	377.03
371.597	366.76
371.812	317.36
372.027	339.25
372.242	333.44
372.458	399.7
372.673	306.12
372.888	336.73
373.103	343.71
373.318	387.49
373.533	326.46
373.749	324.91
373.964	275.31
374.179	337.9
374.394	279.19
374.609	342.16
374.824	285.2
375.039	350.29
375.254	287.13
375.469	359.98
375.684	341.96
375.899	434.19
376.114	365.99
376.329	383.81
376.544	385.36
376.759	375.29
376.974	342.16
377.189	378
377.404	402.41
377.619	461.31
377.834	398.15
378.049	428.96
378.264	445.04
378.478	500.06
378.693	478.75
378.908	490.37
379.123	433.99
379.338	483.01
379.553	455.69
379.767	433.8
379.982	457.24
380.197	447.56
380.412	407.84
380.626	460.15
380.841	544.62
381.056	496.77
381.271	567.68
381.485	471.19
381.7	424.89
381.915	503.36
382.129	393.69
382.344	402.03
382.559	384.01
382.773	405.51
382.988	326.66
383.202	356.49
383.417	312.13
383.632	448.33
383.846	357.46
384.061	347.58
384.275	355.53
384.49	389.63
384.704	449.69
384.919	491.34
385.133	525.44
385.348	555.86
385.562	448.91
385.777	551.99
385.991	490.37
386.206	503.94
386.42	473.71
386.634	551.4
386.849	533.58
387.063	533.19
387.277	504.91
387.492	490.37
387.706	514.4
387.92	526.22
388.135	584.34
388.349	570.39
388.563	563.61
388.778	558.19
388.992	591.12
389.206	586.67
389.42	665.91
389.635	610.89
389.849	698.85
390.063	743.21
390.277	712.8
390.491	765.11
390.706	719.58
390.92	738.95
391.134	745.54
391.348	748.06
391.562	771.7
391.776	805.02
391.99	787.39
392.205	837.57
392.419	791.84
392.633	710.66
392.847	704.66
393.061	631.81
393.275	607.01
393.489	484.56
393.703	422.18
393.917	453.56
394.131	420.43
394.345	541.33
394.559	624.83
394.773	655.06
394.986	774.21
395.2	787
395.414	885.81
395.628	852.68
395.842	919.72
396.056	918.17
396.27	781.77
396.484	818.97
396.697	726.75
396.911	671.14
397.125	569.23
397.339	573.49
397.553	572.33
397.766	746.31
397.98	816.26
398.194	921.07
398.408	980.36
398.621	1088.86
398.835	1152.21
399.049	1151.44
399.262	1240.76
399.476	1281.64
399.69	1270.21
399.903	1325.42
400.117	1244.83
400.331	1332.4
400.544	1291.33
400.758	1452.52
400.971	1347.32
401.185	1397.69
401.398	1343.06
401.612	1446.32
401.826	1452.91
402.039	1458.34
402.253	1455.82
402.466	1518.2
402.68	1486.62
402.893	1553.47
403.106	1490.69
403.32	1455.24
403.533	1500.57
403.747	1453.69
403.96	1493.4
404.174	1540.29
404.387	1520.72
404.6	1515.68
404.814	1541.84
405.027	1484.69
405.24	1473.64
405.454	1459.69
405.667	1581.95
405.88	1515.3
406.094	1567.22
406.307	1611.78
406.52	1518.78
406.733	1465.7
406.947	1452.52
407.16	1580.01
407.373	1629.03
407.586	1573.61
407.799	1566.64
408.012	1622.05
408.226	1621.86
408.439	1702.84
408.652	1646.66
408.865	1779.57
409.078	1845.64
409.291	1800.11
409.504	1776.66
409.717	1856.1
409.93	1789.64
410.143	1709.24
410.357	1573.61
410.57	1507.55
410.783	1581.95
410.996	1666.61
411.209	1689.86
411.421	1882.06
411.634	1886.71
411.847	1851.45
412.06	1964.4
412.273	1922.55
412.486	1961.3
412.699	2024.66
412.912	1964.02
413.125	1970.99
413.338	1913.25
413.55	1927.78
413.763	1930.69
413.976	1921.97
414.189	1921
414.402	1939.8
414.615	2087.05
414.827	1989.78
415.04	1989.4
415.253	2013.42
415.466	2063.99
415.678	2070.77
415.891	2043.45
416.104	2013.23
416.316	2033.57
416.529	2093.63
416.742	2188.37
416.954	2173.65
417.167	2118.24
417.38	2105.45
417.592	2045.97
417.805	1972.73
418.017	1978.35
418.23	2043.06
418.442	1990.95
418.655	2054.3
418.868	2060.89
419.08	2121.73
419.293	2094.41
419.505	2135.68
419.718	2134.71
419.93	2193.22
420.142	2102.35
420.355	2094.8
420.567	2105.06
420.78	2160.28
420.992	2087.82
421.205	2311.99
421.417	2264.13
421.629	2300.36
421.842	2314.7
422.054	2270.33
422.266	2292.61
422.479	2286.02
422.691	2197.87
422.903	2208.14
423.115	2111.46
423.328	2132.38
423.54	2166.87
423.752	2192.64
423.964	2247.66
424.177	2276.53
424.389	2255.8
424.601	2398.98
424.813	2339.69
425.025	2343.57
425.238	2353.06
425.45	2297.26
425.662	2293.97
425.874	2553.98
426.086	2319.93
426.298	2345.7
426.51	2356.74
426.722	2346.67
426.934	2352.48
427.146	2357.13
427.358	2321.48
427.57	2317.22
427.782	2258.12
427.994	2275.37
428.206	2275.56
428.418	2403.43
428.63	2472.8
428.842	2460.59
429.054	2352.09
429.266	2349.57
429.478	2280.4
429.69	2254.25
429.902	2197.67
430.114	2191.47
430.325	2104.87
430.537	1964.02
430.749	1881.48
430.961	1779.18
431.173	1841.37
431.384	1909.19
431.596	1974.87
431.808	2248.24
432.02	2525.69
432.231	2684.95
432.443	2837.04
432.655	2685.72
432.867	2628.57
433.078	2680.3
433.29	2778.92
433.502	2811.08
433.713	2869.59
433.925	2897.3
434.136	2831.81
434.348	2582.84
434.56	2538.48
434.771	2688.63
434.983	2584.01
435.194	2778.34
435.406	2949.22
435.617	2963.75
435.829	3042.8
436.04	3043.19
436.252	3009.28
436.463	3187.53
436.675	3244.49
436.886	3302.81
437.098	3309.4
437.309	3336.33
437.521	3204.39
437.732	3127.27
437.943	3117.2
438.155	3100.34
438.366	3026.91
438.578	3098.99
438.789	2962.59
439	2888.38
439.211	2938.76
439.423	2968.4
439.634	3097.63
439.845	3194.12
440.057	3202.06
440.268	3359.19
440.479	3326.06
440.69	3302.42
440.902	3241.58
441.113	3212.14
441.324	3283.43
441.535	3441.14
441.746	3520.19
441.957	3457.23
442.168	3571.92
442.38	3604.47
442.591	3653.49
442.802	3562.43
443.013	3679.26
443.224	3707.55
443.435	3682.17
443.646	3591.1
443.857	3605.83
444.068	3627.34
444.279	3644.39
444.49	3811.78
444.701	3730.41
444.912	3932.29
445.123	3881.34
445.334	3742.81
445.545	3803.06
445.756	3704.83
445.967	3638.57
446.178	3591.3
446.388	3574.64
446.599	3638.77
446.81	3632.95
447.021	3656.59
447.232	3786.79
447.443	3848.4
447.653	3912.53
447.864	4047.57
448.075	4022.97
448.286	3935.97
448.496	3946.82
448.707	4025.1
448.918	3899.55
449.129	3996.04
449.339	3918.73
449.55	4030.72
449.761	4014.25
449.971	4003.21
450.182	4131.66
450.393	4150.26
450.603	4084.97
450.814	4256.82
451.024	4232.21
451.235	4445.53
451.446	4385.08
451.656	4342.46
451.867	4308.16
452.077	4184.55
452.288	4329.67
452.498	4227.18
452.709	4187.85
452.919	4119.65
453.13	3977.63
453.34	4040.6
453.55	3797.45
453.761	4042.34
453.971	3972.79
454.182	4073.54
454.392	4201.21
454.602	4333.74
454.813	4280.85
455.023	4209.74
455.233	4123.72
455.444	4188.82
455.654	4023.16
455.864	4196.76
456.075	4269.8
456.285	4252.56
456.495	4316.88
456.705	4313.01
456.916	4437.59
457.126	4531.36
457.336	4444.37
457.546	4332.19
457.756	4431
457.967	4552.67
458.177	4362.99
458.387	4404.26
458.597	4341.88
458.807	4370.36
459.017	4298.48
459.227	4344.39
459.437	4294.6
459.647	4421.7
459.857	4406.97
460.068	4475.37
460.278	4530.78
460.488	4458.32
460.698	4507.34
460.908	4562.36
461.117	4635.6
461.327	4653.23
461.537	4745.84
461.747	4694.3
461.957	4699.92
462.167	4863.06
462.377	4809.19
462.587	4718.33
462.797	4872.16
463.007	4783.62
463.216	4935.13
463.426	5038.98
463.636	4921.57
463.846	4728.01
464.056	4815.97
464.265	4787.49
464.475	4761.73
464.685	4933.39
464.895	4874.49
465.104	4708.25
465.314	4955.47
465.524	4814.81
465.733	4784.98
465.943	5035.3
466.153	5101.56
466.362	5130.62
466.572	5082.18
466.782	4977.17
466.991	5092.26
467.201	5015.15
467.41	4809.77
467.62	5040.92
467.829	5057.77
468.039	5182.54
468.249	5141.66
468.458	5234.47
468.668	5237.18
468.877	5310.22
469.086	5355.56
469.296	5472.2
469.505	5516.56
469.715	5460.18
469.924	5381.91
470.134	5513.66
470.343	5354.4
470.552	5369.9
470.762	5322.62
470.971	5364.09
471.18	5464.45
471.39	5525.28
471.599	5424.92
471.808	5548.15
472.018	5662.46
472.227	5821.91
472.436	6013.14
472.645	5998.41
472.855	6013.53
473.064	6156.51
473.273	6206.5
473.482	5995.7
473.691	6107.11
473.901	6036.97
474.11	5948.62
474.319	6232.85
474.528	6189.06
474.737	6462.83
474.946	6398.31
475.155	6420.78
475.364	6523.08
475.573	6460.7
475.783	6571.91
475.992	6545.17
476.201	6545.94
476.41	6591.28
476.619	6496.34
476.828	6478.33
477.037	6458.76
477.245	6523.86
477.454	6616.66
477.663	6786.58
477.872	7014.04
478.081	7107.42
478.29	7006.87
478.499	7211.08
478.708	7297.88
478.917	7285.09
479.125	7060.34
479.334	7181.05
479.543	7374.41
479.752	7428.66
479.961	7410.64
480.169	7570.48
480.378	7629.38
480.587	7918.84
480.796	7732.84
481.004	7730.13
481.213	7816.93
481.422	7838.43
481.63	8052.52
481.839	8058.33
482.048	8265.26
482.256	8208.68
482.465	8345.08
482.674	8256.54
482.882	8280.56
483.091	8433.62
483.299	8218.18
483.508	8493.1
483.716	8558.2
483.925	8572.73
484.134	8231.74
484.342	8496.78
484.551	8541.35
484.759	8393.9
484.967	8766.67
485.176	8702.93
485.384	8667.86
485.593	8581.84
485.801	8536.5
486.01	8143.39
486.218	7780.5
486.426	7486.78
486.635	7271.14
486.843	7370.92
487.051	7645.27
487.26	7791.93
487.468	7952.74
487.676	8209.65
487.885	8484.58
488.093	8638.22
488.301	8967.98
488.509	8903.07
488.717	9119.88
488.926	9109.8
489.134	9003.43
489.342	9031.91
489.55	8889.32
489.758	9154.56
489.967	9434.33
490.175	9455.64
490.383	9767.77
490.591	9948.73
490.799	9755.56
491.007	9809.03
491.215	9829.18
491.423	9756.72
491.631	9737.74
491.839	9658.3
492.047	9585.26
492.255	9372.91
492.463	9432.2
492.671	9213.84
492.879	9591.26
493.087	9662.17
493.295	9815.23
493.503	9922.18
493.711	10162.04
493.919	10113.22
494.127	10056.26
494.334	10066.72
494.542	10106.82
494.75	10364.12
494.958	10235.08
495.166	10478.43
495.374	10618.51
495.581	10592.35
495.789	10603.2
495.997	10591.77
496.205	10229.08
496.412	10401.51
496.62	10563.29
496.828	10461.38
497.035	10612.12
497.243	10633.82
497.451	10678.38
497.658	10684.97
497.866	10683.61
498.074	10770.8
498.281	10528.22
498.489	10659.97
498.696	10453.83
498.904	10349.59
499.112	10337.38
499.319	10616.77
499.527	10727.98
499.734	10799.86
499.942	10703.95
500.149	10694.07
500.357	10731.66
500.564	10523.57
500.771	10515.63
500.979	10311.81
501.186	10158.75
501.394	10528.81
501.601	10251.75
501.808	10282.17
502.016	10305.03
502.223	10249.23
502.43	10379.62
502.638	10305.22
502.845	10503.62
503.052	10628.59
503.26	10622.77
503.467	10767.7
503.674	10803.15
503.881	10746.97
504.089	10635.37
504.296	10625.68
504.503	10487.15
504.71	10408.29
504.917	10596.04
505.125	10698.14
505.332	10778.35
505.539	10854.3
505.746	11124.38
505.953	11189.68
506.16	11178.83
506.367	11315.03
506.574	11413.84
506.781	11451.43
506.988	11296.43
507.195	11251.48
507.402	11179.02
507.609	11237.92
507.816	10995.35
508.023	11015.5
508.23	10909.71
508.437	10787.26
508.644	10893.05
508.851	11007.94
509.058	11196.85
509.265	11220.68
509.472	11354.17
509.679	11487.47
509.885	11459.76
510.092	11381.68
510.299	11443.1
510.506	11191.81
510.713	11204.6
510.92	11169.53
511.126	11366.57
511.333	11411.13
511.54	11518.66
511.746	11507.42
511.953	11588.8
512.16	11748.06
512.367	11600.42
512.573	11501.22
512.78	11518.27
512.987	11435.74
513.193	11245.09
513.4	11132.52
513.606	11255.16
513.813	11345.26
514.02	11170.88
514.226	11220.29
514.433	11175.34
514.639	11014.92
514.846	11048.82
515.052	11125.16
515.259	11163.33
515.465	11217.96
515.672	11286.94
515.878	11357.85
516.085	11504.32
516.291	11407.64
516.497	11384.39
516.704	10964.54
516.91	10746
517.117	10284.1
517.323	9954.35
517.529	9946.21
517.736	9955.12
517.942	10068.85
518.148	10268.99
518.354	10456.73
518.561	10394.93
518.767	10344.16
518.973	10392.02
519.179	10583.44
519.386	10701.24
519.592	10715.19
519.798	10762.66
520.004	11263.11
520.21	11227.07
520.417	11325.3
520.623	11373.74
520.829	11358.82
521.035	11377.03
521.241	11354.75
521.447	11423.92
521.653	11720.35
521.859	11496.19
522.065	11669.01
522.271	11736.43
522.477	11688.58
522.683	11847.64
522.889	11454.53
523.095	11428.57
523.301	11427.6
523.507	11305.54
523.713	11422.37
523.919	11341.77
524.125	11700.01
524.331	11785.45
524.537	12018.92
524.742	12023.18
524.948	12060.76
525.154	12009.03
525.36	12039.45
525.566	11861.79
525.772	11972.8
525.977	11905.77
526.183	11812.77
526.389	11873.61
526.595	11454.92
526.8	11342.93
527.006	11010.46
527.212	10673.53
527.417	10667.92
527.623	10719.65
527.829	10908.74
528.034	11172.05
528.24	11262.91
528.446	11535.9
528.651	11727.13
528.857	11737.21
529.062	11856.36
529.268	12033.25
529.473	12198.91
529.679	12283.77
529.884	12230.49
530.09	12204.33
530.295	11932.31
530.501	12078.2
530.706	12075.68
530.912	12186.7
531.117	12225.64
531.323	12165.19
531.528	12437.22
531.733	12435.67
531.939	12311.47
532.144	12296.56
532.35	12169.26
532.555	12167.71
532.76	11867.41
532.966	11823.81
533.171	11720.35
533.376	11559.73
533.581	11590.35
533.787	11743.79
533.992	12008.65
534.197	11746.51
534.402	12040.23
534.607	12038.68
534.813	12055.73
535.018	11989.85
535.223	12200.65
535.428	12155.89
535.633	12334.14
535.838	12490.5
536.043	12544.55
536.249	12686.57
536.454	12454.27
536.659	12564.12
536.864	12476.35
537.069	12195.61
537.274	12155.12
537.479	12171.78
537.684	12146.98
537.889	12080.53
538.094	12435.67
538.299	12218.28
538.504	12407.77
538.708	12341.31
538.913	12593.96
539.118	12527.11
539.323	12434.7
539.528	12244.05
539.733	12204.91
539.938	12235.72
540.142	12172.17
540.347	12108.43
540.552	11965.44
540.757	11783.9
540.962	11953.62
541.166	11833.89
541.371	11912.94
541.576	11825.36
541.781	11968.35
541.985	12290.94
542.19	12007.48
542.395	12412.42
542.599	12456.01
542.804	12174.3
543.008	12363.2
543.213	12292.29
543.418	12070.26
543.622	12357.97
543.827	12107.26
544.031	12349.84
544.236	12386.45
544.44	12541.06
544.645	12526.34
544.849	12452.13
545.054	12617.79
545.258	12662.93
545.463	12667
545.667	12391.88
545.872	12642.39
546.076	12582.72
546.281	12413.77
546.485	12468.22
546.689	12499.41
546.894	12535.06
547.098	12571.87
547.302	12577.88
547.507	12512.58
547.711	12580.2
547.915	12489.14
548.119	12323.29
548.324	12312.44
548.528	12431.02
548.732	12408.15
548.936	12531.38
549.141	12568.58
549.345	12539.9
549.549	12600.16
549.753	12694.9
549.957	12685.99
550.161	12726.87
550.366	12774.92
550.57	12618.18
550.774	12608.1
550.978	12617.01
551.182	12610.23
551.386	12473.83
551.59	12588.34
551.794	12552.69
551.998	12628.83
552.202	12659.25
552.406	12681.14
552.61	12742.95
552.814	12653.63
553.018	12612.56
553.222	12498.25
553.426	12483.91
553.63	12571.48
553.833	12618.37
554.037	12458.53
554.241	12460.66
554.445	12636.58
554.649	12607.52
554.853	12520.91
555.056	12674.94
555.26	12739.46
555.464	12672.04
555.668	12694.9
555.871	12667.78
556.075	12736.17
556.279	12617.01
556.483	12531.18
556.686	12455.62
556.89	12521.3
557.094	12448.84
557.297	12205.49
557.501	12313.41
557.704	12114.05
557.908	12351.77
558.112	12290.16
558.315	12400.6
558.519	12323.68
558.722	12134.39
558.926	12109.98
559.129	11823.04
559.333	12049.33
559.536	11913.9
559.74	11848.22
559.943	11734.11
560.147	11867.99
560.35	11880.97
560.553	12100.87
560.757	12035.58
560.96	12117.53
561.164	12192.13
561.367	12264.59
561.57	12254.32
561.774	12158.99
561.977	12113.66
562.18	12005.35
562.384	12150.08
562.587	11965.05
562.79	12128
562.993	12071.81
563.197	12008.84
563.4	12149.5
563.603	12240.56
563.806	12217.51
564.009	12100.29
564.212	12166.94
564.416	11964.09
564.619	11980.36
564.822	11893.17
565.025	12129.16
565.228	11981.13
565.431	12067.55
565.634	11858.69
565.837	11889.1
566.04	11775.96
566.243	11787
566.446	11497.93
566.649	11768.01
566.852	11625.22
567.055	11742.83
567.258	11763.36
567.461	11894.92
567.664	11920.88
567.867	11915.65
568.07	11846.67
568.273	11932.31
568.475	11978.23
568.678	11641.5
568.881	11625.22
569.084	11473.13
569.287	11392.53
569.489	11509.36
569.692	11499.67
569.895	11586.08
570.098	11483.4
570.3	11441.74
570.503	11386.33
570.706	11405.51
570.909	11265.82
571.111	11142.21
571.314	11105.4
571.516	11156.35
571.719	11202.08
571.922	11193.55
572.124	11334.79
572.327	11393.11
572.529	11318.91
572.732	11372.77
572.935	11460.73
573.137	11694
573.34	11451.04
573.542	11644.01
573.745	11566.13
573.947	11526.02
574.15	11499.87
574.352	11483.59
574.554	11603.91
574.757	11432.44
574.959	11256.91
575.162	11392.72
575.364	11216.41
575.566	11388.07
575.769	11113.53
575.971	11282.09
576.173	10910.88
576.376	11162.75
576.578	11261.95
576.78	11321.04
576.982	11181.73
577.185	11174.57
577.387	11194.13
577.589	11285.39
577.791	11251.29
577.993	11242.76
578.196	11241.6
578.398	11097.65
578.6	11088.15
578.802	11091.64
579.004	10947.88
579.206	11066.07
579.408	11189.29
579.61	10987.79
579.812	11330.14
580.014	11105.4
580.216	11213.9
580.418	11290.62
580.62	11429.73
580.822	11255.94
581.024	11372.19
581.226	11445.23
581.428	11379.16
581.63	11570.39
581.832	11369.67
582.034	11523.12
582.236	11546.95
582.438	11700.98
582.64	11751.93
582.841	11745.93
583.043	11838.73
583.245	11617.47
583.447	11844.74
583.649	11715.89
583.85	11722.87
584.052	11787.97
584.254	11679.28
584.456	11692.84
584.657	11668.81
584.859	11837.96
585.061	11653.12
585.262	11674.63
585.464	11536.29
585.666	11604.68
585.867	11465.19
586.069	11500.64
586.27	11460.92
586.472	11403.38
586.674	11467.32
586.875	11396.99
587.077	11438.26
587.278	11549.08
587.48	11483.98
587.681	11580.27
587.883	11474.1
588.084	11357.46
588.285	11389.24
588.487	11144.92
588.688	11202.66
588.89	10764.79
589.091	10545.08
589.292	10362.57
589.494	10153.32
589.695	9926.06
589.896	9801.48
590.098	9869.1
590.299	9977.01
590.5	10126.78
590.702	10270.15
590.903	10436.58
591.104	10594.87
591.305	10769.25
591.507	10761.11
591.708	10719.26
591.909	10699.3
592.11	10743.48
592.311	10837.25
592.512	10644.67
592.714	10634.79
592.915	10845.39
593.116	10728.75
593.317	10891.89
593.518	10886.27
593.719	10956.02
593.92	10940.52
594.121	10916.69
594.322	10932.77
594.523	10810.13
594.724	10671.4
594.925	10755.1
595.126	10647.96
595.327	10680.12
595.528	10707.63
595.729	10772.73
595.929	10808.96
596.13	10860.31
596.331	10939.55
596.532	10894.99
596.733	11117.41
596.934	11023.05
597.135	11039.14
597.335	11035.45
597.536	10925.41
597.737	10975.97
597.938	10916.3
598.138	10953.11
598.339	10987.6
598.54	11040.3
598.74	10762.27
598.941	10877.94
599.142	11090.87
599.342	10984.89
599.543	10888.79
599.744	10980.62
599.944	10964.35
600.145	11028.87
600.345	10983.34
600.546	11000.19
600.746	11002.71
600.947	11186.19
601.147	10886.08
601.348	11067.81
601.548	10884.72
601.749	10918.63
601.949	10850.23
602.15	10892.86
602.35	10714.42
602.551	10816.33
602.751	10771.96
602.951	10943.23
603.152	10793.85
603.352	10942.07
603.552	10925.6
603.753	11038.75
603.953	11183.09
604.153	11098.03
604.354	11142.79
604.554	11110.05
604.754	11074.2
604.954	11113.53
605.155	11244.51
605.355	11111.21
605.555	11118.57
605.755	11189.68
605.955	11035.84
606.155	11093.97
606.356	11043.01
606.556	11074.2
606.756	11066.45
606.956	10990.7
607.156	11088.93
607.356	10987.6
607.556	11044.75
607.756	11018.02
607.956	11084.86
608.156	11076.53
608.356	10882.78
608.556	11008.33
608.756	10888.79
608.956	10941.1
609.156	10864.38
609.356	10864.38
609.556	10760.33
609.755	10861.66
609.955	10757.23
610.155	10783.78
610.355	10835.31
610.555	10660.17
610.755	10677.6
610.954	10612.7
611.154	10727.4
611.354	10804.51
611.554	10670.43
611.753	10791.53
611.953	10702.79
612.153	10790.95
612.352	10729.33
612.552	10563.49
612.752	10603.4
612.951	10764.01
613.151	10590.8
613.351	10619.09
613.55	10683.03
613.75	10685.16
613.949	10438.52
614.149	10437.16
614.348	10481.14
614.548	10426.51
614.747	10359.28
614.947	10498.58
615.146	10409.65
615.346	10603.2
615.545	10684.97
615.745	10568.33
615.944	10463.9
616.144	10464.87
616.343	10288.17
616.542	10358.11
616.742	10230.43
616.941	10207.19
617.14	10117.48
617.34	10186.26
617.539	10246.32
617.738	10209.9
617.938	10385.24
618.137	10354.43
618.336	10403.45
618.535	10469.13
618.734	10428.06
618.934	10439.49
619.133	10427.48
619.332	10465.06
619.531	10371.87
619.73	10534.23
619.929	10454.99
620.128	10539.27
620.328	10508.27
620.527	10441.04
620.726	10541.79
620.925	10537.52
621.124	10570.85
621.323	10429.41
621.522	10361.99
621.721	10415.46
621.92	10308.52
622.119	10400.16
622.318	10312.58
622.517	10311.23
622.715	10337.77
622.914	10166.11
623.113	10286.04
623.312	10056.26
623.511	10159.14
623.71	10122.71
623.909	10004.14
624.107	10206.02
624.306	10008.21
624.505	10000.84
624.704	10039.98
624.902	9897.77
625.101	10059.16
625.3	9881.3
625.499	9822.6
625.697	9918.31
625.896	9835.38
626.095	9814.07
626.293	9670.31
626.492	9828.22
626.69	9823.57
626.889	9942.33
627.088	9910.17
627.286	9928.38
627.485	9738.9
627.683	9656.56
627.882	9607.54
628.08	9387.63
628.279	9306.65
628.477	9378.92
628.676	9181.1
628.874	9362.45
629.073	9352.37
629.271	9419.99
629.469	9434.13
629.668	9391.51
629.866	9270.03
630.065	9266.74
630.263	9413.6
630.461	9283.2
630.66	9354.89
630.858	9317.89
631.056	9440.33
631.254	9523.06
631.453	9337.26
631.651	9422.51
631.849	9402.94
632.047	9367.1
632.245	9332.8
632.444	9409.33
632.642	9545.93
632.84	9558.33
633.038	9459.51
633.236	9421.15
633.434	9591.46
633.632	9566.66
633.83	9421.15
634.028	9610.64
634.227	9549.03
634.425	9771.06
634.623	9481.99
634.821	9622.65
635.019	9598.04
635.216	9667.21
635.414	9732.89
635.612	9578.48
635.81	9608.31
636.008	9677.67
636.206	9664.11
636.404	9579.64
636.602	9578.28
636.8	9570.92
636.997	9624.39
637.195	9660.62
637.393	9702.67
637.591	9790.82
637.789	9787.14
637.986	9689.49
638.184	9758.66
638.382	9799.15
638.58	9749.17
638.777	9879.17
638.975	9731.15
639.173	9820.66
639.37	9729.79
639.568	9731.15
639.765	9668.96
639.963	9648.03
640.161	9566.46
640.358	9692.21
640.556	9542.83
640.753	9617.22
640.951	9527.52
641.148	9557.74
641.346	9563.94
641.543	9506.6
641.741	9549.8
641.938	9411.27
642.136	9590.29
642.333	9502.91
642.531	9566.08
642.728	9598.63
642.925	9609.86
643.123	9532.36
643.32	9526.74
643.517	9549.22
643.715	9461.65
643.912	9607.54
644.109	9527.91
644.306	9506.79
644.504	9466.1
644.701	9583.51
644.898	9547.67
645.095	9502.14
645.293	9482.38
645.49	9410.11
645.687	9478.31
645.884	9412.24
646.081	9264.8
646.278	9301.42
646.475	9224.69
646.672	9200.28
646.87	9165.99
647.067	9107.09
647.264	9118.13
647.461	8993.75
647.658	8863.74
647.855	8990.45
648.052	8876.14
648.249	8884.67
648.446	8911.6
648.642	8984.64
648.839	8822.09
649.036	8803.68
649.233	8799.81
649.43	8772.49
649.627	8617.1
649.824	8744.97
650.021	8647.91
650.217	8825.57
650.414	8809.3
650.611	8901.33
650.808	8979.8
651.004	8969.53
651.201	8946.28
651.398	9113.29
651.595	8972.82
651.791	8837
651.988	8947.25
652.185	8657.98
652.381	8934.65
652.578	8816.66
652.775	8912.18
652.971	8978.25
653.168	8859.48
653.364	9088.49
653.561	8896.49
653.757	8977.86
653.954	9078.8
654.15	8835.45
654.347	9034.63
654.543	8957.32
654.74	8759.7
654.936	8779.07
655.133	8715.91
655.329	8814.92
655.525	8634.15
655.722	8559.56
655.918	8352.25
656.115	8106
656.311	7883.38
656.507	7602.83
656.704	7534.44
656.9	7624.34
657.096	7756.86
657.292	7772.17
657.489	7955.45
657.685	8073.45
657.881	8124.6
658.077	8252.66
658.273	8388.48
658.47	8532.05
658.666	8510.73
658.862	8674.26
659.058	8623.5
659.254	8695.57
659.45	8725.6
659.646	8631.63
659.842	8713.59
660.038	8774.62
660.234	8696.93
660.43	8752.72
660.626	8867.81
660.822	8797.29
661.018	8854.64
661.214	8835.84
661.41	8771.91
661.606	8933.88
661.802	8964.49
661.998	8858.12
662.194	8833.9
662.39	8871.69
662.586	8932.13
662.781	8895.9
662.977	8986.77
663.173	8877.3
663.369	8867.04
663.564	8843.01
663.76	8883.89
663.956	8848.44
664.152	8740.52
664.347	8739.36
664.543	8744.78
664.739	8736.06
664.934	8683.17
665.13	8832.94
665.326	8784.5
665.521	8803.68
665.717	8781.98
665.912	8825.38
666.108	8625.24
666.304	8762.22
666.499	8679.49
666.695	8584.36
666.89	8748.85
667.086	8740.32
667.281	8684.91
667.477	8824.99
667.672	8741.68
667.867	8632.6
668.063	8631.05
668.258	8562.47
668.454	8687.43
668.649	8638.41
668.844	8680.84
669.04	8698.67
669.235	8590.75
669.43	8683.94
669.626	8496.2
669.821	8554.72
670.016	8546.77
670.211	8667.28
670.407	8498.33
670.602	8680.65
670.797	8464.24
670.992	8632.8
671.187	8489.42
671.382	8577.96
671.578	8366.2
671.773	8487.48
671.968	8302.65
672.163	8513.25
672.358	8435.17
672.553	8378.6
672.748	8452.61
672.943	8519.07
673.138	8414.64
673.333	8428
673.528	8343.53
673.723	8448.93
673.918	8334.81
674.113	8414.44
674.308	8528.37
674.503	8308.46
674.698	8455.71
674.892	8278.24
675.087	8385.38
675.282	8376.47
675.477	8352.25
675.672	8376.66
675.867	8245.88
676.061	8317.96
676.256	8255.38
676.451	8341.4
676.646	8329.97
676.84	8200.16
677.035	8162.38
677.23	8247.24
677.424	8293.93
677.619	8239.1
677.814	8318.73
678.008	8181.75
678.203	8187.95
678.397	8118.78
678.592	8195.51
678.787	8288.51
678.981	8190.66
679.176	8212.36
679.37	8197.25
679.565	8107.35
679.759	8173.81
679.954	8076.74
680.148	8197.83
680.342	8285.99
680.537	8113.75
680.731	8034.89
680.926	8082.36
681.12	8053.88
681.314	8080.81
681.509	8077.13
681.703	8055.62
681.897	7960.3
682.092	7992.27
682.286	8027.53
682.48	8063.76
682.674	8010.29
682.869	7953.13
683.063	8079.07
683.257	7997.3
683.451	7855.87
683.645	7941.89
683.839	7852.96
684.034	7838.04
684.228	7820.41
684.422	7705.52
684.616	7828.74
684.81	7830.29
685.004	7704.75
685.198	7732.26
685.392	7726.06
685.586	7752.41
685.78	7630.73
685.974	7705.52
686.168	7630.93
686.362	7621.24
686.556	7114.98
686.75	6885
686.944	6484.53
687.138	6033.68
687.331	5728.14
687.525	5547.95
687.719	5394.7
687.913	5452.05
688.107	5566.16
688.301	5544.27
688.494	5690.16
688.688	5639.4
688.882	5572.17
689.076	5585.54
689.269	5585.35
689.463	5783.35
689.657	5685.71
689.85	5699.27
690.044	5868.99
690.238	5873.64
690.431	5901.35
690.625	5927.7
690.818	6104.59
691.012	6092.96
691.205	6269.08
691.399	6229.17
691.593	6274.89
691.786	6345.22
691.98	6437.45
692.173	6467.09
692.366	6473.09
692.56	6618.41
692.753	6525.6
692.947	6448.68
693.14	6471.16
693.333	6521.53
693.527	6432.6
693.72	6485.88
693.914	6381.06
694.107	6303.37
694.3	6383.2
694.493	6277.41
694.687	6462.83
694.88	6291.94
695.073	6412.26
695.266	6409.35
695.46	6436.67
695.653	6453.91
695.846	6417.1
696.039	6415.16
696.232	6444.61
696.425	6550.21
696.618	6606.39
696.812	6666.84
697.005	6699
697.198	6909.8
697.391	6707.14
697.584	6905.73
697.777	6845.67
697.97	6781.15
698.163	6828.23
698.356	6733.3
698.549	6837.34
698.742	6773.98
698.935	6665.87
699.127	6670.91
699.32	6511.84
699.513	6535.09
699.706	6465.54
699.899	6536.06
700.092	6444.81
700.285	6469.41
700.477	6302.21
700.67	6419.04
700.863	6404.31
701.056	6464.38
701.248	6479.29
701.441	6416.52
701.634	6375.83
701.826	6445.78
702.019	6253.97
702.212	6369.25
702.404	6258.81
702.597	6242.92
702.79	6319.26
702.982	6251.06
703.175	6295.62
703.367	6398.11
703.56	6382.61
703.752	6426.01
703.945	6459.92
704.137	6336.89
704.33	6441.32
704.522	6486.27
704.715	6500.8
704.907	6488.01
705.1	6521.14
705.292	6468.64
705.484	6387.26
705.677	6427.95
705.869	6451.98
706.061	6530.64
706.254	6520.18
706.446	6403.35
706.638	6424.85
706.831	6475.23
707.023	6441.71
707.215	6517.66
707.407	6511.84
707.599	6414.78
707.792	6536.06
707.984	6437.64
708.176	6444.23
708.368	6412.65
708.56	6448.1
708.752	6385.91
708.944	6359.56
709.136	6458.18
709.329	6380.1
709.521	6503.32
709.713	6420.4
709.905	6405.09
710.097	6504.48
710.289	6414.58
710.481	6370.02
710.672	6427.18
710.864	6414.2
711.056	6363.82
711.248	6368.08
711.44	6332.24
711.632	6339.99
711.824	6421.75
712.016	6346.97
712.207	6382.61
712.399	6333.98
712.591	6353.94
712.783	6335.15
712.975	6307.05
713.166	6210.76
713.358	6304.53
713.55	6275.47
713.741	6312.28
713.933	6245.44
714.125	6215.22
714.316	6143.72
714.508	6209.6
714.7	6140.43
714.891	6103.62
715.083	6182.86
715.274	6029.03
715.466	6085.41
715.657	6054.41
715.849	5917.62
716.04	5897.08
716.232	5784.52
716.423	5779.87
716.615	5587.86
716.806	5447.78
716.998	5269.73
717.189	5105.05
717.381	4927.96
717.572	4814.23
717.763	4713.29
717.955	4658.46
718.146	4566.82
718.337	4438.17
718.528	4347.3
718.72	4144.83
718.911	4213.23
719.102	4087.1
719.293	4145.8
719.485	4123.52
719.676	4010.57
719.867	3949.92
720.058	3968.52
720.249	3911.76
720.44	3975.5
720.632	4047.57
720.823	4141.15
721.014	4301.96
721.205	4383.92
721.396	4514.31
721.587	4662.14
721.778	4731.5
721.969	4777.03
722.16	4878.36
722.351	4941.14
722.542	5056.03
722.733	5060.68
722.924	4929.7
723.115	4984.53
723.305	4826.44
723.496	4817.14
723.687	4589.29
723.878	4601.69
724.069	4647.8
724.26	4522.84
724.45	4429.06
724.641	4363.96
724.832	4414.72
725.023	4315.14
725.213	4367.26
725.404	4256.63
725.595	4268.25
725.785	4233.18
725.976	4317.85
726.167	4274.06
726.357	4257.79
726.548	4346.14
726.739	4208.19
726.929	4356.41
727.12	4332.77
727.31	4356.79
727.501	4257.6
727.691	4250.62
727.882	4258.95
728.072	4324.83
728.263	4310.88
728.453	4373.46
728.644	4356.79
728.834	4301.77
729.024	4246.55
729.215	4226.79
729.405	4194.43
729.596	4323.28
729.786	4308.94
729.976	4318.24
730.167	4325.99
730.357	4251.98
730.547	4254.5
730.737	4270.19
730.928	4300.03
731.118	4395.93
731.308	4261.47
731.498	4273.87
731.688	4368.23
731.879	4382.95
732.069	4435.07
732.259	4564.1
732.449	4566.04
732.639	4608.28
732.829	4619.9
733.019	4715.23
733.209	4772.19
733.399	4743.9
733.589	4826.24
733.779	4877.39
733.969	4848.33
734.159	4943.07
734.349	4964.58
734.539	5037.04
734.729	5005.07
734.919	5021.54
735.109	5049.05
735.299	4929.32
735.488	4954.31
735.678	4973.3
735.868	4980.27
736.058	4886.11
736.248	4967.29
736.437	4838.06
736.627	4837.29
736.817	4966.9
737.007	4910.72
737.196	4923.5
737.386	4950.63
737.576	4821.21
737.765	4975.24
737.955	4905.1
738.144	5080.63
738.334	4984.15
738.524	4861.89
738.713	4965.35
738.903	4884.76
739.092	4920.79
739.282	4912.65
739.471	4900.06
739.661	4870.61
739.85	4984.15
740.04	4929.12
740.229	4947.53
740.419	5028.32
740.608	4959.54
740.797	4937.84
740.987	5011.47
741.176	4929.12
741.365	4938.04
741.555	4837.09
741.744	4989.38
741.933	4887.66
742.123	4934.55
742.312	4984.53
742.501	5014.95
742.69	4969.04
742.88	4887.66
743.069	5021.35
743.258	4985.5
743.447	5009.53
743.636	4945.79
743.825	4993.06
744.014	4936.49
744.204	4992.48
744.393	4870.22
744.582	5050.22
744.771	5000.42
744.96	4932.03
745.149	5014.76
745.338	4982.98
745.527	4933
745.716	4960.32
745.905	4923.7
746.094	4954.5
746.283	4990.73
746.471	4933
746.66	4934.55
746.849	5019.22
747.038	4948.3
747.227	4914.79
747.416	4905.87
747.604	4868.67
747.793	4905.68
747.982	4908.2
748.171	4929.9
748.359	4866.35
748.548	4871.97
748.737	4850.85
748.926	4838.06
749.114	4744.68
749.303	4833.8
749.491	4797.96
749.68	4684.23
749.869	4830.31
750.057	4779.36
750.246	4733.44
750.434	4734.99
750.623	4708.83
750.811	4722.2
751	4792.34
751.188	4682.29
751.377	4695.27
751.565	4698.18
751.754	4648.19
751.942	4594.33
752.131	4715.03
752.319	4615.06
752.507	4581.15
752.696	4698.95
752.884	4725.88
753.072	4658.07
753.261	4648.96
753.449	4644.9
753.637	4610.6
753.825	4652.65
754.014	4596.07
754.202	4606.92
754.39	4635.21
754.578	4669.7
754.766	4577.08
754.955	4521.29
755.143	4665.05
755.331	4540.47
755.519	4579.99
755.707	4496.49
755.895	4556.93
756.083	4461.03
756.271	4488.54
756.459	4485.44
756.647	4525.55
756.835	4492.42
757.023	4503.07
757.211	4438.94
757.399	4366.29
757.587	4450.37
757.775	4364.16
757.963	4409.49
758.151	4373.26
758.339	4310.68
758.526	4375.97
758.714	4346.14
758.902	4174.09
759.09	4048.54
759.278	3813.72
759.465	3511.67
759.653	3083.1
759.841	2785.7
760.028	2445.28
760.216	2128.89
760.404	1934.95
760.591	1617.6
760.779	1379.29
760.967	1184.96
761.154	1013.1
761.342	1022.02
761.529	1039.84
761.717	1128.38
761.905	1111.72
762.092	1190.96
762.28	1119.86
762.467	1135.36
762.655	1078.98
762.842	1081.88
763.029	1126.25
763.217	1130.71
763.404	1138.07
763.592	1115.79
763.779	1117.34
763.966	1185.73
764.154	1198.13
764.341	1247.15
764.528	1306.44
764.716	1381.42
764.903	1436.64
765.09	1498.25
765.277	1542.62
765.465	1785.19
765.652	1825.68
765.839	1956.65
766.026	2094.6
766.213	2183.14
766.4	2289.7
766.588	2489.26
766.775	2544.68
766.962	2693.47
767.149	2763.42
767.336	2921.13
767.523	2924.03
767.71	3025.56
767.897	3181.91
768.084	3256.89
768.271	3302.81
768.458	3432.43
768.645	3472.14
768.832	3457.61
769.019	3540.54
769.206	3538.99
769.392	3626.17
769.579	3662.4
769.766	3685.46
769.953	3647.68
770.14	3727.89
770.327	3720.92
770.513	3823.21
770.7	3829.41
770.887	3743.58
771.073	3782.72
771.26	3799.96
771.447	3776.33
771.634	3761.41
771.82	3861.58
772.007	3774.58
772.193	3786.98
772.38	3839.49
772.567	3808.88
772.753	3763.54
772.94	3855.38
773.126	3797.45
773.313	3822.05
773.499	3840.46
773.686	3824.38
773.872	3753.66
774.059	3826.7
774.245	3771.87
774.432	3797.25
774.618	3685.85
774.804	3730.41
774.991	3728.67
775.177	3734.09
775.363	3707.16
775.55	3733.32
775.736	3692.82
775.922	3717.23
776.109	3698.83
776.295	3727.31
776.481	3758.7
776.667	3759.66
776.853	3687.98
777.04	3659.89
777.226	3706.58
777.412	3683.91
777.598	3623.65
777.784	3671.7
777.97	3609.32
778.156	3679.45
778.342	3655.04
778.528	3593.43
778.715	3558.94
778.901	3576.57
779.087	3591.3
779.272	3567.08
779.458	3540.54
779.644	3586.26
779.83	3554.68
780.016	3653.69
780.202	3557.97
780.388	3575.02
780.574	3456.06
780.76	3467.69
780.946	3567.47
781.131	3485.51
781.317	3513.8
781.503	3470.21
781.689	3482.99
781.874	3642.06
782.06	3495.78
782.246	3425.06
782.432	3447.15
782.617	3490.55
782.803	3525.04
782.989	3410.14
783.174	3422.54
783.36	3375.46
783.545	3397.16
783.731	3405.3
783.916	3295.64
784.102	3346.79
784.288	3373.14
784.473	3362.1
784.659	3280.92
784.844	3395.61
785.029	3368.68
785.215	3310.37
785.4	3296.03
785.586	3384.76
785.771	3236.93
785.956	3342.91
786.142	3226.67
786.327	3256.31
786.512	3290.99
786.698	3231.51
786.883	3179.78
787.068	3215.24
787.254	3245.46
787.439	3182.49
787.624	3178.04
787.809	3169.51
787.994	3156.53
788.18	3251.08
788.365	3110.81
788.55	3150.91
788.735	3172.8
788.92	3107.32
789.105	3068.57
789.29	3124.76
789.475	3051.52
789.66	3079.61
789.845	3044.35
790.03	3041.83
790.215	3070.12
790.4	3090.27
790.585	3087.94
790.77	3089.69
790.955	2966.46
791.14	3048.61
791.325	3099.96
791.51	2966.27
791.695	3046.48
791.879	3039.51
792.064	2937.98
792.249	3051.33
792.434	2977.31
792.618	2978.48
792.803	3033.69
792.988	3018.97
793.173	2986.61
793.357	2994.17
793.542	2992.62
793.727	2981.58
793.911	3065.66
794.096	2977.12
794.281	3052.1
794.465	3137.35
794.65	3030.59
794.834	3047.45
795.019	3094.34
795.203	3086.2
795.388	3093.95
795.572	3098.99
795.757	3080
795.941	3092.98
796.126	3054.23
796.31	2989.71
796.494	3073.41
796.679	3032.73
796.863	2951.74
797.048	3080
797.232	3028.66
797.416	3104.61
797.601	3030.21
797.785	3111.58
797.969	3098.99
798.153	3044.54
798.338	3098.79
798.522	3153.43
798.706	3102.28
798.89	3128.63
799.074	3223.95
799.258	3160.21
799.443	3129.02
799.627	3101.12
799.811	3149.55
799.995	3083.49
800.179	3029.24
800.363	3049.58
800.547	3098.99
800.731	3133.09
800.915	3004.63
801.099	3031.76
801.283	3029.63
801.467	3054.04
801.651	3029.24
801.835	3080.58
802.019	3051.71
802.202	3082.91
802.386	2982.16
802.57	2987.39
802.754	3014.71
802.938	2991.84
803.121	3026.33
803.305	3090.07
803.489	3008.12
803.673	3026.72
803.856	3060.24
804.04	3050.55
804.224	3056.75
804.407	3023.62
804.591	2988.74
804.775	3024.01
804.958	3025.17
805.142	3111.77
805.326	3040.67
805.509	3055.59
805.693	3054.04
805.876	3080.39
806.06	3106.16
806.243	3054.81
806.427	3112.74
806.61	3085.23
806.794	3069.34
806.977	3109.64
807.16	3079.61
807.344	3085.42
807.527	3045.32
807.71	3021.29
807.894	3047.64
808.077	3055.98
808.26	3040.86
808.444	2960.26
808.627	3053.65
808.81	3005.21
808.993	2944.96
809.177	2923.06
809.36	2972.08
809.543	2955.61
809.726	2832.97
809.909	2905.24
810.092	2857.97
810.276	2885.67
810.459	2863.78
810.642	2814.37
810.825	2813.4
811.008	2797.32
811.191	2739.39
811.374	2734.74
811.557	2773.69
811.74	2820.77
811.923	2730.09
812.106	2645.62
812.289	2656.08
812.472	2637.48
812.654	2662.86
812.837	2626.82
813.02	2521.23
813.203	2510.58
813.386	2409.63
813.569	2400.33
813.751	2317.02
813.934	2381.35
814.117	2364.88
814.3	2274.98
814.482	2250.57
814.665	2188.37
814.848	2181.79
815.03	2094.6
815.213	2110.1
815.396	2082.01
815.578	2070.38
815.761	2017.3
815.943	2069.22
816.126	1970.22
816.309	1905.7
816.491	1874.7
816.674	1807.47
816.856	1879.54
817.039	1860.36
817.221	1965.76
817.403	1907.05
817.586	1908.02
817.768	1950.84
817.951	1845.64
818.133	1812.51
818.315	1859.78
818.498	1900.85
818.68	1972.93
818.862	1951.62
819.045	1967.12
819.227	1946
819.409	1909.38
819.591	1954.33
819.774	1924.1
819.956	1890.59
820.138	1953.17
820.32	1941.73
820.502	2019.62
820.684	2086.66
820.866	2081.81
821.048	2154.86
821.231	2156.21
821.413	2157.18
821.595	2135.09
821.777	2148.46
821.959	2142.26
822.141	2182.95
822.323	2029.7
822.505	2002.38
822.686	1913.45
822.868	1854.94
823.05	1700.33
823.232	1669.91
823.414	1623.6
823.596	1729.39
823.778	1702.46
823.96	1738.11
824.141	1737.53
824.323	1753.99
824.505	1857.26
824.687	1892.72
824.868	1933.79
825.05	2033.57
825.232	2074.84
825.413	2151.56
825.595	2086.66
825.777	2042.1
825.958	2072.9
826.14	2084.53
826.321	2103.13
826.503	2068.06
826.685	2093.44
826.866	2111.84
827.048	2132.19
827.229	2032.99
827.411	2013.03
827.592	1965.37
827.773	1942.51
827.955	1850.48
828.136	1916.16
828.318	1888.65
828.499	1890.39
828.68	1848.93
828.862	1926.62
829.043	1887.87
829.224	1861.52
829.406	1845.25
829.587	1857.65
829.768	1878.38
829.949	1871.99
830.131	1874.5
830.312	1909.77
830.493	1862.49
830.674	1872.76
830.855	1834.59
831.036	1884.58
831.218	1930.88
831.399	1960.33
831.58	1867.14
831.761	1904.73
831.942	1926.82
832.123	1895.62
832.304	1815.02
832.485	1846.02
832.666	1848.93
832.847	1866.56
833.028	1836.14
833.209	1878.77
833.389	1858.42
833.57	1810.76
833.751	1805.92
833.932	1899.5
834.113	1826.07
834.294	1841.37
834.475	1876.44
834.655	1896.98
834.836	1904.92
835.017	1916.16
835.198	1836.72
835.378	1896.98
835.559	1921.59
835.74	1873.34
835.92	1893.88
836.101	1886.52
836.281	1941.15
836.462	1929.53
836.643	1993.85
836.823	1942.12
837.004	1984.55
837.184	1981.26
837.365	1947.16
837.545	1919.84
837.726	1891.36
837.906	2003.73
838.087	1934.18
838.267	1931.85
838.448	1871.02
838.628	1949.1
838.808	1943.28
838.989	2007.03
839.169	1898.92
839.349	1965.95
839.53	1957.23
839.71	1942.7
839.89	1896.4
840.07	1984.55
840.251	1899.5
840.431	1963.43
840.611	1935.15
840.791	1896.98
840.971	1967.31
841.151	1931.85
841.332	1849.9
841.512	1940.57
841.692	1842.92
841.872	1935.92
842.052	1897.56
842.232	1936.5
842.412	1859
842.592	1873.34
842.772	1916.74
842.952	1901.44
843.132	1877.22
843.312	1861.33
843.492	1852.03
843.672	1896.01
843.851	1811.73
844.031	1873.34
844.211	1859
844.391	1810.37
844.571	1881.48
844.751	1886.13
844.93	1861.14
845.11	1860.94
845.29	1849.7
845.47	1843.7
845.649	1832.27
845.829	1911.9
846.009	1864.62
846.188	1846.99
846.368	1832.66
846.547	1837.3
846.727	1905.7
846.907	1814.06
847.086	1857.65
847.266	1853
847.445	1835.75
847.625	1819.09
847.804	1820.06
847.984	1826.26
848.163	1808.63
848.343	1769.88
848.522	1811.92
848.701	1813.47
848.881	1744.89
849.06	1822.77
849.239	1795.26
849.419	1811.15
849.598	1719.7
849.777	1716.41
849.957	1680.56
850.136	1675.91
850.315	1647.82
850.494	1611.01
850.674	1631.16
850.853	1736.75
851.032	1673.39
851.211	1715.83
851.39	1689.09
851.569	1653.63
851.748	1601.13
851.927	1724.54
852.107	1677.85
852.286	1684.63
852.465	1625.93
852.644	1743.53
852.823	1683.08
853.002	1651.89
853.181	1664.29
853.359	1687.54
853.538	1579.04
853.717	1675.72
853.896	1548.04
854.075	1490.69
854.254	1474.03
854.433	1399.82
854.611	1476.94
854.79	1366.5
854.969	1456.98
855.148	1499.8
855.327	1444.58
855.505	1494.57
855.684	1459.3
855.863	1502.51
856.041	1475
856.22	1537.38
856.399	1509.87
856.577	1587.76
856.756	1570.13
856.934	1701.49
857.113	1694.71
857.291	1598.22
857.47	1568.19
857.648	1595.51
857.827	1570.13
858.005	1646.08
858.184	1573.42
858.362	1660.22
858.541	1605.58
858.719	1563.73
858.898	1570.32
859.076	1562.38
859.254	1624.57
859.433	1533.7
859.611	1556.37
859.789	1524.6
859.967	1579.23
860.146	1610.23
860.324	1510.84
860.502	1547.27
860.68	1465.31
860.859	1532.73
861.037	1534.09
861.215	1545.91
861.393	1545.72
861.571	1540.68
861.749	1487.78
861.927	1555.02
862.105	1526.34
862.283	1481.59
862.461	1502.9
862.639	1493.79
862.817	1505.03
862.995	1519.56
863.173	1482.55
863.351	1465.7
863.529	1526.92
863.707	1530.99
863.885	1509.1
864.063	1429.08
864.241	1481.59
864.418	1562.57
864.596	1454.27
864.774	1413.39
864.952	1443.03
865.129	1481.39
865.307	1451.36
865.485	1365.92
865.663	1474.42
865.84	1353.13
866.018	1423.27
866.196	1265.17
866.373	1271.18
866.551	1285.32
866.728	1188.64
866.906	1255.87
867.084	1286.09
867.261	1304.11
867.439	1341.12
867.616	1340.34
867.794	1310.89
867.971	1345.96
868.149	1346.35
868.326	1398.08
868.503	1367.86
868.681	1356.62
868.858	1351
869.035	1299.66
869.213	1394.21
869.39	1336.86
869.567	1398.08
869.745	1326.59
869.922	1357.39
870.099	1404.28
870.276	1375.41
870.454	1377.16
870.631	1377.35
870.808	1341.7
870.985	1361.27
871.162	1393.04
871.339	1358.56
871.517	1292.68
871.694	1320.77
871.871	1303.73
872.048	1322.32
872.225	1331.04
872.402	1330.85
872.579	1271.56
872.756	1309.15
872.933	1261.29
873.11	1288.03
873.287	1326.59
873.463	1297.72
873.64	1273.89
873.817	1305.08
873.994	1264.78
874.171	1232.23
874.348	1273.31
874.524	1222.74
874.701	1258.97
874.878	1215.18
875.055	1268.46
875.231	1244.83
875.408	1303.14
875.585	1205.3
875.762	1260.33
875.938	1241.34
876.115	1255.68
876.291	1221.38
876.468	1216.35
876.645	1175.85
876.821	1217.7
876.998	1223.9
877.174	1200.46
877.351	1230.68
877.527	1150.66
877.704	1221.96
877.88	1231.07
878.057	1178.56
878.233	1222.16
878.409	1205.69
878.586	1194.65
878.762	1212.08
878.938	1185.73
879.115	1104.94
879.291	1168.68
879.467	1119.08
879.644	1169.46
879.82	1187.86
879.996	1160.16
880.172	1122.77
880.349	1168.1
880.525	1177.98
880.701	1093.7
880.877	1110.75
881.053	1159.96
881.229	1094.48
881.405	1210.92
881.581	1109.2
881.757	1115.21
881.933	1131.48
882.109	1173.14
882.285	1163.84
882.461	1073.94
882.637	1120.25
882.813	1096.8
882.989	1149.89
883.165	1157.83
883.341	1118.7
883.517	1145.24
883.693	1152.21
883.869	1149.7
884.044	1104.17
884.22	1155.12
884.396	1180.7
884.572	1166.36
884.747	1161.71
884.923	1137.49
885.099	1154.73
885.275	1200.65
885.45	1118.7
885.626	1100.68
885.801	1098.93
885.977	1107.85
886.153	1062.7
886.328	1115.79
886.504	1094.87
886.679	1141.56
886.855	1110.17
887.03	1107.46
887.206	1164.61
887.381	1131.87
887.557	1133.23
887.732	1136.13
887.908	1124.51
888.083	1146.4
888.258	1143.5
888.434	1118.5
888.609	1115.21
888.784	1180.5
888.96	1097.38
889.135	1105.33
889.31	1062.7
889.485	1127.42
889.661	1101.45
889.836	1162.48
890.011	1129.16
890.186	1142.91
890.361	1088.28
890.537	1103
890.712	1115.4
890.887	1135.17
891.062	1132.07
891.237	1193.48
891.412	1073.55
891.587	1140.98
891.762	1133.42
891.937	1159.38
892.112	1069.48
892.287	1116.95
892.462	1077.04
892.637	1055.34
892.812	1014.27
892.987	1032.87
893.161	987.72
893.336	1012.33
893.511	1031.9
893.686	1066.97
893.861	1017.37
894.035	1018.72
894.21	1024.34
894.385	979.78
894.56	1003.61
894.734	955.17
894.909	931.15
895.084	944.13
895.258	896.66
895.433	945.1
895.608	926.5
895.782	880.58
895.957	862.76
896.131	878.26
896.306	803.86
896.48	798.04
896.655	814.9
896.829	755.61
897.004	731.78
897.178	760.26
897.353	733.33
897.527	834.47
897.701	757.55
897.876	730.04
898.05	833.5
898.224	796.69
898.399	821.88
898.573	732.95
898.747	650.8
898.921	710.86
899.096	615.34
899.27	612.24
899.444	637.62
899.618	647.31
899.792	688.38
899.967	681.02
900.141	719.19
900.315	645.95
900.489	643.43
900.663	686.45
900.837	643.24
901.011	596.35
901.185	713.57
901.359	680.83
901.533	666.49
901.707	660.1
901.881	658.93
902.055	630.84
902.229	637.43
902.403	713.18
902.576	663.97
902.75	676.76
902.924	793.78
903.098	703.11
903.272	792.43
903.446	825.56
903.619	785.26
903.793	803.28
903.967	774.41
904.14	841.06
904.314	848.23
904.488	807.34
904.661	875.74
904.835	837.57
905.009	896.66
905.182	890.46
905.356	851.33
905.529	833.89
905.703	791.46
905.876	783.9
906.05	747.67
906.223	762.59
906.397	700.78
906.57	704.27
906.744	640.14
906.917	671.53
907.09	656.22
907.264	638.98
907.437	656.03
907.61	588.99
907.784	631.62
907.957	628.52
908.13	592.48
908.304	644.4
908.477	594.61
908.65	597.71
908.823	560.9
908.996	633.55
909.17	591.9
909.343	590.93
909.516	594.61
909.689	593.25
909.862	532.61
910.035	604.69
910.208	569.42
910.381	560.32
910.554	658.35
910.727	588.41
910.9	594.8
911.073	526.99
911.246	633.55
911.419	672.11
911.592	632
911.765	571.17
911.938	588.99
912.11	570.78
912.283	593.84
912.456	607.4
912.629	596.16
912.802	565.55
912.974	546.37
913.147	488.82
913.32	446.2
913.493	465.96
913.665	496.19
913.838	519.24
914.01	487.27
914.183	515.95
914.356	511.69
914.528	545.98
914.701	577.37
914.873	562.64
915.046	481.46
915.218	477.59
915.391	418.49
915.563	410.36
915.736	499.67
915.908	499.09
916.081	468.67
916.253	519.44
916.425	548.89
916.598	523.12
916.77	480.69
916.942	493.28
917.115	438.26
917.287	521.76
917.459	468.48
917.632	417.53
917.804	397.96
917.976	459.96
918.148	485.34
918.32	460.54
918.493	523.31
918.665	548.5
918.837	495.02
919.009	560.9
919.181	554.89
919.353	556.25
919.525	528.54
919.697	516.53
919.869	535.32
920.041	599.07
920.213	648.47
920.385	565.55
920.557	540.17
920.729	563.22
920.901	514.59
921.073	537.07
921.244	504.52
921.416	573.3
921.588	512.46
921.76	518.47
921.932	577.75
922.103	512.46
922.275	541.52
922.447	564.97
922.619	454.53
922.79	521.57
922.962	510.14
923.134	526.6
923.305	476.04
923.477	441.74
923.648	454.53
923.82	478.94
923.991	414.04
924.163	456.47
924.335	452.21
924.506	442.91
924.677	517.5
924.849	433.22
925.02	466.35
925.192	505.49
925.363	469.84
925.535	458.79
925.706	453.95
925.877	497.54
926.049	402.03
926.22	446.01
926.391	463.64
926.562	482.62
926.734	430.7
926.905	470.03
927.076	390.79
927.247	403.96
927.419	399.89
927.59	390.79
927.761	363.66
927.932	377.81
928.103	374.32
928.274	318.33
928.445	312.9
928.616	339.45
928.787	309.41
928.958	350.29
929.129	322.2
929.3	319.1
929.471	261.17
929.642	214.48
929.813	167.59
929.984	286.55
930.155	186.58
930.326	252.65
930.496	225.33
930.667	148.6
930.838	210.02
931.009	166.62
931.18	178.63
931.35	173.6
931.521	177.08
931.692	111.99
931.863	84.67
932.033	137.56
932.204	154.03
932.374	145.7
932.545	88.35
932.716	139.69
932.886	127.68
933.057	48.05
933.227	111.21
933.398	170.89
933.568	88.35
933.739	56.38
933.909	60.06
934.08	97.84
934.25	40.69
934.421	48.82
934.591	74.4
934.761	46.69
934.932	16.08
935.102	56.96
935.272	78.66
935.443	68.2
935.613	53.67
935.783	57.74
935.953	18.41
936.123	180.77
936.294	26.35
936.464	57.35
936.634	68.01
936.804	34.49
936.974	38.56
937.144	78.08
937.314	85.64
937.484	47.08
937.655	31
937.825	122.64
937.995	33.52
938.165	115.47
938.334	67.62
938.504	88.15
938.674	28.87
938.844	79.82
939.014	114.12
939.184	119.15
939.354	153.64
939.524	179.8
939.694	83.89
939.863	102.69
940.033	173.21
940.203	145.89
940.373	124.77
940.542	148.8
940.712	119.15
940.882	137.95
941.051	156.94
941.221	145.31
941.391	186.19
941.56	85.83
941.73	86.41
941.899	237.53
942.069	103.85
942.238	130.2
942.408	100.55
942.577	148.6
942.747	107.34
942.916	53.47
943.086	76.14
943.255	136.98
943.425	104.24
943.594	89.7
943.763	44.95
943.933	39.91
944.102	15.5
944.271	62.39
944.441	84.09
944.61	53.09
944.779	88.74
944.948	151.7
945.117	45.92
945.287	61.03
945.456	28.29
945.625	59.09
945.794	90.48
945.963	74.4
946.132	128.45
946.301	94.35
946.47	123.22
946.639	14.92
946.808	52.7
946.977	115.67
947.146	139.11
947.315	84.09
947.484	109.47
947.653	77.11
947.822	76.53
947.991	78.27
948.16	146.09
948.329	124.39
948.498	60.45
948.666	90.09
948.835	123.42
949.004	29.26
949.173	57.54
949.341	88.74
949.51	110.05
949.679	116.64
949.847	79.05
950.016	152.29
950.185	122.45
950.353	69.36
950.522	97.45
950.69	148.6
950.859	90.09
951.028	138.34
951.196	95.71
951.365	71.3
951.533	80.79
951.701	116.05
951.87	93
952.038	42.04
952.207	93.39
952.375	134.27
952.543	57.54
952.712	87.38
952.88	62.77
953.048	157.52
953.217	99.78
953.385	82.34
953.553	144.54
953.721	67.42
953.89	105.79
954.058	33.71
954.226	52.12
954.394	79.63
954.562	50.57
954.73	95.9
954.898	88.93
955.067	132.72
955.235	68.39
955.403	126.13
955.571	149.57
955.739	106.17
955.907	71.11
956.075	77.31
956.243	58.51
956.41	133.49
956.578	57.16
956.746	28.67
956.914	70.52
957.082	103.65
957.25	135.04
957.418	59.48
957.585	104.04
957.753	133.3
957.921	61.42
958.089	72.27
958.256	99.39
958.424	122.06
958.592	112.37
958.759	68.2
958.927	114.31
959.095	51.54
959.262	85.06
959.43	76.92
959.597	49.6
959.765	78.47
959.932	57.35
960.1	145.31
960.267	89.12
960.435	79.05
960.602	120.7
960.77	81.76
960.937	66.07
961.104	105.2
961.272	50.37
961.439	87.38
961.606	101.52
961.774	134.85
961.941	77.31
962.108	91.25
962.275	98.62
962.443	113.73
962.61	93.77
962.777	147.64
962.944	139.69
963.111	101.72
963.278	124
963.446	103.85
963.613	125.74
963.78	108.89
963.947	126.9
964.114	113.15
964.281	170.69
964.448	127.1
964.615	88.15
964.782	115.86
964.949	153.84
965.116	130.97
965.282	140.47
965.449	100.75
965.616	94.16
965.783	122.25
965.95	104.82
966.117	80.21
966.283	86.99
966.45	128.07
966.617	113.92
966.784	147.44
966.95	150.35
967.117	160.62
967.284	81.76
967.45	94.16
967.617	145.89
967.784	138.53
967.95	171.08
968.117	137.37
968.283	128.07
968.45	234.24
968.616	167.79
968.783	172.24
968.949	142.4
969.116	150.35
969.282	143.37
969.449	113.15
969.615	136.59
969.781	94.94
969.948	120.12
970.114	120.9
970.28	179.41
970.447	139.89
970.613	190.45
970.779	119.54
970.945	143.18
971.112	148.02
971.278	118.96
971.444	138.14
971.61	166.04
971.776	127.1
971.942	139.89
972.108	146.09
972.275	142.4
972.441	153.84
972.607	196.07
972.773	82.54
972.939	151.7
973.105	124.97
973.271	78.86
973.437	100.36
973.602	96.87
973.768	147.44
973.934	98.42
974.1	141.44
974.266	24.61
974.432	140.08
974.598	95.9
974.763	148.22
974.929	95.52
975.095	172.05
975.261	90.48
975.426	89.9
975.592	102.88
975.758	186.58
975.923	67.23
976.089	81.37
976.255	121.29
976.42	109.08
976.586	129.23
976.751	133.1
976.917	204.02
977.082	156.35
977.248	63.74
977.413	60.84
977.579	111.99
977.744	100.36
977.91	80.99
978.075	95.13
978.24	145.12
978.406	118.57
978.571	98.42
978.736	92.42
978.902	139.11
979.067	74.21
979.232	64.91
979.397	129.81
979.563	169.53
979.728	54.06
979.893	125.35
980.058	86.02
980.223	134.27
980.388	110.63
980.554	134.07
980.719	80.21
980.884	99.97
981.049	143.57
981.214	76.53
981.379	135.43
981.544	89.51
981.709	89.32
981.874	84.67
982.039	118.96
982.204	128.07
982.368	108.89
982.533	58.51
982.698	130.39
982.863	157.32
983.028	108.89
983.193	91.84
983.357	98.42
983.522	102.88
983.687	91.25
983.852	103.85
984.016	108.5
984.181	65.1
984.346	119.93
984.51	130.78
984.675	108.69
984.839	139.3
985.004	125.35
985.168	161.78
985.333	88.35
985.498	110.05
985.662	125.55
985.827	115.09
985.991	110.63
986.155	102.3
986.32	128.26
986.484	156.55
986.649	101.91
986.813	38.94
986.977	100.36
987.142	133.88
987.306	91.64
987.47	93
987.634	91.25
987.799	123.03
987.963	133.49
988.127	130.78
988.291	192.78
988.455	98.81
988.62	102.3
988.784	119.74
988.948	122.25
989.112	73.04
989.276	116.44
989.44	98.81
989.604	72.27
989.768	72.46
989.932	178.25
990.096	93.97
990.26	82.15
990.424	55.22
990.588	78.27
990.752	176.12
990.915	152.67
991.079	88.74
991.243	80.21
991.407	114.31
991.571	85.83
991.734	103.46
991.898	121.67
992.062	198.2
992.226	109.85
992.389	71.88
992.553	40.11
992.717	78.47
992.88	80.02
993.044	65.29
993.207	100.75
993.371	111.02
993.535	102.3
993.698	91.06
993.862	130.59
994.025	121.87
994.189	123.03
994.352	95.52
994.515	109.85
994.679	103.07
994.842	81.18
995.006	115.47
995.169	52.12
995.332	64.71
995.496	132.91
995.659	33.32
995.822	50.96
995.985	82.34
996.149	158.87
996.312	76.72
996.475	133.3
996.638	83.7
996.801	147.83
996.964	150.74
997.128	62.58
997.291	102.3
997.454	110.63
997.617	53.28
997.78	115.67
997.943	59.87
998.106	145.31
998.269	74.21
998.432	75.95
998.595	98.23
998.758	44.37
998.92	74.21
999.083	18.99
999.246	73.82
999.409	50.57
999.572	29.64
999.735	36.42
999.897	73.04
1000.06	65.68
1000.223	60.84
1000.386	92.8
1000.548	106.56
1000.711	65.29
1000.874	105.2
1001.036	24.99
1001.199	124.77
1001.361	60.64
1001.524	75.56
1001.687	105.98
1001.849	57.74
1002.012	72.27
1002.174	64.52
1002.337	136.4
1002.499	57.54
1002.661	89.32
1002.824	31.39
1002.986	24.41
1003.149	78.47
1003.311	19.57
1003.473	110.82
1003.636	58.9
1003.798	87.96
1003.96	82.15
1004.123	52.89
1004.285	41.27
1004.447	52.7
1004.609	71.11
1004.771	160.23
1004.933	20.92
1005.096	56.38
1005.258	15.69
1005.42	17.63
1005.582	109.08
1005.744	81.76
1005.906	32.16
1006.068	73.62
1006.23	14.34
1006.392	3.49
1006.554	18.79
1006.716	116.25
1006.878	79.24
1007.04	22.47
1007.202	45.53
1007.363	74.59
1007.525	66.26
1007.687	67.62
1007.849	131.94
1008.011	18.6
1008.172	15.89
1008.334	30.61
1008.496	70.14
1008.658	-3.1
1008.819	36.04
1008.981	25.38
1009.143	8.91
1009.304	26.93
1009.466	76.14
1009.627	102.49
1009.789	142.99
1009.95	48.05
1010.112	22.67
1010.273	58.9
1010.435	37.01
1010.596	67.62
1010.758	30.03
1010.919	41.07
1011.081	15.5
1011.242	44.95
1011.403	72.85
1011.565	43.4
1011.726	80.79
1011.887	19.57
1012.049	55.02
1012.21	82.15
1012.371	94.16
1012.532	-25.38
1012.693	34.1
1012.855	24.61
1013.016	41.07
1013.177	85.83
1013.338	63.74
1013.499	106.37
1013.66	73.62
1013.821	75.95
1013.982	64.91
1014.143	44.56
1014.304	18.41
1014.465	65.29
1014.626	90.87
1014.787	9.88
1014.948	132.91
1015.109	-7.75
1015.27	93.58
1015.431	18.79
1015.592	17.44
1015.752	69.94
1015.913	54.83
1016.074	44.76
1016.235	25.57
1016.395	56.38
1016.556	44.37
1016.717	26.93
1016.877	85.25
1017.038	13.76
1017.199	30.03
1017.359	40.11
1017.52	50.76
1017.681	20.92
1017.841	31.97
1018.002	9.3
1018.162	18.02
1018.323	99.59
1018.483	20.34
1018.644	27.71
1018.804	29.06
1018.964	17.63
1019.125	24.8
1019.285	58.9
1019.446	18.21
1019.606	2.13
1019.766	-16.08
1019.926	53.47
1020.087	50.37
1020.247	-22.67
1020.407	76.14
1020.567	73.24
1020.728	15.89
1020.888	-4.46
1021.048	32.74
1021.208	7.17
1021.368	13.95
1021.528	84.09
1021.688	75.76
1021.848	53.67
1022.008	20.73
1022.168	13.17
1022.328	49.6
1022.488	72.07
1022.648	26.16
1022.808	11.24
1022.968	66.07
1023.128	-2.91
1023.288	29.26
1023.448	8.14
1023.608	72.66
1023.767	48.82
1023.927	-3.29
1024.087	-24.41
1024.247	-23.06
1024.406	20.15
1024.566	-24.22
1024.726	1.74
1024.885	35.07
1025.045	47.47
1025.205	36.42
1025.364	11.04
1025.524	34.68
1025.683	24.22
1025.843	38.56
1026.003	17.24
1026.162	53.28
1026.321	50.76
1026.481	27.71
1026.64	5.04
1026.8	17.63
1026.959	14.92
1027.119	48.05
1027.278	18.02
1027.437	1.74
1027.597	4.84
1027.756	51.73
1027.915	51.73
1028.074	27.71
1028.234	7.36
1028.393	27.32
1028.552	16.27
1028.711	-55.61
1028.87	53.47
1029.03	-37.59
1029.189	21.12
1029.348	-44.56
1029.507	8.91
1029.666	-0.39
1029.825	-4.84
1029.984	19.37
1030.143	25.38
1030.302	-19.18
1030.461	-26.35
1030.62	1.16
1030.779	32.94
1030.938	-5.81
1031.097	-30.42
1031.255	47.27
1031.414	73.62
1031.573	39.52
1031.732	-21.51
1031.891	16.27
1032.049	47.47
1032.208	25.38
1032.367	-19.96
1032.525	-0.39
1032.684	18.6
1032.843	32.55
1033.001	-7.36
1033.16	152.48
1033.319	82.34
1033.477	32.16
1033.636	9.49
1033.794	-13.95
1033.953	34.49
1034.111	40.88
1034.27	-8.72
1034.428	26.74
1034.587	-24.22
1034.745	57.74
1034.903	23.64
1035.062	25.77
1035.22	-33.52
1035.378	46.11
1035.537	-12.21
1035.695	22.09
1035.853	19.18
1036.011	38.94
1036.17	14.92
1036.328	-30.03
1036.486	42.62
1036.644	27.32
1036.802	-78.08
1036.96	-22.47
1037.119	-2.71
1037.277	-13.76
1037.435	-20.15
1037.593	-21.7
1037.751	12.21
1037.909	74.4
1038.067	74.4
