Data from calibration2_FLMT105791__4__17-17-46-084.txt Node

Date: Mon Mar 20 17:17:46 GMT 2023
User: antho
Spectrometer: FLMT10579
Trigger mode: 0
Integration Time (sec): 1.000000E-1
Scans to average: 10
Electric dark correction enabled: true
Nonlinearity correction enabled: false
Boxcar width: 0
XAxis mode: Wavelengths
Number of Pixels in Spectrum: 3648
>>>>>Begin Spectral Data<<<<<
345.248	-178.55
345.464	-178.55
345.681	-178.55
345.898	-167.9
346.114	-166.74
346.331	-24.14
346.548	51.04
346.764	-2.83
346.981	26.04
347.197	2.41
347.414	25.85
347.631	-39.06
347.847	23.72
348.064	-11.93
348.28	39.8
348.497	-60.95
348.713	-29.95
348.93	20.23
349.146	85.72
349.363	111.87
349.579	77.77
349.796	89.98
350.012	80.29
350.229	140.74
350.445	108.39
350.661	69.64
350.878	126.21
351.094	118.46
351.311	113.62
351.527	132.22
351.743	109.55
351.96	134.35
352.176	125.63
352.392	150.43
352.609	141.9
352.825	74.29
353.041	132.02
353.257	95.6
353.474	129.7
353.69	142.87
353.906	147.52
354.122	97.34
354.339	192.08
354.555	144.23
354.771	122.34
354.987	167.28
355.203	196.73
355.42	136.67
355.636	109.55
355.852	133.77
356.068	151.01
356.284	109.16
356.5	221.73
356.716	165.73
356.932	151.98
357.148	168.45
357.364	153.72
357.58	190.15
357.796	207.58
358.012	168.83
358.228	151.98
358.444	77.97
358.66	172.13
358.876	142.87
359.092	121.37
359.308	157.6
359.524	185.88
359.74	181.43
359.956	157.6
360.172	197.7
360.388	211.65
360.604	203.71
360.819	256.21
361.035	209.33
361.251	215.53
361.467	122.92
361.683	189.37
361.898	199.83
362.114	229.09
362.33	214.17
362.546	256.6
362.762	205.84
362.977	233.55
363.193	198.28
363.409	266.48
363.624	199.83
363.84	215.53
364.056	203.32
364.271	239.55
364.487	271.71
364.703	226.38
364.918	201.77
365.134	229.09
365.35	248.08
365.565	372.46
365.781	270.94
365.996	293.22
366.212	362.78
366.427	311.82
366.643	307.56
366.858	324.03
367.074	284.11
367.289	386.61
367.505	430.59
367.72	294.96
367.936	296.32
368.151	366.07
368.367	324.8
368.582	316.08
368.798	295.35
369.013	373.43
369.228	304.65
369.444	335.07
369.659	351.73
369.874	343.4
370.09	398.04
370.305	274.62
370.52	335.26
370.736	394.74
370.951	344.18
371.166	386.99
371.381	384.48
371.597	403.85
371.812	317.63
372.027	332.94
372.242	355.03
372.458	422.45
372.673	303.1
372.888	313.37
373.103	332.16
373.318	411.99
373.533	338.17
373.749	321.12
373.964	243.62
374.179	328.48
374.394	267.84
374.609	354.25
374.824	276.95
375.039	355.8
375.254	279.85
375.469	381.96
375.684	352.12
375.899	404.43
376.114	399.01
376.329	382.15
376.544	385.25
376.759	388.35
376.974	351.54
377.189	365.68
377.404	393
377.619	480.77
377.834	381.38
378.049	416.64
378.264	450.35
378.478	474.96
378.693	455.58
378.908	486.77
379.123	436.59
379.338	521.45
379.553	449.96
379.767	428.65
379.982	442.99
380.197	455
380.412	416.83
380.626	471.86
380.841	548
381.056	495.1
381.271	587.33
381.485	492.39
381.7	444.15
381.915	469.14
382.129	422.45
382.344	407.53
382.559	382.34
382.773	424.39
382.988	341.66
383.202	317.63
383.417	321.89
383.632	428.26
383.846	362
384.061	360.84
384.275	340.69
384.49	418.77
384.704	497.04
384.919	476.7
385.133	512.54
385.348	557.88
385.562	491.04
385.777	538.31
385.991	485.61
386.206	485.42
386.42	465.66
386.634	546.06
386.849	535.4
387.063	532.3
387.277	498.01
387.492	532.11
387.706	499.56
387.92	520.87
388.135	592.75
388.349	557.1
388.563	541.6
388.778	565.24
388.992	577.06
389.206	585.39
389.42	648.17
389.635	601.86
389.849	678.2
390.063	709.58
390.277	725.86
390.491	781.08
390.706	713.65
390.92	755.11
391.134	747.36
391.348	763.83
391.562	738.26
391.776	815.76
391.99	799.48
392.205	832.61
392.419	764.41
392.633	729.73
392.847	703.96
393.061	582.68
393.275	623.75
393.489	479.8
393.703	424.58
393.917	438.72
394.131	420.12
394.345	508.09
394.559	617.17
394.773	676.06
394.986	756.47
395.2	797.74
395.414	904.69
395.628	886.86
395.842	955.64
396.056	905.46
396.27	803.94
396.484	803.55
396.697	736.32
396.911	668.31
397.125	572.6
397.339	555.75
397.553	572.02
397.766	731.28
397.98	811.69
398.194	936.85
398.408	1005.63
398.621	1095.72
398.835	1152.49
399.049	1151.13
399.262	1222.43
399.476	1248.78
399.69	1272.23
399.903	1364.06
400.117	1285.79
400.331	1300.32
400.544	1332.87
400.758	1434.2
400.971	1340.42
401.185	1405.72
401.398	1346.43
401.612	1429.16
401.826	1483.02
402.039	1465.2
402.253	1441.75
402.466	1513.44
402.68	1468.88
402.893	1544.83
403.106	1526.03
403.32	1461.71
403.533	1489.03
403.747	1413.47
403.96	1507.05
404.174	1537.85
404.387	1495.23
404.6	1559.55
404.814	1557.23
405.027	1492.13
405.24	1516.93
405.454	1491.16
405.667	1591.33
405.88	1528.75
406.094	1574.66
406.307	1603.15
406.52	1540.56
406.733	1456.48
406.947	1500.65
407.16	1584.35
407.373	1607.21
407.586	1611.67
407.799	1593.65
408.012	1613.41
408.226	1627.17
408.439	1716.1
408.652	1691.11
408.865	1798.06
409.078	1878.65
409.291	1824.21
409.504	1772.09
409.717	1813.17
409.93	1812.39
410.143	1711.45
410.357	1618.65
410.57	1512.28
410.783	1612.25
410.996	1645.58
411.209	1716.1
411.421	1913.14
411.634	1898.22
411.847	1871.68
412.06	1941.04
412.273	1938.52
412.486	1982.5
412.699	1999.94
412.912	2005.36
413.125	1954.22
413.338	1946.66
413.55	1941.43
413.763	1900.55
413.976	1936.58
414.189	1946.47
414.402	1959.25
414.615	2114.83
414.827	1935.42
415.04	2022.03
415.253	2021.06
415.466	2117.74
415.678	2071.82
415.891	2025.51
416.104	1988.9
416.316	2001.88
416.529	2097.78
416.742	2175.86
416.954	2199.11
417.167	2154.55
417.38	2074.34
417.592	2062.91
417.805	1991.41
418.017	1977.66
418.23	2068.53
418.442	1980.76
418.655	2054.19
418.868	2025.9
419.08	2074.92
419.293	2135.95
419.505	2142.73
419.718	2138.28
419.93	2170.44
420.142	2086.93
420.355	2142.34
420.567	2112.12
420.78	2142.73
420.992	2162.49
421.205	2298.89
421.417	2289.59
421.629	2299.47
421.842	2276.03
422.054	2277
422.266	2319.04
422.479	2335.12
422.691	2167.14
422.903	2202.41
423.115	2096.23
423.328	2135.76
423.54	2148.74
423.752	2189.04
423.964	2240.57
424.177	2294.63
424.389	2258.2
424.601	2396.73
424.813	2358.76
425.025	2371.35
425.238	2376.78
425.45	2289.79
425.662	2298.31
425.874	2617.22
426.086	2326.98
426.298	2399.25
426.51	2368.06
426.722	2343.45
426.934	2371.74
427.146	2395.38
427.358	2298.5
427.57	2362.25
427.782	2273.32
427.994	2251.42
428.206	2310.9
428.418	2379.88
428.63	2451.95
428.842	2489.15
429.054	2386.85
429.266	2357.98
429.478	2318.27
429.69	2258.79
429.902	2208.99
430.114	2213.06
430.325	2114.06
430.537	1966.03
430.749	1939.49
430.961	1785.85
431.173	1869.74
431.384	1918.37
431.596	1958.48
431.808	2281.07
432.02	2530.81
432.231	2706.15
432.443	2858.63
432.655	2749.94
432.867	2642.6
433.078	2699.37
433.29	2774.73
433.502	2812.9
433.713	2876.45
433.925	2898.35
434.136	2791.59
434.348	2616.64
434.56	2550.76
434.771	2727.07
434.983	2639.5
435.194	2792.75
435.406	2904.35
435.617	2988.83
435.829	3052.18
436.04	3061.87
436.252	3014.21
436.463	3154.09
436.675	3243.6
436.886	3282.35
437.098	3349.39
437.309	3332.73
437.521	3204.66
437.732	3196.14
437.943	3125.22
438.155	3152.15
438.366	3025.25
438.578	3146.15
438.789	3010.53
439	2947.56
439.211	2939.61
439.423	2978.17
439.634	3112.05
439.845	3253.29
440.057	3260.65
440.268	3412.55
440.479	3314.13
440.69	3300.56
440.902	3238.95
441.113	3207.37
441.324	3344.16
441.535	3432.12
441.746	3567.35
441.957	3473.97
442.168	3591.57
442.38	3597.77
442.591	3646.6
442.802	3638.85
443.013	3716.93
443.224	3759.16
443.435	3670.62
443.646	3612.5
443.857	3629.35
444.068	3662.1
444.279	3614.05
444.49	3848.48
444.701	3737.85
444.912	3928.69
445.123	3903.7
445.334	3759.94
445.545	3791.71
445.756	3731.46
445.967	3676.82
446.178	3599.71
446.388	3589.05
446.599	3601.84
446.81	3673.33
447.021	3609.01
447.232	3827.56
447.443	3863.4
447.653	3927.14
447.864	4060.05
448.075	4019.95
448.286	4034.09
448.496	3995.15
448.707	4044.75
448.918	3945.94
449.129	4035.64
449.339	4001.54
449.55	4071.1
449.761	4042.23
449.971	4016.85
450.182	4123.99
450.393	4163.9
450.603	4138.33
450.814	4308.05
451.024	4263.49
451.235	4428.95
451.446	4424.49
451.656	4413.06
451.867	4311.15
452.077	4232.1
452.288	4313.67
452.498	4269.88
452.709	4257.48
452.919	4125.73
453.13	4056.95
453.34	4026.15
453.55	3893.43
453.761	4087.18
453.971	4071.29
454.182	4153.63
454.392	4195.1
454.602	4379.74
454.813	4314.64
455.023	4267.17
455.233	4151.89
455.444	4266.39
455.654	4076.91
455.864	4184.63
456.075	4343.31
456.285	4282.28
456.495	4317.54
456.705	4391.75
456.916	4549.07
457.126	4544.81
457.336	4462.27
457.546	4359.78
457.756	4450.26
457.967	4535.32
458.177	4355.71
458.387	4479.13
458.597	4326.26
458.807	4412.67
459.017	4345.64
459.227	4319.87
459.437	4328.2
459.647	4427.98
459.857	4445.42
460.068	4483.97
460.278	4531.05
460.488	4494.05
460.698	4553.33
460.908	4565.15
461.117	4623.66
461.327	4666.29
461.537	4756.38
461.747	4790.48
461.957	4748.05
462.167	4931.92
462.377	4786.41
462.587	4735.07
462.797	4911.38
463.007	4806.37
463.216	4967.57
463.426	5096.8
463.636	4915.25
463.846	4815.28
464.056	4829.04
464.265	4817.99
464.475	4793
464.685	4918.94
464.895	4843.76
465.104	4770.72
465.314	4946.06
465.524	4808.89
465.733	4885.8
465.943	5024.53
466.153	5089.63
466.362	5128.76
466.572	5068.51
466.782	4979
466.991	5103.19
467.201	5030.34
467.41	4914.67
467.62	5094.66
467.829	5103.77
468.039	5167.9
468.249	5187.08
468.458	5309.92
468.668	5231.26
468.877	5333.17
469.086	5369.79
469.296	5490.88
469.505	5529.05
469.715	5482.93
469.924	5430.04
470.134	5544.74
470.343	5370.37
470.552	5386.83
470.762	5375.99
470.971	5454.84
471.18	5470.53
471.39	5529.05
471.599	5483.13
471.808	5565.47
472.018	5768.71
472.227	5879.15
472.436	6045.96
472.645	6049.84
472.855	6041.7
473.064	6168.6
473.273	6226.54
473.482	5993.07
473.691	6115.32
473.901	6078.32
474.11	5990.55
474.319	6254.24
474.528	6215.88
474.737	6522.58
474.946	6412.92
475.155	6451.67
475.364	6571.79
475.573	6499.14
475.783	6656.85
475.992	6523.94
476.201	6577.02
476.41	6585.94
476.619	6527.62
476.828	6517.35
477.037	6554.16
477.245	6602.79
477.454	6670.99
477.663	6898.45
477.872	7008.69
478.081	7168.92
478.29	7024.39
478.499	7196.82
478.708	7304.16
478.917	7311.13
479.125	7071.47
479.334	7174.54
479.543	7305.71
479.752	7456.06
479.961	7455.09
480.169	7644.77
480.378	7664.14
480.587	7874.16
480.796	7779.42
481.004	7762.37
481.213	7877.65
481.422	7963.48
481.63	8038.65
481.839	8159.55
482.048	8246.16
482.256	8149.28
482.465	8395.34
482.674	8303.31
482.882	8403.29
483.091	8489.89
483.299	8289.75
483.508	8564.1
483.716	8610.01
483.925	8671.24
484.134	8426.92
484.342	8569.71
484.551	8571.07
484.759	8457.92
484.967	8809.77
485.176	8771.99
485.384	8742.54
485.593	8657.29
485.801	8548.98
486.01	8156.06
486.218	7821.66
486.426	7525.03
486.635	7375.46
486.843	7388.63
487.051	7718.39
487.26	7773.8
487.468	8028.77
487.676	8296.34
487.885	8564.87
488.093	8706.31
488.301	8996.54
488.509	9026.96
488.717	9181.76
488.926	9172.07
489.134	9001.77
489.342	9101.94
489.55	9038.2
489.758	9222.64
489.967	9501.64
490.175	9498.15
490.383	9741.11
490.591	9999.57
490.799	9916.26
491.007	9813.96
491.215	9840.31
491.423	9818.61
491.631	9837.4
491.839	9677.37
492.047	9697.52
492.255	9455.53
492.463	9489.63
492.671	9289.68
492.879	9634.36
493.087	9711.66
493.295	9825
493.503	9937.38
493.711	10245.82
493.919	10185.76
494.127	10146.43
494.334	10101.67
494.542	10156.12
494.75	10451.58
494.958	10241.95
495.166	10573.25
495.374	10635.25
495.581	10710.43
495.789	10649.59
495.997	10678.27
496.205	10301.43
496.412	10474.64
496.62	10633.51
496.828	10568.02
497.035	10712.56
497.243	10764.48
497.451	10763.71
497.658	10808.46
497.866	10718.37
498.074	10791.8
498.281	10637.77
498.489	10775.14
498.696	10527.72
498.904	10348.12
499.112	10394.81
499.319	10646.68
499.527	10747.24
499.734	10870.27
499.942	10730.19
500.149	10759.64
500.357	10837.14
500.564	10643.39
500.771	10609.1
500.979	10438.99
501.186	10245.63
501.394	10588.75
501.601	10233.03
501.808	10324.1
502.016	10395.01
502.223	10303.36
502.43	10374.86
502.638	10377.38
502.845	10628.86
503.052	10702.1
503.26	10724.18
503.467	10860.19
503.674	10906.69
503.881	10750.73
504.089	10742.59
504.296	10644.55
504.503	10552.91
504.71	10479.48
504.917	10633.51
505.125	10696.09
505.332	10942.34
505.539	10925.29
505.746	11169.41
505.953	11227.15
506.16	11282.56
506.367	11342.62
506.574	11518.74
506.781	11482.51
506.988	11330.42
507.195	11308.14
507.402	11302.91
507.609	11311.63
507.816	11080.48
508.023	11073.9
508.23	10984.77
508.437	10809.82
508.644	11014.42
508.851	11148.88
509.058	11326.74
509.265	11309.11
509.472	11448.41
509.679	11544.12
509.885	11506.53
510.092	11467.98
510.299	11489.87
510.506	11200.22
510.713	11314.92
510.92	11267.64
511.126	11439.89
511.333	11485.03
511.54	11638.67
511.746	11629.76
511.953	11732.83
512.16	11903.33
512.367	11720.04
512.573	11577.64
512.78	11535.21
512.987	11469.34
513.193	11291.09
513.4	11177.55
513.606	11299.03
513.813	11334.87
514.02	11266.48
514.226	11273.46
514.433	11306.98
514.639	11175.61
514.846	11217.66
515.052	11171.35
515.259	11281.21
515.465	11334.87
515.672	11303.1
515.878	11426.13
516.085	11563.11
516.291	11523
516.497	11474.76
516.704	11028.17
516.91	10841.79
517.117	10337.85
517.323	10104.77
517.529	10029.99
517.736	9972.44
517.942	10066.41
518.148	10389
518.354	10479.09
518.561	10418.84
518.767	10396.17
518.973	10477.54
519.179	10677.68
519.386	10800.71
519.592	10823.58
519.798	10841.59
520.004	11321.31
520.21	11276.56
520.417	11380.02
520.623	11533.47
520.829	11450.35
521.035	11501.5
521.241	11441.82
521.447	11510.22
521.653	11717.91
521.859	11625.69
522.065	11756.28
522.271	11796.96
522.477	11778.75
522.683	11921.15
522.889	11583.65
523.095	11452.29
523.301	11570.86
523.507	11417.99
523.713	11545.87
523.919	11382.73
524.125	11795.41
524.331	11897.32
524.537	12097.08
524.742	12124.78
524.948	12106.38
525.154	12070.73
525.36	12168.38
525.566	11959.13
525.772	12122.26
525.977	12014.54
526.183	11872.33
526.389	12024.61
526.595	11560.2
526.8	11447.05
527.006	11110.32
527.212	10771.46
527.417	10730.38
527.623	10831.13
527.829	10956.1
528.034	11237.23
528.24	11294.96
528.446	11606.9
528.651	11841.52
528.857	11915.92
529.062	11992.84
529.268	12061.62
529.473	12274.55
529.679	12307.29
529.884	12324.54
530.09	12271.26
530.295	12034.5
530.501	12147.64
530.706	12159.66
530.912	12278.62
531.117	12326.09
531.323	12295.86
531.528	12531.46
531.733	12548.51
531.939	12414.05
532.144	12322.99
532.35	12309.81
532.555	12265.83
532.76	11965.52
532.966	11911.08
533.171	11762.67
533.376	11669.28
533.581	11730.7
533.787	11891.12
533.992	12068.01
534.197	11882.02
534.402	12163.73
534.607	12078.09
534.813	12075.57
535.018	12088.55
535.223	12257.31
535.428	12192.59
535.633	12353.99
535.838	12521
536.043	12669.79
536.249	12807.16
536.454	12544.83
536.659	12639.76
536.864	12579.7
537.069	12379.17
537.274	12325.7
537.479	12227.47
537.684	12256.34
537.889	12153.26
538.094	12500.85
538.299	12384.98
538.504	12533.98
538.708	12441.56
538.913	12627.17
539.118	12597.53
539.323	12580.28
539.528	12304.97
539.733	12259.05
539.938	12375.49
540.142	12230.96
540.347	12227.66
540.552	12107.15
540.757	11933.94
540.962	12116.45
541.166	11919.6
541.371	11941.5
541.576	11998.65
541.781	12083.9
541.985	12292.95
542.19	12158.11
542.395	12525.45
542.599	12467.91
542.804	12347.98
543.008	12521
543.213	12353.79
543.418	12302.25
543.622	12482.05
543.827	12146.87
544.031	12438.85
544.236	12538.82
544.44	12732.95
544.645	12731.6
544.849	12640.15
545.054	12701.57
545.258	12685.68
545.463	12715.71
545.667	12447.18
545.872	12712.42
546.076	12695.56
546.281	12654.1
546.485	12587.84
546.689	12669.41
546.894	12626.39
547.098	12713.97
547.302	12630.85
547.507	12656.62
547.711	12657.78
547.915	12602.95
548.119	12442.72
548.324	12437.88
548.528	12575.63
548.732	12482.25
548.936	12689.56
549.141	12646.54
549.345	12634.53
549.549	12713
549.753	12817.43
549.957	12764.54
550.161	12835.25
550.366	12868.38
550.57	12791.27
550.774	12703.7
550.978	12768.6
551.182	12739.54
551.386	12566.72
551.59	12650.42
551.794	12629.49
551.998	12760.27
552.202	12759.89
552.406	12700.99
552.61	12828.47
552.814	12810.07
553.018	12758.92
553.222	12535.91
553.426	12556.26
553.63	12729.27
553.833	12688.97
554.037	12512.86
554.241	12567.69
554.445	12785.27
554.649	12799.99
554.853	12650.03
555.056	12812.58
555.26	12879.43
555.464	12822.85
555.668	12831.77
555.871	12820.53
556.075	12813.75
556.279	12637.44
556.483	12656.23
556.686	12593.07
556.89	12612.83
557.094	12620.39
557.297	12345.85
557.501	12471.4
557.704	12291.4
557.908	12446.02
558.112	12371.42
558.315	12508.4
558.519	12442.14
558.722	12248.01
558.926	12249.75
559.129	11971.33
559.333	12100.56
559.536	12050.96
559.74	11944.21
559.943	11879.11
560.147	11995.17
560.35	11959.32
560.553	12256.72
560.757	12078.86
560.96	12155.01
561.164	12303.22
561.367	12402.03
561.57	12340.81
561.774	12206.54
561.977	12169.34
562.18	12163.92
562.384	12275.71
562.587	12142.61
562.79	12231.73
562.993	12130.98
563.197	12126.91
563.4	12286.95
563.603	12266.61
563.806	12298.57
564.009	12188.72
564.212	12255.76
564.416	12110.25
564.619	12061.23
564.822	12005.43
565.025	12185.81
565.228	12201.51
565.431	12225.53
565.634	12008.92
565.837	11967.07
566.04	11811.49
566.243	11811.49
566.446	11686.72
566.649	11910.3
566.852	11704.93
567.055	11826.02
567.258	11734.19
567.461	12012.99
567.664	12060.65
567.867	12015.7
568.07	11949.63
568.273	11986.45
568.475	12040.5
568.678	11698.15
568.881	11728.76
569.084	11565.24
569.287	11503.63
569.489	11616.39
569.692	11628.4
569.895	11720.63
570.098	11555.36
570.3	11584.23
570.503	11461.59
570.706	11439.11
570.909	11358.9
571.111	11209.13
571.314	11200.22
571.516	11259.7
571.719	11318.6
571.922	11278.11
572.124	11403.07
572.327	11426.32
572.529	11430.59
572.732	11534.82
572.935	11583.84
573.137	11741.55
573.34	11574.54
573.542	11766.16
573.745	11710.94
573.947	11671.8
574.15	11528.04
574.352	11548.19
574.554	11715.01
574.757	11522.23
574.959	11338.75
575.162	11519.9
575.364	11306.59
575.566	11473.6
575.769	11258.93
575.971	11288.18
576.173	11063.24
576.376	11264.93
576.578	11333.13
576.78	11344.76
576.982	11273.26
577.185	11303.29
577.387	11262.41
577.589	11447.64
577.791	11300.39
577.993	11366.65
578.196	11343.21
578.398	11231.22
578.6	11236.45
578.802	11046.39
579.004	11033.4
579.206	11141.32
579.408	11319.38
579.61	11127.95
579.812	11408.11
580.014	11230.06
580.216	11227.54
580.418	11480.57
580.62	11430.78
580.822	11372.85
581.024	11495.1
581.226	11558.07
581.428	11498.4
581.63	11696.6
581.832	11498.78
582.034	11706.29
582.236	11596.05
582.438	11802.39
582.64	11832.81
582.841	11842.88
583.043	12013.57
583.245	11744.26
583.447	11847.53
583.649	11830.87
583.85	11909.53
584.052	11820.99
584.254	11799.48
584.456	11811.49
584.657	11771.77
584.859	11999.62
585.061	11693.5
585.262	11769.06
585.464	11628.21
585.666	11737.48
585.867	11534.24
586.069	11569.12
586.27	11492.78
586.472	11568.53
586.674	11491.42
586.875	11477.86
587.077	11523.97
587.278	11652.43
587.48	11588.88
587.681	11714.62
587.883	11612.9
588.084	11384.86
588.285	11447.25
588.487	11167.48
588.688	11200.61
588.89	10906.11
589.091	10612
589.292	10464.56
589.494	10179.37
589.695	10077.65
589.896	9898.05
590.098	9950.74
590.299	10048.97
590.5	10169.68
590.702	10420.39
590.903	10520.36
591.104	10730.38
591.305	10820.67
591.507	10844.11
591.708	10834.62
591.909	10863.29
592.11	10775.14
592.311	10947.57
592.512	10775.33
592.714	10711.2
592.915	10811.37
593.116	10837.33
593.317	11003.57
593.518	10996.98
593.719	11055.49
593.92	10976.44
594.121	11053.75
594.322	10965.4
594.523	10922
594.724	10787.54
594.925	10824.74
595.126	10733.29
595.327	10767.97
595.528	10848.38
595.729	10877.44
595.929	10829.19
596.13	10863.1
596.331	11051.42
596.532	10947.19
596.733	11159.34
596.934	11128.92
597.135	11171.93
597.335	11121.37
597.536	11077
597.737	10988.45
597.938	10954.55
598.138	11042.51
598.339	11019.65
598.54	11116.72
598.74	10920.64
598.941	10996.98
599.142	11085.91
599.342	11067.31
599.543	11041.35
599.744	11040.38
599.944	11104.51
600.145	11155.27
600.345	11088.62
600.546	11201
600.746	11142.48
600.947	11184.14
601.147	10954.36
601.348	11169.61
601.548	11074.67
601.749	10947.96
601.949	10909.99
602.15	10931.88
602.35	10773.78
602.551	10930.14
602.751	10929.56
602.951	10976.83
603.152	10948.16
603.352	11072.54
603.552	11028.75
603.753	11200.03
603.953	11203.51
604.153	11203.51
604.354	11160.7
604.554	11188.98
604.754	11188.4
604.954	11190.53
605.155	11299.42
605.355	11167.09
605.555	11227.54
605.755	11222.31
605.955	11067.5
606.155	11205.84
606.356	11117.68
606.556	11147.72
606.756	11100.83
606.956	11122.72
607.156	11216.5
607.356	11069.63
607.556	11138.42
607.756	11103.35
607.956	11151.78
608.156	11160.7
608.356	10984.39
608.556	11093.66
608.756	11045.8
608.956	10962.11
609.156	10947.57
609.356	10955.71
609.556	10844.11
609.755	10969.66
609.955	10874.92
610.155	10870.85
610.355	10971.6
610.555	10797.23
610.755	10766.61
610.954	10713.91
611.154	10823.19
611.354	10894.87
611.554	10831.91
611.753	10872.98
611.953	10750.92
612.153	10899.91
612.352	10806.14
612.552	10682.72
612.752	10617.04
612.951	10813.5
613.151	10678.85
613.351	10756.73
613.55	10786.76
613.75	10685.43
613.949	10535.09
614.149	10635.25
614.348	10565.7
614.548	10491.88
614.747	10503.12
614.947	10657.92
615.146	10496.53
615.346	10748.4
615.545	10719.34
615.745	10637.19
615.944	10591.27
616.144	10620.72
616.343	10371.18
616.542	10403.73
616.742	10301.81
616.941	10312.86
617.14	10179.56
617.34	10326.42
617.539	10358.97
617.738	10329.71
617.938	10541.09
618.137	10405.86
618.336	10510.87
618.535	10504.28
618.734	10497.31
618.934	10454.87
619.133	10559.3
619.332	10639.52
619.531	10410.51
619.73	10621.3
619.929	10602.12
620.128	10608.52
620.328	10627.31
620.527	10632.73
620.726	10619.95
620.925	10576.35
621.124	10708.1
621.323	10523.46
621.522	10463.4
621.721	10530.44
621.92	10435.31
622.119	10404.5
622.318	10403.14
622.517	10372.92
622.715	10349.09
622.914	10350.06
623.113	10361.68
623.312	10084.04
623.511	10253.18
623.71	10214.43
623.909	10123.18
624.107	10296.2
624.306	10144.88
624.505	10077.26
624.704	10135.58
624.902	9957.14
625.101	10129.77
625.3	9950.36
625.499	10021.27
625.697	9924.59
625.896	9850.38
626.095	9917.81
626.293	9801.56
626.492	9876.93
626.69	9808.53
626.889	10010.61
627.088	9990.08
627.286	9909.86
627.485	9822.68
627.683	9767.27
627.882	9672.33
628.08	9442.16
628.279	9428.98
628.477	9537.09
628.676	9290.07
628.874	9386.17
629.073	9376.87
629.271	9395.08
629.469	9509.39
629.668	9431.31
629.866	9369.5
630.065	9345.87
630.263	9482.07
630.461	9401.86
630.66	9441.19
630.858	9434.21
631.056	9565.77
631.254	9603.94
631.453	9436.73
631.651	9483.81
631.849	9447.2
632.047	9408.83
632.245	9473.55
632.444	9484.78
632.642	9557.24
632.84	9648.31
633.038	9530.31
633.236	9558.6
633.434	9572.55
633.632	9601.42
633.83	9537.09
634.028	9675.62
634.227	9594.44
634.425	9806.79
634.623	9587.08
634.821	9706.24
635.019	9677.75
635.216	9774.05
635.414	9785.87
635.612	9648.31
635.81	9656.25
636.008	9761.65
636.206	9692.67
636.404	9656.06
636.602	9676.01
636.8	9590.57
636.997	9722.32
637.195	9719.99
637.393	9788.77
637.591	9831.01
637.789	9827.91
637.986	9774.82
638.184	9815.12
638.382	9880.41
638.58	9834.3
638.777	9909.48
638.975	9794.58
639.173	9870.53
639.37	9818.03
639.568	9817.45
639.765	9801.17
639.963	9696.74
640.161	9598.32
640.358	9769.4
640.556	9575.65
640.753	9686.47
640.951	9567.71
641.148	9615.95
641.346	9672.72
641.543	9584.56
641.741	9650.05
641.938	9527.6
642.136	9616.72
642.333	9533.99
642.531	9687.44
642.728	9587.27
642.925	9673.69
643.123	9653.15
643.32	9663.22
643.517	9510.55
643.715	9549.49
643.912	9697.9
644.109	9578.17
644.306	9565.38
644.504	9520.63
644.701	9637.84
644.898	9627.19
645.095	9521.01
645.293	9560.54
645.49	9575.84
645.687	9457.46
645.884	9514.43
646.081	9265.85
646.278	9340.83
646.475	9292.2
646.672	9266.43
646.87	9200.56
647.067	9156.19
647.264	9190.87
647.461	9110.27
647.658	9040.33
647.855	9072.88
648.052	8924.66
648.249	8880.1
648.446	8925.05
648.642	9041.49
648.839	8844.45
649.036	8892.69
649.233	8907.61
649.43	8844.64
649.627	8660.39
649.824	8818.49
650.021	8702.82
650.217	8843.09
650.414	8844.25
650.611	8914
650.808	9072.29
651.004	8963.41
651.201	9040.71
651.398	9153.09
651.595	8990.34
651.791	8876.42
651.988	8998.48
652.185	8765.01
652.381	8940.35
652.578	8821.2
652.775	8969.61
652.971	9016.5
653.168	8910.9
653.364	9113.76
653.561	8883.58
653.757	8992.08
653.954	9145.14
654.15	8918.65
654.347	9072.88
654.543	9059.51
654.74	8863.82
654.936	8809.38
655.133	8808.02
655.329	8837.86
655.525	8690.03
655.722	8620.09
655.918	8422.08
656.115	8122.35
656.311	7904.58
656.507	7716.84
656.704	7612.02
656.9	7655.61
657.096	7770.12
657.292	7855.95
657.489	7975.69
657.685	8109.95
657.881	8128.55
658.077	8231.43
658.273	8439.32
658.47	8577.46
658.666	8516.63
658.862	8747.38
659.058	8710.37
659.254	8712.51
659.45	8759.39
659.646	8713.28
659.842	8700.11
660.038	8890.75
660.234	8743.12
660.43	8827.2
660.626	8916.91
660.822	8921.75
661.018	8937.25
661.214	8882.03
661.41	8768.5
661.606	8943.65
661.802	8994.6
661.998	8922.14
662.194	8911.48
662.39	9020.95
662.586	8969.41
662.781	8893.27
662.977	9054.28
663.173	8868.28
663.369	8910.52
663.564	8925.05
663.76	8874.09
663.956	8943.26
664.152	8845.8
664.347	8711.73
664.543	8899.28
664.739	8821.39
664.934	8687.9
665.13	8848.52
665.326	8893.08
665.521	8881.07
665.717	8768.5
665.912	8877.77
666.108	8659.23
666.304	8851.04
666.499	8769.47
666.695	8629.97
666.89	8794.65
667.086	8774.51
667.281	8740.02
667.477	8839.22
667.672	8769.27
667.867	8687.13
668.063	8688.48
668.258	8594.13
668.454	8694.49
668.649	8727.23
668.844	8819.65
669.04	8761.72
669.235	8751.45
669.43	8715.22
669.626	8585.8
669.821	8612.73
670.016	8633.65
670.211	8675.89
670.407	8499.97
670.602	8702.82
670.797	8598.39
670.992	8700.3
671.187	8472.07
671.382	8673.76
671.578	8431.96
671.773	8605.56
671.968	8332.57
672.163	8560.8
672.358	8468.77
672.553	8358.34
672.748	8527.28
672.943	8564.87
673.138	8483.11
673.333	8526.7
673.528	8385.27
673.723	8496.48
673.918	8423.82
674.113	8416.07
674.308	8490.28
674.503	8393.79
674.698	8532.32
674.892	8353.88
675.087	8426.54
675.282	8400.57
675.477	8378.68
675.672	8403.87
675.867	8265.14
676.061	8340.71
676.256	8243.44
676.451	8394.18
676.646	8324.24
676.84	8294.21
677.035	8197.72
677.23	8211.09
677.424	8304.86
677.619	8301.96
677.814	8407.35
678.008	8350.39
678.203	8268.24
678.397	8215.54
678.592	8228.53
678.787	8342.64
678.981	8235.89
679.176	8263.4
679.37	8221.74
679.565	8212.25
679.759	8213.03
679.954	8201.59
680.148	8235.31
680.342	8251
680.537	8173.89
680.731	8081.28
680.926	8170.21
681.12	8189.78
681.314	8141.34
681.509	8117.31
681.703	8118.67
681.897	8096
682.092	8065.58
682.286	8045.05
682.48	8090.96
682.674	8047.95
682.869	7976.07
683.063	8122.35
683.257	8057.45
683.451	7935.19
683.645	8081.67
683.839	7917.37
684.034	7869.32
684.228	7915.82
684.422	7780.39
684.616	7894.51
684.81	7882.3
685.004	7771.09
685.198	7807.13
685.392	7748.81
685.586	7863.89
685.78	7702.5
685.974	7745.51
686.168	7736.8
686.362	7707.54
686.556	7184.62
686.75	6965.29
686.944	6506.31
687.138	6105.44
687.331	5786.15
687.525	5535.63
687.719	5444.18
687.913	5504.83
688.107	5636.38
688.301	5591.63
688.494	5734.22
688.688	5655.37
688.882	5577.68
689.076	5611.19
689.269	5667.96
689.463	5771.23
689.657	5815.4
689.85	5786.73
690.044	5894.26
690.238	5912.28
690.431	5984.16
690.625	6015.54
690.818	6125.79
691.012	6096.53
691.205	6260.05
691.399	6284.08
691.593	6356.15
691.786	6358.86
691.98	6468.72
692.173	6536.72
692.366	6529.36
692.56	6619.84
692.753	6529.36
692.947	6477.44
693.14	6544.47
693.333	6500.11
693.527	6502.82
693.72	6505.14
693.914	6444.11
694.107	6371.85
694.3	6400.52
694.493	6340.65
694.687	6478.02
694.88	6280.59
695.073	6524.32
695.266	6424.74
695.46	6429.39
695.653	6498.56
695.846	6447.99
696.039	6437.91
696.232	6460.97
696.425	6670.41
696.618	6694.05
696.812	6717.68
697.005	6797.51
697.198	6947.08
697.391	6806.23
697.584	6891.48
697.777	6918.21
697.97	6825.21
698.163	6874.04
698.356	6821.53
698.549	6876.94
698.742	6834.71
698.935	6720.4
699.127	6667.5
699.32	6567.72
699.513	6593.88
699.706	6537.11
699.899	6612.09
700.092	6505.73
700.285	6467.75
700.477	6361.96
700.67	6508.05
700.863	6394.9
701.056	6496.62
701.248	6428.23
701.441	6460
701.634	6368.75
701.826	6469.88
702.019	6308.68
702.212	6378.63
702.404	6324.77
702.597	6280.4
702.79	6314.11
702.982	6328.83
703.175	6418.15
703.367	6434.62
703.56	6435.98
703.752	6507.08
703.945	6460.97
704.137	6463.68
704.33	6478.02
704.522	6478.21
704.715	6535.37
704.907	6517.74
705.1	6562.69
705.292	6498.94
705.484	6379.4
705.677	6509.6
705.869	6482.86
706.061	6513.28
706.254	6551.64
706.446	6457.09
706.638	6433.84
706.831	6539.82
707.023	6430.36
707.215	6657.04
707.407	6562.11
707.599	6512.7
707.792	6556.29
707.984	6529.94
708.176	6547.96
708.368	6473.37
708.56	6541.76
708.752	6481.51
708.944	6431.33
709.136	6453.99
709.329	6436.36
709.521	6511.93
709.713	6446.44
709.905	6446.83
710.097	6523.36
710.289	6431.91
710.481	6425.32
710.672	6391.61
710.864	6406.53
711.056	6458.26
711.248	6438.3
711.44	6423.96
711.632	6411.37
711.824	6428.81
712.016	6406.53
712.207	6396.84
712.399	6317.79
712.591	6396.06
712.783	6411.37
712.975	6324.18
713.166	6278.46
713.358	6251.72
713.55	6299.77
713.741	6329.8
713.933	6302.48
714.125	6205.42
714.316	6167.25
714.508	6242.81
714.7	6156.79
714.891	6191.08
715.083	6162.99
715.274	6086.46
715.466	6141.67
715.657	6111.64
715.849	5940.76
716.04	5940.95
716.232	5841.95
716.423	5783.24
716.615	5704.58
716.806	5487
716.998	5306.24
717.189	5152.01
717.381	5000.5
717.572	4868.17
717.763	4750.76
717.955	4727.71
718.146	4589.57
718.337	4458.01
718.528	4323.94
718.72	4217.96
718.911	4231.71
719.102	4114.69
719.293	4212.15
719.485	4107.33
719.676	4085.24
719.867	4022.85
720.058	3991.27
720.249	3944
720.44	3977.32
720.632	4083.3
720.823	4128.45
721.014	4302.04
721.205	4441.93
721.396	4568.64
721.587	4670.75
721.778	4762.97
721.969	4845.51
722.16	4870.11
722.351	4972.41
722.542	5086.53
722.733	5069.28
722.924	4985.97
723.115	4946.06
723.305	4844.15
723.496	4901.89
723.687	4627.15
723.878	4625.6
724.069	4593.63
724.26	4575.03
724.45	4447.55
724.641	4391.36
724.832	4447.16
725.023	4362.88
725.213	4339.24
725.404	4254.96
725.595	4288.48
725.785	4252.64
725.976	4279.76
726.167	4291
726.357	4277.83
726.548	4382.84
726.739	4262.13
726.929	4353.97
727.12	4381.87
727.31	4378.57
727.501	4273.76
727.691	4260.58
727.882	4242.76
728.072	4302.82
728.263	4357.26
728.453	4374.31
728.644	4390.97
728.834	4290.81
729.024	4220.28
729.215	4187.15
729.405	4280.93
729.596	4323.74
729.786	4330.72
729.976	4358.42
730.167	4301.27
730.357	4295.65
730.547	4262.91
730.737	4293.91
730.928	4390.2
731.118	4363.46
731.308	4290.23
731.498	4324.33
731.688	4396.98
731.879	4434.57
732.069	4464.99
732.259	4489.2
732.449	4555.66
732.639	4613.78
732.829	4618.43
733.019	4732.36
733.209	4790.09
733.399	4798.81
733.589	4854.81
733.779	4919.32
733.969	4875.73
734.159	4999.53
734.349	4985.97
734.539	5061.34
734.729	5071.03
734.919	5027.82
735.109	5137.87
735.299	4984.62
735.488	5034.99
735.678	5010.38
735.868	4964.08
736.058	5026.08
736.248	4983.26
736.437	4868.95
736.627	4891.62
736.817	5008.83
737.007	4901.69
737.196	5006.51
737.386	4988.3
737.576	4896.65
737.765	4987.91
737.955	4903.63
738.144	5124.11
738.334	4979.97
738.524	4911.96
738.713	4972.41
738.903	4954
739.092	4969.7
739.282	4912.15
739.471	5019.68
739.661	4922.62
739.85	4988.3
740.04	4981.71
740.229	4961.56
740.419	5002.63
740.608	4997.79
740.797	5014.26
740.987	4980.16
741.176	4985.78
741.365	4956.72
741.555	4942.19
741.744	5006.9
741.933	4938.31
742.123	4966.4
742.312	4982.1
742.501	5022.59
742.69	5033.05
742.88	4931.53
743.069	5063.47
743.258	4997.21
743.447	5019.88
743.636	5007.48
743.825	4953.62
744.014	4995.08
744.204	5015.42
744.393	4974.93
744.582	5061.53
744.771	5042.35
744.96	4925.14
745.149	4997.6
745.338	4948.77
745.527	5038.48
745.716	4954.2
745.905	4975.7
746.094	5017.17
746.283	4952.07
746.471	4925.91
746.66	5044.29
746.849	4953.42
747.038	5032.28
747.227	4933.85
747.416	4989.65
747.604	4891.81
747.793	4926.49
747.982	4929.59
748.171	4943.35
748.359	4911.38
748.548	4918.55
748.737	4884.25
748.926	4876.12
749.114	4728.09
749.303	4836.79
749.491	4871.08
749.68	4773.82
749.869	4865.46
750.057	4808.69
750.246	4748.83
750.434	4788.93
750.623	4748.63
750.811	4748.05
751	4823.03
751.188	4735.46
751.377	4780.99
751.565	4693.22
751.754	4680.82
751.942	4684.89
752.131	4771.3
752.319	4674.43
752.507	4621.73
752.696	4698.26
752.884	4692.44
753.072	4645.36
753.261	4662.22
753.449	4671.91
753.637	4562.83
753.825	4704.65
754.014	4646.91
754.202	4614.75
754.39	4682.37
754.578	4684.69
754.766	4600.03
754.955	4548.49
755.143	4656.99
755.331	4561.67
755.519	4607.78
755.707	4545.78
755.895	4530.67
756.083	4587.24
756.271	4498.7
756.459	4527.37
756.647	4543.84
756.835	4488.62
757.023	4459.56
757.211	4519.43
757.399	4470.99
757.587	4458.2
757.775	4345.06
757.963	4385.55
758.151	4396.79
758.339	4346.61
758.526	4351.06
758.714	4361.91
758.902	4226.48
759.09	4113.14
759.278	3851.19
759.465	3552.63
759.653	3127.94
759.841	2823.75
760.028	2411.07
760.216	2131.3
760.404	1984.25
760.591	1593.26
760.779	1372.59
760.967	1228.83
761.154	1030.43
761.342	1049.42
761.529	1075.96
761.717	1158.11
761.905	1126.14
762.092	1210.42
762.28	1140.67
762.467	1146.29
762.655	1046.32
762.842	1111.03
763.029	1114.51
763.217	1130.4
763.404	1126.91
763.592	1166.05
763.779	1129.43
763.966	1187.94
764.154	1223.4
764.341	1322.6
764.528	1309.62
764.716	1398.35
764.903	1461.71
765.09	1541.34
765.277	1595.59
765.465	1782.56
765.652	1883.89
765.839	1965.65
766.026	2136.34
766.213	2191.75
766.4	2318.85
766.588	2507.94
766.775	2523.64
766.962	2693.36
767.149	2755.94
767.336	2944.65
767.523	2955.5
767.71	3117.09
767.897	3231.2
768.084	3355.59
768.271	3331.37
768.458	3419.91
768.645	3497.22
768.832	3516.79
769.019	3541.39
769.206	3575.88
769.392	3647.95
769.579	3764.2
769.766	3702.2
769.953	3675.47
770.14	3772.73
770.327	3738.43
770.513	3836.86
770.7	3857.59
770.887	3772.15
771.073	3764.78
771.26	3850.61
771.447	3805.47
771.634	3790.36
771.82	3921.52
772.007	3812.44
772.193	3848.48
772.38	3858.75
772.567	3813.8
772.753	3803.92
772.94	3863.21
773.126	3823.68
773.313	3875.03
773.499	3861.27
773.686	3893.24
773.872	3770.4
774.059	3871.93
774.245	3756.45
774.432	3798.5
774.618	3660.16
774.804	3789.78
774.991	3728.55
775.177	3780.48
775.363	3749.48
775.55	3793.65
775.736	3694.45
775.922	3745.21
776.109	3743.28
776.295	3742.5
776.481	3732.81
776.667	3761.3
776.853	3758.78
777.04	3672.56
777.226	3731.85
777.412	3762.07
777.598	3681.28
777.784	3646.98
777.97	3640.2
778.156	3696.2
778.342	3681.67
778.528	3673.33
778.715	3593.12
778.901	3610.75
779.087	3657.45
779.272	3569.49
779.458	3578.2
779.644	3621.6
779.83	3580.92
780.016	3645.24
780.202	3596.42
780.388	3579.37
780.574	3475.13
780.76	3534.61
780.946	3590.6
781.131	3543.91
781.317	3515.82
781.503	3517.17
781.689	3507.87
781.874	3644.08
782.06	3475.71
782.246	3543.52
782.432	3500.9
782.617	3494.31
782.803	3541.78
782.989	3434.06
783.174	3461.57
783.36	3391.04
783.545	3440.26
783.731	3394.73
783.916	3352.49
784.102	3416.23
784.288	3403.44
784.473	3386.78
784.659	3335.63
784.844	3366.83
785.029	3337.96
785.215	3394.73
785.4	3287.39
785.586	3436.58
785.771	3297.27
785.956	3344.55
786.142	3255.03
786.327	3355.01
786.512	3250.97
786.698	3237.6
786.883	3226.55
787.068	3272.28
787.254	3225.78
787.439	3231.01
787.624	3208.15
787.809	3183.15
787.994	3185.48
788.18	3252.71
788.365	3140.14
788.55	3167.65
788.735	3148.09
788.92	3133.55
789.105	3108.95
789.29	3132.78
789.475	3102.36
789.66	3070.01
789.845	3036.29
790.03	3066.13
790.215	3092.09
790.4	3123.29
790.585	3094.81
790.77	3078.34
790.955	3000.26
791.14	3039.97
791.325	3121.93
791.51	2925.47
791.695	3043.27
791.879	3010.14
792.064	2959.96
792.249	3089.19
792.434	3022.92
792.618	3031.84
792.803	3081.05
792.988	2991.54
793.173	3040.94
793.357	3067.68
793.542	2983.59
793.727	3015.76
793.911	3057.8
794.096	3006.84
794.281	3079.5
794.465	3092.48
794.65	3064.39
794.834	3081.63
795.019	3092.09
795.203	3139.75
795.388	3111.47
795.572	3112.05
795.757	3088.61
795.941	3079.31
796.126	3074.85
796.31	3006.84
796.494	3062.45
796.679	3033.97
796.863	2980.69
797.048	3127.55
797.232	3076.21
797.416	3102.56
797.601	3058.38
797.785	3120.57
797.969	3122.7
798.153	3068.65
798.338	3111.08
798.522	3113.02
798.706	3130.07
798.89	3129.68
799.074	3235.66
799.258	3157.19
799.443	3134.91
799.627	3091.32
799.811	3144.21
799.995	3078.72
800.179	3044.24
800.363	3105.85
800.547	3094.42
800.731	3157.19
800.915	3024.28
801.099	3033.77
801.283	3084.15
801.467	3068.46
801.651	3026.99
801.835	3147.5
802.019	3057.02
802.202	3060.32
802.386	3007.23
802.57	3049.66
802.754	3027.38
802.938	3038.04
803.121	3057.22
803.305	3109.34
803.489	3066.91
803.673	3087.44
803.856	3099.84
804.04	3037.65
804.224	3088.22
804.407	3022.92
804.591	3014.98
804.775	3013.04
804.958	3041.72
805.142	3144.79
805.326	3076.98
805.509	3047.72
805.693	3097.91
805.876	3133.55
806.06	3092.48
806.243	3077.56
806.427	3142.27
806.61	3151.96
806.794	3102.36
806.977	3135.49
807.16	3093.64
807.344	3078.53
807.527	3092.48
807.71	3080.27
807.894	3059.93
808.077	3109.92
808.26	3007.81
808.444	3008.78
808.627	3065.36
808.81	2976.81
808.993	2958.41
809.177	2923.73
809.36	2970.61
809.543	2977.78
809.726	2894.28
809.909	2914.04
810.092	2874.32
810.276	2850.3
810.459	2846.42
810.642	2892.15
810.825	2822.59
811.008	2832.08
811.191	2768.53
811.374	2744.51
811.557	2759.43
811.74	2814.65
811.923	2710.22
812.106	2695.1
812.289	2667.59
812.472	2647.06
812.654	2637.37
812.837	2616.06
813.02	2568.78
813.203	2510.85
813.386	2429.67
813.569	2409.52
813.751	2358.76
813.934	2409.52
814.117	2330.47
814.3	2288.04
814.482	2252
814.665	2221.59
814.848	2171.41
815.03	2130.14
815.213	2102.24
815.396	2113.67
815.578	2086.93
815.761	2022.8
815.943	2091.58
816.126	1978.63
816.309	1948.98
816.491	1896.48
816.674	1861.22
816.856	1900.35
817.039	1886.02
817.221	1984.25
817.403	1881.37
817.586	1919.34
817.768	1886.6
817.951	1831.38
818.133	1862.77
818.315	1878.07
818.498	1910.62
818.68	1934.45
818.862	1949.18
819.045	1994.32
819.227	1986.76
819.409	1923.99
819.591	1965.26
819.774	1905.78
819.956	1888.34
820.138	1982.31
820.32	1974.17
820.502	2032.3
820.684	2144.09
820.866	2093.91
821.048	2147.96
821.231	2182.26
821.413	2185.16
821.595	2169.66
821.777	2144.48
821.959	2183.22
822.141	2218.1
822.323	2052.25
822.505	2004.4
822.686	1927.09
822.868	1834.29
823.05	1763.18
823.232	1745.74
823.414	1638.41
823.596	1709.32
823.778	1691.49
823.96	1748.46
824.141	1746.13
824.323	1811.04
824.505	1862.19
824.687	1929.61
824.868	1970.1
825.05	2084.61
825.232	2084.22
825.413	2157.46
825.595	2150.67
825.777	2047.41
825.958	2107.28
826.14	2089.45
826.321	2141.38
826.503	2085.38
826.685	2099.91
826.866	2135.37
827.048	2128.01
827.229	2038.3
827.411	1990.83
827.592	1982.89
827.773	1965.84
827.955	1929.42
828.136	1934.07
828.318	1878.85
828.499	1936.97
828.68	1880.4
828.862	1915.66
829.043	1932.9
829.224	1904.62
829.406	1852.5
829.587	1865.29
829.768	1852.3
829.949	1880.4
830.131	1895.7
830.312	1964.87
830.493	1881.95
830.674	1871.68
830.855	1878.46
831.036	1896.87
831.218	1934.07
831.399	1942.59
831.58	1883.89
831.761	1890.67
831.942	1936.97
832.123	1879.82
832.304	1843.59
832.485	1882.34
832.666	1869.55
832.847	1909.27
833.028	1849.79
833.209	1909.46
833.389	1862.38
833.57	1785.07
833.751	1836.8
833.932	1937.17
834.113	1874.59
834.294	1821.5
834.475	1919.73
834.655	1928.64
834.836	1953.44
835.017	1920.31
835.198	1854.63
835.378	1947.82
835.559	1936.97
835.74	1861.6
835.92	1909.07
836.101	1924.57
836.281	1943.56
836.462	1934.45
836.643	1976.88
836.823	1976.11
837.004	1968.55
837.184	2010.01
837.365	1986.76
837.545	1994.9
837.726	1935.81
837.906	2014.28
838.087	1970.49
838.267	1952.08
838.448	1933.68
838.628	1904.42
838.808	1959.45
838.989	1983.86
839.169	1901.52
839.349	1983.08
839.53	1996.84
839.71	1987.93
839.89	1953.83
840.07	1968.55
840.251	1930.38
840.431	1993.93
840.611	1954.99
840.791	1916.63
840.971	1937.17
841.151	1943.95
841.332	1901.32
841.512	1999.94
841.692	1896.28
841.872	1961.19
842.052	1925.54
842.232	1923.99
842.412	1878.27
842.592	1897.83
842.772	1919.73
842.952	1932.71
843.132	1885.05
843.312	1864.32
843.492	1851.72
843.672	1910.43
843.851	1865.29
844.031	1841.45
844.211	1883.5
844.391	1869.16
844.571	1895.32
844.751	1888.53
844.93	1887.37
845.11	1834.67
845.29	1864.9
845.47	1895.7
845.649	1875.94
845.829	1876.91
846.009	1829.83
846.188	1883.5
846.368	1896.09
846.547	1872.26
846.727	1897.25
846.907	1840.1
847.086	1873.62
847.266	1900.74
847.445	1832.15
847.625	1833.9
847.804	1835.06
847.984	1855.6
848.163	1776.55
848.343	1817.43
848.522	1818.2
848.701	1838.35
848.881	1780.62
849.06	1826.54
849.239	1807.74
849.419	1836.22
849.598	1754.85
849.777	1732.57
849.957	1692.27
850.136	1627.75
850.315	1650.61
850.494	1656.04
850.674	1690.91
850.853	1739.35
851.032	1684.71
851.211	1756.98
851.39	1699.44
851.569	1669.21
851.748	1668.05
851.927	1702.93
852.107	1667.86
852.286	1664.56
852.465	1650.61
852.644	1737.02
852.823	1693.04
853.002	1700.99
853.181	1680.64
853.359	1682
853.538	1609.73
853.717	1708.16
853.896	1563.81
854.075	1492.71
854.254	1492.13
854.433	1413.08
854.611	1481.08
854.79	1364.06
854.969	1503.56
855.148	1511.5
855.327	1442.72
855.505	1485.73
855.684	1496.78
855.863	1554.32
856.041	1450.28
856.22	1577.18
856.399	1511.7
856.577	1602.56
856.756	1575.83
856.934	1720.94
857.113	1670.76
857.291	1633.18
857.47	1587.84
857.648	1623.3
857.827	1632.21
858.005	1642.67
858.184	1583.58
858.362	1662.04
858.541	1608.57
858.719	1585.13
858.898	1570.4
859.076	1577.76
859.254	1670.96
859.433	1587.26
859.611	1572.53
859.789	1524.48
859.967	1619.23
860.146	1635.89
860.324	1522.55
860.502	1554.71
860.68	1539.01
860.859	1532.23
861.037	1553.16
861.215	1555.1
861.393	1530.1
861.571	1546.76
861.749	1514.22
861.927	1575.44
862.105	1562.26
862.283	1562.46
862.461	1507.82
862.639	1515.96
862.817	1489.03
862.995	1483.22
863.173	1497.55
863.351	1516.15
863.529	1512.67
863.707	1545.8
863.885	1542.89
864.063	1430.13
864.241	1483.41
864.418	1534.37
864.596	1445.82
864.774	1403.97
864.952	1449.7
865.129	1488.25
865.307	1420.83
865.485	1407.27
865.663	1484.77
865.84	1368.32
866.018	1411.34
866.196	1281.72
866.373	1279.01
866.551	1237.16
866.728	1191.82
866.906	1259.24
867.084	1301.87
867.261	1324.54
867.439	1317.56
867.616	1387.5
867.794	1377.62
867.971	1361.35
868.149	1348.17
868.326	1403.2
868.503	1367.74
868.681	1364.84
868.858	1385.57
869.035	1308.84
869.213	1376.65
869.39	1355.34
869.567	1429.16
869.745	1328.99
869.922	1385.18
870.099	1379.56
870.276	1382.47
870.454	1390.22
870.631	1372.97
870.808	1329.96
870.985	1383.82
871.162	1427.8
871.339	1363.09
871.517	1313.3
871.694	1331.12
871.871	1329.19
872.048	1346.04
872.225	1307.87
872.402	1333.26
872.579	1324.92
872.756	1342.56
872.933	1270.68
873.11	1329.38
873.287	1314.46
873.463	1293.34
873.64	1310.97
873.817	1328.8
873.994	1300.12
874.171	1245.88
874.348	1314.46
874.524	1241.23
874.701	1277.84
874.878	1220.88
875.055	1250.72
875.231	1231.34
875.408	1260.99
875.585	1170.9
875.762	1262.73
875.938	1234.06
876.115	1262.54
876.291	1239.87
876.468	1253.04
876.645	1193.76
876.821	1200.34
876.998	1230.96
877.174	1256.92
877.351	1224.37
877.527	1178.26
877.704	1216.43
877.88	1201.51
878.057	1169.54
878.233	1252.46
878.409	1163.73
878.586	1251.11
878.762	1177.48
878.938	1183.68
879.115	1070.73
879.291	1175.16
879.467	1146.68
879.644	1161.4
879.82	1187.94
879.996	1157.33
880.172	1142.41
880.349	1150.55
880.525	1161.98
880.701	1131.56
880.877	1133.11
881.053	1140.09
881.229	1152.1
881.405	1197.05
881.581	1108.9
881.757	1152.1
881.933	1134.86
882.109	1182.71
882.285	1143
882.461	1077.9
882.637	1155.4
882.813	1083.32
882.989	1163.53
883.165	1186.98
883.341	1091.46
883.517	1170.31
883.693	1187.36
883.869	1156.56
884.044	1107.93
884.22	1122.85
884.396	1180.39
884.572	1145.13
884.747	1168.38
884.923	1142.61
885.099	1173.03
885.275	1166.44
885.45	1130.6
885.626	1133.89
885.801	1091.07
885.977	1127.5
886.153	1056.97
886.328	1136.21
886.504	1108.12
886.679	1141.64
886.855	1118
887.03	1097.27
887.206	1179.23
887.381	1119.75
887.557	1149.78
887.732	1128.85
887.908	1126.53
888.083	1187.56
888.258	1115.87
888.434	1122.26
888.609	1125.56
888.784	1166.63
888.96	1147.06
889.135	1103.28
889.31	1084.68
889.485	1100.56
889.661	1117.03
889.836	1200.15
890.011	1149.97
890.186	1123.62
890.361	1100.95
890.537	1117.42
890.712	1153.65
890.887	1117.23
891.062	1124.98
891.237	1175.55
891.412	1096.88
891.587	1105.21
891.762	1144.93
891.937	1198.02
892.112	1071.7
892.287	1107.93
892.462	1073.05
892.637	1030.82
892.812	1030.43
892.987	1033.72
893.161	1041.08
893.336	1056
893.511	1029.85
893.686	1026.94
893.861	1037.6
894.035	1019.19
894.21	1010.67
894.385	990.13
894.56	1005.82
894.734	956.03
894.909	939.17
895.084	924.84
895.258	925.22
895.433	932
895.608	902.17
895.782	864.58
895.957	863.61
896.131	875.24
896.306	809.36
896.48	787.66
896.655	810.33
896.829	744.65
897.004	757.83
897.178	783.98
897.353	754.92
897.527	778.75
897.701	777.2
897.876	736.13
898.05	804.52
898.224	781.08
898.399	788.83
898.573	757.63
898.747	626.08
898.921	733.22
899.096	616.78
899.27	629.18
899.444	655.92
899.618	673.74
899.792	694.66
899.967	656.3
900.141	724.5
900.315	641.38
900.489	652.04
900.663	652.23
900.837	644.87
901.011	632.47
901.185	737.29
901.359	670.83
901.533	676.84
901.707	687.69
901.881	690.79
902.055	623.56
902.229	664.25
902.403	713.46
902.576	707.65
902.75	669.09
902.924	791.93
903.098	746.78
903.272	769.84
903.446	823.89
903.619	789.41
903.793	808.01
903.967	807.23
904.14	849.66
904.314	850.24
904.488	821.38
904.661	866.91
904.835	817.5
905.009	864.39
905.182	897.13
905.356	870.59
905.529	829.71
905.703	805.49
905.876	800.06
906.05	750.85
906.223	789.99
906.397	708.03
906.57	683.43
906.744	655.53
906.917	665.41
907.09	683.62
907.264	659.02
907.437	633.25
907.61	602.44
907.784	613.87
907.957	638.09
908.13	582.48
908.304	639.25
908.477	582.68
908.65	608.64
908.823	578.61
908.996	656.88
909.17	580.55
909.343	575.32
909.516	607.87
909.689	575.51
909.862	556.33
910.035	603.02
910.208	532.69
910.381	559.24
910.554	645.65
910.727	568.54
910.9	583.84
911.073	573.57
911.246	646.81
911.419	623.37
911.592	624.92
911.765	548.97
911.938	563.3
912.11	574.15
912.283	619.3
912.456	602.83
912.629	578.03
912.802	546.25
912.974	501.69
913.147	471.86
913.32	435.43
913.493	453.45
913.665	519.71
913.838	542.38
914.01	504.02
914.183	502.47
914.356	493.75
914.528	573.38
914.701	576.48
914.873	557.69
915.046	504.6
915.218	468.56
915.391	410.63
915.563	444.34
915.736	485.22
915.908	525.52
916.081	524.17
916.253	516.22
916.425	486.77
916.598	558.27
916.77	520.1
916.942	472.44
917.115	418.57
917.287	495.1
917.459	445.12
917.632	434.85
917.804	369.94
917.976	481.54
918.148	481.54
918.32	477.86
918.493	528.62
918.665	583.65
918.837	511.77
919.009	572.99
919.181	557.1
919.353	514.48
919.525	510.02
919.697	514.87
919.869	511.57
920.041	583.26
920.213	644.48
920.385	593.33
920.557	528.62
920.729	570.47
920.901	564.47
921.073	565.24
921.244	524.17
921.416	581.32
921.588	506.15
921.76	497.24
921.932	582.29
922.103	530.75
922.275	538.5
922.447	550.52
922.619	464.11
922.79	518.35
922.962	502.47
923.134	528.24
923.305	471.08
923.477	456.55
923.648	438.14
923.82	479.02
923.991	435.82
924.163	426.71
924.335	467.01
924.506	442.21
924.677	538.5
924.849	430.39
925.02	466.04
925.192	461.01
925.363	499.37
925.535	473.02
925.706	427.29
925.877	524.17
926.049	461.01
926.22	464.69
926.391	491.81
926.562	509.64
926.734	436.01
926.905	482.32
927.076	393
927.247	436.59
927.419	385.06
927.59	399.01
927.761	403.66
927.932	352.89
928.103	382.15
928.274	331.19
928.445	331.19
928.616	335.46
928.787	344.76
928.958	363.55
929.129	337.59
929.3	322.86
929.471	296.51
929.642	232.58
929.813	209.72
929.984	302.13
930.155	201
930.326	276.17
930.496	226.76
930.667	188.21
930.838	225.99
931.009	148.68
931.18	192.28
931.35	184.72
931.521	204.29
931.692	135.32
931.863	101.41
932.033	153.53
932.204	126.79
932.374	160.7
932.545	101.99
932.716	159.92
932.886	140.93
933.057	74.29
933.227	120.98
933.398	166.32
933.568	67.89
933.739	46.77
933.909	59.17
934.08	123.89
934.25	30.11
934.421	52
934.591	79.32
934.761	69.25
934.932	18.87
935.102	71.57
935.272	50.26
935.443	81.07
935.613	46.58
935.783	70.22
935.953	31.08
936.123	194.22
936.294	41.16
936.464	49.87
936.634	69.83
936.804	33.6
936.974	32.44
937.144	45.61
937.314	67.31
937.484	52.2
937.655	9.57
937.825	107.22
937.995	31.47
938.165	103.35
938.334	37.28
938.504	95.4
938.674	62.66
938.844	91.53
939.014	139.58
939.184	146.36
939.354	151.4
939.524	144.42
939.694	116.33
939.863	109.74
940.033	173.29
940.203	174.65
940.373	132.6
940.542	149.07
940.712	86.49
940.882	146.75
941.051	132.22
941.221	139.19
941.391	182.98
941.56	106.64
941.73	95.99
941.899	228.31
942.069	106.06
942.238	129.12
942.408	112.45
942.577	161.67
942.747	109.35
942.916	46.19
943.086	80.49
943.255	164.18
943.425	76.22
943.594	76.22
943.763	24.69
943.933	49.49
944.102	23.33
944.271	77.77
944.441	101.8
944.61	80.1
944.779	114.2
944.948	188.79
945.117	29.72
945.287	57.82
945.456	29.34
945.625	62.08
945.794	105.29
945.963	39.8
946.132	108.58
946.301	35.15
946.47	129.12
946.639	46.58
946.808	73.9
946.977	115.36
947.146	131.25
947.315	91.53
947.484	98.12
947.653	85.72
947.822	54.91
947.991	46.97
948.16	158.57
948.329	128.54
948.498	93.47
948.666	81.65
948.835	113.23
949.004	40.19
949.173	41.74
949.341	105.67
949.51	85.52
949.679	149.65
949.847	117.88
950.016	150.82
950.185	137.06
950.353	48.52
950.522	99.28
950.69	135.9
950.859	62.27
951.028	149.07
951.196	115.36
951.365	75.06
951.533	88.24
951.701	121.37
951.87	117.49
952.038	56.27
952.207	69.44
952.375	157.21
952.543	90.95
952.712	74.67
952.88	72.93
953.048	132.02
953.217	99.67
953.385	67.31
953.553	154.5
953.721	50.65
953.89	78.55
954.058	27.59
954.226	70.6
954.394	101.22
954.562	36.7
954.73	64.99
954.898	88.04
955.067	127.18
955.235	67.89
955.403	107.61
955.571	121.17
955.739	94.44
955.907	63.24
956.075	78.16
956.243	58.4
956.41	109.55
956.578	38.25
956.746	34.96
956.914	83.2
957.082	128.15
957.25	109.35
957.418	63.44
957.585	103.15
957.753	139.77
957.921	54.52
958.089	88.24
958.256	103.74
958.424	114.59
958.592	127.95
958.759	90.56
958.927	120.79
959.095	89.01
959.262	92.5
959.43	82.42
959.597	67.31
959.765	76.42
959.932	49.68
960.1	133.19
960.267	99.28
960.435	101.41
960.602	109.74
960.77	90.37
960.937	46.58
961.104	110.13
961.272	60.72
961.439	74.67
961.606	119.04
961.774	126.99
961.941	89.2
962.108	108.19
962.275	115.75
962.443	128.34
962.61	111.29
962.777	154.88
962.944	96.57
963.111	120.98
963.278	97.73
963.446	94.44
963.613	99.86
963.78	122.53
963.947	116.33
964.114	133.96
964.281	163.02
964.448	108.19
964.615	80.87
964.782	102.38
964.949	111.1
965.116	127.76
965.282	136.48
965.449	99.28
965.616	45.22
965.783	146.94
965.95	116.33
966.117	75.64
966.283	112.07
966.45	105.87
966.617	126.4
966.784	182.59
966.95	166.12
967.117	152.56
967.284	110.71
967.45	114.78
967.617	186.27
967.784	174.07
967.95	203.71
968.117	151.59
968.283	162.05
968.45	234.32
968.616	139.38
968.783	153.14
968.949	146.55
969.116	159.53
969.282	131.83
969.449	116.33
969.615	131.05
969.781	76.61
969.948	115.94
970.114	81.45
970.28	199.64
970.447	135.7
970.613	182.78
970.779	139.77
970.945	170
971.112	113.42
971.278	151.2
971.444	152.56
971.61	148.3
971.776	101.8
971.942	157.02
972.108	161.28
972.275	123.89
972.441	128.34
972.607	207.2
972.773	100.83
972.939	151.59
973.105	119.43
973.271	101.02
973.437	111.49
973.602	93.47
973.768	145.78
973.934	105.67
974.1	148.1
974.266	55.3
974.432	113.42
974.598	101.41
974.763	137.64
974.929	111.87
975.095	170.19
975.261	102.77
975.426	80.87
975.592	107.22
975.758	190.92
975.923	81.07
976.089	91.53
976.255	153.33
976.42	120.4
976.586	131.83
976.751	140.55
976.917	200.61
977.082	131.64
977.248	91.92
977.413	62.66
977.579	89.2
977.744	118.27
977.91	85.52
978.075	78.35
978.24	161.86
978.406	120.4
978.571	91.92
978.736	68.47
978.902	137.64
979.067	86.49
979.232	70.8
979.397	121.17
979.563	163.41
979.728	66.92
979.893	100.83
980.058	72.35
980.223	151.98
980.388	111.29
980.554	110.13
980.719	89.4
980.884	113.81
981.049	178.72
981.214	77.77
981.379	131.44
981.544	87.65
981.709	100.05
981.874	99.09
982.039	120.2
982.204	127.57
982.368	115.17
982.533	94.05
982.698	135.7
982.863	136.48
983.028	111.1
983.193	130.86
983.357	127.18
983.522	126.21
983.687	100.83
983.852	133.57
984.016	100.05
984.181	110.71
984.346	101.02
984.51	135.12
984.675	115.55
984.839	120.98
985.004	87.46
985.168	141.9
985.333	133.19
985.498	96.37
985.662	131.44
985.827	132.6
985.991	104.12
986.155	98.7
986.32	125.24
986.484	195.38
986.649	126.02
986.813	69.25
986.977	116.72
987.142	139.97
987.306	75.84
987.47	77.77
987.634	116.14
987.799	108.39
987.963	103.93
988.127	137.84
988.291	194.41
988.455	108.77
988.62	96.57
988.784	118.27
988.948	145.58
989.112	63.63
989.276	119.82
989.44	125.44
989.604	69.05
989.768	80.1
989.932	169.8
990.096	63.44
990.26	68.47
990.424	74.29
990.588	75.64
990.752	165.93
990.915	146.55
991.079	88.62
991.243	59.17
991.407	109.74
991.571	90.17
991.734	127.18
991.898	119.82
992.062	190.53
992.226	120.01
992.389	70.02
992.553	36.51
992.717	90.37
992.88	44.26
993.044	93.08
993.207	56.65
993.371	128.92
993.535	118.07
993.698	82.04
993.862	125.24
994.025	131.25
994.189	102.96
994.352	116.52
994.515	135.12
994.679	149.85
994.842	108.77
995.006	130.28
995.169	54.33
995.332	75.84
995.496	116.72
995.659	28.76
995.822	99.47
995.985	75.84
996.149	146.75
996.312	93.66
996.475	155.27
996.638	52.78
996.801	122.53
996.964	163.8
997.128	73.12
997.291	95.6
997.454	91.34
997.617	40.38
997.78	120.59
997.943	78.55
998.106	120.59
998.269	71.38
998.432	86.88
998.595	83.97
998.758	37.09
998.92	42.71
999.083	13.64
999.246	85.33
999.409	51.23
999.572	25.07
999.735	57.62
999.897	113.23
1000.06	57.43
1000.223	73.51
1000.386	105.29
1000.548	75.64
1000.711	83.2
1000.874	85.52
1001.036	21.39
1001.199	93.27
1001.361	51.81
1001.524	84.17
1001.687	94.24
1001.849	65.95
1002.012	69.25
1002.174	73.12
1002.337	94.05
1002.499	79.13
1002.661	107.22
1002.824	41.74
1002.986	51.62
1003.149	87.85
1003.311	16.94
1003.473	110.52
1003.636	59.17
1003.798	84.94
1003.96	71.96
1004.123	87.65
1004.285	43.87
1004.447	72.54
1004.609	84.17
1004.771	127.57
1004.933	5.89
1005.096	41.54
1005.258	28.95
1005.42	49.87
1005.582	112.65
1005.744	64.99
1005.906	10.35
1006.068	69.64
1006.23	26.04
1006.392	8.61
1006.554	9.38
1006.716	91.14
1006.878	65.57
1007.04	26.82
1007.202	36.51
1007.363	61.89
1007.525	49.87
1007.687	86.69
1007.849	100.83
1008.011	-8.64
1008.172	31.08
1008.334	57.43
1008.496	66.73
1008.658	-11.16
1008.819	20.42
1008.981	0.27
1009.143	46
1009.304	46.19
1009.466	68.28
1009.627	97.73
1009.789	137.06
1009.95	59.95
1010.112	18.49
1010.273	79.13
1010.435	16.74
1010.596	52
1010.758	24.11
1010.919	49.49
1011.081	34.37
1011.242	54.14
1011.403	73.12
1011.565	65.95
1011.726	56.85
1011.887	21.39
1012.049	23.14
1012.21	87.65
1012.371	106.45
1012.532	-24.14
1012.693	44.84
1012.855	20.04
1013.016	57.62
1013.177	95.21
1013.338	23.14
1013.499	83.2
1013.66	63.44
1013.821	61.5
1013.982	67.31
1014.143	49.49
1014.304	33.79
1014.465	33.21
1014.626	73.51
1014.787	12.67
1014.948	120.98
1015.109	-23.75
1015.27	91.53
1015.431	27.4
1015.592	21.97
1015.752	83.2
1015.913	51.81
1016.074	53.55
1016.235	32.05
1016.395	47.74
1016.556	32.24
1016.717	52.39
1016.877	87.65
1017.038	7.06
1017.199	28.37
1017.359	46.58
1017.52	43.48
1017.681	53.94
1017.841	33.99
1018.002	37.28
1018.162	14.81
1018.323	106.84
1018.483	25.85
1018.644	13.64
1018.804	4.15
1018.964	-9.8
1019.125	20.23
1019.285	52.59
1019.446	4.34
1019.606	-6.7
1019.766	15.19
1019.926	64.6
1020.087	36.12
1020.247	-23.36
1020.407	44.26
1020.567	66.73
1020.728	7.06
1020.888	7.83
1021.048	20.23
1021.208	28.37
1021.368	18.87
1021.528	63.24
1021.688	86.49
1021.848	38.83
1022.008	53.75
1022.168	30.31
1022.328	41.93
1022.488	41.54
1022.648	-0.69
1022.808	54.33
1022.968	59.17
1023.128	11.51
1023.288	2.99
1023.448	69.25
1023.608	45.22
1023.767	60.34
1023.927	0.66
1024.087	-15.81
1024.247	-25.3
1024.406	25.27
1024.566	11.32
1024.726	-4.96
1024.885	40.96
1025.045	46.19
1025.205	39.61
1025.364	30.5
1025.524	10.74
1025.683	-6.89
1025.843	54.72
1026.003	20.04
1026.162	55.88
1026.321	67.5
1026.481	22.75
1026.64	19.65
1026.8	27.79
1026.959	12.09
1027.119	40.38
1027.278	3.18
1027.437	1.63
1027.597	41.35
1027.756	29.14
1027.915	17.71
1028.074	43.48
1028.234	11.9
1028.393	28.56
1028.552	21.78
1028.711	-34.79
1028.87	35.73
1029.03	-13.29
1029.189	13.64
1029.348	-50.1
1029.507	3.18
1029.666	-5.34
1029.825	-18.13
1029.984	10.16
1030.143	21.2
1030.302	11.51
1030.461	-23.36
1030.62	32.44
1030.779	54.52
1030.938	-27.82
1031.097	-23.36
1031.255	19.46
1031.414	74.67
1031.573	40.96
1031.732	-25.3
1031.891	0.47
1032.049	48.13
1032.208	20.81
1032.367	2.21
1032.525	6.09
1032.684	9.38
1032.843	27.01
1033.001	-37.7
1033.16	158.57
1033.319	32.82
1033.477	42.71
1033.636	4.15
1033.794	-16.78
1033.953	44.06
1034.111	28.76
1034.27	-24.72
1034.428	24.69
1034.587	-15.81
1034.745	40.57
1034.903	39.8
1035.062	22.56
1035.22	-20.65
1035.378	42.12
1035.537	-30.34
1035.695	38.06
1035.853	35.54
1036.011	49.87
1036.17	14.22
1036.328	-50.68
1036.486	31.47
1036.644	35.73
1036.802	-60.76
1036.96	-13.29
1037.119	6.47
1037.277	18.68
1037.435	-12.13
1037.593	1.44
1037.751	-7.86
1037.909	39.99
1038.067	39.99
