Data from calibration2_FLMT105791__1__17-17-43-084.txt Node

Date: Mon Mar 20 17:17:43 GMT 2023
User: antho
Spectrometer: FLMT10579
Trigger mode: 0
Integration Time (sec): 1.000000E-1
Scans to average: 10
Electric dark correction enabled: true
Nonlinearity correction enabled: false
Boxcar width: 0
XAxis mode: Wavelengths
Number of Pixels in Spectrum: 3648
>>>>>Begin Spectral Data<<<<<
345.248	-160.1
345.464	-160.1
345.681	-160.1
345.898	-168.24
346.114	-182.38
346.331	-42.11
346.548	47.79
346.764	-18.47
346.981	-6.65
347.197	-20.8
347.414	8.07
347.631	-35.33
347.847	60.19
348.064	25.51
348.28	18.34
348.497	-34.94
348.713	-1.61
348.93	21.83
349.146	100.88
349.363	72.59
349.579	101.85
349.796	78.79
350.012	93.32
350.229	117.15
350.445	114.05
350.661	97.39
350.878	121.03
351.094	119.28
351.311	125.1
351.527	110.18
351.743	101.07
351.96	135.75
352.176	157.26
352.392	160.16
352.609	124.13
352.825	106.69
353.041	112.7
353.257	118.12
353.474	123.74
353.69	124.9
353.906	129.36
354.122	117.35
354.339	189.03
354.555	137.69
354.771	135.56
354.987	180.12
355.203	232.24
355.42	148.73
355.636	117.15
355.852	116.18
356.068	156.48
356.284	106.69
356.5	182.25
356.716	134.01
356.932	133.62
357.148	157.65
357.364	139.24
357.58	192.52
357.796	185.93
358.012	175.47
358.228	139.63
358.444	95.65
358.66	168.3
358.876	159.97
359.092	108.43
359.308	177.8
359.524	188.45
359.74	188.45
359.956	186.13
360.172	180.7
360.388	197.17
360.604	185.93
360.819	255.49
361.035	191.16
361.251	198.33
361.467	171.79
361.683	223.91
361.898	184.77
362.114	220.81
362.33	201.24
362.546	252.39
362.762	220.42
362.977	236.69
363.193	199.69
363.409	270.02
363.624	216.54
363.84	216.35
364.056	208.02
364.271	243.28
364.487	282.03
364.703	232.43
364.918	207.44
365.134	242.89
365.35	249.48
365.565	351.59
365.781	292.88
365.996	320.97
366.212	366.7
366.427	316.13
366.643	310.9
366.858	319.62
367.074	292.11
367.289	382
367.505	410.1
367.72	295.21
367.936	307.02
368.151	341.12
368.367	331.44
368.582	352.36
368.798	291.14
369.013	376.39
369.228	343.26
369.444	338.02
369.659	373.87
369.874	386.07
370.09	394.99
370.305	311.29
370.52	350.81
370.736	385.88
370.951	348.1
371.166	380.65
371.381	400.41
371.597	371.16
371.812	320.59
372.027	321.94
372.242	376.19
372.458	412.81
372.673	305.67
372.888	308.96
373.103	353.33
373.318	417.07
373.533	326.79
373.749	322.91
373.964	272.73
374.179	346.55
374.394	257.23
374.609	375.03
374.824	282.61
375.039	324.27
375.254	288.43
375.469	392.47
375.684	371.74
375.899	423.27
376.114	406.03
376.329	384.72
376.544	391.89
376.759	418.43
376.974	366.7
377.189	370.57
377.404	400.41
377.619	448.65
377.834	404.48
378.049	419.98
378.264	462.02
378.478	507.17
378.693	451.75
378.908	541.07
379.123	450.59
379.338	518.98
379.553	427.54
379.767	436.45
379.982	455.24
380.197	444.39
380.412	430.44
380.626	482.95
380.841	544.95
381.056	524.99
381.271	578.27
381.485	505.42
381.7	457.57
381.915	481.4
382.129	435.48
382.344	426.57
382.559	386.27
382.773	416.49
382.988	317.68
383.202	376.77
383.417	338.8
383.632	447.69
383.846	340.35
384.061	376.58
384.275	367.86
384.49	438.97
384.704	470.74
384.919	476.17
385.133	503.29
385.348	588.54
385.562	497.48
385.777	554.25
385.991	509.68
386.206	472.48
386.42	506.97
386.634	558.51
386.849	531.97
387.063	562.38
387.277	503.29
387.492	524.41
387.706	490.7
387.92	513.37
388.135	579.63
388.349	575.36
388.563	551.53
388.778	562.96
388.992	552.31
389.206	594.74
389.42	653.06
389.635	624.19
389.849	711.18
390.063	721.26
390.277	734.43
390.491	774.54
390.706	731.52
390.92	754.39
391.134	720.87
391.348	824.72
391.562	735.01
391.776	820.07
391.99	790.04
392.205	831.5
392.419	738.69
392.633	749.93
392.847	695.88
393.061	611.79
393.275	615.28
393.489	468.61
393.703	452.92
393.917	459.89
394.131	443.62
394.345	541.27
394.559	644.34
394.773	673.98
394.986	764.46
395.2	802.05
395.414	899.31
395.628	912.48
395.842	946.58
396.056	920.23
396.27	825.1
396.484	837.5
396.697	744.7
396.911	661.58
397.125	581.37
397.339	558.31
397.553	568.58
397.766	719.13
397.98	826.85
398.194	926.82
398.408	1003.35
398.621	1133.94
398.835	1179.08
399.049	1125.8
399.262	1281.19
399.476	1292.23
399.69	1325.36
399.903	1382.32
400.117	1273.63
400.331	1331.56
400.544	1307.15
400.758	1464.86
400.971	1367.4
401.185	1387.94
401.398	1371.86
401.612	1460.21
401.826	1485.01
402.039	1497.41
402.253	1467.18
402.466	1532.48
402.68	1494.31
402.893	1567.35
403.106	1534.41
403.32	1456.14
403.533	1493.15
403.747	1428.43
403.96	1502.83
404.174	1529.96
404.387	1545.84
404.6	1565.22
404.814	1593.89
405.027	1512.52
405.24	1484.62
405.454	1503.8
405.667	1608.04
405.88	1571.23
406.094	1576.07
406.307	1608.81
406.52	1533.64
406.733	1452.46
406.947	1499.35
407.16	1606.87
407.373	1600.48
407.586	1596.41
407.799	1575.68
408.012	1618.11
408.226	1623.15
408.439	1733.2
408.652	1648.72
408.865	1802.75
409.078	1848.87
409.291	1820.58
409.504	1771.75
409.717	1871.73
409.93	1793.45
410.143	1709.95
410.357	1584.01
410.57	1552.63
410.783	1560.38
410.996	1689.6
411.209	1729.13
411.421	1899.63
411.634	1900.21
411.847	1866.3
412.06	1931.01
412.273	1935.86
412.486	2002.89
412.699	2028.86
412.912	2013.94
413.125	1989.72
413.338	1941.09
413.55	1937.41
413.763	1924.62
413.976	1966.08
414.189	1934.89
414.402	1965.5
414.615	2115.07
414.827	2001.73
415.04	2022.66
415.253	2006.38
415.466	2079.42
415.678	2117.98
415.891	2055.59
416.104	1996.31
416.316	2076.13
416.529	2100.74
416.742	2206.14
416.954	2185.99
417.167	2133.87
417.38	2050.94
417.592	2076.91
417.805	2007.35
418.017	2006.38
418.23	2065.28
418.442	2044.94
418.655	2056.76
418.868	2052.88
419.08	2090.08
419.293	2141.62
419.505	2183.08
419.718	2138.9
419.93	2154.79
420.142	2104.03
420.355	2122.05
420.567	2119.34
420.78	2187.34
420.992	2170.1
421.205	2316.38
421.417	2309.79
421.629	2292.35
421.842	2314.44
422.054	2295.45
422.266	2368.3
422.479	2353.58
422.691	2189.09
422.903	2241.4
423.115	2132.51
423.328	2142.97
423.54	2189.09
423.752	2230.35
423.964	2258.83
424.177	2334.4
424.389	2256.9
424.601	2405.69
424.813	2373.53
425.025	2388.84
425.238	2386.51
425.45	2351.45
425.662	2307.66
425.874	2648.85
426.086	2331.3
426.298	2389.61
426.51	2387.1
426.722	2354.55
426.934	2386.71
427.146	2411.51
427.358	2364.04
427.57	2383.03
427.782	2303.2
427.994	2268.91
428.206	2247.6
428.418	2426.81
428.63	2502.57
428.842	2490.17
429.054	2410.54
429.266	2391.36
429.478	2324.71
429.69	2314.83
429.902	2251.28
430.114	2230.55
430.325	2115.66
430.537	1985.26
430.749	1922.49
430.961	1820.77
431.173	1870.76
431.384	1953.88
431.596	1947.87
431.808	2261.55
432.02	2584.14
432.231	2712.4
432.443	2911.18
432.655	2717.82
432.867	2682.95
433.078	2695.93
433.29	2791.64
433.502	2826.9
433.713	2905.56
433.925	2906.73
434.136	2845.89
434.348	2635.87
434.56	2560.11
434.771	2726.15
434.983	2651.75
435.194	2825.93
435.406	2945.86
435.617	2995.46
435.829	3113.45
436.04	3104.35
436.252	3057.46
436.463	3208.78
436.675	3282.79
436.886	3291.51
437.098	3342.85
437.309	3416.28
437.521	3253.92
437.732	3204.51
437.943	3145.62
438.155	3137.87
438.366	3073.74
438.578	3146.2
438.789	2962.14
439	2954.39
439.211	2964.66
439.423	2997.4
439.634	3179.52
439.845	3236.1
440.057	3276.78
440.268	3425.97
440.479	3314.37
440.69	3345.37
440.902	3262.06
441.113	3293.06
441.324	3363.77
441.535	3484.48
441.746	3615.45
441.957	3529.23
442.168	3620.88
442.38	3621.26
442.591	3685.4
442.802	3578.45
443.013	3750.11
443.224	3783.82
443.435	3672.61
443.646	3639.09
443.857	3663.7
444.068	3710.78
444.279	3648
444.49	3886.12
444.701	3746.43
444.912	4020.38
445.123	3932.04
445.334	3767.74
445.545	3873.52
445.756	3771.61
445.967	3685.78
446.178	3634.83
446.388	3603.05
446.599	3646.06
446.81	3726.28
447.021	3659.63
447.232	3794.86
447.443	3896.97
447.653	3951.6
447.864	4107.18
448.075	4079.67
448.286	4024.07
448.496	4029.3
448.707	4075.21
448.918	3992.48
449.129	4069.6
449.339	3985.12
449.55	4082
449.761	4074.83
449.971	4014.18
450.182	4165.69
450.393	4207.93
450.603	4135.66
450.814	4359.05
451.024	4305.97
451.235	4468.91
451.446	4443.14
451.656	4421.05
451.867	4348.2
452.077	4213.16
452.288	4370.1
452.498	4306.36
452.709	4247.26
452.919	4112.61
453.13	4079.67
453.34	4091.88
453.55	3866.74
453.761	4104.08
453.971	4022.52
454.182	4199.41
454.392	4214.71
454.602	4386.57
454.813	4413.3
455.023	4262.76
455.233	4225.17
455.444	4271.87
455.654	4106.8
455.864	4242.42
456.075	4292.79
456.285	4264.51
456.495	4361.57
456.705	4379.4
456.916	4494.87
457.126	4554.35
457.336	4505.14
457.546	4365.45
457.756	4497.78
457.967	4590.39
458.177	4436.36
458.387	4460.58
458.597	4349.37
458.807	4442.95
459.017	4334.84
459.227	4368.16
459.437	4367.58
459.647	4515.6
459.857	4496.81
460.068	4551.64
460.278	4570.05
460.488	4561.52
460.698	4608.21
460.908	4580.7
461.117	4666.14
461.327	4716.91
461.537	4806.8
461.747	4739.77
461.957	4736.28
462.167	4879.07
462.377	4852.33
462.587	4761.27
462.797	4896.12
463.007	4883.33
463.216	4984.08
463.426	5122.42
463.636	4992.41
463.846	4838.19
464.056	4875
464.265	4844
464.475	4839.93
464.685	4967.81
464.895	4911.04
465.104	4813.2
465.314	4996.48
465.524	4868.8
465.733	4833.35
465.943	5104.01
466.153	5189.65
466.362	5205.34
466.572	5117.77
466.782	4999.39
466.991	5156.32
467.201	5077.66
467.41	4878.68
467.62	5157.29
467.829	5142.18
468.039	5257.27
468.249	5206.7
468.458	5336.12
468.668	5290.4
468.877	5374.29
469.086	5438.42
469.296	5537.62
469.505	5569.2
469.715	5491.31
469.924	5461.48
470.134	5546.72
470.343	5434.74
470.552	5386.5
470.762	5391.34
470.971	5494.41
471.18	5511.27
471.39	5616.47
471.599	5497.32
471.808	5640.3
472.018	5843.74
472.227	5919.69
472.436	6104.91
472.645	6118.67
472.855	6009.59
473.064	6289.36
473.273	6266.11
473.482	6096.77
473.691	6182.6
473.901	6130.68
474.11	6070.23
474.319	6245.18
474.528	6233.17
474.737	6563.51
474.946	6427.89
475.155	6555.57
475.364	6683.25
475.573	6531.35
475.783	6705.33
475.992	6638.68
476.201	6603.62
476.41	6666.97
476.619	6546.27
476.828	6611.95
477.037	6587.15
477.245	6605.94
477.454	6727.81
477.663	6858.78
477.872	7103.1
478.081	7170.33
478.29	7090.7
478.499	7282.12
478.708	7370.08
478.917	7346.83
479.125	7137.58
479.334	7249.76
479.543	7391
479.752	7494.27
479.961	7476.83
480.169	7717.47
480.378	7730.06
480.587	7922.45
480.796	7748.66
481.004	7830.62
481.213	7938.92
481.422	7940.86
481.63	8118.14
481.839	8189.05
482.048	8327.39
482.256	8257.25
482.465	8429.68
482.674	8406.82
482.882	8376.4
483.091	8472.31
483.299	8367.88
483.508	8585.84
483.716	8661.41
483.925	8634.09
484.134	8439.37
484.342	8603.86
484.551	8624.21
484.759	8513.96
484.967	8882.86
485.176	8805.94
485.384	8856.9
485.593	8714.3
485.801	8582.16
486.01	8290.57
486.218	7927.1
486.426	7558.01
486.635	7374.34
486.843	7500.86
487.051	7734.91
487.26	7872.08
487.468	8094.31
487.676	8366.13
487.885	8596.11
488.093	8725.92
488.301	9040.76
488.509	9070.6
488.717	9219.78
488.926	9310.26
489.134	9143.64
489.342	9202.93
489.55	9086.49
489.758	9319.76
489.967	9544.89
490.175	9565.04
490.383	9854.31
490.591	10105.4
490.799	9995.35
491.007	9907.2
491.215	9979.08
491.423	9863.8
491.631	9838.81
491.839	9834.16
492.047	9776.81
492.255	9456.54
492.463	9540.05
492.671	9413.92
492.879	9733.21
493.087	9776.42
493.295	9892.28
493.503	10048.83
493.711	10315.43
493.919	10235.21
494.127	10211.58
494.334	10221.65
494.542	10194.14
494.75	10452.4
494.958	10394.86
495.166	10670.76
495.374	10734.69
495.581	10718.81
495.789	10697.69
495.997	10774.22
496.205	10430.12
496.412	10545.4
496.62	10762.98
496.828	10640.53
497.035	10832.92
497.243	10849.78
497.451	10794.17
497.658	10858.11
497.866	10833.51
498.074	10952.85
498.281	10669.01
498.489	10776.35
498.696	10558.19
498.904	10517.5
499.112	10468.68
499.319	10755.62
499.527	10828.66
499.734	10891.05
499.942	10805.99
500.149	10796.5
500.357	10868.38
500.564	10598.49
500.771	10652.74
500.979	10520.99
501.186	10368.71
501.394	10627.16
501.601	10307.87
501.808	10396.22
502.016	10433.22
502.223	10423.34
502.43	10522.93
502.638	10481.66
502.845	10689.55
503.052	10794.76
503.26	10789.72
503.467	10892.99
503.674	10923.21
503.881	10864.89
504.089	10836.41
504.296	10733.34
504.503	10545.79
504.71	10533.39
504.917	10697.88
505.125	10821.49
505.332	10943.75
505.539	10931.93
505.746	11256.46
505.953	11388.59
506.16	11418.04
506.367	11454.47
506.574	11620.12
506.781	11509.49
506.988	11422.3
507.195	11365.73
507.402	11374.64
507.609	11361.66
507.816	11153.38
508.023	11131.68
508.23	11100.88
508.437	10951.88
508.644	11050.31
508.851	11112.7
509.058	11388.01
509.265	11386.65
509.472	11526.73
509.679	11616.24
509.885	11573.04
510.092	11543.59
510.299	11454.66
510.506	11340.93
510.713	11408.16
510.92	11376.97
511.126	11437.22
511.333	11560.25
511.54	11691.61
511.746	11764.27
511.953	11722.61
512.16	11891.37
512.367	11801.27
512.573	11720.29
512.78	11607.53
512.987	11674.95
513.193	11445.55
513.4	11324.85
513.606	11391.88
513.813	11479.65
514.02	11258.97
514.226	11392.08
514.433	11393.63
514.639	11283.39
514.846	11298.69
515.052	11300.24
515.259	11350.04
515.465	11415.91
515.672	11486.05
515.878	11472.87
516.085	11656.35
516.291	11519.56
516.497	11560.64
516.704	11236.5
516.91	10831.18
517.117	10377.23
517.323	10154.62
517.529	10080.02
517.736	10083.51
517.942	10138.73
518.148	10380.52
518.354	10506.27
518.561	10563.23
518.767	10394.86
518.973	10578.34
519.179	10732.18
519.386	10922.05
519.592	10838.74
519.798	10875.16
520.004	11380.26
520.21	11394.21
520.417	11452.14
520.623	11541.07
520.829	11558.51
521.035	11627.87
521.241	11568.97
521.447	11653.83
521.653	11877.61
521.859	11689.67
522.065	11801.47
522.271	11874.12
522.477	11866.76
522.683	11920.81
522.889	11695.87
523.095	11571.68
523.301	11597.84
523.507	11420.37
523.713	11590.48
523.919	11522.08
524.125	11880.71
524.331	11953.95
524.537	12182.76
524.742	12157.19
524.948	12117.08
525.154	12268.98
525.36	12218.99
525.566	11990.56
525.772	12219.38
525.977	12061.28
526.183	11946.78
526.389	12062.25
526.595	11578.85
526.8	11511.81
527.006	11136.72
527.212	10894.92
527.417	10829.82
527.623	10839.71
527.829	11104.36
528.034	11304.12
528.24	11417.07
528.446	11596.48
528.651	11945.03
528.857	11879.16
529.062	12084.92
529.268	12232.75
529.473	12325.55
529.679	12421.07
529.884	12360.62
530.09	12316.06
530.295	12136.07
530.501	12243.79
530.706	12238.37
530.912	12442.77
531.117	12373.21
531.323	12408.28
531.528	12581.49
531.733	12586.72
531.939	12425.53
532.144	12416.03
532.35	12442.38
532.555	12358.88
532.76	12050.04
532.966	11957.82
533.171	11784.22
533.376	11670.88
533.581	11710.79
533.787	11938.64
533.992	12202.72
534.197	11914.61
534.402	12136.84
534.607	12204.46
534.813	12228.49
535.018	12269.17
535.223	12412.93
535.428	12374.57
535.633	12487.14
535.838	12673.33
536.043	12749.86
536.249	12826.97
536.454	12648.53
536.659	12705.3
536.864	12649.3
537.069	12394.91
537.274	12410.22
537.479	12338.15
537.684	12267.82
537.889	12234.69
538.094	12619.08
538.299	12473.38
538.504	12686.12
538.708	12520.46
538.913	12762.07
539.118	12660.54
539.323	12590.21
539.528	12400.15
539.733	12430.18
539.938	12398.79
540.142	12347.45
540.347	12204.27
540.552	12154.86
540.757	11996.18
540.962	12131.81
541.166	11977.97
541.371	12011.1
541.576	12080.08
541.781	12093.25
541.985	12415.45
542.19	12249.99
542.395	12555.72
542.599	12523.56
542.804	12381.93
543.008	12551.07
543.213	12477.64
543.418	12294.94
543.622	12487.14
543.827	12271.69
544.031	12550.3
544.236	12538.09
544.44	12693.29
544.645	12736.3
544.849	12644.07
545.054	12776.02
545.258	12825.23
545.463	12804.5
545.667	12625.67
545.872	12801.98
546.076	12730.68
546.281	12693.09
546.485	12700.07
546.689	12764
546.894	12682.63
547.098	12798.68
547.302	12755.48
547.507	12683.99
547.711	12734.55
547.915	12719.05
548.119	12432.89
548.324	12474.16
548.528	12604.16
548.732	12544.29
548.936	12770.01
549.141	12731.65
549.345	12727.19
549.549	12780.28
549.753	12912.41
549.957	12906.79
550.161	12894.39
550.366	12946.32
550.57	12772.14
550.774	12731.65
550.978	12756.83
551.182	12757.61
551.386	12667.71
551.59	12719.05
551.794	12666.94
551.998	12837.24
552.202	12819.41
552.406	12692.51
552.61	12964.53
552.814	12821.93
553.018	12853.9
553.222	12617.92
553.426	12711.69
553.63	12844.8
553.833	12758.38
554.037	12656.28
554.241	12638.45
554.445	12823.29
554.649	12793.45
554.853	12755.09
555.056	12894.98
555.26	12937.02
555.464	12847.12
555.668	12896.91
555.871	12829.68
556.075	12942.25
556.279	12743.66
556.483	12727.58
556.686	12640.59
556.89	12700.26
557.094	12689.6
557.297	12422.62
557.501	12510.97
557.704	12339.7
557.908	12480.74
558.112	12457.88
558.315	12571.03
558.519	12387.55
558.722	12271.5
558.926	12321.87
559.129	11991.53
559.333	12161.64
559.536	12163.97
559.74	12026.6
559.943	11919.26
560.147	12103.52
560.35	12001.61
560.553	12260.65
560.757	12140.91
560.96	12289.32
561.164	12305.6
561.367	12486.75
561.57	12386.39
561.774	12310.25
561.977	12195.16
562.18	12199.62
562.384	12265.1
562.587	12170.17
562.79	12298.04
562.993	12187.02
563.197	12184.5
563.4	12331.37
563.603	12422.81
563.806	12410.61
564.009	12334.27
564.212	12368.76
564.416	12127.35
564.619	12218.22
564.822	12055.66
565.025	12246.5
565.228	12156.02
565.431	12300.95
565.634	12021.37
565.837	12020.01
566.04	11903.77
566.243	11819.87
566.446	11688.32
566.649	11893.5
566.852	11734.82
567.055	11938.25
567.258	11931.47
567.461	12047.14
567.664	12129.87
567.867	12077.17
568.07	11934.76
568.273	12054.5
568.475	12128.12
568.678	11768.14
568.881	11802.82
569.084	11729.39
569.287	11508.71
569.489	11696.46
569.692	11792.94
569.895	11778.41
570.098	11616.05
570.3	11657.51
570.503	11553.66
570.706	11441.29
570.909	11523.44
571.111	11391.5
571.314	11234.17
571.516	11364.95
571.719	11333.95
571.922	11368.05
572.124	11394.98
572.327	11573.81
572.529	11442.07
572.732	11528.67
572.935	11609.27
573.137	11831.11
573.34	11626.71
573.542	11764.85
573.745	11693.36
573.947	11722.81
574.15	11665.26
574.352	11619.93
574.554	11757.29
574.757	11589.89
574.959	11401.38
575.162	11605.98
575.364	11375.42
575.566	11486.05
575.769	11264.4
575.971	11398.28
576.173	11122.19
576.376	11312.45
576.578	11407.38
576.78	11431.22
576.982	11323.88
577.185	11405.64
577.387	11343.06
577.589	11523.05
577.791	11392.85
577.993	11391.88
578.196	11401.18
578.398	11271.18
578.6	11235.14
578.802	11248.9
579.004	11113.86
579.206	11212.09
579.408	11387.04
579.61	11214.8
579.812	11469.77
580.014	11238.05
580.216	11339.19
580.418	11557.15
580.62	11504.06
580.822	11424.24
581.024	11507.36
581.226	11606.94
581.428	11511.62
581.63	11746.44
581.832	11567.42
582.034	11743.54
582.236	11683.86
582.438	11830.33
582.64	11834.79
582.841	11873.35
583.043	12052.56
583.245	11848.93
583.447	11953.17
583.649	11925.85
583.85	11932.83
584.052	11917.33
584.254	11874.12
584.456	11959.56
584.657	11878.77
584.859	12017.69
585.061	11823.17
585.262	11866.18
585.464	11662.74
585.666	11784.8
585.867	11616.24
586.069	11576.14
586.27	11611.01
586.472	11610.04
586.674	11546.5
586.875	11575.17
587.077	11657.71
587.278	11681.92
587.48	11583.31
587.681	11781.32
587.883	11657.12
588.084	11575.36
588.285	11552.31
588.487	11223.71
588.688	11330.27
588.89	10894.92
589.091	10687.81
589.292	10486.31
589.494	10279.97
589.695	10124.78
589.896	9956.41
590.098	10072.66
590.299	10102.5
590.5	10245.68
590.702	10429.35
590.903	10571.37
591.104	10773.83
591.305	10900.93
591.507	10955.37
591.708	10886.2
591.909	10892.6
592.11	10898.8
592.311	10992.57
592.512	10812.19
592.714	10824.01
592.915	10943.55
593.116	10876.9
593.317	11044.69
593.518	11063.48
593.719	11100.3
593.92	11136.72
594.121	11049.15
594.322	11067.55
594.523	10901.51
594.724	10867.99
594.925	10959.44
595.126	10786.62
595.327	10812.77
595.528	10887.17
595.729	10937.94
595.929	10905
596.13	11039.46
596.331	11123.74
596.532	11042.56
596.733	11198.53
596.934	11198.53
597.135	11221.19
597.335	11220.22
597.536	11123.55
597.737	11142.73
597.938	11074.14
598.138	11070.26
598.339	11146.99
598.54	11164.62
598.74	10973.39
598.941	11048.76
599.142	11164.81
599.342	11135.94
599.543	11098.55
599.744	11180.7
599.944	11206.66
600.145	11202.79
600.345	11111.53
600.546	11154.54
600.746	11109.4
600.947	11336.28
601.147	11031.9
601.348	11188.26
601.548	11046.05
601.749	11060.38
601.949	10969.52
602.15	11003.62
602.35	10963.9
602.551	10980.75
602.751	10974.75
602.951	11053.6
603.152	11034.81
603.352	11153.19
603.552	11157.84
603.753	11219.06
603.953	11308.57
604.153	11257.23
604.354	11286.87
604.554	11282.42
604.754	11354.69
604.954	11280.67
605.155	11357.59
605.355	11259.17
605.555	11317.49
605.755	11262.46
605.955	11213.44
606.155	11214.02
606.356	11262.85
606.556	11295.4
606.756	11249.87
606.956	11202.21
607.156	11291.14
607.356	11138.46
607.556	11240.76
607.756	11245.02
607.956	11248.32
608.156	11266.34
608.356	10978.23
608.556	11214.41
608.756	11042.56
608.956	11104.36
609.156	11011.37
609.356	10989.08
609.556	10999.93
609.755	11042.75
609.955	10973.2
610.155	10987.34
610.355	11002.65
610.555	10803.86
610.755	10816.65
610.954	10807.16
611.154	10926.5
611.354	10994.7
611.554	10849.59
611.753	11025.32
611.953	10930.77
612.153	10981.33
612.352	10922.63
612.552	10768.99
612.752	10793.59
612.951	10898.99
613.151	10759.88
613.351	10838.93
613.55	10816.65
613.75	10826.72
613.949	10640.53
614.149	10636.46
614.348	10688.39
614.548	10665.33
614.747	10694.01
614.947	10736.44
615.146	10550.25
615.346	10734.69
615.545	10794.37
615.745	10685.48
615.944	10597.52
616.144	10651.58
616.343	10486.89
616.542	10546.95
616.742	10359.79
616.941	10346.04
617.14	10275.51
617.34	10333.83
617.539	10428.57
617.738	10412.11
617.938	10570.4
618.137	10511.11
618.336	10558.97
618.535	10653.9
618.734	10618.64
618.934	10526.8
619.133	10590.55
619.332	10754.26
619.531	10424.89
619.73	10688.39
619.929	10640.92
620.128	10670.18
620.328	10637.63
620.527	10638.21
620.726	10691.29
620.925	10673.86
621.124	10738.38
621.323	10592.1
621.522	10443.3
621.721	10663.2
621.92	10436.9
622.119	10593.65
622.318	10418.5
622.517	10456.28
622.715	10443.49
622.914	10341.39
623.113	10463.45
623.312	10168.76
623.511	10344.49
623.71	10390.79
623.909	10220.68
624.107	10277.06
624.306	10177.86
624.505	10167.21
624.704	10150.93
624.902	10038.95
625.101	10202.28
625.3	10052.7
625.499	9946.92
625.697	10084.67
625.896	9999.81
626.095	9910.3
626.293	9925.61
626.492	9973.85
626.69	9972.11
626.889	10113.73
627.088	10076.34
627.286	10025
627.485	9885.69
627.683	9750.26
627.882	9716.17
628.08	9495.49
628.279	9391.06
628.477	9473.98
628.676	9340.88
628.874	9466.62
629.073	9505.95
629.271	9473.79
629.469	9510.99
629.668	9520.29
629.866	9411.01
630.065	9478.05
630.263	9468.75
630.461	9365.68
630.66	9546.64
630.858	9553.03
631.056	9637.7
631.254	9703.57
631.453	9479.6
631.651	9614.06
631.849	9540.44
632.047	9466.81
632.245	9467.39
632.444	9606.12
632.642	9704.54
632.84	9739.41
633.038	9609.22
633.236	9577.05
633.434	9748.52
633.632	9785.91
633.83	9552.45
634.028	9796.76
634.227	9658.43
634.425	9869.23
634.623	9703.77
634.821	9795.99
635.019	9775.06
635.216	9854.31
635.414	9838.23
635.612	9756.46
635.81	9731.47
636.008	9876.59
636.206	9787.85
636.404	9712.68
636.602	9780.68
636.8	9622.97
636.997	9791.53
637.195	9806.06
637.393	9856.44
637.591	9920.37
637.789	9884.14
637.986	9873.49
638.184	9882.21
638.382	9915.92
638.58	9917.27
638.777	10020.15
638.975	9859.15
639.173	9922.7
639.37	9886.66
639.568	9919.79
639.765	9840.16
639.963	9708.8
640.161	9759.56
640.358	9853.34
640.556	9657.65
640.753	9681.87
640.951	9622.59
641.148	9715.97
641.346	9725.27
641.543	9600.89
641.741	9667.53
641.938	9603.99
642.136	9668.31
642.333	9607.28
642.531	9748.52
642.728	9721.2
642.925	9717.72
643.123	9680.13
643.32	9707.83
643.517	9606.89
643.715	9657.46
643.912	9693.11
644.109	9730.89
644.306	9600.69
644.504	9616.39
644.701	9627.82
644.898	9678.97
645.095	9593.52
645.293	9601.66
645.49	9621.04
645.687	9518.16
645.884	9574.73
646.081	9369.75
646.278	9370.52
646.475	9332.55
646.672	9321.11
646.87	9259.31
647.067	9279.65
647.264	9218.62
647.461	9211.07
647.658	9083.19
647.855	9141.51
648.052	8997.17
648.249	8911.73
648.446	9059.75
648.642	9044.06
648.839	8957.45
649.036	8988.84
649.233	8954.35
649.43	8922.96
649.627	8696.47
649.824	8835.58
650.021	8758.86
650.217	8884.8
650.414	9013.06
650.611	8933.43
650.808	9159.72
651.004	9110.32
651.201	9056.26
651.398	9238.19
651.595	9004.14
651.791	8975.08
651.988	9071.76
652.185	8840.82
652.381	9090.36
652.578	8902.23
652.775	8971.79
652.971	9169.41
653.168	8985.74
653.364	9215.13
653.561	9027.01
653.757	9096.56
653.954	9166.5
654.15	8972.76
654.347	9146.35
654.543	9076.8
654.74	8892.35
654.936	8923.55
655.133	8899.13
655.329	8954.35
655.525	8668.38
655.722	8743.36
655.918	8461.07
656.115	8208.62
656.311	7952.48
656.507	7724.64
656.704	7575.84
656.9	7718.05
657.096	7857.74
657.292	7874.02
657.489	8035.41
657.685	8163.47
657.881	8243.49
658.077	8318.09
658.273	8479.48
658.47	8679.23
658.666	8628.27
658.862	8745.69
659.058	8799.55
659.254	8798.19
659.45	8888.28
659.646	8811.37
659.842	8872.01
660.038	8976.05
660.234	8791.22
660.43	8904.95
660.626	8979.54
660.822	8951.44
661.018	8963.65
661.214	8961.71
661.41	8903.4
661.606	9032.43
661.802	9124.85
661.998	9069.05
662.194	8980.51
662.39	9000.27
662.586	8999.11
662.781	9025.07
662.977	9131.24
663.173	8962.1
663.369	8961.13
663.564	8983.99
663.76	8997.75
663.956	8958.03
664.152	8872.4
664.347	8827.06
664.543	8955.9
664.739	8853.22
664.934	8823.38
665.13	8966.56
665.326	8931.3
665.521	8976.83
665.717	8878.01
665.912	8926.65
666.108	8746.65
666.304	8925.87
666.499	8843.14
666.695	8660.05
666.89	8827.06
667.086	8851.28
667.281	8856.31
667.477	8927.03
667.672	8825.32
667.867	8816.02
668.063	8805.17
668.258	8695.12
668.454	8778.43
668.649	8764.67
668.844	8819.7
669.04	8839.46
669.235	8710.42
669.43	8830.16
669.626	8690.27
669.821	8753.63
670.016	8740.26
670.211	8772.23
670.407	8605.99
670.602	8760.41
670.797	8654.24
670.992	8831.71
671.187	8612.19
671.382	8746.27
671.578	8500.4
671.773	8584.68
671.968	8489.36
672.163	8566.47
672.358	8541.09
672.553	8502.15
672.748	8598.63
672.943	8618.59
673.138	8523.65
673.333	8622.85
673.528	8440.15
673.723	8583.13
673.918	8433.17
674.113	8517.45
674.308	8639.71
674.503	8510.09
674.698	8531.59
674.892	8426.2
675.087	8458.16
675.282	8495.75
675.477	8478.7
675.672	8501.95
675.867	8352.57
676.061	8435.11
676.256	8276.24
676.451	8441.89
676.646	8435.69
676.84	8371.56
677.035	8280.89
677.23	8371.17
677.424	8423.29
677.619	8349.28
677.814	8407.02
678.008	8367.1
678.203	8281.47
678.397	8335.72
678.592	8303.75
678.787	8459.33
678.981	8276.43
679.176	8322.35
679.37	8275.85
679.565	8270.23
679.759	8282.63
679.954	8237.1
680.148	8254.73
680.342	8292.32
680.537	8186.53
680.731	8154.37
680.926	8279.14
681.12	8197.19
681.314	8226.06
681.509	8219.86
681.703	8206.29
681.897	8144.29
682.092	8120.27
682.286	8150.69
682.48	8171.22
682.674	8087.91
682.869	8046.65
683.063	8106.9
683.257	8123.56
683.451	8041.8
683.645	8098.18
683.839	8013.13
684.034	7918.77
684.228	7937.18
684.422	7780.63
684.616	7899.2
684.81	7943.57
685.004	7798.07
685.198	7881.77
685.392	7855.61
685.586	7855.8
685.78	7790.32
685.974	7823.84
686.168	7810.08
686.362	7736.84
686.556	7255.38
686.75	7018.24
686.944	6604.78
687.138	6192.1
687.331	5826.11
687.525	5655.22
687.719	5548.86
687.913	5566.68
688.107	5674.99
688.301	5640.69
688.494	5787.17
688.688	5731.95
688.882	5679.83
689.076	5669.37
689.269	5665.69
689.463	5815.65
689.657	5788.91
689.85	5847.81
690.044	5915.23
690.238	5941.97
690.431	5984.98
690.625	6062.48
690.818	6216.32
691.012	6173.5
691.205	6352.13
691.399	6317.84
691.593	6388.17
691.786	6424.98
691.98	6557.7
692.173	6600.9
692.366	6566.61
692.56	6689.83
692.753	6580.56
692.947	6516.62
693.14	6583.66
693.333	6570.1
693.527	6566.61
693.72	6568.74
693.914	6488.14
694.107	6421.69
694.3	6460.82
694.493	6386.81
694.687	6555.37
694.88	6392.24
695.073	6561.57
695.266	6495.89
695.46	6535.8
695.653	6505
695.846	6586.76
696.039	6505
696.232	6534.06
696.425	6678.21
696.618	6731.49
696.812	6787.48
697.005	6863.24
697.198	6929.31
697.391	6891.33
697.584	6978.13
697.777	6944.03
697.97	6951.97
698.163	6900.82
698.356	6840.18
698.549	6938.02
698.742	6839.6
698.935	6661.93
699.127	6761.91
699.32	6658.83
699.513	6641.98
699.706	6593.93
699.899	6674.33
700.092	6606.33
700.285	6573.39
700.477	6391.46
700.67	6527.47
700.863	6497.05
701.056	6588.7
701.248	6504.42
701.441	6544.72
701.634	6431.76
701.826	6513.33
702.019	6336.05
702.212	6453.27
702.404	6345.93
702.597	6308.15
702.79	6377.51
702.982	6368.99
703.175	6446.49
703.367	6460.63
703.56	6433.12
703.752	6556.34
703.945	6530.77
704.137	6511.2
704.33	6568.94
704.522	6527.09
704.715	6584.05
704.907	6593.15
705.1	6661.16
705.292	6563.51
705.484	6484.27
705.677	6557.7
705.869	6594.12
706.061	6579.4
706.254	6571.45
706.446	6455.21
706.638	6465.86
706.831	6580.17
707.023	6480.78
707.215	6670.65
707.407	6659.22
707.599	6499.77
707.792	6605.94
707.984	6624.15
708.176	6546.07
708.368	6475.36
708.56	6593.54
708.752	6542.39
708.944	6442.22
709.136	6516.04
709.329	6506.94
709.521	6582.5
709.713	6475.94
709.905	6515.46
710.097	6556.54
710.289	6431.18
710.481	6503.25
710.672	6516.82
710.864	6494.92
711.056	6473.03
711.248	6491.05
711.44	6467.61
711.632	6455.79
711.824	6475.94
712.016	6423.62
712.207	6452.49
712.399	6412.19
712.591	6455.01
712.783	6406.96
712.975	6406.77
713.166	6320.36
713.358	6340.31
713.55	6362.59
713.741	6365.5
713.933	6321.91
714.125	6314.74
714.316	6204.3
714.508	6328.11
714.7	6265.33
714.891	6229.3
715.083	6172.33
715.274	6113.63
715.466	6196.75
715.657	6155.67
715.849	5982.07
716.04	5993.51
716.232	5896.44
716.423	5799.95
716.615	5640.69
716.806	5509.91
716.998	5325.66
717.189	5137.92
717.381	5039.69
717.572	4904.65
717.763	4851.17
717.955	4690.56
718.146	4611.12
718.337	4495.65
718.528	4366.42
718.72	4224.21
718.911	4237.57
719.102	4159.3
719.293	4214.13
719.485	4134.11
719.676	4088.58
719.867	4018.45
720.058	4009.73
720.249	3974.08
720.44	4008.37
720.632	4115.71
720.823	4189.91
721.014	4389.86
721.205	4458.64
721.396	4564.23
721.587	4752.55
721.778	4818.43
721.969	4887.98
722.16	4965.87
722.351	5008.69
722.542	5118.35
722.733	5087.35
722.924	4966.45
723.115	5047.63
723.305	4877.72
723.496	4887.98
723.687	4688.42
723.878	4675.44
724.069	4644.25
724.26	4666.34
724.45	4491
724.641	4451.28
724.832	4441.01
725.023	4377.27
725.213	4385.99
725.404	4338.13
725.595	4275.74
725.785	4291.63
725.976	4317.79
726.167	4313.91
726.357	4310.81
726.548	4472.98
726.739	4315.46
726.929	4419.7
727.12	4426.48
727.31	4444.5
727.501	4283.49
727.691	4276.71
727.882	4302.87
728.072	4362.54
728.263	4325.34
728.453	4423.77
728.644	4397.42
728.834	4351.69
729.024	4280.59
729.215	4260.82
729.405	4339.1
729.596	4382.89
729.786	4328.05
729.976	4384.82
730.167	4356.15
730.357	4308.49
730.547	4359.25
730.737	4339.1
730.928	4365.64
731.118	4431.13
731.308	4348.2
731.498	4336.97
731.688	4466.58
731.879	4455.73
732.069	4494.1
732.259	4543.11
732.449	4594.07
732.639	4703.92
732.829	4702.37
733.019	4744.61
733.209	4789.37
733.399	4821.92
733.589	4939.33
733.779	4969.75
733.969	4943.2
734.159	5028.64
734.349	4953.08
734.539	5060.23
734.729	5082.89
734.919	5070.11
735.109	5091.23
735.299	4997.84
735.488	5070.3
735.678	5022.83
735.868	5062.94
736.058	5027.29
736.248	4982.34
736.437	4949.01
736.627	4914.72
736.817	5028.84
737.007	4971.3
737.196	5030.39
737.386	4974.2
737.576	4909.1
737.765	5008.69
737.955	4939.71
738.144	5102.66
738.334	5042.4
738.524	4943.01
738.713	5018.57
738.903	4965.1
739.092	5017.41
739.282	5010.43
739.471	5005.2
739.661	4947.85
739.85	4997.84
740.04	4991.83
740.229	5030.19
740.419	5052.09
740.608	5041.04
740.797	5042.4
740.987	5054.22
741.176	5047.83
741.365	4989.7
741.555	4940.68
741.744	5060.23
741.933	4949.21
742.123	4982.15
742.312	5055.58
742.501	5041.82
742.69	5047.05
742.88	4953.86
743.069	5096.65
743.258	5018.18
743.447	5098.78
743.636	5092
743.825	4998.23
744.014	5026.13
744.204	5016.44
744.393	4994.74
744.582	5081.34
744.771	5093.74
744.96	5023.41
745.149	5036.2
745.338	4995.13
745.527	5048.79
745.716	5007.33
745.905	4967.42
746.094	5060.23
746.283	5067.78
746.471	5035.23
746.66	5033.68
746.849	5031.55
747.038	5070.69
747.227	4966.06
747.416	5000.16
747.604	4945.33
747.793	4937.58
747.982	4974.98
748.171	5002.1
748.359	4957.73
748.548	4976.33
748.737	4949.79
748.926	4942.43
749.114	4834.12
749.303	4905.23
749.491	4877.33
749.68	4775.42
749.869	4899.03
750.057	4859.89
750.246	4813.39
750.434	4827.92
750.623	4822.5
750.811	4794.79
751	4796.73
751.188	4792.85
751.377	4770.38
751.565	4778.71
751.754	4766.12
751.942	4727.37
752.131	4788.4
752.319	4696.76
752.507	4663.24
752.696	4725.82
752.884	4739.57
753.072	4661.88
753.261	4710.51
753.449	4706.64
753.637	4633.01
753.825	4788.2
754.014	4673.31
754.202	4635.34
754.39	4755.07
754.578	4723.88
754.766	4645.22
754.955	4593.49
755.143	4719.62
755.331	4616.16
755.519	4617.9
755.707	4597.94
755.895	4609.38
756.083	4597.36
756.271	4536.14
756.459	4543.5
756.647	4547.96
756.835	4484.41
757.023	4486.73
757.211	4501.46
757.399	4483.25
757.587	4500.88
757.775	4417.76
757.963	4422.8
758.151	4421.05
758.339	4392.77
758.526	4370.1
758.714	4435.2
758.902	4309.65
759.09	4098.66
759.278	3878.95
759.465	3582.52
759.653	3132.63
759.841	2794.74
760.028	2431.85
760.216	2105.39
760.404	1980.03
760.591	1644.66
760.779	1379.8
760.967	1228.29
761.154	1041.52
761.342	1040.55
761.529	1061.86
761.717	1124.83
761.905	1143.24
762.092	1209.11
762.28	1177.34
762.467	1150.79
762.655	1091.31
762.842	1084.92
763.029	1143.04
763.217	1131.03
763.404	1116.31
763.592	1185.28
763.779	1101.78
763.966	1194
764.154	1235.66
764.341	1321.87
764.528	1314.32
764.716	1393.75
764.903	1453.43
765.09	1538.09
765.277	1608.04
765.465	1796.36
765.652	1869.6
765.839	1991.08
766.026	2146.46
766.213	2235.58
766.4	2326.45
766.588	2570.96
766.775	2592.85
766.962	2728.28
767.149	2793.96
767.336	2992.56
767.523	2950.9
767.71	3143.1
767.897	3244.43
768.084	3319.6
768.271	3390.32
768.458	3455.03
768.645	3537.37
768.832	3516.25
769.019	3567.98
769.206	3595.88
769.392	3661.95
769.579	3758.05
769.766	3752.43
769.953	3734.61
770.14	3807.46
770.327	3760.57
770.513	3835.36
770.7	3912.47
770.887	3780.91
771.073	3871.2
771.26	3902
771.447	3820.24
771.634	3834.19
771.82	3935.91
772.007	3824.31
772.193	3840.39
772.38	3932.42
772.567	3834.58
772.753	3849.89
772.94	3913.44
773.126	3891.15
773.313	3902.97
773.499	3852.21
773.686	3932.23
773.872	3823.54
774.059	3869.07
774.245	3789.63
774.432	3822.37
774.618	3737.51
774.804	3808.42
774.991	3749.33
775.177	3831.87
775.363	3743.71
775.55	3808.23
775.736	3753.59
775.922	3771.42
776.109	3731.89
776.295	3776.26
776.481	3790.99
776.667	3777.62
776.853	3759.02
777.04	3710.78
777.226	3732.86
777.412	3794.86
777.598	3718.53
777.784	3729.76
777.97	3672.41
778.156	3736.54
778.342	3718.53
778.528	3686.75
778.715	3573.41
778.901	3633.86
779.087	3654.4
779.272	3617.58
779.458	3577.09
779.644	3657.69
779.83	3623.59
780.016	3711.74
780.202	3601.5
780.388	3606.35
780.574	3490.1
780.76	3565.08
780.946	3624.17
781.131	3567.79
781.317	3581.55
781.503	3507.92
781.689	3517.8
781.874	3641.03
782.06	3508.5
782.246	3531.17
782.432	3530.59
782.617	3545.32
782.803	3563.53
782.989	3460.26
783.174	3459.1
783.36	3413.96
783.545	3451.74
783.731	3440.5
783.916	3374.62
784.102	3452.51
784.288	3425.97
784.473	3426.94
784.659	3360.09
784.844	3433.33
785.029	3358.54
785.215	3371.91
785.4	3334.71
785.586	3439.92
785.771	3333.36
785.956	3409.5
786.142	3325.41
786.327	3285.89
786.512	3299.64
786.698	3307.39
786.883	3212.26
787.068	3285.5
787.254	3307.59
787.439	3270.58
787.624	3226.8
787.809	3192.31
787.994	3197.15
788.18	3292.28
788.365	3204.51
788.55	3163.63
788.735	3197.15
788.92	3170.61
789.105	3149.1
789.29	3170.42
789.475	3127.79
789.66	3086.91
789.845	3115.39
790.03	3091.17
790.215	3102.6
790.4	3138.64
790.585	3136.32
790.77	3082.45
790.955	3035.37
791.14	3054.55
791.325	3159.57
791.51	2961.56
791.695	3082.84
791.879	3044.87
792.064	2964.27
792.249	3073.35
792.434	3016.58
792.618	3027.04
792.803	3063.08
792.988	3080.52
793.173	3047.19
793.357	3062.5
793.542	3049.13
793.727	3022.78
793.911	3083.42
794.096	3051.84
794.281	3114.23
794.465	3162.47
794.65	3033.63
794.834	3113.65
795.019	3137.87
795.203	3103.96
795.388	3125.27
795.572	3144.84
795.757	3118.68
795.941	3121.78
796.126	3110.55
796.31	3018.13
796.494	3094.27
796.679	3039.25
796.863	3023.17
797.048	3156.66
797.232	3117.13
797.416	3095.63
797.601	3121.4
797.785	3164.8
797.969	3172.16
798.153	3084.59
798.338	3086.91
798.522	3154.72
798.706	3200.06
798.89	3201.41
799.074	3250.24
799.258	3202.58
799.443	3142.71
799.627	3148.13
799.811	3199.67
799.995	3101.25
800.179	3101.05
800.363	3097.18
800.547	3157.05
800.731	3154.72
800.915	3049.71
801.099	3090.4
801.283	3115.58
801.467	3070.25
801.651	3057.46
801.835	3091.17
802.019	3118.88
802.202	3110.16
802.386	3048.16
802.57	3009.41
802.754	3069.47
802.938	3040.22
803.121	3039.44
803.305	3113.84
803.489	3067.73
803.673	3121.2
803.856	3092.92
804.04	3083.42
804.224	3077.03
804.407	3094.08
804.591	3034.99
804.775	3039.05
804.958	3097.18
805.142	3168.67
805.326	3100.86
805.509	3045.06
805.693	3149.3
805.876	3141.16
806.06	3118.1
806.243	3110.55
806.427	3109.38
806.61	3190.18
806.794	3078.77
806.977	3159.57
807.16	3110.35
807.344	3135.93
807.527	3100.08
807.71	3074.51
807.894	3096.98
808.077	3132.83
808.26	3006.31
808.444	3031.5
808.627	3105.12
808.81	3047.77
808.993	3002.05
809.177	2931.91
809.36	3028.2
809.543	3002.63
809.726	2905.56
809.909	2967.56
810.092	2921.64
810.276	2914.09
810.459	2915.25
810.642	2883.48
810.825	2802.88
811.008	2870.11
811.191	2740.49
811.374	2769.36
811.557	2806.56
811.74	2825.54
811.923	2704.65
812.106	2712.78
812.289	2668.8
812.472	2697.87
812.654	2696.12
812.837	2617.27
813.02	2582.39
813.203	2563.02
813.386	2437.28
813.569	2445.41
813.751	2324.71
813.934	2435.73
814.117	2380.12
814.3	2304.56
814.482	2266.97
814.665	2233.84
814.848	2219.7
815.03	2111.39
815.213	2114.69
815.396	2127.28
815.578	2064.31
815.761	2036.99
815.943	2125.15
816.126	2003.09
816.309	1952.52
816.491	1944.77
816.674	1841.89
816.856	1896.91
817.039	1901.95
817.221	2015.29
817.403	1931.98
817.586	1941.67
817.768	1914.74
817.951	1852.35
818.133	1847.9
818.315	1884.13
818.498	1941.28
818.68	1992.82
818.862	1932.18
819.045	1980.42
819.227	1959.11
819.409	1944
819.591	1976.54
819.774	1930.05
819.956	1871.15
820.138	2055.4
820.32	2003.09
820.502	2061.41
820.684	2114.69
820.866	2143.94
821.048	2167.58
821.231	2207.88
821.413	2172.62
821.595	2157.89
821.777	2219.89
821.959	2191.6
822.141	2238.3
822.323	2083.69
822.505	2003.28
822.686	1951.16
822.868	1862.04
823.05	1735.33
823.232	1720.22
823.414	1640.2
823.596	1741.14
823.778	1729.52
823.96	1780.67
824.141	1768.85
824.323	1790.93
824.505	1858.94
824.687	1914.35
824.868	1989.72
825.05	2070.12
825.232	2116.82
825.413	2151.11
825.595	2114.3
825.777	2051.91
825.958	2143.36
826.14	2106.74
826.321	2109.07
826.503	2096.47
826.685	2119.34
826.866	2144.14
827.048	2125.73
827.229	2087.95
827.411	2049.39
827.592	1982.55
827.773	1951.94
827.955	1930.05
828.136	1952.13
828.318	1914.55
828.499	1931.4
828.68	1859.91
828.862	1916.68
829.043	1927.91
829.224	1900.98
829.406	1866.5
829.587	1863.98
829.768	1888.2
829.949	1915.9
830.131	1876.96
830.312	1949.03
830.493	1905.83
830.674	1933.92
830.855	1890.91
831.036	1909.12
831.218	1986.04
831.399	1983.13
831.58	1932.76
831.761	1904.66
831.942	1927.14
832.123	1896.33
832.304	1844.41
832.485	1875.02
832.666	1922.88
832.847	1938.18
833.028	1859.33
833.209	1903.89
833.389	1898.66
833.57	1811.67
833.751	1869.79
833.932	1947.48
834.113	1857.58
834.294	1865.53
834.475	1877.15
834.655	1960.85
834.836	1949.23
835.017	1963.76
835.198	1880.06
835.378	1930.24
835.559	1970.93
835.74	1940.31
835.92	1942.45
836.101	1924.81
836.281	2013.36
836.462	1933.15
836.643	1996.69
836.823	1994.95
837.004	1928.11
837.184	2013.55
837.365	1998.44
837.545	2004.25
837.726	1957.75
837.906	2032.15
838.087	1929.66
838.267	1987.98
838.448	1930.43
838.628	1939.73
838.808	1951.16
838.989	2030.41
839.169	1942.06
839.349	1984.1
839.53	2009.09
839.71	2014.91
839.89	1950.97
840.07	2039.51
840.251	1934.31
840.431	2022.85
840.611	1951.74
840.791	1914.16
840.971	1951.55
841.151	1959.11
841.332	1927.91
841.512	1974.61
841.692	1926.36
841.872	1917.84
842.052	1938.18
842.232	1960.46
842.412	1867.66
842.592	1927.14
842.772	1967.44
842.952	1917.45
843.132	1941.09
843.312	1909.31
843.492	1882.19
843.672	1946.9
843.851	1850.61
844.031	1897.11
844.211	1898.08
844.391	1876.57
844.571	1911.06
844.751	1916.29
844.93	1879.48
845.11	1879.86
845.29	1899.82
845.47	1904.86
845.649	1888.58
845.829	1967.44
846.009	1889.16
846.188	1924.43
846.368	1899.05
846.547	1841.7
846.727	1935.66
846.907	1828.91
847.086	1872.11
847.266	1929.85
847.445	1846.93
847.625	1855.45
847.804	1851.38
847.984	1853.71
848.163	1824.07
848.343	1817.48
848.522	1883.35
848.701	1839.95
848.881	1814.96
849.06	1848.28
849.239	1797.13
849.419	1814.57
849.598	1780.08
849.777	1727.39
849.957	1722.74
850.136	1694.84
850.315	1707.24
850.494	1671.59
850.674	1693.87
850.853	1731.45
851.032	1696.77
851.211	1753.93
851.39	1723.12
851.569	1650.08
851.748	1706.07
851.927	1745.21
852.107	1677.21
852.286	1692.51
852.465	1661.9
852.644	1749.28
852.823	1696.77
853.002	1697.55
853.181	1708.01
853.359	1730.68
853.538	1643.49
853.717	1700.45
853.896	1605.13
854.075	1504
854.254	1515.62
854.433	1429.21
854.611	1489.85
854.79	1428.63
854.969	1479.58
855.148	1503.61
855.327	1468.93
855.505	1527.44
855.684	1506.51
855.863	1565.22
856.041	1526.86
856.22	1548.17
856.399	1542.36
856.577	1644.66
856.756	1615.98
856.934	1700.45
857.113	1729.71
857.291	1630.9
857.47	1575.88
857.648	1602.61
857.827	1623.73
858.005	1656.67
858.184	1595.06
858.362	1678.37
858.541	1625.86
858.719	1604.94
858.898	1558.24
859.076	1563.48
859.254	1671.01
859.433	1590.6
859.611	1553.4
859.789	1545.65
859.967	1654.15
860.146	1658.41
860.324	1541.58
860.502	1564.83
860.68	1495.47
860.859	1527.63
861.037	1556.5
861.215	1558.44
861.393	1573.94
861.571	1587.31
861.749	1534.8
861.927	1578.2
862.105	1575.88
862.283	1517.56
862.461	1500.31
862.639	1496.05
862.817	1543.13
862.995	1546.23
863.173	1511.94
863.351	1508.45
863.529	1541.19
863.707	1558.83
863.885	1537.32
864.063	1449.75
864.241	1457.3
864.418	1547.98
864.596	1492.95
864.774	1460.6
864.952	1501.48
865.129	1518.53
865.307	1459.63
865.485	1415.45
865.663	1484.62
865.84	1407.51
866.018	1401.12
866.196	1290.68
866.373	1284.29
866.551	1276.92
866.728	1230.04
866.906	1250.38
867.084	1288.55
867.261	1333.3
867.439	1348.22
867.616	1359.07
867.794	1332.14
867.971	1391.23
868.149	1370.7
868.326	1408.87
868.503	1388.33
868.681	1385.23
868.858	1362.17
869.035	1335.05
869.213	1381.35
869.39	1355.58
869.567	1436.38
869.745	1362.37
869.922	1386.97
870.099	1370.12
870.276	1424.56
870.454	1418.17
870.631	1368.95
870.808	1351.52
870.985	1398.6
871.162	1427.08
871.339	1372.05
871.517	1336.21
871.694	1333.5
871.871	1340.08
872.048	1365.27
872.225	1349.77
872.402	1367.02
872.579	1292.62
872.756	1330.59
872.933	1301.53
873.11	1353.26
873.287	1336.99
873.463	1301.14
873.64	1299.79
873.817	1338.92
873.994	1305.99
874.171	1270.14
874.348	1310.83
874.524	1243.99
874.701	1298.04
874.878	1215.12
875.055	1312.96
875.231	1275.76
875.408	1314.51
875.585	1209.69
875.762	1253.09
875.938	1231.2
876.115	1210.27
876.291	1254.64
876.468	1225.58
876.645	1209.69
876.821	1228.49
876.998	1203.88
877.174	1245.34
877.351	1225
877.527	1208.72
877.704	1248.64
877.88	1232.56
878.057	1226.36
878.233	1261.23
878.409	1215.7
878.586	1244.76
878.762	1211.05
878.938	1206.01
879.115	1160.09
879.291	1226.36
879.467	1149.24
879.644	1143.82
879.82	1201.75
879.996	1143.43
880.172	1142.85
880.349	1148.08
880.525	1184.89
880.701	1147.31
880.877	1127.74
881.053	1167.26
881.229	1163.39
881.405	1215.51
881.581	1113.59
881.757	1171.72
881.933	1172.11
882.109	1195.74
882.285	1185.67
882.461	1096.54
882.637	1142.27
882.813	1112.63
882.989	1149.24
883.165	1199.62
883.341	1100.42
883.517	1170.75
883.693	1151.96
883.869	1160.29
884.044	1130.64
884.22	1170.94
884.396	1225.77
884.572	1152.73
884.747	1165.91
884.923	1145.76
885.099	1184.51
885.275	1204.27
885.45	1121.34
885.626	1120.96
885.801	1101.78
885.977	1135.88
886.153	1078.91
886.328	1146.34
886.504	1130.45
886.679	1145.37
886.855	1120.38
887.03	1163
887.206	1164.36
887.381	1136.46
887.557	1203.69
887.732	1143.82
887.908	1141.49
888.083	1170.75
888.258	1145.56
888.434	1123.48
888.609	1144.79
888.784	1201.56
888.96	1122.31
889.135	1107.59
889.31	1128.51
889.485	1150.21
889.661	1124.06
889.836	1167.46
890.011	1187.61
890.186	1134.71
890.361	1119.6
890.537	1153.89
890.712	1129.68
890.887	1140.53
891.062	1141.69
891.237	1193.81
891.412	1125.03
891.587	1146.34
891.762	1166.1
891.937	1189.74
892.112	1094.99
892.287	1099.26
892.462	1113.79
892.637	1057.8
892.812	1020.4
892.987	1045.59
893.161	1031.06
893.336	1063.03
893.511	1040.36
893.686	1057.8
893.861	1034.93
894.035	1046.95
894.21	1031.45
894.385	984.37
894.56	1028.15
894.734	967.7
894.909	960.92
895.084	960.15
895.258	937.87
895.433	941.35
895.608	922.56
895.782	879.74
895.957	896.99
896.131	879.55
896.306	832.85
896.48	821.23
896.655	833.44
896.829	766.21
897.004	762.33
897.178	785.19
897.353	750.12
897.527	839.83
897.701	788.87
897.876	750.71
898.05	801.47
898.224	760.59
898.399	810.96
898.573	778.41
898.747	641.63
898.921	725.71
899.096	610.43
899.27	671.46
899.444	604.23
899.618	663.13
899.792	664.49
899.967	705.37
900.141	732.88
900.315	620.7
900.489	653.06
900.663	694.52
900.837	670.11
901.011	622.25
901.185	748.57
901.359	691.81
901.533	679.6
901.707	695.88
901.881	698.01
902.055	623.22
902.229	666.43
902.403	746.25
902.576	701.11
902.75	693.74
902.924	798.17
903.098	751.09
903.272	789.65
903.446	820.45
903.619	791.01
903.793	821.62
903.967	818.52
904.14	869.28
904.314	840.99
904.488	822
904.661	858.62
904.835	835.76
905.009	872.19
905.182	916.17
905.356	897.95
905.529	850.68
905.703	801.86
905.876	828.79
906.05	770.47
906.223	774.54
906.397	677.08
906.57	690.84
906.744	694.13
906.917	660.03
907.09	676.89
907.264	674.18
907.437	638.33
907.61	609.46
907.784	657.71
907.957	640.27
908.13	606.56
908.304	642.98
908.477	603.26
908.65	595.9
908.823	592.41
908.996	659.06
909.17	584.28
909.343	576.53
909.516	601.52
909.689	592.41
909.862	553.47
910.035	599.78
910.208	556.38
910.381	555.21
910.554	704.4
910.727	577.11
910.9	610.82
911.073	573.81
911.246	654.61
911.419	623.22
911.592	614.5
911.765	582.15
911.938	561.03
912.11	588.35
912.283	581.95
912.456	651.31
912.629	609.46
912.802	553.86
912.974	530.22
913.147	503.1
913.32	469.19
913.493	463.19
913.665	518.79
913.838	539.33
914.01	501.16
914.183	547.47
914.356	537.2
914.528	544.75
914.701	611.4
914.873	574.01
915.046	532.93
915.218	479.85
915.391	416.3
915.563	469
915.736	481.59
915.908	528.87
916.081	506.78
916.253	492.63
916.425	499.03
916.598	548.24
916.77	509.1
916.942	453.69
917.115	423.08
917.287	487.21
917.459	474.62
917.632	410.1
917.804	396.15
917.976	478.68
918.148	509.1
918.32	500.19
918.493	524.8
918.665	556.57
918.837	508.33
919.009	583.89
919.181	560.06
919.353	543.4
919.525	546.3
919.697	514.53
919.869	526.93
920.041	593.58
920.213	648.41
920.385	609.27
920.557	555.21
920.729	582.53
920.901	573.23
921.073	529.64
921.244	532.55
921.416	583.5
921.588	548.43
921.76	516.08
921.932	592.8
922.103	557.54
922.275	515.5
922.447	507.55
922.619	457.76
922.79	497.48
922.962	501.55
923.134	560.25
923.305	448.46
923.477	456.79
923.648	454.08
923.82	477.52
923.991	440.13
924.163	434.7
924.335	460.47
924.506	423.66
924.677	509.3
924.849	472.87
925.02	472.87
925.192	475.78
925.363	455.24
925.535	452.53
925.706	446.91
925.877	510.65
926.049	450.2
926.22	479.46
926.391	471.13
926.562	509.88
926.734	428.5
926.905	487.4
927.076	411.45
927.247	415.33
927.419	400.8
927.59	373.67
927.761	416.69
927.932	359.72
928.103	394.6
928.274	333.57
928.445	338.61
928.616	337.25
928.787	339.96
928.958	371.16
929.129	337.06
929.3	352.56
929.471	284.74
929.642	252
929.813	183.03
929.984	284.55
930.155	222.55
930.326	261.3
930.496	241.73
930.667	165.59
930.838	207.44
931.009	162.1
931.18	199.11
931.35	168.88
931.521	189.03
931.692	122.96
931.863	107.47
932.033	143.7
932.204	137.11
932.374	162.88
932.545	111.53
932.716	161.33
932.886	152.61
933.057	75.88
933.227	100.49
933.398	181.28
933.568	64.26
933.739	30.16
933.909	69.49
934.08	106.3
934.25	44.5
934.421	42.37
934.591	94.29
934.761	62.32
934.932	29.77
935.102	87.12
935.272	66.58
935.443	72.01
935.613	56.12
935.783	98.55
935.953	26.29
936.123	191.16
936.294	45.08
936.464	50.7
936.634	52.25
936.804	16.4
936.974	45.47
937.144	64.07
937.314	51.28
937.484	72.4
937.655	25.51
937.825	115.41
937.995	41.59
938.165	116.38
938.334	84.99
938.504	71.82
938.674	52.25
938.844	82.47
939.014	152.8
939.184	134.98
939.354	160.94
939.524	165.01
939.694	143.5
939.863	103.78
940.033	187.68
940.203	150.09
940.373	173.53
940.542	159.78
940.712	122.38
940.882	162.3
941.051	143.5
941.221	159.2
941.391	190.2
941.56	127.03
941.73	122.38
941.899	224.29
942.069	123.55
942.238	136.91
942.408	88.28
942.577	149.9
942.747	104.37
942.916	40.62
943.086	108.05
943.255	157.26
943.425	129.94
943.594	88.28
943.763	13.5
943.933	30.74
944.102	21.05
944.271	81.89
944.441	102.23
944.61	61.35
944.779	75.3
944.948	182.64
945.117	52.44
945.287	63.48
945.456	53.22
945.625	57.48
945.794	120.64
945.963	64.65
946.132	111.73
946.301	65.23
946.47	114.44
946.639	27.64
946.808	79.18
946.977	114.63
947.146	140.21
947.315	72.2
947.484	126.84
947.653	81.5
947.822	51.86
947.991	72.01
948.16	132.07
948.329	135.75
948.498	102.82
948.666	103.4
948.835	136.91
949.004	57.28
949.173	50.5
949.341	89.25
949.51	110.37
949.679	134.4
949.847	115.99
950.016	155.9
950.185	137.11
950.353	55.93
950.522	91.19
950.69	166.17
950.859	89.83
951.028	140.01
951.196	100.3
951.365	46.82
951.533	82.08
951.701	101.07
951.87	116.18
952.038	61.93
952.207	84.41
952.375	159.78
952.543	71.43
952.712	74.33
952.88	76.66
953.048	159.78
953.217	86.15
953.385	92.93
953.553	160.55
953.721	52.63
953.89	90.8
954.058	65.62
954.226	81.12
954.394	112.5
954.562	49.15
954.73	93.9
954.898	69.88
955.067	123.35
955.235	95.26
955.403	92.74
955.571	147.38
955.739	93.13
955.907	64.45
956.075	77.05
956.243	66.2
956.41	120.64
956.578	47.21
956.746	60.19
956.914	73.17
957.082	93.9
957.25	110.18
957.418	70.46
957.585	109.21
957.753	148.54
957.921	60.77
958.089	72.59
958.256	99.91
958.424	130.33
958.592	96.23
958.759	55.35
958.927	106.11
959.095	46.63
959.262	114.83
959.43	79.76
959.597	40.82
959.765	109.98
959.932	56.12
960.1	137.3
960.267	90.03
960.435	82.08
960.602	146.02
960.77	80.92
960.937	73.37
961.104	96.62
961.272	60
961.439	64.07
961.606	96.62
961.774	139.43
961.941	78.6
962.108	116.57
962.275	86.54
962.443	121.41
962.61	118.9
962.777	179.15
962.944	136.72
963.111	107.85
963.278	128
963.446	106.88
963.613	109.79
963.78	140.01
963.947	142.53
964.114	116.76
964.281	194.46
964.448	102.62
964.615	101.46
964.782	117.73
964.949	141.95
965.116	102.04
965.282	182.64
965.449	114.83
965.616	92.93
965.783	128.2
965.95	122.38
966.117	83.63
966.283	87.32
966.45	108.24
966.617	139.43
966.784	136.72
966.95	151.25
967.117	169.08
967.284	97
967.45	94.29
967.617	149.7
967.784	131.88
967.95	137.5
968.117	105.53
968.283	177.8
968.45	231.85
968.616	143.7
968.783	176.25
968.949	137.88
969.116	167.14
969.282	138.66
969.449	177.8
969.615	110.76
969.781	97
969.948	112.31
970.114	108.43
970.28	200.46
970.447	127.81
970.613	179.93
970.779	124.32
970.945	184.38
971.112	145.05
971.278	124.51
971.444	142.73
971.61	173.92
971.776	126.45
971.942	165.01
972.108	156.48
972.275	113.86
972.441	153.19
972.607	196.78
972.773	109.21
972.939	137.69
973.105	147.38
973.271	68.52
973.437	134.01
973.602	70.27
973.768	148.54
973.934	137.3
974.1	152.41
974.266	64.65
974.432	136.33
974.598	98.55
974.763	143.5
974.929	101.46
975.095	165.01
975.261	86.73
975.426	87.32
975.592	106.5
975.758	176.44
975.923	72.4
976.089	101.07
976.255	136.14
976.42	144.28
976.586	134.98
976.751	134.01
976.917	192.71
977.082	119.28
977.248	57.09
977.413	52.63
977.579	99.13
977.744	149.31
977.91	91.38
978.075	89.83
978.24	126.84
978.406	113.08
978.571	85.77
978.736	90.22
978.902	118.51
979.067	78.21
979.232	60.97
979.397	118.9
979.563	154.16
979.728	98.17
979.893	119.86
980.058	103.78
980.223	157.65
980.388	123.55
980.554	116.38
980.719	91
980.884	121.61
981.049	151.83
981.214	85.38
981.379	136.53
981.544	125.68
981.709	90.8
981.874	86.15
982.039	78.79
982.204	128.97
982.368	112.7
982.533	81.12
982.698	153
982.863	163.46
983.028	105.53
983.193	122.96
983.357	113.67
983.522	120.83
983.687	115.22
983.852	81.31
984.016	108.43
984.181	120.06
984.346	121.8
984.51	148.93
984.675	146.41
984.839	109.98
985.004	114.63
985.168	144.86
985.333	120.64
985.498	87.7
985.662	152.8
985.827	108.05
985.991	85.57
986.155	103.98
986.32	103.2
986.484	160.94
986.649	140.4
986.813	42.56
986.977	104.56
987.142	102.62
987.306	66
987.47	80.15
987.634	110.57
987.799	122.38
987.963	127.42
988.127	153
988.291	156.29
988.455	111.53
988.62	90.22
988.784	126.06
988.948	134.01
989.112	82.86
989.276	84.41
989.44	109.6
989.604	58.83
989.768	73.75
989.932	177.41
990.096	84.41
990.26	79.18
990.424	52.25
990.588	114.63
990.752	163.46
990.915	142.53
991.079	74.53
991.243	102.23
991.407	141.37
991.571	102.43
991.734	107.27
991.898	106.5
992.062	153.58
992.226	104.37
992.389	74.14
992.553	35.78
992.717	67.55
992.88	94.48
993.044	113.67
993.207	97.39
993.371	119.67
993.535	144.66
993.698	78.4
993.862	114.05
994.025	131.1
994.189	105.14
994.352	97.2
994.515	101.65
994.679	134.78
994.842	88.87
995.006	150.48
995.169	89.25
995.332	81.5
995.496	121.03
995.659	32.29
995.822	76.27
995.985	79.37
996.149	136.91
996.312	88.09
996.475	166.95
996.638	81.89
996.801	153.96
996.964	171.79
997.128	72.98
997.291	109.02
997.454	91
997.617	47.4
997.78	118.7
997.943	72.01
998.106	113.28
998.269	81.31
998.432	92.55
998.595	82.67
998.758	37.13
998.92	24.54
999.083	9.43
999.246	73.37
999.409	57.67
999.572	24.74
999.735	34.23
999.897	91.77
1000.06	60.19
1000.223	67.94
1000.386	107.47
1000.548	83.63
1000.711	103.2
1000.874	120.64
1001.036	11.95
1001.199	103.59
1001.361	50.89
1001.524	85.77
1001.687	107.08
1001.849	31.32
1002.012	58.64
1002.174	105.14
1002.337	105.53
1002.499	86.73
1002.661	110.95
1002.824	47.21
1002.986	43.72
1003.149	88.67
1003.311	62.52
1003.473	91.58
1003.636	50.31
1003.798	71.82
1003.96	95.65
1004.123	77.43
1004.285	74.92
1004.447	60.97
1004.609	75.3
1004.771	135.75
1004.933	25.32
1005.096	44.5
1005.258	12.14
1005.42	60.77
1005.582	98.94
1005.744	82.67
1005.906	33.26
1006.068	76.27
1006.23	1.68
1006.392	3.42
1006.554	47.4
1006.716	95.26
1006.878	96.03
1007.04	25.12
1007.202	35.39
1007.363	64.84
1007.525	105.72
1007.687	84.6
1007.849	115.22
1008.011	26.67
1008.172	25.51
1008.334	42.75
1008.496	76.85
1008.658	17.76
1008.819	24.15
1008.981	32.1
1009.143	43.72
1009.304	59.8
1009.466	93.9
1009.627	115.02
1009.789	174.5
1009.95	58.64
1010.112	38.3
1010.273	63.1
1010.435	11.75
1010.596	27.45
1010.758	67.75
1010.919	63.1
1011.081	20.67
1011.242	18.73
1011.403	53.99
1011.565	55.54
1011.726	89.83
1011.887	11.37
1012.049	44.5
1012.21	41.98
1012.371	129.94
1012.532	-23.7
1012.693	57.48
1012.855	40.43
1013.016	47.6
1013.177	79.95
1013.338	59.42
1013.499	90.03
1013.66	71.04
1013.821	65.03
1013.982	41.98
1014.143	54.77
1014.304	31.13
1014.465	62.71
1014.626	65.81
1014.787	47.98
1014.948	114.25
1015.109	-41.33
1015.27	75.5
1015.431	9.43
1015.592	4.97
1015.752	99.13
1015.913	28.8
1016.074	45.85
1016.235	21.05
1016.395	28.42
1016.556	37.72
1016.717	9.82
1016.877	89.25
1017.038	26.29
1017.199	53.99
1017.359	37.52
1017.52	67.94
1017.681	33.45
1017.841	55.35
1018.002	36.36
1018.162	30.55
1018.323	99.13
1018.483	22.99
1018.644	6.52
1018.804	28.42
1018.964	-13.63
1019.125	2.65
1019.285	50.5
1019.446	0.9
1019.606	-2.78
1019.766	-15.56
1019.926	65.23
1020.087	42.75
1020.247	6.33
1020.407	51.28
1020.567	89.45
1020.728	46.24
1020.888	4.97
1021.048	-11.3
1021.208	-3.36
1021.368	-16.92
1021.528	47.21
1021.688	68.91
1021.848	76.47
1022.008	92.55
1022.168	13.3
1022.328	35.97
1022.488	46.43
1022.648	28.8
1022.808	27.64
1022.968	56.9
1023.128	-14.6
1023.288	6.14
1023.448	47.79
1023.608	57.28
1023.767	46.43
1023.927	9.04
1024.087	-7.43
1024.247	4.39
1024.406	-15.18
1024.566	12.92
1024.726	6.33
1024.885	27.45
1025.045	49.73
1025.205	35.97
1025.364	5.94
1025.524	38.1
1025.683	-20.6
1025.843	16.6
1026.003	41.59
1026.162	73.75
1026.321	49.92
1026.481	26.87
1026.64	24.54
1026.8	50.31
1026.959	8.46
1027.119	-12.46
1027.278	19.12
1027.437	5.94
1027.597	13.69
1027.756	44.11
1027.915	28.61
1028.074	54.96
1028.234	5.94
1028.393	20.28
1028.552	15.63
1028.711	-48.5
1028.87	87.12
1029.03	-24.28
1029.189	26.48
1029.348	-17.5
1029.507	-1.81
1029.666	-20.6
1029.825	-18.47
1029.984	-8.4
1030.143	16.79
1030.302	-6.85
1030.461	-38.04
1030.62	5.75
1030.779	32.1
1030.938	-11.69
1031.097	-19.83
1031.255	40.62
1031.414	78.6
1031.573	42.17
1031.732	-36.49
1031.891	-0.45
1032.049	69.3
1032.208	30.55
1032.367	-41.14
1032.525	6.33
1032.684	-5.49
1032.843	32.68
1033.001	-18.08
1033.16	143.7
1033.319	84.41
1033.477	53.6
1033.636	-11.3
1033.794	-26.22
1033.953	34.03
1034.111	20.86
1034.27	4.97
1034.428	35.39
1034.587	-16.53
1034.745	52.05
1034.903	-7.62
1035.062	45.85
1035.22	-35.13
1035.378	57.87
1035.537	-10.72
1035.695	33.84
1035.853	26.87
1036.011	23.57
1036.17	36.94
1036.328	-49.28
1036.486	21.83
1036.644	10.2
1036.802	-66.71
1036.96	-10.33
1037.119	9.43
1037.277	4.59
1037.435	-49.66
1037.593	16.4
1037.751	11.95
1037.909	53.02
1038.067	53.02
