Data from calibration2_FLMT105791__3__17-17-45-084.txt Node

Date: Mon Mar 20 17:17:45 GMT 2023
User: antho
Spectrometer: FLMT10579
Trigger mode: 0
Integration Time (sec): 1.000000E-1
Scans to average: 10
Electric dark correction enabled: true
Nonlinearity correction enabled: false
Boxcar width: 0
XAxis mode: Wavelengths
Number of Pixels in Spectrum: 3648
>>>>>Begin Spectral Data<<<<<
345.248	-161.34
345.464	-161.34
345.681	-161.34
345.898	-179.36
346.114	-128.99
346.331	-48.39
346.548	34.34
346.764	19.42
346.981	-8.28
347.197	-2.86
347.414	-3.25
347.631	-37.15
347.847	66.89
348.064	1.99
348.28	31.24
348.497	-37.34
348.713	-16.61
348.93	44.22
349.146	94.21
349.363	93.43
349.579	120.17
349.796	102.15
350.012	94.02
350.229	120.37
350.445	112.42
350.661	88.78
350.878	114.36
351.094	108.16
351.311	131.41
351.527	118.43
351.743	114.36
351.96	128.89
352.176	164.73
352.392	144.2
352.609	150.2
352.825	94.21
353.041	126.76
353.257	142.45
353.474	131.22
353.69	130.25
353.906	155.05
354.122	99.44
354.339	180.81
354.555	166.28
354.771	134.9
354.987	207.36
355.203	178.3
355.42	130.25
355.636	122.88
355.852	144.39
356.068	165.7
356.284	130.25
356.5	208.33
356.716	179.07
356.932	127.53
357.148	196.31
357.364	130.05
357.58	169.19
357.796	219.95
358.012	178.49
358.228	139.16
358.444	102.15
358.66	171.71
358.876	157.18
359.092	98.08
359.308	139.74
359.524	168.22
359.74	201.93
359.956	168.03
360.172	221.11
360.388	266.06
360.604	190.31
360.819	268.97
361.035	192.05
361.251	193.21
361.467	172.1
361.683	214.14
361.898	209.88
362.114	236.42
362.33	213.17
362.546	237
362.762	215.69
362.977	255.79
363.193	183.91
363.409	272.46
363.624	182.17
363.84	211.23
364.056	184.88
364.271	269.74
364.487	246.3
364.703	241.26
364.918	244.56
365.134	233.71
365.35	239.91
365.565	357.32
365.781	320.7
365.996	316.63
366.212	372.62
366.427	330
366.643	326.51
366.858	299.39
367.074	274.01
367.289	386.96
367.505	436.75
367.72	295.13
367.936	325.35
368.151	377.47
368.367	319.93
368.582	304.62
368.798	294.74
369.013	348.21
369.228	335.23
369.444	351.12
369.659	392
369.874	357.32
370.09	410.02
370.305	307.91
370.52	334.46
370.736	402.85
370.951	357.32
371.166	376.11
371.381	389.87
371.597	400.52
371.812	350.34
372.027	333.49
372.242	373.21
372.458	412.34
372.673	342.79
372.888	334.65
373.103	365.65
373.318	418.54
373.533	329.81
373.749	297.06
373.964	248.63
374.179	324.38
374.394	269.16
374.609	366.81
374.824	270.71
375.039	340.46
375.254	276.14
375.469	390.26
375.684	373.21
375.899	428.62
376.114	392.19
376.329	374.37
376.544	409.63
376.759	423.97
376.974	371.27
377.189	376.89
377.404	364.49
377.619	441.4
377.834	388.71
378.049	421.25
378.264	421.25
378.478	517.93
378.693	478.99
378.908	510.57
379.123	483.84
379.338	483.06
379.553	451.48
379.767	421.45
379.982	455.94
380.197	463.49
380.412	397.62
380.626	501.47
380.841	559.01
381.056	520.65
381.271	576.06
381.485	507.86
381.7	451.67
381.915	510.77
382.129	417.77
382.344	434.62
382.559	406.14
382.773	436.37
382.988	324.96
383.202	375.92
383.417	323.41
383.632	444.5
383.846	342.79
384.061	364.29
384.275	377.08
384.49	420.29
384.704	485
384.919	499.72
385.133	514.64
385.348	554.17
385.562	485.58
385.777	549.13
385.991	482.09
386.206	531.11
386.42	481.51
386.634	543.7
386.849	540.99
387.063	556.3
387.277	528.78
387.492	512.9
387.706	516
387.92	508.25
388.135	575.09
388.349	589.82
388.563	559.59
388.778	562.3
388.992	588.46
389.206	573.73
389.42	656.85
389.635	611.9
389.849	692.11
390.063	755.28
390.277	704.51
390.491	787.63
390.706	738.81
390.92	766.12
391.134	751.79
391.348	781.43
391.562	781.62
391.776	847.69
391.99	797.12
392.205	845.95
392.419	745.39
392.633	710.13
392.847	711.1
393.061	612.68
393.275	611.51
393.489	477.25
393.703	449.15
393.917	455.74
394.131	452.06
394.345	575.87
394.559	668.48
394.773	673.71
394.986	750.82
395.2	830.84
395.414	907.95
395.628	878.69
395.842	965.3
396.056	898.07
396.27	814.76
396.484	835.1
396.697	718.85
396.911	654.72
397.125	586.13
397.339	587.88
397.553	581.48
397.766	710.71
397.98	818.82
398.194	956.38
398.408	991.84
398.621	1081.35
398.835	1176.29
399.049	1157.3
399.262	1280.91
399.476	1318.11
399.69	1305.9
399.903	1353.37
400.117	1272.58
400.331	1341.36
400.544	1298.35
400.758	1473.69
400.971	1375.85
401.185	1404.52
401.398	1371.39
401.612	1466.91
401.826	1449.28
402.039	1481.25
402.253	1466.13
402.466	1552.74
402.68	1521.93
402.893	1570.95
403.106	1546.93
403.32	1499.26
403.533	1516.7
403.747	1456.06
403.96	1528.13
404.174	1571.53
404.387	1526.39
404.6	1552.93
404.814	1555.45
405.027	1533.75
405.24	1524.26
405.454	1476.21
405.667	1564.56
405.88	1553.71
406.094	1575.79
406.307	1599.04
406.52	1543.44
406.733	1473.3
406.947	1489
407.16	1594.01
407.373	1600.59
407.586	1569.4
407.799	1594.39
408.012	1633.73
408.226	1678.09
408.439	1755.79
408.652	1684.49
408.865	1785.24
409.078	1877.07
409.291	1829.22
409.504	1778.26
409.717	1849.37
409.93	1803.25
410.143	1705.8
410.357	1573.28
410.57	1509.15
410.783	1599.82
410.996	1677.71
411.209	1730.99
411.421	1904.97
411.634	1930.74
411.847	1873.2
412.06	1966.58
412.273	2003.78
412.486	1968.71
412.699	2021.99
412.912	2004.17
413.125	1985.57
413.338	1969.49
413.55	1910.4
413.763	1917.18
413.976	1986.73
414.189	1958.64
414.402	1978.21
414.615	2102.01
414.827	1994.29
415.04	2012.31
415.253	2045.05
415.466	2095.62
415.678	2099.11
415.891	2095.23
416.104	2004.56
416.316	2046.21
416.529	2104.72
416.742	2192.69
416.954	2208.77
417.167	2127.01
417.38	2132.62
417.592	2110.92
417.805	2006.49
418.017	2050.28
418.23	2082.25
418.442	1997.97
418.655	2053.38
418.868	2059.19
419.08	2139.79
419.293	2153.36
419.505	2163.62
419.718	2152.39
419.93	2188.81
420.142	2103.37
420.355	2146.19
420.567	2115.77
420.78	2155.1
420.992	2189
421.205	2244.42
421.417	2319.59
421.629	2323.08
421.842	2335.09
422.054	2280.65
422.266	2364.15
422.479	2314.75
422.691	2199.85
422.903	2190.36
423.115	2133.4
423.328	2127.2
423.54	2207.6
423.752	2200.44
423.964	2261.66
424.177	2317.27
424.389	2296.34
424.601	2424.21
424.813	2349.81
425.025	2389.53
425.238	2382.36
425.45	2356.01
425.662	2337.41
425.874	2638.69
426.086	2354.85
426.298	2434.09
426.51	2334.51
426.722	2356.79
426.934	2363.18
427.146	2427.31
427.358	2342.06
427.57	2390.11
427.782	2304.28
427.994	2288.2
428.206	2306.42
428.418	2404.65
428.63	2494.54
428.842	2482.92
429.054	2386.24
429.266	2384.69
429.478	2340.71
429.69	2287.82
429.902	2237.64
430.114	2246.94
430.325	2100.66
430.537	1972.01
430.749	1945.85
430.961	1790.66
431.173	1893.15
431.384	1955.93
431.596	1967.94
431.808	2270.77
432.02	2520.51
432.231	2745.45
432.443	2876.03
432.655	2762.3
432.867	2694.88
433.078	2719.68
433.29	2780.32
433.502	2820.62
433.713	2893.08
433.925	2934.93
434.136	2865.38
434.348	2620.48
434.56	2537.75
434.771	2752.62
434.983	2608.47
435.194	2842.71
435.406	2985.11
435.617	3013.4
435.829	3066.29
436.04	3114.15
436.252	3043.82
436.463	3184.87
436.675	3309.06
436.886	3317.78
437.098	3366.41
437.309	3391.59
437.521	3270.5
437.732	3171.69
437.943	3129.45
438.155	3108.14
438.366	3044.98
438.578	3150.96
438.789	2997.32
439	2976.78
439.211	2980.07
439.423	3018.82
439.634	3108.72
439.845	3277.28
440.057	3261.4
440.268	3417.56
440.479	3340.83
440.69	3371.44
440.902	3290.65
441.113	3267.21
441.324	3333.86
441.535	3514.82
441.746	3582.82
441.957	3569.84
442.168	3607.82
442.38	3640.17
442.591	3671.95
442.802	3591.15
443.013	3746.54
443.224	3780.44
443.435	3676.79
443.646	3679.5
443.857	3612.85
444.068	3707.6
444.279	3629.71
444.49	3884.1
444.701	3763.98
444.912	3985.24
445.123	3915.87
445.334	3803.5
445.545	3831.21
445.756	3736.08
445.967	3689.19
446.178	3605.68
446.388	3604.52
446.599	3676.01
446.81	3683.76
447.021	3702.75
447.232	3825.01
447.443	3916.26
447.653	3946.68
447.864	4061.18
448.075	4042.2
448.286	4078.23
448.496	3947.84
448.707	4042
448.918	3924.98
449.129	4079.01
449.339	3998.22
449.55	4070.29
449.761	4065.83
449.971	4025.53
450.182	4122.21
450.393	4197.97
450.603	4101.48
450.814	4339.41
451.024	4312.09
451.235	4494.02
451.446	4432.6
451.656	4452.36
451.867	4355.87
452.077	4228.19
452.288	4352
452.498	4286.9
452.709	4280.12
452.919	4132.68
453.13	4076.88
453.34	4039.29
453.55	3861.04
453.761	4133.84
453.971	4002.28
454.182	4153.8
454.392	4200.29
454.602	4374.09
454.813	4366.92
455.023	4237.88
455.233	4207.66
455.444	4349.67
455.654	4116.79
455.864	4237.11
456.075	4352.77
456.285	4299.49
456.495	4335.34
456.705	4428.72
456.916	4531.6
457.126	4621.11
457.336	4499.44
457.546	4404.5
457.756	4497.5
457.967	4582.56
458.177	4459.92
458.387	4468.05
458.597	4365.17
458.807	4428.72
459.017	4386.87
459.227	4397.72
459.437	4361.49
459.647	4498.28
459.857	4493.82
460.068	4528.7
460.278	4584.88
460.488	4533.93
460.698	4574.61
460.908	4576.75
461.117	4694.54
461.327	4718.76
461.537	4836.95
461.747	4797.23
461.957	4772.43
462.167	4916.38
462.377	4843.54
462.587	4784.83
462.797	4971.02
463.007	4802.07
463.216	5000.86
463.426	5144.81
463.636	4965.4
463.846	4802.85
464.056	4859.23
464.265	4831.33
464.475	4790.06
464.685	4973.54
464.895	4918.52
465.104	4823.19
465.314	4988.26
465.524	4826.49
465.733	4891
465.943	5082.23
466.153	5167.29
466.362	5184.92
466.572	5125.05
466.782	4983.03
466.991	5142.49
467.201	5075.26
467.41	4938.08
467.62	5081.46
467.829	5128.54
468.039	5244.01
468.249	5215.34
468.458	5294.58
468.668	5301.55
468.877	5374.4
469.086	5380.99
469.296	5567.38
469.505	5589.46
469.715	5541.99
469.924	5472.05
470.134	5601.28
470.343	5443.38
470.552	5435.05
470.762	5352.12
470.971	5453.65
471.18	5521.07
471.39	5624.92
471.599	5509.83
471.808	5671.03
472.018	5828.55
472.227	5912.44
472.436	6112.77
472.645	6059.69
472.855	6022.87
473.064	6273.58
473.273	6249.95
473.482	6041.86
473.691	6250.53
473.901	6128.85
474.11	6042.44
474.319	6220.5
474.528	6258.28
474.737	6535.14
474.946	6469.27
475.155	6573.5
475.364	6641.9
475.573	6557.23
475.783	6653.13
475.992	6607.41
476.201	6651.97
476.41	6663.6
476.619	6554.52
476.828	6569.44
477.037	6583.77
477.245	6600.63
477.454	6666.31
477.663	6831.38
477.872	7024.74
478.081	7244.45
478.29	7046.25
478.499	7314.39
478.708	7357.02
478.917	7380.66
479.125	7179.35
479.334	7236.89
479.543	7425.02
479.752	7495.74
479.961	7471.72
480.169	7673.79
480.378	7780.16
480.587	7934.58
480.796	7794.11
481.004	7800.12
481.213	7910.36
481.422	7971
481.63	8153.51
481.839	8174.83
482.048	8287.2
482.256	8248.06
482.465	8458.66
482.674	8313.94
482.882	8418.75
483.091	8507.88
483.299	8343.19
483.508	8587.51
483.716	8668.69
483.925	8659.58
484.134	8448.98
484.342	8576.85
484.551	8572.39
484.759	8540.23
484.967	8883.55
485.176	8790.75
485.384	8809.73
485.593	8684.19
485.801	8608.63
486.01	8292.82
486.218	7890.4
486.426	7605.4
486.635	7399.84
486.843	7442.07
487.051	7710.8
487.26	7828.41
487.468	8068.85
487.676	8311.61
487.885	8556.7
488.093	8737.66
488.301	9078.85
488.509	9037.97
488.717	9201.1
488.926	9262.91
489.134	9119.92
489.342	9161.19
489.55	9056.18
489.758	9235.2
489.967	9569.22
490.175	9559.92
490.383	9856.55
490.591	10065.41
490.799	9949.36
491.007	9910.03
491.215	9967.96
491.423	9930.18
491.631	9906.93
491.839	9818.58
492.047	9768.78
492.255	9518.85
492.463	9523.11
492.671	9405.9
492.879	9772.08
493.087	9840.28
493.295	9861.59
493.503	10013.87
493.711	10316.7
493.919	10244.82
494.127	10176.43
494.334	10129.15
494.542	10224.67
494.75	10474.99
494.958	10312.44
495.166	10673.58
495.374	10704.78
495.581	10749.34
495.789	10697.61
495.997	10700.32
496.205	10414.54
496.412	10508.12
496.62	10738.29
496.828	10639.48
497.035	10727.83
497.243	10833.62
497.451	10843.69
497.658	10919.25
497.866	10755.15
498.074	10958.59
498.281	10689.47
498.489	10773.75
498.696	10560.82
498.904	10483.9
499.112	10452.52
499.319	10709.62
499.527	10893.49
499.734	10896.01
499.942	10815.21
500.149	10832.07
500.357	10888.84
500.564	10607.32
500.771	10549.78
500.979	10449.42
501.186	10344.02
501.394	10641.03
501.601	10344.79
501.808	10350.22
502.016	10405.24
502.223	10325.81
502.43	10446.12
502.638	10470.15
502.845	10593.57
503.052	10807.85
503.26	10871.98
503.467	10924.68
503.674	10916.35
503.881	10884.57
504.089	10866.75
504.296	10820.44
504.503	10629.02
504.71	10549.97
504.917	10761.54
505.125	10746.82
505.332	10968.08
505.539	10886.12
505.746	11282.34
505.953	11336.97
506.16	11373.98
506.367	11420.09
506.574	11571.02
506.781	11596.4
506.988	11458.65
507.195	11395.87
507.402	11375.53
507.609	11373.4
507.816	11152.33
508.023	11200.96
508.23	11091.11
508.437	10881.28
508.644	11055.65
508.851	11187.79
509.058	11381.54
509.265	11320.31
509.472	11549.9
509.679	11570.83
509.885	11548.35
510.092	11545.83
510.299	11462.33
510.506	11332.52
510.713	11410.02
510.92	11369.14
511.126	11469.69
511.333	11623.91
511.54	11624.11
511.746	11711.1
511.953	11730.47
512.16	11990.48
512.367	11786.08
512.573	11650.46
512.78	11569.08
512.987	11623.72
513.193	11459.62
513.4	11239.71
513.606	11420.09
513.813	11437.53
514.02	11353.25
514.226	11355.57
514.433	11405.95
514.639	11206.39
514.846	11241.07
515.052	11244.94
515.259	11360.61
515.465	11395.1
515.672	11448.77
515.878	11548.74
516.085	11630.11
516.291	11599.11
516.497	11509.22
516.704	11091.3
516.91	10860.74
517.117	10400.01
517.323	10114.43
517.529	10115.78
517.736	10029.18
517.942	10154.15
518.148	10392.26
518.354	10512.58
518.561	10550.55
518.767	10481.39
518.973	10477.51
519.179	10781.11
519.386	10879.73
519.592	10825.48
519.798	10905.5
520.004	11399.75
520.21	11344.14
520.417	11453.61
520.623	11433.85
520.829	11518.9
521.035	11633.99
521.241	11454
521.447	11547
521.653	11827.15
521.859	11655.3
522.065	11846.14
522.271	11963.75
522.477	11859.7
522.683	11914.73
522.889	11701.22
523.095	11571.99
523.301	11623.91
523.507	11515.22
523.713	11566.56
523.919	11500.69
524.125	11855.25
524.331	11931.97
524.537	12188.11
524.742	12223.56
524.948	12211.55
525.154	12176.87
525.36	12232.67
525.566	12093.75
525.772	12208.26
525.977	12048.41
526.183	12008.5
526.389	12041.05
526.595	11597.95
526.8	11485.77
527.006	11071.54
527.212	10873.72
527.417	10772.39
527.623	10906.47
527.829	11092.46
528.034	11322.83
528.24	11372.04
528.446	11659.56
528.651	11912.02
528.857	11961.03
529.062	12029.23
529.268	12143.74
529.473	12348.33
529.679	12463.61
529.884	12381.66
530.09	12267.15
530.295	12039.69
530.501	12270.06
530.706	12203.99
530.912	12317.72
531.117	12375.07
531.323	12344.65
531.528	12533.75
531.733	12509.73
531.939	12465.94
532.144	12389.6
532.35	12332.83
532.555	12377.78
532.76	11975.56
532.966	12001.53
533.171	11878.69
533.376	11710.32
533.581	11789.37
533.787	11911.05
533.992	12220.07
534.197	11981.57
534.402	12207.48
534.607	12242.16
534.813	12235.38
535.018	12138.12
535.223	12384.95
535.428	12339.81
535.633	12512.83
535.838	12655.42
536.043	12720.33
536.249	12848.2
536.454	12675.19
536.659	12675.96
536.864	12577.34
537.069	12470.4
537.274	12396.77
537.479	12364.03
537.684	12276.45
537.889	12290.6
538.094	12633.53
538.299	12427.77
538.504	12632.37
538.708	12538.4
538.913	12763.92
539.118	12625.59
539.323	12555.84
539.528	12440.36
539.733	12411.11
539.938	12414.6
540.142	12323.73
540.347	12247
540.552	12177.26
540.757	11984.86
540.962	12138.12
541.166	12026.71
541.371	11971.11
541.576	12052.29
541.781	12107.31
541.985	12400.65
542.19	12227.82
542.395	12591.49
542.599	12564.17
542.804	12378.17
543.008	12530.65
543.213	12483.57
543.418	12354.15
543.622	12535.49
543.827	12213.29
544.031	12484.15
544.236	12594.39
544.44	12728.47
544.645	12770.51
544.849	12650.58
545.054	12723.43
545.258	12852.46
545.463	12852.66
545.667	12664.53
545.872	12792.79
546.076	12710.25
546.281	12709.67
546.485	12662.2
546.689	12746.1
546.894	12686.23
547.098	12839.87
547.302	12701.54
547.507	12647.29
547.711	12778.26
547.915	12706.19
548.119	12509.53
548.324	12459.93
548.528	12635.86
548.732	12622.87
548.936	12739.32
549.141	12741.83
549.345	12667.44
549.549	12774.38
549.753	12823.79
549.957	12826.89
550.161	12920.08
550.366	12947.59
550.57	12731.95
550.774	12777.29
550.978	12783.3
551.182	12828.83
551.386	12604.47
551.59	12768.38
551.794	12701.54
551.998	12828.83
552.202	12811.2
552.406	12825.15
552.61	12917.56
552.814	12829.99
553.018	12779.62
553.222	12621.91
553.426	12762.76
553.63	12778.07
553.833	12804.22
554.037	12638.57
554.241	12729.63
554.445	12857.5
554.649	12848.01
554.853	12757.53
555.056	12865.83
555.26	12951.28
555.464	12892.18
555.668	12971.23
555.871	12873.2
556.075	12942.75
556.279	12799.38
556.483	12685.65
556.686	12638.57
556.89	12668.21
557.094	12618.61
557.297	12457.61
557.501	12504.49
557.704	12311.72
557.908	12506.82
558.112	12477.18
558.315	12526.97
558.519	12512.24
558.722	12348.53
558.926	12321.21
559.129	11978.66
559.333	12240.42
559.536	12146.45
559.74	11993.78
559.943	11943.79
560.147	12051.71
560.35	11977.89
560.553	12271.22
560.757	12221.24
560.96	12287.3
561.164	12318.69
561.367	12533.56
561.57	12395.8
561.774	12320.24
561.977	12280.14
562.18	12240.03
562.384	12346.98
562.587	12156.14
562.79	12289.44
562.993	12180.36
563.197	12225.69
563.4	12386.89
563.603	12386.89
563.806	12408.59
564.009	12302.8
564.212	12354.34
564.416	12101.5
564.619	12272.77
564.822	12041.24
565.025	12325.28
565.228	12172.02
565.431	12286.72
565.634	12103.44
565.837	12042.02
566.04	11908.72
566.243	11792.09
566.446	11677.39
566.649	11930.03
566.852	11791.31
567.055	11942.43
567.258	11937.98
567.461	12134.63
567.664	12140.64
567.867	12047.25
568.07	12002.88
568.273	12064.49
568.475	12141.99
568.678	11822.31
568.881	11847.3
569.084	11650.84
569.287	11577.03
569.489	11691.92
569.692	11734.74
569.895	11777.94
570.098	11656.66
570.3	11619.84
570.503	11524.13
570.706	11529.95
570.909	11505.34
571.111	11298.42
571.314	11246.88
571.516	11272.84
571.719	11386.57
571.922	11326.71
572.124	11417.19
572.327	11603.38
572.529	11451.48
572.732	11629.14
572.935	11700.44
573.137	11921.51
573.34	11574.12
573.542	11777.55
573.745	11712.26
573.947	11770.39
574.15	11583.03
574.352	11671.38
574.554	11768.45
574.757	11649.29
574.959	11357.32
575.162	11596.4
575.364	11380.37
575.566	11529.95
575.769	11388.9
575.971	11448.77
576.173	11121.53
576.376	11314.31
576.578	11403.24
576.78	11391.22
576.982	11322.06
577.185	11429.39
577.387	11374.95
577.589	11473.95
577.791	11388.32
577.993	11443.34
578.196	11465.82
578.398	11330.39
578.6	11227.51
578.802	11202.9
579.004	11175.58
579.206	11184.11
579.408	11389.29
579.61	11160.47
579.812	11432.49
580.014	11312.95
580.216	11335.42
580.418	11488.87
580.62	11515.03
580.822	11481.51
581.024	11556.68
581.226	11621.59
581.428	11537.89
581.63	11800.03
581.832	11668.09
582.034	11771.55
582.236	11738.22
582.438	11880.24
582.64	11820.37
582.841	11869.78
583.043	12083.87
583.245	11878.3
583.447	11934.49
583.649	11948.25
583.85	11907.56
584.052	11959.48
584.254	11863
584.456	11969.17
584.657	11863.19
584.859	11985.64
585.061	11863.58
585.262	11851.37
585.464	11733.57
585.666	11781.24
585.867	11586.13
586.069	11670.8
586.27	11526.65
586.472	11609.58
586.674	11546.61
586.875	11610.93
587.077	11632.83
587.278	11692.69
587.48	11626.04
587.681	11802.35
587.883	11760.7
588.084	11478.6
588.285	11563.27
588.487	11264.51
588.688	11303.46
588.89	10970.21
589.091	10775.49
589.292	10554.62
589.494	10219.44
589.695	10162.09
589.896	9929.98
590.098	10062.89
590.299	10086.92
590.5	10263.42
590.702	10460.66
590.903	10616.23
591.104	10776.27
591.305	10885.16
591.507	10877.99
591.708	10889.22
591.909	10921.39
592.11	10911.12
592.311	11059.53
592.512	10898.72
592.714	10863.26
592.915	10954.52
593.116	10895.81
593.317	11130.44
593.518	11096.15
593.719	11119.59
593.92	11104.48
594.121	11143.03
594.322	11079.48
594.523	11002.37
594.724	10853.57
594.925	10919.64
595.126	10782.08
595.327	10789.64
595.528	10947.15
595.729	10945.99
595.929	10985.13
596.13	10981.25
596.331	11113
596.532	11057.98
596.733	11184.69
596.934	11208.33
597.135	11247.08
597.335	11129.08
597.536	11078.51
597.737	11212.98
597.938	11042.87
598.138	11082.78
598.339	11102.35
598.54	11238.74
598.74	10941.34
598.941	11025.43
599.142	11166.67
599.342	11144.78
599.543	11038.99
599.744	11154.27
599.944	11140.32
600.145	11178.29
600.345	11103.7
600.546	11214.72
600.746	11222.08
600.947	11287.96
601.147	11050.81
601.348	11223.24
601.548	11073.28
601.749	11077.35
601.949	11029.88
602.15	11016.71
602.35	10888.64
602.551	10987.65
602.751	11015.74
602.951	11052.94
603.152	11027.17
603.352	11083.94
603.552	11166.67
603.753	11191.08
603.953	11270.52
604.153	11290.67
604.354	11220.73
604.554	11268
604.754	11270.32
604.954	11232.93
605.155	11376.3
605.355	11204.84
605.555	11259.67
605.755	11298.03
605.955	11189.92
606.155	11206.78
606.356	11243.01
606.556	11146.13
606.756	11223.24
606.956	11202.71
607.156	11311.01
607.356	11107.77
607.556	11181.01
607.756	11251.53
607.956	11275.36
608.156	11233.71
608.356	11008.38
608.556	11196.51
608.756	11018.07
608.956	11108.35
609.156	11071.93
609.356	11040.93
609.556	10952.58
609.755	11006.63
609.955	10930.69
610.155	10927.97
610.355	10999.08
610.555	10817.73
610.755	10821.8
610.954	10785.38
611.154	10929.33
611.354	10939.99
611.554	10846.02
611.753	10963.62
611.953	10822.96
612.153	10918.09
612.352	10856.48
612.552	10743.53
612.752	10737.91
612.951	10878.57
613.151	10772.78
613.351	10846.21
613.55	10844.47
613.75	10743.14
613.949	10579.62
614.149	10689.08
614.348	10703.81
614.548	10623.6
614.747	10586.01
614.947	10690.63
615.146	10606.35
615.346	10817.34
615.545	10767.55
615.745	10724.54
615.944	10692.57
616.144	10628.63
616.343	10476.54
616.542	10576.9
616.742	10379.09
616.941	10374.63
617.14	10239.78
617.34	10370.37
617.539	10441.09
617.738	10424.42
617.938	10610.23
618.137	10456.2
618.336	10575.35
618.535	10708.65
618.734	10611.58
618.934	10672.03
619.133	10572.64
619.332	10773.36
619.531	10507.74
619.73	10670.29
619.929	10628.63
620.128	10666.8
620.328	10643.94
620.527	10594.15
620.726	10707.49
620.925	10638.71
621.124	10715.63
621.323	10572.25
621.522	10427.72
621.721	10659.25
621.92	10419.39
622.119	10594.15
622.318	10411.83
622.517	10405.24
622.715	10400.79
622.914	10369.59
623.113	10397.11
623.312	10155.89
623.511	10312.24
623.71	10305.85
623.909	10162.67
624.107	10414.16
624.306	10212.46
624.505	10186.5
624.704	10192.9
624.902	10003.8
625.101	10156.08
625.3	10048.17
625.499	9985.39
625.697	10037.51
625.896	9946.26
626.095	9929.59
626.293	9898.59
626.492	9927.66
626.69	10017.94
626.889	10074.52
627.088	10015.81
627.286	9979
627.485	9829.81
627.683	9806.18
627.882	9727.13
628.08	9547.14
628.279	9426.63
628.477	9562.83
628.676	9315.22
628.874	9485.53
629.073	9404.35
629.271	9563.02
629.469	9611.85
629.668	9565.35
629.866	9399.11
630.065	9481.46
630.263	9511.29
630.461	9419.84
630.66	9508.39
630.858	9496.96
631.056	9610.1
631.254	9573.68
631.453	9495.99
631.651	9610.3
631.849	9525.44
632.047	9464.02
632.245	9491.53
632.444	9499.09
632.642	9721.9
632.84	9794.94
633.038	9602.94
633.236	9585.31
633.434	9703.88
633.632	9708.72
633.83	9543.07
634.028	9715.31
634.227	9633.35
634.425	9873.41
634.623	9652.92
634.821	9790.48
635.019	9759.87
635.216	9855
635.414	9913.51
635.612	9746.7
635.81	9719.96
636.008	9791.65
636.206	9775.37
636.404	9742.43
636.602	9704.85
636.8	9599.64
636.997	9805.98
637.195	9797.65
637.393	9758.9
637.591	9954.01
637.789	9882.9
637.986	9911.58
638.184	9861.59
638.382	9948.19
638.58	9907.12
638.777	10015.62
638.975	9923.2
639.173	9895.11
639.37	9884.45
639.568	9933.47
639.765	9885.81
639.963	9744.18
640.161	9757.93
640.358	9851.71
640.556	9653.89
640.753	9742.63
640.951	9631.03
641.148	9730.42
641.346	9661.64
641.543	9656.02
641.741	9692.64
641.938	9586.47
642.136	9669.39
642.333	9510.91
642.531	9760.65
642.728	9744.37
642.925	9779.63
643.123	9709.11
643.32	9712.98
643.517	9648.08
643.715	9590.92
643.912	9695.16
644.109	9663.58
644.306	9674.43
644.504	9627.54
644.701	9717.05
644.898	9673.65
645.095	9592.86
645.293	9586.27
645.49	9577.36
645.687	9517.49
645.884	9601.39
646.081	9371.99
646.278	9353.97
646.475	9346.8
646.672	9293.52
646.87	9325.49
647.067	9296.43
647.264	9239.47
647.461	9155.57
647.658	9005.23
647.855	9165.45
648.052	8984.3
648.249	8925.79
648.446	9018.01
648.642	9105.78
648.839	8848.87
649.036	9046.3
649.233	8960.66
649.43	8899.63
649.627	8694.26
649.824	8901.57
650.021	8767.11
650.217	8869.6
650.414	8951.36
650.611	8978.49
650.808	9118.37
651.004	9130.97
651.201	9123.61
651.398	9245.08
651.595	9118.18
651.791	9011.62
651.988	9080.98
652.185	8796.75
652.381	9061.41
652.578	8953.69
652.775	9010.46
652.971	9094.93
653.168	8981.01
653.364	9183.47
653.561	8987.59
653.757	9095.12
653.954	9166.23
654.15	8998.83
654.347	9118.37
654.543	9051.14
654.74	8934.9
654.936	8884.13
655.133	8849.45
655.329	8873.28
655.525	8654.74
655.722	8761.49
655.918	8484.82
656.115	8235.66
656.311	8000.26
656.507	7766.21
656.704	7597.65
656.9	7732.89
657.096	7894.47
657.292	7888.66
657.489	8051.41
657.685	8218.42
657.881	8234.5
658.077	8309.48
658.273	8520.66
658.47	8622.38
658.666	8618.89
658.862	8734.37
659.058	8715.38
659.254	8807.41
659.45	8877.93
659.646	8783.19
659.842	8785.9
660.038	8949.04
660.234	8778.74
660.43	8865.53
660.626	8985.27
660.822	8994.18
661.018	8956.21
661.214	8958.73
661.41	8893.24
661.606	9055.99
661.802	9140.07
661.998	8975.39
662.194	8913.2
662.39	9019.95
662.586	9072.26
662.781	9050.95
662.977	9127.87
663.173	8979.84
663.369	8973.06
663.564	8992.24
663.76	8988.37
663.956	8967.25
664.152	8924.82
664.347	8778.35
664.543	8950.78
664.739	8850.42
664.934	8791.14
665.13	8883.17
665.326	8859.53
665.521	8934.51
665.717	8832.21
665.912	8946.91
666.108	8723.13
666.304	8925.01
666.499	8753.55
666.695	8628.97
666.89	8874.64
667.086	8864.76
667.281	8775.64
667.477	8947.68
667.672	8838.22
667.867	8767.3
668.063	8765.37
668.258	8666.94
668.454	8794.82
668.649	8781.64
668.844	8784.16
669.04	8780.48
669.235	8700.66
669.43	8819.42
669.626	8712.47
669.821	8805.67
670.016	8719.45
670.211	8768.66
670.407	8587.31
670.602	8789.59
670.797	8599.91
670.992	8708.79
671.187	8616.96
671.382	8727.39
671.578	8515.24
671.773	8579.95
671.968	8474.16
672.163	8581.11
672.358	8524.15
672.553	8466.61
672.748	8625.87
672.943	8593.71
673.138	8571.81
673.333	8614.24
673.528	8409.65
673.723	8577.04
673.918	8460.99
674.113	8435.22
674.308	8535.58
674.503	8460.8
674.698	8541.59
674.892	8402.67
675.087	8427.67
675.282	8451.3
675.477	8470.29
675.672	8463.51
675.867	8328.85
676.061	8391.24
676.256	8382.33
676.451	8419.33
676.646	8420.88
676.84	8322.27
677.035	8259.11
677.23	8341.64
677.424	8408.68
677.619	8348.81
677.814	8448.4
678.008	8359.08
678.203	8226.56
678.397	8275.57
678.592	8270.92
678.787	8403.25
678.981	8260.27
679.176	8246.51
679.37	8269.96
679.565	8259.3
679.759	8247.09
679.954	8266.47
680.148	8237.6
680.342	8361.21
680.537	8200.21
680.731	8161.84
680.926	8238.57
681.12	8185.29
681.314	8199.82
681.509	8173.47
681.703	8151.19
681.897	8142.86
682.092	8102.17
682.286	8144.99
682.48	8190.91
682.674	8116.31
682.869	8075.05
683.063	8149.64
683.257	8083.57
683.451	7957.05
683.645	8080.66
683.839	7994.45
684.034	7908.81
684.228	7919.08
684.422	7787.33
684.616	7916.56
684.81	7862.5
685.004	7797.99
685.198	7875.87
685.392	7793.34
685.586	7876.84
685.78	7745.09
685.974	7806.71
686.168	7746.64
686.362	7735.79
686.556	7246.39
686.75	7011.57
686.944	6611.87
687.138	6202.67
687.331	5788.05
687.525	5635.38
687.719	5503.63
687.913	5549.94
688.107	5632.47
688.301	5653.98
688.494	5751.43
688.688	5707.45
688.882	5626.27
689.076	5679.36
689.269	5675.68
689.463	5823.51
689.657	5787.28
689.85	5819.05
690.044	5867.88
690.238	5991.88
690.431	6005.24
690.625	5981.99
690.818	6179.23
691.012	6174.19
691.205	6332.1
691.399	6306.13
691.593	6394.09
691.786	6435.36
691.98	6531.85
692.173	6582.42
692.366	6591.33
692.56	6693.82
692.753	6569.82
692.947	6577.38
693.14	6563.43
693.333	6638.41
693.527	6514.8
693.72	6556.26
693.914	6530.88
694.107	6433.43
694.3	6516.16
694.493	6315.24
694.687	6547.54
694.88	6420.06
695.073	6547.15
695.266	6476.05
695.46	6502.21
695.653	6509.18
695.846	6466.56
696.039	6499.88
696.232	6523.91
696.425	6725.98
696.618	6702.15
696.812	6765.9
697.005	6780.43
697.198	6970.1
697.391	6888.54
697.584	6988.32
697.777	7051.67
697.97	6862.19
698.163	6909.46
698.356	6851.53
698.549	6904.04
698.742	6840.88
698.935	6714.16
699.127	6710.87
699.32	6564.59
699.513	6628.53
699.706	6627.17
699.899	6667.47
700.092	6566.53
700.285	6488.45
700.477	6451.25
700.67	6432.46
700.863	6474.5
701.056	6553.35
701.248	6528.94
701.441	6511.12
701.634	6418.12
701.826	6492.91
702.019	6345.27
702.212	6487.67
702.404	6323.18
702.597	6320.86
702.79	6373.36
702.982	6336.55
703.175	6443.69
703.367	6426.26
703.56	6453.96
703.752	6535.34
703.945	6491.94
704.137	6469.66
704.33	6589.59
704.522	6536.5
704.715	6589.59
704.907	6571.37
705.1	6655.07
705.292	6571.57
705.484	6460.94
705.677	6560.33
705.869	6546.19
706.061	6551.61
706.254	6550.45
706.446	6466.94
706.638	6523.71
706.831	6553.94
707.023	6536.89
707.215	6620.39
707.407	6629.88
707.599	6508.02
707.792	6620.58
707.984	6530.49
708.176	6516.16
708.368	6531.66
708.56	6541.92
708.752	6529.91
708.944	6409.21
709.136	6554.32
709.329	6398.16
709.521	6563.82
709.713	6522.16
709.905	6509.96
710.097	6621.55
710.289	6458.61
710.481	6425.48
710.672	6450.67
710.864	6436.53
711.056	6505.89
711.248	6440.59
711.44	6462.68
711.632	6405.91
711.824	6440.59
712.016	6435.56
712.207	6465.78
712.399	6383.44
712.591	6464.62
712.783	6426.26
712.975	6360.38
713.166	6350.5
713.358	6351.28
713.55	6320.28
713.741	6353.21
713.933	6342.75
714.125	6343.33
714.316	6217.59
714.508	6316.4
714.7	6246.65
714.891	6205.58
715.083	6197.83
715.274	6122.46
715.466	6194.73
715.657	6155.4
715.849	6015.32
716.04	5998.27
716.232	5913.8
716.423	5812.08
716.615	5605.54
716.806	5502.66
716.998	5329.84
717.189	5173.87
717.381	5002.21
717.572	4891.39
717.763	4836.75
717.955	4700.16
718.146	4593.21
718.337	4511.26
718.528	4412.64
718.72	4251.44
718.911	4239.63
719.102	4199.91
719.293	4155.35
719.485	4123.76
719.676	4073.97
719.867	4035.03
720.058	3992.79
720.249	3995.7
720.44	4043.94
720.632	4077.27
720.823	4159.41
721.014	4363.43
721.205	4496.92
721.396	4555.63
721.587	4688.34
721.778	4811.57
721.969	4836.56
722.16	4945.25
722.351	5077.78
722.542	5127.57
722.733	5154.69
722.924	4940.41
723.115	4988.85
723.305	4857.1
723.496	4840.05
723.687	4669.16
723.878	4662.58
724.069	4624.41
724.26	4611.43
724.45	4471.93
724.641	4485.49
724.832	4477.74
725.023	4412.84
725.213	4372.15
725.404	4326.23
725.595	4280.7
725.785	4305.5
725.976	4358.39
726.167	4323.13
726.357	4289.42
726.548	4461.85
726.739	4333.21
726.929	4440.73
727.12	4401.99
727.31	4402.18
727.501	4290.97
727.691	4257.64
727.882	4278.57
728.072	4348.32
728.263	4372.54
728.453	4401.02
728.644	4424.27
728.834	4333.79
729.024	4257.26
729.215	4257.84
729.405	4278.37
729.596	4363.43
729.786	4380.09
729.976	4365.75
730.167	4407.6
730.357	4333.01
730.547	4379.51
730.737	4368.08
730.928	4379.7
731.118	4426.01
731.308	4377.19
731.498	4380.09
731.688	4449.26
731.879	4458.56
732.069	4487.82
732.259	4544.78
732.449	4608.91
732.639	4647.85
732.829	4659.48
733.019	4717.6
733.209	4800.91
733.399	4866.59
733.589	4913.67
733.779	4917.55
733.969	4944.09
734.159	5026.24
734.349	5031.47
734.539	5068.86
734.729	5082.04
734.919	5083.01
735.109	5138.22
735.299	5047.36
735.488	5045.61
735.678	5026.43
735.868	5040.38
736.058	4969.08
736.248	5012.87
736.437	4963.46
736.627	4901.66
736.817	5028.37
737.007	4930.33
737.196	5001.83
737.386	5017.13
737.576	4922.78
737.765	5007.06
737.955	4956.3
738.144	5133.38
738.334	5035.93
738.524	4938.08
738.713	4987.3
738.903	4956.68
739.092	4987.3
739.282	4983.42
739.471	4988.26
739.661	4975.48
739.85	5034.38
740.04	5001.25
740.229	5021.98
740.419	5068.28
740.608	5064.99
740.797	5017.52
740.987	5032.25
741.176	5010.74
741.365	5017.71
741.555	4942.35
741.744	5049.88
741.933	4996.79
742.123	4986.13
742.312	5021.98
742.501	5099.09
742.69	4994.27
742.88	4972.18
743.069	5085.91
743.258	5033.8
743.447	5060.53
743.636	5016.94
743.825	5010.74
744.014	5051.04
744.204	5087.08
744.393	4976.45
744.582	5064.99
744.771	5069.25
744.96	5013.45
745.149	4988.85
745.338	4969.86
745.527	5047.55
745.716	5031.08
745.905	4990.01
746.094	5061.69
746.283	5025.27
746.471	4947.38
746.66	5026.43
746.849	4993.11
747.038	5051.81
747.227	4996.98
747.416	5002.02
747.604	4983.03
747.793	4967.15
747.982	4960.75
748.171	4987.49
748.359	4998.92
748.548	4961.14
748.737	4982.26
748.926	4914.06
749.114	4810.4
749.303	4892.55
749.491	4865.43
749.68	4776.89
749.869	4909.02
750.057	4794.71
750.246	4824.35
750.434	4850.51
750.623	4792.39
750.811	4807.5
751	4840.05
751.188	4735.62
751.377	4788.12
751.565	4765.26
751.754	4703.84
751.942	4701.71
752.131	4746.08
752.319	4694.93
752.507	4668.39
752.696	4723.41
752.884	4736.01
753.072	4659.09
753.261	4692.41
753.449	4692.61
753.637	4592.25
753.825	4737.17
754.014	4717.02
754.202	4663.16
754.39	4705.39
754.578	4680.79
754.766	4628.09
754.955	4610.46
755.143	4669.16
755.331	4604.26
755.519	4657.93
755.707	4569.96
755.895	4585.46
756.083	4569.19
756.271	4529.08
756.459	4561.44
756.647	4543.23
756.835	4517.46
757.023	4537.41
757.211	4453.33
757.399	4492.85
757.587	4513.78
757.775	4419.04
757.963	4438.41
758.151	4480.07
758.339	4336.31
758.526	4391.72
758.714	4434.53
758.902	4244.28
759.09	4098.77
759.278	3883.71
759.465	3572.36
759.653	3115.89
759.841	2839.8
760.028	2450.95
760.216	2167.89
760.404	1975.11
760.591	1648.64
760.779	1381.27
760.967	1233.25
761.154	1046.09
761.342	1063.14
761.529	1054.81
761.717	1115.45
761.905	1143.93
762.092	1221.82
762.28	1162.34
762.467	1153.23
762.655	1071.47
762.842	1123.39
763.029	1094.72
763.217	1132.5
763.404	1156.72
763.592	1160.4
763.779	1119.52
763.966	1224.34
764.154	1277.42
764.341	1305.13
764.528	1289.63
764.716	1424.87
764.903	1452.57
765.09	1583.35
765.277	1641.28
765.465	1798.22
765.652	1903.03
765.839	1995.06
766.026	2156.07
766.213	2204.31
766.4	2319.4
766.588	2506.56
766.775	2567.01
766.962	2716
767.149	2791.75
767.336	2968.26
767.523	2957.99
767.71	3081.4
767.897	3247.25
768.084	3329.79
768.271	3374.93
768.458	3446.23
768.645	3518.89
768.832	3526.64
769.019	3565
769.206	3576.82
769.392	3669.62
769.579	3753.51
769.766	3736.08
769.953	3720.19
770.14	3805.24
770.327	3776.96
770.513	3865.5
770.7	3901.73
770.887	3831.4
771.073	3886.62
771.26	3857.36
771.447	3841.28
771.634	3782.38
771.82	3952.1
772.007	3821.33
772.193	3880.81
772.38	3853.29
772.567	3831.98
772.753	3842.64
772.94	3899.79
773.126	3870.73
773.313	3926.53
773.499	3840.7
773.686	3917.62
773.872	3784.9
774.059	3884.68
774.245	3789.36
774.432	3833.53
774.618	3742.66
774.804	3833.72
774.991	3766.49
775.177	3823.46
775.363	3781.22
775.55	3802.53
775.736	3698.49
775.922	3789.36
776.109	3781.61
776.295	3773.28
776.481	3818.23
776.667	3814.16
776.853	3748.28
777.04	3721.74
777.226	3757
777.412	3829.66
777.598	3734.72
777.784	3694.61
777.97	3686.67
778.156	3744.41
778.342	3705.46
778.528	3690.55
778.715	3630.1
778.901	3623.12
779.087	3700.04
779.272	3613.82
779.458	3566.55
779.644	3586.12
779.83	3632.03
780.016	3727.94
780.202	3593.48
780.388	3623.7
780.574	3492.15
780.76	3572.94
780.946	3617.31
781.131	3584.95
781.317	3529.35
781.503	3499.32
781.689	3476.26
781.874	3647.73
782.06	3504.35
782.246	3576.43
782.432	3524.12
782.617	3535.74
782.803	3572.94
782.989	3449.14
783.174	3441.77
783.36	3401.28
783.545	3490.02
783.731	3472.58
783.916	3388.88
784.102	3457.27
784.288	3374.93
784.473	3400.7
784.659	3372.41
784.844	3398.57
785.029	3386.36
785.215	3378.61
785.4	3324.75
785.586	3433.25
785.771	3302.66
785.956	3392.56
786.142	3328.82
786.327	3297.63
786.512	3309.83
786.698	3326.88
786.883	3255.58
787.068	3270.5
787.254	3276.31
787.439	3222.26
787.624	3261.59
787.809	3215.48
787.994	3234.27
788.18	3286
788.365	3138.17
788.55	3168.59
788.735	3176.15
788.92	3165.68
789.105	3130.03
789.29	3176.15
789.475	3114.73
789.66	3144.37
789.845	3108.34
790.03	3046.34
790.215	3158.13
790.4	3136.23
790.585	3110.08
790.77	3094.39
790.955	3028.32
791.14	3059.32
791.325	3139.53
791.51	2984.34
791.695	3084.7
791.879	3011.85
792.064	3023.86
792.249	3121.9
792.434	3044.2
792.618	3022.12
792.803	3088.77
792.988	2988.6
793.173	3045.75
793.357	3090.9
793.542	3017.08
793.727	3075.01
793.911	3087.02
794.096	3072.88
794.281	3033.74
794.465	3163.75
794.65	3008.94
794.834	3119.38
795.019	3148.83
795.203	3158.71
795.388	3140.3
795.572	3203.47
795.757	3081.4
795.941	3106.59
796.126	3135.85
796.31	3022.7
796.494	3093.42
796.679	3026.77
796.863	3026.38
797.048	3115.89
797.232	3087.41
797.416	3095.74
797.601	3062.03
797.785	3151.15
797.969	3170.33
798.153	3099.04
798.338	3121.32
798.522	3152.12
798.706	3127.32
798.89	3162.2
799.074	3228.65
799.258	3190.29
799.443	3128.48
799.627	3141.27
799.811	3160.84
799.995	3131.97
800.179	3083.34
800.363	3068.23
800.547	3087.41
800.731	3163.55
800.915	3009.72
801.099	3087.8
801.283	3079.47
801.467	3087.8
801.651	3073.85
801.835	3127.9
802.019	3103.88
802.202	3103.88
802.386	3050.6
802.57	3048.27
802.754	3067.26
802.938	3040.33
803.121	3057.77
803.305	3092.64
803.489	3047.11
803.673	3086.05
803.856	3076.95
804.04	3059.9
804.224	3076.37
804.407	3078.5
804.591	3018.44
804.775	3034.71
804.958	3060.29
805.142	3152.12
805.326	3067.26
805.509	3074.04
805.693	3142.05
805.876	3118.8
806.06	3098.84
806.243	3121.7
806.427	3150.38
806.61	3193.78
806.794	3076.75
806.977	3174.79
807.16	3064.35
807.344	3126.74
807.527	3086.05
807.71	3064.94
807.894	3072.1
808.077	3128.87
808.26	3042.46
808.444	3031.22
808.627	3099.81
808.81	3062.03
808.993	2998.29
809.177	2997.12
809.36	2990.92
809.543	2961.28
809.726	2923.5
809.909	2926.6
810.092	2912.65
810.276	2868.67
810.459	2914.39
810.642	2930.86
810.825	2843.29
811.008	2866.93
811.191	2754.17
811.374	2770.05
811.557	2772.77
811.74	2849.68
811.923	2748.35
812.106	2707.08
812.289	2725.88
812.472	2688.87
812.654	2702.24
812.837	2645.86
813.02	2581.34
813.203	2537.94
813.386	2450.18
813.569	2469.94
813.751	2350.01
813.934	2394.57
814.117	2350.2
814.3	2307.58
814.482	2225.82
814.665	2244.61
814.848	2192.88
815.03	2133.98
815.213	2110.15
815.396	2084.19
815.578	2064.81
815.761	2070.04
815.943	2103.56
816.126	1995.64
816.309	2019.28
816.491	1928.22
816.674	1860.8
816.856	1897.22
817.039	1871.26
817.221	1974.14
817.403	1955.54
817.586	1933.26
817.768	1971.43
817.951	1885.21
818.133	1859.83
818.315	1880.56
818.498	1920.08
818.68	1998.74
818.862	1930.35
819.045	2024.13
819.227	1989.25
819.409	1903.03
819.591	1990.61
819.774	1936.75
819.956	1939.65
820.138	1997.58
820.32	1986.93
820.502	2083.22
820.684	2160.14
820.866	2149.67
821.048	2199.66
821.231	2171.18
821.413	2223.49
821.595	2179.51
821.777	2199.27
821.959	2151.03
822.141	2225.82
822.323	2098.72
822.505	2021.8
822.686	1977.82
822.868	1848.78
823.05	1751.14
823.232	1699.99
823.414	1644.96
823.596	1696.89
823.778	1708.12
823.96	1730.21
824.141	1767.22
824.323	1786.01
824.505	1896.45
824.687	1953.02
824.868	1971.04
825.05	2082.83
825.232	2094.07
825.413	2179.7
825.595	2094.65
825.777	2046.02
825.958	2117.51
826.14	2069.27
826.321	2114.22
826.503	2118.48
826.685	2137.27
826.866	2155.87
827.048	2103.37
827.229	2076.82
827.411	2059.78
827.592	1998.16
827.773	1990.8
827.955	1924.54
828.136	1933.26
828.318	1908.65
828.499	1938.1
828.68	1885.21
828.862	1915.05
829.043	1953.6
829.224	1921.05
829.406	1863.9
829.587	1865.45
829.768	1924.15
829.949	1908.07
830.131	1895.28
830.312	1960.96
830.493	1899.93
830.674	1949.53
830.855	1906.52
831.036	1916.01
831.218	1972.98
831.399	2002.81
831.58	1923.18
831.761	1919.11
831.942	1932.29
832.123	1897.61
832.304	1864.48
832.485	1873
832.666	1890.83
832.847	1895.28
833.028	1890.44
833.209	1910.01
833.389	1874.55
833.57	1867.77
833.751	1850.53
833.932	1927.25
834.113	1907.49
834.294	1853.24
834.475	1945.08
834.655	1981.5
834.836	1953.41
835.017	1962.71
835.198	1890.63
835.378	1885.21
835.559	1977.82
835.74	1925.7
835.92	1926.09
836.101	1882.69
836.281	1970.26
836.462	1942.75
836.643	1999.13
836.823	1985.18
837.004	1998.16
837.184	2015.02
837.365	2025.48
837.545	1992.16
837.726	1972.4
837.906	1967.55
838.087	1958.06
838.267	1985.76
838.448	1932.68
838.628	1973.75
838.808	1958.06
838.989	2030.13
839.169	1943.33
839.349	2005.53
839.53	1987.31
839.71	1995.26
839.89	2003.78
840.07	2007.66
840.251	1928.41
840.431	2029.16
840.611	1969.68
840.791	1905.75
840.971	1991.96
841.151	1953.99
841.332	1888.12
841.512	1984.02
841.692	1876.1
841.872	1934.03
842.052	1956.7
842.232	1985.57
842.412	1894.7
842.592	1929
842.772	1932.87
842.952	1932.1
843.132	1906.52
843.312	1891.8
843.492	1920.08
843.672	1942.75
843.851	1842.58
844.031	1920.86
844.211	1897.22
844.391	1891.41
844.571	1905.16
844.751	1945.27
844.93	1928.03
845.11	1872.03
845.29	1903.03
845.47	1894.51
845.649	1865.64
845.829	1932.48
846.009	1858.86
846.188	1926.67
846.368	1900.71
846.547	1872.42
846.727	1932.29
846.907	1853.05
847.086	1862.15
847.266	1869.52
847.445	1865.25
847.625	1855.37
847.804	1835.42
847.984	1841.23
848.163	1827.08
848.343	1835.03
848.522	1855.37
848.701	1853.24
848.881	1801.51
849.06	1842.2
849.239	1847.43
849.419	1848.4
849.598	1759.27
849.777	1717.23
849.957	1720.33
850.136	1698.05
850.315	1716.07
850.494	1694.37
850.674	1643.41
850.853	1756.37
851.032	1737.19
851.211	1781.94
851.39	1733.7
851.569	1682.16
851.748	1684.68
851.927	1736.22
852.107	1746.29
852.286	1692.04
852.465	1676.35
852.644	1731.76
852.823	1756.17
853.002	1687.78
853.181	1704.06
853.359	1728.47
853.538	1620.74
853.717	1738.15
853.896	1563.59
854.075	1529.68
854.254	1476.98
854.433	1439.78
854.611	1507.98
854.79	1421.57
854.969	1483.38
855.148	1491.9
855.327	1464.78
855.505	1563.78
855.684	1516.12
855.863	1543.44
856.041	1518.64
856.22	1552.54
856.399	1528.33
856.577	1629.85
856.756	1619.78
856.934	1742.22
857.113	1714.32
857.291	1596.14
857.47	1574.24
857.648	1634.69
857.827	1627.53
858.005	1672.28
858.184	1590.13
858.362	1679.45
858.541	1639.73
858.719	1593.62
858.898	1601.56
859.076	1614.74
859.254	1666.66
859.433	1575.21
859.611	1584.13
859.789	1526.2
859.967	1606.99
860.146	1633.92
860.324	1548.28
860.502	1581.61
860.68	1505.85
860.859	1523.87
861.037	1578.12
861.215	1556.42
861.393	1575.99
861.571	1537.63
861.749	1531.62
861.927	1577.34
862.105	1550.22
862.283	1526.97
862.461	1489.77
862.639	1489.38
862.817	1502.56
862.995	1484.15
863.173	1535.69
863.351	1516.12
863.529	1540.53
863.707	1564.36
863.885	1520.38
864.063	1456.64
864.241	1493.26
864.418	1548.09
864.596	1461.68
864.774	1453.73
864.952	1475.82
865.129	1479.5
865.307	1452.77
865.485	1421.38
865.663	1530.46
865.84	1398.9
866.018	1407.04
866.196	1295.25
866.373	1290.6
866.551	1274.71
866.728	1215.42
866.906	1252.43
867.084	1305.13
867.261	1363.45
867.439	1369.07
867.616	1345.62
867.794	1390.57
867.971	1375.27
868.149	1360.15
868.326	1438.04
868.503	1405.68
868.681	1404.52
868.858	1360.15
869.035	1339.04
869.213	1403.94
869.39	1345.04
869.567	1446.95
869.745	1358.02
869.922	1367.71
870.099	1412.27
870.276	1403.17
870.454	1377.59
870.631	1378.56
870.808	1325.67
870.985	1414.4
871.162	1454.51
871.339	1411.5
871.517	1319.85
871.694	1325.86
871.871	1349.11
872.048	1345.43
872.225	1350.08
872.402	1353.57
872.579	1300.48
872.756	1352.21
872.933	1265.41
873.11	1337.29
873.287	1324.7
873.463	1320.24
873.64	1291.18
873.817	1331.48
873.994	1300.87
874.171	1260.57
874.348	1305.13
874.524	1243.32
874.701	1290.99
874.878	1232.47
875.055	1283.62
875.231	1247.39
875.408	1301.45
875.585	1197.6
875.762	1233.64
875.938	1241.77
876.115	1244.68
876.291	1219.88
876.468	1226.27
876.645	1205.54
876.821	1251.66
876.998	1226.66
877.174	1235.57
877.351	1217.56
877.527	1207.67
877.704	1246.23
877.88	1215.81
878.057	1201.48
878.233	1244.49
878.409	1233.44
878.586	1234.22
878.762	1208.26
878.938	1203.02
879.115	1117.19
879.291	1182.1
879.467	1133.66
879.644	1182.29
879.82	1219.3
879.996	1166.02
880.172	1103.63
880.349	1152.26
880.525	1199.15
880.701	1104.21
880.877	1156.14
881.053	1150.52
881.229	1125.14
881.405	1206.51
881.581	1135.02
881.757	1154.78
881.933	1149.16
882.109	1168.73
882.285	1152.07
882.461	1111.77
882.637	1164.47
882.813	1117.58
882.989	1168.93
883.165	1186.56
883.341	1104.21
883.517	1170.09
883.693	1179.78
883.869	1162.53
884.044	1129.4
884.22	1184.81
884.396	1173.77
884.572	1167.18
884.747	1176.29
884.923	1169.51
885.099	1194.11
885.275	1214.26
885.45	1103.44
885.626	1117.58
885.801	1125.14
885.977	1127.08
886.153	1065.85
886.328	1169.89
886.504	1127.46
886.679	1161.95
886.855	1101.7
887.03	1165.05
887.206	1164.08
887.381	1144.9
887.557	1161.37
887.732	1174.93
887.908	1186.36
888.083	1188.3
888.258	1170.09
888.434	1111.38
888.609	1144.51
888.784	1188.3
888.96	1091.23
889.135	1098.79
889.31	1112.16
889.485	1145.48
889.661	1137.93
889.836	1166.99
890.011	1166.02
890.186	1125.33
890.361	1108.48
890.537	1166.21
890.712	1133.66
890.887	1130.18
891.062	1135.41
891.237	1197.79
891.412	1085.42
891.587	1144.13
891.762	1138.7
891.937	1157.49
892.112	1128.04
892.287	1097.43
892.462	1101.89
892.637	1043.38
892.812	1068.18
892.987	1058.1
893.161	1038.92
893.336	1066.63
893.511	1048.03
893.686	1071.86
893.861	1031.36
894.035	1036.21
894.21	1051.51
894.385	969.95
894.56	1018.77
894.734	921.7
894.909	943.6
895.084	978.86
895.258	947.86
895.433	939.34
895.608	899.04
895.782	870.55
895.957	894.77
896.131	898.26
896.306	833.16
896.48	822.7
896.655	812.62
896.829	740.74
897.004	768.84
897.178	789.57
897.353	767.87
897.527	829.09
897.701	784.92
897.876	728.15
898.05	805.65
898.224	800.61
898.399	834.52
898.573	780.27
898.747	657.82
898.921	703.16
899.096	597.95
899.27	629.53
899.444	633.41
899.618	655.3
899.792	674.1
899.967	693.86
900.141	742.88
900.315	664.02
900.489	666.35
900.663	694.44
900.837	682.23
901.011	593.69
901.185	718.66
901.359	665.76
901.533	690.76
901.707	708.39
901.881	699.86
902.055	628.95
902.229	655.69
902.403	729.7
902.576	668.86
902.75	714.01
902.924	825.41
903.098	750.43
903.272	791.12
903.446	829.48
903.619	813.98
903.793	832.97
903.967	807.78
904.14	861.25
904.314	862.8
904.488	833.74
904.661	877.14
904.835	852.54
905.009	856.41
905.182	934.69
905.356	865.32
905.529	857.57
905.703	810.11
905.876	828.9
906.05	783.76
906.223	770.97
906.397	706.26
906.57	706.45
906.744	681.84
906.917	691.73
907.09	696.18
907.264	682.04
907.437	619.46
907.61	609
907.784	633.02
907.957	671
908.13	643.87
908.304	647.75
908.477	582.65
908.65	611.51
908.823	577.8
908.996	651.04
909.17	615.58
909.343	618.68
909.516	595.63
909.689	627.6
909.862	598.73
910.035	613.65
910.208	557.65
910.381	576.25
910.554	643.87
910.727	605.7
910.9	591.75
911.073	598.73
911.246	649.1
911.419	660.53
911.592	621.2
911.765	612.1
911.938	586.91
912.11	581.1
912.283	580.32
912.456	626.63
912.629	575.48
912.802	582.84
912.974	530.53
913.147	479.77
913.32	431.14
913.493	483.06
913.665	537.5
913.838	522.39
914.01	504.57
914.183	540.8
914.356	507.08
914.528	551.26
914.701	598.53
914.873	550.68
915.046	496.24
915.218	460
915.391	414.47
915.563	455.35
915.736	519.48
915.908	508.05
916.081	509.02
916.253	499.92
916.425	535.95
916.598	545.64
916.77	512.51
916.942	486.94
917.115	424.35
917.287	496.82
917.459	481.9
917.632	453.42
917.804	418.93
917.976	478.99
918.148	494.88
918.32	515.8
918.493	531.5
918.665	563.47
918.837	500.11
919.009	571.99
919.181	589.04
919.353	504.18
919.525	533.24
919.697	534.02
919.869	526.65
920.041	572.77
920.213	677.97
920.385	566.18
920.557	536.34
920.729	564.24
920.901	547.77
921.073	525.88
921.244	535.37
921.416	596.98
921.588	545.06
921.76	563.08
921.932	559.01
922.103	532.66
922.275	523.55
922.447	560.95
922.619	485.58
922.79	537.89
922.962	508.63
923.134	574.7
923.305	498.17
923.477	472.21
923.648	467.56
923.82	486.55
923.991	425.52
924.163	420.29
924.335	459.81
924.506	453.03
924.677	516.58
924.849	431.14
925.02	485.19
925.192	471.44
925.363	460
925.535	503.02
925.706	464.85
925.877	532.66
926.049	459.04
926.22	452.84
926.391	489.84
926.562	488.87
926.734	450.12
926.905	483.45
927.076	394.13
927.247	441.6
927.419	423.58
927.59	397.81
927.761	410.41
927.932	378.05
928.103	374.56
928.274	357.9
928.445	341.43
928.616	316.44
928.787	319.15
928.958	372.82
929.129	347.24
929.3	328.06
929.471	268
929.642	220.15
929.813	199.22
929.984	277.69
930.155	221.7
930.326	268
930.496	214.14
930.667	161.25
930.838	208.91
931.009	160.28
931.18	191.08
931.35	186.05
931.521	213.17
931.692	150.01
931.863	95.95
932.033	165.51
932.204	160.47
932.374	189.34
932.545	89.37
932.716	178.1
932.886	170.55
933.057	77.35
933.227	95.37
933.398	161.44
933.568	85.3
933.739	14.19
933.909	44.03
934.08	132.96
934.25	49.84
934.421	34.73
934.591	81.81
934.761	57.98
934.932	10.32
935.102	81.23
935.272	57.4
935.443	75.42
935.613	56.24
935.783	83.94
935.953	38.6
936.123	208.33
936.294	65.53
936.464	50.81
936.634	57.4
936.804	24.27
936.974	40.35
937.144	85.3
937.314	77.16
937.484	39.57
937.655	63.4
937.825	113.39
937.995	15.35
938.165	113.39
938.334	68.44
938.504	77.74
938.674	60.69
938.844	69.02
939.014	144.97
939.184	147.1
939.354	182.17
939.524	153.11
939.694	123.08
939.863	115.91
940.033	183.33
940.203	146.91
940.373	166.67
940.542	157.37
940.712	109.52
940.882	153.3
941.051	154.27
941.221	138.97
941.391	177.52
941.56	118.23
941.73	105.06
941.899	240.88
942.069	104.48
942.238	126.57
942.408	107.58
942.577	160.08
942.747	115.91
942.916	69.99
943.086	100.6
943.255	140.9
943.425	114.55
943.594	78.9
943.763	25.43
943.933	58.17
944.102	34.73
944.271	95.95
944.441	93.05
944.61	81.81
944.779	102.93
944.948	176.16
945.117	70.96
945.287	79.29
945.456	37.25
945.625	54.3
945.794	122.88
945.963	57.4
946.132	105.25
946.301	79.87
946.47	105.45
946.639	22.72
946.808	69.02
946.977	134.51
947.146	122.3
947.315	77.35
947.484	122.69
947.653	63.6
947.822	80.45
947.991	59.92
948.16	168.8
948.329	125.21
948.498	100.22
948.666	119.78
948.835	129.28
949.004	65.73
949.173	55.07
949.341	100.6
949.51	84.13
949.679	146.33
949.847	122.88
950.016	159.5
950.185	144
950.353	59.14
950.522	107.19
950.69	119.59
950.859	68.83
951.028	128.7
951.196	108.55
951.365	60.11
951.533	102.54
951.701	134.32
951.87	127.15
952.038	45
952.207	98.28
952.375	120.56
952.543	84.52
952.712	101.77
952.88	57.98
953.048	137.03
953.217	101.18
953.385	67.08
953.553	121.72
953.721	60.11
953.89	109.9
954.058	39.96
954.226	67.67
954.394	101.38
954.562	42.09
954.73	84.52
954.898	70.96
955.067	136.45
955.235	78.71
955.403	115.91
955.571	164.15
955.739	123.27
955.907	88.2
956.075	84.33
956.243	62.63
956.41	111.84
956.578	54.69
956.746	38.02
956.914	84.13
957.082	115.52
957.25	126.76
957.418	67.67
957.585	122.88
957.753	144
957.921	61.66
958.089	85.88
958.256	114.75
958.424	99.63
958.592	94.6
958.759	65.15
958.927	125.79
959.095	72.7
959.262	89.95
959.43	94.4
959.597	78.32
959.765	90.14
959.932	60.11
960.1	123.08
960.267	91.5
960.435	98.47
960.602	133.35
960.77	66.5
960.937	33.95
961.104	103.12
961.272	43.25
961.439	88.01
961.606	135.28
961.774	134.9
961.941	83.36
962.108	127.73
962.275	116.3
962.443	152.14
962.61	131.41
962.777	181.01
962.944	136.25
963.111	116.1
963.278	140.71
963.446	110.87
963.613	115.52
963.78	114.75
963.947	134.12
964.114	128.5
964.281	182.17
964.448	135.28
964.615	81.81
964.782	105.25
964.949	155.63
965.116	127.15
965.282	189.73
965.449	119.4
965.616	74.25
965.783	158.15
965.95	146.72
966.117	87.23
966.283	91.88
966.45	100.22
966.617	114.55
966.784	150.4
966.95	163.76
967.117	162.41
967.284	84.91
967.45	130.05
967.617	168.41
967.784	158.15
967.95	193.6
968.117	135.48
968.283	170.55
968.45	232.93
968.616	131.8
968.783	166.48
968.949	166.48
969.116	198.06
969.282	143.03
969.449	174.81
969.615	128.7
969.781	119.4
969.948	124.63
970.114	109.9
970.28	197.67
970.447	142.07
970.613	168.8
970.779	158.53
970.945	185.85
971.112	154.85
971.278	135.28
971.444	137.42
971.61	197.86
971.776	145.17
971.942	148.27
972.108	150.78
972.275	117.85
972.441	161.25
972.607	179.07
972.773	125.79
972.939	134.12
973.105	122.88
973.271	109.13
973.437	148.27
973.602	96.53
973.768	139.16
973.934	125.79
974.1	161.44
974.266	64.18
974.432	125.79
974.598	118.82
974.763	144.78
974.929	106.8
975.095	150.59
975.261	85.49
975.426	80.65
975.592	119.98
975.758	185.66
975.923	78.32
976.089	99.25
976.255	130.83
976.42	150.4
976.586	149.82
976.751	125.4
976.917	219.56
977.082	115.52
977.248	82.39
977.413	53.14
977.579	100.6
977.744	127.92
977.91	93.43
978.075	84.72
978.24	128.12
978.406	116.1
978.571	100.22
978.736	87.04
978.902	122.69
979.067	88.78
979.232	59.14
979.397	125.6
979.563	140.9
979.728	94.21
979.893	97.7
980.058	86.27
980.223	160.47
980.388	112.23
980.554	98.47
980.719	106.61
980.884	132.77
981.049	160.86
981.214	97.31
981.379	138
981.544	80.84
981.709	109.13
981.874	104.67
982.039	113.2
982.204	118.43
982.368	116.1
982.533	73.48
982.698	135.28
982.863	144.78
983.028	106.22
983.193	116.3
983.357	130.25
983.522	136.64
983.687	109.52
983.852	97.89
984.016	110.1
984.181	129.86
984.346	137.42
984.51	146.72
984.675	154.08
984.839	145.55
985.004	130.63
985.168	137.61
985.333	138.38
985.498	107.58
985.662	164.73
985.827	125.79
985.991	115.13
986.155	81.03
986.32	129.86
986.484	178.88
986.649	128.7
986.813	65.34
986.977	124.43
987.142	133.73
987.306	82.2
987.47	97.7
987.634	107.38
987.799	136.83
987.963	151.37
988.127	146.52
988.291	165.51
988.455	122.69
988.62	84.91
988.784	121.72
988.948	125.98
989.112	105.06
989.276	118.04
989.44	126.37
989.604	99.25
989.768	84.72
989.932	180.23
990.096	65.53
990.26	80.07
990.424	85.68
990.588	123.27
990.752	174.61
990.915	150.4
991.079	84.33
991.243	69.6
991.407	102.54
991.571	109.32
991.734	119.2
991.898	126.95
992.062	198.25
992.226	101.38
992.389	50.62
992.553	56.62
992.717	68.44
992.88	97.31
993.044	128.89
993.207	81.23
993.371	126.18
993.535	123.47
993.698	93.63
993.862	131.99
994.025	155.24
994.189	108.74
994.352	114.17
994.515	123.47
994.679	137.61
994.842	75.03
995.006	145.36
995.169	88.4
995.332	94.4
995.496	119.2
995.659	55.85
995.822	93.24
995.985	91.69
996.149	145.36
996.312	85.88
996.475	172.1
996.638	54.69
996.801	168.41
996.964	160.86
997.128	67.28
997.291	91.69
997.454	101.77
997.617	57.59
997.78	147.49
997.943	65.73
998.106	134.7
998.269	85.3
998.432	109.13
998.595	72.9
998.758	49.45
998.92	64.57
999.083	25.24
999.246	64.18
999.409	60.3
999.572	45.97
999.735	71.15
999.897	132.77
1000.06	74.45
1000.223	35.5
1000.386	113.78
1000.548	109.13
1000.711	94.98
1000.874	107.58
1001.036	37.64
1001.199	110.29
1001.361	45.97
1001.524	93.24
1001.687	101.77
1001.849	52.36
1002.012	87.82
1002.174	110.87
1002.337	107.77
1002.499	59.14
1002.661	121.53
1002.824	47.9
1002.986	57.2
1003.149	60.11
1003.311	51
1003.473	140.13
1003.636	29.5
1003.798	82.78
1003.96	86.65
1004.123	72.12
1004.285	63.99
1004.447	44.42
1004.609	61.66
1004.771	118.62
1004.933	19.23
1005.096	56.62
1005.258	11.87
1005.42	58.17
1005.582	100.99
1005.744	78.32
1005.906	28.14
1006.068	64.18
1006.23	8.19
1006.392	3.92
1006.554	40.15
1006.716	102.35
1006.878	65.34
1007.04	5.28
1007.202	22.33
1007.363	85.49
1007.525	84.33
1007.687	94.79
1007.849	101.96
1008.011	24.27
1008.172	37.05
1008.334	39.38
1008.496	68.44
1008.658	-11
1008.819	45.39
1008.981	-5.38
1009.143	69.41
1009.304	37.64
1009.466	68.25
1009.627	95.95
1009.789	141.68
1009.95	52.75
1010.112	53.72
1010.273	80.84
1010.435	37.25
1010.596	30.85
1010.758	57.79
1010.919	45.19
1011.081	15.35
1011.242	50.62
1011.403	62.05
1011.565	64.18
1011.726	85.88
1011.887	32.21
1012.049	43.25
1012.21	68.83
1012.371	105.83
1012.532	-13.13
1012.693	43.45
1012.855	34.73
1013.016	56.82
1013.177	86.07
1013.338	45
1013.499	114.94
1013.66	76.19
1013.821	78.9
1013.982	56.43
1014.143	51.78
1014.304	34.15
1014.465	52.36
1014.626	104.87
1014.787	20.97
1014.948	113.58
1015.109	-23.78
1015.27	85.49
1015.431	43.25
1015.592	29.69
1015.752	101.38
1015.913	57.59
1016.074	54.69
1016.235	32.99
1016.395	41.51
1016.556	19.42
1016.717	50.62
1016.877	93.43
1017.038	-5.57
1017.199	56.62
1017.359	60.89
1017.52	37.44
1017.681	40.93
1017.841	32.99
1018.002	53.91
1018.162	38.99
1018.323	82.39
1018.483	43.25
1018.644	42.09
1018.804	-0.73
1018.964	-2.66
1019.125	-10.22
1019.285	59.53
1019.446	16.52
1019.606	25.24
1019.766	-10.03
1019.926	63.21
1020.087	52.55
1020.247	22.52
1020.407	75.03
1020.567	65.15
1020.728	40.74
1020.888	0.24
1021.048	36.67
1021.208	4.31
1021.368	-6.73
1021.528	79.48
1021.688	68.83
1021.848	57.79
1022.008	50.42
1022.168	11.87
1022.328	39.19
1022.488	46.94
1022.648	3.34
1022.808	31.82
1022.968	77.93
1023.128	17.49
1023.288	24.07
1023.448	50.42
1023.608	74.83
1023.767	66.89
1023.927	-1.11
1024.087	23.69
1024.247	-38.89
1024.406	44.03
1024.566	7.8
1024.726	9.93
1024.885	56.04
1025.045	41.9
1025.205	20.2
1025.364	16.71
1025.524	32.4
1025.683	31.63
1025.843	15.74
1026.003	33.95
1026.162	66.5
1026.321	71.93
1026.481	36.28
1026.64	8.57
1026.8	46.35
1026.959	20.78
1027.119	42.48
1027.278	14.77
1027.437	20.78
1027.597	8.77
1027.756	49.45
1027.915	40.35
1028.074	34.34
1028.234	11.48
1028.393	39.77
1028.552	16.9
1028.711	-44.13
1028.87	47.32
1029.03	-7.31
1029.189	36.86
1029.348	-25.14
1029.507	-2.47
1029.666	-3.63
1029.825	-22.23
1029.984	7.99
1030.143	8.96
1030.302	13.03
1030.461	-25.72
1030.62	31.05
1030.779	29.89
1030.938	-12.16
1031.097	-28.43
1031.255	53.52
1031.414	88.4
1031.573	49.45
1031.732	-28.04
1031.891	10.12
1032.049	59.53
1032.208	32.21
1032.367	7.41
1032.525	-9.64
1032.684	1.79
1032.843	9.54
1033.001	-50.71
1033.16	171.71
1033.319	34.54
1033.477	50.23
1033.636	19.81
1033.794	-17.97
1033.953	57.59
1034.111	43.64
1034.27	-18.55
1034.428	27.75
1034.587	18.65
1034.745	33.18
1034.903	26.4
1035.062	64.95
1035.22	-17
1035.378	38.99
1035.537	11.09
1035.695	34.92
1035.853	33.57
1036.011	50.81
1036.17	12.45
1036.328	-55.75
1036.486	12.25
1036.644	15.94
1036.802	-53.81
1036.96	9.74
1037.119	14.19
1037.277	4.7
1037.435	-16.42
1037.593	-20.1
1037.751	5.86
1037.909	35.12
1038.067	35.12
