Data from gum_young_FLMT105791__0__17-37-59-046.txt Node

Date: Mon Mar 20 17:37:59 GMT 2023
User: antho
Spectrometer: FLMT10579
Trigger mode: 0
Integration Time (sec): 1.000000E-1
Scans to average: 10
Electric dark correction enabled: true
Nonlinearity correction enabled: false
Boxcar width: 0
XAxis mode: Wavelengths
Number of Pixels in Spectrum: 3648
>>>>>Begin Spectral Data<<<<<
345.248	-155.6
345.464	-155.6
345.681	-155.6
345.898	-143
346.114	-154.63
346.331	-31.6
346.548	32.73
346.764	-17.07
346.981	12
347.197	-41.09
347.414	43.96
347.631	-21.52
347.847	31.18
348.064	-0.79
348.28	35.25
348.497	-42.64
348.713	-0.4
348.93	35.83
349.146	23.81
349.363	8.31
349.579	24.2
349.796	-7.38
350.012	-16.48
350.229	17.03
350.445	21.88
350.661	7.73
350.878	4.63
351.094	38.54
351.311	10.45
351.527	49.78
351.743	-18.62
351.96	15.48
352.176	44.93
352.392	21.68
352.609	34.08
352.825	24.01
353.041	23.23
353.257	18.2
353.474	16.06
353.69	13.55
353.906	18.58
354.122	8.51
354.339	33.11
354.555	18.58
354.771	-0.6
354.987	39.12
355.203	65.86
355.42	0.76
355.636	14.9
355.852	8.7
356.068	19.94
356.284	-27.14
356.5	55.01
356.716	21.88
356.932	24.4
357.148	26.53
357.364	20.33
357.58	40.86
357.796	46.29
358.012	46.68
358.228	29.82
358.444	-25.01
358.66	41.25
358.876	60.82
359.092	-20.55
359.308	30.79
359.524	15.48
359.74	-6.6
359.956	0.95
360.172	24.01
360.388	41.06
360.604	2.31
360.819	87.17
361.035	9.67
361.251	27.11
361.467	-19.58
361.683	71.48
361.898	15.87
362.114	49
362.33	29.05
362.546	57.53
362.762	15.29
362.977	23.23
363.193	-23.85
363.409	21.49
363.624	-4.47
363.84	8.12
364.056	-32.37
364.271	5.99
364.487	30.01
364.703	6.38
364.918	-5.63
365.134	8.7
365.35	13.93
365.565	108.68
365.781	15.68
365.996	30.4
366.212	86.78
366.427	32.92
366.643	-18.81
366.858	17.61
367.074	-19
367.289	46.1
367.505	117.98
367.72	-21.13
367.936	25.36
368.151	34.66
368.367	52.68
368.582	20.52
368.798	4.83
369.013	62.18
369.228	44.55
369.444	17.23
369.659	45.13
369.874	46.68
370.09	58.88
370.305	-31.98
370.52	2.5
370.736	60.82
370.951	8.9
371.166	62.37
371.381	62.56
371.597	73.61
371.812	0.18
372.027	-18.62
372.242	35.05
372.458	84.07
372.673	-6.99
372.888	16.45
373.103	45.32
373.318	92.98
373.533	29.24
373.749	48.81
373.964	-12.61
374.179	56.36
374.394	5.22
374.609	70.51
374.824	1.15
375.039	65.28
375.254	-0.21
375.469	77.68
375.684	13.55
375.899	72.83
376.114	-1.57
376.329	19.55
376.544	27.11
376.759	56.56
376.974	-22.1
377.189	4.25
377.404	-19.97
377.619	31.95
377.834	-21.91
378.049	-11.06
378.264	-8.73
378.478	25.36
378.693	5.02
378.908	50.94
379.123	26.33
379.338	58.5
379.553	15.48
379.767	30.4
379.982	26.72
380.197	40.67
380.412	34.47
380.626	46.87
380.841	87.17
381.056	41.06
381.271	51.71
381.485	20.33
381.7	-25.98
381.915	45.51
382.129	26.72
382.344	19.36
382.559	20.91
382.773	61.79
382.988	-21.91
383.202	53.26
383.417	0.76
383.632	105.19
383.846	32.15
384.061	49.39
384.275	58.88
384.49	49.2
384.704	61.4
384.919	35.05
385.133	32.92
385.348	64.11
385.562	-4.47
385.777	79.61
385.991	9.67
386.206	20.52
386.42	27.69
386.634	65.28
386.849	37.57
387.063	36.21
387.277	6.96
387.492	13.55
387.706	5.8
387.92	10.83
388.135	67.41
388.349	23.43
388.563	52.3
388.778	41.83
388.992	23.23
389.206	72.25
389.42	90.46
389.635	27.5
389.849	62.56
390.063	95.89
390.277	53.65
390.491	89.11
390.706	57.33
390.92	65.08
391.134	37.38
391.348	49.2
391.562	-0.98
391.776	45.13
391.99	43.38
392.205	78.45
392.419	21.68
392.633	53.65
392.847	79.61
393.061	39.12
393.275	100.93
393.489	55.98
393.703	63.15
393.917	98.79
394.131	18.2
394.345	56.75
394.559	61.4
394.773	30.01
394.986	54.62
395.2	57.33
395.414	93.37
395.628	21.3
395.842	24.4
396.056	32.34
396.27	-21.33
396.484	49
396.697	55.2
396.911	96.28
397.125	61.6
397.339	55.78
397.553	64.5
397.766	91.63
397.98	105.19
398.194	87.36
398.408	43.19
398.621	82.52
398.835	91.05
399.049	59.66
399.262	103.83
399.476	95.69
399.69	113.91
399.903	141.03
400.117	36.02
400.331	86.2
400.544	38.54
400.758	170.87
400.971	69.93
401.185	106.54
401.398	13.35
401.612	128.63
401.826	87.95
402.039	91.05
402.253	88.14
402.466	118.94
402.68	65.47
402.893	106.35
403.106	90.46
403.32	80.2
403.533	72.45
403.747	103.06
403.96	100.93
404.174	109.84
404.387	26.53
404.6	81.55
404.814	114.88
405.027	74.77
405.24	73.22
405.454	74.58
405.667	92.01
405.88	48.42
406.094	66.63
406.307	89.5
406.52	78.06
406.733	53.85
406.947	47.26
407.16	159.05
407.373	120.3
407.586	24.2
407.799	55.01
408.012	128.44
408.226	100.73
408.439	147.62
408.652	65.08
408.865	89.5
409.078	154.21
409.291	88.91
409.504	72.25
409.717	119.33
409.93	98.79
410.143	100.93
410.357	58.11
410.57	64.5
410.783	75.55
410.996	101.12
411.209	128.63
411.421	112.55
411.634	99.76
411.847	97.83
412.06	98.41
412.273	116.62
412.486	96.47
412.699	198.57
412.912	99.96
413.125	124.95
413.338	94.92
413.55	114.88
413.763	85.04
413.976	99.96
414.189	94.92
414.402	98.21
414.615	150.72
414.827	95.11
415.04	123.01
415.253	134.06
415.466	106.16
415.678	152.46
415.891	102.28
416.104	105.38
416.316	108.48
416.529	98.02
416.742	122.82
416.954	154.98
417.167	95.31
417.38	72.83
417.592	129.99
417.805	82.13
418.017	81.75
418.23	129.02
418.442	98.99
418.655	105.19
418.868	117.78
419.08	136.19
419.293	158.66
419.505	153.43
419.718	120.3
419.93	129.6
420.142	101.89
420.355	148.98
420.567	167.96
420.78	143.94
420.992	141.03
421.205	164.09
421.417	59.08
421.629	119.53
421.842	93.18
422.054	84.26
422.266	170.48
422.479	157.89
422.691	97.05
422.903	120.11
423.115	94.53
423.328	121.66
423.54	139.68
423.752	118.75
423.964	129.6
424.177	135.8
424.389	117.59
424.601	212.52
424.813	138.51
425.025	154.79
425.238	133.09
425.45	122.04
425.662	108.09
425.874	388.45
426.086	153.63
426.298	149.94
426.51	146.65
426.722	131.15
426.934	91.43
427.146	155.95
427.358	98.99
427.57	180.36
427.782	143.74
427.994	138.71
428.206	131.73
428.418	128.63
428.63	164.67
428.842	169.51
429.054	120.69
429.266	166.41
429.478	114.88
429.69	117.2
429.902	88.53
430.114	162.73
430.325	167.77
430.537	126.5
430.749	119.72
430.961	85.43
431.173	119.14
431.384	145.49
431.596	63.73
431.808	124.95
432.02	144.33
432.231	160.79
432.443	167.77
432.655	164.67
432.867	146.84
433.078	155.95
433.29	192.37
433.502	213.49
433.713	193.34
433.925	135.99
434.136	187.72
434.348	140.45
434.56	99.38
434.771	251.86
434.983	98.79
435.194	129.99
435.406	137.74
435.617	197.22
435.829	233.06
436.04	176.68
436.252	208.26
436.463	194.7
436.675	204
436.886	193.73
437.098	158.47
437.309	219.31
437.521	180.36
437.732	180.94
437.943	208.46
438.155	188.5
438.366	139.87
438.578	253.41
438.789	179.39
439	199.54
439.211	179.78
439.423	200.32
439.634	192.18
439.845	219.5
440.057	189.86
440.268	221.44
440.479	185.4
440.69	187.53
440.902	178.23
441.113	178.04
441.324	184.04
441.535	198.77
441.746	239.84
441.957	183.66
442.168	162.73
442.38	221.82
442.591	216.79
442.802	172.23
443.013	184.24
443.224	191.99
443.435	161.57
443.646	216.79
443.857	193.15
444.068	177.65
444.279	191.99
444.49	266.58
444.701	213.69
444.912	292.54
445.123	233.45
445.334	231.9
445.545	225.51
445.756	204.77
445.967	172.61
446.178	235.77
446.388	253.41
446.599	236.94
446.81	259.02
447.021	211.56
447.232	259.61
447.443	253.02
447.653	219.11
447.864	264.06
448.075	220.86
448.286	247.79
448.496	243.91
448.707	266.58
448.918	199.35
449.129	303.39
449.339	213.3
449.55	252.63
449.761	237.52
449.971	285.37
450.182	221.82
450.393	272.97
450.603	235
450.814	282.08
451.024	257.67
451.235	294.29
451.446	316.76
451.656	317.92
451.867	261.54
452.077	270.45
452.288	292.54
452.498	291.38
452.709	263.67
452.919	281.11
453.13	238.1
453.34	323.74
453.55	226.47
453.761	284.79
453.971	273.55
454.182	278.59
454.392	274.14
454.602	319.47
454.813	274.72
455.023	336.33
455.233	224.15
455.444	286.34
455.654	239.46
455.864	279.95
456.075	266.58
456.285	251.86
456.495	258.83
456.705	303.39
456.916	314.63
457.126	304.36
457.336	301.84
457.546	238.68
457.756	287.12
457.967	326.06
458.177	270.26
458.387	305.72
458.597	265.03
458.807	323.93
459.017	288.28
459.227	278.2
459.437	266
459.647	341.37
459.857	310.95
460.068	290.8
460.278	326.84
460.488	317.92
460.698	349.31
460.908	286.54
461.117	265.03
461.327	296.61
461.537	302.42
461.747	319.67
461.957	320.64
462.167	399.68
462.377	359.58
462.587	324.7
462.797	375.85
463.007	334.2
463.216	315.4
463.426	356.87
463.636	329.94
463.846	286.15
464.056	283.24
464.265	367.91
464.475	289.83
464.685	329.16
464.895	332.84
465.104	323.35
465.314	353.57
465.524	315.6
465.733	315.02
465.943	386.12
466.153	376.43
466.362	334.59
466.572	350.86
466.782	344.27
466.991	352.02
467.201	397.94
467.41	277.04
467.62	347.57
467.829	327.22
468.039	324.12
468.249	341.95
468.458	333.23
468.668	348.92
468.877	361.32
469.086	402.59
469.296	413.83
469.505	349.12
469.715	427
469.924	363.26
470.134	403.37
470.343	400.65
470.552	354.35
470.762	365.97
470.971	341.37
471.18	355.9
471.39	377.6
471.599	343.5
471.808	403.37
472.018	349.89
472.227	403.75
472.436	440.18
472.645	379.73
472.855	361.13
473.064	423.9
473.273	400.85
473.482	386.9
473.691	410.53
473.901	415.38
474.11	378.18
474.319	489.2
474.528	401.43
474.737	457.42
474.946	422.16
475.155	437.66
475.364	472.73
475.573	423.71
475.783	470.98
475.992	457.03
476.201	470.01
476.41	423.52
476.619	409.18
476.828	457.61
477.037	432.62
477.245	441.53
477.454	495.01
477.663	439.6
477.872	439.4
478.081	514.19
478.29	420.42
478.499	520.39
478.708	474.66
478.917	521.75
479.125	478.73
479.334	483.19
479.543	438.43
479.752	482.8
479.961	501.4
480.169	547.32
480.378	447.73
480.587	604.86
480.796	485.13
481.004	516.13
481.213	535.89
481.422	537.63
481.63	535.11
481.839	550.61
482.048	585.49
482.256	529.88
482.465	555.26
482.674	559.14
482.882	594.01
483.091	622.11
483.299	558.56
483.508	609.13
483.716	573.48
483.925	570.96
484.134	582.97
484.342	538.6
484.551	591.88
484.759	554.29
484.967	606.03
485.176	623.66
485.384	594.79
485.593	610.68
485.801	588.01
486.01	563.4
486.218	545.77
486.426	512.83
486.635	536.28
486.843	514.58
487.051	557.39
487.26	544.22
487.468	594.4
487.676	605.25
487.885	595.56
488.093	562.82
488.301	607.19
488.509	621.33
488.717	654.46
488.926	625.59
489.134	608.54
489.342	636.06
489.55	612.03
489.758	601.18
489.967	618.04
490.175	739.9
490.383	663.57
490.591	690.69
490.799	636.64
491.007	741.84
491.215	677.52
491.423	676.94
491.631	672.48
491.839	656.4
492.047	689.14
492.255	642.84
492.463	622.3
492.671	642.06
492.879	699.61
493.087	690.5
493.295	699.02
493.503	755.21
493.711	740.68
493.919	771.87
494.127	730.22
494.334	770.52
494.542	711.04
494.75	743.39
494.958	706.58
495.166	792.02
495.374	757.92
495.581	775.94
495.789	772.84
495.997	807.72
496.205	744.55
496.412	756.37
496.62	747.46
496.828	795.9
497.035	782.53
497.243	818.37
497.451	766.45
497.658	791.05
497.866	783.69
498.074	860.61
498.281	776.91
498.489	865.45
498.696	840.07
498.904	797.64
499.112	787.95
499.319	898.39
499.527	796.87
499.734	873.59
499.942	781.95
500.149	833.68
500.357	856.35
500.564	805.97
500.771	851.5
500.979	811.01
501.186	799.38
501.394	855.96
501.601	830.77
501.808	863.13
502.016	825.54
502.223	839.49
502.43	831.55
502.638	842.2
502.845	850.15
503.052	917.38
503.26	902.26
503.467	956.71
503.674	905.36
503.881	911.76
504.089	978.99
504.296	941.01
504.503	875.72
504.71	931.33
504.917	905.17
505.125	947.6
505.332	939.46
505.539	970.85
505.746	1012.31
505.953	1012.12
506.16	982.09
506.367	1049.32
506.574	1061.72
506.781	1077.99
506.988	996.23
507.195	1017.35
507.402	1015.61
507.609	1070.24
507.816	1003.79
508.023	1044.09
508.23	1011.93
508.437	969.49
508.644	1040.02
508.851	1099.11
509.058	1098.72
509.265	1095.24
509.472	1107.44
509.679	1164.02
509.885	1118.1
510.092	1108.22
510.299	1109.96
510.506	1097.76
510.713	1120.04
510.92	1116.74
511.126	1166.54
511.333	1209.35
511.54	1179.32
511.746	1249.65
511.953	1240.55
512.16	1252.17
512.367	1224.27
512.573	1240.35
512.78	1218.27
512.987	1204.7
513.193	1263.6
513.4	1178.94
513.606	1237.64
513.813	1262.05
514.02	1252.37
514.226	1313.98
514.433	1292.08
514.639	1256.82
514.846	1234.93
515.052	1241.9
515.259	1291.12
515.465	1291.12
515.672	1299.25
515.878	1381.4
516.085	1331.03
516.291	1404.26
516.497	1314.75
516.704	1347.5
516.91	1274.07
517.117	1229.5
517.323	1140.38
517.529	1212.45
517.736	1239.77
517.942	1265.15
518.148	1306.42
518.354	1333.93
518.561	1338.78
518.767	1329.67
518.973	1375.98
519.179	1367.06
519.386	1353.7
519.592	1404.65
519.798	1365.51
520.004	1490.48
520.21	1443.59
520.417	1505.21
520.623	1542.02
520.829	1557.91
521.035	1562.94
521.241	1549.96
521.447	1575.34
521.653	1660.98
521.859	1573.99
522.065	1614.48
522.271	1713.1
522.477	1700.89
522.683	1690.23
522.889	1636.18
523.095	1667.95
523.301	1680.35
523.507	1621.65
523.713	1662.53
523.919	1636.18
524.125	1747.78
524.331	1749.72
524.537	1817.91
524.742	1821.6
524.948	1835.16
525.154	1804.35
525.36	1931.84
525.566	1806.68
525.772	1874.68
525.977	1831.48
526.183	1806.68
526.389	1865.19
526.595	1800.48
526.8	1774.71
527.006	1726.27
527.212	1690.23
527.417	1708.06
527.623	1727.63
527.829	1793.31
528.034	1813.07
528.24	1808.23
528.446	1819.85
528.651	1908.39
528.857	1924.86
529.062	1998.49
529.268	1937.46
529.473	1972.72
529.679	1971.75
529.884	2039.75
530.09	2035.49
530.295	2028.13
530.501	2002.36
530.706	2016.7
530.912	1982.79
531.117	2041.5
531.323	2024.64
531.528	2070.37
531.733	2088.19
531.939	2068.24
532.144	2105.24
532.35	2049.64
532.555	2092.26
532.76	2100.79
532.966	2073.08
533.171	2053.9
533.376	2036.85
533.581	1986.47
533.787	2044.99
533.992	2074.63
534.197	2106.6
534.402	2090.71
534.607	2109.31
534.813	2208.31
535.018	2122.68
535.223	2117.64
535.428	2170.92
535.633	2200.76
535.838	2224.2
536.043	2225.56
536.249	2307.51
536.454	2176.54
536.659	2208.12
536.864	2205.99
537.069	2174.41
537.274	2223.81
537.479	2211.41
537.684	2193.78
537.889	2182.55
538.094	2306.35
538.299	2182.93
538.504	2248.23
538.708	2203.86
538.913	2256.95
539.118	2248.23
539.323	2265.28
539.528	2225.36
539.733	2206.38
539.938	2237.38
540.142	2242.8
540.347	2184.1
540.552	2205.41
540.757	2174.99
540.962	2227.88
541.166	2102.72
541.371	2143.02
541.576	2202.5
541.781	2130.82
541.985	2254.23
542.19	2225.56
542.395	2255.2
542.599	2270.51
542.804	2241.83
543.008	2327.28
543.213	2247.45
543.418	2247.26
543.622	2308.48
543.827	2257.53
544.031	2335.8
544.236	2347.62
544.44	2316.23
544.645	2396.83
544.849	2319.53
545.054	2375.71
545.258	2389.47
545.463	2386.76
545.667	2300.73
545.872	2383.07
546.076	2354.79
546.281	2371.06
546.485	2330.96
546.689	2390.44
546.894	2367.38
547.098	2335.22
547.302	2338.71
547.507	2372.81
547.711	2348.59
547.915	2401.09
548.119	2303.25
548.324	2335.99
548.528	2369.12
548.732	2336.77
548.936	2410.2
549.141	2403.22
549.345	2352.85
549.549	2375.32
549.753	2382.49
549.957	2438.1
550.161	2459.41
550.366	2367.96
550.57	2360.21
550.774	2416.4
550.978	2369.51
551.182	2439.84
551.386	2381.14
551.59	2359.24
551.794	2362.15
551.998	2395.67
552.202	2425.31
552.406	2367.38
552.61	2449.34
552.814	2419.5
553.018	2474.91
553.222	2376.87
553.426	2378.42
553.63	2488.28
553.833	2326.89
554.037	2369.71
554.241	2429.96
554.445	2417.76
554.649	2417.76
554.853	2396.25
555.056	2414.27
555.26	2468.13
555.464	2429.38
555.668	2412.52
555.871	2415.43
556.075	2421.82
556.279	2367.19
556.483	2325.34
556.686	2374.94
556.89	2365.64
557.094	2393.15
557.297	2309.64
557.501	2366.03
557.704	2295.69
557.908	2366.99
558.112	2314.88
558.315	2411.56
558.519	2320.3
558.722	2331.54
558.926	2300.93
559.129	2209.28
559.333	2206.18
559.536	2233.31
559.74	2252.68
559.943	2185.84
560.147	2216.06
560.35	2200.76
560.553	2237.76
560.757	2241.83
560.96	2286.2
561.164	2194.17
561.367	2293.76
561.57	2229.82
561.774	2242.41
561.977	2201.92
562.18	2230.4
562.384	2317.01
562.587	2236.8
562.79	2203.08
562.993	2217.23
563.197	2276.32
563.4	2257.91
563.603	2276.13
563.806	2297.83
564.009	2230.01
564.212	2196.88
564.416	2173.05
564.619	2213.74
564.822	2154.65
565.025	2220.91
565.228	2161.43
565.431	2205.21
565.634	2138.18
565.837	2103.5
566.04	2071.92
566.243	2081.6
566.446	2039.95
566.649	2109.89
566.852	2055.25
567.055	2070.95
567.258	2104.08
567.461	2125.39
567.664	2163.95
567.867	2053.7
568.07	2109.7
568.273	2075.4
568.475	2104.27
568.678	2026.97
568.881	2048.86
569.084	2058.16
569.287	1943.85
569.489	1967.68
569.692	2018.64
569.895	2016.51
570.098	1931.64
570.3	1903.36
570.503	1857.05
570.706	1928.74
570.909	1908.2
571.111	1864.03
571.314	1809.78
571.516	1884.95
571.719	1860.93
571.922	1859.38
572.124	1868.29
572.327	1872.55
572.529	1822.37
572.732	1824.31
572.935	1888.63
573.137	1935.91
573.34	1825.47
573.542	1899.68
573.745	1891.73
573.947	1897.54
574.15	1847.36
574.352	1817.72
574.554	1870.23
574.757	1815.4
574.959	1773.93
575.162	1795.25
575.364	1744.87
575.566	1872.16
575.769	1750.88
575.971	1785.75
576.173	1695.08
576.376	1742.35
576.578	1786.53
576.78	1822.95
576.982	1689.46
577.185	1758.05
577.387	1711.93
577.589	1735.77
577.791	1740.03
577.993	1748.75
578.196	1716
578.398	1761.73
578.6	1744.68
578.802	1669.5
579.004	1678.22
579.206	1722.01
579.408	1691.59
579.61	1684.81
579.812	1725.69
580.014	1672.41
580.216	1677.83
580.418	1701.08
580.62	1683.07
580.822	1688.49
581.024	1697.4
581.226	1725.69
581.428	1707.67
581.63	1789.43
581.832	1706.51
582.034	1761.92
582.236	1756.5
582.438	1760.18
582.64	1733.05
582.841	1767.54
583.043	1793.7
583.245	1732.28
583.447	1754.95
583.649	1741
583.85	1754.75
584.052	1748.55
584.254	1688.3
584.456	1773.55
584.657	1676.09
584.859	1711.16
585.061	1691.78
585.262	1671.25
585.464	1656.14
585.666	1716.39
585.867	1642.57
586.069	1711.16
586.27	1679.77
586.472	1662.92
586.674	1645.87
586.875	1668.15
587.077	1637.54
587.278	1682.87
587.48	1644.51
587.681	1716
587.883	1656.14
588.084	1597.04
588.285	1605.57
588.487	1589.49
588.688	1616.42
588.89	1528.65
589.091	1500.94
589.292	1503.27
589.494	1421.89
589.695	1415.5
589.896	1372.68
590.098	1379.85
590.299	1435.07
590.5	1423.06
590.702	1473.24
590.903	1517.41
591.104	1544.54
591.305	1520.71
591.507	1530.97
591.708	1539.11
591.909	1518.38
592.11	1555.77
592.311	1537.76
592.512	1484.86
592.714	1481.96
592.915	1471.88
593.116	1469.17
593.317	1508.89
593.518	1502.3
593.719	1544.34
593.92	1523.61
594.121	1567.79
594.322	1527.68
594.523	1525.16
594.724	1448.83
594.925	1492.42
595.126	1480.79
595.327	1486.03
595.528	1516.64
595.729	1507.72
595.929	1484.67
596.13	1499.39
596.331	1500.17
596.532	1551.71
596.733	1567.01
596.934	1520.9
597.135	1541.05
597.335	1560.62
597.536	1501.52
597.737	1555.77
597.938	1497.26
598.138	1521.48
598.339	1509.47
598.54	1536.98
598.74	1506.76
598.941	1504.43
599.142	1542.02
599.342	1544.34
599.543	1489.51
599.744	1491.26
599.944	1510.44
600.145	1524
600.345	1505.79
600.546	1555.39
600.746	1552.67
600.947	1585.03
601.147	1488.74
601.348	1550.74
601.548	1479.83
601.749	1531.36
601.949	1460.26
602.15	1481.18
602.35	1491.45
602.551	1530.59
602.751	1457.35
602.951	1456.19
603.152	1424.22
603.352	1511.02
603.552	1495.91
603.753	1520.71
603.953	1501.52
604.153	1514.89
604.354	1494.55
604.554	1466.46
604.754	1487.96
604.954	1464.91
605.155	1535.82
605.355	1491.84
605.555	1531.56
605.755	1556.74
605.955	1500.36
606.155	1521.48
606.356	1481.38
606.556	1517.02
606.756	1512.57
606.956	1456.19
607.156	1533.3
607.356	1452.89
607.556	1480.6
607.756	1503.85
607.956	1539.89
608.156	1505.98
608.356	1462.78
608.556	1485.44
608.756	1491.84
608.956	1462
609.156	1454.25
609.356	1400.78
609.556	1424.99
609.755	1467.23
609.955	1424.22
610.155	1453.28
610.355	1437.01
610.555	1394.77
610.755	1444.95
610.954	1354.08
611.154	1443.59
611.354	1423.44
611.554	1392.45
611.753	1412.98
611.953	1363.77
612.153	1412.21
612.352	1433.71
612.552	1346.14
612.752	1358.35
612.951	1405.04
613.151	1394.58
613.351	1324.25
613.55	1374.81
613.75	1385.86
613.949	1321.73
614.149	1349.63
614.348	1345.36
614.548	1319.98
614.747	1279.3
614.947	1311.85
615.146	1252.75
615.346	1380.82
615.545	1335.87
615.745	1326.38
615.944	1367.26
616.144	1306.42
616.343	1337.42
616.542	1317.66
616.742	1303.13
616.941	1284.92
617.14	1244.81
617.34	1312.62
617.539	1278.91
617.738	1260.31
617.938	1307.58
618.137	1283.75
618.336	1269.42
618.535	1264.96
618.734	1301.19
618.934	1327.15
619.133	1309.33
619.332	1322.89
619.531	1237.64
619.73	1251.4
619.929	1311.85
620.128	1305.65
620.328	1319.98
620.527	1280.07
620.726	1224.85
620.925	1295.96
621.124	1267.87
621.323	1276
621.522	1214.59
621.721	1250.04
621.92	1212.45
622.119	1260.7
622.318	1248.68
622.517	1239.58
622.715	1209.74
622.914	1184.36
623.113	1239.77
623.312	1185.14
623.511	1240.35
623.71	1239.77
623.909	1182.42
624.107	1263.6
624.306	1153.17
624.505	1144.64
624.704	1196.76
624.902	1180.87
625.101	1253.92
625.3	1201.8
625.499	1164.02
625.697	1191.72
625.896	1182.04
626.095	1199.86
626.293	1137.09
626.492	1160.72
626.69	1179.9
626.889	1177
627.088	1193.85
627.286	1144.84
627.485	1137.28
627.683	1131.47
627.882	1170.99
628.08	1063.85
628.279	1088.26
628.477	1156.07
628.676	1092.72
628.874	1091.94
629.073	1097.76
629.271	1088.84
629.469	1104.15
629.668	1116.16
629.866	1062.88
630.065	1095.82
630.263	1137.86
630.461	1074.89
630.66	1115.77
630.858	1152.97
631.056	1166.73
631.254	1148.32
631.453	1095.82
631.651	1157.43
631.849	1080.32
632.047	1128.56
632.245	1110.93
632.444	1164.4
632.642	1148.52
632.84	1132.63
633.038	1112.87
633.236	1064.43
633.434	1098.53
633.632	1091.75
633.83	1083.03
634.028	1130.69
634.227	1112.67
634.425	1161.3
634.623	1097.56
634.821	1142.51
635.019	1165.18
635.216	1111.9
635.414	1139.41
635.612	1131.66
635.81	1106.28
636.008	1154.91
636.206	1148.13
636.404	1142.71
636.602	1093.69
636.8	1127.79
636.997	1147.74
637.195	1178.16
637.393	1132.44
637.591	1204.12
637.789	1151.04
637.986	1090.01
638.184	1120.81
638.382	1150.26
638.58	1132.82
638.777	1173.12
638.975	1113.26
639.173	1082.06
639.37	1131.66
639.568	1099.5
639.765	1121.59
639.963	1087.68
640.161	1117.52
640.358	1109.96
640.556	1056.68
640.753	1037.89
640.951	1051.06
641.148	1089.62
641.346	1073.15
641.543	1053
641.741	1086.32
641.938	1026.46
642.136	1067.72
642.333	999.33
642.531	1072.37
642.728	1056.1
642.925	1043.89
643.123	1059.2
643.32	1044.28
643.517	1022.39
643.715	1035.56
643.912	1022.97
644.109	1032.08
644.306	1026.84
644.504	994.29
644.701	1018.13
644.898	1008.83
645.095	964.07
645.293	985.58
645.49	1013.48
645.687	994.1
645.884	1022
646.081	929.2
646.278	926.1
646.475	927.06
646.672	962.13
646.87	941.21
647.067	933.65
647.264	916.99
647.461	906.14
647.658	879.98
647.855	910.98
648.052	877.85
648.249	822.44
648.446	871.27
648.642	889.67
648.839	851.89
649.036	884.44
649.233	832.32
649.43	829.03
649.627	771.29
649.824	836.78
650.021	855.18
650.217	845.3
650.414	838.52
650.611	855.96
650.808	895.68
651.004	891.03
651.201	895.29
651.398	907.69
651.595	869.52
651.791	850.15
651.988	871.85
652.185	851.7
652.381	873.2
652.578	817.6
652.775	855.57
652.971	842.01
653.168	831.35
653.364	879.02
653.561	800.74
653.757	833.68
653.954	832.9
654.15	816.05
654.347	890.45
654.543	842.2
654.74	785.82
654.936	804.62
655.133	790.67
655.329	856.73
655.525	823.41
655.722	818.95
655.918	746.3
656.115	775.36
656.311	709.87
656.507	711.23
656.704	659.89
656.9	702.32
657.096	681.01
657.292	698.64
657.489	735.45
657.685	766.45
657.881	745.91
658.077	743
658.273	759.67
658.47	810.23
658.666	754.05
658.862	818.57
659.058	743.39
659.254	794.35
659.45	736.03
659.646	778.27
659.842	728.47
660.038	801.9
660.234	762.38
660.43	752.69
660.626	822.63
660.822	774.59
661.018	810.04
661.214	747.85
661.41	725.18
661.606	785.63
661.802	793.96
661.998	741.26
662.194	727.89
662.39	743.97
662.586	760.25
662.781	770.13
662.977	749.01
663.173	752.69
663.369	726.54
663.564	760.83
663.76	761.22
663.956	724.02
664.152	743.39
664.347	673.64
664.543	709.68
664.739	726.15
664.934	660.27
665.13	687.4
665.326	725.57
665.521	711.23
665.717	678.87
665.912	670.93
666.108	633.73
666.304	687.01
666.499	691.86
666.695	635.67
666.89	687.21
667.086	723.63
667.281	699.99
667.477	722.66
667.672	689.34
667.867	696.7
668.063	687.98
668.258	661.44
668.454	660.86
668.649	734.09
668.844	665.12
669.04	703.67
669.235	629.27
669.43	650.97
669.626	626.95
669.821	636.25
670.016	572.89
670.211	645.36
670.407	592.27
670.602	634.12
670.797	622.88
670.992	699.61
671.187	620.75
671.382	680.23
671.578	625.98
671.773	628.11
671.968	615.71
672.163	609.51
672.358	638.96
672.553	613.97
672.748	594.4
672.943	702.71
673.138	619.59
673.333	637.41
673.528	593.63
673.723	620.36
673.918	615.52
674.113	583.36
674.308	680.42
674.503	622.3
674.698	640.51
674.892	610.87
675.087	659.31
675.282	620.56
675.477	594.79
675.672	607.77
675.867	600.41
676.061	578.32
676.256	559.14
676.451	591.69
676.646	585.68
676.84	579.29
677.035	562.43
677.23	571.15
677.424	609.13
677.619	637.61
677.814	645.16
678.008	646.52
678.203	527.75
678.397	584.33
678.592	601.18
678.787	639.74
678.981	588.98
679.176	635.47
679.37	593.63
679.565	560.3
679.759	589.75
679.954	620.56
680.148	631.79
680.342	642.45
680.537	618.43
680.731	619.59
680.926	617.46
681.12	613.19
681.314	588.2
681.509	589.36
681.703	605.06
681.897	631.79
682.092	610.09
682.286	571.93
682.48	668.02
682.674	652.33
682.869	606.99
683.063	626.37
683.257	688.76
683.451	588.98
683.645	629.08
683.839	632.96
684.034	629.86
684.228	680.04
684.422	578.9
684.616	600.41
684.81	664.54
685.004	619.2
685.198	666.09
685.392	683.52
685.586	617.07
685.78	648.65
685.974	674.81
686.168	668.41
686.362	700.19
686.556	624.24
686.75	588.59
686.944	587.62
687.138	598.66
687.331	521.55
687.525	526.78
687.719	480.48
687.913	544.22
688.107	538.02
688.301	563.01
688.494	589.75
688.688	557.98
688.882	523.68
689.076	550.03
689.269	575.22
689.463	654.46
689.657	589.56
689.85	563.79
690.044	604.67
690.238	625.01
690.431	646.32
690.625	612.42
690.818	707.94
691.012	664.73
691.205	757.92
691.399	675.58
691.593	736.8
691.786	801.9
691.98	774.78
692.173	847.82
692.366	801.13
692.56	816.63
692.753	879.21
692.947	804.42
693.14	891.22
693.333	874.56
693.527	839.3
693.72	909.82
693.914	873.59
694.107	871.85
694.3	935.01
694.493	912.15
694.687	957.29
694.88	913.5
695.073	989.06
695.266	994.29
695.46	999.72
695.653	1016.38
695.846	1040.6
696.039	988.48
696.232	1030.14
696.425	1108.22
696.618	1120.04
696.812	1130.11
697.005	1220.4
697.198	1271.35
697.391	1179.9
697.584	1252.17
697.777	1292.86
697.97	1266.12
698.163	1274.07
698.356	1276.97
698.549	1375.78
698.742	1322.5
698.935	1274.84
699.127	1319.01
699.32	1321.73
699.513	1313.59
699.706	1377.53
699.899	1399.61
700.092	1294.22
700.285	1388.18
700.477	1338.78
700.67	1374.81
700.863	1401.55
701.056	1485.06
701.248	1476.73
701.441	1464.33
701.634	1438.36
701.826	1551.32
702.019	1407.75
702.212	1509.27
702.404	1474.4
702.597	1462.19
702.79	1531.56
702.982	1521.09
703.175	1584.45
703.367	1606.15
703.56	1620.68
703.752	1676.87
703.945	1640.83
704.137	1681.9
704.33	1672.99
704.522	1726.27
704.715	1717.55
704.907	1752.43
705.1	1781.3
705.292	1790.6
705.484	1751.65
705.677	1821.01
705.869	1821.21
706.061	1838.65
706.254	1910.14
706.446	1856.66
706.638	1827.8
706.831	1907.23
707.023	1880.88
707.215	1973.11
707.407	1955.28
707.599	1935.52
707.792	2022.51
707.984	2009.14
708.176	2017.28
708.368	2000.42
708.56	2021.35
708.752	2041.3
708.944	2022.12
709.136	2067.85
709.329	2038.4
709.521	2150.97
709.713	2144.18
709.905	2099.04
710.097	2176.35
710.289	2102.14
710.481	2141.08
710.672	2152.52
710.864	2192.23
711.056	2239.7
711.248	2237.38
711.44	2221.68
711.632	2182.93
711.824	2246.1
712.016	2362.54
712.207	2278.26
712.399	2277.87
712.591	2365.06
712.783	2328.44
712.975	2323.21
713.166	2287.17
713.358	2329.02
713.55	2406.71
713.741	2405.16
713.933	2369.32
714.125	2375.32
714.316	2354.4
714.508	2397.41
714.7	2390.82
714.891	2439.26
715.083	2435
715.274	2414.46
715.466	2439.84
715.657	2417.76
715.849	2360.6
716.04	2372.61
716.232	2321.08
716.423	2363.12
716.615	2290.66
716.806	2229.63
716.998	2136.24
717.189	2076.76
717.381	2012.82
717.572	2011.47
717.763	1998.29
717.955	1994.42
718.146	1908.59
718.337	1876.04
718.528	1842.71
718.72	1776.26
718.911	1824.5
719.102	1759.79
719.293	1818.69
719.485	1799.31
719.676	1773.16
719.867	1729.37
720.058	1741.19
720.249	1799.9
720.44	1741
720.632	1858.79
720.823	1888.63
721.014	1981.05
721.205	2021.93
721.396	2132.17
721.587	2227.3
721.778	2249.97
721.969	2315.65
722.16	2362.93
722.351	2358.28
722.542	2440.04
722.733	2477.62
722.924	2356.34
723.115	2403.81
723.305	2384.82
723.496	2412.14
723.687	2289.88
723.878	2296.28
724.069	2257.14
724.26	2259.27
724.45	2213.16
724.641	2203.47
724.832	2238.15
725.023	2227.88
725.213	2205.99
725.404	2172.86
725.595	2195.91
725.785	2205.6
725.976	2242.03
726.167	2225.75
726.357	2223.62
726.548	2288.14
726.739	2234.08
726.929	2333.28
727.12	2307.71
727.31	2320.69
727.501	2280.39
727.691	2291.04
727.882	2321.66
728.072	2342.39
728.263	2371.64
728.453	2429.38
728.644	2405.94
728.834	2385.4
729.024	2406.71
729.215	2351.49
729.405	2407.87
729.596	2468.71
729.786	2454.76
729.976	2487.12
730.167	2456.31
730.357	2437.91
730.547	2483.05
730.737	2533.62
730.928	2531.87
731.118	2580.89
731.308	2524.9
731.498	2535.75
731.688	2603.17
731.879	2610.34
732.069	2632.23
732.259	2704.89
732.449	2730.85
732.639	2807.57
732.829	2795.56
733.019	2893.4
733.209	2933.7
733.399	2955.4
733.589	3020.7
733.779	3043.95
733.969	3020.5
734.159	3108.85
734.349	3159.42
734.539	3216.96
734.729	3166.2
734.919	3180.15
735.109	3258.81
735.299	3168.14
735.488	3205.73
735.678	3229.94
735.868	3223.94
736.058	3219.29
736.248	3183.06
736.437	3173.95
736.627	3166.01
736.817	3282.45
737.007	3213.28
737.196	3244.09
737.386	3276.25
737.576	3202.24
737.765	3299.89
737.955	3304.92
738.144	3398.12
738.334	3282.84
738.524	3275.67
738.713	3345.42
738.903	3277.99
739.092	3370.41
739.282	3315.97
739.471	3384.94
739.661	3352
739.85	3464.96
740.04	3383.39
740.229	3419.43
740.419	3486.47
740.608	3457.02
740.797	3461.08
740.987	3499.45
741.176	3504.1
741.365	3473.1
741.555	3416.72
741.744	3509.52
741.933	3481.04
742.123	3544.2
742.312	3512.62
742.501	3541.1
742.69	3586.63
742.88	3466.7
743.069	3603.29
743.258	3550.98
743.447	3596.51
743.636	3615.11
743.825	3591.28
744.014	3609.11
744.204	3607.75
744.393	3531.03
744.582	3650.18
744.771	3724
744.96	3608.72
745.149	3595.16
745.338	3626.16
745.527	3693
745.716	3612.98
745.905	3627.13
746.094	3661.42
746.283	3656.58
746.471	3624.8
746.66	3698.81
746.849	3728.46
747.038	3692.42
747.227	3664.91
747.416	3689.51
747.604	3645.34
747.793	3646.31
747.982	3664.33
748.171	3668.78
748.359	3706.95
748.548	3666.07
748.737	3614.73
748.926	3664.71
749.114	3566.1
749.303	3657.74
749.491	3624.61
749.68	3544.01
749.869	3638.75
750.057	3619.18
750.246	3578.5
750.434	3623.06
750.623	3677.89
750.811	3624.61
751	3660.26
751.188	3580.82
751.377	3588.57
751.565	3596.71
751.754	3534.71
751.942	3535.29
752.131	3619.38
752.319	3543.62
752.507	3550.6
752.696	3581.21
752.884	3568.81
753.072	3543.81
753.261	3563.19
753.449	3556.6
753.637	3533.93
753.825	3596.9
754.014	3562.03
754.202	3544.2
754.39	3562.03
754.578	3588.96
754.766	3503.32
754.955	3503.9
755.143	3587.99
755.331	3555.25
755.519	3519.01
755.707	3492.28
755.895	3481.82
756.083	3481.62
756.271	3471.16
756.459	3556.21
756.647	3533.93
756.835	3472.32
757.023	3458.57
757.211	3466.9
757.399	3484.72
757.587	3458.76
757.775	3416.13
757.963	3465.15
758.151	3417.1
758.339	3373.51
758.526	3328.37
758.714	3400.25
758.902	3259.97
759.09	3148.18
759.278	2956.57
759.465	2732.4
759.653	2347.62
759.841	2143.02
760.028	1856.08
760.216	1599.95
760.404	1493.77
760.591	1225.82
760.779	1034.01
760.967	930.55
761.154	724.02
761.342	782.53
761.529	770.52
761.717	823.02
761.905	818.57
762.092	858.28
762.28	792.8
762.467	810.04
762.655	713.17
762.842	759.47
763.029	785.24
763.217	741.84
763.404	755.02
763.592	777.69
763.779	761.6
763.966	794.35
764.154	830.77
764.341	898.2
764.528	895.1
764.716	957.87
764.903	1024.13
765.09	1074.89
765.277	1170.02
765.465	1288.21
765.652	1347.11
765.839	1428.68
766.026	1558.29
766.213	1594.91
766.4	1687.72
766.588	1902.78
766.775	1921.96
766.962	2060.49
767.149	2141.08
767.336	2257.33
767.523	2281.94
767.71	2372.61
767.897	2472
768.084	2556.67
768.271	2618.48
768.458	2669.05
768.645	2735.89
768.832	2728.91
769.019	2794.4
769.206	2822.3
769.392	2869.38
769.579	2983.3
769.766	2912.39
769.953	2894.95
770.14	2962.19
770.327	2976.33
770.513	3016.63
770.7	3087.73
770.887	2990.08
771.073	3037.36
771.26	3048.6
771.447	2996.09
771.634	2965.09
771.82	3063.9
772.007	2970.32
772.193	3052.08
772.38	3079.4
772.567	3029.42
772.753	3052.67
772.94	3095.1
773.126	3060.03
773.313	3048.6
773.499	3077.46
773.686	3109.24
773.872	3037.55
774.059	3091.22
774.245	3011.2
774.432	3049.37
774.618	2979.62
774.804	3064.1
774.991	2942.23
775.177	3027.87
775.363	2994.73
775.55	3010.43
775.736	2990.28
775.922	3006.55
776.109	3000.74
776.295	2967.03
776.481	3036.97
776.667	3001.13
776.853	3002.68
777.04	2967.8
777.226	2954.05
777.412	3046.85
777.598	2934.87
777.784	2949.79
777.97	2924.79
778.156	2935.64
778.342	2955.99
778.528	2900.38
778.715	2843.22
778.901	2889.14
779.087	2948.43
779.272	2903.48
779.458	2888.17
779.644	2925.76
779.83	2925.76
780.016	2965.09
780.202	2890.11
780.388	2884.3
780.574	2840.71
780.76	2817.65
780.946	2874.22
781.131	2871.71
781.317	2848.07
781.503	2811.45
781.689	2822.69
781.874	2933.12
782.06	2823.46
782.246	2828.11
782.432	2780.06
782.617	2839.74
782.803	2835.67
782.989	2786.07
783.174	2746.74
783.36	2725.23
783.545	2771.34
783.731	2744.61
783.916	2687.65
784.102	2762.04
784.288	2739.76
784.473	2691.33
784.659	2710.7
784.844	2751.78
785.029	2705.66
785.215	2671.56
785.4	2621.77
785.586	2740.93
785.771	2661.3
785.956	2710.9
786.142	2629.33
786.327	2621.58
786.512	2700.24
786.698	2636.69
786.883	2591.93
787.068	2634.95
787.254	2654.9
787.439	2604.92
787.624	2597.94
787.809	2586.12
787.994	2571.2
788.18	2610.34
788.365	2531.49
788.55	2551.25
788.735	2521.8
788.92	2530.9
789.105	2563.07
789.29	2505.72
789.475	2484.6
789.66	2506.88
789.845	2478.01
790.03	2456.89
790.215	2525.87
790.4	2509.01
790.585	2507.46
790.77	2464.64
790.955	2401.29
791.14	2459.8
791.325	2489.44
791.51	2358.28
791.695	2431.12
791.879	2442.75
792.064	2401.87
792.249	2499.9
792.434	2420.08
792.618	2416.4
792.803	2441.97
792.988	2402.84
793.173	2446.62
793.357	2457.86
793.542	2419.5
793.727	2432.09
793.911	2490.8
794.096	2458.25
794.281	2480.92
794.465	2525.09
794.65	2448.17
794.834	2523.15
795.019	2498.35
795.203	2502.23
795.388	2511.14
795.572	2499.52
795.757	2517.73
795.941	2512.11
796.126	2507.07
796.31	2418.34
796.494	2447.01
796.679	2450.5
796.863	2440.04
797.048	2507.85
797.232	2497.19
797.416	2473.94
797.601	2470.07
797.785	2567.52
797.969	2520.83
798.153	2470.07
798.338	2529.74
798.522	2509.4
798.706	2517.73
798.89	2511.53
799.074	2618.87
799.258	2596.2
799.443	2535.55
799.627	2530.52
799.811	2578.95
799.995	2506.3
800.179	2468.32
800.363	2509.79
800.547	2522.38
800.731	2563.07
800.915	2462.7
801.099	2458.05
801.283	2477.62
801.467	2506.3
801.651	2457.47
801.835	2524.12
802.019	2493.7
802.202	2497.97
802.386	2448.56
802.57	2416.01
802.754	2510.37
802.938	2451.86
803.121	2483.05
803.305	2505.14
803.489	2441.78
803.673	2468.9
803.856	2484.6
804.04	2422.6
804.224	2492.35
804.407	2441.59
804.591	2455.54
804.775	2423.37
804.958	2457.47
805.142	2573.92
805.326	2487.7
805.509	2466.77
805.693	2524.9
805.876	2494.09
806.06	2485.37
806.243	2524.51
806.427	2524.32
806.61	2522.96
806.794	2486.73
806.977	2551.25
807.16	2518.5
807.344	2538.85
807.527	2515.02
807.71	2497
807.894	2515.4
808.077	2541.95
808.26	2485.37
808.444	2474.33
808.627	2509.2
808.81	2463.48
808.993	2377.07
809.177	2405.55
809.36	2432.48
809.543	2412.72
809.726	2334.25
809.909	2383.07
810.092	2321.66
810.276	2334.06
810.459	2336.77
810.642	2343.36
810.825	2267.21
811.008	2279.23
811.191	2190.1
811.374	2216.84
811.557	2236.6
811.74	2256.75
811.923	2142.05
812.106	2161.43
812.289	2141.47
812.472	2168.21
812.654	2098.27
812.837	2106.02
813.02	2017.09
813.203	1990.54
813.386	1907.81
813.569	1897.74
813.751	1863.25
813.934	1913.82
814.117	1875.65
814.3	1856.86
814.482	1783.23
814.665	1734.99
814.848	1715.03
815.03	1679.38
815.213	1643.35
815.396	1658.27
815.578	1619.52
815.761	1600.92
815.943	1639.67
816.126	1533.88
816.309	1560.42
816.491	1486.41
816.674	1399.81
816.856	1481.38
817.039	1451.34
817.221	1550.16
817.403	1471.69
817.586	1520.32
817.768	1520.51
817.951	1437.2
818.133	1459.09
818.315	1464.33
818.498	1498.23
818.68	1570.69
818.862	1557.91
819.045	1572.24
819.227	1524.77
819.409	1491.06
819.591	1547.64
819.774	1508.5
819.956	1516.06
820.138	1586.58
820.32	1565.46
820.502	1653.04
820.684	1699.34
820.866	1725.69
821.048	1725.88
821.231	1752.43
821.413	1731.89
821.595	1747.39
821.777	1731.7
821.959	1696.24
822.141	1771.41
822.323	1647.8
822.505	1600.34
822.686	1545.51
822.868	1445.73
823.05	1334.71
823.232	1339.94
823.414	1292.28
823.596	1359.31
823.778	1359.9
823.96	1372.1
824.141	1364.35
824.323	1399.81
824.505	1466.65
824.687	1493.97
824.868	1553.06
825.05	1660.98
825.232	1681.13
825.413	1729.18
825.595	1689.46
825.777	1652.65
825.958	1683.84
826.14	1667.18
826.321	1706.51
826.503	1699.15
826.685	1685.39
826.866	1694.88
827.048	1723.95
827.229	1645.67
827.411	1641.99
827.592	1569.72
827.773	1565.07
827.955	1505.98
828.136	1554.42
828.318	1521.48
828.499	1542.02
828.68	1444.95
828.862	1514.31
829.043	1517.41
829.224	1492.42
829.406	1458.9
829.587	1496.1
829.768	1517.02
829.949	1528.84
830.131	1489.9
830.312	1543.18
830.493	1537.17
830.674	1543.57
830.855	1509.47
831.036	1495.13
831.218	1553.84
831.399	1592.97
831.58	1552.87
831.761	1537.37
831.942	1531.94
832.123	1517.02
832.304	1471.69
832.485	1505.59
832.666	1517.02
832.847	1550.74
833.028	1505.4
833.209	1541.82
833.389	1491.64
833.57	1447.47
833.751	1476.73
833.932	1537.17
834.113	1510.63
834.294	1524.39
834.475	1523.61
834.655	1548.41
834.836	1587.35
835.017	1585.61
835.198	1503.85
835.378	1567.01
835.559	1560.23
835.74	1561.2
835.92	1562.36
836.101	1527.1
836.281	1602.66
836.462	1553.26
836.643	1592.78
836.823	1624.94
837.004	1621.65
837.184	1655.94
837.365	1604.6
837.545	1614.29
837.726	1593.17
837.906	1631.72
838.087	1610.22
838.267	1599.37
838.448	1547.06
838.628	1571.66
838.808	1589.87
838.989	1637.34
839.169	1573.41
839.349	1627.46
839.53	1658.07
839.71	1638.5
839.89	1609.44
840.07	1655.75
840.251	1590.07
840.431	1653.81
840.611	1607.7
840.791	1550.74
840.971	1619.32
841.151	1586.19
841.332	1558.49
841.512	1604.79
841.692	1552.09
841.872	1605.95
842.052	1576.7
842.232	1601.3
842.412	1548.8
842.592	1567.79
842.772	1571.66
842.952	1598.98
843.132	1576.31
843.312	1551.32
843.492	1544.54
843.672	1598.59
843.851	1504.62
844.031	1552.09
844.211	1559.07
844.391	1502.69
844.571	1579.61
844.751	1575.15
844.93	1531.17
845.11	1504.24
845.29	1566.04
845.47	1586.39
845.649	1575.34
845.829	1565.07
846.009	1501.14
846.188	1567.59
846.368	1608.09
846.547	1552.09
846.727	1553.84
846.907	1503.85
847.086	1531.17
847.266	1584.06
847.445	1548.02
847.625	1534.07
847.804	1484.48
847.984	1525.55
848.163	1492.03
848.343	1520.32
848.522	1552.48
848.701	1563.91
848.881	1487.58
849.06	1517.02
849.239	1478.66
849.419	1514.7
849.598	1418.6
849.777	1425.96
849.957	1404.46
850.136	1359.12
850.315	1340.52
850.494	1398.45
850.674	1382.56
850.853	1442.04
851.032	1408.72
851.211	1443.98
851.39	1431.97
851.569	1358.54
851.748	1395.16
851.927	1401.75
852.107	1383.34
852.286	1365.13
852.465	1344.2
852.644	1405.43
852.823	1405.43
853.002	1365.51
853.181	1415.69
853.359	1389.73
853.538	1352.92
853.717	1413.37
853.896	1257.02
854.075	1265.15
854.254	1227.57
854.433	1172.93
854.611	1230.67
854.79	1142.9
854.969	1230.28
855.148	1252.37
855.327	1204.51
855.505	1267.09
855.684	1232.02
855.863	1291.7
856.041	1235.51
856.22	1301.97
856.399	1272.13
856.577	1345.17
856.756	1344.78
856.934	1446.69
857.113	1415.5
857.291	1341.49
857.47	1313.98
857.648	1342.07
857.827	1349.63
858.005	1356.99
858.184	1342.26
858.362	1426.16
858.541	1330.83
858.719	1347.3
858.898	1334.32
859.076	1287.05
859.254	1412.59
859.433	1337.81
859.611	1300.42
859.789	1280.46
859.967	1317.47
860.146	1355.05
860.324	1293.83
860.502	1278.91
860.68	1267.87
860.859	1279.88
861.037	1284.53
861.215	1278.72
861.393	1266.7
861.571	1298.48
861.749	1242.87
861.927	1308.75
862.105	1282.59
862.283	1267.09
862.461	1218.65
862.639	1281.62
862.817	1246.36
862.995	1285.5
863.173	1236.48
863.351	1288.6
863.529	1274.84
863.707	1299.83
863.885	1278.33
864.063	1189.79
864.241	1230.28
864.418	1278.33
864.596	1206.84
864.774	1192.89
864.952	1232.22
865.129	1241.32
865.307	1198.7
865.485	1180.49
865.663	1230.28
865.84	1125.66
866.018	1178.94
866.196	1054.36
866.373	1077.99
866.551	1043.12
866.728	1006.31
866.906	1033.04
867.084	1081.48
867.261	1088.26
867.439	1111.32
867.616	1146.19
867.794	1103.18
867.971	1101.63
868.149	1110.93
868.326	1171.57
868.503	1175.06
868.681	1162.47
868.858	1142.9
869.035	1101.05
869.213	1142.51
869.39	1093.11
869.567	1212.84
869.745	1129.53
869.922	1149.49
870.099	1142.12
870.276	1180.87
870.454	1157.43
870.631	1155.3
870.808	1126.24
870.985	1165.37
871.162	1189.2
871.339	1141.35
871.517	1066.95
871.694	1084.97
871.871	1103.37
872.048	1099.11
872.225	1115.19
872.402	1104.34
872.579	1040.21
872.756	1112.29
872.933	1070.05
873.11	1085.74
873.287	1105.89
873.463	1096.98
873.64	1052.42
873.817	1064.43
873.994	1098.92
874.171	1074.51
874.348	1087.68
874.524	1006.89
874.701	1056.87
874.878	982.28
875.055	1085.36
875.231	1058.42
875.408	1081.29
875.585	989.06
875.762	1070.82
875.938	1032.85
876.115	1030.91
876.291	1053.58
876.468	1023.94
876.645	1005.92
876.821	1021.03
876.998	1045.83
877.174	1041.57
877.351	1024.52
877.527	978.6
877.704	1006.5
877.88	1027.81
878.057	1001.46
878.233	1052.61
878.409	995.84
878.586	1021.03
878.762	993.33
878.938	979.18
879.115	932.1
879.291	1022.19
879.467	935.01
879.644	951.09
879.82	1013.48
879.996	969.3
880.172	952.06
880.349	969.3
880.525	985.38
880.701	946.05
880.877	918.35
881.053	945.66
881.229	951.09
881.405	1003.59
881.581	937.33
881.757	974.92
881.933	934.04
882.109	943.73
882.285	982.28
882.461	892
882.637	954.96
882.813	910.79
882.989	924.55
883.165	983.06
883.341	945.66
883.517	978.99
883.693	936.95
883.869	974.53
884.044	921.06
884.22	957.68
884.396	999.33
884.572	986.16
884.747	974.92
884.923	967.56
885.099	956.13
885.275	990.61
885.45	905.56
885.626	910.98
885.801	895.1
885.977	962.91
886.153	910.79
886.328	942.76
886.504	904.98
886.679	961.75
886.855	917.76
887.03	934.62
887.206	963.88
887.381	976.47
887.557	940.24
887.732	965.62
887.908	930.36
888.083	969.11
888.258	918.15
888.434	936.75
888.609	936.17
888.784	987.51
888.96	931.13
889.135	943.15
889.31	918.54
889.485	926.1
889.661	942.76
889.836	982.48
890.011	944.7
890.186	977.44
890.361	914.47
890.537	948.18
890.712	933.85
890.887	943.15
891.062	927.26
891.237	995.07
891.412	887.73
891.587	911.37
891.762	966.98
891.937	972.98
892.112	896.26
892.287	933.07
892.462	885.21
892.637	854.99
892.812	842.01
892.987	848.02
893.161	847.24
893.336	856.54
893.511	853.05
893.686	846.85
893.861	838.72
894.035	843.56
894.21	859.83
894.385	799.19
894.56	852.08
894.734	770.13
894.909	757.73
895.084	746.49
895.258	744.55
895.433	758.5
895.608	738.16
895.782	696.12
895.957	710.45
896.131	735.45
896.306	656.4
896.48	679.26
896.655	648.84
896.829	626.37
897.004	611.64
897.178	633.15
897.353	595.76
897.527	681.39
897.701	629.47
897.876	578.51
898.05	635.47
898.224	631.41
898.399	663.57
898.573	603.7
898.747	516.32
898.921	569.6
899.096	461.68
899.27	500.82
899.444	501.4
899.618	532.98
899.792	541.51
899.967	541.89
900.141	583.94
900.315	524.65
900.489	527.36
900.663	548.29
900.837	550.23
901.011	480.09
901.185	573.67
901.359	512.45
901.533	538.99
901.707	561.46
901.881	543.64
902.055	500.05
902.229	540.15
902.403	587.62
902.576	529.11
902.75	549.84
902.924	633.15
903.098	584.91
903.272	645.74
903.446	638.38
903.619	622.49
903.793	667.25
903.967	652.52
904.14	710.26
904.314	687.79
904.488	679.84
904.661	721.3
904.835	681.78
905.009	715.69
905.182	777.69
905.356	739.52
905.529	682.36
905.703	653.69
905.876	634.31
906.05	601.96
906.223	591.3
906.397	572.51
906.57	557.01
906.744	542.48
906.917	522.91
907.09	517.68
907.264	534.73
907.437	501.21
907.61	468.85
907.784	500.63
907.957	500.63
908.13	483.77
908.304	514.96
908.477	482.03
908.65	484.35
908.823	433.59
908.996	512.64
909.17	474.47
909.343	486.1
909.516	481.06
909.689	466.14
909.862	424.29
910.035	492.3
910.208	445.21
910.381	433.4
910.554	536.08
910.727	437.27
910.9	448.31
911.073	434.17
911.246	495.4
911.419	514
911.592	473.31
911.765	476.21
911.938	458.39
912.11	441.53
912.283	462.46
912.456	478.93
912.629	475.25
912.802	418.28
912.974	382.05
913.147	365.78
913.32	327.03
913.493	357.25
913.665	404.53
913.838	417.9
914.01	419.06
914.183	422.35
914.356	390
914.528	442.12
914.701	443.28
914.873	445.41
915.046	411.31
915.218	385.93
915.391	308.24
915.563	346.4
915.736	368.1
915.908	410.15
916.081	422.35
916.253	390.38
916.425	390.77
916.598	413.25
916.77	403.56
916.942	371.2
917.115	341.75
917.287	375.66
917.459	399.3
917.632	357.25
917.804	299.9
917.976	343.89
918.148	391.16
918.32	385.15
918.493	408.21
918.665	434.95
918.837	415.38
919.009	456.26
919.181	445.8
919.353	436.69
919.525	417.51
919.697	404.33
919.869	427.58
920.041	482.41
920.213	541.12
920.385	470.79
920.557	433.78
920.729	432.04
920.901	455.29
921.073	457.42
921.244	433.98
921.416	463.23
921.588	436.69
921.76	408.6
921.932	499.85
922.103	421
922.275	442.31
922.447	445.02
922.619	367.13
922.79	421
922.962	410.15
923.134	427.58
923.305	384.96
923.477	343.89
923.648	385.93
923.82	356.87
923.991	338.85
924.163	347.57
924.335	352.22
924.506	365.39
924.677	419.45
924.849	346.21
925.02	370.62
925.192	370.82
925.363	403.75
925.535	368.49
925.706	358.8
925.877	410.73
926.049	354.74
926.22	368.1
926.391	377.21
926.562	406.66
926.734	334.97
926.905	381.08
927.076	312.11
927.247	348.15
927.419	306.88
927.59	316.18
927.761	311.72
927.932	287.7
928.103	305.91
928.274	267.36
928.445	248.76
928.616	265.42
928.787	234.81
928.958	279.75
929.129	280.14
929.3	232.48
929.471	194.7
929.642	166.8
929.813	141.81
929.984	249.72
930.155	129.41
930.326	197.41
930.496	147.62
930.667	87.75
930.838	164.86
931.009	132.31
931.18	146.84
931.35	131.73
931.521	147.81
931.692	87.17
931.863	83.3
932.033	117.39
932.204	91.43
932.374	131.73
932.545	64.11
932.716	110.23
932.886	111.39
933.057	61.79
933.227	55.78
933.398	137.93
933.568	50.55
933.739	-2.92
933.909	46.1
934.08	74.38
934.25	8.51
934.421	32.92
934.591	47.84
934.761	21.68
934.932	5.41
935.102	51.52
935.272	40.48
935.443	35.05
935.613	21.88
935.783	50.75
935.953	11.03
936.123	138.9
936.294	14.71
936.464	25.17
936.634	34.08
936.804	-7.18
936.974	-5.83
937.144	57.33
937.314	52.1
937.484	45.71
937.655	3.67
937.825	67.8
937.995	13.93
938.165	78.84
938.334	32.53
938.504	52.1
938.674	52.1
938.844	69.35
939.014	97.24
939.184	104.22
939.354	148.39
939.524	134.44
939.694	76.51
939.863	69.93
940.033	125.34
940.203	98.41
940.373	110.03
940.542	104.61
940.712	60.63
940.882	116.04
941.051	97.83
941.221	118.75
941.391	136.38
941.56	53.85
941.73	49.78
941.899	177.65
942.069	82.33
942.238	96.47
942.408	73.03
942.577	85.81
942.747	54.62
942.916	35.63
943.086	57.14
943.255	83.88
943.425	71.28
943.594	67.8
943.763	33.7
943.933	28.27
944.102	5.02
944.271	59.66
944.441	74
944.61	45.32
944.779	65.86
944.948	146.65
945.117	20.52
945.287	52.68
945.456	15.29
945.625	36.02
945.794	72.06
945.963	28.66
946.132	47.45
946.301	48.23
946.47	60.63
946.639	5.02
946.808	25.36
946.977	75.55
947.146	107.51
947.315	54.23
947.484	61.98
947.653	49.78
947.822	54.04
947.991	63.34
948.16	126.89
948.329	85.43
948.498	56.36
948.666	59.66
948.835	57.91
949.004	52.88
949.173	40.09
949.341	63.34
949.51	57.53
949.679	119.72
949.847	74
950.016	121.66
950.185	116.23
950.353	29.43
950.522	48.23
950.69	110.81
950.859	59.27
951.028	107.71
951.196	69.93
951.365	55.98
951.533	40.28
951.701	99.18
951.87	80.39
952.038	37.76
952.207	41.64
952.375	99.96
952.543	36.99
952.712	62.95
952.88	36.8
953.048	98.21
953.217	61.79
953.385	30.21
953.553	98.41
953.721	47.26
953.89	60.24
954.058	36.21
954.226	16.65
954.394	51.33
954.562	15.68
954.73	82.91
954.898	59.66
955.067	91.82
955.235	52.88
955.403	111.58
955.571	135.03
955.739	112.74
955.907	47.26
956.075	52.68
956.243	41.64
956.41	76.51
956.578	22.65
956.746	31.56
956.914	48.23
957.082	59.85
957.25	96.47
957.418	55.01
957.585	72.06
957.753	99.18
957.921	42.41
958.089	45.9
958.256	96.28
958.424	75.74
958.592	56.95
958.759	46.87
958.927	74.77
959.095	26.14
959.262	51.52
959.43	83.68
959.597	35.83
959.765	51.91
959.932	29.43
960.1	105.38
960.267	41.83
960.435	57.91
960.602	88.53
960.77	55.59
960.937	22.85
961.104	73.61
961.272	17.42
961.439	54.43
961.606	82.91
961.774	82.52
961.941	75.93
962.108	60.63
962.275	61.98
962.443	79.03
962.61	106.16
962.777	153.04
962.944	92.79
963.111	92.79
963.278	98.99
963.446	86.2
963.613	81.16
963.78	84.07
963.947	102.48
964.114	92.98
964.281	150.33
964.448	75.16
964.615	47.26
964.782	80.58
964.949	85.23
965.116	93.37
965.282	135.41
965.449	78.84
965.616	43.38
965.783	102.28
965.95	75.74
966.117	67.6
966.283	110.03
966.45	90.46
966.617	111.58
966.784	111.19
966.95	100.73
967.117	119.91
967.284	57.53
967.45	79.42
967.617	136.19
967.784	136.38
967.95	131.15
968.117	92.98
968.283	133.86
968.45	194.31
968.616	124.18
968.783	132.7
968.949	111.97
969.116	149.17
969.282	99.76
969.449	103.83
969.615	78.84
969.781	61.98
969.948	89.69
970.114	75.74
970.28	158.86
970.447	87.36
970.613	128.24
970.779	111.19
970.945	113.91
971.112	130.76
971.278	112.94
971.444	108.87
971.61	120.49
971.776	107.32
971.942	105.38
972.108	119.14
972.275	77.1
972.441	118.36
972.607	159.63
972.773	89.5
972.939	93.56
973.105	96.66
973.271	63.92
973.437	94.15
973.602	65.86
973.768	105.96
973.934	87.75
974.1	105.96
974.266	25.56
974.432	116.43
974.598	74.77
974.763	120.11
974.929	94.15
975.095	130.38
975.261	65.47
975.426	56.17
975.592	64.89
975.758	155.37
975.923	69.54
976.089	91.82
976.255	136.38
976.42	77.29
976.586	103.25
976.751	92.6
976.917	144.33
977.082	102.28
977.248	43.77
977.413	13.16
977.579	80.2
977.744	95.31
977.91	48.42
978.075	59.85
978.24	115.46
978.406	95.11
978.571	58.88
978.736	51.91
978.902	86.2
979.067	57.53
979.232	25.36
979.397	80.78
979.563	114.68
979.728	64.31
979.893	90.85
980.058	61.4
980.223	128.24
980.388	90.85
980.554	78.06
980.719	59.66
980.884	78.84
981.049	113.91
981.214	66.05
981.379	92.4
981.544	58.3
981.709	67.02
981.874	85.81
982.039	91.05
982.204	96.47
982.368	100.54
982.533	44.35
982.698	117.01
982.863	115.07
983.028	76.51
983.193	95.69
983.357	84.07
983.522	88.91
983.687	69.35
983.852	78.45
984.016	79.23
984.181	85.43
984.346	84.65
984.51	105.96
984.675	82.52
984.839	104.22
985.004	63.73
985.168	103.06
985.333	87.95
985.498	101.31
985.662	121.66
985.827	92.01
985.991	75.74
986.155	76.71
986.32	135.41
986.484	136.38
986.649	103.25
986.813	49.39
986.977	101.31
987.142	109.45
987.306	52.88
987.47	64.31
987.634	78.84
987.799	96.86
987.963	99.38
988.127	123.4
988.291	143.36
988.455	85.62
988.62	68.76
988.784	106.74
988.948	106.35
989.112	60.63
989.276	98.21
989.44	83.3
989.604	66.83
989.768	65.66
989.932	160.21
990.096	41.45
990.26	83.68
990.424	39.7
990.588	56.95
990.752	126.89
990.915	121.08
991.079	64.31
991.243	72.64
991.407	97.24
991.571	92.98
991.734	79.23
991.898	104.41
992.062	153.82
992.226	79.61
992.389	53.07
992.553	21.68
992.717	42.8
992.88	53.65
993.044	82.52
993.207	83.1
993.371	111.78
993.535	70.9
993.698	68.57
993.862	104.22
994.025	95.11
994.189	73.8
994.352	60.82
994.515	88.91
994.679	126.5
994.842	59.46
995.006	90.66
995.169	49
995.332	56.75
995.496	87.95
995.659	48.23
995.822	57.91
995.985	56.17
996.149	101.31
996.312	59.08
996.475	119.72
996.638	64.89
996.801	124.18
996.964	140.45
997.128	57.91
997.291	46.48
997.454	72.83
997.617	28.66
997.78	96.47
997.943	40.48
998.106	100.15
998.269	70.7
998.432	57.72
998.595	74.38
998.758	20.71
998.92	67.21
999.083	4.83
999.246	56.36
999.409	26.91
999.572	32.34
999.735	24.98
999.897	66.05
1000.06	39.31
1000.223	55.59
1000.386	85.04
1000.548	65.08
1000.711	79.23
1000.874	88.72
1001.036	14.32
1001.199	83.68
1001.361	41.64
1001.524	69.35
1001.687	67.02
1001.849	61.21
1002.012	71.67
1002.174	80.58
1002.337	54.04
1002.499	54.62
1002.661	109.64
1002.824	30.79
1002.986	38.54
1003.149	44.35
1003.311	24.59
1003.473	114.49
1003.636	26.91
1003.798	68.38
1003.96	90.46
1004.123	50.75
1004.285	64.89
1004.447	64.31
1004.609	43.58
1004.771	109.64
1004.933	17.81
1005.096	23.43
1005.258	5.22
1005.42	31.76
1005.582	68.76
1005.744	49
1005.906	1.53
1006.068	40.86
1006.23	7.54
1006.392	15.68
1006.554	8.12
1006.716	72.06
1006.878	74.58
1007.04	18.39
1007.202	46.68
1007.363	16.45
1007.525	60.24
1007.687	58.11
1007.849	78.06
1008.011	-7.38
1008.172	30.6
1008.334	28.66
1008.496	85.43
1008.658	26.14
1008.819	21.3
1008.981	33.5
1009.143	1.34
1009.304	49.78
1009.466	42.41
1009.627	100.54
1009.789	108.29
1009.95	47.26
1010.112	21.68
1010.273	41.83
1010.435	35.83
1010.596	41.83
1010.758	22.46
1010.919	31.18
1011.081	28.08
1011.242	46.1
1011.403	46.29
1011.565	39.12
1011.726	73.8
1011.887	-8.15
1012.049	40.67
1012.21	64.31
1012.371	83.49
1012.532	-27.72
1012.693	46.68
1012.855	14.32
1013.016	21.1
1013.177	73.8
1013.338	29.24
1013.499	79.03
1013.66	58.5
1013.821	57.33
1013.982	37.18
1014.143	49.39
1014.304	6.38
1014.465	40.48
1014.626	70.51
1014.787	46.68
1014.948	106.35
1015.109	-29.47
1015.27	88.33
1015.431	42.22
1015.592	11.8
1015.752	77.1
1015.913	57.33
1016.074	48.42
1016.235	39.51
1016.395	25.95
1016.556	18.39
1016.717	34.66
1016.877	73.61
1017.038	18.2
1017.199	52.3
1017.359	44.16
1017.52	17.23
1017.681	14.32
1017.841	29.05
1018.002	30.21
1018.162	40.28
1018.323	83.88
1018.483	24.98
1018.644	17.61
1018.804	-6.6
1018.964	-15.13
1019.125	20.91
1019.285	24.2
1019.446	-6.02
1019.606	5.02
1019.766	-13
1019.926	41.64
1020.087	33.7
1020.247	-4.67
1020.407	49.78
1020.567	46.1
1020.728	10.83
1020.888	0.95
1021.048	12.38
1021.208	-3.31
1021.368	-24.23
1021.528	77.48
1021.688	64.11
1021.848	34.08
1022.008	26.33
1022.168	27.5
1022.328	27.5
1022.488	37.18
1022.648	15.48
1022.808	27.5
1022.968	74.77
1023.128	2.5
1023.288	-4.08
1023.448	21.1
1023.608	32.73
1023.767	36.8
1023.927	-1.76
1024.087	17.61
1024.247	-18.81
1024.406	2.5
1024.566	-6.02
1024.726	15.1
1024.885	12.58
1025.045	42.41
1025.205	16.45
1025.364	21.3
1025.524	19.16
1025.683	27.5
1025.843	38.93
1026.003	27.69
1026.162	65.66
1026.321	41.25
1026.481	19.94
1026.64	1.92
1026.8	48.81
1026.959	13.55
1027.119	28.85
1027.278	-7.38
1027.437	6.77
1027.597	20.71
1027.756	44.55
1027.915	7.54
1028.074	33.89
1028.234	29.43
1028.393	23.43
1028.552	0.57
1028.711	-54.27
1028.87	48.42
1029.03	-25.4
1029.189	33.7
1029.348	-29.47
1029.507	-0.21
1029.666	9.28
1029.825	-6.02
1029.984	9.48
1030.143	15.87
1030.302	1.92
1030.461	-60.47
1030.62	22.85
1030.779	21.49
1030.938	-22.49
1031.097	-13
1031.255	23.43
1031.414	50.16
1031.573	38.54
1031.732	-32.76
1031.891	2.89
1032.049	61.4
1032.208	32.73
1032.367	-10.87
1032.525	12.19
1032.684	-1.76
1032.843	16.84
1033.001	-51.36
1033.16	138.51
1033.319	53.85
1033.477	50.94
1033.636	30.01
1033.794	-43.03
1033.953	25.17
1034.111	30.4
1034.27	-8.15
1034.428	16.45
1034.587	-50.78
1034.745	50.94
1034.903	21.68
1035.062	31.56
1035.22	-6.02
1035.378	43.96
1035.537	3.67
1035.695	31.56
1035.853	15.87
1036.011	35.83
1036.17	28.85
1036.328	-30.63
1036.486	30.79
1036.644	21.88
1036.802	-77.9
1036.96	9.86
1037.119	-9.12
1037.277	0.18
1037.435	-29.85
1037.593	-6.8
1037.751	-17.65
1037.909	49.2
1038.067	49.2
