Data from gum_young_FLMT105791__105__17-40-33-041.txt Node

Date: Mon Mar 20 17:40:33 GMT 2023
User: antho
Spectrometer: FLMT10579
Trigger mode: 0
Integration Time (sec): 1.000000E-1
Scans to average: 10
Electric dark correction enabled: true
Nonlinearity correction enabled: false
Boxcar width: 0
XAxis mode: Wavelengths
Number of Pixels in Spectrum: 3648
>>>>>Begin Spectral Data<<<<<
345.248	-172.29
345.464	-172.29
345.681	-172.29
345.898	-152.33
346.114	-150.2
346.331	-23.3
346.548	16.23
346.764	-17.87
346.981	5.18
347.197	-17.29
347.414	-6.25
347.631	-27.37
347.847	53.04
348.064	17.2
348.28	27.46
348.497	-29.89
348.713	2.86
348.93	35.02
349.146	17.97
349.363	-19.04
349.579	12.55
349.796	0.15
350.012	-21.75
350.229	45.68
350.445	32.11
350.661	-7.22
350.878	17.97
351.094	30.95
351.311	17.2
351.527	19.33
351.743	-14.39
351.96	48
352.176	30.76
352.392	35.41
352.609	29.01
352.825	0.73
353.041	22.43
353.257	-14.19
353.474	12.93
353.69	13.9
353.906	16.23
354.122	-14.77
354.339	39.67
354.555	12.93
354.771	4.41
354.987	66.6
355.203	49.16
355.42	18.94
355.636	-7.8
355.852	-10.7
356.068	8.67
356.284	-46.55
356.5	74.54
356.716	22.81
356.932	15.45
357.148	51.88
357.364	11.38
357.58	49.55
357.796	58.08
358.012	38.7
358.228	28.63
358.444	-36.28
358.66	39.86
358.876	15.06
359.092	-7.8
359.308	5.38
359.524	27.08
359.74	5.38
359.956	-8.96
360.172	2.28
360.388	29.21
360.604	-14.39
360.819	92.95
361.035	8.28
361.251	28.04
361.467	-23.69
361.683	40.06
361.898	27.08
362.114	30.95
362.33	47.03
362.546	39.28
362.762	3.44
362.977	31.14
363.193	-22.91
363.409	39.28
363.624	-23.49
363.84	-8.96
364.056	-1.79
364.271	27.66
364.487	49.36
364.703	31.92
364.918	0.15
365.134	-0.05
365.35	19.52
365.565	110.58
365.781	29.98
365.996	41.41
366.212	76.48
366.427	52.07
366.643	-3.54
366.858	-2.57
367.074	9.83
367.289	71.25
367.505	107.48
367.72	-36.28
367.936	23.59
368.151	68.15
368.367	58.66
368.582	16.03
368.798	-2.95
369.013	46.64
369.228	15.45
369.444	24.56
369.659	61.76
369.874	30.18
370.09	58.66
370.305	-28.14
370.52	23.98
370.736	38.31
370.951	19.52
371.166	69.89
371.381	96.63
371.597	41.22
371.812	-11.48
372.027	5.18
372.242	-7.6
372.458	76.48
372.673	16.81
372.888	31.34
373.103	43.16
373.318	102.25
373.533	51.1
373.749	42.38
373.964	-15.55
374.179	69.89
374.394	-17.68
374.609	69.51
374.824	-30.85
375.039	66.41
375.254	19.91
375.469	101.09
375.684	47.42
375.899	43.74
376.114	20.49
376.329	38.89
376.544	54.01
376.759	45.48
376.974	11
377.189	22.62
377.404	35.79
377.619	47.23
377.834	-7.6
378.049	-19.42
378.264	14.1
378.478	26.11
378.693	6.35
378.908	40.64
379.123	13.71
379.338	77.84
379.553	36.96
379.767	4.8
379.982	38.51
380.197	54.59
380.412	15.26
380.626	35.21
380.841	81.52
381.056	43.93
381.271	120.07
381.485	14.29
381.7	6.35
381.915	21.46
382.129	24.56
382.344	50.71
382.559	28.82
382.773	62.34
382.988	-11.29
383.202	27.66
383.417	-20.59
383.632	113.49
383.846	48.97
384.061	52.26
384.275	41.41
384.49	39.28
384.704	47.23
384.919	6.15
385.133	56.33
385.348	60.01
385.562	14.29
385.777	44.71
385.991	37.73
386.206	21.65
386.42	35.02
386.634	82.1
386.849	39.86
387.063	60.79
387.277	11.77
387.492	9.64
387.706	5.57
387.92	-7.6
388.135	72.22
388.349	79.97
388.563	44.71
388.778	76.09
388.992	48.19
389.206	65.24
389.42	108.64
389.635	31.92
389.849	78.81
390.063	59.04
390.277	32.31
390.491	103.22
390.706	64.28
390.92	64.47
391.134	56.72
391.348	75.9
391.562	-8.38
391.776	79
391.99	20.88
392.205	65.63
392.419	25.53
392.633	34.63
392.847	93.73
393.061	32.69
393.275	83.84
393.489	70.28
393.703	63.69
393.917	55.17
394.131	13.71
394.345	75.32
394.559	76.48
394.773	20.3
394.986	47.81
395.2	62.92
395.414	92.95
395.628	53.62
395.842	59.43
396.056	42.38
396.27	7.9
396.484	39.48
396.697	52.07
396.911	85.01
397.125	58.66
397.339	86.75
397.553	48.78
397.766	119.69
397.98	88.49
398.194	89.08
398.408	71.83
398.621	90.82
398.835	105.93
399.049	62.53
399.262	103.22
399.476	136.93
399.69	90.43
399.903	162.51
400.117	72.03
400.331	95.47
400.544	55.17
400.758	170.45
400.971	121.04
401.185	120.46
401.398	50.52
401.612	138.87
401.826	97.6
402.039	91.4
402.253	73.96
402.466	108.06
402.68	74.74
402.893	114.84
403.106	111.16
403.32	78.42
403.533	119.69
403.747	101.28
403.96	113.68
404.174	112.91
404.387	43.93
404.6	93.53
404.814	136.74
405.027	107.09
405.24	107.48
405.454	51.68
405.667	141.58
405.88	41.03
406.094	96.05
406.307	142.74
406.52	112.91
406.733	77.45
406.947	56.53
407.16	141.58
407.373	107.87
407.586	73.96
407.799	86.17
408.012	118.52
408.226	101.09
408.439	159.6
408.652	60.21
408.865	113.87
409.078	142.74
409.291	140.42
409.504	73.58
409.717	145.07
409.93	134.99
410.143	103.8
410.357	66.79
410.57	55.75
410.783	84.04
410.996	112.91
411.209	116.97
411.421	184.59
411.634	132.86
411.847	102.83
412.06	124.34
412.273	125.31
412.486	109.81
412.699	184.01
412.912	133.83
413.125	144.49
413.338	128.21
413.55	195.83
413.763	113.49
413.976	147.01
414.189	104.38
414.402	126.08
414.615	158.63
414.827	86.56
415.04	155.14
415.253	154.56
415.466	160.18
415.678	217.92
415.891	124.14
416.104	136.35
416.316	127.82
416.529	164.64
416.742	141.39
416.954	183.24
417.167	151.27
417.38	111.74
417.592	164.44
417.805	112.71
418.017	114.46
418.23	168.71
418.442	114.46
418.655	122.79
418.868	156.31
419.08	170.45
419.293	179.56
419.505	184.98
419.718	161.73
419.93	183.24
420.142	136.93
420.355	172.58
420.567	194.09
420.78	158.44
420.992	166.96
421.205	225.09
421.417	120.66
421.629	138.09
421.842	138.29
422.054	105.35
422.266	173.55
422.479	197.19
422.691	134.22
422.903	186.92
423.115	136.74
423.328	135.57
423.54	176.07
423.752	151.07
423.964	112.71
424.177	145.46
424.389	165.41
424.601	249.5
424.813	202.42
425.025	180.33
425.238	212.1
425.45	151.46
425.662	135.19
425.874	446.54
426.086	149.91
426.298	218.11
426.51	178.39
426.722	179.75
426.934	154.56
427.146	192.73
427.358	125.5
427.57	199.12
427.782	207.84
427.994	175.49
428.206	147.78
428.418	129.57
428.63	190.79
428.842	205.52
429.054	197.38
429.266	207.07
429.478	153.21
429.69	198.35
429.902	123.56
430.114	168.51
430.325	189.05
430.537	123.37
430.749	147.01
430.961	106.32
431.173	155.53
431.384	172.19
431.596	73.77
431.808	172.58
432.02	187.69
432.231	204.74
432.443	236.9
432.655	196.6
432.867	168.9
433.078	203.19
433.29	263.06
433.502	223.73
433.713	240.78
433.925	232.64
434.136	229.93
434.348	167.35
434.56	141.39
434.771	272.75
434.983	167.16
435.194	170.45
435.406	215.79
435.617	252.6
435.829	272.17
436.04	248.14
436.252	246.98
436.463	259.38
436.675	256.67
436.886	235.35
437.098	228.38
437.309	290.77
437.521	223.92
437.732	205.9
437.943	205.32
438.155	229.74
438.366	161.34
438.578	279.72
438.789	210.94
439	266.16
439.211	214.62
439.423	237.1
439.634	239.81
439.845	264.03
440.057	233.03
440.268	276.62
440.479	215.79
440.69	255.7
440.902	253.37
441.113	247.37
441.324	239.23
441.535	266.35
441.746	310.92
441.957	245.04
442.168	249.89
442.38	284.57
442.591	317.7
442.802	273.33
443.013	254.34
443.224	288.44
443.435	258.8
443.646	258.8
443.857	265.97
444.068	210.36
444.279	257.05
444.49	314.6
444.701	273.52
444.912	391.9
445.123	306.46
445.334	292.9
445.545	311.3
445.756	280.5
445.967	281.66
446.178	292.12
446.388	311.3
446.599	302
446.81	302.58
447.021	260.15
447.232	305.3
447.443	330.1
447.653	289.22
447.864	340.56
448.075	290.18
448.286	322.73
448.496	337.65
448.707	326.03
448.918	314.98
449.129	413.02
449.339	289.99
449.55	331.84
449.761	315.95
449.971	366.72
450.182	310.14
450.393	338.82
450.603	331.84
450.814	380.86
451.024	368.46
451.235	366.52
451.446	401.2
451.656	373.69
451.867	310.72
452.077	350.44
452.288	393.45
452.498	381.44
452.709	342.69
452.919	359.93
453.13	345.98
453.34	359.16
453.55	304.33
453.761	388.22
453.971	360.9
454.182	367.3
454.392	363.81
454.602	423.29
454.813	357.42
455.023	382.21
455.233	316.73
455.444	363.03
455.654	286.7
455.864	375.05
456.075	330.87
456.285	353.73
456.495	376.79
456.705	359.35
456.916	420.19
457.126	426.58
457.336	381.44
457.546	318.08
457.756	354.12
457.967	403.33
458.177	373.11
458.387	359.35
458.597	351.8
458.807	341.72
459.017	338.04
459.227	366.72
459.437	362.65
459.647	422.71
459.857	417.86
460.068	351.02
460.278	434.33
460.488	407.21
460.698	449.64
460.908	390.74
461.117	367.3
461.327	342.5
461.537	416.9
461.747	395.2
461.957	398.88
462.167	498.66
462.377	433.36
462.587	412.25
462.797	441.5
463.007	399.85
463.216	449.25
463.426	469.4
463.636	455.45
463.846	357.22
464.056	423.29
464.265	441.7
464.475	410.5
464.685	429.88
464.895	434.53
465.104	416.51
465.314	445.18
465.524	424.26
465.733	388.03
465.943	497.88
466.153	493.62
466.362	469.4
466.572	443.63
466.782	427.16
466.991	437.05
467.201	486.64
467.41	379.31
467.62	477.73
467.829	430.46
468.039	470.56
468.249	444.41
468.458	434.72
468.668	501.18
468.877	495.56
469.086	507.18
469.296	518.61
469.505	462.23
469.715	538.18
469.924	504.08
470.134	499.43
470.343	506.02
470.552	457.78
470.762	468.24
470.971	463.98
471.18	467.85
471.39	488.19
471.599	459.91
471.808	497.69
472.018	475.79
472.227	525.2
472.436	530.63
472.645	514.54
472.855	488.78
473.064	558.14
473.273	535.28
473.482	567.82
473.691	560.46
473.901	548.45
474.11	518.61
474.319	611.61
474.528	550.19
474.737	610.06
474.946	575.96
475.155	568.02
475.364	592.43
475.573	549.42
475.783	577.12
475.992	602.89
476.201	619.56
476.41	578.67
476.619	562.4
476.828	565.69
477.037	550
477.245	587.59
477.454	602.31
477.663	564.34
477.872	602.51
478.081	682.91
478.29	584.49
478.499	675.55
478.708	620.52
478.917	705.39
479.125	612.58
479.334	645.71
479.543	634.47
479.752	660.05
479.961	635.05
480.169	657.53
480.378	636.22
480.587	804.58
480.796	690.66
481.004	699.96
481.213	700.15
481.422	692.21
481.63	680.2
481.839	736.77
482.048	738.9
482.256	721.27
482.465	725.73
482.674	737.16
482.882	744.91
483.091	799.74
483.299	742.97
483.508	794.51
483.716	759.44
483.925	761.57
484.134	720.5
484.342	749.75
484.551	760.6
484.759	764.87
484.967	785.79
485.176	787.34
485.384	764.87
485.593	804.39
485.801	791.99
486.01	776.3
486.218	725.53
486.426	660.63
486.635	655.2
486.843	688.72
487.051	716.04
487.26	709.45
487.468	711.2
487.676	757.7
487.885	770.48
488.093	782.88
488.301	804.58
488.509	809.23
488.717	826.67
488.926	814.66
489.134	824.15
489.342	809.04
489.55	769.32
489.758	839.07
489.967	830.93
490.175	928.58
490.383	822.41
490.591	929.94
490.799	814.85
491.007	906.88
491.215	880.34
491.423	877.82
491.631	877.05
491.839	865.03
492.047	894.48
492.255	861.74
492.463	831.13
492.671	872.01
492.879	917.34
493.087	883.63
493.295	927.42
493.503	921.22
493.711	942.34
493.919	937.3
494.127	946.79
494.334	971.01
494.542	918.31
494.75	963.46
494.958	920.06
495.166	978.76
495.374	972.95
495.581	992.52
495.789	995.62
495.997	1018.29
496.205	937.11
496.412	971.4
496.62	962.68
496.828	996.2
497.035	1003.17
497.243	1064.59
497.451	1002.79
497.658	1009.37
497.866	998.72
498.074	1060.33
498.281	990
498.489	1095.4
498.696	1021.19
498.904	984.77
499.112	980.89
499.319	1069.63
499.527	1030.3
499.734	1085.9
499.942	1001.62
500.149	1025.46
500.357	1104.31
500.564	980.12
500.771	1037.47
500.979	1059.36
501.186	1029.52
501.394	1089.97
501.601	1067.31
501.808	1064.21
502.016	1059.56
502.223	1042.12
502.43	1065.76
502.638	1046.19
502.845	1071.18
503.052	1169.02
503.26	1052.97
503.467	1204.67
503.674	1103.15
503.881	1115.74
504.089	1191.5
504.296	1137.44
504.503	1077.96
504.71	1112.84
504.917	1113.61
505.125	1162.43
505.332	1178.52
505.539	1166.89
505.746	1275.2
505.953	1231.02
506.16	1220.17
506.367	1305.03
506.574	1295.73
506.781	1287.01
506.988	1228.89
507.195	1275.97
507.402	1284.69
507.609	1257.76
507.816	1268.61
508.023	1253.88
508.23	1259.11
508.437	1249.04
508.644	1284.3
508.851	1331.38
509.058	1340.29
509.265	1327.7
509.472	1394.54
509.679	1420.31
509.885	1392.61
510.092	1381.37
510.299	1362.96
510.506	1372.46
510.713	1386.41
510.92	1392.03
511.126	1430
511.333	1482.89
511.54	1473.21
511.746	1483.47
511.953	1515.25
512.16	1556.13
512.367	1523
512.573	1521.64
512.78	1522.8
512.987	1496.07
513.193	1486.77
513.4	1432.91
513.606	1498.78
513.813	1559.04
514.02	1528.81
514.226	1592.17
514.433	1580.15
514.639	1513.31
514.846	1549.74
515.052	1552.84
515.259	1580.74
515.465	1604.76
515.672	1586.35
515.878	1739.61
516.085	1629.37
516.291	1682.65
516.497	1606.5
516.704	1632.27
516.91	1571.82
517.117	1533.65
517.323	1517.96
517.529	1561.94
517.736	1543.15
517.942	1579.19
518.148	1631.88
518.354	1641.77
518.561	1636.34
518.767	1620.65
518.973	1677.8
519.179	1729.92
519.386	1737.09
519.592	1742.9
519.798	1752.78
520.004	1873.68
520.21	1834.74
520.417	1895.38
520.623	1950.6
520.829	1884.72
521.035	1923.09
521.241	1900.22
521.447	1949.63
521.653	2101.53
521.859	1979.08
522.065	2032.75
522.271	2094.75
522.477	2040.69
522.683	2171.08
522.889	2029.26
523.095	2070.33
523.301	2067.43
523.507	2011.63
523.713	2115.28
523.919	2046.7
524.125	2169.73
524.331	2159.65
524.537	2274.54
524.742	2226.3
524.948	2294.89
525.154	2316.01
525.36	2399.12
525.566	2299.73
525.772	2363.86
525.977	2298.57
526.183	2338.87
526.389	2363.67
526.595	2245.09
526.8	2265.24
527.006	2198.01
527.212	2165.85
527.417	2121.29
527.623	2176.51
527.829	2229.98
528.034	2303.61
528.24	2297.21
528.446	2314.84
528.651	2437.49
528.857	2444.65
529.062	2534.75
529.268	2462.67
529.473	2502.97
529.679	2516.15
529.884	2597.52
530.09	2565.16
530.295	2565.94
530.501	2601.59
530.706	2583.57
530.912	2590.35
531.117	2638.21
531.323	2612.63
531.528	2688
531.733	2668.24
531.939	2652.74
532.144	2671.34
532.35	2667.46
532.555	2703.11
532.76	2624.45
532.966	2640.92
533.171	2588.41
533.376	2608.18
533.581	2562.84
533.787	2613.41
533.992	2660.1
534.197	2666.11
534.402	2661.84
534.607	2701.56
534.813	2794.56
535.018	2693.43
535.223	2705.83
535.428	2738.96
535.633	2835.25
535.838	2825.37
536.043	2833.5
536.249	2911.2
536.454	2848.42
536.659	2849
536.864	2835.44
537.069	2805.22
537.274	2860.63
537.479	2802.7
537.684	2819.17
537.889	2785.07
538.094	2895.31
538.299	2841.84
538.504	2859.47
538.708	2865.86
538.913	2923.02
539.118	2899.77
539.323	2856.95
539.528	2823.24
539.733	2832.34
539.938	2846.49
540.142	2855.59
540.347	2818.59
540.552	2819.55
540.757	2790.88
540.962	2824.01
541.166	2745.16
541.371	2787.2
541.576	2822.07
541.781	2745.54
541.985	2906.93
542.19	2812.97
542.395	2923.02
542.599	2969.9
542.804	2932.12
543.008	2951.69
543.213	2917.59
543.418	2888.72
543.622	2983.08
543.827	2860.24
544.031	2952.66
544.236	2954.02
544.44	2971.07
544.645	3025.51
544.849	2946.46
545.054	2974.36
545.258	3053.99
545.463	3030.74
545.667	2952.85
545.872	3005.36
546.076	3017.18
546.281	2995.09
546.485	2976.49
546.689	3013.11
546.894	3031.51
547.098	3044.11
547.302	2969.32
547.507	2983.08
547.711	3038.88
547.915	3048.95
548.119	2982.69
548.324	2979.2
548.528	3029.19
548.732	3025.31
548.936	3048.56
549.141	3048.95
549.345	2991.8
549.549	3051.86
549.753	3080.15
549.957	3128.58
550.161	3124.32
550.366	3086.73
550.57	3037.71
550.774	3074.91
550.978	3085.57
551.182	3118.89
551.386	3060.19
551.59	3044.11
551.794	3063.68
551.998	3115.21
552.202	3104.56
552.406	3058.06
552.61	3150.48
552.814	3095.84
553.018	3124.13
553.222	3006.71
553.426	3055.15
553.63	3183.02
553.833	3070.85
554.037	3055.35
554.241	3082.86
554.445	3113.28
554.649	3093.9
554.853	3013.69
555.056	3172.76
555.26	3152.22
555.464	3140.4
555.668	3119.28
555.871	3122.96
556.075	3176.82
556.279	3090.61
556.483	3023.38
556.686	3083.44
556.89	3074.33
557.094	3064.84
557.297	2968.16
557.501	3023.57
557.704	2909.84
557.908	3024.93
558.112	2961.77
558.315	3042.95
558.519	2962.35
558.722	2931.73
558.926	2930.96
559.129	2875.55
559.333	2873.61
559.536	2867.41
559.74	2855.79
559.943	2826.92
560.147	2789.72
560.35	2875.55
560.553	2882.33
560.757	2804.06
560.96	2935.03
561.164	2865.28
561.367	2945.88
561.57	2898.6
561.774	2870.12
561.977	2864.5
562.18	2805.22
562.384	2915.07
562.587	2824.01
562.79	2839.9
562.993	2791.46
563.197	2856.95
563.4	2873.8
563.603	2887.75
563.806	2934.64
564.009	2820.72
564.212	2826.53
564.416	2717.45
564.619	2769.76
564.822	2717.26
565.025	2786.62
565.228	2742.83
565.431	2787.2
565.634	2652.54
565.837	2697.49
566.04	2652.93
566.243	2654.68
566.446	2546.76
566.649	2644.41
566.852	2602.56
567.055	2614.38
567.258	2638.4
567.461	2684.32
567.664	2678.12
567.867	2603.14
568.07	2677.15
568.273	2584.93
568.475	2670.37
568.678	2580.47
568.881	2576.01
569.084	2538.82
569.287	2442.14
569.489	2480.69
569.692	2497.35
569.895	2505.49
570.098	2446.4
570.3	2428.96
570.503	2398.54
570.706	2350.88
570.909	2390.6
571.111	2296.82
571.314	2352.43
571.516	2324.53
571.719	2372.19
571.922	2311.55
572.124	2294.69
572.327	2303.02
572.529	2279.19
572.732	2279.58
572.935	2291.21
573.137	2384.2
573.34	2324.34
573.542	2313.68
573.745	2339.84
573.947	2351.85
574.15	2279
574.352	2257.11
574.554	2338.87
574.757	2247.03
574.959	2217.39
575.162	2195.88
575.364	2215.84
575.566	2235.02
575.769	2170.89
575.971	2193.56
576.173	2063.36
576.376	2195.5
576.578	2177.86
576.78	2199.37
576.982	2068.78
577.185	2143.38
577.387	2119.93
577.589	2108.12
577.791	2158.68
577.993	2138.34
578.196	2138.15
578.398	2134.46
578.6	2130.4
578.802	2057.55
579.004	2052.12
579.206	2046.31
579.408	2113.35
579.61	2044.95
579.812	2147.06
580.014	2029.26
580.216	2042.43
580.418	2028.49
580.62	2076.34
580.822	2014.54
581.024	2083.9
581.226	2146.09
581.428	2060.45
581.63	2157.33
581.832	2060.45
582.034	2107.15
582.236	2075.37
582.438	2114.51
582.64	2140.86
582.841	2150.55
583.043	2204.41
583.245	2102.69
583.447	2123.81
583.649	2153.06
583.85	2117.42
584.052	2120.71
584.254	2091.84
584.456	2138.73
584.657	2043.98
584.859	2090.29
585.061	2036.23
585.262	2071.3
585.464	2069.75
585.666	2081.77
585.867	2051.73
586.069	2085.06
586.27	2042.24
586.472	2047.47
586.674	1981.21
586.875	2028.1
587.077	2022.09
587.278	2042.63
587.48	2020.54
587.681	2102.11
587.883	2056.58
588.084	1966.87
588.285	1995.74
588.487	1944.59
588.688	2003.1
588.89	1864.38
589.091	1819.04
589.292	1809.36
589.494	1713.06
589.695	1735.15
589.896	1681.87
590.098	1667.34
590.299	1723.14
590.5	1695.24
590.702	1719.46
590.903	1778.36
591.104	1843.84
591.305	1844.43
591.507	1873.1
591.708	1837.45
591.909	1795.99
592.11	1861.47
592.311	1876.01
592.512	1802.19
592.714	1756.85
592.915	1794.63
593.116	1820.79
593.317	1819.04
593.518	1831.83
593.719	1791.92
593.92	1853.73
594.121	1856.05
594.322	1832.99
594.523	1822.14
594.724	1775.26
594.925	1782.81
595.126	1783.2
595.327	1749.1
595.528	1809.16
595.729	1804.51
595.929	1786.69
596.13	1816.14
596.331	1836.09
596.532	1829.12
596.733	1872.32
596.934	1887.24
597.135	1839.97
597.335	1835.32
597.536	1791.53
597.737	1863.41
597.938	1786.88
598.138	1810.33
598.339	1826.21
598.54	1797.54
598.74	1805.87
598.941	1806.84
599.142	1863.8
599.342	1832.03
599.543	1788.63
599.744	1828.15
599.944	1792.69
600.145	1810.52
600.345	1768.67
600.546	1863.61
600.746	1848.69
600.947	1875.81
601.147	1815.94
601.348	1815.94
601.548	1819.43
601.749	1818.85
601.949	1785.33
602.15	1808
602.35	1806.26
602.551	1824.66
602.751	1770.99
602.951	1800.64
603.152	1725.85
603.352	1815.56
603.552	1786.49
603.753	1863.41
603.953	1815.94
604.153	1790.37
604.354	1790.56
604.554	1791.73
604.754	1822.34
604.954	1772.54
605.155	1832.03
605.355	1795.6
605.555	1823.31
605.755	1856.82
605.955	1781.26
606.155	1791.73
606.356	1766.73
606.556	1820.01
606.756	1766.54
606.956	1736.31
607.156	1799.86
607.356	1751.04
607.556	1791.53
607.756	1788.43
607.956	1819.24
608.156	1753.17
608.356	1724.88
608.556	1776.42
608.756	1743.48
608.956	1707.25
609.156	1739.41
609.356	1677.42
609.556	1676.45
609.755	1700.86
609.955	1666.37
610.155	1668.7
610.355	1698.15
610.555	1674.7
610.755	1646.03
610.954	1623.75
611.154	1665.98
611.354	1710.74
611.554	1674.12
611.753	1633.43
611.953	1591.78
612.153	1684.39
612.352	1651.26
612.552	1616.38
612.752	1590.42
612.951	1588.68
613.151	1656.3
613.351	1625.49
613.55	1582.87
613.75	1648.74
613.949	1608.05
614.149	1611.93
614.348	1607.28
614.548	1543.92
614.747	1536.17
614.947	1584.42
615.146	1509.63
615.346	1599.72
615.545	1573.18
615.745	1554.77
615.944	1600.11
616.144	1545.86
616.343	1563.69
616.542	1536.75
616.742	1517.19
616.941	1519.7
617.14	1461.97
617.34	1475.92
617.539	1519.9
617.738	1473.59
617.938	1560.97
618.137	1473.98
618.336	1502.46
618.535	1522.61
618.734	1494.32
618.934	1535.98
619.133	1527.45
619.332	1501.69
619.531	1476.31
619.73	1508.66
619.929	1553.22
620.128	1533.65
620.328	1531.52
620.527	1463.13
620.726	1530.36
620.925	1507.3
621.124	1497.04
621.323	1480.57
621.522	1454.8
621.721	1456.54
621.92	1430.58
622.119	1492.39
622.318	1454.61
622.517	1467.78
622.715	1453.83
622.914	1419.54
623.113	1464.68
623.312	1389.12
623.511	1490.26
623.71	1429.22
623.909	1430.39
624.107	1457.32
624.306	1357.93
624.505	1368.78
624.704	1379.63
624.902	1386.79
625.101	1441.82
625.3	1395.71
625.499	1367.42
625.697	1348.82
625.896	1331
626.095	1399.19
626.293	1330.8
626.492	1348.63
626.69	1390.09
626.889	1336.23
627.088	1388.73
627.286	1347.27
627.485	1304.84
627.683	1306.78
627.882	1307.75
628.08	1231.41
628.279	1273.26
628.477	1322.66
628.676	1282.36
628.874	1326.15
629.073	1248.07
629.271	1227.92
629.469	1287.21
629.668	1254.27
629.866	1279.26
630.065	1293.99
630.263	1286.63
630.461	1256.4
630.66	1281.01
630.858	1331.77
631.056	1354.24
631.254	1347.08
631.453	1276.36
631.651	1341.07
631.849	1307.94
632.047	1330.22
632.245	1293.99
632.444	1285.27
632.642	1331.38
632.84	1318.6
633.038	1270.55
633.236	1281.78
633.434	1343.39
633.632	1303.1
633.83	1241.87
634.028	1349.4
634.227	1338.74
634.425	1372.46
634.623	1329.45
634.821	1349.01
635.019	1305.03
635.216	1321.31
635.414	1369.36
635.612	1342.23
635.81	1319.18
636.008	1373.04
636.206	1308.33
636.404	1295.54
636.602	1298.45
636.8	1324.02
636.997	1345.91
637.195	1343.01
637.393	1315.69
637.591	1367.61
637.789	1326.93
637.986	1305.61
638.184	1342.43
638.382	1363.93
638.58	1342.43
638.777	1378.85
638.975	1337.97
639.173	1319.37
639.37	1331.96
639.568	1307.94
639.765	1334.09
639.963	1277.33
640.161	1346.11
640.358	1328.67
640.556	1256.6
640.753	1223.85
640.951	1215.13
641.148	1285.27
641.346	1271.9
641.543	1239.35
641.741	1274.03
641.938	1233.15
642.136	1262.8
642.333	1209.9
642.531	1253.3
642.728	1283.33
642.925	1231.22
643.123	1191.3
643.32	1238.97
643.517	1223.27
643.715	1240.13
643.912	1182.58
644.109	1231.99
644.306	1193.24
644.504	1160.88
644.701	1191.3
644.898	1217.07
645.095	1164.37
645.293	1182.78
645.49	1218.82
645.687	1202.15
645.884	1226.76
646.081	1108.77
646.278	1133.18
646.475	1118.26
646.672	1128.34
646.87	1125.04
647.067	1126.98
647.264	1132.4
647.461	1049.48
647.658	1031.07
647.855	1120.97
648.052	1054.52
648.249	979.15
648.446	1070.99
648.642	1021.19
648.839	1013.06
649.036	1016.93
649.233	983.03
649.43	982.44
649.627	927.81
649.824	977.6
650.021	966.75
650.217	1017.51
650.414	995.62
650.611	1019.64
650.808	1022.74
651.004	1058.2
651.201	1040.96
651.398	1079.51
651.595	1037.66
651.791	990.19
651.988	1048.12
652.185	978.38
652.381	1023.13
652.578	961.52
652.775	1010.34
652.971	992.13
653.168	1015.19
653.364	1020.61
653.561	966.36
653.757	1003.37
653.954	1018.87
654.15	994.07
654.347	1072.15
654.543	981.86
654.74	964.81
654.936	949.31
655.133	952.8
655.329	974.11
655.525	943.31
655.722	1006.66
655.918	920.06
656.115	906.49
656.311	857.67
656.507	837.52
656.704	785.6
656.9	863.68
657.096	841.59
657.292	834.42
657.489	888.09
657.685	877.24
657.881	843.53
658.077	886.15
658.273	902.43
658.47	948.93
658.666	933.81
658.862	940.79
659.058	928
659.254	939.82
659.45	900.29
659.646	951.06
659.842	918.7
660.038	967.33
660.234	905.91
660.43	955.32
660.626	997.75
660.822	971.98
661.018	934.01
661.214	937.3
661.41	857.48
661.606	941.37
661.802	951.06
661.998	903.39
662.194	899.71
662.39	916.96
662.586	940.21
662.781	909.21
662.977	929.74
663.173	942.14
663.369	905.72
663.564	914.83
663.76	959.39
663.956	878.4
664.152	921.41
664.347	857.28
664.543	864.06
664.739	866.39
664.934	831.9
665.13	836.55
665.326	904.56
665.521	858.83
665.717	858.25
665.912	827.45
666.108	783.85
666.304	857.48
666.499	859.03
666.695	791.41
666.89	848.37
667.086	871.04
667.281	847.98
667.477	927.03
667.672	837.52
667.867	821.05
668.063	860.58
668.258	800.9
668.454	847.6
668.649	919.09
668.844	845.66
669.04	855.35
669.235	849.34
669.43	796.45
669.626	788.89
669.821	802.07
670.016	813.5
670.211	813.5
670.407	791.6
670.602	813.88
670.797	809.04
670.992	853.6
671.187	791.99
671.382	831.71
671.578	795.28
671.773	800.32
671.968	783.08
672.163	829.96
672.358	828.8
672.553	795.48
672.748	788.89
672.943	830.55
673.138	802.07
673.333	831.32
673.528	789.47
673.723	813.11
673.918	810.98
674.113	767
674.308	872.4
674.503	840.43
674.698	836.36
674.892	834.42
675.087	826.86
675.282	841.78
675.477	787.73
675.672	826.86
675.867	805.94
676.061	807.88
676.256	754.02
676.451	791.22
676.646	795.09
676.84	791.8
677.035	758.47
677.23	762.93
677.424	830.16
677.619	822.6
677.814	843.72
678.008	830.35
678.203	750.53
678.397	806.91
678.592	830.55
678.787	840.23
678.981	787.15
679.176	776.3
679.37	780.17
679.565	780.95
679.759	794.7
679.954	807.3
680.148	857.48
680.342	875.11
680.537	818.53
680.731	802.26
680.926	837.91
681.12	843.91
681.314	792.38
681.509	793.35
681.703	820.86
681.897	825.31
682.092	832.68
682.286	803.23
682.48	868.52
682.674	835.97
682.869	814.85
683.063	822.21
683.257	875.88
683.451	814.66
683.645	851.08
683.839	819.31
684.034	821.83
684.228	843.33
684.422	782.69
684.616	834.23
684.81	893.71
685.004	832.29
685.198	834.03
685.392	864.06
685.586	819.89
685.78	902.62
685.974	895.45
686.168	883.25
686.362	927.23
686.556	795.09
686.75	763.7
686.944	791.6
687.138	741.81
687.331	673.03
687.525	715.46
687.719	630.79
687.913	706.74
688.107	684.46
688.301	693.18
688.494	727.08
688.688	678.07
688.882	689.11
689.076	680.97
689.269	729.41
689.463	755.18
689.657	718.37
689.85	756.53
690.044	791.41
690.238	763.12
690.431	779.2
690.625	804.39
690.818	842.56
691.012	848.95
691.205	879.76
691.399	833.45
691.593	907.66
691.786	948.15
691.98	989.22
692.173	1008.02
692.366	968.11
692.56	980.51
692.753	1014.02
692.947	997.75
693.14	1036.89
693.333	1060.72
693.527	1009.37
693.72	1060.52
693.914	1057.42
694.107	1045.22
694.3	1069.44
694.493	1057.04
694.687	1161.66
694.88	1089.97
695.073	1178.9
695.266	1179.68
695.46	1166.7
695.653	1233.73
695.846	1198.86
696.039	1181.03
696.232	1202.15
696.425	1277.71
696.618	1338.74
696.812	1310.85
697.005	1394.16
697.198	1477.08
697.391	1417.41
697.584	1461.97
697.777	1541.21
697.97	1511.37
698.163	1510.02
698.356	1511.95
698.549	1602.82
698.742	1589.26
698.935	1542.57
699.127	1577.25
699.32	1534.04
699.513	1539.47
699.706	1582.29
699.899	1640.22
700.092	1581.32
700.285	1659.01
700.477	1603.02
700.67	1670.83
700.863	1671.41
701.056	1758.79
701.248	1753.75
701.441	1767.51
701.634	1758.98
701.826	1840.36
702.019	1747.55
702.212	1821.18
702.404	1771.38
702.597	1758.01
702.79	1841.13
702.982	1848.3
703.175	1908.94
703.367	1916.31
703.56	1974.24
703.752	2036.43
703.945	1978.3
704.137	2002.33
704.33	2029.84
704.522	2082.54
704.715	2081.38
704.907	2123.61
705.1	2115.87
705.292	2184.06
705.484	2144.93
705.677	2213.51
705.869	2246.26
706.061	2269.51
706.254	2302.44
706.446	2238.89
706.638	2263.11
706.831	2358.44
707.023	2323.37
707.215	2438.84
707.407	2432.64
707.599	2375.1
707.792	2492.12
707.984	2469.65
708.176	2534.36
708.368	2495.42
708.56	2515.37
708.752	2504.91
708.944	2520.41
709.136	2558.77
709.329	2547.53
709.521	2680.06
709.713	2624.26
709.905	2658.74
710.097	2687.23
710.289	2676.38
710.481	2702.34
710.672	2722.68
710.864	2753.1
711.056	2788.75
711.248	2768.41
711.44	2757.36
711.632	2804.25
711.824	2862.37
712.016	2841.45
712.207	2867.02
712.399	2896.28
712.591	2940.65
712.783	2948.98
712.975	2906.74
713.166	2882.91
713.358	2950.14
713.55	2999.35
713.741	3018.34
713.933	3035.78
714.125	3021.44
714.316	2975.91
714.508	3061.55
714.7	3050.7
714.891	3037.13
715.083	3067.55
715.274	3024.15
715.466	3081.5
715.657	3109.01
715.849	3019.5
716.04	3042.56
716.232	3004
716.423	3029.96
716.615	2922.43
716.806	2798.24
716.998	2768.21
717.189	2700.98
717.381	2569.23
717.572	2537.46
717.763	2532.81
717.955	2494.25
718.146	2409.2
718.337	2403.77
718.528	2359.02
718.72	2257.88
718.911	2273.77
719.102	2227.85
719.293	2320.66
719.485	2294.31
719.676	2240.83
719.867	2215.06
720.058	2231.73
720.249	2242.38
720.44	2287.14
720.632	2349.52
720.823	2412.3
721.014	2513.05
721.205	2596.94
721.396	2638.4
721.587	2766.47
721.778	2820.14
721.969	2912.17
722.16	2970.1
722.351	3020.28
722.542	3104.36
722.733	3095.45
722.924	3037.13
723.115	3080.14
723.305	3033.65
723.496	3045.46
723.687	2904.8
723.878	2930.57
724.069	2903.84
724.26	2923.21
724.45	2805.22
724.641	2807.93
724.832	2855.98
725.023	2819.36
725.213	2820.72
725.404	2758.52
725.595	2770.15
725.785	2756.01
725.976	2861.79
726.167	2836.41
726.357	2834.86
726.548	2927.47
726.739	2897.83
726.929	2955.76
727.12	2936
727.31	2979.4
727.501	2886.01
727.691	2914.68
727.882	2893.37
728.072	2955.95
728.263	3001.1
728.453	3014.27
728.644	3019.7
728.834	2995.67
729.024	3009.62
729.215	2990.63
729.405	3004
729.596	3053.02
729.786	3111.73
729.976	3105.91
730.167	3111.92
730.357	3037.33
730.547	3120.06
730.737	3109.59
730.928	3194.46
731.118	3221.39
731.308	3149.31
731.498	3172.76
731.688	3301.99
731.879	3285.71
732.069	3319.81
732.259	3406.42
732.449	3434.12
732.639	3556.57
732.829	3535.45
733.019	3596.87
733.209	3710.02
733.399	3702.65
733.589	3790.42
733.779	3775.89
733.969	3814.45
734.159	3923.91
734.349	3940.96
734.539	3999.86
734.729	3922.56
734.919	3990.56
735.109	4059.34
735.299	3984.56
735.488	3987.27
735.678	4038.23
735.868	4032.8
736.058	3963.83
736.248	3965.18
736.437	3971.38
736.627	3929.73
736.817	4057.99
737.007	4025.44
737.196	4106.42
737.386	4060.31
737.576	3993.47
737.765	4169.78
737.955	4081.62
738.144	4200.39
738.334	4189.93
738.524	4115.34
738.713	4169.39
738.903	4115.92
739.092	4203.3
739.282	4165.9
739.471	4150.6
739.661	4158.15
739.85	4259.29
740.04	4221.32
740.229	4273.24
740.419	4263.17
740.608	4300.75
740.797	4271.11
740.987	4358.1
741.176	4327.1
741.365	4294.75
741.555	4251.35
741.744	4367.4
741.933	4299.98
742.123	4330.4
742.312	4363.33
742.501	4447.42
742.69	4404.02
742.88	4350.93
743.069	4448.19
743.258	4445.87
743.447	4451.29
743.636	4454.2
743.825	4420.1
744.014	4402.47
744.204	4446.45
744.393	4401.69
744.582	4473.77
744.771	4500.89
744.96	4452.65
745.149	4472.99
745.338	4437.34
745.527	4539.26
745.716	4465.44
745.905	4462.92
746.094	4561.15
746.283	4468.73
746.471	4461.18
746.66	4520.85
746.849	4515.23
747.038	4551.66
747.227	4454.78
747.416	4510.58
747.604	4431.92
747.793	4436.38
747.982	4488.3
748.171	4514.46
748.359	4453.62
748.548	4486.75
748.737	4485.01
748.926	4491.01
749.114	4386.78
749.303	4458.27
749.491	4448.58
749.68	4379.8
749.869	4490.24
750.057	4445.87
750.246	4440.64
750.434	4425.53
750.623	4384.06
750.811	4386.58
751	4433.47
751.188	4382.51
751.377	4427.46
751.565	4413.71
751.754	4335.05
751.942	4263.55
752.131	4434.83
752.319	4357.13
752.507	4301.53
752.696	4377.28
752.884	4370.7
753.072	4320.9
753.261	4397.04
753.449	4349
753.637	4327.88
753.825	4410.22
754.014	4327.1
754.202	4326.91
754.39	4359.07
754.578	4392.01
754.766	4289.13
754.955	4290.29
755.143	4352.68
755.331	4288.55
755.519	4284.87
755.707	4256.77
755.895	4240.3
756.083	4223.83
756.271	4194.97
756.459	4236.23
756.647	4281.57
756.835	4186.44
757.023	4240.88
757.211	4212.99
757.399	4183.54
757.587	4182.37
757.775	4111.85
757.963	4145.56
758.151	4155.44
758.339	4095.77
758.526	4111.46
758.714	4105.84
758.902	3952.01
759.09	3795.46
759.278	3679.6
759.465	3343.64
759.653	2897.83
759.841	2651.19
760.028	2276.48
760.216	1932
760.404	1823.11
760.591	1493.36
760.779	1283.14
760.967	1095.2
761.154	892.16
761.342	940.59
761.529	907.08
761.717	967.72
761.905	968.11
762.092	1054.13
762.28	933.43
762.467	949.31
762.655	877.43
762.842	895.26
763.029	892.55
763.217	941.18
763.404	896.81
763.592	922.38
763.779	876.85
763.966	927.03
764.154	999.11
764.341	1051.61
764.528	1080.09
764.716	1139.38
764.903	1172.9
765.09	1261.63
765.277	1363.16
765.465	1501.69
765.652	1572.02
765.839	1707.06
766.026	1865.54
766.213	1928.9
766.4	2026.55
766.588	2221.84
766.775	2271.25
766.962	2453.18
767.149	2573.3
767.336	2706.6
767.523	2695.56
767.71	2839.7
767.897	2988.12
768.084	3071.43
768.271	3093.51
768.458	3214.8
768.645	3323.69
768.832	3276.02
769.019	3365.15
769.206	3371.93
769.392	3454.08
769.579	3555.21
769.766	3514.72
769.953	3547.08
770.14	3563.93
770.327	3579.43
770.513	3596.68
770.7	3706.34
770.887	3633.87
771.073	3632.91
771.26	3663.91
771.447	3644.34
771.634	3618.76
771.82	3731.52
772.007	3639.3
772.193	3696.07
772.38	3714.28
772.567	3681.73
772.753	3661.97
772.94	3720.09
773.126	3750.32
773.313	3686.96
773.499	3664.49
773.686	3727.26
773.872	3672.62
774.059	3696.07
774.245	3654.8
774.432	3702.27
774.618	3567.42
774.804	3669.52
774.991	3560.64
775.177	3660.61
775.363	3638.91
775.55	3695.68
775.736	3583.11
775.922	3633.49
776.109	3587.18
776.295	3602.49
776.481	3657.12
776.667	3658.67
776.853	3595.71
777.04	3582.92
777.226	3518.21
777.412	3654.41
777.598	3535.06
777.784	3523.44
777.97	3527.51
778.156	3560.25
778.342	3548.43
778.528	3490.5
778.715	3441.48
778.901	3465.12
779.087	3525.38
779.272	3461.83
779.458	3448.46
779.644	3438.96
779.83	3445.36
780.016	3551.14
780.202	3471.32
780.388	3438.38
780.574	3387.23
780.76	3455.63
780.946	3456.79
781.131	3457.95
781.317	3406.42
781.503	3396.34
781.689	3424.24
781.874	3538.94
782.06	3369.6
782.246	3437.22
782.432	3408.35
782.617	3386.27
782.803	3394.79
782.989	3317.49
783.174	3339.19
783.36	3298.3
783.545	3312.45
783.731	3329.5
783.916	3248.32
784.102	3324.46
784.288	3278.15
784.473	3245.8
784.659	3250.06
784.844	3304.12
785.029	3259.94
785.215	3234.37
785.4	3203.17
785.586	3280.67
785.771	3167.91
785.956	3247.74
786.142	3181.86
786.327	3207.24
786.512	3137.3
786.698	3215.57
786.883	3112.69
787.068	3171.59
787.254	3190.97
787.439	3100.88
787.624	3167.52
787.809	3117.54
787.994	3090.8
788.18	3095.84
788.365	3023.96
788.55	3069.68
788.735	3055.93
788.92	3028.8
789.105	3003.81
789.29	3044.5
789.475	2991.41
789.66	3000.71
789.845	2974.36
790.03	2873.42
790.215	2992.38
790.4	2987.92
790.585	3009.81
790.77	2994.7
790.955	2876.52
791.14	2912.36
791.325	2999.55
791.51	2828.27
791.695	2925.92
791.879	2915.85
792.064	2888.92
792.249	2955.57
792.434	2902.67
792.618	2907.71
792.803	2963.7
792.988	2940.65
793.173	2909.84
793.357	2933.28
793.542	2888.34
793.727	2960.6
793.911	2958.28
794.096	2945.68
794.281	2968.16
794.465	3007.1
794.65	2950.92
794.834	3019.5
795.019	3001.48
795.203	3004.97
795.388	2999.16
795.572	3072.78
795.757	2998.96
795.941	2978.82
796.126	2910.42
796.31	2884.85
796.494	2912.17
796.679	2903.45
796.863	2898.22
797.048	2991.6
797.232	2960.8
797.416	2987.15
797.601	2954.02
797.785	2986.95
797.969	3031.71
798.153	2937.74
798.338	3015.05
798.522	3040.43
798.706	3046.43
798.89	3049.92
799.074	3123.16
799.258	3061.55
799.443	3029.77
799.627	3012.91
799.811	3073.95
799.995	2986.76
800.179	2949.37
800.363	2984.43
800.547	2975.33
800.731	3016.01
800.915	2908.87
801.099	2945.1
801.283	2944.33
801.467	2984.43
801.651	2968.74
801.835	3032.1
802.019	2982.3
802.202	2993.54
802.386	2895.7
802.57	2940.65
802.754	2956.53
802.938	2912.94
803.121	2937.55
803.305	3000.51
803.489	2972.23
803.673	2977.07
803.856	3004
804.04	2965.64
804.224	2957.12
804.407	2952.08
804.591	2930.57
804.775	2962.93
804.958	2992.76
805.142	3075.69
805.326	2964.48
805.509	2985.02
805.693	3010.59
805.876	2987.92
806.06	2988.31
806.243	3032.68
806.427	3050.11
806.61	3022.41
806.794	2987.92
806.977	3047.21
807.16	3014.46
807.344	3000.71
807.527	3012.91
807.71	2991.6
807.894	3012.91
808.077	3008.26
808.26	2941.03
808.444	2931.15
808.627	3022.8
808.81	2903.25
808.993	2880.39
809.177	2869.74
809.36	2912.17
809.543	2890.47
809.726	2822.65
809.909	2754.65
810.092	2788.75
810.276	2764.14
810.459	2772.47
810.642	2778.48
810.825	2758.52
811.008	2726.75
811.191	2631.81
811.374	2684.71
811.557	2689.94
811.74	2694.39
811.923	2631.81
812.106	2615.73
812.289	2548.5
812.472	2565.75
812.654	2515.18
812.837	2496.58
813.02	2430.51
813.203	2391.37
813.386	2308.45
813.569	2252.26
813.751	2241.61
813.934	2254.39
814.117	2213.32
814.3	2168.18
814.482	2103.85
814.665	2100.56
814.848	2022.29
815.03	1998.84
815.213	1980.44
815.396	1969.59
815.578	1924.44
815.761	1913.01
815.943	1940.91
816.126	1856.44
816.309	1807.61
816.491	1780.1
816.674	1725.85
816.856	1752.78
817.039	1727.21
817.221	1832.03
817.403	1785.14
817.586	1805.09
817.768	1819.24
817.951	1725.46
818.133	1732.83
818.315	1733.6
818.498	1792.11
818.68	1835.71
818.862	1827.76
819.045	1843.46
819.227	1823.31
819.409	1800.44
819.591	1862.83
819.774	1803.16
819.956	1777.58
820.138	1849.46
820.32	1851.59
820.502	1936.84
820.684	1994.97
820.866	2007.95
821.048	2069.17
821.231	2100.75
821.413	2115.28
821.595	2046.5
821.777	2084.48
821.959	2058.9
822.141	2091.26
822.323	1994.97
822.505	1896.54
822.686	1813.04
822.868	1776.03
823.05	1640.6
823.232	1597.78
823.414	1513.89
823.596	1581.12
823.778	1569.5
823.96	1629.17
824.141	1611.54
824.323	1651.26
824.505	1733.02
824.687	1795.99
824.868	1867.67
825.05	1968.81
825.232	2008.14
825.413	2049.6
825.595	2015.31
825.777	1961.25
825.958	2044.37
826.14	2016.47
826.321	2054.25
826.503	1998.45
826.685	2072.47
826.866	2046.5
827.048	2038.95
827.229	1975.4
827.411	1965.71
827.592	1896.74
827.773	1898.48
827.955	1851.4
828.136	1791.73
828.318	1809.74
828.499	1819.04
828.68	1768.67
828.862	1807.23
829.043	1823.11
829.224	1773.51
829.406	1776.23
829.587	1792.69
829.768	1824.86
829.949	1785.53
830.131	1803.93
830.312	1874.07
830.493	1819.63
830.674	1807.23
830.855	1802.38
831.036	1825.83
831.218	1871.94
831.399	1868.84
831.58	1810.91
831.761	1830.86
831.942	1835.71
832.123	1813.62
832.304	1741.16
832.485	1785.14
832.666	1822.73
832.847	1791.73
833.028	1792.89
833.209	1809.94
833.389	1818.27
833.57	1711.51
833.751	1772.74
833.932	1821.37
834.113	1811.68
834.294	1812.84
834.475	1835.32
834.655	1877.36
834.836	1908.94
835.017	1877.56
835.198	1839.97
835.378	1858.76
835.559	1907.2
835.74	1854.69
835.92	1834.35
836.101	1843.07
836.281	1897.51
836.462	1867.67
836.643	1889.37
836.823	1933.16
837.004	1910.88
837.184	1958.54
837.365	1946.72
837.545	1922.51
837.726	1914.76
837.906	1934.52
838.087	1908.36
838.267	1901.39
838.448	1855.47
838.628	1945.56
838.808	1904.68
838.989	1956.6
839.169	1844.81
839.349	1955.64
839.53	1969.59
839.71	1938.78
839.89	1874.84
840.07	1937.81
840.251	1893.25
840.431	1977.53
840.611	1905.26
840.791	1892.67
840.971	1919.99
841.151	1893.64
841.332	1855.08
841.512	1938.01
841.692	1843.46
841.872	1918.82
842.052	1896.35
842.232	1912.24
842.412	1850.04
842.592	1893.83
842.772	1874.65
842.952	1926.38
843.132	1831.06
843.312	1919.6
843.492	1830.48
843.672	1886.66
843.851	1812.26
844.031	1846.94
844.211	1838.61
844.391	1807.03
844.571	1874.07
844.751	1878.14
844.93	1849.85
845.11	1829.89
845.29	1824.08
845.47	1897.12
845.649	1851.79
845.829	1871.94
846.009	1856.44
846.188	1862.25
846.368	1888.99
846.547	1837.45
846.727	1875.23
846.907	1813.62
847.086	1844.23
847.266	1889.96
847.445	1856.05
847.625	1819.24
847.804	1793.47
847.984	1813.04
848.163	1811.68
848.343	1782.81
848.522	1804.32
848.701	1851.98
848.881	1739.8
849.06	1806.26
849.239	1764.6
849.419	1775.64
849.598	1721.98
849.777	1690.2
849.957	1674.9
850.136	1624.91
850.315	1647
850.494	1650.1
850.674	1663.08
850.853	1682.45
851.032	1681.68
851.211	1712.1
851.39	1663.08
851.569	1649.13
851.748	1603.98
851.927	1700.08
852.107	1683.61
852.286	1645.64
852.465	1626.27
852.644	1662.88
852.823	1686.91
853.002	1647.77
853.181	1639.83
853.359	1662.3
853.538	1621.62
853.717	1670.63
853.896	1571.82
854.075	1464.29
854.254	1440.27
854.433	1402.88
854.611	1461.58
854.79	1387.57
854.969	1436.78
855.148	1486.38
855.327	1435.81
855.505	1492.77
855.684	1471.46
855.863	1520.48
856.041	1498.2
856.22	1534.04
856.399	1521.25
856.577	1609.22
856.756	1609.22
856.934	1701.44
857.113	1694.08
857.291	1594.1
857.47	1567.75
857.648	1627.82
857.827	1613.48
858.005	1657.85
858.184	1577.44
858.362	1652.03
858.541	1595.07
858.719	1589.65
858.898	1563.88
859.076	1569.5
859.254	1618.9
859.433	1557.68
859.611	1540.63
859.789	1530.17
859.967	1605.15
860.146	1597.98
860.324	1531.91
860.502	1553.03
860.68	1521.45
860.859	1559.42
861.037	1528.04
861.215	1545.47
861.393	1534.24
861.571	1505.56
861.749	1521.84
861.927	1546.05
862.105	1536.56
862.283	1496.84
862.461	1497.81
862.639	1476.31
862.817	1466.23
862.995	1487.74
863.173	1499.94
863.351	1505.56
863.529	1521.25
863.707	1505.95
863.885	1535.59
864.063	1428.45
864.241	1486.77
864.418	1509.24
864.596	1482.51
864.774	1435.42
864.952	1444.14
865.129	1484.64
865.307	1442.4
865.485	1418.38
865.663	1457.51
865.84	1396.48
866.018	1412.18
866.196	1285.27
866.373	1250.78
866.551	1233.35
866.728	1206.42
866.906	1240.9
867.084	1293.99
867.261	1326.73
867.439	1322.86
867.616	1344.56
867.794	1331.38
867.971	1365.09
868.149	1339.13
868.326	1392.8
868.503	1399.97
868.681	1359.67
868.858	1363.35
869.035	1331
869.213	1387.76
869.39	1346.11
869.567	1378.46
869.745	1318.6
869.922	1380.4
870.099	1397.64
870.276	1368
870.454	1375.94
870.631	1377.49
870.808	1358.89
870.985	1385.63
871.162	1372.07
871.339	1344.56
871.517	1301.16
871.694	1294.38
871.871	1337.39
872.048	1332.74
872.225	1325.18
872.402	1346.69
872.579	1266.86
872.756	1319.56
872.933	1290.89
873.11	1296.9
873.287	1298.06
873.463	1267.45
873.64	1251.17
873.817	1296.12
873.994	1275.97
874.171	1243.81
874.348	1300
874.524	1218.04
874.701	1284.88
874.878	1198.28
875.055	1243.62
875.231	1222.69
875.408	1315.69
875.585	1234.12
875.762	1249.23
875.938	1262.41
876.115	1212.42
876.291	1224.24
876.468	1214.94
876.645	1211.65
876.821	1207.19
876.998	1219.78
877.174	1222.88
877.351	1210.48
877.527	1201.77
877.704	1183.94
877.88	1235.09
878.057	1158.75
878.233	1249.43
878.409	1191.88
878.586	1218.04
878.762	1188.4
878.938	1223.08
879.115	1141.9
879.291	1191.3
879.467	1114.39
879.644	1168.63
879.82	1208.93
879.996	1169.6
880.172	1117.87
880.349	1149.26
880.525	1176.58
880.701	1113.03
880.877	1110.9
881.053	1145.97
881.229	1122.52
881.405	1170.96
881.581	1110.12
881.757	1116.71
881.933	1149.84
882.109	1175.42
882.285	1119.04
882.461	1101.02
882.637	1153.14
882.813	1111.29
882.989	1123.69
883.165	1182.58
883.341	1100.82
883.517	1176.58
883.693	1122.52
883.869	1161.66
884.044	1088.23
884.22	1166.12
884.396	1167.28
884.572	1130.66
884.747	1185.1
884.923	1150.62
885.099	1123.69
885.275	1149.84
885.45	1116.32
885.626	1101.79
885.801	1118.26
885.977	1089.97
886.153	1066.53
886.328	1115.35
886.504	1098.89
886.679	1100.24
886.855	1113.61
887.03	1105.28
887.206	1170.77
887.381	1137.64
887.557	1149.07
887.732	1121.55
887.908	1128.92
888.083	1155.46
888.258	1111.67
888.434	1117.1
888.609	1098.69
888.784	1171.54
888.96	1091.72
889.135	1102.95
889.31	1093.46
889.485	1127.95
889.661	1102.37
889.836	1144.42
890.011	1136.67
890.186	1111.29
890.361	1094.82
890.537	1122.72
890.712	1155.46
890.887	1135.31
891.062	1109.54
891.237	1160.69
891.412	1128.92
891.587	1126.98
891.762	1136.86
891.937	1165.92
892.112	1072.92
892.287	1116.71
892.462	1089.59
892.637	1070.99
892.812	1047.35
892.987	1008.02
893.161	983.8
893.336	1027.59
893.511	1012.86
893.686	1005.5
893.861	1006.27
894.035	995.62
894.21	973.53
894.385	946.79
894.56	993.29
894.734	927.61
894.909	929.36
895.084	915.21
895.258	875.69
895.433	899.91
895.608	893.51
895.782	835
895.957	833.06
896.131	822.8
896.306	783.27
896.48	748.4
896.655	790.63
896.829	688.53
897.004	689.5
897.178	708.87
897.353	716.82
897.527	750.72
897.701	737.55
897.876	699.77
898.05	757.89
898.224	745.88
898.399	758.86
898.573	711
898.747	622.85
898.921	647.07
899.096	548.45
899.27	560.07
899.444	564.72
899.618	605.02
899.792	638.54
899.967	622.27
900.141	661.02
900.315	609.09
900.489	618.2
900.663	657.92
900.837	613.55
901.011	581.77
901.185	675.16
901.359	601.54
901.533	641.45
901.707	656.17
901.881	611.81
902.055	603.28
902.229	601.73
902.403	672.06
902.576	637.38
902.75	645.9
902.924	735.42
903.098	692.99
903.272	726.89
903.446	780.95
903.619	773.39
903.793	788.89
903.967	768.35
904.14	835.2
904.314	853.21
904.488	804.2
904.661	814.46
904.835	798.38
905.009	856.7
905.182	876.27
905.356	820.47
905.529	812.72
905.703	769.52
905.876	792.77
906.05	744.33
906.223	743.55
906.397	692.21
906.57	656.56
906.744	618.01
906.917	626.14
907.09	672.06
907.264	606.77
907.437	590.49
907.61	576.35
907.784	562.98
907.957	611.03
908.13	575.57
908.304	583.13
908.477	564.53
908.65	561.82
908.823	533.92
908.996	594.76
909.17	549.22
909.343	513.77
909.516	553.29
909.689	545.54
909.862	524.23
910.035	525.2
910.208	521.13
910.381	498.27
910.554	608.12
910.727	547.09
910.9	525.59
911.073	519.39
911.246	624.01
911.419	591.07
911.592	583.32
911.765	530.24
911.938	536.05
912.11	547.67
912.283	561.24
912.456	598.63
912.629	542.25
912.802	506.99
912.974	502.53
913.147	447.31
913.32	377.95
913.493	429.68
913.665	469.79
913.838	464.56
914.01	448.86
914.183	489.16
914.356	481.8
914.528	546.12
914.701	564.14
914.873	521.71
915.046	475.41
915.218	427.16
915.391	381.05
915.563	401.98
915.736	437.24
915.908	473.66
916.081	453.9
916.253	422.32
916.425	463.98
916.598	484.51
916.77	470.95
916.942	431.04
917.115	386.48
917.287	444.21
917.459	425.23
917.632	363.81
917.804	354.12
917.976	421.74
918.148	433.17
918.32	438.01
918.493	488.58
918.665	490.71
918.837	489.74
919.009	520.36
919.181	541.86
919.353	518.81
919.525	510.09
919.697	542.64
919.869	520.55
920.041	581.58
920.213	602.31
920.385	548.84
920.557	524.62
920.729	548.45
920.901	518.23
921.073	501.18
921.244	505.44
921.416	542.44
921.588	525.78
921.76	485.68
921.932	569.37
922.103	542.06
922.275	513.77
922.447	517.64
922.619	445.57
922.79	499.24
922.962	493.43
923.134	527.53
923.305	445.57
923.477	422.51
923.648	401.01
923.82	447.51
923.991	391.9
924.163	385.7
924.335	444.6
924.506	408.95
924.677	462.81
924.849	401.4
925.02	423.68
925.192	454.48
925.363	447.51
925.535	429.49
925.706	401.78
925.877	459.33
926.049	411.08
926.22	432.78
926.391	442.28
926.562	456.03
926.734	432.01
926.905	461.07
927.076	369.23
927.247	407.4
927.419	380.47
927.59	353.15
927.761	369.82
927.932	321.18
928.103	335.13
928.274	274.49
928.445	278.37
928.616	305.68
928.787	307.82
928.958	314.6
929.129	307.04
929.3	266.35
929.471	236.52
929.642	208.81
929.813	153.4
929.984	240.39
930.155	151.66
930.326	236.52
930.496	182.27
930.667	158.44
930.838	178.01
931.009	139.06
931.18	159.41
931.35	173.94
931.521	153.21
931.692	100.12
931.863	70.86
932.033	141.97
932.204	107.29
932.374	103.99
932.545	74.93
932.716	129.76
932.886	157.66
933.057	71.83
933.227	51.49
933.398	137.51
933.568	48
933.739	9.06
933.909	31.73
934.08	71.25
934.25	-6.83
934.421	51.49
934.591	72.22
934.761	27.46
934.932	6.15
935.102	51.49
935.272	55.75
935.443	50.91
935.613	35.02
935.783	62.14
935.953	8.48
936.123	159.21
936.294	16.81
936.464	14.87
936.634	78.61
936.804	4.41
936.974	18.75
937.144	64.47
937.314	29.79
937.484	19.33
937.655	34.24
937.825	61.37
937.995	2.47
938.165	68.73
938.334	47.23
938.504	41.8
938.674	42.77
938.844	42.58
939.014	102.83
939.184	111.55
939.354	130.54
939.524	148.75
939.694	99.93
939.863	102.25
940.033	145.07
940.203	156.11
940.373	110.97
940.542	143.13
940.712	100.89
940.882	123.17
941.051	134.8
941.221	115.42
941.391	119.11
941.56	94.89
941.73	87.91
941.899	162.12
942.069	61.18
942.238	117.36
942.408	64.08
942.577	111.74
942.747	71.64
942.916	5.76
943.086	73.77
943.255	116.59
943.425	86.17
943.594	54.39
943.763	12.35
943.933	30.76
944.102	22.43
944.271	79.97
944.441	79.39
944.61	65.83
944.779	39.09
944.948	127.82
945.117	48.39
945.287	72.61
945.456	-0.24
945.625	54.01
945.794	92.37
945.963	48.19
946.132	96.24
946.301	37.93
946.47	67.57
946.639	22.81
946.808	37.73
946.977	85.01
947.146	101.48
947.315	69.12
947.484	95.86
947.653	42.38
947.822	57.69
947.991	50.71
948.16	125.11
948.329	103.22
948.498	62.34
948.666	71.44
948.835	84.23
949.004	31.73
949.173	29.79
949.341	55.36
949.51	75.71
949.679	90.04
949.847	84.62
950.016	135.96
950.185	105.93
950.353	47.23
950.522	74.74
950.69	117.56
950.859	54.78
951.028	98.18
951.196	92.37
951.365	39.48
951.533	41.03
951.701	91.4
951.87	80.94
952.038	24.36
952.207	52.07
952.375	104.58
952.543	53.62
952.712	70.28
952.88	67.76
953.048	117.36
953.217	77.45
953.385	41.8
953.553	106.9
953.721	38.31
953.89	63.69
954.058	41.03
954.226	29.98
954.394	79.58
954.562	32.89
954.73	55.36
954.898	61.76
955.067	112.32
955.235	45.68
955.403	107.29
955.571	132.28
955.739	77.26
955.907	26.69
956.075	54.01
956.243	57.69
956.41	68.73
956.578	19.13
956.746	20.88
956.914	58.08
957.082	116.01
957.25	102.06
957.418	72.22
957.585	72.8
957.753	109.81
957.921	55.75
958.089	62.14
958.256	83.84
958.424	63.5
958.592	76.09
958.759	49.36
958.927	59.82
959.095	58.46
959.262	78.23
959.43	86.36
959.597	43.93
959.765	50.91
959.932	69.7
960.1	94.89
960.267	67.18
960.435	67.18
960.602	84.04
960.77	73.38
960.937	13.51
961.104	85.98
961.272	40.25
961.439	65.63
961.606	53.04
961.774	127.05
961.941	48.19
962.108	94.31
962.275	90.04
962.443	121.82
962.61	80.16
962.777	134.02
962.944	120.85
963.111	87.91
963.278	94.5
963.446	72.41
963.613	83.84
963.78	72.03
963.947	93.92
964.114	101.48
964.281	150.88
964.448	101.28
964.615	71.25
964.782	86.94
964.949	128.99
965.116	107.68
965.282	164.06
965.449	82.68
965.616	58.27
965.783	97.6
965.95	82.88
966.117	63.69
966.283	97.99
966.45	102.25
966.617	110.39
966.784	113.68
966.95	131.89
967.117	141.19
967.284	87.14
967.45	82.29
967.617	171.61
967.784	144.1
967.95	166.57
968.117	116.78
968.283	143.91
968.45	189.63
968.616	111.16
968.783	150.49
968.949	163.28
969.116	144.1
969.282	120.85
969.449	139.84
969.615	133.25
969.781	89.27
969.948	114.46
970.114	71.44
970.28	157.66
970.447	126.66
970.613	164.25
970.779	122.4
970.945	127.05
971.112	121.04
971.278	134.02
971.444	129.96
971.61	153.01
971.776	100.7
971.942	109.61
972.108	166.57
972.275	118.14
972.441	131.89
972.607	170.64
972.773	69.12
972.939	139.84
973.105	123.17
973.271	59.43
973.437	94.11
973.602	73.19
973.768	122.01
973.934	92.56
974.1	131.31
974.266	40.25
974.432	119.11
974.598	93.92
974.763	109.61
974.929	100.89
975.095	141.77
975.261	77.84
975.426	74.93
975.592	95.28
975.758	151.66
975.923	64.47
976.089	68.15
976.255	133.25
976.42	100.7
976.586	115.81
976.751	110.77
976.917	184.59
977.082	136.93
977.248	62.53
977.413	45.29
977.579	90.04
977.744	98.18
977.91	63.31
978.075	89.08
978.24	113.87
978.406	106.71
978.571	95.86
978.736	74.35
978.902	136.16
979.067	74.16
979.232	50.91
979.397	99.93
979.563	140.42
979.728	45.09
979.893	101.86
980.058	73.96
980.223	130.34
980.388	114.84
980.554	110.77
980.719	90.63
980.884	121.62
981.049	127.05
981.214	91.59
981.379	106.32
981.544	92.56
981.709	97.6
981.874	82.49
982.039	115.62
982.204	106.13
982.368	95.47
982.533	59.82
982.698	141.97
982.863	110
983.028	92.56
983.193	133.44
983.357	115.62
983.522	94.69
983.687	108.45
983.852	101.28
984.016	95.28
984.181	132.67
984.346	113.1
984.51	125.5
984.675	111.74
984.839	119.3
985.004	111.55
985.168	126.47
985.333	101.48
985.498	82.49
985.662	127.44
985.827	115.23
985.991	98.38
986.155	106.71
986.32	146.81
986.484	137.9
986.649	123.56
986.813	69.51
986.977	117.75
987.142	97.99
987.306	64.66
987.47	119.49
987.634	94.11
987.799	131.31
987.963	122.4
988.127	124.92
988.291	159.41
988.455	113.29
988.62	93.14
988.784	128.79
988.948	132.28
989.112	110.19
989.276	109.61
989.44	119.3
989.604	97.79
989.768	73.58
989.932	159.21
990.096	70.28
990.26	59.24
990.424	62.34
990.588	73.38
990.752	130.34
990.915	116.2
991.079	101.48
991.243	86.56
991.407	116.78
991.571	90.24
991.734	105.35
991.898	127.82
992.062	191.37
992.226	82.29
992.389	88.11
992.553	52.07
992.717	57.11
992.88	83.26
993.044	118.52
993.207	99.73
993.371	105.54
993.535	119.11
993.698	95.08
993.862	115.23
994.025	119.49
994.189	112.52
994.352	87.91
994.515	107.09
994.679	112.71
994.842	65.63
995.006	116.59
995.169	69.51
995.332	73.58
995.496	113.1
995.659	67.18
995.822	96.05
995.985	82.1
996.149	115.42
996.312	85.78
996.475	151.07
996.638	87.53
996.801	121.04
996.964	149.91
997.128	85.98
997.291	54.39
997.454	93.53
997.617	60.21
997.78	112.52
997.943	80.55
998.106	117.56
998.269	56.53
998.432	101.09
998.595	111.55
998.758	14.68
998.92	34.83
999.083	14.87
999.246	83.46
999.409	42.38
999.572	15.65
999.735	47.61
999.897	100.31
1000.06	36.96
1000.223	48.97
1000.386	105.16
1000.548	97.02
1000.711	70.67
1000.874	104.38
1001.036	38.31
1001.199	118.52
1001.361	60.21
1001.524	73.19
1001.687	104.77
1001.849	66.99
1002.012	98.18
1002.174	92.56
1002.337	109.03
1002.499	47.81
1002.661	100.7
1002.824	23.98
1002.986	50.33
1003.149	65.63
1003.311	30.95
1003.473	116.2
1003.636	49.36
1003.798	101.09
1003.96	75.9
1004.123	67.57
1004.285	45.48
1004.447	74.93
1004.609	66.99
1004.771	89.08
1004.933	19.91
1005.096	30.37
1005.258	28.24
1005.42	44.51
1005.582	91.79
1005.744	61.18
1005.906	36.76
1006.068	65.63
1006.23	0.15
1006.392	0.73
1006.554	49.94
1006.716	79
1006.878	87.72
1007.04	23.78
1007.202	52.84
1007.363	72.22
1007.525	69.51
1007.687	53.62
1007.849	97.6
1008.011	2.28
1008.172	34.44
1008.334	44.13
1008.496	62.53
1008.658	26.69
1008.819	31.92
1008.981	4.6
1009.143	44.51
1009.304	25.72
1009.466	60.59
1009.627	96.05
1009.789	132.86
1009.95	64.47
1010.112	26.69
1010.273	65.83
1010.435	25.91
1010.596	30.95
1010.758	55.36
1010.919	7.9
1011.081	11.77
1011.242	49.74
1011.403	59.24
1011.565	61.95
1011.726	43.74
1011.887	16.42
1012.049	42.96
1012.21	74.16
1012.371	80.16
1012.532	-31.05
1012.693	39.67
1012.855	47.03
1013.016	51.49
1013.177	89.27
1013.338	54.59
1013.499	94.31
1013.66	36.18
1013.821	74.54
1013.982	45.68
1014.143	48.58
1014.304	26.88
1014.465	51.49
1014.626	72.41
1014.787	41.41
1014.948	84.81
1015.109	-22.52
1015.27	84.43
1015.431	7.31
1015.592	29.59
1015.752	116.97
1015.913	49.55
1016.074	49.74
1016.235	32.69
1016.395	22.43
1016.556	40.83
1016.717	23.78
1016.877	73.58
1017.038	19.33
1017.199	35.02
1017.359	30.95
1017.52	27.46
1017.681	-2.57
1017.841	28.82
1018.002	31.53
1018.162	20.49
1018.323	77.84
1018.483	41.61
1018.644	43.16
1018.804	-21.17
1018.964	2.86
1019.125	10.03
1019.285	35.02
1019.446	-13.42
1019.606	6.73
1019.766	0.73
1019.926	44.71
1020.087	48.19
1020.247	8.28
1020.407	62.14
1020.567	73.96
1020.728	18.36
1020.888	-4.89
1021.048	16.03
1021.208	-23.49
1021.368	12.35
1021.528	56.14
1021.688	57.69
1021.848	45.68
1022.008	24.56
1022.168	13.51
1022.328	31.34
1022.488	41.22
1022.648	12.35
1022.808	48.97
1022.968	29.59
1023.128	-2.76
1023.288	0.34
1023.448	16.42
1023.608	21.07
1023.767	40.64
1023.927	3.25
1024.087	-28.72
1024.247	-10.7
1024.406	24.56
1024.566	3.83
1024.726	-19.62
1024.885	29.01
1025.045	38.31
1025.205	21.26
1025.364	25.72
1025.524	33.28
1025.683	5.96
1025.843	32.31
1026.003	28.43
1026.162	69.89
1026.321	58.85
1026.481	36.18
1026.64	26.11
1026.8	30.56
1026.959	15.65
1027.119	-8.57
1027.278	30.76
1027.437	-21.17
1027.597	11.19
1027.756	15.45
1027.915	39.67
1028.074	23.01
1028.234	-10.7
1028.393	31.34
1028.552	4.8
1028.711	-56.62
1028.87	53.04
1029.03	-40.93
1029.189	11.96
1029.348	-42.09
1029.507	8.86
1029.666	20.68
1029.825	-5.47
1029.984	-7.6
1030.143	11
1030.302	12.55
1030.461	-13.03
1030.62	4.6
1030.779	45.68
1030.938	-7.99
1031.097	-22.33
1031.255	32.89
1031.414	85.78
1031.573	50.71
1031.732	-47.32
1031.891	19.33
1032.049	35.41
1032.208	35.21
1032.367	10.61
1032.525	14.1
1032.684	-0.63
1032.843	5.38
1033.001	-20.97
1033.16	131.7
1033.319	56.14
1033.477	6.54
1033.636	-7.22
1033.794	-34.92
1033.953	25.72
1034.111	34.83
1034.27	6.93
1034.428	12.55
1034.587	-30.66
1034.745	19.91
1034.903	41.61
1035.062	40.64
1035.22	-33.57
1035.378	38.7
1035.537	-34.15
1035.695	36.96
1035.853	-0.05
1036.011	33.86
1036.17	17.39
1036.328	-74.45
1036.486	21.26
1036.644	20.88
1036.802	-32.79
1036.96	-6.05
1037.119	-3.15
1037.277	15.26
1037.435	-15.55
1037.593	-11.29
1037.751	12.93
1037.909	29.59
1038.067	29.59
