Data from gum_young_FLMT105791__76__17-39-34-043.txt Node

Date: Mon Mar 20 17:39:34 GMT 2023
User: antho
Spectrometer: FLMT10579
Trigger mode: 0
Integration Time (sec): 1.000000E-1
Scans to average: 10
Electric dark correction enabled: true
Nonlinearity correction enabled: false
Boxcar width: 0
XAxis mode: Wavelengths
Number of Pixels in Spectrum: 3648
>>>>>Begin Spectral Data<<<<<
345.248	-153.98
345.464	-153.98
345.681	-153.98
345.898	-158.82
346.114	-176.26
346.331	-33.47
346.548	42.29
346.764	-35.79
346.981	-9.64
347.197	-0.92
347.414	9.15
347.631	-13.71
347.847	57.4
348.064	-2.86
348.28	30.66
348.497	-34.24
348.713	-8.86
348.93	7.8
349.146	33.76
349.363	-4.21
349.579	-10.22
349.796	-28.82
350.012	8.57
350.229	32.02
350.445	19.23
350.661	-15.26
350.878	-24.75
351.094	10.32
351.311	18.45
351.527	29.89
351.743	-7.7
351.96	18.26
352.176	22.72
352.392	12.84
352.609	29.5
352.825	-14.1
353.041	-3.05
353.257	17.49
353.474	27.95
353.69	9.54
353.906	5.47
354.122	-19.52
354.339	55.46
354.555	20.97
354.771	-15.26
354.987	54.1
355.203	61.85
355.42	-18.16
355.636	-27.46
355.852	-35.41
356.068	7.22
356.284	-28.43
356.5	45
356.716	18.65
356.932	-3.44
357.148	29.3
357.364	1.4
357.58	53.33
357.796	67.67
358.012	49.07
358.228	27.95
358.444	-38.31
358.66	61.47
358.876	11.67
359.092	-10.03
359.308	-10.61
359.524	22.33
359.74	-18.94
359.956	-23.59
360.172	15.55
360.388	24.46
360.604	-44.32
360.819	77.16
361.035	31.44
361.251	24.46
361.467	5.47
361.683	57.4
361.898	36.09
362.114	31.82
362.33	23.69
362.546	24.27
362.762	-0.92
362.977	19.81
363.193	20.2
363.409	19.62
363.624	-14.1
363.84	-15.65
364.056	2.57
364.271	40.35
364.487	40.54
364.703	0.05
364.918	-38.31
365.134	13.03
365.35	5.09
365.565	99.83
365.781	11.09
365.996	22.91
366.212	85.88
366.427	13.03
366.643	-5.18
366.858	7.6
367.074	-19.52
367.289	47.71
367.505	105.45
367.72	-39.67
367.936	8.96
368.151	53.72
368.367	36.47
368.582	23.69
368.798	-2.47
369.013	37.64
369.228	32.02
369.444	18.65
369.659	65.34
369.874	18.45
370.09	76.58
370.305	-68.93
370.52	15.74
370.736	62.63
370.951	11.87
371.166	66.5
371.381	76.77
371.597	38.22
371.812	-17.58
372.027	1.99
372.242	-10.8
372.458	69.6
372.673	9.93
372.888	15.55
373.103	31.05
373.318	84.72
373.533	35.89
373.749	33.95
373.964	-15.45
374.179	53.52
374.394	-36.76
374.609	59.53
374.824	-15.06
375.039	50.04
375.254	12.64
375.469	49.84
375.684	53.14
375.899	68.83
376.114	8.19
376.329	28.53
376.544	53.72
376.759	31.63
376.974	8.19
377.189	33.18
377.404	17.1
377.619	39.77
377.834	-19.71
378.049	-14.87
378.264	-29.79
378.478	41.9
378.693	13.22
378.908	51.59
379.123	30.66
379.338	53.52
379.553	32.79
379.767	15.35
379.982	24.65
380.197	35.7
380.412	28.14
380.626	59.14
380.841	86.85
381.056	48.87
381.271	59.14
381.485	18.65
381.7	2.37
381.915	23.49
382.129	11.67
382.344	42.29
382.559	9.35
382.773	53.14
382.988	-8.86
383.202	36.67
383.417	-3.83
383.632	96.34
383.846	21.55
384.061	33.57
384.275	9.35
384.49	37.25
384.704	47.32
384.919	17.49
385.133	30.47
385.348	45.58
385.562	-14.87
385.777	75.22
385.991	25.04
386.206	23.88
386.42	19.23
386.634	56.43
386.849	37.05
387.063	30.47
387.277	-19.71
387.492	-0.92
387.706	-11.38
387.92	-15.45
388.135	39.38
388.349	21.75
388.563	66.89
388.778	48.87
388.992	59.34
389.206	60.5
389.42	99.63
389.635	53.33
389.849	62.05
390.063	72.12
390.277	43.84
390.491	75.61
390.706	38.99
390.92	59.14
391.134	37.64
391.348	52.55
391.562	-14.87
391.776	9.54
391.99	32.6
392.205	53.33
392.419	19.62
392.633	23.49
392.847	61.85
393.061	14.39
393.275	86.46
393.489	47.32
393.703	47.9
393.917	45.77
394.131	23.88
394.345	65.15
394.559	69.6
394.773	50.62
394.986	69.41
395.2	57.98
395.414	69.02
395.628	34.92
395.842	37.05
396.056	45.97
396.27	-5.96
396.484	68.63
396.697	62.44
396.911	50.23
397.125	80.07
397.339	74.83
397.553	75.42
397.766	76
397.98	73.28
398.194	79.1
398.408	24.85
398.621	69.22
398.835	68.25
399.049	53.91
399.262	92.66
399.476	84.33
399.69	75.8
399.903	137.03
400.117	61.66
400.331	97.12
400.544	43.25
400.758	157.76
400.971	80.26
401.185	91.88
401.398	38.8
401.612	123.85
401.826	96.15
402.039	82.78
402.253	54.88
402.466	72.12
402.68	59.53
402.893	73.28
403.106	82
403.32	67.86
403.533	71.93
403.747	71.15
403.96	78.32
404.174	91.88
404.387	44.22
404.6	90.72
404.814	112.81
405.027	75.42
405.24	66.5
405.454	65.34
405.667	100.41
405.88	32.21
406.094	98.28
406.307	107
406.52	108.74
406.733	52.36
406.947	16.13
407.16	122.3
407.373	125.02
407.586	72.51
407.799	75.22
408.012	100.8
408.226	105.83
408.439	128.5
408.652	40.15
408.865	94.21
409.078	122.11
409.291	78.52
409.504	66.89
409.717	98.86
409.93	90.33
410.143	85.3
410.357	34.54
410.57	68.63
410.783	66.5
410.996	94.79
411.209	103.12
411.421	116.3
411.634	96.15
411.847	35.89
412.06	96.15
412.273	79.1
412.486	101.96
412.699	165.9
412.912	119.2
413.125	110.48
413.338	103.12
413.55	114.55
413.763	86.85
413.976	119.59
414.189	86.85
414.402	78.52
414.615	166.28
414.827	56.24
415.04	125.79
415.253	88.2
415.466	121.33
415.678	154.66
415.891	106.8
416.104	120.56
416.316	93.43
416.529	93.05
416.742	132.38
416.954	135.87
417.167	96.53
417.38	99.05
417.592	145.75
417.805	59.14
418.017	61.08
418.23	134.32
418.442	106.8
418.655	94.6
418.868	106.22
419.08	150.01
419.293	160.08
419.505	130.44
419.718	126.18
419.93	155.43
420.142	72.32
420.355	155.43
420.567	144
420.78	150.2
420.992	131.6
421.205	165.12
421.417	93.05
421.629	91.88
421.842	96.73
422.054	73.48
422.266	125.21
422.479	150.01
422.691	117.27
422.903	129.86
423.115	137.03
423.328	129.86
423.54	125.6
423.752	140.71
423.964	92.47
424.177	107.38
424.389	107.38
424.601	220.34
424.813	138.58
425.025	134.51
425.238	165.9
425.45	137.8
425.662	115.91
425.874	390.64
426.086	116.68
426.298	145.75
426.51	161.25
426.722	133.35
426.934	126.57
427.146	163.18
427.358	122.3
427.57	146.33
427.782	130.63
427.994	132.18
428.206	107.19
428.418	81.42
428.63	147.3
428.842	140.13
429.054	153.3
429.266	156.4
429.478	103.9
429.69	143.23
429.902	89.17
430.114	136.25
430.325	134.32
430.537	85.1
430.749	117.07
430.961	91.69
431.173	101.77
431.384	154.46
431.596	57.01
431.808	127.34
432.02	138
432.231	185.46
432.443	163.76
432.655	151.95
432.867	130.44
433.078	157.95
433.29	201.35
433.502	190.89
433.713	166.67
433.925	173.65
434.136	198.83
434.348	108.35
434.56	115.52
434.771	251.92
434.983	99.83
435.194	115.91
435.406	151.95
435.617	201.35
435.829	228.86
436.04	181.01
436.252	158.53
436.463	199.41
436.675	211.23
436.886	177.52
437.098	194.76
437.309	219.95
437.521	195.54
437.732	158.73
437.943	168.61
438.155	181.98
438.366	128.31
438.578	227.12
438.789	183.33
439	227.12
439.211	154.46
439.423	184.69
439.634	195.93
439.845	199.8
440.057	196.7
440.268	203.68
440.479	169.38
440.69	190.89
440.902	186.82
441.113	162.6
441.324	185.85
441.535	194.38
441.746	233.13
441.957	183.33
442.168	198.06
442.38	232.35
442.591	245.33
442.802	167.64
443.013	187.98
443.224	211.81
443.435	200.77
443.646	221.5
443.857	182.95
444.068	199.61
444.279	197.67
444.49	271.49
444.701	229.64
444.912	301.33
445.123	246.49
445.334	228.48
445.545	205.81
445.756	221.31
445.967	153.69
446.178	218.98
446.388	238.55
446.599	258.12
446.81	261.22
447.021	192.44
447.232	235.45
447.443	261.99
447.653	211.23
447.864	286.41
448.075	220.15
448.286	267.03
448.496	212.01
448.707	274.2
448.918	229.06
449.129	330.19
449.339	231
449.55	275.94
449.761	219.76
449.971	294.74
450.182	234.48
450.393	281.95
450.603	236.61
450.814	281.56
451.024	275.56
451.235	305.01
451.446	317.6
451.656	314.11
451.867	239.52
452.077	275.75
452.288	348.41
452.498	322.44
452.709	273.43
452.919	292.41
453.13	254.44
453.34	295.32
453.55	219.56
453.761	280.01
453.971	251.53
454.182	302.1
454.392	263.35
454.602	300.36
454.813	268.78
455.023	320.51
455.233	235.84
455.444	282.14
455.654	212.4
455.864	292.22
456.075	284.66
456.285	272.07
456.495	267.61
456.705	304.81
456.916	321.28
457.126	314.5
457.336	300.16
457.546	251.14
457.756	260.83
457.967	326.71
458.177	255.21
458.387	312.95
458.597	267.61
458.807	299
459.017	259.09
459.227	286.6
459.437	275.36
459.647	327.48
459.857	331.36
460.068	294.16
460.278	339.69
460.488	330.19
460.698	359.64
460.908	284.28
461.117	289.89
461.327	270.33
461.537	319.54
461.747	308.69
461.957	302.1
462.167	420.67
462.377	349.18
462.587	308.49
462.797	334.07
463.007	329.81
463.216	323.61
463.426	363.71
463.636	343.56
463.846	285.83
464.056	309.46
464.265	358.48
464.475	293.77
464.685	335.62
464.895	328.26
465.104	318.38
465.314	355.19
465.524	297.84
465.733	323.41
465.943	385.22
466.153	407.5
466.362	380.18
466.572	349.76
466.782	331.16
466.991	329.81
467.201	379.41
467.41	289.51
467.62	325.74
467.829	344.72
468.039	358.48
468.249	339.49
468.458	339.49
468.668	348.6
468.877	370.11
469.086	389.87
469.296	398.39
469.505	347.44
469.715	434.82
469.924	377.86
470.134	406.53
470.343	420.67
470.552	379.79
470.762	381.92
470.971	315.47
471.18	350.34
471.39	344.72
471.599	338.52
471.808	380.18
472.018	362.74
472.227	419.32
472.436	398.78
472.645	395.49
472.855	363.91
473.064	436.75
473.273	404.98
473.482	410.21
473.691	426.49
473.901	411.96
474.11	405.37
474.319	465.62
474.528	417.57
474.737	450.7
474.946	444.5
475.155	411.76
475.364	470.47
475.573	421.25
475.783	433.85
475.992	457.87
476.201	471.24
476.41	427.26
476.619	408.47
476.828	436.75
477.037	427.26
477.245	463.88
477.454	485
477.663	464.46
477.872	440.63
478.081	515.03
478.29	415.83
478.499	536.53
478.708	465.43
478.917	517.93
479.125	474.34
479.334	500.11
479.543	479.77
479.752	499.34
479.961	495.46
480.169	528.78
480.378	496.62
480.587	597.95
480.796	549.71
481.004	505.92
481.213	567.73
481.422	551.65
481.63	526.07
481.839	543.12
482.048	577.42
482.256	553.97
482.465	560.17
482.674	577.03
482.882	589.81
483.091	609.96
483.299	547.77
483.508	583.23
483.716	571.6
483.925	587.49
484.134	549.52
484.342	591.36
484.551	621.4
484.759	611.9
484.967	596.6
485.176	618.49
485.384	609.38
485.593	618.3
485.801	619.07
486.01	572.96
486.218	534.98
486.426	489.84
486.635	531.3
486.843	508.25
487.051	552.03
487.26	524.13
487.468	581.29
487.676	615.78
487.885	583.23
488.093	617.52
488.301	608.61
488.509	626.24
488.717	686.88
488.926	621.78
489.134	624.3
489.342	656.27
489.55	609.96
489.758	632.44
489.967	651.81
490.175	723.69
490.383	636.31
490.591	731.06
490.799	643.48
491.007	728.93
491.215	663.44
491.423	695.02
491.631	678.55
491.839	686.3
492.047	713.81
492.255	643.68
492.463	630.89
492.671	655.69
492.879	722.34
493.087	691.14
493.295	696.96
493.503	697.73
493.711	736.87
493.919	719.04
494.127	737.84
494.334	765.93
494.542	695.6
494.75	741.33
494.958	717.88
495.166	780.46
495.374	780.66
495.581	761.28
495.789	774.26
495.997	831.81
496.205	736.09
496.412	737.64
496.62	791.31
496.828	784.53
497.035	778.33
497.243	774.46
497.451	804.68
497.658	793.25
497.866	787.82
498.074	838.59
498.281	752.76
498.489	869.39
498.696	802.55
498.904	788.02
499.112	798.67
499.319	876.75
499.527	815.92
499.734	853.12
499.942	795.57
500.149	837.62
500.357	818.24
500.564	764.38
500.771	839.56
500.979	799.84
501.186	792.09
501.394	825.99
501.601	816.31
501.808	838.97
502.016	814.37
502.223	821.92
502.43	861.84
502.638	810.69
502.845	803.32
503.052	931.97
503.26	846.53
503.467	922.09
503.674	889.35
503.881	881.21
504.089	984.87
504.296	907.95
504.503	849.44
504.71	879.08
504.917	862.42
505.125	899.04
505.332	931.78
505.539	956
505.746	984.28
505.953	987.58
506.16	976.53
506.367	1036.01
506.574	1012.38
506.781	1033.5
506.988	958.9
507.195	996.68
507.402	993.78
507.609	1033.69
507.816	997.85
508.023	1009.86
508.23	991.07
508.437	950.57
508.644	1036.79
508.851	1089.88
509.058	1084.45
509.265	1083.29
509.472	1080.77
509.679	1173.58
509.885	1072.05
510.092	1050.16
510.299	1088.71
510.506	1109.64
510.713	1142.58
510.92	1123.78
511.126	1146.06
511.333	1175.51
511.54	1198.38
511.746	1200.51
511.953	1240.03
512.16	1225.5
512.367	1206.12
512.573	1230.73
512.78	1215.04
512.987	1201.86
513.193	1173.38
513.4	1138.31
513.606	1228.79
513.813	1241.39
514.02	1226.86
514.226	1273.16
514.433	1313.07
514.639	1217.75
514.846	1269.67
515.052	1251.85
515.259	1251.66
515.465	1297.77
515.672	1289.05
515.878	1349.5
516.085	1310.55
516.291	1393.09
516.497	1333.8
516.704	1328.96
516.91	1290.02
517.117	1223.56
517.323	1208.84
517.529	1219.3
517.736	1211.16
517.942	1263.47
518.148	1310.17
518.354	1334.19
518.561	1335.74
518.767	1325.67
518.973	1359.57
519.179	1415.18
519.386	1372.75
519.592	1371.2
519.798	1349.69
520.004	1514.38
520.21	1468.85
520.417	1513.6
520.623	1581.99
520.829	1582.96
521.035	1591.88
521.241	1561.65
521.447	1631.59
521.653	1711.61
521.859	1565.33
522.065	1675.57
522.271	1759.85
522.477	1715.68
522.683	1732.15
522.889	1698.05
523.095	1686.42
523.301	1678.87
523.507	1652.71
523.713	1734.67
523.919	1691.07
524.125	1815.27
524.331	1765.28
524.537	1844.52
524.742	1857.12
524.948	1876.88
525.154	1863.9
525.36	1943.33
525.566	1887.73
525.772	1926.67
525.977	1865.83
526.183	1933.45
526.389	1918.53
526.595	1853.82
526.8	1824.76
527.006	1752.1
527.212	1733.5
527.417	1754.24
527.623	1762.37
527.829	1825.92
528.034	1903.61
528.24	1873.2
528.446	1902.65
528.651	1976.66
528.857	2002.81
529.062	2038.46
529.268	2086.12
529.473	2047.76
529.679	2062.88
529.884	2144.44
530.09	2094.65
530.295	2123.71
530.501	2103.56
530.706	2105.89
530.912	2043.5
531.117	2131.85
531.323	2128.17
531.528	2152.19
531.733	2151.42
531.939	2144.64
532.144	2160.72
532.35	2156.07
532.555	2191.33
532.76	2187.65
532.966	2135.72
533.171	2108.02
533.376	2108.79
533.581	2075.47
533.787	2151.42
533.992	2176.8
534.197	2205.86
534.402	2170.79
534.607	2201.21
534.813	2246.16
535.018	2215.74
535.223	2222.52
535.428	2234.15
535.633	2298.47
535.838	2294.02
536.043	2304.48
536.249	2428.48
536.454	2331.99
536.659	2353.5
536.864	2283.36
537.069	2310.29
537.274	2299.44
537.479	2314.55
537.684	2322.11
537.889	2327.73
538.094	2377.71
538.299	2312.03
538.504	2399.41
538.708	2310.29
538.913	2421.31
539.118	2354.66
539.323	2344.97
539.528	2336.06
539.733	2365.12
539.938	2367.45
540.142	2374.61
540.347	2361.05
540.552	2343.61
540.757	2306.42
540.962	2319.4
541.166	2245.97
541.371	2238.99
541.576	2287.23
541.781	2228.14
541.985	2361.83
542.19	2370.74
542.395	2441.46
542.599	2426.34
542.804	2427.89
543.008	2459.67
543.213	2375.58
543.418	2320.95
543.622	2445.91
543.827	2362.6
544.031	2453.47
544.236	2468.97
544.44	2470.91
544.645	2526.12
544.849	2406.39
545.054	2526.51
545.258	2572.82
545.463	2504.04
545.667	2486.02
545.872	2551.12
546.076	2460.44
546.281	2525.54
546.485	2474.78
546.689	2494.74
546.894	2578.82
547.098	2540.85
547.302	2502.1
547.507	2498.81
547.711	2516.24
547.915	2535.62
548.119	2440.49
548.324	2458.31
548.528	2518.96
548.732	2496.68
548.936	2561
549.141	2516.44
549.345	2538.52
549.549	2543.17
549.753	2573.01
549.957	2627.45
550.161	2571.85
550.366	2615.05
550.57	2538.14
550.774	2560.81
550.978	2559.26
551.182	2553.64
551.386	2529.61
551.59	2531.55
551.794	2503.84
551.998	2581.54
552.202	2571.85
552.406	2536.2
552.61	2605.17
552.814	2573.4
553.018	2622.8
553.222	2536.01
553.426	2528.26
553.63	2645.47
553.833	2552.28
554.037	2541.82
554.241	2572.82
554.445	2604.01
554.649	2563.91
554.853	2594.32
555.056	2605.56
555.26	2620.67
555.464	2576.69
555.668	2596.07
555.871	2603.62
556.075	2597.81
556.279	2545.11
556.483	2528.26
556.686	2556.54
556.89	2511.4
557.094	2544.53
557.297	2498.42
557.501	2548.21
557.704	2448.63
557.908	2507.53
558.112	2465.68
558.315	2494.54
558.519	2469.74
558.722	2432.35
558.926	2475.75
559.129	2354.66
559.333	2366.86
559.536	2379.85
559.74	2397.48
559.943	2371.9
560.147	2341.29
560.35	2366.28
560.553	2359.89
560.757	2329.67
560.96	2433.13
561.164	2397.86
561.367	2496.48
561.57	2401.16
561.774	2382.17
561.977	2366.28
562.18	2338.19
562.384	2458.7
562.587	2384.11
562.79	2394.76
562.993	2365.7
563.197	2420.15
563.4	2456.38
563.603	2444.17
563.806	2460.06
564.009	2318.43
564.212	2394.38
564.416	2282.97
564.619	2332.38
564.822	2248.29
565.025	2365.9
565.228	2293.05
565.431	2320.75
565.634	2236.09
565.837	2248.68
566.04	2206.83
566.243	2221.17
566.446	2111.31
566.649	2217.68
566.852	2168.47
567.055	2168.27
567.258	2188.04
567.461	2231.05
567.664	2247.71
567.867	2179.51
568.07	2209.54
568.273	2226.01
568.475	2265.92
568.678	2158.01
568.881	2123.71
569.084	2119.06
569.287	2041.56
569.489	2095.04
569.692	2106.86
569.895	2145.02
570.098	2024.51
570.3	2075.08
570.503	2000.1
570.706	1993.71
570.909	1999.91
571.111	1930.74
571.314	1958.25
571.516	1981.11
571.719	1963.1
571.922	1959.22
572.124	1956.7
572.327	1985.38
572.529	1918.92
572.732	1937.33
572.935	1972.98
573.137	2018.7
573.34	1928.8
573.542	1983.05
573.745	1964.65
573.947	1927.25
574.15	1911.56
574.352	1915.24
574.554	1935.78
574.757	1890.44
574.959	1843.55
575.162	1866.22
575.364	1869.9
575.566	1933.45
575.769	1829.8
575.971	1884.82
576.173	1739.9
576.376	1810.04
576.578	1855.18
576.78	1896.83
576.982	1771.87
577.185	1826.12
577.387	1816.04
577.589	1780.2
577.791	1824.95
577.993	1832.32
578.196	1790.66
578.398	1781.17
578.6	1788.34
578.802	1726.72
579.004	1678.09
579.206	1753.85
579.408	1783.1
579.61	1708.51
579.812	1782.33
580.014	1735.44
580.216	1710.26
580.418	1783.3
580.62	1757.72
580.822	1692.82
581.024	1747.65
581.226	1792.02
581.428	1742.22
581.63	1840.07
581.832	1760.82
582.034	1802.67
582.236	1773.03
582.438	1770.32
582.64	1798.6
582.841	1843.17
583.043	1860.8
583.245	1783.88
583.447	1791.24
583.649	1790.85
583.85	1774.39
584.052	1798.41
584.254	1717.42
584.456	1819.53
584.657	1738.35
584.859	1752.69
585.061	1755.79
585.262	1708.32
585.464	1704.06
585.666	1762.76
585.867	1686.81
586.069	1755.79
586.27	1735.64
586.472	1670.34
586.674	1673.06
586.875	1678.67
587.077	1678.67
587.278	1680.81
587.48	1686.42
587.681	1791.24
587.883	1661.04
588.084	1647.29
588.285	1652.71
588.487	1610.09
588.688	1610.48
588.89	1565.91
589.091	1521.16
589.292	1535.11
589.494	1497.33
589.695	1450.05
589.896	1371.78
590.098	1400.65
590.299	1436.88
590.5	1399.29
590.702	1474.66
590.903	1506.63
591.104	1545.38
591.305	1556.42
591.507	1574.05
591.708	1538.98
591.909	1495.2
592.11	1545.38
592.311	1547.12
592.512	1492.87
592.714	1477.56
592.915	1466.33
593.116	1500.62
593.317	1542.47
593.518	1543.83
593.719	1488.41
593.92	1549.45
594.121	1603.11
594.322	1537.24
594.523	1485.7
594.724	1432.81
594.925	1486.67
595.126	1468.07
595.327	1487.06
595.528	1500.23
595.729	1524.26
595.929	1515.35
596.13	1486.48
596.331	1523.87
596.532	1509.15
596.733	1588.19
596.934	1535.5
597.135	1529.3
597.335	1510.89
597.536	1484.35
597.737	1506.63
597.938	1490.55
598.138	1515.93
598.339	1510.7
598.54	1538.6
598.74	1494.81
598.941	1481.05
599.142	1555.45
599.342	1545.38
599.543	1493.45
599.744	1524.65
599.944	1528.13
600.145	1502.56
600.345	1520.77
600.546	1575.6
600.746	1560.68
600.947	1561.84
601.147	1481.44
601.348	1546.73
601.548	1489.77
601.749	1530.26
601.949	1431.26
602.15	1440.75
602.35	1463.23
602.551	1518.25
602.751	1448.89
602.951	1454.9
603.152	1440.75
603.352	1516.7
603.552	1453.93
603.753	1501.98
603.953	1493.26
604.153	1487.25
604.354	1514.76
604.554	1469.43
604.754	1483.57
604.954	1474.46
605.155	1509.15
605.355	1500.23
605.555	1525.03
605.755	1569.98
605.955	1482.8
606.155	1516.51
606.356	1487.06
606.556	1525.23
606.756	1489.77
606.956	1446.18
607.156	1531.23
607.356	1439.98
607.556	1468.07
607.756	1459.16
607.956	1465.16
608.156	1470.01
608.356	1429.13
608.556	1496.75
608.756	1456.83
608.956	1431.45
609.156	1448.5
609.356	1399.1
609.556	1393.87
609.755	1419.25
609.955	1397.74
610.155	1405.68
610.355	1421.96
610.555	1414.98
610.755	1399.48
610.954	1345.04
611.154	1441.72
611.354	1429.9
611.554	1370.23
611.753	1379.53
611.953	1339.62
612.153	1409.56
612.352	1392.9
612.552	1339.04
612.752	1307.84
612.951	1348.14
613.151	1334.39
613.351	1344.46
613.55	1316.75
613.75	1370.04
613.949	1320.05
614.149	1333.8
614.348	1308.23
614.548	1307.45
614.747	1252.24
614.947	1310.17
615.146	1254.56
615.346	1335.74
615.545	1316.17
615.745	1312.88
615.944	1328.96
616.144	1280.72
616.343	1294.09
616.542	1257.08
616.742	1276.07
616.941	1238.09
617.14	1171.44
617.34	1247.01
617.539	1263.09
617.738	1215.62
617.938	1309.97
618.137	1275.1
618.336	1231.31
618.535	1267.74
618.734	1245.46
618.934	1281.11
619.133	1298.93
619.332	1275.87
619.531	1206.71
619.73	1261.34
619.929	1281.88
620.128	1252.43
620.328	1275.29
620.527	1243.52
620.726	1247.78
620.925	1259.02
621.124	1247.97
621.323	1236.93
621.522	1210.39
621.721	1205.35
621.92	1158.27
622.119	1220.07
622.318	1194.31
622.517	1200.31
622.715	1204.38
622.914	1135.99
623.113	1202.83
623.312	1140.83
623.511	1194.69
623.71	1205.93
623.909	1142.96
624.107	1240.61
624.306	1147.42
624.505	1146.45
624.704	1122.43
624.902	1123.2
625.101	1197.99
625.3	1136.76
625.499	1104.41
625.697	1175.13
625.896	1116.42
626.095	1146.45
626.293	1085.61
626.492	1137.93
626.69	1161.37
626.889	1135.02
627.088	1149.74
627.286	1095.88
627.485	1080
627.683	1092.98
627.882	1105.18
628.08	1046.09
628.279	1049.38
628.477	1097.05
628.676	1027.88
628.874	1093.36
629.073	1027.88
629.271	1007.53
629.469	1061.98
629.668	1039.89
629.866	1014.51
630.065	1045.31
630.263	1071.08
630.461	1014.9
630.66	1040.28
630.858	1111
631.056	1096.27
631.254	1091.62
631.453	1047.06
631.651	1091.04
631.849	1069.34
632.047	1090.46
632.245	1056.55
632.444	1100.15
632.642	1114.09
632.84	1082.9
633.038	1065.85
633.236	1047.06
633.434	1053.65
633.632	1042.8
633.83	1041.44
634.028	1091.43
634.227	1075.54
634.425	1168.54
634.623	1056.75
634.821	1091.81
635.019	1059.26
635.216	1053.06
635.414	1099.56
635.612	1073.41
635.81	1060.04
636.008	1118.36
636.206	1071.47
636.404	1083.29
636.602	1022.45
636.8	1049.38
636.997	1115.45
637.195	1086
637.393	1066.82
637.591	1085.61
637.789	1109.83
637.986	1073.8
638.184	1054.81
638.382	1123.39
638.58	1076.12
638.777	1142.96
638.975	1084.26
639.173	1072.83
639.37	1067.4
639.568	1075.73
639.765	1059.65
639.963	1024.97
640.161	1084.06
640.358	1074.57
640.556	1001.92
640.753	1016.25
640.951	983.12
641.148	1027.49
641.346	998.82
641.543	999.98
641.741	998.04
641.938	1003.08
642.136	988.55
642.333	975.57
642.531	1041.63
642.728	1037.95
642.925	1015.87
643.123	985.83
643.32	996.49
643.517	954.45
643.715	999.98
643.912	939.92
644.109	976.34
644.306	943.21
644.504	938.56
644.701	973.05
644.898	988.55
645.095	896.13
645.293	927.9
645.49	984.48
645.687	939.53
645.884	962.2
646.081	860.09
646.278	886.05
646.475	880.44
646.672	883.73
646.87	917.25
647.067	898.65
647.264	879.08
647.461	835.29
647.658	819.41
647.855	910.66
648.052	856.02
648.249	781.82
648.446	821.92
648.642	837.04
648.839	805.26
649.036	810.3
649.233	793.83
649.43	785.11
649.627	756.05
649.824	801
650.021	817.86
650.217	802.55
650.414	809.33
650.611	807.01
650.808	810.11
651.004	831.03
651.201	838.2
651.398	885.28
651.595	785.31
651.791	795.96
651.988	811.46
652.185	775.42
652.381	813.4
652.578	759.73
652.775	785.69
652.971	783.76
653.168	781.62
653.364	822.89
653.561	760.7
653.757	803.52
653.954	774.84
654.15	792.47
654.347	838.59
654.543	799.64
654.74	738.61
654.936	731.06
655.133	756.44
655.329	744.62
655.525	800.22
655.722	772.52
655.918	693.47
656.115	747.33
656.311	672.74
656.507	660.73
656.704	613.65
656.9	666.15
657.096	644.45
657.292	646.39
657.489	704.51
657.685	698.12
657.881	675.06
658.077	685.14
658.273	708.19
658.47	759.73
658.666	695.21
658.862	736.87
659.058	732.22
659.254	766.12
659.45	697.93
659.646	734.35
659.842	710.33
660.038	751.4
660.234	694.24
660.43	751.79
660.626	798.67
660.822	731.64
661.018	729.89
661.214	696.57
661.41	697.73
661.606	733.96
661.802	760.51
661.998	687.85
662.194	671.38
662.39	738.03
662.586	764.38
662.781	735.9
662.977	708.58
663.173	725.24
663.369	724.86
663.564	710.52
663.76	713.04
663.956	672.74
664.152	722.53
664.347	653.17
664.543	690.95
664.739	645.03
664.934	633.02
665.13	621.59
665.326	685.14
665.521	711.1
665.717	625.85
665.912	625.85
666.108	617.52
666.304	627.01
666.499	656.08
666.695	555.13
666.89	638.64
667.086	681.65
667.281	684.94
667.477	682.23
667.672	628.18
667.867	649.3
668.063	656.85
668.258	606.86
668.454	632.25
668.649	712.65
668.844	618.68
669.04	673.71
669.235	608.22
669.43	588.85
669.626	620.81
669.821	597.95
670.016	574.12
670.211	621.01
670.407	606.09
670.602	607.83
670.797	597.37
670.992	633.41
671.187	586.91
671.382	632.25
671.578	595.82
671.773	664.99
671.968	572.18
672.163	624.5
672.358	633.99
672.553	582.65
672.748	596.98
672.943	660.15
673.138	601.44
673.333	641.16
673.528	565.4
673.723	612.87
673.918	616.16
674.113	566.18
674.308	683.78
674.503	612.68
674.698	640
674.892	602.8
675.087	644.65
675.282	616.16
675.477	621.4
675.672	605.51
675.867	578.77
676.061	572.38
676.256	559.01
676.451	602.8
676.646	605.12
676.84	579.93
677.035	533.05
677.23	566.18
677.424	603.76
677.619	629.92
677.814	677
678.008	625.46
678.203	544.09
678.397	571.41
678.592	607.06
678.787	647.36
678.981	583.23
679.176	618.3
679.37	599.11
679.565	551.45
679.759	589.62
679.954	587.68
680.148	633.6
680.342	635.54
680.537	603.96
680.731	592.33
680.926	604.15
681.12	629.15
681.314	563.66
681.509	602.6
681.703	597.95
681.897	633.41
682.092	595.43
682.286	596.6
682.48	662.66
682.674	620.43
682.869	606.48
683.063	606.09
683.257	651.81
683.451	582.26
683.645	613.45
683.839	607.06
684.034	607.83
684.228	663.44
684.422	572.57
684.616	599.5
684.81	634.96
685.004	615
685.198	624.11
685.392	633.02
685.586	613.26
685.78	636.51
685.974	616.94
686.168	649.68
686.362	690.56
686.556	592.53
686.75	590.2
686.944	561.14
687.138	549.52
687.331	485.39
687.525	487.71
687.719	458.84
687.913	496.62
688.107	534.02
688.301	527.62
688.494	538.08
688.688	522.2
688.882	499.14
689.076	482.09
689.269	542.93
689.463	599.11
689.657	525.68
689.85	559.59
690.044	574.12
690.238	592.91
690.431	589.62
690.625	583.23
690.818	621.78
691.012	635.54
691.205	678.36
691.399	653.56
691.593	681.26
691.786	756.05
691.98	705.87
692.173	766.71
692.366	745.59
692.56	800.61
692.753	835.29
692.947	747.53
693.14	830.84
693.333	844.01
693.527	789.37
693.72	866.29
693.914	840.91
694.107	842.66
694.3	854.47
694.493	839.36
694.687	899.42
694.88	897.49
695.073	962.58
695.266	945.53
695.46	968.4
695.653	975.18
695.846	1016.64
696.039	969.17
696.232	986.42
696.425	1043.96
696.618	1110.8
696.812	1116.81
697.005	1176.68
697.198	1244.1
697.391	1180.16
697.584	1224.14
697.777	1270.06
697.97	1235.38
698.163	1302.61
698.356	1289.24
698.549	1340.78
698.742	1350.27
698.935	1266.38
699.127	1331.29
699.32	1293.31
699.513	1330.9
699.706	1326.64
699.899	1397.74
700.092	1356.67
700.285	1406.85
700.477	1334
700.67	1423.32
700.863	1408.59
701.056	1510.5
701.248	1450.44
701.441	1524.65
701.634	1515.15
701.826	1582.58
702.019	1461.87
702.212	1549.25
702.404	1500.04
702.597	1492.29
702.79	1549.83
702.982	1602.53
703.175	1640.12
703.367	1670.54
703.56	1638.57
703.752	1757.72
703.945	1730.79
704.137	1799.19
704.33	1787.17
704.522	1798.6
704.715	1830.18
704.907	1857.12
705.1	1889.47
705.292	1915.82
705.484	1880.37
705.677	1926.67
705.869	1929.58
706.061	1958.64
706.254	2006.69
706.446	1940.04
706.638	1991.58
706.831	2052.99
707.023	2030.13
707.215	2099.88
707.407	2079.73
707.599	2099.11
707.792	2164.79
707.984	2157.23
708.176	2166.14
708.368	2186.68
708.56	2186.49
708.752	2193.46
708.944	2169.05
709.136	2241.7
709.329	2230.08
709.521	2349.62
709.713	2303.12
709.905	2340.32
710.097	2360.28
710.289	2313.58
710.481	2357.18
710.672	2361.63
710.864	2410.85
711.056	2455.6
711.248	2442.43
711.44	2467.23
711.632	2434.87
711.824	2478.27
712.016	2554.41
712.207	2526.32
712.399	2513.53
712.591	2551.31
712.783	2589.29
712.975	2606.72
713.166	2536.2
713.358	2598.97
713.55	2592.77
713.741	2667.75
713.933	2669.5
714.125	2669.5
714.316	2624.94
714.508	2689.45
714.7	2705.15
714.891	2659.42
715.083	2746.42
715.274	2672.02
715.466	2719.1
715.657	2707.86
715.849	2631.91
716.04	2659.42
716.232	2626.68
716.423	2629.39
716.615	2507.72
716.806	2496.48
716.998	2444.75
717.189	2381.2
717.381	2291.5
717.572	2216.71
717.763	2260.88
717.955	2187.84
718.146	2194.24
718.337	2135.72
718.528	2073.53
718.72	2033.23
718.911	2021.8
719.102	2027.61
719.293	2064.81
719.485	1989.06
719.676	2022.19
719.867	1950.7
720.058	1971.62
720.249	1977.24
720.44	2032.46
720.632	2060.36
720.823	2113.44
721.014	2241.51
721.205	2323.47
721.396	2374.61
721.587	2500.36
721.778	2538.91
721.969	2602.85
722.16	2638.5
722.351	2682.87
722.542	2825.85
722.733	2798.34
722.924	2741.57
723.115	2805.7
723.305	2732.66
723.496	2726.85
723.687	2607.5
723.878	2616.99
724.069	2592.77
724.26	2606.14
724.45	2534.46
724.641	2470.52
724.832	2561.19
725.023	2490.86
725.213	2534.26
725.404	2470.91
725.595	2503.46
725.785	2496.87
725.976	2537.56
726.167	2525.16
726.357	2530
726.548	2691.97
726.739	2554.41
726.929	2660.97
727.12	2647.41
727.31	2652.64
727.501	2602.46
727.691	2626.68
727.882	2608.27
728.072	2694.3
728.263	2724.33
728.453	2753.97
728.644	2771.99
728.834	2757.46
729.024	2713.48
729.215	2724.91
729.405	2719.48
729.596	2796.4
729.786	2820.23
729.976	2843.1
730.167	2826.63
730.357	2831.66
730.547	2797.37
730.737	2879.52
730.928	2888.43
731.118	2923.89
731.308	2828.95
731.498	2945.01
731.688	2980.07
731.879	3008.94
732.069	3046.92
732.259	3131.2
732.449	3133.52
732.639	3202.11
732.829	3243.76
733.019	3298.4
733.209	3377.84
733.399	3383.65
733.589	3465.22
733.779	3489.24
733.969	3499.32
734.159	3612.08
734.349	3605.88
734.539	3638.23
734.729	3634.17
734.919	3666.13
735.109	3721.93
735.299	3649.08
735.488	3682.02
735.678	3712.44
735.868	3653.54
736.058	3664.58
736.248	3688.8
736.437	3629.52
736.627	3628.55
736.817	3754.48
737.007	3723.48
737.196	3761.84
737.386	3755.64
737.576	3722.51
737.765	3802.92
737.955	3793.62
738.144	3917.23
738.334	3854.65
738.524	3784.13
738.713	3860.66
738.903	3769.4
739.092	3875.38
739.282	3842.64
739.471	3889.33
739.661	3852.71
739.85	3969.54
740.04	3950.55
740.229	3975.94
740.419	3989.11
740.608	4022.43
740.797	4005.77
740.987	4055.57
741.176	4058.67
741.365	4044.13
741.555	3932.92
741.744	4054.4
741.933	4017.4
742.123	4029.02
742.312	4083.47
742.501	4126.48
742.69	4104.78
742.88	4049.17
743.069	4185.57
743.258	4117.95
743.447	4169.49
743.636	4150.11
743.825	4113.3
744.014	4126.09
744.204	4189.06
744.393	4137.13
744.582	4224.13
744.771	4197.39
744.96	4162.71
745.149	4238.08
745.338	4205.91
745.527	4225.48
745.716	4212.5
745.905	4172.01
746.094	4257.64
746.283	4207.66
746.471	4199.91
746.66	4262.49
746.849	4262.87
747.038	4243.11
747.227	4203.98
747.416	4256.48
747.604	4213.66
747.793	4197.78
747.982	4215.02
748.171	4205.33
748.359	4270.24
748.548	4191.19
748.737	4241.37
748.926	4212.89
749.114	4142.17
749.303	4200.68
749.491	4229.74
749.68	4095.67
749.869	4203.39
750.057	4152.44
750.246	4166.2
750.434	4167.55
750.623	4172.4
750.811	4167.94
751	4214.05
751.188	4171.43
751.377	4091.02
751.565	4116.01
751.754	4129.77
751.942	4120.08
752.131	4192.93
752.319	4099.35
752.507	4123.96
752.696	4136.94
752.884	4120.08
753.072	4072.03
753.261	4141.59
753.449	4134.03
753.637	4086.56
753.825	4226.26
754.014	4107.3
754.202	4125.31
754.39	4149.15
754.578	4170.65
754.766	4059.44
754.955	4045.88
755.143	4140.23
755.331	4066.8
755.519	4091.99
755.707	4074.75
755.895	4016.82
756.083	4054.98
756.271	4039.29
756.459	4039.68
756.647	4053.05
756.835	4035.42
757.023	4008.68
757.211	3984.85
757.399	3990.66
757.587	3985.62
757.775	3914.13
757.963	3967.6
758.151	3926.34
758.339	3891.07
758.526	3922.07
758.714	3920.33
758.902	3779.09
759.09	3699.46
759.278	3467.35
759.465	3132.36
759.653	2732.08
759.841	2480.59
760.028	2116.35
760.216	1874.75
760.404	1710.45
760.591	1454.9
760.779	1195.28
760.967	1003.47
761.154	863.58
761.342	859.7
761.529	838.97
761.717	924.61
761.905	907.17
762.092	967.23
762.28	908.53
762.467	904.07
762.655	796.74
762.842	848.27
763.029	853.5
763.217	853.31
763.404	836.07
763.592	896.13
763.779	839.36
763.966	876.95
764.154	918.99
764.341	983.12
764.528	976.92
764.716	1072.44
764.903	1118.36
765.09	1208.26
765.277	1280.14
765.465	1442.11
765.652	1502.36
765.839	1603.89
766.026	1753.85
766.213	1849.75
766.4	1959.61
766.588	2117.9
766.775	2217.87
766.962	2311.84
767.149	2407.55
767.336	2595.29
767.523	2548.21
767.71	2745.64
767.897	2847.55
768.084	2950.82
768.271	2983.95
768.458	3099.42
768.645	3151.35
768.832	3154.45
769.019	3157.16
769.206	3244.35
769.392	3298.6
769.579	3365.83
769.766	3331.92
769.953	3358.85
770.14	3399.92
770.327	3390.24
770.513	3438.09
770.7	3520.44
770.887	3416.39
771.073	3471.03
771.26	3475.87
771.447	3457.08
771.634	3447.39
771.82	3548.72
772.007	3435.77
772.193	3500.48
772.38	3593.48
772.567	3535.74
772.753	3457.27
772.94	3523.34
773.126	3518.69
773.313	3535.74
773.499	3553.18
773.686	3624.67
773.872	3462.12
774.059	3499.51
774.245	3482.65
774.432	3507.65
774.618	3459.6
774.804	3496.99
774.991	3421.62
775.177	3508.23
775.363	3447.39
775.55	3447.01
775.736	3420.27
775.922	3464.44
776.109	3457.47
776.295	3478.39
776.481	3501.84
776.667	3466.38
776.853	3459.6
777.04	3407.09
777.226	3427.63
777.412	3514.62
777.598	3400.51
777.784	3373.58
777.97	3371.44
778.156	3432.86
778.342	3380.94
778.528	3343.35
778.715	3297.05
778.901	3373.38
779.087	3361.37
779.272	3318.94
779.458	3311.77
779.644	3307.7
779.83	3290.85
780.016	3400.51
780.202	3299.76
780.388	3310.61
780.574	3209.67
780.76	3267.21
780.946	3348.39
781.131	3301.11
781.317	3254.03
781.503	3243.96
781.689	3249.38
781.874	3385.2
782.06	3214.7
782.246	3264.3
782.432	3233.88
782.617	3247.25
782.803	3284.84
782.989	3196.88
783.174	3217.03
783.36	3170.14
783.545	3164.13
783.731	3203.08
783.916	3100
784.102	3201.72
784.288	3124.03
784.473	3142.05
784.659	3074.04
784.844	3194.36
785.029	3122.87
785.215	3114.15
785.4	3088.19
785.586	3148.83
785.771	3083.34
785.956	3127.13
786.142	3074.82
786.327	3056.99
786.512	3053.5
786.698	3085.86
786.883	2988.99
787.068	3005.07
787.254	3057.19
787.439	2991.7
787.624	2979.11
787.809	2991.7
787.994	2948.3
788.18	3006.42
788.365	2904.13
788.55	2894.24
788.735	2963.61
788.92	2906.64
789.105	2889.21
789.29	2924.08
789.475	2852.59
789.66	2842.51
789.845	2851.62
790.03	2799.31
790.215	2887.08
790.4	2855.69
790.585	2883.2
790.77	2780.71
790.955	2761.33
791.14	2792.91
791.325	2921.95
791.51	2784
791.695	2828.95
791.879	2800.28
792.064	2760.75
792.249	2846.2
792.434	2811.13
792.618	2778.77
792.803	2838.06
792.988	2772.18
793.173	2782.84
793.357	2844.06
793.542	2758.23
793.727	2844.26
793.911	2849.88
794.096	2843.1
794.281	2859.95
794.465	2922.14
794.65	2809.38
794.834	2877.19
795.019	2878.74
795.203	2913.43
795.388	2929.89
795.572	2922.14
795.757	2852.98
795.941	2854.14
796.126	2853.36
796.31	2755.52
796.494	2839.8
796.679	2812.48
796.863	2765.79
797.048	2873.32
797.232	2847.75
797.416	2873.71
797.601	2832.44
797.785	2905.48
797.969	2908.39
798.153	2846.39
798.338	2869.44
798.522	2948.49
798.706	2952.17
798.89	2901.99
799.074	3022.7
799.258	2992.28
799.443	2938.23
799.627	2922.73
799.811	2944.43
799.995	2855.11
800.179	2854.72
800.363	2873.32
800.547	2873.13
800.731	2906.64
800.915	2812.48
801.099	2834.18
801.283	2845.23
801.467	2826.82
801.651	2852.78
801.835	2910.71
802.019	2867.51
802.202	2873.9
802.386	2804.54
802.57	2815.97
802.754	2814.61
802.938	2770.44
803.121	2832.63
803.305	2870.61
803.489	2841.55
803.673	2857.63
803.856	2863.63
804.04	2842.71
804.224	2843.87
804.407	2828.76
804.591	2811.71
804.775	2821.2
804.958	2827.01
805.142	2917.11
805.326	2890.37
805.509	2846.39
805.693	2925.05
805.876	2866.15
806.06	2861.89
806.243	2913.23
806.427	2935.51
806.61	2923.89
806.794	2902.96
806.977	2897.93
807.16	2916.53
807.344	2901.61
807.527	2864.79
807.71	2858.21
807.894	2891.34
808.077	2871.58
808.26	2841.16
808.444	2791.75
808.627	2861.89
808.81	2810.93
808.993	2762.11
809.177	2734.02
809.36	2778.38
809.543	2824.3
809.726	2723.36
809.909	2691.58
810.092	2710.38
810.276	2670.66
810.459	2692.94
810.642	2692.17
810.825	2625.71
811.008	2644.89
811.191	2562.36
811.374	2535.04
811.557	2541.24
811.74	2620.29
811.923	2538.91
812.106	2496.29
812.289	2455.02
812.472	2462.38
812.654	2491.83
812.837	2396.12
813.02	2367.64
813.203	2342.65
813.386	2247.71
813.569	2235.5
813.751	2178.54
813.934	2167.89
814.117	2126.42
814.3	2080.31
814.482	2037.11
814.665	2015.21
814.848	1944.3
815.03	1926.09
815.213	1890.83
815.396	1899.74
815.578	1865.06
815.761	1781.36
815.943	1876.88
816.126	1781.17
816.309	1782.52
816.491	1702.31
816.674	1644.19
816.856	1697.47
817.039	1699.6
817.221	1767.99
817.403	1683.52
817.586	1696.31
817.768	1746.87
817.951	1649.42
818.133	1627.91
818.315	1661.62
818.498	1712
818.68	1780.39
818.862	1756.75
819.045	1820.11
819.227	1763.34
819.409	1758.3
819.591	1752.69
819.774	1744.16
819.956	1717.23
820.138	1819.33
820.32	1790.47
820.502	1878.23
820.684	1918.53
820.866	1952.25
821.048	1986.15
821.231	2027.03
821.413	2035.36
821.595	2019.28
821.777	1989.83
821.959	1973.75
822.141	2065.78
822.323	1890.83
822.505	1838.32
822.686	1770.9
822.868	1666.27
823.05	1571.92
823.232	1551.38
823.414	1454.9
823.596	1550.61
823.778	1552.35
823.96	1573.86
824.141	1613.38
824.323	1619.39
824.505	1672.47
824.687	1766.05
824.868	1850.33
825.05	1920.86
825.232	1938.49
825.413	2006.49
825.595	1958.83
825.777	1891.99
825.958	1934.61
826.14	1935
826.321	1975.5
826.503	1917.76
826.685	1949.34
826.866	2010.37
827.048	2009.59
827.229	1870.87
827.411	1846.46
827.592	1799.38
827.773	1788.72
827.955	1753.65
828.136	1741.64
828.318	1745.13
828.499	1730.6
828.68	1705.61
828.862	1716.46
829.043	1780
829.224	1715.68
829.406	1709.87
829.587	1733.5
829.768	1747.84
829.949	1720.14
830.131	1732.92
830.312	1792.6
830.493	1724.79
830.674	1741.64
830.855	1702.12
831.036	1757.92
831.218	1834.06
831.399	1827.67
831.58	1775.55
831.761	1765.67
831.942	1752.3
832.123	1741.25
832.304	1708.9
832.485	1729.44
832.666	1705.22
832.847	1781.17
833.028	1736.8
833.209	1745.52
833.389	1738.93
833.57	1677.32
833.751	1724.98
833.932	1758.11
834.113	1737.57
834.294	1731.76
834.475	1773.42
834.655	1801.12
834.836	1783.3
835.017	1802.29
835.198	1729.82
835.378	1786.98
835.559	1804.61
835.74	1832.51
835.92	1753.07
836.101	1770.12
836.281	1834.83
836.462	1793.57
836.643	1836.97
836.823	1872.03
837.004	1827.28
837.184	1911.36
837.365	1829.6
837.545	1873.97
837.726	1817.59
837.906	1880.17
838.087	1836.38
838.267	1840.26
838.448	1801.12
838.628	1823.02
838.808	1819.92
838.989	1875.13
839.169	1796.28
839.349	1828.25
839.53	1871.07
839.71	1876.1
839.89	1832.9
840.07	1904.39
840.251	1814.88
840.431	1883.66
840.611	1873.2
840.791	1807.9
840.971	1835.03
841.151	1843.17
841.332	1809.65
841.512	1853.43
841.692	1750.17
841.872	1830.18
842.052	1809.45
842.232	1836
842.412	1783.49
842.592	1827.47
842.772	1868.55
842.952	1833.87
843.132	1811.39
843.312	1798.02
843.492	1790.66
843.672	1833.87
843.851	1768.77
844.031	1766.44
844.211	1751.72
844.391	1732.73
844.571	1796.86
844.751	1802.87
844.93	1786.4
845.11	1777.1
845.29	1759.66
845.47	1782.14
845.649	1782.72
845.829	1812.94
846.009	1764.31
846.188	1818.17
846.368	1758.11
846.547	1781.75
846.727	1787.37
846.907	1733.12
847.086	1801.12
847.266	1797.83
847.445	1763.15
847.625	1735.44
847.804	1741.84
847.984	1734.09
848.163	1732.34
848.343	1751.33
848.522	1755.4
848.701	1710.64
848.881	1725.56
849.06	1739.32
849.239	1692.62
849.419	1730.79
849.598	1663.56
849.777	1677.12
849.957	1618.81
850.136	1582.19
850.315	1532.98
850.494	1578.12
850.674	1610.09
850.853	1617.45
851.032	1609.89
851.211	1659.88
851.39	1617.45
851.569	1596.14
851.748	1587.23
851.927	1652.13
852.107	1611.44
852.286	1573.66
852.465	1585.48
852.644	1642.06
852.823	1649.61
853.002	1594.98
853.181	1612.03
853.359	1625.59
853.538	1548.48
853.717	1600.98
853.896	1521.16
854.075	1453.73
854.254	1444.43
854.433	1344.07
854.611	1421.18
854.79	1392.12
854.969	1389.8
855.148	1440.37
855.327	1375.85
855.505	1434.94
855.684	1431.07
855.863	1457.42
856.041	1423.7
856.22	1475.82
856.399	1474.27
856.577	1548.28
856.756	1532.01
856.934	1649.61
857.113	1617.45
857.291	1550.61
857.47	1495.2
857.648	1582.19
857.827	1526.78
858.005	1547.31
858.184	1526.2
858.362	1591.68
858.541	1542.86
858.719	1539.37
858.898	1509.53
859.076	1522.51
859.254	1586.64
859.433	1478.34
859.611	1509.15
859.789	1443.85
859.967	1535.11
860.146	1553.9
860.324	1481.83
860.502	1471.36
860.68	1416.92
860.859	1490.35
861.037	1498.49
861.215	1502.56
861.393	1522.13
861.571	1459.93
861.749	1430.29
861.927	1499.65
862.105	1473.3
862.283	1510.11
862.461	1455.87
862.639	1425.83
862.817	1451.02
862.995	1468.65
863.173	1464.2
863.351	1455.87
863.529	1469.81
863.707	1512.83
863.885	1455.09
864.063	1384.95
864.241	1387.86
864.418	1491.51
864.596	1421.38
864.774	1368.49
864.952	1414.98
865.129	1436.3
865.307	1342.14
865.485	1355.5
865.663	1410.92
865.84	1344.07
866.018	1355.12
866.196	1227.44
866.373	1257.66
866.551	1228.02
866.728	1150.52
866.906	1171.64
867.084	1231.31
867.261	1299.32
867.439	1280.52
867.616	1303.58
867.794	1285.95
867.971	1312.3
868.149	1290.79
868.326	1372.36
868.503	1367.71
868.681	1321.21
868.858	1298.93
869.035	1267.54
869.213	1315.79
869.39	1300.87
869.567	1388.05
869.745	1284.4
869.922	1339.42
870.099	1327.6
870.276	1337.1
870.454	1319.27
870.631	1313.27
870.808	1297.96
870.985	1360.15
871.162	1373.52
871.339	1316.56
871.517	1295.83
871.694	1274.13
871.871	1320.05
872.048	1287.89
872.225	1258.05
872.402	1274.32
872.579	1216.01
872.756	1288.08
872.933	1255.14
873.11	1223.95
873.287	1268.51
873.463	1239.06
873.64	1253.79
873.817	1283.04
873.994	1255.72
874.171	1199.15
874.348	1254.56
874.524	1197.99
874.701	1221.62
874.878	1181.13
875.055	1244.29
875.231	1215.81
875.408	1208.45
875.585	1170.67
875.762	1197.21
875.938	1211.36
876.115	1212.13
876.291	1201.47
876.468	1182.68
876.645	1139.67
876.821	1179.58
876.998	1207.09
877.174	1200.12
877.351	1168.34
877.527	1175.51
877.704	1171.06
877.88	1200.7
878.057	1141.41
878.233	1214.46
878.409	1158.46
878.586	1174.74
878.762	1132.69
878.938	1156.72
879.115	1098.4
879.291	1120.68
879.467	1073.21
879.644	1104.99
879.82	1140.44
879.996	1134.83
880.172	1074.38
880.349	1094.53
880.525	1135.99
880.701	1070.7
880.877	1077.48
881.053	1114.68
881.229	1091.43
881.405	1141.22
881.581	1065.85
881.757	1120.29
881.933	1118.94
882.109	1116.23
882.285	1101.11
882.461	1026.33
882.637	1082.51
882.813	1070.31
882.989	1094.91
883.165	1148
883.341	1092.4
883.517	1149.94
883.693	1101.11
883.869	1128.24
884.044	1079.41
884.22	1102.47
884.396	1123.2
884.572	1127.66
884.747	1130.95
884.923	1113.51
885.099	1099.76
885.275	1150.91
885.45	1089.88
885.626	1095.11
885.801	1060.62
885.977	1085.23
886.153	1047.45
886.328	1079.03
886.504	1071.66
886.679	1081.16
886.855	1080.58
887.03	1127.08
887.206	1127.46
887.381	1090.26
887.557	1085.61
887.732	1108.28
887.908	1113.13
888.083	1097.43
888.258	1080.19
888.434	1069.92
888.609	1091.23
888.784	1106.54
888.96	1073.99
889.135	1094.72
889.31	1065.85
889.485	1110.8
889.661	1049.58
889.836	1101.89
890.011	1087.16
890.186	1068.37
890.361	1053.84
890.537	1077.86
890.712	1086.78
890.887	1079.41
891.062	1061.78
891.237	1135.6
891.412	1044.15
891.587	1097.82
891.762	1099.18
891.937	1098.21
892.112	1017.22
892.287	1023.03
892.462	1001.14
892.637	996.49
892.812	1010.25
892.987	979.44
893.161	976.73
893.336	987.97
893.511	983.12
893.686	980.99
893.861	962.39
894.035	981.18
894.21	1003.08
894.385	934.49
894.56	945.92
894.734	892.64
894.909	895.16
895.084	867.45
895.258	855.44
895.433	877.92
895.608	846.92
895.782	777.36
895.957	797.32
896.131	844.01
896.306	761.48
896.48	759.15
896.655	736.48
896.829	665.18
897.004	692.69
897.178	728.54
897.353	678.94
897.527	727.57
897.701	699.67
897.876	679.13
898.05	762.06
898.224	717.49
898.399	757.79
898.573	700.06
898.747	593.69
898.921	625.85
899.096	559.4
899.27	561.53
899.444	565.21
899.618	591.75
899.792	648.13
899.967	631.66
900.141	671
900.315	564.63
900.489	617.33
900.663	627.01
900.837	613.45
901.011	554.94
901.185	651.81
901.359	590.78
901.533	625.85
901.707	615.39
901.881	599.7
902.055	573.73
902.229	598.53
902.403	645.42
902.576	632.05
902.75	620.04
902.924	721.37
903.098	671.77
903.272	699.86
903.446	758.76
903.619	729.7
903.793	802.16
903.967	751.79
904.14	823.09
904.314	776.01
904.488	757.21
904.661	798.87
904.835	756.63
905.009	798.09
905.182	861.06
905.356	781.82
905.529	804.29
905.703	750.82
905.876	746.75
906.05	745.59
906.223	698.89
906.397	616.16
906.57	647.16
906.744	614.42
906.917	615
907.09	606.67
907.264	601.83
907.437	566.95
907.61	527.62
907.784	548.16
907.957	607.06
908.13	529.37
908.304	574.9
908.477	511.15
908.65	551.65
908.823	516.58
908.996	584.78
909.17	512.51
909.343	526.07
909.516	549.9
909.689	503.79
909.862	504.18
910.035	540.02
910.208	491.97
910.381	527.23
910.554	595.82
910.727	513.28
910.9	527.43
911.073	509.99
911.246	592.33
911.419	573.73
911.592	556.49
911.765	544.48
911.938	512.32
912.11	529.17
912.283	520.07
912.456	561.14
912.629	543.7
912.802	515.61
912.974	445.09
913.147	418.15
913.32	419.9
913.493	416.6
913.665	435.2
913.838	459.62
914.01	442.57
914.183	483.25
914.356	457.49
914.528	480.35
914.701	547.97
914.873	519.29
915.046	454.39
915.218	405.37
915.391	382.31
915.563	396.46
915.736	425.52
915.908	453.03
916.081	415.25
916.253	454.77
916.425	452.25
916.598	450.7
916.77	443.73
916.942	415.25
917.115	362.94
917.287	403.04
917.459	427.65
917.632	412.73
917.804	340.07
917.976	397.81
918.148	435.2
918.32	460.39
918.493	483.45
918.665	508.05
918.837	454.39
919.009	529.95
919.181	496.04
919.353	501.08
919.525	500.89
919.697	478.6
919.869	483.25
920.041	541.38
920.213	589.62
920.385	542.15
920.557	527.04
920.729	521.23
920.901	501.08
921.073	483.84
921.244	473.76
921.416	543.32
921.588	508.44
921.76	458.65
921.932	554.36
922.103	501.47
922.275	497.79
922.447	479.57
922.619	420.48
922.79	471.82
922.962	450.12
923.134	484.8
923.305	417.19
923.477	400.52
923.648	417.19
923.82	430.94
923.991	399.17
924.163	382.31
924.335	413.31
924.506	404.21
924.677	442.76
924.849	391.81
925.02	389.87
925.192	453.61
925.363	415.44
925.535	412.92
925.706	388.32
925.877	444.7
926.049	370.69
926.22	410.6
926.391	399.36
926.562	431.91
926.734	395.49
926.905	435.4
927.076	355.57
927.247	392.77
927.419	362.74
927.59	345.31
927.761	356.93
927.932	340.85
928.103	311.59
928.274	280.79
928.445	268
928.616	305.78
928.787	301.33
928.958	305.2
929.129	292.41
929.3	256.96
929.471	204.65
929.642	205.03
929.813	140.9
929.984	257.73
930.155	153.69
930.326	219.18
930.496	159.11
930.667	129.28
930.838	176.55
931.009	145.94
931.18	140.71
931.35	128.7
931.521	127.53
931.692	103.12
931.863	73.48
932.033	104.67
932.204	78.9
932.374	114.94
932.545	57.59
932.716	149.43
932.886	104.67
933.057	40.74
933.227	76.38
933.398	151.17
933.568	67.47
933.739	6.44
933.909	27.56
934.08	99.83
934.25	-12.74
934.421	29.3
934.591	37.83
934.761	11.87
934.932	7.41
935.102	50.04
935.272	43.45
935.443	44.42
935.613	22.52
935.783	38.6
935.953	19.04
936.123	154.46
936.294	4.7
936.464	51.39
936.634	36.86
936.804	11.29
936.974	16.71
937.144	54.88
937.314	44.8
937.484	24.07
937.655	28.53
937.825	80.26
937.995	30.66
938.165	55.07
938.334	7.6
938.504	51.2
938.674	39.57
938.844	54.3
939.014	113.97
939.184	122.11
939.354	140.13
939.524	132.96
939.694	84.91
939.863	62.05
940.033	141.87
940.203	135.28
940.373	116.68
940.542	102.54
940.712	72.12
940.882	130.63
941.051	133.35
941.221	117.27
941.391	146.33
941.56	53.52
941.73	71.15
941.899	156.98
942.069	68.25
942.238	97.89
942.408	59.92
942.577	108.55
942.747	89.37
942.916	54.1
943.086	55.85
943.255	100.99
943.425	66.89
943.594	69.8
943.763	9.93
943.933	32.02
944.102	-10.61
944.271	57.79
944.441	90.53
944.61	41.7
944.779	58.56
944.948	145.36
945.117	34.54
945.287	66.12
945.456	26.98
945.625	56.24
945.794	82
945.963	50.62
946.132	76
946.301	21.94
946.47	84.33
946.639	24.27
946.808	41.32
946.977	40.15
947.146	96.34
947.315	67.67
947.484	79.29
947.653	64.57
947.822	43.84
947.991	45.77
948.16	111.07
948.329	117.27
948.498	89.37
948.666	65.15
948.835	89.95
949.004	28.72
949.173	45
949.341	71.15
949.51	69.6
949.679	81.23
949.847	83.55
950.016	137.03
950.185	91.69
950.353	14.77
950.522	72.32
950.69	102.15
950.859	38.6
951.028	106.8
951.196	80.45
951.365	28.92
951.533	44.22
951.701	105.83
951.87	101.38
952.038	36.86
952.207	83.75
952.375	125.98
952.543	50.42
952.712	61.66
952.88	23.1
953.048	120.17
953.217	69.02
953.385	89.56
953.553	104.87
953.721	55.27
953.89	67.28
954.058	24.46
954.226	24.27
954.394	71.15
954.562	-0.34
954.73	76.97
954.898	64.18
955.067	95.18
955.235	55.46
955.403	58.95
955.571	114.55
955.739	90.53
955.907	31.24
956.075	48.87
956.243	40.15
956.41	90.53
956.578	43.45
956.746	19.62
956.914	61.08
957.082	55.46
957.25	81.81
957.418	40.74
957.585	47.71
957.753	126.37
957.921	32.4
958.089	53.72
958.256	71.54
958.424	80.84
958.592	38.6
958.759	32.6
958.927	72.9
959.095	30.66
959.262	63.79
959.43	61.66
959.597	53.91
959.765	65.54
959.932	73.09
960.1	73.48
960.267	59.92
960.435	92.47
960.602	82
960.77	72.7
960.937	21.36
961.104	84.13
961.272	34.73
961.439	57.59
961.606	72.12
961.774	103.9
961.941	47.71
962.108	78.9
962.275	60.69
962.443	105.83
962.61	98.86
962.777	132.96
962.944	63.21
963.111	87.04
963.278	76.19
963.446	84.52
963.613	94.98
963.78	108.93
963.947	99.63
964.114	76.58
964.281	145.94
964.448	82
964.615	74.06
964.782	85.68
964.949	116.88
965.116	93.82
965.282	141.68
965.449	94.98
965.616	48.1
965.783	91.88
965.95	65.15
966.117	46.35
966.283	75.61
966.45	98.47
966.617	101.77
966.784	138
966.95	112.42
967.117	109.52
967.284	48.1
967.45	72.9
967.617	147.49
967.784	116.68
967.95	147.68
968.117	87.62
968.283	133.73
968.45	188.76
968.616	110.29
968.783	128.89
968.949	108.93
969.116	158.92
969.282	111.84
969.449	128.7
969.615	116.1
969.781	61.66
969.948	105.64
970.114	103.32
970.28	154.85
970.447	106.03
970.613	148.65
970.779	100.99
970.945	131.99
971.112	106.8
971.278	108.35
971.444	100.22
971.61	142.45
971.776	107.38
971.942	130.44
972.108	147.88
972.275	94.6
972.441	117.07
972.607	168.8
972.773	77.16
972.939	137.42
973.105	110.29
973.271	100.02
973.437	74.45
973.602	55.07
973.768	114.55
973.934	86.85
974.1	102.93
974.266	29.69
974.432	104.09
974.598	86.65
974.763	114.55
974.929	74.25
975.095	166.09
975.261	78.13
975.426	72.9
975.592	95.18
975.758	169.58
975.923	59.53
976.089	80.26
976.255	108.74
976.42	84.72
976.586	91.88
976.751	97.89
976.917	167.25
977.082	111.26
977.248	31.44
977.413	21.36
977.579	88.59
977.744	113.2
977.91	77.74
978.075	76.38
978.24	102.54
978.406	99.05
978.571	67.67
978.736	62.24
978.902	112.62
979.067	67.86
979.232	45.58
979.397	94.79
979.563	132.57
979.728	63.21
979.893	69.99
980.058	87.43
980.223	120.37
980.388	84.33
980.554	66.12
980.719	91.69
980.884	97.7
981.049	142.65
981.214	72.51
981.379	122.3
981.544	91.88
981.709	92.27
981.874	105.45
982.039	95.57
982.204	125.98
982.368	85.88
982.533	66.5
982.698	115.91
982.863	136.64
983.028	86.65
983.193	102.54
983.357	124.05
983.522	92.08
983.687	75.61
983.852	82.97
984.016	97.12
984.181	127.34
984.346	89.75
984.51	128.31
984.675	96.92
984.839	116.68
985.004	99.63
985.168	102.54
985.333	90.92
985.498	108.55
985.662	108.55
985.827	105.64
985.991	77.93
986.155	78.13
986.32	105.64
986.484	125.79
986.649	100.6
986.813	39.57
986.977	97.31
987.142	115.33
987.306	63.6
987.47	71.93
987.634	93.24
987.799	86.85
987.963	83.36
988.127	97.31
988.291	156.98
988.455	102.35
988.62	79.29
988.784	117.46
988.948	110.48
989.112	77.35
989.276	62.82
989.44	90.53
989.604	59.14
989.768	70.18
989.932	153.69
990.096	66.7
990.26	59.92
990.424	57.4
990.588	73.28
990.752	155.63
990.915	92.47
991.079	79.87
991.243	56.43
991.407	123.08
991.571	74.45
991.734	83.36
991.898	101.77
992.062	164.15
992.226	77.93
992.389	39.77
992.553	23.88
992.717	59.53
992.88	56.04
993.044	88.4
993.207	83.94
993.371	111.84
993.535	77.35
993.698	62.05
993.862	130.25
994.025	124.82
994.189	72.32
994.352	68.83
994.515	85.3
994.679	120.75
994.842	73.48
995.006	114.17
995.169	55.27
995.332	43.45
995.496	96.73
995.659	35.7
995.822	71.15
995.985	83.55
996.149	107.97
996.312	63.99
996.475	135.87
996.638	77.55
996.801	116.1
996.964	111.07
997.128	68.25
997.291	77.55
997.454	89.17
997.617	27.95
997.78	91.88
997.943	45.39
998.106	100.99
998.269	58.37
998.432	50.62
998.595	73.28
998.758	39.38
998.92	26.79
999.083	45.58
999.246	72.51
999.409	38.8
999.572	23.88
999.735	53.91
999.897	96.92
1000.06	40.15
1000.223	48.1
1000.386	105.45
1000.548	54.88
1000.711	72.7
1000.874	79.87
1001.036	18.65
1001.199	81.23
1001.361	61.08
1001.524	72.7
1001.687	102.73
1001.849	3.54
1002.012	66.31
1002.174	65.92
1002.337	106.42
1002.499	39.57
1002.661	97.7
1002.824	42.29
1002.986	35.5
1003.149	79.29
1003.311	42.87
1003.473	90.53
1003.636	64.18
1003.798	61.85
1003.96	67.67
1004.123	22.33
1004.285	50.42
1004.447	30.08
1004.609	31.82
1004.771	102.15
1004.933	0.82
1005.096	37.64
1005.258	13.22
1005.42	24.07
1005.582	72.12
1005.744	33.18
1005.906	0.82
1006.068	32.02
1006.23	28.53
1006.392	7.41
1006.554	30.66
1006.716	86.07
1006.878	67.08
1007.04	7.6
1007.202	16.9
1007.363	70.38
1007.525	59.53
1007.687	81.62
1007.849	81.81
1008.011	1.02
1008.172	27.17
1008.334	33.76
1008.496	63.6
1008.658	17.68
1008.819	7.41
1008.981	-5.18
1009.143	20.39
1009.304	25.62
1009.466	54.1
1009.627	73.28
1009.789	126.18
1009.95	32.79
1010.112	29.11
1010.273	39.57
1010.435	37.44
1010.596	19.81
1010.758	32.6
1010.919	47.71
1011.081	-16.81
1011.242	20.39
1011.403	51.59
1011.565	26.2
1011.726	62.05
1011.887	28.14
1012.049	25.24
1012.21	36.47
1012.371	80.45
1012.532	-32.11
1012.693	52.94
1012.855	8.38
1013.016	30.85
1013.177	69.41
1013.338	52.36
1013.499	89.75
1013.66	49.07
1013.821	89.95
1013.982	30.08
1014.143	55.27
1014.304	9.93
1014.465	49.26
1014.626	69.41
1014.787	51.2
1014.948	110.29
1015.109	-9.06
1015.27	51.2
1015.431	7.02
1015.592	-4.6
1015.752	64.95
1015.913	22.33
1016.074	53.33
1016.235	31.05
1016.395	45.97
1016.556	11.29
1016.717	37.64
1016.877	91.5
1017.038	16.13
1017.199	37.64
1017.359	43.64
1017.52	45.58
1017.681	14.97
1017.841	33.76
1018.002	32.21
1018.162	26.79
1018.323	77.55
1018.483	18.65
1018.644	15.16
1018.804	-12.16
1018.964	0.44
1019.125	2.37
1019.285	21.36
1019.446	-5.38
1019.606	5.86
1019.766	-17
1019.926	30.47
1020.087	29.5
1020.247	-8.28
1020.407	39.96
1020.567	93.05
1020.728	10.32
1020.888	4.31
1021.048	15.35
1021.208	-10.8
1021.368	16.32
1021.528	45
1021.688	53.14
1021.848	26.59
1022.008	18.84
1022.168	16.13
1022.328	20.97
1022.488	48.68
1022.648	12.64
1022.808	50.42
1022.968	27.37
1023.128	25.43
1023.288	13.42
1023.448	29.11
1023.608	62.24
1023.767	32.99
1023.927	19.42
1024.087	-1.7
1024.247	-1.7
1024.406	22.72
1024.566	-27.08
1024.726	-19.33
1024.885	3.34
1025.045	36.86
1025.205	11.48
1025.364	1.6
1025.524	22.52
1025.683	31.44
1025.843	24.85
1026.003	20.78
1026.162	54.1
1026.321	43.25
1026.481	28.53
1026.64	12.25
1026.8	23.3
1026.959	2.37
1027.119	11.09
1027.278	12.84
1027.437	-4.02
1027.597	21.94
1027.756	42.67
1027.915	46.94
1028.074	60.11
1028.234	-10.03
1028.393	47.9
1028.552	9.93
1028.711	-49.94
1028.87	39.57
1029.03	-24.56
1029.189	11.29
1029.348	-35.41
1029.507	-18.16
1029.666	8.57
1029.825	-12.35
1029.984	4.89
1030.143	34.34
1030.302	-10.8
1030.461	-42.96
1030.62	-4.41
1030.779	30.85
1030.938	-6.93
1031.097	-0.53
1031.255	40.54
1031.414	65.15
1031.573	39.96
1031.732	-14.1
1031.891	0.82
1032.049	49.26
1032.208	22.72
1032.367	-22.04
1032.525	-31.14
1032.684	0.63
1032.843	34.15
1033.001	-39.09
1033.16	137.8
1033.319	33.37
1033.477	29.11
1033.636	0.05
1033.794	-14.48
1033.953	14.39
1034.111	33.57
1034.27	-18.94
1034.428	37.83
1034.587	-16.81
1034.745	-0.15
1034.903	13.03
1035.062	51.97
1035.22	-41.99
1035.378	25.43
1035.537	-26.88
1035.695	36.28
1035.853	28.53
1036.011	43.84
1036.17	3.34
1036.328	-59.82
1036.486	10.9
1036.644	32.02
1036.802	-74.54
1036.96	-0.53
1037.119	-4.99
1037.277	-39.48
1037.435	-21.46
1037.593	-27.46
1037.751	30.66
1037.909	49.65
1038.067	49.65
