Data from gum_young_FLMT105791__145__17-41-13-039.txt Node

Date: Mon Mar 20 17:41:13 GMT 2023
User: antho
Spectrometer: FLMT10579
Trigger mode: 0
Integration Time (sec): 1.000000E-1
Scans to average: 10
Electric dark correction enabled: true
Nonlinearity correction enabled: false
Boxcar width: 0
XAxis mode: Wavelengths
Number of Pixels in Spectrum: 3648
>>>>>Begin Spectral Data<<<<<
345.248	-142.95
345.464	-142.95
345.681	-142.95
345.898	-157.29
346.114	-156.9
346.331	-37.94
346.548	39.94
346.764	8.56
346.981	5.65
347.197	-38.33
347.414	29.48
347.631	-20.31
347.847	36.46
348.064	-0.74
348.28	27.35
348.497	-30.77
348.713	-19.34
348.93	15.14
349.146	40.91
349.363	-1.13
349.579	38.39
349.796	1.78
350.012	-11.01
350.229	2.74
350.445	11.46
350.661	-20.12
350.878	16.11
351.094	-10.43
351.311	19.41
351.527	17.08
351.743	7.98
351.96	42.27
352.176	38.39
352.392	27.93
352.609	9.33
352.825	-9.66
353.041	-2.68
353.257	14.95
353.474	22.51
353.69	-9.85
353.906	15.53
354.122	-26.7
354.339	64.74
354.555	17.08
354.771	-5.2
354.987	44.21
355.203	55.44
355.42	-16.05
355.636	2.16
355.852	-18.76
356.068	5.07
356.284	-17.21
356.5	77.72
356.716	-11.59
356.932	21.73
357.148	48.28
357.364	1.58
357.58	15.92
357.796	42.66
358.012	45.95
358.228	36.84
358.444	-55.57
358.66	51.76
358.876	8.17
359.092	15.73
359.308	34.91
359.524	12.24
359.74	-10.04
359.956	3.91
360.172	-0.36
360.388	59.51
360.604	-17.6
360.819	71.91
361.035	17.08
361.251	20.96
361.467	22.89
361.683	39.36
361.898	-3.84
362.114	-0.74
362.33	18.24
362.546	35.88
362.762	1.39
362.977	27.93
363.193	-13.34
363.409	39.17
363.624	-18.57
363.84	-2.68
364.056	-3.26
364.271	25.8
364.487	13.4
364.703	7.01
364.918	-3.26
365.134	5.26
365.35	15.73
365.565	121.12
365.781	24.25
365.996	24.64
366.212	68.43
366.427	26.58
366.643	-6.94
366.858	1.58
367.074	-12.56
367.289	53.31
367.505	112.21
367.72	-34.45
367.936	15.14
368.151	45.95
368.367	21.34
368.582	38.59
368.798	-4.04
369.013	62.23
369.228	11.08
369.444	13.79
369.659	61.26
369.874	39.56
370.09	64.94
370.305	-23.22
370.52	-1.13
370.736	65.91
370.951	9.72
371.166	56.22
371.381	69.2
371.597	40.91
371.812	-4.23
372.027	-1.71
372.242	-21.09
372.458	67.26
372.673	-23.8
372.888	39.94
373.103	29.87
373.318	101.36
373.533	31.42
373.749	28.9
373.964	-37.94
374.179	44.21
374.394	-6.36
374.609	52.54
374.824	-3.46
375.039	60.48
375.254	8.94
375.469	80.82
375.684	30.64
375.899	48.86
376.114	15.34
376.329	34.71
376.544	43.43
376.759	50.02
376.974	-9.66
377.189	19.99
377.404	17.86
377.619	29.68
377.834	-26.51
378.049	-11.59
378.264	-3.84
378.478	45.18
378.693	15.73
378.908	34.13
379.123	27.93
379.338	58.35
379.553	38.01
379.767	37.43
379.982	50.21
380.197	45.18
380.412	15.53
380.626	52.73
380.841	100.01
381.056	43.24
381.271	98.07
381.485	-3.65
381.7	3.71
381.915	35.49
382.129	10.11
382.344	54.09
382.559	11.27
382.773	69.39
382.988	-8.69
383.202	37.62
383.417	19.99
383.632	110.47
383.846	11.85
384.061	61.26
384.275	19.02
384.49	41.69
384.704	69.01
384.919	65.71
385.133	26.19
385.348	39.75
385.562	-9.85
385.777	61.06
385.991	49.24
386.206	37.04
386.42	26.77
386.634	76.56
386.849	50.99
387.063	44.98
387.277	16.89
387.492	10.49
387.706	25.61
387.92	-21.28
388.135	63.78
388.349	48.28
388.563	29.68
388.778	52.93
388.992	69.39
389.206	67.84
389.42	123.64
389.635	56.41
389.849	65.52
390.063	54.48
390.277	27.54
390.491	87.61
390.706	61.45
390.92	56.99
391.134	54.09
391.348	80.44
391.562	31.81
391.776	28.32
391.99	48.47
392.205	83.54
392.419	21.34
392.633	33.16
392.847	94.77
393.061	33.94
393.275	91.29
393.489	44.98
393.703	55.64
393.917	91.67
394.131	13.01
394.345	50.6
394.559	68.62
394.773	28.51
394.986	56.8
395.2	42.66
395.414	105.43
395.628	22.51
395.842	80.44
396.056	49.63
396.27	2.36
396.484	47.5
396.697	42.46
396.911	82.76
397.125	87.22
397.339	62.23
397.553	68.23
397.766	80.82
397.98	82.96
398.194	99.42
398.408	57.38
398.621	69.78
398.835	81.6
399.049	95.74
399.262	106.01
399.476	94.58
399.69	87.22
399.903	154.26
400.117	71.91
400.331	106.01
400.544	53.7
400.758	168.59
400.971	117.06
401.185	112.79
401.398	58.74
401.612	118.02
401.826	88.96
402.039	129.07
402.253	69.59
402.466	118.41
402.68	110.27
402.893	99.04
403.106	98.26
403.32	93.03
403.533	131.01
403.747	108.53
403.96	112.6
404.174	107.56
404.387	53.51
404.6	95.16
404.814	116.09
405.027	102.91
405.24	104.46
405.454	77.72
405.667	152.51
405.88	58.74
406.094	114.92
406.307	126.94
406.52	111.05
406.733	81.99
406.947	52.34
407.16	162.39
407.373	145.15
407.586	92.26
407.799	84.12
408.012	133.91
408.226	109.11
408.439	154.45
408.652	80.44
408.865	137.01
409.078	175.95
409.291	141.86
409.504	80.63
409.717	152.9
409.93	126.74
410.143	93.42
410.357	75.98
410.57	59.32
410.783	120.16
410.996	140.69
411.209	109.69
411.421	133.33
411.634	130.42
411.847	104.85
412.06	139.92
412.273	122.87
412.486	132.56
412.699	218.58
412.912	134.3
413.125	140.89
413.338	151.16
413.55	145.34
413.763	134.3
413.976	140.5
414.189	136.24
414.402	150.96
414.615	172.08
414.827	112.02
415.04	179.64
415.253	153.48
415.466	188.74
415.678	186.42
415.891	138.37
416.104	147.67
416.316	152.9
416.529	132.36
416.742	172.08
416.954	204.05
417.167	168.4
417.38	120.16
417.592	173.05
417.805	143.6
418.017	86.83
418.23	170.72
418.442	144.18
418.655	141.27
418.868	153.29
419.08	200.37
419.293	193.59
419.505	177.7
419.718	160.07
419.93	178.28
420.142	174.02
420.355	199.4
420.567	200.75
420.78	166.65
420.992	167.24
421.205	178.09
421.417	135.27
421.629	154.64
421.842	128.29
422.054	113.18
422.266	191.45
422.479	220.9
422.691	172.85
422.903	182.15
423.115	156
423.328	179.25
423.54	187.19
423.752	138.37
423.964	161.62
424.177	164.72
424.389	173.24
424.601	251.32
424.813	163.75
425.025	188.55
425.238	200.75
425.45	170.53
425.662	162.39
425.874	422.21
426.086	162.78
426.298	200.56
426.51	190.49
426.722	176.34
426.934	173.63
427.146	202.69
427.358	155.03
427.57	207.34
427.782	172.27
427.994	191.65
428.206	157.36
428.418	135.85
428.63	188.16
428.842	200.37
429.054	198.43
429.266	221.87
429.478	173.44
429.69	181.57
429.902	126.16
430.114	194.36
430.325	187.77
430.537	131.59
430.749	145.73
430.961	91.29
431.173	182.93
431.384	196.49
431.596	90.12
431.808	158.32
432.02	178.67
432.231	225.17
432.443	231.56
432.655	193.2
432.867	185.25
433.078	216.64
433.29	256.17
433.502	233.69
433.713	247.45
433.925	235.63
434.136	263.72
434.348	202.89
434.56	156.19
434.771	291.43
434.983	161.23
435.194	198.43
435.406	203.27
435.617	243.38
435.829	302.47
436.04	240.67
436.252	260.04
436.463	290.46
436.675	279.03
436.886	250.16
437.098	249.58
437.309	297.43
437.521	236.02
437.732	270.7
437.943	256.36
438.155	255.39
438.366	231.17
438.578	293.37
438.789	273.41
439	250.74
439.211	225.17
439.423	243.19
439.634	269.15
439.845	262.37
440.057	282.32
440.268	299.18
440.479	259.46
440.69	262.56
440.902	245.7
441.113	278.25
441.324	260.43
441.535	290.07
441.746	332.7
441.957	211.8
442.168	264.5
442.38	291.62
442.591	323.2
442.802	265.47
443.013	263.53
443.224	303.63
443.435	293.95
443.646	278.83
443.857	292.2
444.068	286.78
444.279	270.31
444.49	339.48
444.701	306.93
444.912	403.22
445.123	323.78
445.334	319.72
445.545	301.12
445.756	311.38
445.967	275.73
446.178	314.87
446.388	333.08
446.599	333.47
446.81	346.45
447.021	268.57
447.232	335.8
447.443	353.23
447.653	310.22
447.864	347.03
448.075	365.25
448.286	371.06
448.496	326.11
448.707	379.2
448.918	325.53
449.129	413.1
449.339	293.75
449.55	358.08
449.761	324.56
449.971	392.95
450.182	321.85
450.393	364.28
450.603	335.41
450.814	355.17
451.024	388.3
451.235	380.94
451.446	418.72
451.656	415.23
451.867	321.27
452.077	366.41
452.288	434.99
452.498	432.86
452.709	348.39
452.919	379.78
453.13	311.58
453.34	378.23
453.55	293.56
453.761	389.66
453.971	360.21
454.182	401.48
454.392	402.06
454.602	459.99
454.813	394.7
455.023	409.81
455.233	348.97
455.444	379.39
455.654	306.54
455.864	394.31
456.075	386.75
456.285	376.48
456.495	404.19
456.705	386.36
456.916	439.84
457.126	439.84
457.336	420.66
457.546	340.83
457.756	404.19
457.967	447.2
458.177	387.33
458.387	392.76
458.597	379.58
458.807	397.02
459.017	375.51
459.227	379.58
459.437	407.87
459.647	404.58
459.857	427.24
460.068	391.98
460.278	459.02
460.488	444.88
460.698	474.71
460.908	414.85
461.117	403.22
461.327	383.65
461.537	434.61
461.747	383.65
461.957	434.22
462.167	543.11
462.377	458.83
462.587	445.46
462.797	454.95
463.007	442.36
463.216	490.02
463.426	492.93
463.636	471.03
463.846	402.25
464.056	428.21
464.265	501.06
464.475	404.19
464.685	451.46
464.895	489.63
465.104	456.31
465.314	478.01
465.524	442.55
465.733	450.88
465.943	513.85
466.153	523.15
466.362	483.04
466.572	472.97
466.782	429.76
466.991	463.86
467.201	530.12
467.41	424.14
467.62	472.19
467.829	472.39
468.039	489.44
468.249	504.55
468.458	483.82
468.668	523.92
468.877	502.81
469.086	527.02
469.296	519.66
469.505	488.47
469.715	575.27
469.924	534.19
470.134	536.91
470.343	540.59
470.552	486.53
470.762	474.33
470.971	490.21
471.18	492.73
471.39	489.44
471.599	464.44
471.808	557.44
472.018	507.84
472.227	567.91
472.436	597.55
472.645	556.28
472.855	476.46
473.064	579.53
473.273	545.24
473.482	572.17
473.691	597.35
473.901	553.37
474.11	563.84
474.319	634.17
474.528	586.89
474.737	626.22
474.946	589.61
475.155	585.15
475.364	603.55
475.573	589.02
475.783	631.65
475.992	615.76
476.201	625.25
476.41	588.64
476.619	584.18
476.828	602.2
477.037	586.51
477.245	636.3
477.454	624.67
477.663	604.72
477.872	627.19
478.081	676.99
478.29	624.67
478.499	732.4
478.708	667.49
478.917	725.42
479.125	668.65
479.334	672.72
479.543	664.59
479.752	705.08
479.961	695
480.169	716.32
480.378	687.45
480.587	823.65
480.796	741.5
481.004	733.95
481.213	719.8
481.422	740.73
481.63	724.45
481.839	756.62
482.048	802.53
482.256	751.38
482.465	792.65
482.674	792.07
482.882	789.16
483.091	817.84
483.299	788.39
483.508	807.18
483.716	793.04
483.925	815.13
484.134	757.58
484.342	784.32
484.551	795.75
484.759	770.95
484.967	828.69
485.176	863.37
485.384	827.33
485.593	871.89
485.801	821.13
486.01	782
486.218	785.29
486.426	674.27
486.635	723.29
486.843	723.68
487.051	773.47
487.26	756.42
487.468	795.36
487.676	798.66
487.885	796.14
488.093	860.46
488.301	864.14
488.509	867.24
488.717	874.61
488.926	878.29
489.134	852.13
489.342	879.45
489.55	844.19
489.758	872.09
489.967	893.79
490.175	984.85
490.383	920.72
490.591	985.82
490.799	905.41
491.007	970.71
491.215	946.1
491.423	944.74
491.631	914.91
491.839	943
492.047	958.69
492.255	909.87
492.463	882.94
492.671	922.27
492.879	969.16
493.087	948.81
493.295	959.66
493.503	980.2
493.711	1004.81
493.919	1042.2
494.127	988.92
494.334	1019.72
494.542	975.36
494.75	1025.73
494.958	1014.3
495.166	1064.29
495.374	1036.97
495.581	1037.35
495.789	1088.7
495.997	1089.09
496.205	1017.59
496.412	1038.52
496.62	1042
496.828	1078.82
497.035	1067.19
497.243	1110.98
497.451	1086.57
497.658	1097.03
497.866	1083.66
498.074	1123.18
498.281	1059.25
498.489	1145.47
498.696	1110.01
498.904	1059.25
499.112	1082.11
499.319	1134.62
499.527	1102.07
499.734	1173.56
499.942	1084.24
500.149	1110.4
500.357	1131.52
500.564	1084.82
500.771	1097.03
500.979	1091.8
501.186	1079.01
501.394	1112.14
501.601	1112.53
501.808	1127.64
502.016	1151.67
502.223	1116.4
502.43	1141.4
502.638	1184.8
502.845	1118.54
503.052	1199.52
503.26	1164.84
503.467	1264.04
503.674	1184.02
503.881	1237.5
504.089	1243.7
504.296	1255.51
504.503	1159.42
504.71	1229.36
504.917	1166.97
505.125	1247.18
505.332	1214.25
505.539	1258.03
505.746	1343.86
505.953	1280.31
506.16	1298.72
506.367	1363.82
506.574	1365.56
506.781	1390.75
506.988	1325.84
507.195	1344.44
507.402	1330.88
507.609	1383.39
507.816	1337.86
508.023	1340.18
508.23	1331.85
508.437	1312.67
508.644	1355.68
508.851	1436.28
509.058	1474.64
509.265	1410.51
509.472	1430.47
509.679	1546.33
509.885	1481.04
510.092	1470.96
510.299	1478.9
510.506	1452.56
510.713	1507.77
510.92	1480.45
511.126	1510.87
511.333	1584.3
511.54	1571.32
511.746	1609.1
511.953	1626.15
512.16	1624.22
512.367	1551.17
512.573	1591.08
512.78	1608.13
512.987	1627.51
513.193	1600.77
513.4	1537.42
513.606	1588.76
513.813	1643.59
514.02	1643.4
514.226	1682.92
514.433	1658.9
514.639	1647.46
514.846	1637.97
515.052	1624.22
515.259	1667.42
515.465	1706.56
515.672	1701.71
515.878	1773.01
516.085	1738.91
516.291	1782.7
516.497	1750.73
516.704	1709.46
516.91	1650.56
517.117	1610.27
517.323	1557.18
517.529	1624.8
517.736	1603.1
517.942	1640.1
518.148	1648.05
518.354	1724.96
518.561	1698.61
518.767	1707.72
518.973	1797.43
519.179	1835.4
519.386	1793.36
519.592	1790.45
519.798	1773.4
520.004	1931.3
520.21	1911.93
520.417	1945.06
520.623	1982.65
520.829	2011.52
521.035	2019.07
521.241	2020.43
521.447	2054.53
521.653	2155.08
521.859	2072.74
522.065	2114.01
522.271	2194.61
522.477	2176.2
522.683	2228.9
522.889	2172.52
523.095	2154.11
523.301	2152.56
523.507	2180.85
523.713	2195.96
523.919	2177.75
524.125	2248.28
524.331	2244.4
524.537	2322.67
524.742	2320.54
524.948	2372.66
525.154	2353.87
525.36	2461.78
525.566	2348.25
525.772	2459.27
525.977	2383.12
526.183	2411.02
526.389	2407.92
526.595	2325.58
526.8	2299.04
527.006	2252.15
527.212	2217.47
527.417	2189.38
527.623	2243.24
527.829	2289.74
528.034	2336.04
528.24	2374.6
528.446	2385.06
528.651	2490.07
528.857	2471.08
529.062	2607.09
529.268	2564.28
529.473	2542.77
529.679	2604.19
529.884	2672.39
530.09	2649.72
530.295	2594.31
530.501	2630.34
530.706	2636.54
530.912	2652.24
531.117	2681.69
531.323	2673.36
531.528	2718.31
531.733	2769.46
531.939	2676.84
532.144	2736.52
532.35	2735.16
532.555	2730.9
532.76	2700.09
532.966	2688.86
533.171	2691.38
533.376	2607.87
533.581	2631.51
533.787	2674.33
533.992	2722.57
534.197	2711.52
534.402	2769.46
534.607	2768.29
534.813	2820.41
535.018	2728.96
535.223	2754.34
535.428	2807.62
535.633	2858.39
535.838	2886.87
536.043	2894.42
536.249	2975.8
536.454	2862.07
536.659	2902.37
536.864	2887.06
537.069	2883.57
537.274	2897.33
537.479	2885.51
537.684	2902.37
537.889	2821.77
538.094	2995.36
538.299	2897.33
538.504	2937.63
538.708	2935.11
538.913	3031.98
539.118	2958.55
539.323	2983.35
539.528	2880.08
539.733	2922.52
539.938	2907.02
540.142	2905.08
540.347	2893.07
540.552	2851.22
540.757	2852.38
540.962	2871.37
541.166	2843.27
541.371	2845.02
541.576	2921.93
541.781	2800.07
541.985	2957.39
542.19	2877.37
542.395	3012.03
542.599	3012.61
542.804	2970.18
543.008	3006.21
543.213	2994.78
543.418	2957.2
543.622	3002.34
543.827	2937.43
544.031	3065.5
544.236	3054.26
544.44	3059.3
544.645	3159.86
544.849	3020.55
545.054	3072.09
545.258	3160.05
545.463	3149.2
545.667	3035.86
545.872	3069.38
546.076	3059.11
546.281	3062.21
546.485	3060.08
546.689	3095.73
546.894	3123.63
547.098	3099.02
547.302	3069.57
547.507	3079.84
547.711	3111.61
547.915	3162.96
548.119	3085.26
548.324	3043.41
548.528	3127.69
548.732	3103.48
548.936	3116.07
549.141	3164.51
549.345	3101.93
549.549	3160.82
549.753	3194.34
549.957	3232.9
550.161	3215.27
550.366	3158.89
550.57	3157.14
550.774	3187.56
550.978	3164.31
551.182	3196.67
551.386	3135.06
551.59	3162.96
551.794	3131.18
551.998	3203.84
552.202	3159.47
552.406	3156.17
552.61	3216.24
552.814	3189.11
553.018	3223.21
553.222	3134.47
553.426	3178.07
553.63	3230.57
553.833	3135.64
554.037	3124.98
554.241	3200.74
554.445	3232.51
554.649	3186.59
554.853	3165.28
555.056	3271.45
555.26	3260.6
555.464	3174
555.668	3182.52
555.871	3239.68
556.075	3238.13
556.279	3178.26
556.483	3137.38
556.686	3174.77
556.89	3185.04
557.094	3149.59
557.297	3068.41
557.501	3123.24
557.704	3020.94
557.908	3122.66
558.112	3074.03
558.315	3170.12
558.519	3109.29
558.722	3053.49
558.926	3030.63
559.129	2918.64
559.333	2927.36
559.536	2946.73
559.74	2972.11
559.943	2923.1
560.147	2946.35
560.35	2922.13
560.553	2965.33
560.757	2944.99
560.96	3031.79
561.164	2952.55
561.367	3036.63
561.57	2947.51
561.774	3004.08
561.977	2883.57
562.18	2915.54
562.384	3002.34
562.587	2891.13
562.79	2944.22
562.993	2916.9
563.197	2997.69
563.4	2983.35
563.603	2969.79
563.806	3009.9
564.009	2895.97
564.212	2915.93
564.416	2858.97
564.619	2872.92
564.822	2848.89
565.025	2943.05
565.228	2856.45
565.431	2856.25
565.634	2781.47
565.837	2748.34
566.04	2775.07
566.243	2779.53
566.446	2639.64
566.649	2806.85
566.852	2682.85
567.055	2709.97
567.258	2721.41
567.461	2802.2
567.664	2800.84
567.867	2719.86
568.07	2742.52
568.273	2746.01
568.475	2762.67
568.678	2663.28
568.881	2623.95
569.084	2650.3
569.287	2513.71
569.489	2566.41
569.692	2580.55
569.895	2614.07
570.098	2512.16
570.3	2526.5
570.503	2482.52
570.706	2473.8
570.909	2466.63
571.111	2431.17
571.314	2380.6
571.516	2464.3
571.719	2458.49
571.922	2398.62
572.124	2416.64
572.327	2435.05
572.529	2380.02
572.732	2380.99
572.935	2436.02
573.137	2517.39
573.34	2412.57
573.542	2480.77
573.745	2430.79
573.947	2449.97
574.15	2349.02
574.352	2354.45
574.554	2424.97
574.757	2338.37
574.959	2336.43
575.162	2308.72
575.364	2301.17
575.566	2361.23
575.769	2228.71
575.971	2309.5
576.173	2144.62
576.376	2235.29
576.578	2289.35
576.78	2296.52
576.982	2204.88
577.185	2245.56
577.387	2234.13
577.589	2196.54
577.791	2241.88
577.993	2257.38
578.196	2240.33
578.398	2220.18
578.6	2170.78
578.802	2160.31
579.004	2156.63
579.206	2172.13
579.408	2212.04
579.61	2109.16
579.812	2211.46
580.014	2142.1
580.216	2139.58
580.418	2190.34
580.62	2161.09
580.822	2132.41
581.024	2213.01
581.226	2259.12
581.428	2142.68
581.63	2252.93
581.832	2187.05
582.034	2240.72
582.236	2188.02
582.438	2192.48
582.64	2254.86
582.841	2279.66
583.043	2301.17
583.245	2212.43
583.447	2230.45
583.649	2210.11
583.85	2219.79
584.052	2256.61
584.254	2181.82
584.456	2210.49
584.657	2178.72
584.859	2256.99
585.061	2171.16
585.262	2177.17
585.464	2155.86
585.666	2223.48
585.867	2136.48
586.069	2209.53
586.27	2159.54
586.472	2122.34
586.674	2081.85
586.875	2119.24
587.077	2112.07
587.278	2135.71
587.48	2105.48
587.681	2170.58
587.883	2120.01
588.084	2057.63
588.285	2059.57
588.487	2045.03
588.688	2008.8
588.89	1904.57
589.091	1870.47
589.292	1872.02
589.494	1854.77
589.695	1791.03
589.896	1742.98
590.098	1735.23
590.299	1823.97
590.5	1765.26
590.702	1793.74
590.903	1878.8
591.104	1873.76
591.305	1916.97
591.507	1947.39
591.708	1926.65
591.909	1890.04
592.11	1970.05
592.311	1903.99
592.512	1888.49
592.714	1833.85
592.915	1879.19
593.116	1918.13
593.317	1875.12
593.518	1895.85
593.719	1933.63
593.92	1980.32
594.121	1945.25
594.322	1897.98
594.523	1888.1
594.724	1870.08
594.925	1881.51
595.126	1883.64
595.327	1901.27
595.528	1849.54
595.729	1898.76
595.929	1884.81
596.13	1885
596.331	1918.32
596.532	1915.22
596.733	1977.22
596.934	1918.13
597.135	1945.84
597.335	1950.68
597.536	1881.9
597.737	1965.6
597.938	1893.72
598.138	1930.92
598.339	1913.67
598.54	1933.44
598.74	1889.46
598.941	1927.04
599.142	1954.94
599.342	1950.87
599.543	1885
599.744	1916
599.944	1896.24
600.145	1916.19
600.345	1911.35
600.546	1976.45
600.746	1984.97
600.947	1986.14
601.147	1926.27
601.348	1936.15
601.548	1861.94
601.749	1910.19
601.949	1838.89
602.15	1896.04
602.35	1877.83
602.551	1918.32
602.751	1876.28
602.951	1879.57
603.152	1812.34
603.352	1916.77
603.552	1913.29
603.753	1913.29
603.953	1924.14
604.153	1912.12
604.354	1936.34
604.554	1878.02
604.754	1885.97
604.954	1853.42
605.155	1929.56
605.355	1905.73
605.555	1916.39
605.755	1959.59
605.955	1869.5
606.155	1917.94
606.356	1897.21
606.556	1924.72
606.756	1880.35
606.956	1846.44
607.156	1913.09
607.356	1885.39
607.556	1850.12
607.756	1873.76
607.956	1901.86
608.156	1865.62
608.356	1835.98
608.556	1829.78
608.756	1845.09
608.956	1808.86
609.156	1857.87
609.356	1801.49
609.556	1792.97
609.755	1804.21
609.955	1782.7
610.155	1830.75
610.355	1820.29
610.555	1730.97
610.755	1767.39
610.954	1717.6
611.154	1746.47
611.354	1803.82
611.554	1749.57
611.753	1722.06
611.953	1673.81
612.153	1750.93
612.352	1745.11
612.552	1711.98
612.752	1663.35
612.951	1722.06
613.151	1724.77
613.351	1703.85
613.55	1704.81
613.75	1744.34
613.949	1702.3
614.149	1682.34
614.348	1690.48
614.548	1624.99
614.747	1631.58
614.947	1640.1
615.146	1625.38
615.346	1679.43
615.545	1678.66
615.745	1674.4
615.944	1695.13
616.144	1679.05
616.343	1641.65
616.542	1634.29
616.742	1588.18
616.941	1624.6
617.14	1531.41
617.34	1610.27
617.539	1575.2
617.738	1573.45
617.938	1652.11
618.137	1603.29
618.336	1571.71
618.535	1628.67
618.734	1595.73
618.934	1622.67
619.133	1603.48
619.332	1629.45
619.531	1575.2
619.73	1587.02
619.929	1626.15
620.128	1608.72
620.328	1654.44
620.527	1557.76
620.726	1593.6
620.925	1620.92
621.124	1597.87
621.323	1613.56
621.522	1538.19
621.721	1548.07
621.92	1540.52
622.119	1580.04
622.318	1561.63
622.517	1529.28
622.715	1530.44
622.914	1505.25
623.113	1544.39
623.312	1464.96
623.511	1548.46
623.71	1494.21
623.909	1496.73
624.107	1567.64
624.306	1439.38
624.505	1437.06
624.704	1470.19
624.902	1464.18
625.101	1524.05
625.3	1496.73
625.499	1446.36
625.697	1450.23
625.896	1434.73
626.095	1489.37
626.293	1376.99
626.492	1397.72
626.69	1471.74
626.889	1445.77
627.088	1472.12
627.286	1398.31
627.485	1416.32
627.683	1372.54
627.882	1428.14
628.08	1317.32
628.279	1350.06
628.477	1422.72
628.676	1324.29
628.874	1393.85
629.073	1350.64
629.271	1353.16
629.469	1367.31
629.668	1345.99
629.866	1338.05
630.065	1334.37
630.263	1393.46
630.461	1358.2
630.66	1352.39
630.858	1380.09
631.056	1399.47
631.254	1428.92
631.453	1314.41
631.651	1418.84
631.849	1370.21
632.047	1417.87
632.245	1353.55
632.444	1383.19
632.642	1400.44
632.84	1406.25
633.038	1345.8
633.236	1339.99
633.434	1367.89
633.632	1364.59
633.83	1373.51
634.028	1423.3
634.227	1387.26
634.425	1484.91
634.623	1359.94
634.821	1377.96
635.019	1411.48
635.216	1359.17
635.414	1435.89
635.612	1400.63
635.81	1376.22
636.008	1432.6
636.206	1371.57
636.404	1403.92
636.602	1370.41
636.8	1358.78
636.997	1384.16
637.195	1396.56
637.393	1376.22
637.591	1425.24
637.789	1397.34
637.986	1399.08
638.184	1373.12
638.382	1431.44
638.58	1418.07
638.777	1426.98
638.975	1381.64
639.173	1378.35
639.37	1358.78
639.568	1377.19
639.765	1388.23
639.963	1353.16
640.161	1366.34
640.358	1356.07
640.556	1295.81
640.753	1324.29
640.951	1283.22
641.148	1322.94
641.346	1331.46
641.543	1277.02
641.741	1325.26
641.938	1251.64
642.136	1324.88
642.333	1234.2
642.531	1328.56
642.728	1333.4
642.925	1317.51
643.123	1272.56
643.32	1289.81
643.517	1288.65
643.715	1301.63
643.912	1278.18
644.109	1272.76
644.306	1258.81
644.504	1250.48
644.701	1253.19
644.898	1273.73
645.095	1244.86
645.293	1207.85
645.49	1246.99
645.687	1239.05
645.884	1249.31
646.081	1177.24
646.278	1193.9
646.475	1160.38
646.672	1153.6
646.87	1190.22
647.067	1161.74
647.264	1183.83
647.461	1111.17
647.658	1122.02
647.855	1171.23
648.052	1142.75
648.249	1059.83
648.446	1125.32
648.642	1094.9
648.839	1092.19
649.036	1040.65
649.233	1051.11
649.43	1059.25
649.627	1014.49
649.824	1072.62
650.021	1027.28
650.217	1043.94
650.414	1063.7
650.611	1105.75
650.808	1085.21
651.004	1090.83
651.201	1084.44
651.398	1135.58
651.595	1090.83
651.791	1061.38
651.988	1098.39
652.185	1046.07
652.381	1084.05
652.578	1048.01
652.775	1081.34
652.971	1056.54
653.168	1076.3
653.364	1109.62
653.561	1041.62
653.757	1069.9
653.954	1068.94
654.15	1025.54
654.347	1102.26
654.543	1038.13
654.74	1006.36
654.936	1005.39
655.133	1048.01
655.329	1039.68
655.525	1002.87
655.722	1052.85
655.918	991.63
656.115	1000.35
656.311	931.18
656.507	871.7
656.704	820.55
656.9	884.68
657.096	892.82
657.292	876.16
657.489	908.32
657.685	923.82
657.881	901.54
658.077	910.06
658.273	920.33
658.47	1015.85
658.666	933.31
658.862	989.89
659.058	980.97
659.254	1009.07
659.45	956.95
659.646	993.18
659.842	963.54
660.038	1017.4
660.234	967.22
660.43	989.5
660.626	1044.33
660.822	1017.01
661.018	997.83
661.214	968.77
661.41	922.08
661.606	1019.34
661.802	999.38
661.998	985.04
662.194	932.15
662.39	985.62
662.586	998.22
662.781	961.02
662.977	978.46
663.173	971.29
663.369	967.61
663.564	959.27
663.76	979.23
663.956	915.88
664.152	960.05
664.347	880.42
664.543	915.29
664.739	932.34
664.934	886.81
665.13	863.18
665.326	966.64
665.521	936.22
665.717	881.58
665.912	894.95
666.108	842.45
666.304	880.61
666.499	890.49
666.695	819
666.89	880.81
667.086	923.63
667.281	926.34
667.477	963.15
667.672	889.72
667.867	883.33
668.063	889.53
668.258	856.59
668.454	847.1
668.649	967.22
668.844	894.56
669.04	909.68
669.235	872.86
669.43	872.86
669.626	831.01
669.821	851.94
670.016	841.09
670.211	888.94
670.407	815.71
670.602	874.41
670.797	847.29
670.992	906.58
671.187	816.68
671.382	886.43
671.578	799.82
671.773	843.03
671.968	834.11
672.163	861.04
672.358	875.77
672.553	796.91
672.748	836.83
672.943	898.83
673.138	826.17
673.333	865.5
673.528	783.74
673.723	840.51
673.918	832.76
674.113	815.32
674.308	930.79
674.503	826.75
674.698	866.28
674.892	848.65
675.087	890.3
675.282	862.79
675.477	829.66
675.672	854.85
675.867	844.19
676.061	782.77
676.256	787.03
676.451	813
676.646	849.23
676.84	763.4
677.035	780.25
677.23	816.29
677.424	817.06
677.619	813.77
677.814	866.86
678.008	842.83
678.203	781.8
678.397	792.26
678.592	823.46
678.787	892.24
678.981	844.19
679.176	823.85
679.37	819.58
679.565	821.52
679.759	824.23
679.954	820.55
680.148	863.37
680.342	869.96
680.537	842.83
680.731	810.09
680.926	850.39
681.12	838.18
681.314	791.49
681.509	812.61
681.703	832.95
681.897	860.85
682.092	881
682.286	791.1
682.48	881.39
682.674	858.91
682.869	829.27
683.063	849.81
683.257	889.72
683.451	792.46
683.645	854.26
683.839	842.64
684.034	849.03
684.228	861.24
684.422	816.87
684.616	811.06
684.81	889.53
685.004	851.94
685.198	843.8
685.392	880.81
685.586	849.03
685.78	875.96
685.974	874.03
686.168	892.82
686.362	900.76
686.556	810.28
686.75	806.02
686.944	778.12
687.138	752.74
687.331	684.93
687.525	678.34
687.719	613.44
687.913	676.02
688.107	710.5
688.301	676.21
688.494	733.56
688.688	700.82
688.882	667.3
689.076	678.15
689.269	681.83
689.463	765.53
689.657	731.43
689.85	708.57
690.044	767.27
690.238	766.69
690.431	795.56
690.625	800.21
690.818	847.68
691.012	847.48
691.205	897.66
691.399	824.81
691.593	925.18
691.786	950.36
691.98	957.34
692.173	986.59
692.366	985.43
692.56	1024.57
692.753	1054.21
692.947	990.86
693.14	1078.82
693.333	1077.27
693.527	1031.93
693.72	1089.86
693.914	1051.5
694.107	1059.44
694.3	1102.65
694.493	1106.72
694.687	1179.37
694.88	1084.24
695.073	1183.83
695.266	1184.99
695.46	1170.07
695.653	1255.51
695.846	1280.12
696.039	1227.61
696.232	1248.15
696.425	1317.71
696.618	1338.24
696.812	1406.06
697.005	1453.33
697.198	1486.46
697.391	1460.5
697.584	1525.79
697.777	1541.1
697.97	1551.75
698.163	1517.65
698.356	1544.59
698.549	1621.7
698.742	1623.44
698.935	1559.89
699.127	1604.07
699.32	1597.67
699.513	1603.29
699.706	1606.39
699.899	1687.18
700.092	1639.33
700.285	1698.61
700.477	1643.4
700.67	1704.62
700.863	1722.25
701.056	1779.6
701.248	1792.97
701.441	1792.78
701.634	1782.31
701.826	1888.29
702.019	1775.92
702.212	1845.86
702.404	1835.59
702.597	1847.99
702.79	1852.84
702.982	1878.22
703.175	1951.26
703.367	2007.06
703.56	2011.32
703.752	2078.94
703.945	2064.6
704.137	2083.59
704.33	2073.13
704.522	2109.16
704.715	2174.65
704.907	2200.81
705.1	2225.8
705.292	2245.37
705.484	2211.46
705.677	2260.29
705.869	2293.22
706.061	2303.3
706.254	2358.9
706.446	2306.4
706.638	2363.75
706.831	2446.67
707.023	2399.4
707.215	2533.47
707.407	2470.12
707.599	2485.42
707.792	2504.99
707.984	2539.48
708.176	2609.23
708.368	2547.61
708.56	2566.41
708.752	2595.47
708.944	2582.68
709.136	2667.35
709.329	2623.76
709.521	2736.71
709.713	2671.61
709.905	2707.07
710.097	2770.04
710.289	2721.41
710.481	2766.16
710.672	2787.67
710.864	2777.21
711.056	2875.05
711.248	2848.12
711.44	2859.74
711.632	2849.47
711.824	2917.09
712.016	2956.03
712.207	2941.5
712.399	2933.56
712.591	3000.4
712.783	2998.66
712.975	2976.18
713.166	2999.43
713.358	2988.97
713.55	3079.84
713.741	3094.37
713.933	3101.93
714.125	3108.13
714.316	3090.69
714.508	3165.67
714.7	3152.88
714.891	3140.87
715.083	3201.51
715.274	3115.1
715.466	3173.61
715.657	3178.26
715.849	3089.91
716.04	3116.26
716.232	3086.23
716.423	3081.19
716.615	2972.31
716.806	2864.59
716.998	2860.71
717.189	2731.09
717.381	2623.56
717.572	2597.8
717.763	2563.5
717.955	2523.01
718.146	2458.88
718.337	2404.05
718.528	2415.48
718.72	2302.72
718.911	2350.77
719.102	2277.92
719.293	2372.85
719.485	2294.97
719.676	2281.02
719.867	2219.6
720.058	2247.11
720.249	2252.93
720.44	2269.39
720.632	2355.03
720.823	2409.67
721.014	2554.4
721.205	2613.68
721.396	2674.71
721.587	2821.77
721.778	2873.5
721.969	2952.16
722.16	3016.48
722.351	3016.1
722.542	3161.79
722.733	3196.67
722.924	3102.31
723.115	3130.02
723.305	3063.56
723.496	3130.21
723.687	2943.05
723.878	2977.93
724.069	2958.36
724.26	2942.47
724.45	2875.82
724.641	2880.08
724.832	2862.26
725.023	2824.29
725.213	2879.7
725.404	2825.84
725.595	2859.35
725.785	2811.69
725.976	2909.92
726.167	2854.32
726.357	2854.51
726.548	3022.49
726.739	2933.37
726.929	2977.54
727.12	2966.11
727.31	2990.33
727.501	2943.25
727.691	2944.22
727.882	2958.36
728.072	2999.24
728.263	3014.16
728.453	3133.89
728.644	3099.41
728.834	3071.31
729.024	3044.19
729.215	3032.95
729.405	3030.63
729.596	3113.94
729.786	3126.53
729.976	3140.48
730.167	3144.94
730.357	3143.39
730.547	3112.97
730.737	3204.42
730.928	3178.65
731.118	3283.47
731.308	3183.88
731.498	3241.42
731.688	3340.04
731.879	3304.39
732.069	3391.58
732.259	3447.76
732.449	3501.24
732.639	3578.16
732.829	3572.15
733.019	3657.79
733.209	3703.9
733.399	3726.76
733.589	3838.16
733.779	3879.63
733.969	3876.33
734.159	3932.91
734.349	4006.34
734.539	4053.03
734.729	4028.42
734.919	4060.01
735.109	4162.11
735.299	4049.35
735.488	4085.77
735.678	4045.09
735.868	4096.24
736.058	4074.92
736.248	4075.51
736.437	4023.39
736.627	4036.95
736.817	4157.65
737.007	4087.32
737.196	4164.44
737.386	4149.13
737.576	4124.52
737.765	4190.98
737.955	4151.07
738.144	4304.71
738.334	4230.5
738.524	4199.31
738.713	4235.35
738.903	4184.78
739.092	4295.99
739.282	4235.93
739.471	4287.66
739.661	4237.09
739.85	4327.57
740.04	4314.01
740.229	4344.62
740.419	4413.4
740.608	4343.85
740.797	4384.92
740.987	4461.26
741.176	4390.73
741.365	4415.92
741.555	4358.96
741.744	4405.84
741.933	4369.23
742.123	4398.48
742.312	4445.37
742.501	4465.13
742.69	4549.8
742.88	4400.42
743.069	4562.78
743.258	4565.3
743.447	4602.5
743.636	4591.26
743.825	4460.48
744.014	4543.6
744.204	4582.54
744.393	4506.01
744.582	4607.54
744.771	4638.34
744.96	4555.8
745.149	4555.22
745.338	4553.48
745.527	4611.22
745.716	4552.7
745.905	4517.44
746.094	4583.51
746.283	4632.92
746.471	4558.13
746.66	4683.1
746.849	4587.39
747.038	4617.03
747.227	4580.99
747.416	4644.93
747.604	4561.42
747.793	4568.4
747.982	4579.25
748.171	4641.05
748.359	4573.44
748.548	4592.42
748.737	4547.67
748.926	4577.5
749.114	4442.85
749.303	4589.13
749.491	4551.54
749.68	4464.74
749.869	4542.82
750.057	4483.34
750.246	4516.86
750.434	4515.51
750.623	4530.62
750.811	4489.93
751	4540.11
751.188	4502.72
751.377	4475.01
751.565	4464.94
751.754	4468.04
751.942	4412.63
752.131	4511.82
752.319	4452.15
752.507	4415.14
752.696	4441.49
752.884	4460.09
753.072	4404.88
753.261	4469.01
753.449	4445.76
753.637	4312.85
753.825	4469.2
754.014	4393.64
754.202	4448.47
754.39	4413.79
754.578	4495.16
754.766	4384.14
754.955	4382.4
755.143	4455.25
755.331	4412.43
755.519	4355.66
755.707	4350.82
755.895	4325.05
756.083	4339.97
756.271	4309.75
756.459	4299.28
756.647	4320.01
756.835	4298.7
757.023	4337.06
757.211	4308.78
757.399	4265.18
757.587	4298.51
757.775	4264.22
757.963	4281.26
758.151	4236.7
758.339	4202.41
758.526	4219.85
758.714	4212.1
758.902	4058.65
759.09	3966.04
759.278	3701.38
759.465	3424.71
759.653	2997.3
759.841	2697.96
760.028	2318.22
760.216	2004.73
760.404	1842.96
760.591	1534.7
760.779	1304.53
760.967	1094.9
761.154	915.49
761.342	934.28
761.529	926.73
761.717	968.96
761.905	930.79
762.092	1042.2
762.28	998.02
762.467	931.76
762.655	906.96
762.842	900.76
763.029	911.81
763.217	933.51
763.404	916.46
763.592	936.99
763.779	883.13
763.966	931.38
764.154	983.3
764.341	1034.84
764.528	1061.57
764.716	1146.63
764.903	1219.48
765.09	1267.33
765.277	1350.84
765.465	1530.83
765.652	1617.82
765.839	1702.68
766.026	1882.09
766.213	1931.3
766.4	2063.05
766.588	2277.92
766.775	2342.05
766.962	2482.71
767.149	2587.91
767.336	2761.51
767.523	2791.74
767.71	2882.99
767.897	3071.7
768.084	3133.51
768.271	3190.08
768.458	3306.33
768.645	3330.55
768.832	3350.89
769.019	3414.44
769.206	3463.46
769.392	3511.12
769.579	3648.1
769.766	3606.64
769.953	3607.22
770.14	3681.42
770.327	3665.73
770.513	3716.1
770.7	3776.36
770.887	3741.68
771.073	3754.85
771.26	3771.52
771.447	3759.7
771.634	3718.24
771.82	3822.08
772.007	3711.65
772.193	3784.3
772.38	3815.11
772.567	3760.08
772.753	3747.68
772.94	3805.62
773.126	3823.83
773.313	3840.1
773.499	3743.81
773.686	3821.89
773.872	3747.3
774.059	3806.78
774.245	3733.54
774.432	3772.87
774.618	3678.13
774.804	3736.64
774.991	3703.32
775.177	3735.87
775.363	3689.56
775.55	3748.07
775.736	3664.37
775.922	3750.4
776.109	3728.12
776.295	3664.37
776.481	3708.35
776.667	3732.38
776.853	3674.06
777.04	3615.16
777.226	3662.82
777.412	3708.16
777.598	3636.86
777.784	3630.47
777.97	3569.05
778.156	3667.86
778.342	3616.91
778.528	3596.76
778.715	3592.11
778.901	3545.61
779.087	3562.08
779.272	3561.49
779.458	3545.8
779.644	3562.85
779.83	3568.66
780.016	3666.89
780.202	3578.35
780.388	3544.44
780.574	3475.66
780.76	3494.84
780.946	3541.73
781.131	3510.93
781.317	3471.01
781.503	3438.66
781.689	3456.48
781.874	3595.01
782.06	3451.83
782.246	3468.11
782.432	3488.64
782.617	3467.53
782.803	3508.6
782.989	3444.08
783.174	3453.58
783.36	3341.78
783.545	3345.47
783.731	3404.56
783.916	3339.27
784.102	3417.93
784.288	3335.97
784.473	3368.72
784.659	3354.38
784.844	3384.6
785.029	3319.7
785.215	3322.02
785.4	3302.07
785.586	3356.9
785.771	3257.12
785.956	3325.51
786.142	3285.99
786.327	3267.39
786.512	3276.1
786.698	3243.17
786.883	3194.73
787.068	3212.36
787.254	3238.71
787.439	3221.47
787.624	3211.78
787.809	3151.33
787.994	3173.42
788.18	3220.11
788.365	3091.85
788.55	3144.16
788.735	3139.51
788.92	3123.82
789.105	3116.46
789.29	3130.02
789.475	3022.88
789.66	3047.29
789.845	2987.03
790.03	3011.06
790.215	3053.1
790.4	3062.59
790.585	3048.26
790.77	3007.96
790.955	2971.53
791.14	2943.63
791.325	3034.31
791.51	2899.65
791.695	3007.57
791.879	2998.27
792.064	2972.5
792.249	3052.13
792.434	2971.15
792.618	2981.61
792.803	3028.3
792.988	3021.13
793.173	3016.87
793.357	3022.3
793.542	2948.67
793.727	3000.98
793.911	3038.76
794.096	3027.72
794.281	3063.95
794.465	3137.19
794.65	3070.54
794.834	3079.26
795.019	3156.17
795.203	3098.44
795.388	3088.36
795.572	3097.08
795.757	3095.34
795.941	3066.28
796.126	3063.18
796.31	3008.93
796.494	2995.75
796.679	3006.02
796.863	2977.73
797.048	3089.91
797.232	3030.63
797.416	3054.84
797.601	3046.9
797.785	3103.48
797.969	3121.49
798.153	3031.01
798.338	3133.51
798.522	3108.13
798.706	3114.91
798.89	3107.54
799.074	3252.66
799.258	3143.77
799.443	3119.56
799.627	3118.39
799.811	3130.21
799.995	3055.04
800.179	3038.57
800.363	3035.66
800.547	3065.11
800.731	3090.88
800.915	2988.58
801.099	3016.68
801.283	3068.02
801.467	3046.51
801.651	3039.54
801.835	3080.61
802.019	3069.38
802.202	3056.98
802.386	2996.72
802.57	2974.25
802.754	3031.21
802.938	3013.96
803.121	3017.06
803.305	3049.42
803.489	3065.5
803.673	3028.88
803.856	3049.61
804.04	3008.35
804.224	3033.73
804.407	3000.4
804.591	2960.49
804.775	3005.83
804.958	3045.54
805.142	3184.85
805.326	3023.65
805.509	3078.87
805.693	3123.63
805.876	3067.63
806.06	3058.91
806.243	3115.1
806.427	3111.03
806.61	3109.09
806.794	3090.88
806.977	3147.84
807.16	3070.34
807.344	3093.01
807.527	3075.19
807.71	3061.43
807.894	3061.82
808.077	3070.34
808.26	3017.65
808.444	2988
808.627	3097.86
808.81	3017.45
808.993	2955.65
809.177	2984.13
809.36	2950.8
809.543	2951.58
809.726	2865.55
809.909	2873.88
810.092	2874.66
810.276	2915.15
810.459	2885.7
810.642	2846.37
810.825	2827
811.008	2810.53
811.191	2748.14
811.374	2742.14
811.557	2784.76
811.74	2784.18
811.923	2679.36
812.106	2647.98
812.289	2627.24
812.472	2646.43
812.654	2612.52
812.837	2589.46
813.02	2533.66
813.203	2467.79
813.386	2387.39
813.569	2330.62
813.751	2300.97
813.934	2301.56
814.117	2284.12
814.3	2218.44
814.482	2193.44
814.665	2119.63
814.848	2106.65
815.03	2025.08
815.213	2036.51
815.396	1964.24
815.578	1928.79
815.761	1937.5
815.943	1979.74
816.126	1861.56
816.309	1876.28
816.491	1790.26
816.674	1732.71
816.856	1803.24
817.039	1785.61
817.221	1886.55
817.403	1818.35
817.586	1816.99
817.768	1859.42
817.951	1731.16
818.133	1744.92
818.315	1775.14
818.498	1833.66
818.68	1898.17
818.862	1891.59
819.045	1899.72
819.227	1881.12
819.409	1842.37
819.591	1867.17
819.774	1833.85
819.956	1826.68
820.138	1919.87
820.32	1902.24
820.502	1974.7
820.684	2094.25
820.866	2064.8
821.048	2126.99
821.231	2135.9
821.413	2128.93
821.595	2095.6
821.777	2130.48
821.959	2132.8
822.141	2172.33
822.323	2013.26
822.505	1955.14
822.686	1871.44
822.868	1755.96
823.05	1672.26
823.232	1628.28
823.414	1546.14
823.596	1618.6
823.778	1641.07
823.96	1645.14
824.141	1646.88
824.323	1696.68
824.505	1791.03
824.687	1828.62
824.868	1906.7
825.05	2001.44
825.232	2019.46
825.413	2146.56
825.595	2073.13
825.777	1992.92
825.958	2058.79
826.14	2048.33
826.321	2098.12
826.503	2026.82
826.685	2127.96
826.866	2100.64
827.048	2075.45
827.229	2032.63
827.411	1973.74
827.592	1932.66
827.773	1953.78
827.955	1856.32
828.136	1884.42
828.318	1868.72
828.499	1911.35
828.68	1811.57
828.862	1853.03
829.043	1873.96
829.224	1837.72
829.406	1801.11
829.587	1789.48
829.768	1829.2
829.949	1821.84
830.131	1845.67
830.312	1900.89
830.493	1866.4
830.674	1857.1
830.855	1833.46
831.036	1839.66
831.218	1898.37
831.399	1922.59
831.58	1872.21
831.761	1857.49
831.942	1868.92
832.123	1846.64
832.304	1805.95
832.485	1840.63
832.666	1864.27
832.847	1883.45
833.028	1843.92
833.209	1868.34
833.389	1820.87
833.57	1794.52
833.751	1792.58
833.932	1880.74
834.113	1872.41
834.294	1852.26
834.475	1910.77
834.655	1922.2
834.836	1913.09
835.017	1923.55
835.198	1871.82
835.378	1891.39
835.559	1944.48
835.74	1902.82
835.92	1859.81
836.101	1909.22
836.281	1922
836.462	1935.18
836.643	1936.15
836.823	1980.9
837.004	1984.97
837.184	2007.06
837.365	1984.97
837.545	2020.62
837.726	1941.96
837.906	2023.33
838.087	1961.53
838.267	1952.62
838.448	1929.95
838.628	1919.87
838.808	1984.78
838.989	2006.48
839.169	1919.68
839.349	1976.25
839.53	1996.02
839.71	1989.43
839.89	1988.85
840.07	2018.88
840.251	1940.41
840.431	2012.48
840.611	1986.52
840.791	1937.5
840.971	1939.64
841.151	1965.02
841.332	1914.84
841.512	1985.94
841.692	1866.21
841.872	1964.24
842.052	1962.11
842.232	1984.59
842.412	1907.67
842.592	1957.46
842.772	1979.35
842.952	1931.5
843.132	1910.96
843.312	1911.54
843.492	1891.01
843.672	1943.7
843.851	1843.54
844.031	1896.43
844.211	1910.57
844.391	1875.89
844.571	1915.61
844.751	1902.44
844.93	1893.72
845.11	1887.71
845.29	1900.5
845.47	1933.44
845.649	1890.23
845.829	1933.05
846.009	1860.97
846.188	1935.76
846.368	1887.13
846.547	1917.35
846.727	1961.72
846.907	1849.35
847.086	1901.47
847.266	1955.33
847.445	1893.52
847.625	1852.84
847.804	1860.2
847.984	1905.73
848.163	1843.92
848.343	1864.07
848.522	1853.61
848.701	1896.82
848.881	1822.81
849.06	1842.18
849.239	1832.49
849.419	1829.97
849.598	1774.95
849.777	1767.01
849.957	1751.89
850.136	1702.49
850.315	1668.39
850.494	1690.09
850.674	1685.63
850.853	1728.45
851.032	1703.85
851.211	1759.45
851.39	1722.45
851.569	1675.75
851.748	1668.78
851.927	1741.63
852.107	1717.8
852.286	1680.98
852.465	1667.61
852.644	1789.29
852.823	1752.48
853.002	1712.95
853.181	1682.92
853.359	1753.25
853.538	1669.94
853.717	1710.43
853.896	1609.88
854.075	1548.85
854.254	1513.39
854.433	1442.48
854.611	1486.27
854.79	1417.1
854.969	1502.93
855.148	1516.1
855.327	1459.92
855.505	1535.87
855.684	1527.15
855.863	1587.4
856.041	1530.44
856.22	1565.7
856.399	1603.48
856.577	1641.27
856.756	1614.14
856.934	1690.28
857.113	1742.4
857.291	1668.2
857.47	1640.3
857.648	1642.62
857.827	1642.62
858.005	1702.88
858.184	1617.63
858.362	1742.59
858.541	1622.67
858.719	1657.15
858.898	1621.7
859.076	1626.73
859.254	1695.9
859.433	1605.81
859.611	1612.59
859.789	1558.15
859.967	1666.26
860.146	1668.39
860.324	1571.52
860.502	1599.61
860.68	1586.82
860.859	1573.65
861.037	1590.31
861.215	1567.25
861.393	1581.01
861.571	1567.25
861.749	1569.77
861.927	1604.84
862.105	1545.17
862.283	1522.89
862.461	1550.79
862.639	1551.17
862.817	1501.57
862.995	1571.13
863.173	1520.17
863.351	1518.24
863.529	1572.29
863.707	1577.33
863.885	1562.02
864.063	1477.55
864.241	1516.1
864.418	1554.66
864.596	1506.8
864.774	1469.22
864.952	1526.37
865.129	1546.72
865.307	1463.6
865.485	1461.08
865.663	1488.2
865.84	1402.96
866.018	1413.61
866.196	1323.33
866.373	1354.91
866.551	1277.02
866.728	1245.83
866.906	1296.39
867.084	1324.1
867.261	1342.7
867.439	1362.46
867.616	1392.49
867.794	1388.42
867.971	1412.26
868.149	1385.32
868.326	1422.91
868.503	1434.73
868.681	1407.41
868.858	1405.86
869.035	1372.93
869.213	1423.11
869.39	1376.99
869.567	1472.12
869.745	1417.68
869.922	1417.68
870.099	1395.59
870.276	1396.17
870.454	1412.64
870.631	1404.7
870.808	1395.01
870.985	1387.84
871.162	1420.2
871.339	1425.04
871.517	1337.86
871.694	1380.29
871.871	1417.29
872.048	1376.99
872.225	1359.36
872.402	1395.4
872.579	1319.84
872.756	1360.53
872.933	1356.84
873.11	1368.47
873.287	1321.97
873.463	1347.74
873.64	1343.86
873.817	1366.73
873.994	1326.23
874.171	1313.44
874.348	1323.71
874.524	1263.85
874.701	1298.14
874.878	1229.55
875.055	1323.33
875.231	1299.88
875.408	1323.33
875.585	1221.41
875.762	1267.53
875.938	1258.23
876.115	1297.36
876.291	1239.82
876.468	1262.3
876.645	1238.08
876.821	1222.38
876.998	1251.06
877.174	1270.05
877.351	1246.02
877.527	1204.95
877.704	1264.23
877.88	1266.17
878.057	1218.51
878.233	1291.55
878.409	1218.31
878.586	1252.22
878.762	1234.59
878.938	1216.57
879.115	1187.12
879.291	1229.55
879.467	1167.17
879.644	1207.66
879.82	1231.1
879.996	1190.03
880.172	1153.8
880.349	1221.22
880.525	1209.79
880.701	1176.85
880.877	1151.67
881.053	1212.7
881.229	1202.04
881.405	1177.24
881.581	1151.67
881.757	1189.25
881.933	1180.34
882.109	1218.51
882.285	1187.9
882.461	1110.59
882.637	1171.43
882.813	1161.93
882.989	1172.2
883.165	1236.14
883.341	1111.17
883.517	1188.48
883.693	1191.19
883.869	1196.23
884.044	1152.83
884.22	1190.61
884.396	1220.64
884.572	1180.53
884.747	1202.62
884.923	1204.95
885.099	1219.48
885.275	1203.98
885.45	1162.71
885.626	1131.13
885.801	1126.09
885.977	1115.44
886.153	1115.82
886.328	1167.94
886.504	1141.78
886.679	1157.87
886.855	1155.15
887.03	1161.74
887.206	1142.75
887.381	1173.37
887.557	1169.49
887.732	1155.73
887.908	1168.33
888.083	1191.77
888.258	1132.29
888.434	1119.7
888.609	1159.42
888.784	1201.07
888.96	1125.51
889.135	1129
889.31	1123.38
889.485	1166.78
889.661	1148.95
889.836	1179.95
890.011	1181.31
890.186	1167.55
890.361	1106.33
890.537	1144.5
890.712	1150.12
890.887	1149.92
891.062	1136.17
891.237	1224.51
891.412	1119.12
891.587	1135.97
891.762	1153.99
891.937	1196.81
892.112	1082.5
892.287	1144.5
892.462	1094.9
892.637	1049.56
892.812	1057.12
892.987	1042.97
893.161	1046.07
893.336	1040.65
893.511	1021.66
893.686	1052.85
893.861	1039.49
894.035	1041.62
894.21	1059.44
894.385	972.26
894.56	1017.98
894.734	957.34
894.909	968.96
895.084	947.84
895.258	909.29
895.433	936.03
895.608	906.38
895.782	847.68
895.957	856.4
896.131	886.04
896.306	822.3
896.48	783.16
896.655	793.81
896.829	740.53
897.004	751.38
897.178	737.24
897.353	698.68
897.527	773.66
897.701	748.67
897.876	709.73
898.05	813
898.224	787.23
898.399	774.63
898.573	750.8
898.747	645.79
898.921	662.26
899.096	612.66
899.27	576.24
899.444	622.35
899.618	632.42
899.792	661.68
899.967	659.74
900.141	710.5
900.315	622.35
900.489	636.69
900.663	631.65
900.837	613.05
901.011	597.94
901.185	669.24
901.359	619.83
901.533	660.13
901.707	652.38
901.881	669.04
902.055	583.79
902.229	645.79
902.403	659.35
902.576	659.16
902.75	667.69
902.924	763.98
903.098	710.89
903.272	745.57
903.446	793.62
903.619	788.39
903.793	811.64
903.967	810.09
904.14	855.81
904.314	837.99
904.488	848.45
904.661	840.51
904.835	826.17
905.009	856.78
905.182	854.26
905.356	847.68
905.529	819.78
905.703	822.3
905.876	777.73
906.05	792.07
906.223	757.97
906.397	702.75
906.57	674.08
906.744	675.44
906.917	634.55
907.09	677.37
907.264	626.03
907.437	608.01
907.61	596.58
907.784	598.13
907.957	636.69
908.13	575.46
908.304	601.81
908.477	577.21
908.65	575.66
908.823	530.71
908.996	626.42
909.17	553.18
909.343	545.82
909.516	574.88
909.689	540.01
909.862	533.81
910.035	559.96
910.208	522.96
910.381	507.84
910.554	620.41
910.727	534
910.9	549.31
911.073	530.32
911.246	623.32
911.419	634.94
911.592	601.42
911.765	551.44
911.938	553.18
912.11	586.51
912.283	535.74
912.456	597.74
912.629	576.82
912.802	521.21
912.974	483.63
913.147	444.88
913.32	413.49
913.493	421.24
913.665	451.85
913.838	462.51
914.01	466.96
914.183	491.38
914.356	474.33
914.528	510.56
914.701	562.29
914.873	508.23
915.046	477.23
915.218	449.14
915.391	378.81
915.563	409.03
915.736	445.65
915.908	496.22
916.081	490.41
916.253	466.19
916.425	483.63
916.598	509.78
916.77	491.96
916.942	458.63
917.115	409.61
917.287	451.08
917.459	431.7
917.632	397.41
917.804	370.09
917.976	442.16
918.148	463.67
918.32	450.49
918.493	501.06
918.665	531.48
918.837	491.38
919.009	566.16
919.181	523.54
919.353	509.97
919.525	531.67
919.697	509.97
919.869	513.46
920.041	578.17
920.213	632.62
920.385	563.45
920.557	543.49
920.729	576.43
920.901	542.72
921.073	521.41
921.244	536.52
921.416	550.08
921.588	542.14
921.76	500.68
921.932	598.32
922.103	544.27
922.275	517.72
922.447	518.89
922.619	453.98
922.79	493.7
922.962	461.34
923.134	511.14
923.305	464.64
923.477	451.46
923.648	437.9
923.82	473.55
923.991	397.8
924.163	394.11
924.335	427.24
924.506	410
924.677	478.39
924.849	416.98
925.02	451.85
925.192	472.39
925.363	425.31
925.535	445.84
925.706	427.24
925.877	489.24
926.049	429.76
926.22	442.16
926.391	427.44
926.562	453.4
926.734	407.48
926.905	438.87
927.076	398.76
927.247	409.42
927.419	377.06
927.59	345.68
927.761	362.53
927.932	354.98
928.103	348.97
928.274	326.88
928.445	314.1
928.616	307.12
928.787	305.77
928.958	315.65
929.129	282.32
929.3	273.02
929.471	235.44
929.642	229.82
929.813	181.96
929.984	262.56
930.155	168.4
930.326	234.85
930.496	181.19
930.667	135.46
930.838	180.99
931.009	146.51
931.18	131.59
931.35	156.58
931.521	136.43
931.692	86.83
931.863	68.81
932.033	86.83
932.204	118.02
932.374	111.63
932.545	94.39
932.716	138.76
932.886	101.94
933.057	70.75
933.227	56.61
933.398	126.16
933.568	46.92
933.739	10.11
933.909	50.6
934.08	97.87
934.25	5.46
934.421	15.92
934.591	44.59
934.761	40.53
934.932	-1.13
935.102	36.07
935.272	38.78
935.443	42.46
935.613	37.43
935.783	49.63
935.953	-14.5
936.123	181.96
936.294	27.35
936.464	40.91
936.634	52.34
936.804	10.88
936.974	9.33
937.144	30.45
937.314	52.15
937.484	17.08
937.655	22.89
937.825	62.61
937.995	5.07
938.165	76.17
938.334	47.11
938.504	28.51
938.674	49.24
938.844	47.69
939.014	109.5
939.184	107.95
939.354	162.97
939.524	123.26
939.694	89.54
939.863	80.24
940.033	110.66
940.203	152.32
940.373	91.67
940.542	88.96
940.712	99.42
940.882	107.17
941.051	133.91
941.221	81.02
941.391	144.37
941.56	84.89
941.73	67.07
941.899	189.71
942.069	85.28
942.238	112.21
942.408	61.84
942.577	106.01
942.747	87.61
942.916	47.11
943.086	64.94
943.255	132.36
943.425	85.47
943.594	68.04
943.763	13.79
943.933	41.11
944.102	2.55
944.271	76.37
944.441	59.51
944.61	42.66
944.779	68.23
944.948	159.87
945.117	27.16
945.287	27.35
945.456	2.74
945.625	41.11
945.794	74.43
945.963	40.14
946.132	79.86
946.301	61.84
946.47	101.36
946.639	9.33
946.808	55.83
946.977	61.06
947.146	128.29
947.315	36.07
947.484	83.34
947.653	64.55
947.822	54.28
947.991	47.89
948.16	117.64
948.329	119.19
948.498	77.53
948.666	51.57
948.835	84.51
949.004	21.93
949.173	39.36
949.341	59.71
949.51	78.11
949.679	109.11
949.847	96.13
950.016	134.3
950.185	119.77
950.353	46.92
950.522	68.04
950.69	117.44
950.859	62.42
951.028	111.63
951.196	70.36
951.365	52.93
951.533	70.56
951.701	90.9
951.87	96.13
952.038	28.9
952.207	78.89
952.375	104.46
952.543	57.19
952.712	38.59
952.88	45.95
953.048	109.69
953.217	44.59
953.385	69.39
953.553	103.88
953.721	36.46
953.89	71.91
954.058	38.78
954.226	13.59
954.394	65.13
954.562	20.96
954.73	61.06
954.898	62.61
955.067	95.55
955.235	56.22
955.403	107.37
955.571	122.29
955.739	78.5
955.907	32.97
956.075	63.39
956.243	34.13
956.41	70.94
956.578	34.91
956.746	48.28
956.914	64.94
957.082	87.02
957.25	90.32
957.418	43.43
957.585	71.53
957.753	129.46
957.921	41.49
958.089	77.34
958.256	118.22
958.424	81.6
958.592	109.5
958.759	35.88
958.927	88.96
959.095	24.64
959.262	66.68
959.43	75.79
959.597	50.41
959.765	69.78
959.932	46.73
960.1	104.66
960.267	75.01
960.435	67.65
960.602	81.6
960.77	64.55
960.937	49.44
961.104	102.52
961.272	41.88
961.439	55.44
961.606	83.34
961.774	101.56
961.941	78.69
962.108	68.43
962.275	76.37
962.443	91.67
962.61	83.34
962.777	148.06
962.944	95.94
963.111	98.46
963.278	125.77
963.446	110.86
963.613	87.99
963.78	90.32
963.947	115.7
964.114	96.52
964.281	123.84
964.448	104.66
964.615	72.49
964.782	110.08
964.949	116.09
965.116	114.92
965.282	122.29
965.449	90.71
965.616	90.71
965.783	104.46
965.95	96.13
966.117	47.11
966.283	88.57
966.45	100.01
966.617	125.97
966.784	131.39
966.95	138.17
967.117	142.05
967.284	64.36
967.45	95.55
967.617	151.35
967.784	122.09
967.95	146.31
968.117	109.11
968.283	167.43
968.45	196.69
968.616	130.42
968.783	143.21
968.949	124.22
969.116	145.92
969.282	126.55
969.449	114.73
969.615	107.76
969.781	96.71
969.948	119.38
970.114	91.48
970.28	159.49
970.447	125.77
970.613	170.34
970.779	136.62
970.945	132.94
971.112	130.23
971.278	123.64
971.444	108.14
971.61	171.3
971.776	86.83
971.942	137.21
972.108	141.86
972.275	108.53
972.441	138.56
972.607	221.29
972.773	109.31
972.939	151.16
973.105	106.79
973.271	77.72
973.437	72.49
973.602	87.61
973.768	100.78
973.934	97.29
974.1	104.85
974.266	32.78
974.432	109.69
974.598	66.88
974.763	103.69
974.929	73.85
975.095	177.5
975.261	100.78
975.426	48.86
975.592	103.49
975.758	182.54
975.923	67.84
976.089	66.1
976.255	128.68
976.42	113.18
976.586	111.82
976.751	111.44
976.917	202.5
977.082	122.87
977.248	69.59
977.413	25.41
977.579	112.41
977.744	101.75
977.91	56.8
978.075	98.84
978.24	123.64
978.406	89.54
978.571	81.21
978.736	92.45
978.902	95.55
979.067	66.49
979.232	75.21
979.397	107.76
979.563	151.16
979.728	66.88
979.893	93.42
980.058	86.44
980.223	112.79
980.388	121.51
980.554	99.04
980.719	57.96
980.884	115.89
981.049	135.66
981.214	94.19
981.379	120.16
981.544	96.91
981.709	106.21
981.874	87.8
982.039	104.46
982.204	114.92
982.368	87.41
982.533	75.79
982.698	146.89
982.863	127.71
983.028	98.26
983.193	107.17
983.357	67.65
983.522	96.13
983.687	85.28
983.852	76.95
984.016	112.99
984.181	114.54
984.346	112.99
984.51	109.11
984.675	94.39
984.839	128.1
985.004	126.74
985.168	121.32
985.333	130.62
985.498	81.21
985.662	125.39
985.827	99.04
985.991	94.97
986.155	69.01
986.32	123.45
986.484	130.23
986.649	126.74
986.813	52.93
986.977	112.02
987.142	114.92
987.306	77.34
987.47	84.89
987.634	110.66
987.799	126.16
987.963	85.67
988.127	132.17
988.291	150.38
988.455	103.11
988.62	96.71
988.784	108.34
988.948	129.65
989.112	92.45
989.276	116.09
989.44	113.76
989.604	75.4
989.768	88.57
989.932	165.49
990.096	69.01
990.26	58.54
990.424	51.18
990.588	91.48
990.752	147.86
990.915	127.52
991.079	68.62
991.243	68.23
991.407	105.43
991.571	103.11
991.734	114.54
991.898	111.82
992.062	174.4
992.226	88.57
992.389	73.46
992.553	68.81
992.717	66.29
992.88	89.93
993.044	80.24
993.207	84.89
993.371	110.86
993.535	98.26
993.698	94.77
993.862	116.09
994.025	135.66
994.189	111.24
994.352	112.6
994.515	117.06
994.679	114.34
994.842	91.67
995.006	94.97
995.169	58.54
995.332	76.17
995.496	106.79
995.659	38.01
995.822	82.96
995.985	82.18
996.149	138.56
996.312	81.21
996.475	118.8
996.638	52.93
996.801	122.09
996.964	138.37
997.128	61.45
997.291	97.1
997.454	92.45
997.617	37.04
997.78	111.44
997.943	87.61
998.106	105.04
998.269	76.37
998.432	70.56
998.595	77.53
998.758	33.36
998.92	65.13
999.083	6.43
999.246	57.38
999.409	47.11
999.572	10.3
999.735	74.62
999.897	68.43
1000.06	47.89
1000.223	82.96
1000.386	86.25
1000.548	69.59
1000.711	94.58
1000.874	88.96
1001.036	24.64
1001.199	106.59
1001.361	36.46
1001.524	61.45
1001.687	91.67
1001.849	50.6
1002.012	70.56
1002.174	95.36
1002.337	89.54
1002.499	54.67
1002.661	109.89
1002.824	28.71
1002.986	40.91
1003.149	86.44
1003.311	38.98
1003.473	104.27
1003.636	48.08
1003.798	90.9
1003.96	103.11
1004.123	68.23
1004.285	74.82
1004.447	72.88
1004.609	37.23
1004.771	129.46
1004.933	26.96
1005.096	12.82
1005.258	13.01
1005.42	21.15
1005.582	108.72
1005.744	61.45
1005.906	18.44
1006.068	67.07
1006.23	-0.55
1006.392	51.57
1006.554	25.41
1006.716	85.09
1006.878	68.81
1007.04	-11.4
1007.202	44.21
1007.363	41.88
1007.525	48.08
1007.687	74.43
1007.849	69.98
1008.011	-8.88
1008.172	6.23
1008.334	50.41
1008.496	65.33
1008.658	8.56
1008.819	38.98
1008.981	-0.74
1009.143	32.39
1009.304	40.33
1009.466	59.32
1009.627	96.32
1009.789	155.42
1009.95	80.44
1010.112	24.25
1010.273	48.08
1010.435	43.63
1010.596	37.23
1010.758	32
1010.919	37.43
1011.081	1.78
1011.242	64.36
1011.403	68.81
1011.565	43.04
1011.726	55.06
1011.887	-0.16
1012.049	36.26
1012.21	78.69
1012.371	89.74
1012.532	-30
1012.693	29.29
1012.855	21.15
1013.016	47.69
1013.177	78.31
1013.338	50.02
1013.499	100.59
1013.66	63.58
1013.821	39.56
1013.982	51.18
1014.143	40.14
1014.304	25.8
1014.465	52.34
1014.626	65.33
1014.787	18.83
1014.948	120.16
1015.109	-12.17
1015.27	96.13
1015.431	33.74
1015.592	8.75
1015.752	84.89
1015.913	50.79
1016.074	32.58
1016.235	38.59
1016.395	26.77
1016.556	45.95
1016.717	15.34
1016.877	92.45
1017.038	-4.81
1017.199	49.24
1017.359	14.37
1017.52	48.28
1017.681	8.75
1017.841	42.46
1018.002	31.03
1018.162	6.23
1018.323	71.33
1018.483	49.24
1018.644	12.04
1018.804	-2.1
1018.964	15.14
1019.125	32.19
1019.285	36.84
1019.446	7.78
1019.606	6.81
1019.766	-31.16
1019.926	61.64
1020.087	32.78
1020.247	-24.77
1020.407	14.95
1020.567	46.14
1020.728	26.19
1020.888	-20.31
1021.048	-3.46
1021.208	9.14
1021.368	26.58
1021.528	71.53
1021.688	43.63
1021.848	45.56
1022.008	1.19
1022.168	25.22
1022.328	25.41
1022.488	31.81
1022.648	17.86
1022.808	52.15
1022.968	51.96
1023.128	8.75
1023.288	6.43
1023.448	14.76
1023.608	37.62
1023.767	41.69
1023.927	9.91
1024.087	-32.71
1024.247	-13.34
1024.406	6.62
1024.566	-13.14
1024.726	8.94
1024.885	26.77
1025.045	45.18
1025.205	26.77
1025.364	14.37
1025.524	42.46
1025.683	7.2
1025.843	19.02
1026.003	15.14
1026.162	54.28
1026.321	64.74
1026.481	31.42
1026.64	2.55
1026.8	41.49
1026.959	15.92
1027.119	16.11
1027.278	25.61
1027.437	-8.3
1027.597	18.44
1027.756	4.68
1027.915	21.54
1028.074	70.75
1028.234	-2.87
1028.393	43.04
1028.552	43.63
1028.711	-52.67
1028.87	58.54
1029.03	-23.6
1029.189	13.79
1029.348	-44.92
1029.507	6.04
1029.666	5.65
1029.825	8.94
1029.984	-10.82
1030.143	13.01
1030.302	-20.5
1030.461	-27.48
1030.62	25.22
1030.779	27.54
1030.938	3.33
1031.097	-0.36
1031.255	52.34
1031.414	44.98
1031.573	42.66
1031.732	-38.91
1031.891	13.01
1032.049	39.94
1032.208	34.71
1032.367	5.84
1032.525	-18.76
1032.684	9.14
1032.843	-6.56
1033.001	-30
1033.16	122.87
1033.319	27.16
1033.477	25.8
1033.636	-11.21
1033.794	-20.5
1033.953	17.08
1034.111	22.7
1034.27	18.63
1034.428	24.25
1034.587	-39.49
1034.745	5.46
1034.903	1
1035.062	39.17
1035.22	-27.29
1035.378	40.14
1035.537	-3.84
1035.695	36.84
1035.853	-12.17
1036.011	35.49
1036.17	27.93
1036.328	-59.64
1036.486	13.98
1036.644	17.28
1036.802	-54.99
1036.96	-27.87
1037.119	3.52
1037.277	-1.91
1037.435	-28.84
1037.593	9.91
1037.751	-3.46
1037.909	42.46
1038.067	42.46
