Data from gum_young_FLMT105791__23__17-38-22-045.txt Node

Date: Mon Mar 20 17:38:22 GMT 2023
User: antho
Spectrometer: FLMT10579
Trigger mode: 0
Integration Time (sec): 1.000000E-1
Scans to average: 10
Electric dark correction enabled: true
Nonlinearity correction enabled: false
Boxcar width: 0
XAxis mode: Wavelengths
Number of Pixels in Spectrum: 3648
>>>>>Begin Spectral Data<<<<<
345.248	-141.48
345.464	-141.48
345.681	-141.48
345.898	-152.53
346.114	-136.06
346.331	-38.6
346.548	7.7
346.764	-4.89
346.981	-19.23
347.197	-28.53
347.414	-7.41
347.631	12.35
347.847	46.26
348.064	23.98
348.28	41.8
348.497	-19.62
348.713	-13.8
348.93	40.83
349.146	6.73
349.363	-7.22
349.579	33.08
349.796	9.06
350.012	23.78
350.229	29.01
350.445	14.87
350.661	-12.64
350.878	-6.25
351.094	29.21
351.311	24.17
351.527	29.98
351.743	2.66
351.96	-1.02
352.176	46.64
352.392	24.17
352.609	46.06
352.825	16.61
353.041	18.16
353.257	-17.49
353.474	16.03
353.69	31.14
353.906	25.14
354.122	-15.55
354.339	41.41
354.555	-3.15
354.771	9.25
354.987	66.79
355.203	68.15
355.42	7.31
355.636	-2.76
355.852	10.41
356.068	-15.94
356.284	-30.85
356.5	55.94
356.716	28.24
356.932	14.68
357.148	38.12
357.364	23.01
357.58	19.13
357.796	55.17
358.012	64.66
358.228	30.76
358.444	-23.49
358.66	53.04
358.876	5.96
359.092	-1.79
359.308	18.55
359.524	49.94
359.74	3.25
359.956	-14.77
360.172	30.95
360.388	64.86
360.604	27.08
360.819	78.61
361.035	50.13
361.251	45.09
361.467	3.05
361.683	54.01
361.898	43.74
362.114	44.32
362.33	31.92
362.546	30.18
362.762	-1.02
362.977	15.84
363.193	2.66
363.409	56.91
363.624	-15.55
363.84	-7.41
364.056	-7.41
364.271	41.99
364.487	19.33
364.703	1.5
364.918	-21.36
365.134	-7.41
365.35	-12.45
365.565	71.25
365.781	35.21
365.996	25.72
366.212	59.24
366.427	27.46
366.643	22.23
366.858	18.75
367.074	-17.1
367.289	53.81
367.505	75.9
367.72	-20
367.936	6.54
368.151	46.26
368.367	35.21
368.582	24.75
368.798	-5.86
369.013	58.66
369.228	39.09
369.444	34.44
369.659	54.39
369.874	51.1
370.09	86.75
370.305	-46.94
370.52	-14
370.736	90.43
370.951	41.03
371.166	46.84
371.381	69.7
371.597	62.14
371.812	4.21
372.027	8.28
372.242	19.13
372.458	91.98
372.673	15.45
372.888	28.04
373.103	33.86
373.318	105.74
373.533	57.11
373.749	26.49
373.964	-14.39
374.179	71.25
374.394	-4.7
374.609	70.09
374.824	-12.06
375.039	38.89
375.254	3.44
375.469	71.83
375.684	12.35
375.899	79.39
376.114	17.58
376.329	31.53
376.544	55.36
376.759	61.76
376.974	7.7
377.189	16.03
377.404	-8.77
377.619	62.73
377.834	-23.69
378.049	-16.32
378.264	-10.12
378.478	28.63
378.693	-12.45
378.908	47.03
379.123	19.52
379.338	88.3
379.553	44.9
379.767	30.37
379.982	28.24
380.197	65.63
380.412	45.48
380.626	35.99
380.841	98.38
381.056	69.89
381.271	85.98
381.485	-3.15
381.7	9.83
381.915	50.91
382.129	17
382.344	78.61
382.559	2.86
382.773	66.41
382.988	-21.36
383.202	24.75
383.417	5.76
383.632	105.54
383.846	29.59
384.061	42.96
384.275	20.68
384.49	62.73
384.704	72.41
384.919	8.28
385.133	24.36
385.348	37.54
385.562	-2.18
385.777	70.09
385.991	30.95
386.206	19.33
386.42	38.7
386.634	81.91
386.849	60.01
387.063	63.69
387.277	2.28
387.492	19.52
387.706	-20.97
387.92	-9.15
388.135	72.22
388.349	48.97
388.563	21.46
388.778	71.64
388.992	63.11
389.206	33.47
389.42	110
389.635	59.24
389.849	91.79
390.063	67.38
390.277	28.24
390.491	88.69
390.706	61.56
390.92	69.89
391.134	41.41
391.348	71.06
391.562	5.76
391.776	53.62
391.99	25.72
392.205	62.92
392.419	29.21
392.633	37.34
392.847	81.33
393.061	27.27
393.275	98.76
393.489	26.49
393.703	43.54
393.917	69.31
394.131	20.88
394.345	62.73
394.559	64.86
394.773	36.76
394.986	64.28
395.2	25.14
395.414	72.03
395.628	14.48
395.842	62.73
396.056	12.55
396.27	3.25
396.484	62.53
396.697	44.9
396.911	69.89
397.125	84.81
397.339	72.8
397.553	64.08
397.766	104.58
397.98	81.91
398.194	76.09
398.408	53.81
398.621	61.56
398.835	57.88
399.049	61.37
399.262	108.64
399.476	93.34
399.69	95.28
399.903	115.62
400.117	51.88
400.331	91.21
400.544	32.89
400.758	143.52
400.971	92.18
401.185	99.73
401.398	50.13
401.612	114.65
401.826	74.54
402.039	88.69
402.253	57.69
402.466	97.6
402.68	50.52
402.893	90.24
403.106	84.43
403.32	87.33
403.533	84.81
403.747	71.83
403.96	71.06
404.174	71.44
404.387	14.87
404.6	82.88
404.814	110
405.027	64.47
405.24	83.46
405.454	79.97
405.667	105.93
405.88	40.83
406.094	76.68
406.307	114.26
406.52	77.45
406.733	53.62
406.947	26.3
407.16	138.48
407.373	122.98
407.586	61.56
407.799	73.19
408.012	90.24
408.226	92.95
408.439	124.14
408.652	20.1
408.865	108.64
409.078	106.51
409.291	115.23
409.504	73.77
409.717	95.66
409.93	88.88
410.143	90.82
410.357	28.63
410.57	34.05
410.783	96.63
410.996	117.56
411.209	90.43
411.421	126.86
411.634	89.08
411.847	80.36
412.06	130.54
412.273	104.96
412.486	101.28
412.699	178.01
412.912	87.14
413.125	117.17
413.338	102.25
413.55	133.83
413.763	126.47
413.976	95.47
414.189	73.19
414.402	76.68
414.615	159.21
414.827	72.8
415.04	134.02
415.253	132.67
415.466	139.84
415.678	176.07
415.891	128.02
416.104	116.97
416.316	73.77
416.529	90.63
416.742	116.78
416.954	137.9
417.167	107.68
417.38	103.61
417.592	129.76
417.805	79.78
418.017	71.06
418.23	131.12
418.442	84.43
418.655	73.77
418.868	96.63
419.08	138.48
419.293	169.87
419.505	159.99
419.718	106.13
419.93	152.43
420.142	132.09
420.355	161.73
420.567	175.49
420.78	135.57
420.992	127.82
421.205	189.24
421.417	81.52
421.629	128.02
421.842	142.94
422.054	85.59
422.266	148.75
422.479	157.66
422.691	110.77
422.903	152.04
423.115	109.22
423.328	138.67
423.54	155.72
423.752	112.91
423.964	117.75
424.177	134.99
424.389	137.32
424.601	213.46
424.813	133.25
425.025	162.89
425.238	159.41
425.45	128.21
425.662	140.42
425.874	393.84
426.086	121.04
426.298	172.58
426.51	157.86
426.722	138.09
426.934	117.56
427.146	146.04
427.358	127.44
427.57	180.72
427.782	134.8
427.994	137.12
428.206	115.23
428.418	95.08
428.63	165.02
428.842	163.28
429.054	142.94
429.266	175.49
429.478	116.39
429.69	125.89
429.902	116.01
430.114	194.86
430.325	138.67
430.537	149.91
430.749	127.24
430.961	63.5
431.173	128.21
431.384	146.04
431.596	92.18
431.808	129.96
432.02	162.89
432.231	156.11
432.443	186.34
432.655	153.79
432.867	128.6
433.078	172.58
433.29	206.1
433.502	173.55
433.713	193.51
433.925	172.77
434.136	198.74
434.348	143.71
434.56	104.38
434.771	243.49
434.983	94.5
435.194	150.11
435.406	151.27
435.617	247.56
435.829	238.65
436.04	188.47
436.252	200.29
436.463	231.87
436.675	193.12
436.886	185.56
437.098	197.77
437.309	236.52
437.521	203
437.732	201.64
437.943	189.82
438.155	189.44
438.366	134.02
438.578	235.94
438.789	185.95
439	181.11
439.211	172.58
439.423	214.04
439.634	187.89
439.845	200.67
440.057	175.87
440.268	225.86
440.479	187.69
440.69	199.9
440.902	180.91
441.113	216.75
441.324	194.47
441.535	220.05
441.746	254.54
441.957	190.21
442.168	204.55
442.38	222.37
442.591	224.5
442.802	202.22
443.013	196.99
443.224	205.32
443.435	196.02
443.646	191.57
443.857	222.57
444.068	195.06
444.279	205.9
444.49	273.72
444.701	229.54
444.912	308.4
445.123	255.89
445.334	220.82
445.545	220.05
445.756	251.82
445.967	214.24
446.178	268.1
446.388	252.4
446.599	233.22
446.81	232.06
447.021	226.64
447.232	272.55
447.443	282.44
447.653	235.35
447.864	263.25
448.075	244.46
448.286	283.6
448.496	274.1
448.707	292.7
448.918	247.95
449.129	338.62
449.339	245.24
449.55	282.24
449.761	252.99
449.971	305.1
450.182	235.55
450.393	281.85
450.603	259.19
450.814	304.13
451.024	272.17
451.235	298.32
451.446	356.06
451.656	351.99
451.867	264.8
452.077	304.13
452.288	320.22
452.498	306.85
452.709	258.02
452.919	315.18
453.13	248.34
453.34	308.98
453.55	201.45
453.761	315.18
453.971	307.04
454.182	302.39
454.392	304.91
454.602	353.54
454.813	295.03
455.023	327.19
455.233	241.17
455.444	302.2
455.654	246.01
455.864	291.35
456.075	301.03
456.285	302.58
456.495	309.37
456.705	318.47
456.916	304.13
457.126	352.77
457.336	307.62
457.546	273.14
457.756	285.15
457.967	346.95
458.177	295.42
458.387	327.97
458.597	297.16
458.807	314.4
459.017	321.77
459.227	302.2
459.437	305.68
459.647	319.05
459.857	308.78
460.068	303.55
460.278	351.22
460.488	317.89
460.698	397.52
460.908	299.48
461.117	293.87
461.327	305.68
461.537	358
461.747	350.25
461.957	325.45
462.167	399.07
462.377	358.58
462.587	339.98
462.797	354.32
463.007	386.48
463.216	374.08
463.426	381.63
463.636	387.06
463.846	315.76
464.056	315.57
464.265	362.26
464.475	321.96
464.685	348.12
464.895	359.55
465.104	368.27
465.314	360.13
465.524	328.74
465.733	323.12
465.943	402.95
466.153	403.72
466.362	396.55
466.572	368.07
466.782	354.9
466.991	368.27
467.201	410.5
467.41	341.53
467.62	377.37
467.829	363.42
468.039	388.8
468.249	341.14
468.458	336.88
468.668	416.7
468.877	402.95
469.086	437.43
469.296	395.97
469.505	363.42
469.715	417.09
469.924	399.85
470.134	455.06
470.343	419.8
470.552	382.99
470.762	407.79
470.971	357.8
471.18	398.68
471.39	379.31
471.599	348.31
471.808	434.53
472.018	376.79
472.227	458.55
472.436	456.23
472.645	420.38
472.855	394.61
473.064	472.11
473.273	453.71
473.482	452.74
473.691	453.51
473.901	444.99
474.11	459.52
474.319	515.9
474.528	443.63
474.737	513.58
474.946	474.63
475.155	481.03
475.364	492.07
475.573	479.28
475.783	460.1
475.992	519
476.201	513.19
476.41	484.9
476.619	444.21
476.828	472.11
477.037	437.05
477.245	440.73
477.454	517.64
477.663	477.73
477.872	491.29
478.081	561.82
478.29	463.78
478.499	587.97
478.708	489.94
478.917	576.16
479.125	521.33
479.334	511.25
479.543	517.06
479.752	542.64
479.961	538.38
480.169	608.71
480.378	527.33
480.587	664.7
480.796	587.59
481.004	589.72
481.213	582.74
481.422	584.29
481.63	556.59
481.839	614.91
482.048	636.02
482.256	595.92
482.465	617.04
482.674	606.77
482.882	642.03
483.091	655.01
483.299	595.34
483.508	634.67
483.716	626.92
483.925	622.66
484.134	563.17
484.342	614.52
484.551	624.98
484.759	638.74
484.967	651.14
485.176	669.93
485.384	656.17
485.593	664.12
485.801	627.5
486.01	608.9
486.218	584.49
486.426	555.62
486.635	572.86
486.843	564.34
487.051	578.29
487.26	576.74
487.468	615.68
487.676	655.59
487.885	612.77
488.093	635.44
488.301	659.66
488.509	667.41
488.717	699.19
488.926	665.28
489.134	645.13
489.342	684.27
489.55	637.96
489.758	686.98
489.967	673.8
490.175	774.75
490.383	718.56
490.591	769.52
490.799	706.16
491.007	781.33
491.215	739.29
491.423	722.24
491.631	728.63
491.839	745.49
492.047	792.57
492.255	705.77
492.463	690.47
492.671	707.9
492.879	739.1
493.087	742
493.295	786.37
493.503	772.81
493.711	785.21
493.919	821.63
494.127	811.17
494.334	824.93
494.542	731.15
494.75	824.93
494.958	780.95
495.166	836.55
495.374	848.18
495.581	831.13
495.789	820.28
495.997	928.19
496.205	829.19
496.412	805.94
496.62	834.42
496.828	844.3
497.035	845.85
497.243	892.93
497.451	853.21
497.658	864.45
497.866	859.22
498.074	929.16
498.281	824.35
498.489	926.06
498.696	897
498.904	868.13
499.112	851.08
499.319	965.39
499.527	894.48
499.734	929.55
499.942	858.25
500.149	890.22
500.357	920.64
500.564	853.41
500.771	929.94
500.979	861.74
501.186	889.64
501.394	908.63
501.601	890.03
501.808	923.74
502.016	912.11
502.223	925.29
502.43	924.51
502.638	917.54
502.845	900.68
503.052	1005.31
503.26	948.15
503.467	1041.54
503.674	968.11
503.881	976.63
504.089	1015.57
504.296	1016.93
504.503	934.78
504.71	997.75
504.917	977.99
505.125	999.49
505.332	1009.57
505.539	1027.59
505.746	1121.94
505.953	1073.31
506.16	1067.5
506.367	1129.5
506.574	1135.7
506.781	1142.29
506.988	1062.46
507.195	1098.11
507.402	1090.55
507.609	1114.19
507.816	1088.04
508.023	1114.97
508.23	1072.92
508.437	1070.4
508.644	1140.74
508.851	1182.97
509.058	1186.07
509.265	1205.45
509.472	1170.38
509.679	1264.73
509.885	1174.64
510.092	1196.53
510.299	1158.56
510.506	1194.02
510.713	1219.78
510.92	1219.2
511.126	1248.46
511.333	1271.71
511.54	1238.38
511.746	1315.5
511.953	1323.05
512.16	1313.36
512.367	1298.06
512.573	1295.35
512.78	1275
512.987	1281.59
513.193	1323.44
513.4	1263.18
513.606	1293.21
513.813	1307.75
514.02	1336.61
514.226	1393.77
514.433	1384.66
514.639	1313.36
514.846	1375.17
515.052	1329.83
515.259	1362.38
515.465	1368
515.672	1423.41
515.878	1483.67
516.085	1388.93
516.291	1477.86
516.497	1373.04
516.704	1406.75
516.91	1322.08
517.117	1303.68
517.323	1260.08
517.529	1355.6
517.736	1313.36
517.942	1357.15
518.148	1392.61
518.354	1408.3
518.561	1417.6
518.767	1404.81
518.973	1449.76
519.179	1463.13
519.386	1458.09
519.592	1443.17
519.798	1456.35
520.004	1597.78
520.21	1556.32
520.417	1566.98
520.623	1632.85
520.829	1664.82
521.035	1644.28
521.241	1665.4
521.447	1648.74
521.653	1771.19
521.859	1688.85
522.065	1707.45
522.271	1804.13
522.477	1740
522.683	1814.78
522.889	1733.21
523.095	1733.21
523.301	1753.17
523.507	1692.53
523.713	1788.43
523.919	1734.18
524.125	1811.88
524.331	1819.43
524.537	1924.44
524.742	1878.52
524.948	1948.85
525.154	1918.63
525.36	2007.56
525.566	1895.38
525.772	1979.66
525.977	1905.84
526.183	1924.44
526.389	1987.99
526.595	1873.68
526.8	1881.24
527.006	1835.13
527.212	1796.76
527.417	1764.99
527.623	1804.71
527.829	1872.32
528.034	1893.25
528.24	1945.75
528.446	1917.27
528.651	2018.41
528.857	2045.15
529.062	2078.86
529.268	2045.92
529.473	2098.23
529.679	2058.32
529.884	2182.71
530.09	2114.9
530.295	2138.34
530.501	2134.46
530.706	2142.8
530.912	2112.77
531.117	2122.26
531.323	2182.9
531.528	2193.75
531.733	2198.01
531.939	2180
532.144	2185.61
532.35	2183.1
532.555	2193.95
532.76	2209.44
532.966	2192.01
533.171	2118
533.376	2088.74
533.581	2121.87
533.787	2148.61
533.992	2172.25
534.197	2219.13
534.402	2174.18
534.607	2176.51
534.813	2275.13
535.018	2229.4
535.223	2217.58
535.428	2264.47
535.633	2282.1
535.838	2328.21
536.043	2344.68
536.249	2398.74
536.454	2323.95
536.659	2355.92
536.864	2326.66
537.069	2241.99
537.274	2314.65
537.479	2313.68
537.684	2294.69
537.889	2275.51
538.094	2379.94
538.299	2319.49
538.504	2387.11
538.708	2326.86
538.913	2419.08
539.118	2367.93
539.323	2368.9
539.528	2323.95
539.733	2318.33
539.938	2370.06
540.142	2355.92
540.347	2316.97
540.552	2279.97
540.757	2284.23
540.962	2306.32
541.166	2241.99
541.371	2280.36
541.576	2285.2
541.781	2197.24
541.985	2368.9
542.19	2352.04
542.395	2398.15
542.599	2491.54
542.804	2416.37
543.008	2452.79
543.213	2390.02
543.418	2318.33
543.622	2416.17
543.827	2347.2
544.031	2448.72
544.236	2430.7
544.44	2424.5
544.645	2523.12
544.849	2405.32
545.054	2482.05
545.258	2503.17
545.463	2481.27
545.667	2397.38
545.872	2472.17
546.076	2454.15
546.281	2502.97
546.485	2403.77
546.689	2489.8
546.894	2471.2
547.098	2485.92
547.302	2436.13
547.507	2461.7
547.711	2464.03
547.915	2534.55
548.119	2426.25
548.324	2465.77
548.528	2492.9
548.732	2453.37
548.936	2516.92
549.141	2528.74
549.345	2521.18
549.549	2490.18
549.753	2488.63
549.957	2565.16
550.161	2561.1
550.366	2560.51
550.57	2517.89
550.774	2518.47
550.978	2509.56
551.182	2558.58
551.386	2476.82
551.59	2460.54
551.794	2494.45
551.998	2521.96
552.202	2524.28
552.406	2471.78
552.61	2548.7
552.814	2504.13
553.018	2556.83
553.222	2533.78
553.426	2491.93
553.63	2587.83
553.833	2473.33
554.037	2464.8
554.241	2500.26
554.445	2552.96
554.649	2506.27
554.853	2506.46
555.056	2574.85
555.26	2564.78
555.464	2518.47
555.668	2559.35
555.871	2582.02
556.075	2562.65
556.279	2526.22
556.483	2482.82
556.686	2473.91
556.89	2473.13
557.094	2494.64
557.297	2416.75
557.501	2501.42
557.704	2410.36
557.908	2504.52
558.112	2464.8
558.315	2486.5
558.519	2451.63
558.722	2438.07
558.926	2430.12
559.129	2346.23
559.333	2355.14
559.536	2361.92
559.74	2322.59
559.943	2349.72
560.147	2330.73
560.35	2341.39
560.553	2347.78
560.757	2346.42
560.96	2398.15
561.164	2372.58
561.367	2460.15
561.57	2387.5
561.774	2416.17
561.977	2317.94
562.18	2304.19
562.384	2413.07
562.587	2341.39
562.79	2356.89
562.993	2291.79
563.197	2355.92
563.4	2407.26
563.603	2377.62
563.806	2431.09
564.009	2299.73
564.212	2370.64
564.416	2255.17
564.619	2351.07
564.822	2258.46
565.025	2305.93
565.228	2290.24
565.431	2309.61
565.634	2243.54
565.837	2235.21
566.04	2177.86
566.243	2217.39
566.446	2128.46
566.649	2245.87
566.852	2161.78
567.055	2220.88
567.258	2216.42
567.461	2250.52
567.664	2278.61
567.867	2183.1
568.07	2177.86
568.273	2172.25
568.475	2232.89
568.678	2164.88
568.881	2125.75
569.084	2120.13
569.287	2032.55
569.489	2083.9
569.692	2104.05
569.895	2113.73
570.098	2055.61
570.3	2026.94
570.503	2002.14
570.706	1989.15
570.909	1973.65
571.111	1925.22
571.314	1920.96
571.516	1963.19
571.719	1980.05
571.922	1934.32
572.124	1941.69
572.327	1957.57
572.529	1951.95
572.732	1925.61
572.935	1970.55
573.137	2022.09
573.34	1968.04
573.542	1958.74
573.745	1939.94
573.947	1963
574.15	1989.15
574.352	1909.33
574.554	1984.31
574.757	1920.37
574.959	1870.77
575.162	1904.68
575.364	1862.83
575.566	1966.29
575.769	1860.31
575.971	1866.9
576.173	1771.77
576.376	1840.74
576.578	1882.21
576.78	1883.95
576.982	1816.72
577.185	1829.12
577.387	1816.72
577.589	1792.11
577.791	1860.12
577.993	1796.57
578.196	1836.29
578.398	1843.65
578.6	1837.64
578.802	1762.28
579.004	1761.5
579.206	1785.33
579.408	1837.64
579.61	1773.71
579.812	1838.42
580.014	1755.11
580.216	1749.68
580.418	1741.55
580.62	1763.05
580.822	1741.16
581.024	1786.49
581.226	1819.82
581.428	1798.31
581.63	1876.59
581.832	1793.47
582.034	1857.02
582.236	1799.09
582.438	1864.57
582.64	1856.44
582.841	1870.58
583.043	1933.16
583.245	1872.71
583.447	1862.64
583.649	1827.76
583.85	1828.34
584.052	1862.06
584.254	1794.83
584.456	1870.39
584.657	1790.95
584.859	1844.81
585.061	1828.34
585.262	1767.7
585.464	1735.93
585.666	1806.64
585.867	1779.91
586.069	1808.19
586.27	1752.59
586.472	1774.48
586.674	1775.06
586.875	1707.83
587.077	1745.03
587.278	1742.71
587.48	1721.98
587.681	1846.75
587.883	1770.22
588.084	1673.15
588.285	1686.13
588.487	1681.87
588.688	1693.3
588.89	1612.12
589.091	1576.47
589.292	1580.15
589.494	1529.2
589.695	1467.01
589.896	1463.91
590.098	1456.93
590.299	1517.57
590.5	1483.47
590.702	1526.49
590.903	1544.89
591.104	1633.05
591.305	1612.51
591.507	1632.08
591.708	1626.85
591.909	1580.74
592.11	1639.63
592.311	1623.17
592.512	1613.48
592.714	1567.56
592.915	1533.27
593.116	1578.99
593.317	1601.47
593.518	1606.12
593.719	1594.88
593.92	1639.05
594.121	1634.6
594.322	1627.43
594.523	1571.82
594.724	1562.14
594.925	1601.27
595.126	1588.49
595.327	1564.46
595.528	1590.62
595.729	1584.8
595.929	1562.72
596.13	1569.3
596.331	1615.42
596.532	1566.79
596.733	1617.16
596.934	1650.1
597.135	1628.2
597.335	1645.64
597.536	1577.44
597.737	1614.06
597.938	1584.8
598.138	1632.08
598.339	1580.15
598.54	1597.78
598.74	1556.13
598.941	1599.33
599.142	1603.79
599.342	1614.06
599.543	1609.22
599.744	1580.54
599.944	1582.29
600.145	1563.3
600.345	1606.31
600.546	1659.2
600.746	1617.74
600.947	1641.96
601.147	1631.5
601.348	1617.93
601.548	1556.71
601.749	1590.42
601.949	1528.04
602.15	1544.31
602.35	1526.68
602.551	1595.27
602.751	1526.49
602.951	1575.7
603.152	1527.07
603.352	1543.15
603.552	1583.06
603.753	1619.87
603.953	1604.37
604.153	1592.94
604.354	1592.17
604.554	1557.49
604.754	1549.74
604.954	1566.79
605.155	1569.11
605.355	1558.07
605.555	1596.62
605.755	1618.32
605.955	1592.94
606.155	1610.77
606.356	1613.09
606.556	1620.84
606.756	1583.45
606.956	1529.97
607.156	1587.13
607.356	1530.75
607.556	1584.8
607.756	1561.94
607.956	1615.03
608.156	1547.02
608.356	1504.21
608.556	1585.77
608.756	1539.27
608.956	1532.1
609.156	1544.7
609.356	1535.01
609.556	1515.83
609.755	1522.61
609.955	1494.52
610.155	1533.27
610.355	1529.39
610.555	1483.86
610.755	1506.34
610.954	1439.49
611.154	1508.27
611.354	1528.04
611.554	1481.73
611.753	1511.57
611.953	1416.05
612.153	1515.83
612.352	1497.81
612.552	1430.39
612.752	1402.29
612.951	1434.65
613.151	1449.96
613.351	1417.02
613.55	1430.58
613.75	1461.97
613.949	1444.53
614.149	1432.52
614.348	1430.39
614.548	1415.08
614.747	1354.05
614.947	1395.9
615.146	1358.31
615.346	1467.01
615.545	1439.88
615.745	1420.51
615.944	1444.92
616.144	1437.75
616.343	1432.52
616.542	1348.82
616.742	1350.18
616.941	1374.39
617.14	1336.42
617.34	1376.72
617.539	1400.16
617.738	1307.75
617.938	1433.49
618.137	1333.32
618.336	1317.43
618.535	1386.79
618.734	1356.76
618.934	1366.64
619.133	1384.66
619.332	1386.79
619.531	1349.4
619.73	1392.03
619.929	1390.09
620.128	1400.94
620.328	1425.16
620.527	1368
620.726	1366.64
620.925	1374.78
621.124	1342.23
621.323	1394.54
621.522	1295.73
621.721	1342.81
621.92	1294.38
622.119	1336.42
622.318	1310.26
622.517	1327.7
622.715	1316.27
622.914	1257.95
623.113	1278.88
623.312	1246.13
623.511	1290.89
623.71	1267.64
623.909	1279.26
624.107	1349.59
624.306	1218.04
624.505	1279.46
624.704	1262.6
624.902	1256.98
625.101	1303.29
625.3	1277.91
625.499	1222.69
625.697	1246.52
625.896	1240.71
626.095	1272.68
626.293	1181.62
626.492	1205.45
626.69	1250.4
626.889	1241.48
627.088	1256.21
627.286	1235.67
627.485	1180.26
627.683	1211.65
627.882	1203.12
628.08	1135.7
628.279	1167.28
628.477	1219.98
628.676	1136.86
628.874	1204.48
629.073	1135.12
629.271	1116.13
629.469	1180.45
629.668	1154.49
629.866	1174.25
630.065	1169.22
630.263	1176.77
630.461	1172.12
630.66	1211.07
630.858	1184.13
631.056	1232.77
631.254	1208.74
631.453	1153.52
631.651	1211.65
631.849	1180.65
632.047	1208.16
632.245	1171.35
632.444	1187.62
632.642	1218.82
632.84	1224.24
633.038	1181.81
633.236	1157.78
633.434	1179.87
633.632	1190.53
633.83	1190.33
634.028	1201.18
634.227	1220.17
634.425	1288.76
634.623	1167.67
634.821	1200.6
635.019	1182.97
635.216	1195.37
635.414	1200.6
635.612	1163.6
635.81	1182.2
636.008	1233.93
636.206	1178.13
636.404	1202.35
636.602	1169.8
636.8	1161.66
636.997	1189.75
637.195	1198.28
637.393	1207.77
637.591	1214.94
637.789	1171.15
637.986	1168.83
638.184	1191.5
638.382	1226.37
638.58	1235.48
638.777	1251.17
638.975	1175.03
639.173	1196.34
639.37	1199.25
639.568	1223.08
639.765	1219.4
639.963	1168.25
640.161	1208.16
640.358	1205.83
640.556	1100.24
640.753	1103.92
640.951	1106.83
641.148	1131.63
641.346	1142.48
641.543	1107.6
641.741	1149.26
641.938	1113.22
642.136	1131.82
642.333	1075.83
642.531	1136.28
642.728	1140.93
642.925	1098.11
643.123	1105.09
643.32	1120.39
643.517	1089.97
643.715	1092.69
643.912	1073.7
644.109	1107.99
644.306	1091.91
644.504	1035.14
644.701	1084.55
644.898	1121.55
645.095	1053.55
645.293	1063.04
645.49	1084.94
645.687	1030.49
645.884	1077.57
646.081	933.62
646.278	1020.81
646.475	1036.31
646.672	989.03
646.87	997.56
647.067	985.54
647.264	972.76
647.461	946.41
647.658	895.84
647.855	986.12
648.052	948.15
648.249	887.51
648.446	946.79
648.642	944.28
648.839	932.84
649.036	916.96
649.233	885.57
649.43	878.98
649.627	880.15
649.824	915.02
650.021	872.01
650.217	910.76
650.414	899.52
650.611	931.88
650.808	961.91
651.004	933.81
651.201	950.09
651.398	967.14
651.595	919.86
651.791	891.58
651.988	932.84
652.185	893.32
652.381	913.47
652.578	860
652.775	920.83
652.971	869.1
653.168	911.34
653.364	922.58
653.561	819.31
653.757	902.04
653.954	890.03
654.15	859.03
654.347	965.98
654.543	885.76
654.74	835.39
654.936	847.6
655.133	847.4
655.329	854.57
655.525	837.33
655.722	880.15
655.918	793.15
656.115	840.43
656.311	767.38
656.507	779.01
656.704	713.91
656.9	748.2
657.096	754.79
657.292	727.08
657.489	809.23
657.685	812.72
657.881	773.58
658.077	779.59
658.273	805.17
658.47	871.23
658.666	821.05
658.862	850.11
659.058	766.42
659.254	854.18
659.45	824.15
659.646	875.88
659.842	804.97
660.038	864.65
660.234	792.57
660.43	790.83
660.626	882.66
660.822	856.9
661.018	825.12
661.214	857.28
661.41	786.37
661.606	816.4
661.802	864.65
661.998	834.03
662.194	780.75
662.39	807.68
662.586	818.53
662.781	842.75
662.977	818.34
663.173	829.19
663.369	827.45
663.564	806.13
663.76	828.03
663.956	793.73
664.152	840.81
664.347	729.41
664.543	794.32
664.739	766.22
664.934	742.2
665.13	739.68
665.326	786.76
665.521	771.65
665.717	737.35
665.912	733.67
666.108	642.03
666.304	766.42
666.499	743.94
666.695	678.84
666.89	758.28
667.086	743.55
667.281	741.42
667.477	766.22
667.672	715.46
667.867	744.13
668.063	736.19
668.258	698.99
668.454	716.62
668.649	789.86
668.844	734.83
669.04	742.58
669.235	716.82
669.43	714.1
669.626	662.95
669.821	686.59
670.016	669.15
670.211	703.64
670.407	686.79
670.602	699.77
670.797	679.81
670.992	754.79
671.187	646.68
671.382	712.94
671.578	661.21
671.773	681.75
671.968	628.27
672.163	673.03
672.358	689.5
672.553	642.61
672.748	633.89
672.943	742.58
673.138	624.4
673.333	719.14
673.528	657.34
673.723	685.62
673.918	675.55
674.113	619.94
674.308	717.2
674.503	695.89
674.698	686.79
674.892	705.97
675.087	674.39
675.282	683.69
675.477	652.1
675.672	680.59
675.867	653.85
676.061	621.3
676.256	632.92
676.451	665.47
676.646	628.86
676.84	632.34
677.035	593.59
677.23	619.94
677.424	664.12
677.619	707.13
677.814	698.99
678.008	690.08
678.203	598.44
678.397	625.17
678.592	671.67
678.787	674.77
678.981	647.65
679.176	640.48
679.37	624.4
679.565	606.38
679.759	641.64
679.954	681.55
680.148	681.17
680.342	675.94
680.537	655.98
680.731	639.7
680.926	668.57
681.12	694.15
681.314	629.82
681.509	623.04
681.703	641.64
681.897	661.4
682.092	647.45
682.286	636.99
682.48	708.1
682.674	672.06
682.869	652.69
683.063	682.72
683.257	701.7
683.451	622.07
683.645	666.83
683.839	691.05
684.034	661.79
684.228	696.09
684.422	620.72
684.616	646.1
684.81	671.48
685.004	679.23
685.198	700.15
685.392	680.97
685.586	685.62
685.78	697.25
685.974	701.9
686.168	728.25
686.362	742.39
686.556	685.43
686.75	639.51
686.944	649.59
687.138	622.46
687.331	537.6
687.525	558.14
687.719	498.27
687.913	593.59
688.107	581.77
688.301	559.3
688.494	619.75
688.688	555.81
688.882	555.81
689.076	570.15
689.269	604.06
689.463	683.3
689.657	647.65
689.85	636.02
690.044	639.51
690.238	664.12
690.431	692.02
690.625	661.6
690.818	715.07
691.012	746.65
691.205	762.35
691.399	725.53
691.593	761.38
691.786	809.81
691.98	854.18
692.173	900.68
692.366	859.8
692.56	920.06
692.753	908.43
692.947	879.18
693.14	932.65
693.333	925.29
693.527	899.52
693.72	936.14
693.914	919.48
694.107	924.32
694.3	979.54
694.493	942.53
694.687	1011.51
694.88	962.88
695.073	1055.29
695.266	1048.9
695.46	1039.99
695.653	1074.09
695.846	1099.27
696.039	1027.39
696.232	1084.16
696.425	1159.14
696.618	1167.86
696.812	1167.47
697.005	1254.66
697.198	1320.92
697.391	1256.79
697.584	1268.03
697.777	1329.25
697.97	1325.18
698.163	1343.01
698.356	1327.12
698.549	1377.11
698.742	1356.76
698.935	1357.73
699.127	1390.67
699.32	1359.28
699.513	1377.69
699.706	1387.18
699.899	1416.05
700.092	1360.06
700.285	1430
700.477	1373.62
700.67	1444.34
700.863	1442.79
701.056	1573.18
701.248	1456.35
701.441	1538.69
701.634	1517.57
701.826	1575.31
702.019	1503.62
702.212	1559.81
702.404	1544.7
702.597	1514.86
702.79	1580.93
702.982	1612.12
703.175	1629.37
703.367	1658.82
703.56	1691.95
703.752	1735.35
703.945	1729.73
704.137	1736.12
704.33	1734.18
704.522	1768.67
704.715	1778.36
704.907	1817.49
705.1	1855.66
705.292	1882.4
705.484	1820.01
705.677	1871.36
705.869	1885.31
706.061	1917.66
706.254	1962.42
706.446	1893.64
706.638	1893.25
706.831	1975.01
707.023	1963.58
707.215	2063.36
707.407	2032.55
707.599	1999.42
707.792	2053.67
707.984	2072.47
708.176	2092.81
708.368	2081.18
708.56	2124.97
708.752	2103.47
708.944	2128.46
709.136	2149.77
709.329	2115.48
709.521	2229.79
709.713	2205.38
709.905	2197.24
710.097	2227.08
710.289	2201.31
710.481	2216.81
710.672	2250.71
710.864	2253.23
711.056	2306.51
711.248	2296.44
711.44	2301.28
711.632	2270.86
711.824	2338.29
712.016	2371.42
712.207	2367.93
712.399	2362.51
712.591	2414.43
712.783	2389.05
712.975	2422.37
713.166	2374.52
713.358	2423.73
713.55	2445.04
713.741	2474.68
713.933	2487.08
714.125	2469.84
714.316	2457.83
714.508	2518.08
714.7	2501.81
714.891	2498.13
715.083	2523.7
715.274	2491.35
715.466	2520.6
715.657	2511.3
715.849	2415.2
716.04	2490.77
716.232	2416.75
716.423	2436.32
716.615	2353.79
716.806	2318.33
716.998	2255.75
717.189	2182.9
717.381	2093.97
717.572	2067.43
717.763	2055.03
717.955	2057.35
718.146	1998.45
718.337	1951.37
718.528	1888.02
718.72	1835.51
718.911	1913.98
719.102	1820.4
719.293	1878.33
719.485	1855.28
719.676	1842.1
719.867	1794.05
720.058	1795.79
720.249	1853.73
720.44	1833.19
720.632	1869.42
720.823	1945.37
721.014	2047.08
721.205	2092.03
721.396	2190.07
721.587	2289.66
721.778	2322.59
721.969	2363.28
722.16	2393.7
722.351	2403.19
722.542	2537.07
722.733	2537.27
722.924	2501.81
723.115	2499.87
723.305	2463.45
723.496	2477.4
723.687	2308.45
723.878	2367.93
724.069	2378.97
724.26	2378.2
724.45	2272.99
724.641	2288.88
724.832	2298.96
725.023	2292.56
725.213	2283.46
725.404	2258.08
725.595	2268.54
725.785	2247.42
725.976	2329.57
726.167	2294.31
726.357	2310
726.548	2421.79
726.739	2331.7
726.929	2428.96
727.12	2404.94
727.31	2415.98
727.501	2381.3
727.691	2388.47
727.882	2376.46
728.072	2437.1
728.263	2465.97
728.453	2506.27
728.644	2502.78
728.834	2460.74
729.024	2420.82
729.215	2494.45
729.405	2480.69
729.596	2526.22
729.786	2545.02
729.976	2561.29
730.167	2587.83
730.357	2567.68
730.547	2531.65
730.737	2559.35
730.928	2618.83
731.118	2691.88
731.308	2596.75
731.498	2591.32
731.688	2702.73
731.879	2709.12
732.069	2772.86
732.259	2833.31
732.449	2831.37
732.639	2874
732.829	2872.25
733.019	2954.4
733.209	3050.5
733.399	3062.51
733.589	3109.79
733.779	3162.29
733.969	3124.51
734.159	3235.14
734.349	3224.68
734.539	3274.86
734.729	3306.25
734.919	3308.57
735.109	3362.63
735.299	3280.29
735.488	3368.63
735.678	3339.38
735.868	3335.89
736.058	3300.24
736.248	3305.47
736.437	3270.4
736.627	3283.77
736.817	3405.25
737.007	3351.2
737.196	3386.07
737.386	3375.61
737.576	3345.19
737.765	3429.67
737.955	3378.71
738.144	3476.55
738.334	3482.17
738.524	3419.2
738.713	3461.44
738.903	3475.2
739.092	3490.31
739.282	3472.87
739.471	3504.45
739.661	3430.44
739.85	3517.63
740.04	3519.76
740.229	3542.23
740.419	3558.12
740.608	3576.14
740.797	3549.21
740.987	3649.57
741.176	3616.63
741.365	3595.9
741.555	3546.49
741.744	3652.67
741.933	3546.49
742.123	3637.75
742.312	3612.56
742.501	3707.3
742.69	3699.17
742.88	3615.27
743.069	3743.15
743.258	3716.6
743.447	3780.54
743.636	3782.09
743.825	3711.18
744.014	3732.88
744.204	3783.64
744.393	3680.18
744.582	3782.87
744.771	3796.43
744.96	3712.15
745.149	3776.86
745.338	3755.74
745.527	3806.5
745.716	3767.56
745.905	3781.12
746.094	3815.03
746.283	3787.13
746.471	3802.63
746.66	3848.93
746.849	3855.72
747.038	3852.81
747.227	3744.5
747.416	3853.58
747.604	3827.82
747.793	3816.19
747.982	3776.86
748.171	3790.42
748.359	3844.67
748.548	3819.1
748.737	3768.72
748.926	3781.51
749.114	3720.87
749.303	3815.42
749.491	3779.96
749.68	3724.74
749.869	3793.52
750.057	3727.45
750.246	3740.82
750.434	3725.52
750.623	3748.77
750.811	3714.67
751	3783.45
751.188	3673.59
751.377	3724.74
751.565	3692.58
751.754	3701.1
751.942	3702.46
752.131	3735.79
752.319	3710.02
752.507	3610.82
752.696	3745.47
752.884	3731.91
753.072	3707.11
753.261	3684.83
753.449	3749.93
753.637	3675.34
753.825	3775.31
754.014	3673.21
754.202	3648.41
754.39	3708.47
754.578	3715.05
754.766	3627.67
754.955	3681.34
755.143	3741.79
755.331	3701.3
755.519	3682.31
755.707	3613.53
755.895	3652.47
756.083	3650.34
756.271	3585.24
756.459	3592.8
756.647	3652.28
756.835	3605.97
757.023	3603.46
757.211	3583.69
757.399	3575.94
757.587	3641.04
757.775	3520.34
757.963	3536.42
758.151	3551.34
758.339	3541.46
758.526	3503.87
758.714	3522.66
758.902	3374.83
759.09	3273.89
759.278	3075.5
759.465	2856.56
759.653	2494.06
759.841	2240.06
760.028	1921.15
760.216	1643.12
760.404	1530.94
760.591	1269.38
760.779	1098.89
760.967	939.04
761.154	764.28
761.342	823.38
761.529	805.75
761.717	860.58
761.905	821.25
762.092	901.65
762.28	820.08
762.467	824.35
762.655	756.73
762.842	787.34
763.029	785.02
763.217	807.68
763.404	814.85
763.592	817.76
763.779	786.76
763.966	814.08
764.154	855.54
764.341	915.21
764.528	949.31
764.716	984.57
764.903	1026.62
765.09	1108.77
765.277	1158.75
765.465	1353.08
765.652	1393.77
765.839	1487.74
766.026	1619.48
766.213	1683.03
766.4	1789.59
766.588	1993.61
766.775	2006.01
766.962	2100.75
767.149	2219.33
767.336	2354.17
767.523	2359.02
767.71	2494.06
767.897	2589.58
768.084	2654.68
768.271	2731.59
768.458	2778.09
768.645	2825.17
768.832	2830.99
769.019	2897.05
769.206	2907.52
769.392	2968.74
769.579	3042.36
769.766	3029.19
769.953	3031.71
770.14	3130.71
770.327	3110.18
770.513	3129.36
770.7	3214.8
770.887	3106.69
771.073	3128.19
771.26	3140.4
771.447	3147.76
771.634	3071.81
771.82	3251.42
772.007	3134.59
772.193	3159.58
772.38	3194.07
772.567	3157.45
772.753	3125.48
772.94	3227.2
773.126	3180.89
773.313	3222.16
773.499	3173.72
773.686	3213.44
773.872	3135.94
774.059	3168.69
774.245	3093.32
774.432	3168.11
774.618	3078.21
774.804	3127.03
774.991	3098.74
775.177	3165.01
775.363	3127.81
775.55	3193.29
775.736	3098.16
775.922	3106.3
776.109	3088.67
776.295	3097.78
776.481	3137.88
776.667	3160.74
776.853	3115.41
777.04	3081.5
777.226	3074.91
777.412	3135.75
777.598	3092.54
777.784	3067.75
777.97	3072.2
778.156	3064.65
778.342	3058.45
778.528	3022.8
778.715	3008.26
778.901	3014.27
779.087	3041.4
779.272	3003.42
779.458	2980.17
779.644	3000.71
779.83	2971.07
780.016	3041.98
780.202	2998.38
780.388	2991.41
780.574	2918.75
780.76	2968.16
780.946	3022.6
781.131	2985.79
781.317	2957.5
781.503	2969.52
781.689	2942
781.874	3025.7
782.06	2923.6
782.246	2948.78
782.432	2931.35
782.617	2967.19
782.803	2986.57
782.989	2880.97
783.174	2882.52
783.36	2799.02
783.545	2862.76
783.731	2892.6
783.916	2754.46
784.102	2871.87
784.288	2824.79
784.473	2847.84
784.659	2793.4
784.844	2818.97
785.029	2845.9
785.215	2752.71
785.4	2753.68
785.586	2891.05
785.771	2750
785.956	2807.35
786.142	2770.73
786.327	2788.56
786.512	2727.33
786.698	2772.28
786.883	2680.83
787.068	2742.64
787.254	2733.53
787.439	2710.48
787.624	2679.48
787.809	2717.45
787.994	2660.88
788.18	2737.79
788.365	2631.04
788.55	2619.8
788.735	2657.97
788.92	2638.01
789.105	2631.43
789.29	2638.01
789.475	2583.57
789.66	2610.7
789.845	2542.3
790.03	2580.47
790.215	2544.05
790.4	2593.65
790.585	2616.9
790.77	2567.1
790.955	2482.24
791.14	2563.42
791.325	2608.18
791.51	2480.11
791.695	2538.43
791.879	2549.86
792.064	2473.33
792.249	2609.92
792.434	2519.05
792.618	2546.18
792.803	2582.21
792.988	2459.77
793.173	2557.8
793.357	2580.08
793.542	2522.73
793.727	2554.9
793.911	2592.68
794.096	2524.09
794.281	2593.84
794.465	2607.98
794.65	2519.05
794.834	2631.23
795.019	2594.03
795.203	2631.04
795.388	2615.93
795.572	2633.17
795.757	2613.41
795.941	2611.47
796.126	2604.88
796.31	2513.05
796.494	2592.1
796.679	2548.12
796.863	2495.61
797.048	2575.24
797.232	2601.59
797.416	2562.65
797.601	2593.65
797.785	2611.86
797.969	2654.48
798.153	2550.63
798.338	2590.16
798.522	2645.18
798.706	2621.35
798.89	2656.42
799.074	2708.15
799.258	2654.68
799.443	2633.95
799.627	2590.74
799.811	2654.09
799.995	2593.65
800.179	2602.36
800.363	2599.26
800.547	2601.59
800.731	2653.71
800.915	2546.18
801.099	2558.38
801.283	2576.79
801.467	2591.13
801.651	2606.05
801.835	2647.12
802.019	2621.35
802.202	2610.89
802.386	2553.15
802.57	2519.05
802.754	2570.78
802.938	2525.25
803.121	2522.35
803.305	2565.55
803.489	2554.7
803.673	2593.06
803.856	2590.93
804.04	2541.92
804.224	2558.19
804.407	2611.47
804.591	2536.3
804.775	2535.52
804.958	2546.95
805.142	2681.99
805.326	2587.06
805.509	2631.43
805.693	2623.29
805.876	2595.97
806.06	2605.85
806.243	2601.01
806.427	2656.42
806.61	2649.25
806.794	2589
806.977	2664.75
807.16	2587.83
807.344	2619.22
807.527	2609.73
807.71	2585.12
807.894	2603.33
808.077	2619.41
808.26	2565.94
808.444	2563.23
808.627	2600.62
808.81	2502.58
808.993	2484.37
809.177	2496.58
809.36	2489.6
809.543	2543.85
809.726	2409.97
809.909	2386.14
810.092	2436.52
810.276	2424.31
810.459	2418.69
810.642	2389.24
810.825	2393.5
811.008	2404.55
811.191	2294.5
811.374	2311.74
811.557	2336.93
811.74	2367.16
811.923	2271.06
812.106	2227.27
812.289	2232.5
812.472	2254.59
812.654	2211.58
812.837	2176.31
813.02	2134.08
813.203	2118.19
813.386	1975.98
813.569	2035.27
813.751	1959.32
813.934	1974.24
814.117	1940.91
814.3	1870.39
814.482	1844.81
814.665	1875.04
814.848	1763.25
815.03	1733.02
815.213	1712.48
815.396	1708.41
815.578	1684.2
815.761	1672.57
815.943	1682.45
816.126	1622.78
816.309	1610.18
816.491	1538.11
816.674	1486.19
816.856	1551.87
817.039	1529.39
817.221	1613.09
817.403	1558.07
817.586	1558.84
817.768	1565.04
817.951	1481.92
818.133	1478.82
818.315	1532.69
818.498	1570.47
818.68	1651.84
818.862	1610.18
819.045	1624.13
819.227	1577.25
819.409	1578.8
819.591	1616.58
819.774	1593.33
819.956	1534.43
820.138	1644.67
820.32	1639.44
820.502	1715.58
820.684	1769.06
820.866	1765.18
821.048	1798.89
821.231	1781.84
821.413	1826.21
821.595	1794.44
821.777	1817.3
821.959	1802.77
822.141	1843.46
822.323	1700.47
822.505	1671.41
822.686	1591.2
822.868	1550.32
823.05	1399
823.232	1412.18
823.414	1365.48
823.596	1425.35
823.778	1377.69
823.96	1436.59
824.141	1470.3
824.323	1484.06
824.505	1523.39
824.687	1576.28
824.868	1641.57
825.05	1736.31
825.232	1762.28
825.413	1833.38
825.595	1797.34
825.777	1698.15
825.958	1812.46
826.14	1758.98
826.321	1748.13
826.503	1763.44
826.685	1777.39
826.866	1818.27
827.048	1796.38
827.229	1725.85
827.411	1697.18
827.592	1625.1
827.773	1655.33
827.955	1599.33
828.136	1585.58
828.318	1576.47
828.499	1604.57
828.68	1561.75
828.862	1598.95
829.043	1605.53
829.224	1582.48
829.406	1539.85
829.587	1557.1
829.768	1548.57
829.949	1580.93
830.131	1593.33
830.312	1607.28
830.493	1573.37
830.674	1574.92
830.855	1582.48
831.036	1572.4
831.218	1631.3
831.399	1676.06
831.58	1591
831.761	1608.83
831.942	1629.56
832.123	1567.75
832.304	1551.67
832.485	1557.49
832.666	1592.36
832.847	1614.25
833.028	1553.22
833.209	1571.05
833.389	1552.84
833.57	1536.75
833.751	1530.36
833.932	1584.03
834.113	1578.41
834.294	1563.69
834.475	1608.25
834.655	1676.83
834.836	1667.73
835.017	1620.65
835.198	1610.57
835.378	1629.17
835.559	1675.48
835.74	1610.77
835.92	1583.64
836.101	1604.57
836.281	1690.01
836.462	1654.17
836.643	1651.26
836.823	1700.08
837.004	1647.97
837.184	1740.19
837.365	1696.21
837.545	1677.22
837.726	1617.35
837.906	1727.6
838.087	1688.46
838.267	1664.24
838.448	1628.78
838.628	1689.43
838.808	1635.76
838.989	1737.86
839.169	1634.79
839.349	1695.05
839.53	1728.76
839.71	1692.33
839.89	1665.21
840.07	1675.48
840.251	1665.98
840.431	1714.23
840.611	1636.15
840.791	1639.44
840.971	1673.54
841.151	1665.98
841.332	1627.43
841.512	1690.78
841.692	1601.85
841.872	1670.05
842.052	1661.14
842.232	1654.55
842.412	1581.7
842.592	1660.17
842.772	1679.16
842.952	1696.6
843.132	1636.34
843.312	1585.97
843.492	1597.01
843.672	1655.91
843.851	1590.23
844.031	1609.02
844.211	1601.85
844.391	1609.41
844.571	1603.6
844.751	1616
844.93	1624.33
845.11	1598.75
845.29	1618.52
845.47	1638.86
845.649	1647.77
845.829	1654.17
846.009	1603.98
846.188	1625.88
846.368	1628.98
846.547	1601.66
846.727	1640.8
846.907	1561.75
847.086	1598.17
847.266	1608.63
847.445	1597.59
847.625	1581.9
847.804	1604.95
847.984	1603.4
848.163	1584.22
848.343	1554
848.522	1570.08
848.701	1603.6
848.881	1532.69
849.06	1574.15
849.239	1585
849.419	1557.87
849.598	1520.67
849.777	1442.98
849.957	1483.67
850.136	1421.09
850.315	1433.68
850.494	1443.37
850.674	1457.9
850.853	1485.02
851.032	1435.23
851.211	1514.28
851.39	1462.55
851.569	1415.08
851.748	1426.12
851.927	1461.58
852.107	1449.96
852.286	1434.65
852.465	1429.81
852.644	1514.67
852.823	1468.17
853.002	1450.15
853.181	1473.59
853.359	1458.09
853.538	1391.06
853.717	1464.49
853.896	1359.09
854.075	1316.66
854.254	1281.78
854.433	1242.65
854.611	1301.93
854.79	1257.18
854.969	1293.41
855.148	1327.31
855.327	1226.76
855.505	1321.7
855.684	1332.74
855.863	1349.4
856.041	1306.2
856.22	1366.26
856.399	1331.38
856.577	1401.52
856.756	1411.4
856.934	1495.87
857.113	1449.57
857.291	1432.13
857.47	1373.81
857.648	1407.91
857.827	1402.49
858.005	1417.02
858.184	1374.59
858.362	1440.85
858.541	1408.11
858.719	1419.15
858.898	1320.53
859.076	1380.4
859.254	1419.54
859.433	1411.21
859.611	1393.38
859.789	1363.74
859.967	1430.19
860.146	1443.17
860.324	1333.13
860.502	1346.88
860.68	1302.13
860.859	1337.39
861.037	1294.18
861.215	1328.86
861.393	1353.08
861.571	1342.81
861.749	1337.39
861.927	1353.28
862.105	1326.73
862.283	1329.45
862.461	1322.08
862.639	1289.15
862.817	1329.64
862.995	1320.34
863.173	1308.91
863.351	1318.6
863.529	1307.16
863.707	1382.53
863.885	1336.81
864.063	1284.3
864.241	1273.65
864.418	1348.04
864.596	1290.7
864.774	1245.75
864.952	1289.92
865.129	1344.56
865.307	1218.04
865.485	1237.42
865.663	1315.5
865.84	1235.09
866.018	1234.32
866.196	1124.65
866.373	1114.58
866.551	1079.9
866.728	1046.77
866.906	1104.89
867.084	1132.99
867.261	1117.68
867.439	1153.91
867.616	1172.9
867.794	1150.81
867.971	1196.15
868.149	1179.87
868.326	1250.78
868.503	1213.39
868.681	1222.5
868.858	1182.58
869.035	1158.95
869.213	1222.3
869.39	1186.27
869.567	1257.37
869.745	1183.36
869.922	1217.46
870.099	1218.43
870.276	1198.47
870.454	1216.88
870.631	1187.23
870.808	1200.41
870.985	1211.26
871.162	1231.8
871.339	1214.55
871.517	1120.2
871.694	1142.87
871.871	1172.9
872.048	1152.75
872.225	1145.39
872.402	1180.45
872.579	1117.1
872.756	1153.91
872.933	1135.89
873.11	1154.49
873.287	1163.02
873.463	1127.17
873.64	1130.47
873.817	1151.78
873.994	1119.62
874.171	1118.26
874.348	1133.95
874.524	1073.5
874.701	1113.22
874.878	1048.71
875.055	1138.02
875.231	1112.64
875.408	1109.35
875.585	1058.39
875.762	1096.75
875.938	1113.22
876.115	1081.64
876.291	1081.25
876.468	1084.55
876.645	1060.14
876.821	1095.79
876.998	1057.62
877.174	1092.49
877.351	1008.02
877.527	1045.02
877.704	1070.21
877.88	1058.39
878.057	1035.92
878.233	1106.25
878.409	1072.54
878.586	1035.34
878.762	1070.99
878.938	1051.81
879.115	974.31
879.291	1033.59
879.467	994.07
879.644	1005.11
879.82	1061.3
879.996	1005.89
880.172	972.18
880.349	1029.91
880.525	1038.63
880.701	987.48
880.877	963.84
881.053	1051.42
881.229	983.99
881.405	1038.63
881.581	1004.53
881.757	993.87
881.933	1009.96
882.109	1043.09
882.285	1003.37
882.461	962.68
882.637	1019.45
882.813	976.63
882.989	1012.67
883.165	1024.68
883.341	964.81
883.517	1020.03
883.693	1027.39
883.869	1011.89
884.044	984.57
884.22	1023.71
884.396	1037.08
884.572	1017.71
884.747	1038.24
884.923	1016.74
885.099	1013.25
885.275	1014.41
885.45	1001.62
885.626	980.89
885.801	967.14
885.977	974.31
886.153	925.87
886.328	1002.4
886.504	953.96
886.679	995.81
886.855	957.45
887.03	978.96
887.206	1007.24
887.381	1010.15
887.557	993.49
887.732	1006.86
887.908	977.02
888.083	1025.46
888.258	946.6
888.434	939.43
888.609	977.02
888.784	1021.19
888.96	1006.86
889.135	960.74
889.31	943.89
889.485	982.06
889.661	946.21
889.836	1032.04
890.011	1001.24
890.186	963.26
890.361	956.48
890.537	978.18
890.712	957.06
890.887	997.56
891.062	1008.79
891.237	1020.22
891.412	958.42
891.587	990.77
891.762	1033.21
891.937	1021.97
892.112	916.96
892.287	945.83
892.462	942.34
892.637	909.98
892.812	884.99
892.987	897.39
893.161	907.27
893.336	880.73
893.511	899.91
893.686	889.83
893.861	896.03
894.035	871.04
894.21	860.58
894.385	849.53
894.56	881.5
894.734	820.66
894.909	797.42
895.084	810.2
895.258	788.89
895.433	794.51
895.608	789.47
895.782	729.99
895.957	743.75
896.131	736
896.306	694.15
896.48	686.2
896.655	704.8
896.829	622.27
897.004	640.48
897.178	634.67
897.353	606.57
897.527	687.37
897.701	669.35
897.876	610.84
898.05	686.4
898.224	634.28
898.399	665.28
898.573	611.42
898.747	560.07
898.921	583.91
899.096	509.51
899.27	519.78
899.444	532.56
899.618	555.62
899.792	580.03
899.967	566.86
900.141	592.24
900.315	539.93
900.489	564.34
900.663	594.17
900.837	554.07
901.011	504.08
901.185	618.2
901.359	555.62
901.533	572.47
901.707	560.27
901.881	562.01
902.055	516.29
902.229	551.94
902.403	600.76
902.576	571.31
902.75	565.69
902.924	688.92
903.098	614.13
903.272	665.86
903.446	690.47
903.619	685.24
903.793	715.85
903.967	673.61
904.14	729.41
904.314	721.27
904.488	702.87
904.661	744.13
904.835	742.58
905.009	737.74
905.182	768.35
905.356	718.17
905.529	707.32
905.703	711.2
905.876	671.09
906.05	637.57
906.223	662.57
906.397	600.96
906.57	594.56
906.744	560.46
906.917	548.45
907.09	544.19
907.264	546.71
907.437	526.75
907.61	492.46
907.784	531.01
907.957	500.21
908.13	509.89
908.304	528.69
908.477	492.46
908.65	512.99
908.823	467.27
908.996	542.25
909.17	479.67
909.343	489.16
909.516	458.16
909.689	497.69
909.862	479.28
910.035	469.01
910.208	437.82
910.381	463.39
910.554	544.58
910.727	493.04
910.9	460.68
911.073	467.08
911.246	540.89
911.419	550.39
911.592	519.39
911.765	474.05
911.938	458.74
912.11	478.12
912.283	481.61
912.456	527.72
912.629	500.79
912.802	442.66
912.974	417.67
913.147	393.84
913.32	352.18
913.493	375.63
913.665	408.56
913.838	427.75
914.01	413.21
914.183	438.6
914.356	425.42
914.528	467.08
914.701	511.06
914.873	450.61
915.046	420.58
915.218	391.13
915.391	312.27
915.563	343.47
915.736	401.2
915.908	426.39
916.081	429.49
916.253	414.57
916.425	405.85
916.598	470.56
916.77	429.3
916.942	431.23
917.115	340.75
917.287	405.85
917.459	377.76
917.632	346.76
917.804	325.06
917.976	386.48
918.148	387.45
918.32	405.27
918.493	423.1
918.665	454.87
918.837	428.91
919.009	455.84
919.181	473.08
919.353	447.9
919.525	433.17
919.697	431.43
919.869	419.61
920.041	524.04
920.213	564.53
920.385	511.44
920.557	445.57
920.729	476.38
920.901	459.52
921.073	470.95
921.244	447.9
921.416	493.43
921.588	445.38
921.76	428.33
921.932	489.36
922.103	457.58
922.275	463.98
922.447	469.21
922.619	363.81
922.79	437.63
922.962	429.68
923.134	454.48
923.305	406.63
923.477	389.19
923.648	369.23
923.82	420.58
923.991	356.64
924.163	353.35
924.335	391.13
924.506	344.24
924.677	420
924.849	391.51
925.02	385.31
925.192	409.73
925.363	388.22
925.535	407.4
925.706	376.79
925.877	426.39
926.049	366.13
926.22	389.77
926.391	368.85
926.562	395.2
926.734	345.6
926.905	418.45
927.076	342.88
927.247	356.25
927.419	325.83
927.59	297.93
927.761	336.3
927.932	322.73
928.103	306.46
928.274	253.37
928.445	242.52
928.616	270.04
928.787	264.22
928.958	305.1
929.129	271
929.3	255.31
929.471	214.24
929.642	164.06
929.813	135.38
929.984	244.27
930.155	148.17
930.326	209.97
930.496	168.9
930.667	101.09
930.838	172.39
931.009	132.67
931.18	141
931.35	149.52
931.521	155.14
931.692	90.63
931.863	69.31
932.033	116.59
932.204	118.91
932.374	140.61
932.545	85.98
932.716	121.82
932.886	119.49
933.057	53.04
933.227	61.76
933.398	113.87
933.568	62.53
933.739	30.37
933.909	25.53
934.08	67.96
934.25	9.83
934.421	38.89
934.591	64.66
934.761	31.92
934.932	5.76
935.102	21.65
935.272	46.45
935.443	46.84
935.613	43.74
935.783	51.29
935.953	14.29
936.123	159.6
936.294	1.89
936.464	42.77
936.634	27.66
936.804	13.9
936.974	-21.36
937.144	47.42
937.314	31.53
937.484	27.46
937.655	18.16
937.825	66.6
937.995	19.33
938.165	58.27
938.334	31.92
938.504	68.93
938.674	55.56
938.844	45.68
939.014	94.69
939.184	87.53
939.354	139.45
939.524	134.61
939.694	75.51
939.863	73.19
940.033	128.79
940.203	121.04
940.373	91.21
940.542	97.99
940.712	48.19
940.882	116.97
941.051	152.43
941.221	103.41
941.391	137.32
941.56	99.73
941.73	62.73
941.899	159.41
942.069	88.88
942.238	84.43
942.408	78.23
942.577	109.42
942.747	76.87
942.916	37.34
943.086	50.71
943.255	107.29
943.425	86.75
943.594	56.53
943.763	13.13
943.933	40.83
944.102	-21.55
944.271	76.09
944.441	89.08
944.61	37.73
944.779	54.39
944.948	131.12
945.117	31.92
945.287	60.01
945.456	2.66
945.625	62.34
945.794	67.76
945.963	53.43
946.132	96.63
946.301	46.84
946.47	87.72
946.639	43.54
946.808	62.14
946.977	69.51
947.146	112.91
947.315	48
947.484	85.2
947.653	30.76
947.822	50.52
947.991	53.62
948.16	122.59
948.329	126.66
948.498	42.96
948.666	62.14
948.835	72.8
949.004	7.51
949.173	40.44
949.341	88.88
949.51	88.3
949.679	110.77
949.847	88.88
950.016	124.72
950.185	111.36
950.353	63.5
950.522	50.52
950.69	113.87
950.859	35.99
951.028	109.81
951.196	81.91
951.365	88.69
951.533	62.53
951.701	83.84
951.87	82.88
952.038	25.72
952.207	54.39
952.375	98.76
952.543	61.95
952.712	93.53
952.88	42.58
953.048	90.82
953.217	81.91
953.385	66.02
953.553	116.59
953.721	70.86
953.89	53.62
954.058	35.41
954.226	21.07
954.394	79.19
954.562	29.79
954.73	46.06
954.898	52.84
955.067	86.36
955.235	65.83
955.403	69.7
955.571	125.89
955.739	88.69
955.907	49.16
956.075	68.15
956.243	51.29
956.41	69.31
956.578	36.76
956.746	21.84
956.914	42.96
957.082	113.68
957.25	70.67
957.418	36.57
957.585	67.38
957.753	110.19
957.921	47.42
958.089	91.01
958.256	98.18
958.424	78.03
958.592	70.48
958.759	54.2
958.927	77.84
959.095	52.84
959.262	80.94
959.43	74.74
959.597	48
959.765	70.09
959.932	51.29
960.1	78.61
960.267	54.59
960.435	106.9
960.602	77.06
960.77	68.34
960.937	30.18
961.104	69.12
961.272	41.99
961.439	48
961.606	58.85
961.774	83.65
961.941	46.06
962.108	106.9
962.275	68.93
962.443	133.06
962.61	97.41
962.777	148.56
962.944	97.6
963.111	102.25
963.278	107.09
963.446	84.81
963.613	100.51
963.78	82.49
963.947	99.54
964.114	72.22
964.281	192.54
964.448	109.03
964.615	59.24
964.782	111.36
964.949	110.77
965.116	87.91
965.282	126.86
965.449	88.88
965.616	51.1
965.783	111.55
965.95	104.19
966.117	55.56
966.283	83.46
966.45	100.51
966.617	106.32
966.784	113.29
966.95	123.56
967.117	104.96
967.284	95.47
967.45	65.24
967.617	149.91
967.784	116.2
967.95	147.97
968.117	100.89
968.283	144.68
968.45	190.02
968.616	118.33
968.783	154.17
968.949	114.26
969.116	135.38
969.282	126.66
969.449	113.29
969.615	122.21
969.781	56.33
969.948	100.51
970.114	73.38
970.28	153.4
970.447	128.21
970.613	145.46
970.779	118.33
970.945	130.54
971.112	110.97
971.278	104.96
971.444	94.31
971.61	162.12
971.776	92.76
971.942	128.79
972.108	126.86
972.275	115.81
972.441	134.61
972.607	155.14
972.773	107.29
972.939	124.72
973.105	65.63
973.271	76.29
973.437	95.47
973.602	79.39
973.768	118.14
973.934	101.67
974.1	114.84
974.266	37.93
974.432	97.02
974.598	94.11
974.763	122.01
974.929	76.48
975.095	145.84
975.261	72.41
975.426	91.98
975.592	70.48
975.758	151.85
975.923	39.28
976.089	75.9
976.255	119.3
976.42	115.42
976.586	136.16
976.751	106.51
976.917	175.49
977.082	86.94
977.248	65.24
977.413	56.14
977.579	82.88
977.744	95.47
977.91	65.44
978.075	82.49
978.24	131.89
978.406	95.66
978.571	81.33
978.736	55.17
978.902	87.14
979.067	61.18
979.232	38.51
979.397	108.45
979.563	158.82
979.728	64.66
979.893	64.66
980.058	70.28
980.223	116.39
980.388	100.7
980.554	115.42
980.719	94.5
980.884	100.89
981.049	115.04
981.214	63.69
981.379	96.44
981.544	92.56
981.709	87.14
981.874	92.56
982.039	84.81
982.204	121.62
982.368	99.93
982.533	80.94
982.698	134.41
982.863	101.09
983.028	66.99
983.193	140.61
983.357	85.39
983.522	79
983.687	83.07
983.852	81.13
984.016	85.59
984.181	65.63
984.346	88.88
984.51	141.19
984.675	66.6
984.839	123.76
985.004	110.97
985.168	122.79
985.333	103.22
985.498	83.26
985.662	127.05
985.827	110.39
985.991	90.24
986.155	96.83
986.32	111.94
986.484	120.46
986.649	93.73
986.813	49.55
986.977	104.38
987.142	96.83
987.306	80.74
987.47	76.29
987.634	79.78
987.799	122.4
987.963	120.85
988.127	116.39
988.291	175.68
988.455	109.22
988.62	97.21
988.784	101.09
988.948	101.86
989.112	58.66
989.276	82.88
989.44	86.56
989.604	100.7
989.768	89.08
989.932	165.8
990.096	65.05
990.26	87.14
990.424	81.33
990.588	69.51
990.752	141.77
990.915	120.66
991.079	87.72
991.243	36.76
991.407	122.21
991.571	80.16
991.734	117.94
991.898	97.41
992.062	137.12
992.226	71.83
992.389	54.01
992.553	16.61
992.717	47.03
992.88	84.04
993.044	76.48
993.207	104.38
993.371	90.24
993.535	94.69
993.698	89.46
993.862	127.82
994.025	125.89
994.189	95.47
994.352	110.39
994.515	102.06
994.679	117.75
994.842	47.23
995.006	96.44
995.169	63.69
995.332	67.96
995.496	90.24
995.659	27.08
995.822	63.5
995.985	53.04
996.149	132.86
996.312	61.95
996.475	118.33
996.638	76.09
996.801	104.58
996.964	111.55
997.128	84.43
997.291	48.97
997.454	89.08
997.617	40.06
997.78	103.61
997.943	59.63
998.106	113.29
998.269	76.09
998.432	74.35
998.595	76.87
998.758	19.91
998.92	51.29
999.083	31.73
999.246	82.68
999.409	38.51
999.572	1.5
999.735	58.85
999.897	81.33
1000.06	34.63
1000.223	64.47
1000.386	94.89
1000.548	76.87
1000.711	113.68
1000.874	90.04
1001.036	28.24
1001.199	82.68
1001.361	52.65
1001.524	75.9
1001.687	91.4
1001.849	26.69
1002.012	72.03
1002.174	57.3
1002.337	84.81
1002.499	26.49
1002.661	98.57
1002.824	20.1
1002.986	66.6
1003.149	56.14
1003.311	61.37
1003.473	88.88
1003.636	31.53
1003.798	66.02
1003.96	87.14
1004.123	48.39
1004.285	25.14
1004.447	47.81
1004.609	61.76
1004.771	114.26
1004.933	31.53
1005.096	29.01
1005.258	21.46
1005.42	30.95
1005.582	102.25
1005.744	87.91
1005.906	21.26
1006.068	54.01
1006.23	-7.22
1006.392	-5.09
1006.554	18.36
1006.716	63.31
1006.878	45.09
1007.04	29.98
1007.202	40.06
1007.363	39.09
1007.525	66.02
1007.687	51.68
1007.849	98.18
1008.011	12.55
1008.172	14.48
1008.334	25.91
1008.496	65.05
1008.658	16.42
1008.819	15.65
1008.981	7.12
1009.143	43.74
1009.304	-4.12
1009.466	67.38
1009.627	93.14
1009.789	143.52
1009.95	60.01
1010.112	37.15
1010.273	42.58
1010.435	44.71
1010.596	30.56
1010.758	15.06
1010.919	24.56
1011.081	-14.39
1011.242	48.78
1011.403	78.81
1011.565	41.03
1011.726	72.03
1011.887	18.36
1012.049	55.56
1012.21	59.24
1012.371	95.08
1012.532	-36.28
1012.693	26.49
1012.855	11.96
1013.016	43.54
1013.177	72.99
1013.338	41.03
1013.499	108.06
1013.66	52.07
1013.821	70.67
1013.982	41.99
1014.143	67.38
1014.304	27.46
1014.465	56.14
1014.626	55.36
1014.787	40.25
1014.948	114.65
1015.109	-3.92
1015.27	93.34
1015.431	30.56
1015.592	13.71
1015.752	88.3
1015.913	46.06
1016.074	52.65
1016.235	33.86
1016.395	26.11
1016.556	49.16
1016.717	23.98
1016.877	60.79
1017.038	18.75
1017.199	46.45
1017.359	41.22
1017.52	30.76
1017.681	14.87
1017.841	31.53
1018.002	46.64
1018.162	30.95
1018.323	96.44
1018.483	37.15
1018.644	31.73
1018.804	-8.96
1018.964	17
1019.125	14.48
1019.285	47.23
1019.446	-4.7
1019.606	-16.13
1019.766	1.31
1019.926	23.39
1020.087	45.29
1020.247	-11.09
1020.407	46.64
1020.567	67.96
1020.728	21.26
1020.888	-9.54
1021.048	6.93
1021.208	21.84
1021.368	-12.84
1021.528	48.39
1021.688	54.78
1021.848	55.56
1022.008	29.21
1022.168	34.44
1022.328	32.5
1022.488	54.59
1022.648	-6.83
1022.808	34.05
1022.968	37.54
1023.128	3.05
1023.288	19.91
1023.448	15.26
1023.608	31.53
1023.767	31.34
1023.927	-14
1024.087	-11.48
1024.247	-20
1024.406	31.34
1024.566	9.06
1024.726	17.2
1024.885	49.36
1025.045	39.86
1025.205	37.54
1025.364	12.93
1025.524	16.42
1025.683	17.58
1025.843	35.79
1026.003	27.66
1026.162	56.33
1026.321	62.34
1026.481	10.03
1026.64	6.73
1026.8	14.87
1026.959	56.33
1027.119	23.39
1027.278	18.75
1027.437	11.77
1027.597	41.41
1027.756	27.27
1027.915	30.95
1028.074	50.71
1028.234	-0.44
1028.393	61.37
1028.552	-4.5
1028.711	-33.95
1028.87	60.4
1029.03	19.52
1029.189	20.68
1029.348	-36.09
1029.507	-3.92
1029.666	11.58
1029.825	-2.57
1029.984	2.86
1030.143	37.93
1030.302	29.21
1030.461	-25.04
1030.62	28.24
1030.779	41.03
1030.938	-1.99
1031.097	-14.19
1031.255	20.88
1031.414	59.43
1031.573	31.73
1031.732	-16.9
1031.891	12.16
1032.049	23.39
1032.208	50.91
1032.367	-12.25
1032.525	38.7
1032.684	8.48
1032.843	41.41
1033.001	-13.42
1033.16	143.91
1033.319	66.79
1033.477	41.22
1033.636	8.09
1033.794	-8.96
1033.953	53.04
1034.111	36.76
1034.27	-13.8
1034.428	35.79
1034.587	-6.44
1034.745	35.6
1034.903	20.68
1035.062	60.59
1035.22	-13.42
1035.378	30.18
1035.537	-27.75
1035.695	17.78
1035.853	27.08
1036.011	62.53
1036.17	28.43
1036.328	-40.54
1036.486	47.03
1036.644	7.51
1036.802	-45.19
1036.96	-16.32
1037.119	3.25
1037.277	2.86
1037.435	-34.73
1037.593	-19.04
1037.751	21.46
1037.909	34.24
1038.067	34.24
