Data from gum_young_FLMT105791__53__17-39-11-035.txt Node

Date: Mon Mar 20 17:39:11 GMT 2023
User: antho
Spectrometer: FLMT10579
Trigger mode: 0
Integration Time (sec): 1.000000E-1
Scans to average: 10
Electric dark correction enabled: true
Nonlinearity correction enabled: false
Boxcar width: 0
XAxis mode: Wavelengths
Number of Pixels in Spectrum: 3648
>>>>>Begin Spectral Data<<<<<
345.248	-150.69
345.464	-150.69
345.681	-150.69
345.898	-138.29
346.114	-135.19
346.331	-44.32
346.548	34.92
346.764	12.45
346.981	-12.93
347.197	6.05
347.414	-8.86
347.631	-35.6
347.847	71.15
348.064	-5.38
348.28	46.55
348.497	-47.42
348.713	-16.61
348.93	50.23
349.146	15.55
349.363	-15.06
349.579	36.28
349.796	9.54
350.012	14
350.229	35.31
350.445	7.99
350.661	-15.65
350.878	7.99
351.094	11.67
351.311	26.59
351.527	46.74
351.743	-3.25
351.96	26.79
352.176	18.07
352.392	34.92
352.609	49.45
352.825	-24.17
353.041	-0.15
353.257	20
353.474	30.85
353.69	18.26
353.906	-0.73
354.122	12.25
354.339	62.24
354.555	9.74
354.771	-2.08
354.987	72.51
355.203	52.17
355.42	0.82
355.636	1.99
355.852	-4.6
356.068	18.45
356.284	-20.3
356.5	37.64
356.716	50.42
356.932	-0.92
357.148	24.46
357.364	9.74
357.58	56.82
357.796	48.49
358.012	42.87
358.228	23.49
358.444	-30.56
358.66	51.59
358.876	27.75
359.092	-13.13
359.308	49.45
359.524	47.52
359.74	-2.28
359.956	-3.83
360.172	18.26
360.388	33.57
360.604	10.9
360.819	56.62
361.035	20.2
361.251	5.67
361.467	-9.64
361.683	46.35
361.898	38.6
362.114	35.5
362.33	25.04
362.546	30.47
362.762	15.55
362.977	16.52
363.193	-4.8
363.409	53.52
363.624	-31.14
363.84	29.69
364.056	-3.44
364.271	32.4
364.487	23.49
364.703	-13.9
364.918	-12.74
365.134	2.37
365.35	23.88
365.565	113.39
365.781	23.3
365.996	28.34
366.212	75.42
366.427	45.77
366.643	-22.23
366.858	16.71
367.074	-0.15
367.289	61.47
367.505	109.32
367.72	-21.07
367.936	4.89
368.151	47.13
368.367	26.2
368.582	23.1
368.798	27.37
369.013	63.79
369.228	24.27
369.444	26.59
369.659	57.79
369.874	26.4
370.09	63.6
370.305	-31.34
370.52	21.55
370.736	69.02
370.951	19.23
371.166	55.65
371.381	66.7
371.597	49.26
371.812	8.96
372.027	-9.06
372.242	10.7
372.458	81.23
372.673	26.2
372.888	31.05
373.103	58.75
373.318	100.22
373.533	25.43
373.749	61.47
373.964	-36.18
374.179	38.99
374.394	-4.6
374.609	65.15
374.824	-9.25
375.039	77.74
375.254	10.12
375.469	50.23
375.684	30.66
375.899	43.64
376.114	19.62
376.329	15.16
376.544	30.27
376.759	56.62
376.974	-3.44
377.189	22.91
377.404	14.19
377.619	48.87
377.834	-31.53
378.049	-9.45
378.264	-7.31
378.478	12.25
378.693	5.28
378.908	11.09
379.123	19.04
379.338	76.38
379.553	32.6
379.767	27.95
379.982	51
380.197	28.72
380.412	30.27
380.626	13.61
380.841	104.09
381.056	40.15
381.271	94.6
381.485	-3.44
381.7	18.45
381.915	42.09
382.129	12.06
382.344	47.9
382.559	30.27
382.773	51.78
382.988	-17.97
383.202	18.84
383.417	1.02
383.632	110.87
383.846	14
384.061	47.71
384.275	26.4
384.49	39.38
384.704	39.19
384.919	47.13
385.133	-5.18
385.348	65.92
385.562	15.55
385.777	57.79
385.991	17.29
386.206	2.37
386.42	-14.1
386.634	64.76
386.849	15.74
387.063	21.17
387.277	-6.15
387.492	6.25
387.706	25.82
387.92	14.77
388.135	47.9
388.349	38.8
388.563	62.44
388.778	42.67
388.992	77.74
389.206	53.91
389.42	110.29
389.635	29.89
389.849	55.27
390.063	92.85
390.277	50.04
390.491	71.35
390.706	43.06
390.92	58.75
391.134	43.45
391.348	67.08
391.562	-10.41
391.776	34.73
391.99	9.54
392.205	55.46
392.419	2.57
392.633	45.97
392.847	61.27
393.061	-4.6
393.275	69.6
393.489	47.71
393.703	75.22
393.917	92.47
394.131	13.61
394.345	48.1
394.559	66.31
394.773	28.14
394.986	35.12
395.2	56.24
395.414	62.05
395.628	16.32
395.842	37.05
396.056	35.5
396.27	10.9
396.484	54.3
396.697	70.18
396.911	69.99
397.125	70.38
397.339	68.83
397.553	72.32
397.766	110.1
397.98	98.28
398.194	79.68
398.408	29.69
398.621	90.14
398.835	71.93
399.049	93.24
399.262	118.62
399.476	81.42
399.69	72.9
399.903	119.59
400.117	39.57
400.331	79.1
400.544	46.55
400.758	161.63
400.971	55.27
401.185	91.11
401.398	45
401.612	120.95
401.826	93.43
402.039	71.35
402.253	74.25
402.466	76.38
402.68	59.14
402.893	75.42
403.106	86.07
403.32	70.38
403.533	98.67
403.747	87.82
403.96	70.18
404.174	110.48
404.387	48.49
404.6	78.32
404.814	102.54
405.027	87.04
405.24	83.36
405.454	75.42
405.667	107
405.88	9.54
406.094	95.57
406.307	86.07
406.52	98.28
406.733	49.45
406.947	14
407.16	130.83
407.373	121.33
407.586	84.33
407.799	52.94
408.012	128.5
408.226	83.55
408.439	155.43
408.652	66.7
408.865	88.4
409.078	130.63
409.291	99.44
409.504	69.02
409.717	107
409.93	120.37
410.143	83.17
410.357	27.56
410.57	51.97
410.783	68.05
410.996	97.5
411.209	75.42
411.421	121.92
411.634	92.47
411.847	61.08
412.06	73.67
412.273	82.2
412.486	109.9
412.699	181.01
412.912	87.04
413.125	108.93
413.338	77.55
413.55	129.47
413.763	78.52
413.976	102.73
414.189	108.74
414.402	97.5
414.615	159.89
414.827	77.16
415.04	122.69
415.253	98.86
415.466	128.89
415.678	168.61
415.891	99.25
416.104	84.33
416.316	97.5
416.529	69.99
416.742	131.02
416.954	148.07
417.167	129.67
417.38	88.98
417.592	145.36
417.805	58.95
418.017	57.59
418.23	105.83
418.442	80.26
418.655	91.3
418.868	104.28
419.08	146.72
419.293	127.15
419.505	110.87
419.718	117.65
419.93	151.17
420.142	81.03
420.355	152.72
420.567	151.75
420.78	138.58
420.992	130.63
421.205	151.56
421.417	93.82
421.629	102.73
421.842	86.27
422.054	91.88
422.266	145.94
422.479	172.87
422.691	97.12
422.903	139.35
423.115	99.83
423.328	118.82
423.54	139.35
423.752	119.78
423.964	86.85
424.177	143.23
424.389	99.05
424.601	204.45
424.813	135.87
425.025	140.32
425.238	171.71
425.45	117.46
425.662	101.77
425.874	381.34
426.086	129.86
426.298	150.2
426.51	146.52
426.722	148.65
426.934	101.18
427.146	145.75
427.358	103.9
427.57	173.84
427.782	106.61
427.994	119.59
428.206	117.27
428.418	89.17
428.63	158.92
428.842	126.95
429.054	161.63
429.266	153.88
429.478	107.19
429.69	129.47
429.902	86.85
430.114	163.57
430.325	116.68
430.537	98.28
430.749	104.09
430.961	74.25
431.173	109.52
431.384	113.58
431.596	41.51
431.808	147.49
432.02	136.83
432.231	169.77
432.443	171.9
432.655	157.76
432.867	111.45
433.078	128.89
433.29	194.18
433.502	198.25
433.713	198.64
433.925	175.39
434.136	174.61
434.348	128.12
434.56	125.02
434.771	237.58
434.983	118.82
435.194	112.42
435.406	152.33
435.617	193.41
435.829	221.5
436.04	177.13
436.252	162.41
436.463	242.43
436.675	188.18
436.886	197.48
437.098	202.51
437.309	242.81
437.521	156.21
437.732	181.98
437.943	154.46
438.155	170.74
438.366	159.5
438.578	233.32
438.789	207.16
439	173.84
439.211	159.89
439.423	179.46
439.634	184.3
439.845	189.15
440.057	185.08
440.268	209.3
440.479	147.68
440.69	196.7
440.902	171.51
441.113	162.6
441.324	151.56
441.535	205.81
441.746	244.75
441.957	163.76
442.168	187.6
442.38	227.31
442.591	245.53
442.802	164.35
443.013	185.46
443.224	193.8
443.435	181.2
443.646	189.34
443.857	206.97
444.068	202.32
444.279	166.48
444.49	265.09
444.701	220.15
444.912	289.12
445.123	251.34
445.334	223.44
445.545	213.95
445.756	212.78
445.967	186.43
446.178	211.23
446.388	250.95
446.599	244.56
446.81	218.01
447.021	188.56
447.232	265.68
447.443	271.49
447.653	191.66
447.864	262.38
448.075	210.85
448.286	256.76
448.496	243.2
448.707	262.38
448.918	214.91
449.129	316.83
449.339	208.71
449.55	256.96
449.761	234.1
449.971	296.09
450.182	216.46
450.393	284.86
450.603	221.31
450.814	287.76
451.024	270.52
451.235	269.94
451.446	309.66
451.656	302.1
451.867	215.88
452.077	270.33
452.288	288.15
452.498	294.93
452.709	230.22
452.919	299.78
453.13	227.12
453.34	275.75
453.55	226.54
453.761	276.91
453.971	275.56
454.182	299.58
454.392	285.24
454.602	332.91
454.813	306.56
455.023	326.9
455.233	252.89
455.444	282.73
455.654	232.74
455.864	254.63
456.075	249.98
456.285	244.94
456.495	268.97
456.705	290.67
456.916	328.06
457.126	326.51
457.336	267.81
457.546	240.88
457.756	307.14
457.967	323.61
458.177	257.54
458.387	303.84
458.597	261.99
458.807	245.33
459.017	276.33
459.227	254.83
459.437	280.79
459.647	311.59
459.857	293.77
460.068	274.78
460.278	331.94
460.488	330.19
460.698	315.86
460.908	311.98
461.117	271.1
461.327	262.96
461.537	268.19
461.747	330.19
461.957	271.1
462.167	400.91
462.377	342.01
462.587	308.69
462.797	343.56
463.007	282.14
463.216	302.88
463.426	353.06
463.636	340.85
463.846	271.29
464.056	286.41
464.265	331.55
464.475	298.03
464.685	301.91
464.895	325.16
465.104	302.49
465.314	336.2
465.524	290.67
465.733	293.77
465.943	392.19
466.153	405.56
466.362	342.59
466.572	351.7
466.782	304.62
466.991	322.44
467.201	385.8
467.41	282.34
467.62	346.86
467.829	321.48
468.039	358.87
468.249	323.22
468.458	346.47
468.668	364.87
468.877	361
469.086	391.22
469.296	383.47
469.505	332.13
469.715	403.43
469.924	350.34
470.134	390.06
470.343	401.88
470.552	354.61
470.762	346.47
470.971	332.32
471.18	356.16
471.39	350.73
471.599	347.05
471.808	373.01
472.018	350.73
472.227	388.51
472.436	421.45
472.645	367.39
472.855	339.69
473.064	398.78
473.273	385.61
473.482	379.41
473.691	430.55
473.901	413.31
474.11	409.63
474.319	481.32
474.528	427.45
474.737	426.29
474.946	423.77
475.155	411.76
475.364	444.5
475.573	413.89
475.783	413.31
475.992	426.49
476.201	454.39
476.41	408.08
476.619	366.42
476.828	425.32
477.037	425.32
477.245	407.89
477.454	451.29
477.663	425.13
477.872	428.81
478.081	481.32
478.29	412.54
478.499	537.12
478.708	449.74
478.917	524.13
479.125	458.84
479.334	452.84
479.543	460.78
479.752	472.4
479.961	487.32
480.169	534.02
480.378	492.36
480.587	586.33
480.796	508.44
481.004	474.34
481.213	530.72
481.422	523.75
481.63	501.08
481.839	533.82
482.048	570.63
482.256	501.47
482.465	550.87
482.674	554.55
482.882	557.65
483.091	630.5
483.299	525.49
483.508	552.03
483.716	521.03
483.925	560.56
484.134	503.4
484.342	550.1
484.551	585.75
484.759	562.5
484.967	599.89
485.176	582.45
485.384	589.62
485.593	604.15
485.801	555.72
486.01	577.42
486.218	540.02
486.426	493.14
486.635	516.38
486.843	490.42
487.051	538.08
487.26	522
487.468	567.15
487.676	576.64
487.885	562.5
488.093	565.02
488.301	597.18
488.509	635.15
488.717	652.2
488.926	626.43
489.134	581.1
489.342	573.15
489.55	566.57
489.758	630.5
489.967	600.47
490.175	659.37
490.383	624.5
490.591	696.76
490.799	602.6
491.007	682.04
491.215	660.34
491.423	644.26
491.631	662.08
491.839	653.36
492.047	688.82
492.255	633.99
492.463	595.63
492.671	632.44
492.879	713.23
493.087	672.74
493.295	683.01
493.503	689.01
493.711	722.73
493.919	698.12
494.127	712.26
494.334	716.91
494.542	650.26
494.75	699.86
494.958	702.19
495.166	760.31
495.374	738.61
495.581	736.68
495.789	748.49
495.997	774.65
496.205	751.4
496.412	748.88
496.62	721.76
496.828	756.44
497.035	727.57
497.243	769.61
497.451	775.81
497.658	768.64
497.866	762.25
498.074	830.45
498.281	745.78
498.489	832.58
498.696	761.67
498.904	760.51
499.112	726.99
499.319	836.84
499.527	775.23
499.734	827.54
499.942	768.64
500.149	769.42
500.357	809.14
500.564	763.22
500.771	810.49
500.979	779.11
501.186	777.36
501.394	782.98
501.601	786.08
501.808	819.21
502.016	796.16
502.223	777.94
502.43	790.73
502.638	794.99
502.845	769.42
503.052	861.84
503.26	816.89
503.467	879.85
503.674	849.05
503.881	871.72
504.089	893.42
504.296	866.49
504.503	834.13
504.71	873.27
504.917	828.12
505.125	870.17
505.332	877.92
505.539	894.39
505.746	951.73
505.953	944.18
506.16	929.45
506.367	958.9
506.574	996.88
506.781	964.72
506.988	930.42
507.195	962.78
507.402	955.42
507.609	962.97
507.816	958.71
508.023	939.14
508.23	969.37
508.437	935.07
508.644	987.58
508.851	1024
509.058	1016.64
509.265	969.75
509.472	1013.93
509.679	1107.7
509.885	1035.63
510.092	1056.16
510.299	1009.47
510.506	1057.71
510.713	1052.87
510.92	1057.52
511.126	1098.79
511.333	1123.98
511.54	1085.81
511.746	1149.16
511.953	1126.3
512.16	1167.76
512.367	1145.09
512.573	1126.69
512.78	1131.92
512.987	1139.09
513.193	1128.63
513.4	1032.53
513.606	1110.22
513.813	1154.2
514.02	1158.46
514.226	1201.86
514.433	1234.8
514.639	1112.35
514.846	1165.24
515.052	1136.38
515.259	1182.68
515.465	1234.8
515.672	1209.22
515.878	1300.87
516.085	1223.17
516.291	1264.64
516.497	1199.54
516.704	1207.09
516.91	1159.43
517.117	1164.28
517.323	1135.02
517.529	1131.14
517.736	1131.73
517.942	1155.17
518.148	1166.79
518.354	1234.41
518.561	1266.96
518.767	1207.48
518.973	1251.46
519.179	1273.94
519.386	1281.49
519.592	1283.24
519.798	1277.23
520.004	1426.42
520.21	1323.54
520.417	1391.35
520.623	1433.2
520.829	1448.7
521.035	1444.63
521.241	1440.37
521.447	1474.85
521.653	1599.43
521.859	1478.53
522.065	1495.97
522.271	1600.98
522.477	1557.97
522.683	1579.67
522.889	1569.21
523.095	1555.45
523.301	1546.73
523.507	1534.72
523.713	1569.21
523.919	1545.18
524.125	1604.86
524.331	1611.64
524.537	1689.72
524.742	1657.56
524.948	1703.86
525.154	1720.14
525.36	1778.07
525.566	1675.96
525.772	1729.44
525.977	1690.69
526.183	1706.96
526.389	1743.39
526.595	1662.01
526.8	1667.63
527.006	1611.83
527.212	1590.13
527.417	1580.44
527.623	1555.45
527.829	1661.04
528.034	1686.62
528.24	1687.2
528.446	1705.22
528.651	1809.45
528.857	1772.45
529.062	1880.75
529.268	1829.6
529.473	1855.57
529.679	1856.15
529.884	1890.05
530.09	1870.29
530.295	1909.04
530.501	1901.48
530.706	1893.15
530.912	1848.98
531.117	1934.23
531.323	1894.9
531.528	1956.51
531.733	1960.77
531.939	1956.7
532.144	1975.88
532.35	1945.08
532.555	1976.85
532.76	1975.3
532.966	1935
533.171	1929.19
533.376	1857.89
533.581	1885.79
533.787	1931.9
533.992	1999.13
534.197	1947.6
534.402	1964.84
534.607	1988.48
534.813	2049.12
535.018	1968.52
535.223	2010.18
535.428	2028.39
535.633	2062.29
535.838	2077.02
536.043	2102.21
536.249	2192.1
536.454	2085.16
536.659	2109.76
536.864	2071.98
537.069	2051.25
537.274	2082.06
537.479	2048.93
537.684	2107.05
537.889	2027.23
538.094	2158.2
538.299	2077.99
538.504	2148.71
538.708	2139.41
538.913	2136.11
539.118	2177.77
539.323	2139.21
539.528	2066.94
539.733	2106.27
539.938	2141.73
540.142	2115.96
540.347	2085.54
540.552	2074.69
540.757	2068.3
540.962	2086.51
541.166	2065.78
541.371	2021.41
541.576	2080.12
541.781	2016.96
541.985	2113.06
542.19	2103.56
542.395	2213.42
542.599	2177.19
542.804	2140.76
543.008	2212.25
543.213	2155.68
543.418	2110.92
543.622	2155.1
543.827	2097.94
544.031	2214.19
544.236	2195.98
544.44	2226.98
544.645	2266.5
544.849	2172.73
545.054	2237.64
545.258	2281.42
545.463	2238.6
545.667	2196.17
545.872	2258.17
546.076	2222.72
546.281	2254.3
546.485	2247.52
546.689	2233.57
546.894	2251.58
547.098	2257.59
547.302	2191.52
547.507	2198.5
547.711	2274.25
547.915	2262.43
548.119	2185.9
548.324	2224.46
548.528	2281.62
548.732	2233.95
548.936	2299.63
549.141	2287.23
549.345	2237.64
549.549	2265.73
549.753	2286.65
549.957	2361.63
550.161	2324.43
550.366	2323.66
550.57	2261.27
550.774	2309.71
550.978	2308.74
551.182	2306.61
551.386	2243.06
551.59	2255.46
551.794	2264.18
551.998	2258.17
552.202	2286.85
552.406	2261.27
552.61	2324.63
552.814	2300.99
553.018	2373.45
553.222	2258.56
553.426	2294.6
553.63	2338.19
553.833	2319.98
554.037	2203.73
554.241	2314.94
554.445	2279.87
554.649	2267.67
554.853	2281.23
555.056	2350.78
555.26	2373.26
555.464	2294.4
555.668	2329.86
555.871	2355.05
556.075	2335.09
556.279	2278.13
556.483	2233.37
556.686	2265.92
556.89	2277.74
557.094	2295.95
557.297	2195.59
557.501	2265.73
557.704	2179.7
557.908	2280.07
558.112	2210.51
558.315	2292.85
558.519	2224.27
558.722	2179.12
558.926	2183.97
559.129	2102.4
559.333	2100.46
559.536	2132.24
559.74	2090.19
559.943	2101.24
560.147	2131.46
560.35	2128.75
560.553	2111.31
560.757	2117.32
560.96	2194.62
561.164	2144.44
561.367	2242.67
561.57	2182.03
561.774	2159.17
561.977	2124.87
562.18	2119.06
562.384	2146.19
562.587	2123.52
562.79	2135.72
562.993	2096.2
563.197	2142.31
563.4	2195.79
563.603	2141.34
563.806	2198.11
564.009	2085.54
564.212	2138.24
564.416	2066.36
564.619	2107.05
564.822	2046.02
565.025	2120.61
565.228	2068.11
565.431	2119.45
565.634	1984.8
565.837	2022.77
566.04	2030.91
566.243	2021.8
566.446	1912.91
566.649	2009.59
566.852	1939.07
567.055	1967.75
567.258	1981.89
567.461	1985.76
567.664	2031.29
567.867	1954.76
568.07	1984.02
568.273	1967.55
568.475	2043.69
568.678	1930.35
568.881	1928.8
569.084	1909.23
569.287	1831.54
569.489	1874.55
569.692	1924.73
569.895	1927.83
570.098	1825.15
570.3	1830.38
570.503	1776.71
570.706	1851.88
570.909	1786.01
571.111	1776.9
571.314	1717.42
571.516	1788.34
571.719	1791.82
571.922	1750.36
572.124	1760.63
572.327	1800.15
572.529	1708.9
572.732	1733.7
572.935	1789.11
573.137	1853.43
573.34	1736.6
573.542	1766.83
573.745	1736.6
573.947	1733.12
574.15	1742.03
574.352	1701.92
574.554	1797.64
574.757	1692.62
574.959	1670.34
575.162	1700.57
575.364	1679.45
575.566	1767.8
575.769	1637.02
575.971	1674.22
576.173	1589.94
576.376	1640.12
576.578	1711.61
576.78	1702.7
576.982	1610.28
577.185	1646.51
577.387	1586.45
577.589	1590.13
577.791	1662.4
577.993	1635.28
578.196	1615.51
578.398	1641.67
578.6	1662.98
578.802	1578.7
579.004	1535.69
579.206	1575.21
579.408	1604.28
579.61	1583.35
579.812	1649.42
580.014	1578.31
580.216	1598.27
580.418	1587.61
580.62	1587.03
580.822	1564.56
581.024	1613.58
581.226	1642.44
581.428	1608.34
581.63	1643.99
581.832	1573.86
582.034	1614.16
582.236	1590.52
582.438	1637.02
582.64	1631.4
582.841	1668.6
583.043	1721.69
583.245	1645.54
583.447	1667.44
583.649	1635.28
583.85	1620.36
584.052	1650.19
584.254	1579.48
584.456	1629.27
584.657	1570.18
584.859	1631.4
585.061	1583.35
585.262	1575.02
585.464	1568.82
585.666	1604.08
585.867	1573.08
586.069	1603.89
586.27	1576.57
586.472	1612.61
586.674	1534.72
586.875	1549.83
587.077	1565.14
587.278	1579.86
587.48	1558.94
587.681	1667.05
587.883	1547.12
588.084	1455.67
588.285	1507.6
588.487	1476.01
588.688	1478.53
588.89	1442.5
589.091	1384.57
589.292	1408.78
589.494	1360.93
589.695	1335.35
589.896	1253.98
590.098	1295.05
590.299	1329.35
590.5	1338.45
590.702	1358.41
590.903	1365.39
591.104	1420.99
591.305	1392.12
591.507	1472.91
591.708	1436.1
591.909	1410.53
592.11	1468.85
592.311	1438.04
592.512	1375.27
592.714	1382.63
592.915	1369.84
593.116	1393.67
593.317	1430.87
593.518	1388.25
593.719	1421.57
593.92	1446.95
594.121	1451.8
594.322	1431.07
594.523	1430.1
594.724	1360.54
594.925	1382.05
595.126	1407.04
595.327	1413.82
595.528	1409.95
595.729	1383.21
595.929	1392.7
596.13	1390.96
596.331	1381.85
596.532	1412.08
596.733	1466.52
596.934	1454.9
597.135	1436.1
597.335	1415.37
597.536	1387.67
597.737	1393.87
597.938	1400.07
598.138	1406.85
598.339	1398.13
598.54	1421.96
598.74	1352.02
598.941	1425.25
599.142	1448.5
599.342	1411.69
599.543	1357.44
599.744	1376.82
599.944	1346.79
600.145	1364.42
600.345	1389.22
600.546	1448.7
600.746	1424.87
600.947	1490.93
601.147	1357.25
601.348	1426.42
601.548	1355.31
601.749	1400.26
601.949	1359.38
602.15	1393.28
602.35	1377.59
602.551	1386.5
602.751	1370.04
602.951	1358.6
603.152	1338.45
603.352	1406.46
603.552	1384.57
603.753	1412.66
603.953	1421.57
604.153	1350.66
604.354	1362.87
604.554	1365
604.754	1389.8
604.954	1306.49
605.155	1389.02
605.355	1355.5
605.555	1403.36
605.755	1425.06
605.955	1364.61
606.155	1411.88
606.356	1378.95
606.556	1371.97
606.756	1372.17
606.956	1330.12
607.156	1382.05
607.356	1332.45
607.556	1370.04
607.756	1328.57
607.956	1387.08
608.156	1345.43
608.356	1294.09
608.556	1365.97
608.756	1322.18
608.956	1318.89
609.156	1315.4
609.356	1315.98
609.556	1279.36
609.755	1321.79
609.955	1290.99
610.155	1330.51
610.355	1320.24
610.555	1274.71
610.755	1286.72
610.954	1243.32
611.154	1314.04
611.354	1329.74
611.554	1265.02
611.753	1290.02
611.953	1218.91
612.153	1283.62
612.352	1257.66
612.552	1207.48
612.752	1168.54
612.951	1277.62
613.151	1275.1
613.351	1238.29
613.55	1240.42
613.75	1249.14
613.949	1227.82
614.149	1267.54
614.348	1220.27
614.548	1178.61
614.747	1172.03
614.947	1206.9
615.146	1176.68
615.346	1230.34
615.545	1253.59
615.745	1209.22
615.944	1256.89
616.144	1190.24
616.343	1203.8
616.542	1172.41
616.742	1205.16
616.941	1176.09
617.14	1115.84
617.34	1168.73
617.539	1188.49
617.738	1146.45
617.938	1229.76
618.137	1192.95
618.336	1142.58
618.535	1186.36
618.734	1178.03
618.934	1189.85
619.133	1169.51
619.332	1183.07
619.531	1125.91
619.73	1183.84
619.929	1200.89
620.128	1169.7
620.328	1195.86
620.527	1127.66
620.726	1152.26
620.925	1153.81
621.124	1110.61
621.323	1141.61
621.522	1111.58
621.721	1129.79
621.92	1085.23
622.119	1146.45
622.318	1080
622.517	1119.13
622.715	1091.04
622.914	1085.23
623.113	1110.22
623.312	1042.21
623.511	1116.81
623.71	1061.98
623.909	1078.25
624.107	1170.48
624.306	1032.91
624.505	1068.95
624.704	1048.8
624.902	1063.14
625.101	1119.71
625.3	1080
625.499	1039.89
625.697	1045.9
625.896	1025.94
626.095	1052.1
626.293	999.78
626.492	1035.63
626.69	1078.06
626.889	1033.5
627.088	1093.75
627.286	1026.13
627.485	1018.97
627.683	1029.04
627.882	992.81
628.08	960.65
628.279	961.23
628.477	1026.91
628.676	932.94
628.874	990.29
629.073	951.93
629.271	946.5
629.469	1018.19
629.668	990.48
629.866	974.4
630.065	986.22
630.263	992.42
630.461	963.75
630.66	996.88
630.858	1019.35
631.056	1045.31
631.254	1048.8
631.453	987.97
631.651	1033.3
631.849	995.52
632.047	1025.94
632.245	993
632.444	981.57
632.642	1033.3
632.84	1026.33
633.038	995.13
633.236	982.54
633.434	964.52
633.632	969.37
633.83	987.19
634.028	1038.53
634.227	993
634.425	1077.67
634.623	984.48
634.821	1024.58
635.019	992.03
635.216	995.13
635.414	1031.95
635.612	1009.28
635.81	979.44
636.008	1070.5
636.206	992.81
636.404	1017.42
636.602	974.02
636.8	973.24
636.997	1015.87
637.195	1018.19
637.393	1001.53
637.591	1042.99
637.789	994.75
637.986	984.28
638.184	1002.3
638.382	1060.81
638.58	996.49
638.777	1073.02
638.975	999.4
639.173	1000.56
639.37	974.02
639.568	998.62
639.765	1053.84
639.963	980.02
640.161	1005.6
640.358	1030.01
640.556	955.22
640.753	926.35
640.951	929.84
641.148	971.88
641.346	954.64
641.543	948.83
641.741	976.34
641.938	916.28
642.136	941.27
642.333	900.97
642.531	966.27
642.728	969.56
642.925	920.35
643.123	919.96
643.32	928.1
643.517	911.44
643.715	970.72
643.912	894.58
644.109	925
644.306	892.84
644.504	862.03
644.701	910.27
644.898	915.5
645.095	871.91
645.293	902.14
645.49	903.49
645.687	896.52
645.884	895.35
646.081	814.95
646.278	863.19
646.475	844.4
646.672	860.29
646.87	887.99
647.067	850.41
647.264	840.33
647.461	805.65
647.658	784.53
647.855	846.53
648.052	794.22
648.249	733.96
648.446	784.53
648.642	765.16
648.839	788.02
649.036	751.98
649.233	773.1
649.43	734.35
649.627	688.43
649.824	780.27
650.021	731.64
650.217	726.99
650.414	775.42
650.611	788.79
650.808	792.47
651.004	778.72
651.201	802.36
651.398	826.57
651.595	778.14
651.791	765.35
651.988	817.08
652.185	751.21
652.381	775.42
652.578	709.16
652.775	734.93
652.971	758.18
653.168	766.51
653.364	822.51
653.561	708.78
653.757	744.81
653.954	780.66
654.15	753.73
654.347	806.62
654.543	741.33
654.74	706.06
654.936	675.45
655.133	725.63
655.329	732.03
655.525	715.94
655.722	733.77
655.918	679.71
656.115	697.15
656.311	661.11
656.507	608.8
656.704	583.42
656.9	642.51
657.096	615.2
657.292	617.33
657.489	693.86
657.685	683.01
657.881	649.49
658.077	658.6
658.273	703.93
658.47	745.39
658.666	683.98
658.862	737.06
659.058	710.13
659.254	723.89
659.45	682.43
659.646	720.98
659.842	714.98
660.038	731.83
660.234	650.46
660.43	693.28
660.626	753.34
660.822	748.11
661.018	723.11
661.214	686.11
661.41	629.73
661.606	694.83
661.802	720.4
661.998	654.72
662.194	645.81
662.39	705.48
662.586	671
662.781	704.13
662.977	674.29
663.173	704.13
663.369	662.47
663.564	674.1
663.76	717.88
663.956	657.82
664.152	684.94
664.347	628.18
664.543	640.38
664.739	674.1
664.934	585.17
665.13	605.51
665.326	663.63
665.521	659.18
665.717	623.14
665.912	592.33
666.108	553
666.304	603.38
666.499	611.51
666.695	609.19
666.89	600.86
667.086	648.71
667.281	644.84
667.477	678.55
667.672	617.33
667.867	609.96
668.063	623.53
668.258	551.26
668.454	590.4
668.649	655.69
668.844	609
669.04	614.03
669.235	602.02
669.43	567.53
669.626	568.7
669.821	605.51
670.016	561.92
670.211	586.91
670.407	553.97
670.602	583.42
670.797	593.3
670.992	614.03
671.187	574.32
671.382	607.45
671.578	574.9
671.773	587.49
671.968	543.12
672.163	580.32
672.358	591.17
672.553	554.17
672.748	560.37
672.943	634.18
673.138	563.66
673.333	605.12
673.528	553
673.723	578
673.918	551.65
674.113	515.61
674.308	635.93
674.503	596.21
674.698	589.23
674.892	596.4
675.087	579.35
675.282	572.96
675.477	542.15
675.672	570.44
675.867	543.9
676.061	525.3
676.256	507.86
676.451	559.78
676.646	550.29
676.84	520.07
677.035	518.9
677.23	502.82
677.424	587.88
677.619	570.83
677.814	576.25
678.008	579.93
678.203	505.92
678.397	519.68
678.592	556.1
678.787	600.47
678.981	567.15
679.176	578.38
679.37	553.78
679.565	536.53
679.759	544.67
679.954	583.03
680.148	610.93
680.342	616.16
680.537	554.17
680.731	538.86
680.926	589.04
681.12	592.91
681.314	554.17
681.509	542.15
681.703	601.25
681.897	589.23
682.092	546.8
682.286	534.4
682.48	616.55
682.674	595.05
682.869	600.28
683.063	576.06
683.257	621.2
683.451	566.57
683.645	598.34
683.839	552.03
684.034	590.4
684.228	622.75
684.422	533.43
684.616	548.35
684.81	614.23
685.004	595.82
685.198	579.93
685.392	613.65
685.586	536.34
685.78	592.33
685.974	644.84
686.168	608.8
686.362	655.11
686.556	565.02
686.75	529.37
686.944	548.35
687.138	567.15
687.331	471.24
687.525	506.12
687.719	425.32
687.913	472.79
688.107	474.73
688.301	474.73
688.494	527.62
688.688	467.56
688.882	458.07
689.076	463.69
689.269	507.86
689.463	579.74
689.657	516.58
689.85	535.95
690.044	562.88
690.238	544.09
690.431	563.27
690.625	545.45
690.818	591.17
691.012	596.21
691.205	644.06
691.399	589.04
691.593	650.07
691.786	708.58
691.98	695.02
692.173	695.02
692.366	703.16
692.56	722.73
692.753	784.72
692.947	673.9
693.14	771.74
693.333	776.78
693.527	730.28
693.72	788.02
693.914	759.15
694.107	768.06
694.3	828.12
694.493	782.98
694.687	859.51
694.88	804.68
695.073	851.37
695.266	875.59
695.46	872.3
695.653	939.72
695.846	900.39
696.039	861.84
696.232	909.11
696.425	984.09
696.618	961.23
696.812	1023.81
697.005	1059.46
697.198	1080.38
697.391	1085.03
697.584	1098.98
697.777	1129.59
697.97	1121.65
698.163	1134.24
698.356	1127.66
698.549	1177.26
698.742	1168.34
698.935	1146.45
699.127	1214.07
699.32	1152.46
699.513	1161.37
699.706	1169.89
699.899	1246.81
700.092	1196.05
700.285	1240.22
700.477	1213.1
700.67	1271.61
700.863	1275.68
701.056	1366.55
701.248	1324.5
701.441	1337.29
701.634	1329.74
701.826	1430.87
702.019	1343.69
702.212	1366.74
702.404	1332.45
702.597	1327.8
702.79	1392.7
702.982	1397.93
703.175	1496.16
703.367	1472.72
703.56	1490.93
703.752	1548.48
703.945	1552.93
704.137	1543.44
704.33	1579.48
704.522	1581.41
704.715	1606.41
704.907	1663.76
705.1	1651.55
705.292	1664.14
705.484	1671.31
705.677	1713.74
705.869	1738.15
706.061	1717.04
706.254	1776.71
706.446	1748.81
706.638	1739.7
706.831	1812.94
707.023	1811
707.215	1891.99
707.407	1871.26
707.599	1852.66
707.792	1874.17
707.984	1891.6
708.176	1932.29
708.368	1898.38
708.56	1928.8
708.752	1964.65
708.944	1919.7
709.136	1981.31
709.329	1966
709.521	2100.46
709.713	2046.02
709.905	2049.12
710.097	2084.57
710.289	2048.93
710.481	2079.34
710.672	2082.83
710.864	2104.92
711.056	2154.91
711.248	2137.86
711.44	2136.89
711.632	2143.28
711.824	2199.85
712.016	2226.4
712.207	2236.67
712.399	2223.49
712.591	2282.39
712.783	2255.46
712.975	2289.37
713.166	2242.67
713.358	2219.62
713.55	2334.7
713.741	2337.03
713.933	2343.03
714.125	2313.39
714.316	2268.25
714.508	2368.41
714.7	2364.35
714.891	2381.2
715.083	2382.75
715.274	2381.78
715.466	2369.38
715.657	2412.98
715.849	2332.18
716.04	2352.33
716.232	2325.6
716.423	2374.42
716.615	2267.86
716.806	2188.23
716.998	2160.33
717.189	2080.7
717.381	1998.74
717.572	1912.33
717.763	2014.83
717.955	1932.1
718.146	1918.92
718.337	1847.82
718.528	1852.27
718.72	1755.01
718.911	1792.6
719.102	1743.39
719.293	1809.45
719.485	1793.95
719.676	1769.35
719.867	1703.28
720.058	1741.64
720.249	1698.63
720.44	1747.26
720.632	1794.34
720.823	1855.57
721.014	1998.74
721.205	1996.81
721.396	2086.51
721.587	2188.04
721.778	2264.37
721.969	2270.18
722.16	2365.51
722.351	2365.51
722.542	2441.84
722.733	2502.29
722.924	2383.33
723.115	2454.05
723.305	2416.66
723.496	2390.89
723.687	2288.98
723.878	2301.96
724.069	2291.88
724.26	2303.51
724.45	2197.53
724.641	2228.53
724.832	2243.06
725.023	2213.22
725.213	2243.06
725.404	2172.73
725.595	2194.24
725.785	2185.9
725.976	2251.78
726.167	2243.06
726.357	2235.7
726.548	2349.62
726.739	2274.45
726.929	2348.46
727.12	2395.35
727.31	2384.69
727.501	2300.8
727.691	2310.29
727.882	2302.73
728.072	2363.18
728.263	2405.61
728.453	2448.24
728.644	2435.45
728.834	2406.78
729.024	2383.72
729.215	2369.58
729.405	2438.94
729.596	2471.49
729.786	2493.77
729.976	2471.49
730.167	2507.72
730.357	2487.18
730.547	2492.03
730.737	2523.8
730.928	2589.87
731.118	2606.92
731.308	2528.64
731.498	2570.3
731.688	2631.33
731.879	2638.89
732.069	2703.21
732.259	2734.4
732.449	2761.53
732.639	2887.66
732.829	2822.95
733.019	2903.35
733.209	2966.32
733.399	2968.45
733.589	3047.11
733.779	3083.34
733.969	3105.04
734.159	3146.7
734.349	3180.99
734.539	3243.18
734.729	3193.2
734.919	3253.45
735.109	3303.24
735.299	3258.49
735.488	3267.4
735.678	3230.2
735.868	3283.1
736.058	3229.43
736.248	3270.31
736.437	3207.15
736.627	3201.53
736.817	3330.37
737.007	3273.6
737.196	3322.62
737.386	3318.36
737.576	3236.79
737.765	3350.91
737.955	3317.58
738.144	3393.34
738.334	3376.48
738.524	3318.74
738.713	3401.09
738.903	3355.56
739.092	3385.01
739.282	3423.76
739.471	3414.65
739.661	3383.07
739.85	3468.9
740.04	3493.7
740.229	3472.19
740.419	3511.52
740.608	3509
740.797	3539.62
740.987	3601.62
741.176	3560.73
741.365	3508.04
741.555	3483.04
741.744	3603.94
741.933	3523.73
742.123	3594.25
742.312	3620.99
742.501	3657.41
742.69	3632.23
742.88	3582.24
743.069	3653.15
743.258	3651.21
743.447	3690.16
743.636	3682.8
743.825	3657.03
744.014	3669.23
744.204	3681.44
744.393	3622.54
744.582	3706.63
744.771	3733.95
744.96	3669.43
745.149	3675.43
745.338	3662.65
745.527	3716.51
745.716	3715.93
745.905	3662.26
746.094	3736.66
746.283	3763.2
746.471	3736.85
746.66	3769.01
746.849	3745.38
747.038	3770.18
747.227	3709.73
747.416	3754.29
747.604	3701.4
747.793	3699.07
747.982	3729.49
748.171	3731.81
748.359	3697.91
748.548	3768.24
748.737	3713.8
748.926	3729.3
749.114	3636.1
749.303	3721.93
749.491	3666.71
749.68	3642.5
749.869	3727.75
750.057	3656.25
750.246	3640.75
750.434	3643.08
750.623	3655.28
750.811	3611.11
751	3703.91
751.188	3662.84
751.377	3670.2
751.565	3628.35
751.754	3608.4
751.942	3617.7
752.131	3698.49
752.319	3604.13
752.507	3538.07
752.696	3678.73
752.884	3636.68
753.072	3628.35
753.261	3642.69
753.449	3630.29
753.637	3651.41
753.825	3685.9
754.014	3640.75
754.202	3591.93
754.39	3652.96
754.578	3654.9
754.766	3601.03
754.955	3605.68
755.143	3650.05
755.331	3557.25
755.519	3570.03
755.707	3590.38
755.895	3577.01
756.083	3570.03
756.271	3507.84
756.459	3572.94
756.647	3581.66
756.835	3539.62
757.023	3524.89
757.211	3501.64
757.399	3512.1
757.587	3521.6
757.775	3459.6
757.963	3520.05
758.151	3525.67
758.339	3448.36
758.526	3474.13
758.714	3458.82
758.902	3385.59
759.09	3247.45
759.278	3031.81
759.465	2775.86
759.653	2386.43
759.841	2220.97
760.028	1860.6
760.216	1634.31
760.404	1505.27
760.591	1266.77
760.779	1079.8
760.967	902.33
761.154	756.24
761.342	774.65
761.529	745.78
761.717	812.24
761.905	795.19
762.092	846.72
762.28	798.29
762.467	812.43
762.655	724.66
762.842	763.8
763.029	736.48
763.217	772.52
763.404	723.69
763.592	771.16
763.779	741.52
763.966	782.4
764.154	826.38
764.341	882.18
764.528	901.55
764.716	970.72
764.903	1008.89
765.09	1036.79
765.277	1177.64
765.465	1313.65
765.652	1349.11
765.839	1422.93
766.026	1567.27
766.213	1607.76
766.4	1758.3
766.588	1911.95
766.775	1951.28
766.962	2038.85
767.149	2129.14
767.336	2288.59
767.523	2265.34
767.71	2422.28
767.897	2501.52
768.084	2586.57
768.271	2670.66
768.458	2693.72
768.645	2790.4
768.832	2767.15
769.019	2784
769.206	2863.05
769.392	2884.36
769.579	2969.42
769.766	2942.1
769.953	2963.02
770.14	3020.96
770.327	3014.76
770.513	3062.8
770.7	3157.35
770.887	3016.31
771.073	3104.85
771.26	3067.07
771.447	3080.24
771.634	3041.88
771.82	3155.42
772.007	3053.89
772.193	3111.82
772.38	3095.16
772.567	3089.35
772.753	3094.77
772.94	3149.8
773.126	3136.23
773.313	3160.07
773.499	3123.25
773.686	3126.35
773.872	3073.85
774.059	3132.36
774.245	3088.19
774.432	3079.47
774.618	3000.81
774.804	3027.35
774.991	3000.61
775.177	3059.7
775.363	3042.46
775.55	3070.36
775.736	3008.56
775.922	3024.64
776.109	3002.16
776.295	3058.93
776.481	3050.79
776.667	3084.12
776.853	3007.2
777.04	3011.07
777.226	3007.2
777.412	3114.73
777.598	3000.42
777.784	2997.32
777.97	2998.87
778.156	3017.08
778.342	2990.34
778.528	2977.94
778.715	2913.23
778.901	2920.01
779.087	3001.97
779.272	2934.35
779.458	2915.36
779.644	2945.59
779.83	2943.26
780.016	3062.61
780.202	2943.65
780.388	2933.58
780.574	2874.48
780.76	2884.17
780.946	2945.39
781.131	2920.98
781.317	2903.16
781.503	2875.64
781.689	2875.64
781.874	2960.51
782.06	2882.43
782.246	2868.09
782.432	2823.91
782.617	2842.13
782.803	2902.19
782.989	2791.56
783.174	2832.05
783.36	2781.87
783.545	2830.89
783.731	2835.35
783.916	2722.39
784.102	2840.58
784.288	2766.95
784.473	2777.41
784.659	2750.1
784.844	2846.97
785.029	2765.98
785.215	2735.95
785.4	2709.6
785.586	2801.05
785.771	2663.1
785.956	2756.88
786.142	2731.5
786.327	2716.77
786.512	2726.85
786.698	2715.03
786.883	2618.93
787.068	2652.06
787.254	2644.89
787.439	2624.55
787.624	2634.62
787.809	2583.09
787.994	2624.55
788.18	2671.63
788.365	2570.3
788.55	2599.55
788.735	2583.09
788.92	2577.66
789.105	2528.84
789.29	2553.64
789.475	2535.04
789.66	2511.01
789.845	2504.62
790.03	2440.68
790.215	2527.29
790.4	2576.89
790.585	2558.29
790.77	2514.5
790.955	2428.86
791.14	2506.94
791.325	2541.04
791.51	2432.35
791.695	2496.87
791.879	2492.8
792.064	2430.99
792.249	2527.67
792.434	2469.74
792.618	2473.43
792.803	2538.14
792.988	2450.76
793.173	2476.91
793.357	2503.07
793.542	2460.44
793.727	2475.94
793.911	2497.06
794.096	2506.36
794.281	2487.96
794.465	2587.74
794.65	2484.28
794.834	2522.06
795.019	2568.94
795.203	2531.16
795.388	2548.6
795.572	2552.67
795.757	2532.52
795.941	2509.85
796.126	2546.66
796.31	2459.86
796.494	2511.4
796.679	2463.35
796.863	2454.24
797.048	2563.91
797.232	2503.84
797.416	2464.51
797.601	2483.69
797.785	2571.07
797.969	2552.86
798.153	2532.71
798.338	2555.77
798.522	2571.66
798.706	2558.87
798.89	2583.67
799.074	2645.09
799.258	2610.02
799.443	2568.36
799.627	2561.97
799.811	2615.64
799.995	2529.81
800.179	2524.57
800.363	2525.74
800.547	2523.99
800.731	2550.73
800.915	2478.85
801.099	2476.91
801.283	2481.18
801.467	2522.25
801.651	2530.19
801.835	2534.26
802.019	2546.08
802.202	2545.11
802.386	2448.24
802.57	2504.81
802.754	2497.84
802.938	2500.36
803.121	2419.95
803.305	2549.57
803.489	2530.39
803.673	2517.21
803.856	2512.56
804.04	2486.99
804.224	2506.75
804.407	2510.04
804.591	2451.92
804.775	2488.93
804.958	2512.37
805.142	2615.64
805.326	2521.86
805.509	2531.74
805.693	2584.25
805.876	2565.84
806.06	2563.32
806.243	2577.27
806.427	2597.62
806.61	2600.52
806.794	2535.23
806.977	2622.22
807.16	2590.64
807.344	2544.72
807.527	2541.62
807.71	2517.02
807.894	2523.8
808.077	2560.03
808.26	2508.11
808.444	2485.05
808.627	2552.09
808.81	2459.67
808.993	2444.94
809.177	2430.03
809.36	2422.08
809.543	2441.07
809.726	2370.16
809.909	2364.15
810.092	2356.01
810.276	2372.1
810.459	2379.07
810.642	2356.21
810.825	2310.68
811.008	2349.43
811.191	2210.32
811.374	2280.45
811.557	2236.09
811.74	2293.82
811.923	2180.29
812.106	2240.93
812.289	2149.67
812.472	2171.76
812.654	2151.81
812.837	2143.86
813.02	2080.89
813.203	2040.79
813.386	1965.61
813.569	1962.51
813.751	1900.71
813.934	1944.11
814.117	1870.48
814.3	1845.1
814.482	1782.52
814.665	1794.15
814.848	1732.92
815.03	1699.6
815.213	1669.76
815.396	1681.19
815.578	1631.01
815.761	1610.86
815.943	1687.59
816.126	1555.06
816.309	1568.04
816.491	1487.45
816.674	1452.57
816.856	1487.06
817.039	1487.25
817.221	1603.89
817.403	1495.2
817.586	1541.89
817.768	1528.71
817.951	1454.7
818.133	1420.6
818.315	1518.25
818.498	1540.15
818.68	1592.07
818.862	1548.09
819.045	1593.62
819.227	1556.42
819.409	1562.04
819.591	1606.79
819.774	1545.96
819.956	1538.4
820.138	1576.96
820.32	1613.96
820.502	1655.81
820.684	1741.45
820.866	1733.89
821.048	1793.76
821.231	1794.92
821.413	1769.54
821.595	1747.84
821.777	1769.93
821.959	1753.46
822.141	1833.48
822.323	1681.19
822.505	1592.65
822.686	1549.64
822.868	1498.3
823.05	1377.01
823.232	1404.91
823.414	1302.61
823.596	1343.69
823.778	1355.31
823.96	1385.15
824.141	1384.37
824.323	1423.7
824.505	1505.27
824.687	1566.3
824.868	1606.99
825.05	1677.71
825.232	1690.49
825.413	1753.65
825.595	1758.5
825.777	1700.37
825.958	1738.35
826.14	1677.32
826.321	1738.54
826.503	1722.27
826.685	1724.79
826.866	1743.97
827.048	1746.49
827.229	1677.9
827.411	1636.24
827.592	1616.87
827.773	1613.77
827.955	1537.82
828.136	1527.36
828.318	1561.65
828.499	1580.44
828.68	1491.9
828.862	1555.64
829.043	1556.03
829.224	1496.16
829.406	1489.19
829.587	1531.04
829.768	1525.61
829.949	1526.39
830.131	1537.24
830.312	1591.1
830.493	1549.64
830.674	1534.91
830.855	1555.26
831.036	1525.61
831.218	1597.88
831.399	1613.38
831.58	1571.34
831.761	1578.7
831.942	1565.72
832.123	1547.9
832.304	1526.39
832.485	1516.51
832.666	1563.2
832.847	1567.85
833.028	1553.32
833.209	1557.19
833.389	1513.6
833.57	1486.48
833.751	1520
833.932	1576.57
834.113	1505.27
834.294	1473.5
834.475	1567.66
834.655	1571.53
834.836	1613.58
835.017	1570.76
835.198	1563.2
835.378	1575.02
835.559	1650.19
835.74	1552.35
835.92	1571.14
836.101	1548.09
836.281	1609.12
836.462	1604.08
836.643	1631.4
836.823	1647.87
837.004	1618.42
837.184	1699.21
837.365	1643.22
837.545	1639.92
837.726	1625.78
837.906	1693.01
838.087	1630.63
838.267	1626.56
838.448	1593.62
838.628	1627.33
838.808	1631.79
838.989	1650.97
839.169	1603.89
839.349	1659.69
839.53	1695.53
839.71	1661.82
839.89	1606.79
840.07	1693.4
840.251	1612.41
840.431	1687.78
840.611	1632.37
840.791	1623.07
840.971	1627.33
841.151	1594.78
841.332	1588.19
841.512	1666.27
841.692	1571.34
841.872	1650
842.052	1625.01
842.232	1625.01
842.412	1570.95
842.592	1606.21
842.772	1588
842.952	1637.41
843.132	1596.53
843.312	1604.86
843.492	1564.94
843.672	1600.4
843.851	1569.01
844.031	1591.88
844.211	1579.86
844.391	1572.31
844.571	1598.46
844.751	1612.41
844.93	1600.59
845.11	1572.69
845.29	1593.62
845.47	1600.01
845.649	1601.95
845.829	1620.55
846.009	1560.49
846.188	1585.29
846.368	1575.41
846.547	1596.53
846.727	1646.9
846.907	1525.23
847.086	1590.13
847.266	1563.59
847.445	1548.28
847.625	1535.88
847.804	1539.56
847.984	1589.16
848.163	1532.78
848.343	1563.2
848.522	1545.96
848.701	1555.64
848.881	1537.82
849.06	1540.34
849.239	1534.91
849.419	1515.54
849.598	1465.16
849.777	1444.63
849.957	1475.82
850.136	1395.22
850.315	1411.69
850.494	1411.88
850.674	1385.53
850.853	1442.69
851.032	1432.23
851.211	1462.26
851.39	1437.27
851.569	1389.8
851.748	1363.84
851.927	1450.83
852.107	1445.21
852.286	1418.08
852.465	1413.24
852.644	1432.03
852.823	1453.54
853.002	1430.68
853.181	1407.04
853.359	1435.72
853.538	1381.27
853.717	1439.01
853.896	1340
854.075	1301.25
854.254	1242.94
854.433	1190.63
854.611	1257.66
854.79	1181.33
854.969	1255.14
855.148	1284.79
855.327	1234.41
855.505	1291.95
855.684	1272.39
855.863	1303.77
856.041	1283.62
856.22	1293.31
856.399	1304.55
856.577	1364.22
856.756	1361.32
856.934	1448.31
857.113	1455.87
857.291	1374.69
857.47	1364.8
857.648	1369.84
857.827	1376.23
858.005	1403.17
858.184	1354.92
858.362	1434.94
858.541	1365.97
858.719	1375.07
858.898	1333.42
859.076	1354.54
859.254	1406.85
859.433	1329.74
859.611	1328.96
859.789	1313.07
859.967	1355.89
860.146	1409.56
860.324	1300.29
860.502	1321.99
860.68	1286.53
860.859	1277.81
861.037	1337.29
861.215	1345.82
861.393	1314.43
861.571	1316.56
861.749	1282.07
861.927	1285.56
862.105	1302.03
862.283	1291.57
862.461	1295.64
862.639	1269.29
862.817	1258.05
862.995	1301.25
863.173	1290.21
863.351	1303.19
863.529	1307.65
863.707	1332.06
863.885	1323.34
864.063	1234.02
864.241	1268.12
864.418	1333.42
864.596	1234.61
864.774	1202.64
864.952	1219.88
865.129	1268.9
865.307	1230.34
865.485	1219.49
865.663	1250.49
865.84	1184.23
866.018	1206.32
866.196	1106.73
866.373	1091.04
866.551	1109.45
866.728	1039.31
866.906	1082.32
867.084	1100.73
867.261	1116.03
867.439	1117.58
867.616	1147.61
867.794	1182.1
867.971	1141.8
868.149	1158.85
868.326	1223.17
868.503	1183.07
868.681	1186.36
868.858	1130.56
869.035	1118.74
869.213	1162.53
869.39	1153.43
869.567	1221.04
869.745	1158.85
869.922	1155.36
870.099	1187.14
870.276	1166.79
870.454	1189.46
870.631	1182.88
870.808	1159.43
870.985	1195.47
871.162	1212.71
871.339	1177.06
871.517	1135.99
871.694	1099.76
871.871	1141.99
872.048	1123.2
872.225	1121.26
872.402	1134.63
872.579	1083.29
872.756	1150.33
872.933	1101.11
873.11	1093.56
873.287	1124.75
873.463	1126.69
873.64	1120.68
873.817	1121.26
873.994	1100.53
874.171	1049.38
874.348	1129.79
874.524	1063.14
874.701	1081.74
874.878	1026.13
875.055	1140.64
875.231	1101.7
875.408	1078.06
875.585	1051.71
875.762	1092.01
875.938	1061.98
876.115	1059.46
876.291	1040.28
876.468	1059.65
876.645	1023.23
876.821	1045.51
876.998	1045.12
877.174	1084.84
877.351	1034.08
877.527	1024.39
877.704	1056.16
877.88	1046.28
878.057	1025.55
878.233	1101.5
878.409	1019.16
878.586	1045.12
878.762	1027.3
878.938	1008.89
879.115	937.4
879.291	1038.73
879.467	963.36
879.644	985.64
879.82	994.75
879.996	984.48
880.172	944.76
880.349	970.53
880.525	1021.1
880.701	937.79
880.877	957.93
881.053	972.47
881.229	963.75
881.405	1002.88
881.581	969.75
881.757	981.18
881.933	986.8
882.109	1011.22
882.285	1002.69
882.461	942.82
882.637	963.75
882.813	941.66
882.989	973.24
883.165	1030.01
883.341	940.11
883.517	995.52
883.693	994.75
883.869	1017.22
884.044	964.91
884.22	990.87
884.396	1004.43
884.572	977.89
884.747	1023.81
884.923	981.18
885.099	973.24
885.275	997.65
885.45	970.14
885.626	922.87
885.801	938.56
885.977	941.08
886.153	920.35
886.328	1001.33
886.504	935.07
886.679	982.35
886.855	952.51
887.03	972.08
887.206	984.48
887.381	956.77
887.557	984.87
887.732	975.57
887.908	952.32
888.083	978.28
888.258	986.03
888.434	953.28
888.609	953.48
888.784	1019.74
888.96	958.52
889.135	938.56
889.31	930.81
889.485	977.12
889.661	946.31
889.836	1003.08
890.011	980.8
890.186	944.18
890.361	949.41
890.537	926.35
890.712	968.98
890.887	974.98
891.062	959.48
891.237	999.59
891.412	925.58
891.587	968.59
891.762	972.66
891.937	1001.14
892.112	923.64
892.287	948.25
892.462	916.28
892.637	874.04
892.812	903.69
892.987	878.5
893.161	849.82
893.336	888.38
893.511	896.13
893.686	883.92
893.861	858.74
894.035	848.66
894.21	880.05
894.385	829.67
894.56	822.12
894.734	788.02
894.909	759.54
895.084	793.83
895.258	759.93
895.433	752.18
895.608	750.24
895.782	680.29
895.957	701.99
896.131	724.47
896.306	654.33
896.48	667.9
896.655	655.88
896.829	637.48
897.004	614.61
897.178	634.38
897.353	628.18
897.527	681.46
897.701	613.06
897.876	598.73
898.05	662.86
898.224	643.1
898.399	669.64
898.573	625.08
898.747	547.77
898.921	574.12
899.096	480.54
899.27	498.95
899.444	512.7
899.618	540.99
899.792	556.49
899.967	547.97
900.141	595.43
900.315	500.11
900.489	524.13
900.663	572.77
900.837	504.18
901.011	487.9
901.185	586.13
901.359	541.77
901.533	557.46
901.707	562.11
901.881	536.15
902.055	497.2
902.229	553.2
902.403	589.81
902.576	536.53
902.75	531.69
902.924	661.31
903.098	610.55
903.272	661.89
903.446	690.76
903.619	666.54
903.793	674.1
903.967	670.03
904.14	698.7
904.314	710.33
904.488	670.41
904.661	728.93
904.835	715.36
905.009	725.05
905.182	742.68
905.356	720.01
905.529	690.76
905.703	674.68
905.876	682.81
906.05	633.41
906.223	609.96
906.397	564.63
906.57	520.07
906.744	544.87
906.917	523.36
907.09	557.85
907.264	528.78
907.437	513.87
907.61	508.83
907.784	506.5
907.957	515.22
908.13	473.95
908.304	541.18
908.477	464.46
908.65	462.91
908.823	455.55
908.996	526.65
909.17	482.67
909.343	472.79
909.516	465.82
909.689	466.01
909.862	464.07
910.035	479.19
910.208	429.97
910.381	449.15
910.554	539.25
910.727	469.3
910.9	459.62
911.073	456.52
911.246	514.25
911.419	488.68
911.592	480.93
911.765	455.74
911.938	469.5
912.11	481.7
912.283	462.14
912.456	497.59
912.629	486.16
912.802	434.04
912.974	387.74
913.147	394.13
913.32	366.81
913.493	370.3
913.665	408.08
913.838	393.36
914.01	435.01
914.183	444.12
914.356	428.42
914.528	446.05
914.701	478.02
914.873	465.82
915.046	371.46
915.218	392.77
915.391	343.17
915.563	338.52
915.736	413.89
915.908	413.7
916.081	396.84
916.253	390.26
916.425	398.39
916.598	428.23
916.77	392.97
916.942	371.66
917.115	320.51
917.287	414.86
917.459	354.8
917.632	330.97
917.804	291.25
917.976	404.4
918.148	400.33
918.32	387.54
918.493	434.82
918.665	457.29
918.837	418.93
919.009	486.55
919.181	461.94
919.353	474.54
919.525	421.25
919.697	415.25
919.869	431.72
920.041	491.2
920.213	507.67
920.385	463.69
920.557	441.6
920.729	498.56
920.901	478.02
921.073	427.07
921.244	443.34
921.416	472.21
921.588	472.99
921.76	406.72
921.932	504.37
922.103	427.07
922.275	428.62
922.447	456.32
922.619	387.35
922.79	429.39
922.962	436.95
923.134	435.98
923.305	400.33
923.477	387.54
923.648	373.98
923.82	408.86
923.991	343.37
924.163	348.79
924.335	389.67
924.506	353.83
924.677	421.84
924.849	353.83
925.02	385.61
925.192	389.67
925.363	361.58
925.535	393.36
925.706	352.09
925.877	408.86
926.049	353.44
926.22	416.8
926.391	404.21
926.562	399.75
926.734	379.21
926.905	400.33
927.076	334.65
927.247	337.94
927.419	308.69
927.59	297.84
927.761	320.31
927.932	305.2
928.103	289.12
928.274	255.6
928.445	244.56
928.616	268.19
928.787	260.25
928.958	302.1
929.129	274.59
929.3	265.68
929.471	228.48
929.642	185.46
929.813	148.65
929.984	233.51
930.155	137.42
930.326	205.03
930.496	170.74
930.667	121.14
930.838	153.69
931.009	96.53
931.18	132.57
931.35	153.3
931.521	150.78
931.692	94.4
931.863	54.69
932.033	122.3
932.204	106.22
932.374	101.77
932.545	81.23
932.716	130.63
932.886	110.48
933.057	49.07
933.227	42.48
933.398	128.89
933.568	38.6
933.739	35.12
933.909	42.48
934.08	97.7
934.25	-5.18
934.421	44.03
934.591	46.55
934.761	25.62
934.932	12.06
935.102	37.05
935.272	38.99
935.443	50.81
935.613	42.29
935.783	30.27
935.953	14.39
936.123	155.05
936.294	13.42
936.464	20
936.634	45.77
936.804	9.54
936.974	-20.88
937.144	45.77
937.314	45.97
937.484	48.29
937.655	33.18
937.825	60.89
937.995	22.72
938.165	75.8
938.334	18.45
938.504	89.17
938.674	36.86
938.844	44.61
939.014	93.43
939.184	94.02
939.354	133.73
939.524	145.75
939.694	81.62
939.863	60.3
940.033	125.6
940.203	127.15
940.373	100.22
940.542	104.48
940.712	70.57
940.882	108.35
941.051	109.13
941.221	116.3
941.391	114.75
941.56	59.34
941.73	66.5
941.899	159.5
942.069	46.55
942.238	81.42
942.408	66.31
942.577	89.56
942.747	92.85
942.916	20.59
943.086	62.63
943.255	107.19
943.425	69.99
943.594	50.81
943.763	-5.18
943.933	50.04
944.102	13.8
944.271	82.2
944.441	57.2
944.61	29.3
944.779	67.67
944.948	133.93
945.117	27.56
945.287	60.11
945.456	24.85
945.625	39.57
945.794	73.09
945.963	50.81
946.132	65.53
946.301	55.65
946.47	75.22
946.639	19.62
946.808	37.25
946.977	60.69
947.146	103.12
947.315	63.6
947.484	83.55
947.653	65.15
947.822	47.32
947.991	56.24
948.16	104.28
948.329	106.42
948.498	69.41
948.666	45.97
948.835	89.17
949.004	15.94
949.173	34.54
949.341	55.27
949.51	70.57
949.679	77.74
949.847	90.92
950.016	144.39
950.185	111.45
950.353	66.31
950.522	52.75
950.69	97.7
950.859	60.89
951.028	105.64
951.196	75.03
951.365	29.69
951.533	56.82
951.701	31.82
951.87	81.62
952.038	29.5
952.207	64.18
952.375	137.61
952.543	48.49
952.712	64.18
952.88	33.76
953.048	98.08
953.217	62.24
953.385	75.22
953.553	87.04
953.721	43.06
953.89	49.84
954.058	27.17
954.226	51.2
954.394	70.57
954.562	26.59
954.73	47.32
954.898	51.97
955.067	94.21
955.235	40.54
955.403	94.98
955.571	110.29
955.739	85.68
955.907	50.81
956.075	67.08
956.243	15.35
956.41	63.02
956.578	8.77
956.746	35.12
956.914	54.49
957.082	85.88
957.25	88.4
957.418	56.62
957.585	65.53
957.753	117.07
957.921	49.45
958.089	84.52
958.256	79.1
958.424	72.7
958.592	70.77
958.759	36.86
958.927	91.88
959.095	49.07
959.262	48.49
959.43	75.61
959.597	19.62
959.765	49.26
959.932	36.86
960.1	113.97
960.267	67.86
960.435	46.35
960.602	105.64
960.77	40.93
960.937	15.55
961.104	80.65
961.272	33.37
961.439	44.42
961.606	79.87
961.774	113.39
961.941	64.18
962.108	86.27
962.275	65.53
962.443	125.4
962.61	58.95
962.777	149.82
962.944	110.68
963.111	68.83
963.278	96.34
963.446	87.43
963.613	77.35
963.78	98.08
963.947	110.29
964.114	77.16
964.281	136.83
964.448	103.12
964.615	62.05
964.782	74.06
964.949	99.25
965.116	105.06
965.282	110.68
965.449	81.42
965.616	38.6
965.783	106.61
965.95	77.16
966.117	33.57
966.283	86.46
966.45	86.85
966.617	95.95
966.784	127.53
966.95	139.74
967.117	106.03
967.284	85.88
967.45	82.2
967.617	115.33
967.784	114.75
967.95	139.74
968.117	79.1
968.283	145.55
968.45	192.05
968.616	85.1
968.783	145.55
968.949	98.47
969.116	131.6
969.282	92.66
969.449	100.02
969.615	111.84
969.781	78.13
969.948	72.32
970.114	69.99
970.28	163.38
970.447	86.27
970.613	136.45
970.779	98.28
970.945	134.9
971.112	97.31
971.278	104.87
971.444	103.9
971.61	136.83
971.776	94.21
971.942	101.96
972.108	125.02
972.275	93.82
972.441	114.17
972.607	184.88
972.773	80.07
972.939	131.8
973.105	99.05
973.271	72.32
973.437	95.37
973.602	78.32
973.768	97.89
973.934	38.22
974.1	95.57
974.266	40.35
974.432	101.38
974.598	69.8
974.763	143.62
974.929	63.02
975.095	168.8
975.261	76.19
975.426	67.47
975.592	75.42
975.758	152.33
975.923	45.97
976.089	41.12
976.255	122.5
976.42	99.25
976.586	124.05
976.751	86.46
976.917	165.31
977.082	99.05
977.248	55.46
977.413	30.47
977.579	77.93
977.744	91.88
977.91	66.31
978.075	80.84
978.24	123.66
978.406	93.82
978.571	77.35
978.736	79.1
978.902	93.24
979.067	75.22
979.232	35.5
979.397	95.76
979.563	139.93
979.728	46.16
979.893	71.15
980.058	56.62
980.223	106.8
980.388	77.35
980.554	67.08
980.719	58.17
980.884	90.53
981.049	106.03
981.214	61.66
981.379	108.74
981.544	39.19
981.709	72.51
981.874	66.5
982.039	102.54
982.204	111.45
982.368	76.19
982.533	69.41
982.698	102.73
982.863	113.97
983.028	93.43
983.193	113.78
983.357	90.33
983.522	92.66
983.687	81.23
983.852	79.48
984.016	66.12
984.181	95.18
984.346	101.96
984.51	117.27
984.675	88.4
984.839	120.37
985.004	95.18
985.168	131.41
985.333	108.74
985.498	81.23
985.662	122.5
985.827	112.81
985.991	87.04
986.155	77.93
986.32	109.32
986.484	130.25
986.649	121.53
986.813	28.72
986.977	82.39
987.142	123.85
987.306	33.57
987.47	74.25
987.634	86.85
987.799	107.19
987.963	110.29
988.127	102.54
988.291	151.17
988.455	96.15
988.62	87.82
988.784	117.27
988.948	102.54
989.112	66.12
989.276	94.4
989.44	94.98
989.604	54.49
989.768	65.73
989.932	134.7
990.096	62.82
990.26	51.97
990.424	47.9
990.588	75.22
990.752	114.17
990.915	100.8
991.079	76.58
991.243	58.17
991.407	126.57
991.571	80.84
991.734	108.55
991.898	101.18
992.062	156.98
992.226	87.43
992.389	80.65
992.553	30.66
992.717	68.05
992.88	42.87
993.044	76
993.207	75.42
993.371	94.79
993.535	101.96
993.698	76.38
993.862	86.07
994.025	78.52
994.189	80.84
994.352	60.5
994.515	96.15
994.679	107.38
994.842	58.56
995.006	107.77
995.169	40.54
995.332	51.39
995.496	95.76
995.659	55.85
995.822	51.59
995.985	79.68
996.149	112.62
996.312	76.19
996.475	131.41
996.638	82.78
996.801	102.54
996.964	128.12
997.128	90.14
997.291	45.39
997.454	88.4
997.617	39.19
997.78	100.02
997.943	61.47
998.106	69.41
998.269	43.45
998.432	83.55
998.595	90.53
998.758	12.45
998.92	53.52
999.083	35.5
999.246	51.59
999.409	44.61
999.572	26.79
999.735	39.19
999.897	64.37
1000.06	40.74
1000.223	40.54
1000.386	76.19
1000.548	69.02
1000.711	81.23
1000.874	57.79
1001.036	36.09
1001.199	100.02
1001.361	38.22
1001.524	70.96
1001.687	119.2
1001.849	21.17
1002.012	60.3
1002.174	77.16
1002.337	80.45
1002.499	69.02
1002.661	59.14
1002.824	21.55
1002.986	39.77
1003.149	55.46
1003.311	41.7
1003.473	107.58
1003.636	35.12
1003.798	55.85
1003.96	69.02
1004.123	39.77
1004.285	59.14
1004.447	36.86
1004.609	46.35
1004.771	83.75
1004.933	9.74
1005.096	31.63
1005.258	4.7
1005.42	42.87
1005.582	77.16
1005.744	79.87
1005.906	21.94
1006.068	56.24
1006.23	8.96
1006.392	10.32
1006.554	8.96
1006.716	120.95
1006.878	94.4
1007.04	21.55
1007.202	52.75
1007.363	49.65
1007.525	75.61
1007.687	87.43
1007.849	104.28
1008.011	-1.7
1008.172	10.32
1008.334	33.76
1008.496	100.6
1008.658	-3.25
1008.819	67.67
1008.981	18.65
1009.143	29.11
1009.304	47.9
1009.466	67.67
1009.627	72.32
1009.789	140.13
1009.95	52.17
1010.112	28.53
1010.273	41.32
1010.435	28.92
1010.596	34.54
1010.758	28.53
1010.919	7.41
1011.081	22.52
1011.242	61.27
1011.403	59.92
1011.565	52.75
1011.726	50.23
1011.887	27.37
1012.049	8.77
1012.21	60.3
1012.371	77.16
1012.532	-25.14
1012.693	42.29
1012.855	7.6
1013.016	45
1013.177	75.61
1013.338	20.78
1013.499	104.48
1013.66	41.7
1013.821	51.39
1013.982	44.03
1014.143	47.71
1014.304	-7.51
1014.465	49.26
1014.626	56.82
1014.787	21.75
1014.948	116.68
1015.109	-42.77
1015.27	63.6
1015.431	41.32
1015.592	14.39
1015.752	66.5
1015.913	29.89
1016.074	70.57
1016.235	23.69
1016.395	32.21
1016.556	22.72
1016.717	25.04
1016.877	58.75
1017.038	19.81
1017.199	61.66
1017.359	41.7
1017.52	56.82
1017.681	0.82
1017.841	17.29
1018.002	24.07
1018.162	9.74
1018.323	36.47
1018.483	30.85
1018.644	33.18
1018.804	7.6
1018.964	-28.24
1019.125	-4.99
1019.285	61.27
1019.446	8.57
1019.606	20.39
1019.766	-43.74
1019.926	28.53
1020.087	45.77
1020.247	1.99
1020.407	57.01
1020.567	85.3
1020.728	32.21
1020.888	1.4
1021.048	32.21
1021.208	-2.47
1021.368	4.12
1021.528	66.7
1021.688	46.35
1021.848	51.97
1022.008	29.11
1022.168	5.47
1022.328	26.4
1022.488	33.76
1022.648	13.22
1022.808	13.22
1022.968	21.94
1023.128	6.64
1023.288	21.17
1023.448	9.74
1023.608	37.64
1023.767	30.85
1023.927	2.37
1024.087	18.84
1024.247	4.89
1024.406	5.47
1024.566	-24.94
1024.726	0.05
1024.885	47.52
1025.045	52.94
1025.205	29.69
1025.364	19.42
1025.524	37.44
1025.683	13.61
1025.843	40.54
1026.003	16.9
1026.162	45.58
1026.321	52.55
1026.481	15.94
1026.64	14.97
1026.8	40.35
1026.959	27.17
1027.119	42.09
1027.278	-2.86
1027.437	4.5
1027.597	6.64
1027.756	25.82
1027.915	14.19
1028.074	33.18
1028.234	17.49
1028.393	9.74
1028.552	9.93
1028.711	-37.15
1028.87	26.01
1029.03	-2.08
1029.189	-4.99
1029.348	-42.96
1029.507	-5.18
1029.666	20.97
1029.825	11.48
1029.984	-0.73
1030.143	21.17
1030.302	11.29
1030.461	-17.97
1030.62	24.65
1030.779	44.61
1030.938	10.9
1031.097	-1.89
1031.255	46.74
1031.414	45.19
1031.573	30.66
1031.732	-23.2
1031.891	9.35
1032.049	20.78
1032.208	15.74
1032.367	-0.92
1032.525	6.05
1032.684	1.79
1032.843	2.18
1033.001	-36.18
1033.16	155.63
1033.319	58.17
1033.477	26.01
1033.636	6.25
1033.794	-1.11
1033.953	23.69
1034.111	47.9
1034.27	12.25
1034.428	27.17
1034.587	24.07
1034.745	12.84
1034.903	8.96
1035.062	56.82
1035.22	-1.5
1035.378	38.8
1035.537	0.44
1035.695	49.65
1035.853	-8.48
1036.011	38.99
1036.17	17.68
1036.328	-53.23
1036.486	-5.96
1036.644	13.8
1036.802	-63.5
1036.96	-51.1
1037.119	3.54
1037.277	-3.63
1037.435	-23.39
1037.593	-12.74
1037.751	-3.83
1037.909	53.72
1038.067	53.72
