Data from gum_young_FLMT105791__2__17-38-01-046.txt Node

Date: Mon Mar 20 17:38:01 GMT 2023
User: antho
Spectrometer: FLMT10579
Trigger mode: 0
Integration Time (sec): 1.000000E-1
Scans to average: 10
Electric dark correction enabled: true
Nonlinearity correction enabled: false
Boxcar width: 0
XAxis mode: Wavelengths
Number of Pixels in Spectrum: 3648
>>>>>Begin Spectral Data<<<<<
345.248	-137.08
345.464	-137.08
345.681	-137.08
345.898	-151.8
346.114	-124.68
346.331	-47.37
346.548	37.68
346.764	-19.47
346.981	-4.36
347.197	-23.54
347.414	20.63
347.631	-13.27
347.847	41.56
348.064	6.68
348.28	6.3
348.497	-10.56
348.713	5.72
348.93	26.06
349.146	1.84
349.363	-17.34
349.579	25.67
349.796	9.78
350.012	-14.43
350.229	21.41
350.445	-3.58
350.661	-17.34
350.878	5.52
351.094	8.43
351.311	11.72
351.527	-4.75
351.743	-13.85
351.96	17.53
352.176	32.84
352.392	34.97
352.609	43.88
352.825	-6.1
353.041	-6.3
353.257	8.43
353.474	-12.5
353.69	18.7
353.906	9.01
354.122	-26.83
354.339	41.17
354.555	13.47
354.771	-13.27
354.987	46.6
355.203	55.31
355.42	-8.23
355.636	-1.07
355.852	2.81
356.068	8.62
356.284	-15.21
356.5	54.93
356.716	14.43
356.932	23.73
357.148	7.46
357.364	10.56
357.58	47.56
357.796	59.19
358.012	28.97
358.228	3.78
358.444	-53.18
358.66	46.4
358.876	3.97
359.092	-18.12
359.308	1.07
359.524	9.01
359.74	-25.09
359.956	-15.79
360.172	-3.39
360.388	32.26
360.604	2.23
360.819	87.09
361.035	8.82
361.251	50.28
361.467	-12.69
361.683	34
361.898	31.68
362.114	17.92
362.33	-2.42
362.546	45.63
362.762	11.14
362.977	26.45
363.193	-21.99
363.409	57.83
363.624	-12.11
363.84	-6.68
364.056	-20.05
364.271	40.01
364.487	15.6
364.703	-17.53
364.918	-15.02
365.134	30.71
365.35	-0.1
365.565	80.89
365.781	13.85
365.996	33.42
366.212	61.9
366.427	33.42
366.643	-13.08
366.858	-18.5
367.074	-9.98
367.289	30.71
367.505	102.59
367.72	-26.83
367.936	15.79
368.151	50.66
368.367	23.15
368.582	23.93
368.798	15.98
369.013	82.44
369.228	10.75
369.444	46.01
369.659	53.96
369.874	21.8
370.09	67.13
370.305	-44.66
370.52	-0.87
370.736	56.86
370.951	7.46
371.166	65
371.381	71.01
371.597	21.99
371.812	-26.25
372.027	-9.59
372.242	-7.85
372.458	68.1
372.673	3.39
372.888	-8.04
373.103	48.53
373.318	91.93
373.533	23.54
373.749	51.63
373.964	-21.6
374.179	48.34
374.394	-32.65
374.609	43.3
374.824	-15.6
375.039	55.31
375.254	-27.22
375.469	51.05
375.684	30.9
375.899	64.42
376.114	18.5
376.329	34
376.544	52.99
376.759	52.41
376.974	-10.37
377.189	12.3
377.404	16.95
377.619	74.69
377.834	-46.21
378.049	-14.43
378.264	-42.72
378.478	52.02
378.693	-11.92
378.908	43.11
379.123	11.53
379.338	61.51
379.553	38.07
379.767	38.46
379.982	22.57
380.197	49.7
380.412	-3
380.626	47.56
380.841	103.56
381.056	28.77
381.271	50.66
381.485	18.12
381.7	-16.37
381.915	14.05
382.129	16.57
382.344	35.17
382.559	14.43
382.773	68.3
382.988	-42.92
383.202	26.64
383.417	-18.31
383.632	88.25
383.846	49.89
384.061	42.92
384.275	18.31
384.49	23.15
384.704	51.05
384.919	31.48
385.133	14.05
385.348	66.55
385.562	-7.65
385.777	65.58
385.991	16.76
386.206	18.5
386.42	27.03
386.634	63.84
386.849	54.73
387.063	30.32
387.277	-15.02
387.492	17.34
387.706	0.29
387.92	-24.51
388.135	54.93
388.349	39.82
388.563	16.76
388.778	52.8
388.992	61.51
389.206	57.45
389.42	99.68
389.635	14.82
389.849	60.35
390.063	43.5
390.277	55.51
390.491	62.48
390.706	24.32
390.92	61.13
391.134	41.75
391.348	62.68
391.562	-7.46
391.776	27.8
391.99	30.52
392.205	32.07
392.419	28.19
392.633	16.57
392.847	57.45
393.061	-6.1
393.275	91.35
393.489	25.09
393.703	34.97
393.917	95.81
394.131	7.07
394.345	58.41
394.559	58.03
394.773	14.82
394.986	50.47
395.2	38.65
395.414	57.25
395.628	-16.37
395.842	52.21
396.056	34.58
396.27	7.85
396.484	63.26
396.697	43.11
396.911	55.9
397.125	55.51
397.339	31.87
397.553	33.23
397.766	75.46
397.98	69.46
398.194	83.21
398.408	10.95
398.621	66.55
398.835	68.49
399.049	42.14
399.262	85.54
399.476	73.33
399.69	73.91
399.903	117.12
400.117	76.24
400.331	90.58
400.544	34.58
400.758	173.89
400.971	83.99
401.185	83.21
401.398	51.63
401.612	130.3
401.826	86.12
402.039	89.61
402.253	46.79
402.466	70.43
402.68	57.06
402.893	60.16
403.106	67.71
403.32	64.23
403.533	98.91
403.747	62.68
403.96	81.47
404.174	102.59
404.387	71.4
404.6	85.15
404.814	107.24
405.027	62.1
405.24	83.02
405.454	72.17
405.667	100.85
405.88	9.2
406.094	89.41
406.307	130.49
406.52	86.31
406.733	52.8
406.947	34.39
407.16	128.55
407.373	122.93
407.586	73.14
407.799	50.86
408.012	93.29
408.226	90.77
408.439	154.71
408.652	42.92
408.865	99.1
409.078	134.75
409.291	130.88
409.504	64.42
409.717	127.58
409.93	116.15
410.143	93.29
410.357	52.02
410.57	57.64
410.783	96
410.996	114.6
411.209	81.47
411.421	158.78
411.634	86.9
411.847	76.05
412.06	74.11
412.273	95.03
412.486	82.05
412.699	163.81
412.912	74.3
413.125	110.53
413.338	91.55
413.55	142.5
413.763	106.46
413.976	122.93
414.189	80.5
414.402	73.14
414.615	150.06
414.827	74.69
415.04	139.59
415.253	110.53
415.466	117.9
415.678	157.61
415.891	75.85
416.104	87.67
416.316	107.63
416.529	86.51
416.742	154.9
416.954	143.86
417.167	94.45
417.38	109.95
417.592	133.2
417.805	94.06
418.017	57.25
418.23	162.46
418.442	74.69
418.655	93.1
418.868	105.5
419.08	130.68
419.293	174.86
419.505	127.97
419.718	137.85
419.93	153.93
420.142	102.2
420.355	154.9
420.567	141.73
420.78	130.3
420.992	105.5
421.205	190.94
421.417	110.73
421.629	99.88
421.842	75.46
422.054	80.7
422.266	154.51
422.479	141.92
422.691	96.97
422.903	152.19
423.115	123.32
423.328	117.7
423.54	131.84
423.752	150.64
423.964	114.41
424.177	151.22
424.389	116.15
424.601	200.04
424.813	141.73
425.025	157.42
425.238	129.71
425.45	132.04
425.662	137.46
425.874	375.19
426.086	108.01
426.298	161.1
426.51	139.21
426.722	139.79
426.934	141.92
427.146	158.39
427.358	138.04
427.57	170.98
427.782	136.88
427.994	153.35
428.206	133.2
428.418	102.98
428.63	161.1
428.842	165.56
429.054	134.94
429.266	169.04
429.478	97.55
429.69	159.16
429.902	83.21
430.114	150.83
430.325	163.43
430.537	109.18
430.749	98.13
430.961	57.83
431.173	112.47
431.384	133.01
431.596	67.71
431.808	114.21
432.02	137.85
432.231	173.69
432.443	196.36
432.655	156.84
432.867	141.34
433.078	173.89
433.29	192.68
433.502	203.34
433.713	173.5
433.925	166.14
434.136	171.18
434.348	126.61
434.56	109.18
434.771	244.02
434.983	121.77
435.194	136.11
435.406	172.92
435.617	182.8
435.829	261.85
436.04	167.49
436.252	205.28
436.463	234.72
436.675	210.31
436.886	196.36
437.098	225.23
437.309	218.64
437.521	205.28
437.732	178.34
437.943	201.4
438.155	204.69
438.366	145.02
438.578	237.44
438.789	205.47
439	203.53
439.211	180.67
439.423	187.64
439.634	211.48
439.845	193.26
440.057	187.84
440.268	224.26
440.479	167.69
440.69	216.32
440.902	203.92
441.113	205.47
441.324	207.21
441.535	231.04
441.746	263.01
441.957	194.43
442.168	192.29
442.38	207.41
442.591	217.68
442.802	197.53
443.013	215.54
443.224	229.11
443.435	186.48
443.646	205.08
443.857	242.09
444.068	210.51
444.279	202.56
444.49	307.57
444.701	228.52
444.912	318.23
445.123	267.86
445.334	233.95
445.545	241.31
445.756	242.86
445.967	206.83
446.178	229.11
446.388	270.37
446.599	265.92
446.81	259.72
447.021	233.17
447.232	268.24
447.443	300.99
447.653	219.42
447.864	258.75
448.075	241.31
448.286	277.54
448.496	292.85
448.707	284.13
448.918	243.64
449.129	328.3
449.339	256.04
449.55	275.41
449.761	257.97
449.971	308.93
450.182	263.01
450.393	304.86
450.603	255.84
450.814	296.72
451.024	288.78
451.235	321.14
451.446	322.49
451.656	350.78
451.867	262.82
452.077	283.16
452.288	333.15
452.498	340.51
452.709	289.56
452.919	316.29
453.13	265.92
453.34	332.37
453.55	264.95
453.761	307.57
453.971	285.1
454.182	348.07
454.392	318.04
454.602	345.94
454.813	365.12
455.023	344.97
455.233	286.84
455.444	293.43
455.654	219.22
455.864	293.62
456.075	298.27
456.285	293.82
456.495	274.64
456.705	331.6
456.916	369.96
457.126	367.64
457.336	337.41
457.546	264.17
457.756	311.45
457.967	351.75
458.177	301.76
458.387	301.76
458.597	303.89
458.807	323.85
459.017	294.59
459.227	327.53
459.437	319
459.647	353.69
459.857	345.55
460.068	315.9
460.278	382.36
460.488	333.92
460.698	354.46
460.908	325.4
461.117	282.97
461.327	320.17
461.537	337.41
461.747	328.69
461.957	370.15
462.167	444.55
462.377	374.42
462.587	352.33
462.797	402.7
463.007	382.94
463.216	397.08
463.426	419.75
463.636	388.17
463.846	320.94
464.056	325.01
464.265	401.35
464.475	345.55
464.685	370.15
464.895	391.08
465.104	348.84
465.314	392.05
465.524	334.89
465.733	320.36
465.943	445.52
466.153	430.22
466.362	407.74
466.572	354.27
466.782	349.04
466.991	360.08
467.201	432.15
467.41	330.24
467.62	412.39
467.829	380.42
468.039	391.85
468.249	393.6
468.458	400.57
468.668	393.98
468.877	420.92
469.086	406
469.296	435.45
469.505	387.01
469.715	467.22
469.924	438.93
470.134	430.99
470.343	446.3
470.552	399.22
470.762	396.5
470.971	364.54
471.18	426.53
471.39	407.55
471.599	398.05
471.808	465.09
472.018	375
472.227	438.74
472.436	455.21
472.645	449.2
472.855	400.18
473.064	474.78
473.273	424.98
473.482	463.73
473.691	472.07
473.901	462.38
474.11	441.65
474.319	526.7
474.528	463.93
474.737	536.58
474.946	491.05
475.155	493.18
475.364	524.38
475.573	495.31
475.783	504.42
475.992	510.23
476.201	534.65
476.41	480.01
476.619	472.07
476.828	503.84
477.037	455.6
477.245	509.85
477.454	533.87
477.663	507.91
477.872	510.62
478.081	603.43
478.29	469.35
478.499	579.59
478.708	559.64
478.917	613.89
479.125	544.53
479.334	551.89
479.543	530.58
479.752	559.45
479.961	550.15
480.169	625.9
480.378	539.1
480.587	683.06
480.796	590.06
481.004	584.83
481.213	606.72
481.422	621.83
481.63	612.34
481.839	640.04
482.048	669.11
482.256	630.55
482.465	644.5
482.674	627.64
482.882	644.31
483.091	692.94
483.299	647.21
483.508	650.7
483.716	646.63
483.925	639.46
484.134	623.58
484.342	654.38
484.551	678.02
484.759	661.55
484.967	663.68
485.176	701.46
485.384	680.34
485.593	701.46
485.801	685.19
486.01	634.43
486.218	623.96
486.426	569.71
486.635	602.26
486.843	611.18
487.051	603.23
487.26	662.71
487.468	641.98
487.676	681.31
487.885	630.36
488.093	695.84
488.301	700.88
488.509	719.29
488.717	728.97
488.926	725.1
489.134	699.33
489.342	736.72
489.55	697.59
489.758	709.41
489.967	719.87
490.175	801.63
490.383	713.47
490.591	791.17
490.799	731.69
491.007	803.76
491.215	753.77
491.423	803.37
491.631	780.32
491.839	763.07
492.047	830.3
492.255	755.9
492.463	718.32
492.671	748.35
492.879	808.6
493.087	772.95
493.295	807.44
493.503	847.74
493.711	850.07
493.919	849.87
494.127	846
494.334	881.26
494.542	836.89
494.75	846.97
494.958	840.38
495.166	918.85
495.374	892.3
495.581	872.73
495.789	898.12
495.997	935.12
496.205	876.03
496.412	887.07
496.62	876.8
496.828	904.51
497.035	905.09
497.243	903.93
497.451	890.17
497.658	942.48
497.866	920.2
498.074	965.35
498.281	902.96
498.489	986.46
498.696	922.91
498.904	896.57
499.112	895.02
499.319	1002.35
499.527	927.95
499.734	993.44
499.942	913.03
500.149	939.19
500.357	984.53
500.564	919.43
500.771	978.33
500.979	940.35
501.186	919.81
501.394	961.28
501.601	899.28
501.808	967.67
502.016	957.98
502.223	919.04
502.43	949.46
502.638	973.87
502.845	939.77
503.052	1047.88
503.26	991.5
503.467	1075.59
503.674	1037.03
503.881	1023.08
504.089	1082.76
504.296	1050.21
504.503	989.95
504.71	1022.69
504.917	1008.74
505.125	1075.98
505.332	1064.54
505.539	1087.79
505.746	1145.14
505.953	1132.74
506.16	1131.97
506.367	1184.47
506.574	1184.47
506.781	1182.73
506.988	1128.09
507.195	1158.32
507.402	1134.49
507.609	1186.6
507.816	1144.95
508.023	1136.81
508.23	1172.66
508.437	1113.95
508.644	1187.57
508.851	1204.04
509.058	1251.51
509.265	1240.47
509.472	1272.63
509.679	1336.57
509.885	1247.44
510.092	1276.5
510.299	1283.28
510.506	1272.63
510.713	1281.54
510.92	1322.42
511.126	1336.76
511.333	1360.2
511.54	1362.72
511.746	1367.76
511.953	1403.02
512.16	1414.45
512.367	1359.62
512.573	1376.09
512.78	1395.46
512.987	1371.05
513.193	1357.88
513.4	1307.12
513.606	1359.43
513.813	1405.73
514.02	1367.56
514.226	1476.26
514.433	1454.75
514.639	1378.41
514.846	1424.72
515.052	1425.69
515.259	1462.5
515.465	1438.09
515.672	1487.11
515.878	1535.35
516.085	1495.83
516.291	1516.75
516.497	1492.14
516.704	1451.07
516.91	1431.89
517.117	1396.05
517.323	1361.75
517.529	1381.71
517.736	1404.76
517.942	1427.24
518.148	1422.59
518.354	1474.32
518.561	1498.15
518.767	1513.46
518.973	1536.71
519.179	1552.01
519.386	1560.15
519.592	1551.62
519.798	1575.26
520.004	1724.64
520.21	1618.08
520.417	1688.41
520.623	1713.98
520.829	1744.4
521.035	1746.73
521.241	1738.98
521.447	1773.27
521.653	1912.38
521.859	1769.98
522.065	1807.95
522.271	1880.03
522.477	1872.47
522.683	1909.09
522.889	1887.39
523.095	1849.22
523.301	1858.71
523.507	1818.22
523.713	1886.81
523.919	1832.75
524.125	1938.15
524.331	1928.66
524.537	2002.47
524.742	2010.22
524.948	2023.59
525.154	2042
525.36	2146.82
525.566	2016.04
525.772	2089.66
525.977	2042
526.183	2086.95
526.389	2088.69
526.595	1978.84
526.8	1986.59
527.006	1934.28
527.212	1894.17
527.417	1873.63
527.623	1911.99
527.829	1951.52
528.034	2024.56
528.24	2025.53
528.446	2036.77
528.651	2166.38
528.857	2171.23
529.062	2236.33
529.268	2211.53
529.473	2231.29
529.679	2239.81
529.884	2289.61
530.09	2234.2
530.295	2271.2
530.501	2260.93
530.706	2289.03
530.912	2257.45
531.117	2281.28
531.323	2272.36
531.528	2361.29
531.733	2356.64
531.939	2316.73
532.144	2343.47
532.35	2345.99
532.555	2355.87
532.76	2317.31
532.966	2270.81
533.171	2308.79
533.376	2241.75
533.581	2229.74
533.787	2291.55
533.992	2376.99
534.197	2324.29
534.402	2336.88
534.607	2355.48
534.813	2426.2
535.018	2331.65
535.223	2418.64
535.428	2419.81
535.633	2427.94
535.838	2451
536.043	2472.7
536.249	2548.45
536.454	2479.87
536.659	2474.25
536.864	2450.81
537.069	2459.91
537.274	2466.31
537.479	2436.27
537.684	2453.91
537.889	2412.64
538.094	2555.62
538.299	2466.69
538.504	2485.49
538.708	2489.36
538.913	2559.5
539.118	2521.33
539.323	2526.17
539.528	2486.46
539.733	2500.21
539.938	2480.64
540.142	2508.54
540.347	2470.18
540.552	2448.09
540.757	2429.3
540.962	2410.51
541.166	2404.11
541.371	2403.34
541.576	2436.08
541.781	2381.44
541.985	2537.22
542.19	2477.16
542.395	2571.32
542.599	2587.01
542.804	2520.36
543.008	2621.88
543.213	2528.5
543.418	2497.3
543.622	2581
543.827	2520.75
544.031	2574.03
544.236	2579.45
544.44	2578.68
544.645	2680.78
544.849	2553.88
545.054	2638.16
545.258	2665.09
545.463	2630.41
545.667	2579.07
545.872	2632.73
546.076	2597.08
546.281	2615.1
546.485	2572.87
546.689	2590.88
546.894	2639.32
547.098	2608.52
547.302	2605.03
547.507	2613.55
547.711	2614.91
547.915	2704.23
548.119	2570.54
548.324	2596.7
548.528	2635.83
548.732	2589.33
548.936	2669.35
549.141	2667.41
549.345	2695.9
549.549	2667.8
549.753	2705
549.957	2741.81
550.161	2756.54
550.366	2680.59
550.57	2647.85
550.774	2679.62
550.978	2670.9
551.182	2731.16
551.386	2651.53
551.59	2662.57
551.794	2625.95
551.998	2698.41
552.202	2659.67
552.406	2629.63
552.61	2693.18
552.814	2718.76
553.018	2727.09
553.222	2660.44
553.426	2655.02
553.63	2685.24
553.833	2650.17
554.037	2573.45
554.241	2680.4
554.445	2705
554.649	2676.52
554.853	2657.53
555.056	2732.51
555.26	2727.09
555.464	2718.76
555.668	2704.03
555.871	2706.16
556.075	2716.24
556.279	2637.58
556.483	2629.63
556.686	2644.94
556.89	2641.07
557.094	2636.42
557.297	2601.54
557.501	2625.95
557.704	2551.94
557.908	2615.49
558.112	2581.58
558.315	2662.38
558.519	2578.29
558.722	2576.35
558.926	2560.47
559.129	2459.14
559.333	2483.16
559.536	2495.95
559.74	2477.16
559.943	2430.07
560.147	2471.34
560.35	2539.74
560.553	2512.03
560.757	2434.53
560.96	2562.79
561.164	2495.56
561.367	2645.52
561.57	2517.84
561.774	2519.97
561.977	2519.2
562.18	2463.01
562.384	2558.34
562.587	2485.68
562.79	2488.2
562.993	2461.46
563.197	2502.34
563.4	2530.44
563.603	2534.12
563.806	2534.12
564.009	2455.46
564.212	2465.92
564.416	2476.57
564.619	2433.37
564.822	2383.38
565.025	2470.57
565.228	2416.9
565.431	2439.18
565.634	2366.33
565.837	2343.86
566.04	2318.48
566.243	2339.01
566.446	2259.96
566.649	2364.01
566.852	2287.48
567.055	2322.54
567.258	2306.08
567.461	2403.34
567.664	2403.72
567.867	2295.23
568.07	2295.03
568.273	2299.88
568.475	2337.66
568.678	2257.64
568.881	2224.9
569.084	2254.15
569.287	2114.65
569.489	2184.21
569.692	2197
569.895	2235.94
570.098	2133.25
570.3	2141.2
570.503	2083.07
570.706	2102.06
570.909	2136.16
571.111	2052.85
571.314	2066.22
571.516	2053.24
571.719	2096.25
571.922	2044.13
572.124	2074.55
572.327	2077.07
572.529	2032.7
572.732	2051.49
572.935	2099.35
573.137	2160.96
573.34	2052.46
573.542	2109.04
573.745	2092.95
573.947	2077.45
574.15	2056.72
574.352	1998.41
574.554	2117.56
574.757	1991.43
574.959	1958.3
575.162	2017.59
575.364	2008.48
575.566	2057.69
575.769	1981.94
575.971	2000.34
576.173	1915.48
576.376	1951.13
576.578	2001.12
576.78	2038.51
576.982	1884.29
577.185	1950.16
577.387	1918.39
577.589	1930.59
577.791	1948.61
577.993	1941.06
578.196	1895.14
578.398	1958.3
578.6	1932.92
578.802	1870.92
579.004	1876.15
579.206	1854.45
579.408	1908.7
579.61	1868.98
579.812	1937.57
580.014	1881.96
580.216	1887.58
580.418	1892.23
580.62	1899.59
580.822	1859.1
581.024	1880.61
581.226	1943.96
581.428	1868.79
581.63	1995.11
581.832	1890.29
582.034	1953.26
582.236	1900.37
582.438	1935.44
582.64	1950.16
582.841	1989.49
583.043	2002.28
583.245	1950.16
583.447	1970.12
583.649	1933.89
583.85	1957.14
584.052	1932.73
584.254	1897.08
584.456	1980.97
584.657	1873.25
584.859	1954.62
585.061	1892.81
585.262	1874.21
585.464	1861.62
585.666	1909.86
585.867	1845.35
586.069	1907.54
586.27	1907.15
586.472	1872.08
586.674	1882.74
586.875	1822.68
587.077	1825.97
587.278	1873.25
587.48	1825
587.681	1950.74
587.883	1889.52
588.084	1768.43
588.285	1794.97
588.487	1795.94
588.688	1769.78
588.89	1681.24
589.091	1636.29
589.292	1670.78
589.494	1611.88
589.695	1598.71
589.896	1536.9
590.098	1538.84
590.299	1639.78
590.5	1569.64
590.702	1629.51
590.903	1626.02
591.104	1707.01
591.305	1692.29
591.507	1723.67
591.708	1688.22
591.909	1670.59
592.11	1761.65
592.311	1693.84
592.512	1698.49
592.714	1632.61
592.915	1647.53
593.116	1664.97
593.317	1669.23
593.518	1729.48
593.719	1701
593.92	1713.98
594.121	1713.21
594.322	1707.2
594.523	1666.52
594.724	1627.57
594.925	1671.94
595.126	1687.64
595.327	1645.2
595.528	1680.47
595.729	1655.47
595.929	1645.79
596.13	1667.68
596.331	1667.49
596.532	1709.72
596.733	1731.23
596.934	1757
597.135	1711.66
597.335	1699.84
597.536	1622.73
597.737	1691.7
597.938	1649.08
598.138	1665.94
598.339	1657.6
598.54	1681.82
598.74	1645.4
598.941	1649.08
599.142	1750.41
599.342	1673.69
599.543	1659.93
599.744	1663.8
599.944	1662.84
600.145	1673.3
600.345	1685.12
600.546	1713.98
600.746	1722.12
600.947	1764.75
601.147	1683.76
601.348	1741.88
601.548	1640.75
601.749	1697.71
601.949	1621.95
602.15	1644.82
602.35	1667.49
602.551	1703.33
602.751	1630.29
602.951	1668.07
603.152	1594.64
603.352	1712.43
603.552	1674.46
603.753	1669.81
603.953	1686.47
604.153	1689.77
604.354	1682.99
604.554	1664.97
604.754	1677.56
604.954	1645.4
605.155	1676.79
605.355	1644.82
605.555	1723.67
605.755	1729.87
605.955	1652.37
606.155	1690.35
606.356	1657.99
606.556	1706.04
606.756	1707.4
606.956	1613.24
607.156	1706.82
607.356	1603.36
607.556	1683.95
607.756	1693.45
607.956	1703.72
608.156	1645.79
608.356	1593.47
608.556	1632.03
608.756	1626.02
608.956	1585.92
609.156	1605.68
609.356	1592.7
609.556	1574.68
609.755	1595.61
609.955	1579.52
610.155	1571.39
610.355	1616.92
610.555	1545.42
610.755	1553.37
610.954	1531.28
611.154	1595.8
611.354	1628.93
611.554	1550.07
611.753	1586.31
611.953	1531.67
612.153	1590.96
612.352	1574.1
612.552	1491.76
612.752	1515.2
612.951	1535.35
613.151	1512.1
613.351	1566.93
613.55	1535.35
613.75	1568.29
613.949	1481.88
614.149	1510.55
614.348	1493.5
614.548	1459.59
614.747	1438.48
614.947	1472.96
615.146	1429.37
615.346	1488.85
615.545	1484.59
615.745	1482.26
615.944	1474.32
616.144	1476.64
616.343	1453.2
616.542	1440.22
616.742	1426.27
616.941	1449.71
617.14	1368.92
617.34	1455.91
617.539	1409.61
617.738	1447.19
617.938	1468.7
618.137	1431.5
618.336	1396.82
618.535	1463.28
618.734	1438.86
618.934	1441.77
619.133	1455.53
619.332	1479.55
619.531	1406.7
619.73	1429.95
619.929	1474.13
620.128	1478.97
620.328	1475.87
620.527	1415.42
620.726	1411.35
620.925	1434.6
621.124	1421.04
621.323	1446.23
621.522	1362.91
621.721	1372.02
621.92	1350.71
622.119	1431.11
622.318	1360.98
622.517	1364.66
622.715	1367.56
622.914	1339.28
623.113	1364.08
623.312	1321.07
623.511	1371.83
623.71	1355.16
623.909	1350.32
624.107	1376.48
624.306	1320.68
624.505	1299.17
624.704	1314.67
624.902	1345.67
625.101	1375.51
625.3	1351.1
625.499	1293.75
625.697	1312.54
625.896	1299.75
626.095	1339.47
626.293	1283.67
626.492	1292.39
626.69	1311.18
626.889	1283.87
627.088	1379.58
627.286	1254.8
627.485	1281.35
627.683	1245.12
627.882	1283.48
628.08	1208.69
628.279	1230.2
628.477	1277.67
628.676	1229.62
628.874	1273.02
629.073	1200.36
629.271	1198.04
629.469	1251.32
629.668	1223.8
629.866	1225.35
630.065	1195.71
630.263	1265.07
630.461	1200.94
630.66	1232.14
630.858	1252.09
631.056	1279.6
631.254	1256.55
631.453	1207.53
631.651	1303.82
631.849	1215.09
632.047	1249.77
632.245	1209.08
632.444	1278.25
632.642	1273.98
632.84	1292
633.038	1242.4
633.236	1208.89
633.434	1214.7
633.632	1220.9
633.83	1224.19
634.028	1249.57
634.227	1234.85
634.425	1314.67
634.623	1272.05
634.821	1273.02
635.019	1269.53
635.216	1242.6
635.414	1267.98
635.612	1255.97
635.81	1209.47
636.008	1326.68
636.206	1231.17
636.404	1252.48
636.602	1210.44
636.8	1236.59
636.997	1281.35
637.195	1304.79
637.393	1271.27
637.591	1297.43
637.789	1263.14
637.986	1253.45
638.184	1241.82
638.382	1304.79
638.58	1267.98
638.777	1309.63
638.975	1263.33
639.173	1232.52
639.37	1278.25
639.568	1240.08
639.765	1267.98
639.963	1220.32
640.161	1242.6
640.358	1231.75
640.556	1176.14
640.753	1189.32
640.951	1147.08
641.148	1254.42
641.346	1181.76
641.543	1139.91
641.741	1191.84
641.938	1176.72
642.136	1187.57
642.333	1122.67
642.531	1182.54
642.728	1226.71
642.925	1164.71
643.123	1119.96
643.32	1143.59
643.517	1133.71
643.715	1149.02
643.912	1132.74
644.109	1155.41
644.306	1132.94
644.504	1108.52
644.701	1123.64
644.898	1175.76
645.095	1083.34
645.293	1102.32
645.49	1137.39
645.687	1115.11
645.884	1124.02
646.081	1034.51
646.278	1049.82
646.475	1056.41
646.672	1038.78
646.87	1072.29
647.067	1054.08
647.264	1038
647.461	1015.14
647.658	995.76
647.855	1035.09
648.052	970.77
648.249	930.08
648.446	1007.58
648.642	966.31
648.839	948.88
649.036	957.6
649.233	932.99
649.43	923.5
649.627	913.81
649.824	923.88
650.021	935.51
650.217	905.67
650.414	946.55
650.611	965.15
650.808	970.19
651.004	965.73
651.201	994.8
651.398	1002.16
651.595	968.45
651.791	927.95
651.988	940.35
652.185	926.4
652.381	967.48
652.578	901.22
652.775	952.95
652.971	917.1
653.168	923.69
653.364	969.22
653.561	897.53
653.757	957.79
653.954	947.91
654.15	930.28
654.347	982.01
654.543	937.06
654.74	885.33
654.936	877.58
655.133	898.89
655.329	934.15
655.525	886.88
655.722	946.16
655.918	835.92
656.115	887.65
656.311	793.88
656.507	768.3
656.704	734.79
656.9	801.82
657.096	788.07
657.292	786.32
657.489	839.02
657.685	847.93
657.881	809.77
658.077	823.91
658.273	826.24
658.47	903.15
658.666	839.99
658.862	871.96
659.058	822.75
659.254	895.79
659.45	850.45
659.646	870.41
659.842	821.97
660.038	916.91
660.234	799.3
660.43	880.48
660.626	887.46
660.822	895.4
661.018	905.09
661.214	838.83
661.41	829.34
661.606	890.95
661.802	859.56
661.998	867.12
662.194	840.77
662.39	884.36
662.586	864.98
662.781	844.83
662.977	846.58
663.173	880.48
663.369	850.45
663.564	841.35
663.76	888.43
663.956	843.28
664.152	848.52
664.347	790.78
664.543	808.22
664.739	813.45
664.934	757.65
665.13	764.62
665.326	813.25
665.521	815.19
665.717	730.33
665.912	764.43
666.108	695.46
666.304	773.34
666.499	772.57
666.695	734.79
666.89	760.55
667.086	794.27
667.281	797.37
667.477	803.37
667.672	774.5
667.867	767.14
668.063	728.01
668.258	740.79
668.454	736.53
668.649	811.9
668.844	762.88
669.04	767.14
669.235	719.48
669.43	740.41
669.626	674.92
669.821	719.48
670.016	706.31
670.211	727.81
670.407	687.9
670.602	703.4
670.797	709.99
670.992	779.15
671.187	709.21
671.382	761.14
671.578	692.74
671.773	706.69
671.968	648.76
672.163	728.59
672.358	736.92
672.553	658.45
672.748	695.26
672.943	795.04
673.138	708.82
673.333	739.05
673.528	691.58
673.723	714.25
673.918	720.84
674.113	689.45
674.308	751.84
674.503	724.52
674.698	724.13
674.892	685.77
675.087	727.04
675.282	697.78
675.477	698.75
675.672	687.9
675.867	676.66
676.061	672.21
676.256	643.73
676.451	690.03
676.646	687.12
676.84	653.41
677.035	654.96
677.23	670.85
677.424	705.72
677.619	698.36
677.814	727.04
678.008	728.59
678.203	643.73
678.397	667.56
678.592	665.04
678.787	712.89
678.981	691.19
679.176	682.67
679.37	704.37
679.565	643.34
679.759	666.01
679.954	692.16
680.148	732.66
680.342	714.44
680.537	679.76
680.731	660.58
680.926	716.38
681.12	750.29
681.314	691.97
681.509	705.34
681.703	693.71
681.897	722
682.092	686.35
682.286	668.91
682.48	740.21
682.674	717.54
682.869	693.71
683.063	723.74
683.257	757.26
683.451	710.96
683.645	738.66
683.839	709.02
684.034	695.65
684.228	727.62
684.422	658.64
684.616	704.17
684.81	751.45
685.004	728.97
685.198	703.4
685.392	745.64
685.586	697.97
685.78	721.81
685.974	781.29
686.168	770.24
686.362	787.49
686.556	701.07
686.75	691
686.944	645.08
687.138	655.35
687.331	576.11
687.525	614.47
687.719	533.48
687.913	594.32
688.107	613.69
688.301	605.17
688.494	670.66
688.688	618.54
688.882	590.64
689.076	607.11
689.269	631.13
689.463	728.59
689.657	656.51
689.85	664.26
690.044	677.63
690.238	725.87
690.431	728.39
690.625	735.37
690.818	768.11
691.012	773.73
691.205	812.48
691.399	790.2
691.593	805.5
691.786	881.26
691.98	898.12
692.173	933.57
692.366	909.55
692.56	948.68
692.753	955.66
692.947	909.74
693.14	994.6
693.333	976.97
693.527	967.09
693.72	1009.52
693.914	957.79
694.107	983.36
694.3	1039.94
694.493	1011.07
694.687	1091.48
694.88	1045.94
695.073	1124.22
695.266	1130.42
695.46	1106.39
695.653	1139.33
695.846	1189.32
696.039	1124.8
696.232	1146.5
696.425	1213.54
696.618	1245.5
696.812	1239.5
697.005	1323
697.198	1394.5
697.391	1348.38
697.584	1379.58
697.777	1450.49
697.97	1418.91
698.163	1420.46
698.356	1423.75
698.549	1500.28
698.742	1466.96
698.935	1447.78
699.127	1460.37
699.32	1440.03
699.513	1455.33
699.706	1498.54
699.899	1512.1
700.092	1498.93
700.285	1516.17
700.477	1489.04
700.67	1558.41
700.863	1525.47
701.056	1646.56
701.248	1636.68
701.441	1629.7
701.634	1629.9
701.826	1691.12
702.019	1595.61
702.212	1654.7
702.404	1605.68
702.597	1646.95
702.79	1652.76
702.982	1668.65
703.175	1722.51
703.367	1736.85
703.56	1757.58
703.752	1840.89
703.945	1837.79
704.137	1857.36
704.33	1860.65
704.522	1895.91
704.715	1906.76
704.907	1947.84
705.1	1951.91
705.292	1964.11
705.484	1946.48
705.677	1983.68
705.869	2010.81
706.061	2030.37
706.254	2054.98
706.446	2043.74
706.638	2025.34
706.831	2122.21
707.023	2061.95
707.215	2185.76
707.407	2142.17
707.599	2146.04
707.792	2206.68
707.984	2188.86
708.176	2236.13
708.368	2208.62
708.56	2233.61
708.752	2205.33
708.944	2227.22
709.136	2271.98
709.329	2237.3
709.521	2389.78
709.713	2359.74
709.905	2346.76
710.097	2351.22
710.289	2313.63
710.481	2339.01
710.672	2380.09
710.864	2409.15
711.056	2438.02
711.248	2414.96
711.44	2459.52
711.632	2426.39
711.824	2490.14
712.016	2503.31
712.207	2544.58
712.399	2510.87
712.591	2606.77
712.783	2579.07
712.975	2583.33
713.166	2532.76
713.358	2571.51
713.55	2585.27
713.741	2596.89
713.933	2613.94
714.125	2619.75
714.316	2577.13
714.508	2635.06
714.7	2655.6
714.891	2605.42
715.083	2663.15
715.274	2626.73
715.466	2657.92
715.657	2668
715.849	2600.57
716.04	2633.51
716.232	2550.59
716.423	2576.94
716.615	2508.93
716.806	2440.54
716.998	2389.78
717.189	2308.79
717.381	2240.2
717.572	2152.05
717.763	2215.79
717.955	2155.92
718.146	2096.25
718.337	2016.62
718.528	2039.09
718.72	1950.55
718.911	1975.74
719.102	1949.19
719.293	2009.84
719.485	1974.19
719.676	1943.96
719.867	1918.78
720.058	1928.46
720.249	1937.96
720.44	1949.58
720.632	2002.28
720.823	2038.12
721.014	2217.73
721.205	2191.38
721.396	2280.31
721.587	2402.18
721.778	2452.74
721.969	2524.62
722.16	2550.39
722.351	2605.61
722.542	2707.13
722.733	2723.99
722.924	2652.5
723.115	2677.1
723.305	2571.9
723.496	2636.22
723.687	2475.02
723.878	2513.58
724.069	2449.84
724.26	2533.54
724.45	2439.18
724.641	2440.34
724.832	2424.46
725.023	2421.36
725.213	2385.51
725.404	2436.27
725.595	2409.54
725.785	2356.84
725.976	2458.56
726.167	2453.13
726.357	2473.28
726.548	2532.95
726.739	2473.09
726.929	2523.46
727.12	2542.84
727.31	2566.67
727.501	2488.01
727.691	2491.69
727.882	2528.3
728.072	2598.44
728.263	2576.16
728.453	2628.47
728.644	2618.01
728.834	2622.47
729.024	2599.99
729.215	2575
729.405	2619.75
729.596	2714.69
729.786	2706.55
729.976	2658.7
730.167	2719.73
730.357	2688.73
730.547	2669.35
730.737	2724.57
730.928	2734.45
731.118	2759.25
731.308	2749.18
731.498	2786.76
731.688	2815.44
731.879	2847.41
732.069	2900.11
732.259	2968.69
732.449	2948.54
732.639	3043.67
732.829	3087.46
733.019	3099.86
733.209	3163.02
733.399	3230.64
733.589	3295.35
733.779	3293.41
733.969	3313.76
734.159	3405.98
734.349	3432.91
734.539	3462.36
734.729	3458.29
734.919	3437.75
735.109	3553.81
735.299	3446.09
735.488	3519.9
735.678	3527.46
735.868	3494.13
736.058	3483.09
736.248	3452.48
736.437	3458.68
736.627	3452.28
736.817	3569.89
737.007	3478.83
737.196	3564.46
737.386	3538.31
737.576	3513.7
737.765	3603.6
737.955	3535.79
738.144	3647
738.334	3632.28
738.524	3591.01
738.713	3603.6
738.903	3584.81
739.092	3675.68
739.282	3654.56
739.471	3642.74
739.661	3625.11
739.85	3693.69
740.04	3691.37
740.229	3760.34
740.419	3742.32
740.608	3760.15
740.797	3711.33
740.987	3787.86
741.176	3804.13
741.365	3769.06
741.555	3714.42
741.744	3844.43
741.933	3740.97
742.123	3829.12
742.312	3834.74
742.501	3830.87
742.69	3813.24
742.88	3771.19
743.069	3864.39
743.258	3873.3
743.447	3879.11
743.636	3871.75
743.825	3899.65
744.014	3923.48
744.204	3926.77
744.393	3894.03
744.582	3939.95
744.771	3977.92
744.96	3879.11
745.149	3994.58
745.338	3886.86
745.527	3988.96
745.716	3951.57
745.905	3916.5
746.094	3990.71
746.283	3987.41
746.471	3894.8
746.66	4021.9
746.849	4018.8
747.038	3991.29
747.227	3935.68
747.416	3999.81
747.604	3938.4
747.793	4011.83
747.982	3954.48
748.171	3987.61
748.359	3997.49
748.548	3952.35
748.737	3948.08
748.926	3999.81
749.114	3864
749.303	3975.02
749.491	3940.14
749.68	3867.49
749.869	3952.54
750.057	3915.15
750.246	3920.96
750.434	3882.99
750.623	3894.03
750.811	3866.71
751	3963.78
751.188	3903.33
751.377	3925.22
751.565	3899.07
751.754	3863.22
751.942	3852.76
752.131	3912.63
752.319	3814.59
752.507	3793.28
752.696	3905.07
752.884	3914.95
753.072	3837.45
753.261	3851.79
753.449	3813.24
753.637	3835.9
753.825	3907.2
754.014	3831.64
754.202	3839.59
754.39	3895.97
754.578	3884.54
754.766	3780.3
754.955	3797.54
755.143	3874.07
755.331	3815.75
755.519	3821.95
755.707	3761.89
755.895	3788.82
756.083	3794.83
756.271	3794.06
756.459	3783.4
756.647	3814.4
756.835	3774.87
757.023	3760.34
757.211	3757.63
757.399	3712.88
757.587	3738.06
757.775	3655.33
757.963	3717.72
758.151	3723.72
758.339	3654.75
758.526	3647.58
758.714	3686.53
758.902	3530.17
759.09	3480.18
759.278	3220.56
759.465	2954.16
759.653	2570.74
759.841	2326.42
760.028	1993.17
760.216	1730.65
760.404	1598.9
760.591	1325.72
760.779	1139.14
760.967	946.55
761.154	805.5
761.342	837.28
761.529	835.53
761.717	875.25
761.905	880.48
762.092	932.99
762.28	858.4
762.467	833.79
762.655	777.41
762.842	790.97
763.029	828.37
763.217	840.96
763.404	825.65
763.592	831.08
763.779	835.15
763.966	840.77
764.154	909.16
764.341	952.17
764.528	938.41
764.716	1024.05
764.903	1103.49
765.09	1163.94
765.277	1224.77
765.465	1386.55
765.652	1478.97
765.839	1549.69
766.026	1708.75
766.213	1707.59
766.4	1843.6
766.588	2022.24
766.775	2104.39
766.962	2184.79
767.149	2325.45
767.336	2433.56
767.523	2415.54
767.71	2569.57
767.897	2681.17
768.084	2757.12
768.271	2840.62
768.458	2877.63
768.645	2968.69
768.832	2928.97
769.019	2965.79
769.206	3042.7
769.392	3105.86
769.579	3166.9
769.766	3159.73
769.953	3187.43
770.14	3252.53
770.327	3194.99
770.513	3219.59
770.7	3298.45
770.887	3248.85
771.073	3281.21
771.26	3295.93
771.447	3217.27
771.634	3243.62
771.82	3317.05
772.007	3230.64
772.193	3311.82
772.38	3337.78
772.567	3313.95
772.753	3301.55
772.94	3332.16
773.126	3297.48
773.313	3332.55
773.499	3308.72
773.686	3380.21
773.872	3256.99
774.059	3302.91
774.245	3284.11
774.432	3247.3
774.618	3219.79
774.804	3299.81
774.991	3207.39
775.177	3255.05
775.363	3213.39
775.55	3336.62
775.736	3232.96
775.922	3269.19
776.109	3252.92
776.295	3225.21
776.481	3280.82
776.667	3229.86
776.853	3254.08
777.04	3196.34
777.226	3241.68
777.412	3284.89
777.598	3203.71
777.784	3170
777.97	3182.59
778.156	3177.16
778.342	3196.93
778.528	3174.84
778.715	3133.18
778.901	3134.35
779.087	3138.03
779.272	3092.69
779.458	3095.02
779.644	3121.56
779.83	3083.78
780.016	3195.38
780.202	3139.96
780.388	3101.6
780.574	3024.88
780.76	3084.75
780.946	3087.85
781.131	3070.6
781.317	3056.07
781.503	3032.05
781.689	3058.2
781.874	3175.61
782.06	3012.09
782.246	3072.35
782.432	3050.26
782.617	3026.04
782.803	3101.8
782.989	2975.47
783.174	2988.84
783.36	2935.95
783.545	2994.46
783.731	2989.42
783.916	2871.43
784.102	2987.68
784.288	2966.95
784.473	2929.17
784.659	2933.43
784.844	2985.55
785.029	2930.91
785.215	2932.65
785.4	2845.08
785.586	2956.29
785.771	2841.59
785.956	2915.02
786.142	2900.69
786.327	2897.59
786.512	2863.49
786.698	2876.08
786.883	2783.47
787.068	2821.44
787.254	2871.43
787.439	2792.38
787.624	2829.19
787.809	2752.28
787.994	2764.68
788.18	2854.57
788.365	2743.95
788.55	2773.01
788.735	2747.82
788.92	2693.96
789.105	2698.03
789.29	2731.16
789.475	2665.09
789.66	2682.53
789.845	2691.63
790.03	2664.7
790.215	2673.61
790.4	2710.04
790.585	2732.32
790.77	2665.48
790.955	2580.62
791.14	2634.09
791.325	2708.3
791.51	2569.57
791.695	2644.75
791.879	2643.78
792.064	2581
792.249	2670.9
792.434	2619.37
792.618	2631.38
792.803	2681.36
792.988	2592.82
793.173	2620.53
793.357	2672.26
793.542	2560.47
793.727	2613.36
793.911	2669.16
794.096	2609.87
794.281	2664.9
794.465	2717.4
794.65	2642.62
794.834	2709.46
795.019	2716.82
795.203	2723.99
795.388	2665.86
795.572	2726.7
795.757	2727.09
795.941	2666.25
796.126	2655.79
796.31	2633.32
796.494	2623.05
796.679	2650.95
796.863	2593.98
797.048	2705.78
797.232	2674.97
797.416	2668.19
797.601	2699.58
797.785	2709.65
797.969	2719.92
798.153	2615.88
798.338	2712.56
798.522	2744.91
798.706	2748.4
798.89	2730.77
799.074	2773.98
799.258	2732.71
799.443	2701.13
799.627	2689.89
799.811	2765.64
799.995	2714.11
800.179	2674.58
800.363	2713.72
800.547	2715.46
800.731	2738.71
800.915	2602.7
801.099	2659.28
801.283	2691.63
801.467	2725.93
801.651	2639.32
801.835	2729.8
802.019	2663.15
802.202	2680.01
802.386	2653.08
802.57	2614.72
802.754	2676.52
802.938	2623.43
803.121	2628.47
803.305	2707.33
803.489	2649.59
803.673	2646.68
803.856	2656.76
804.04	2632.15
804.224	2681.36
804.407	2647.46
804.591	2658.89
804.775	2661.6
804.958	2672.45
805.142	2743.95
805.326	2637.58
805.509	2698.61
805.693	2749.56
805.876	2748.4
806.06	2699.38
806.243	2717.21
806.427	2728.45
806.61	2725.73
806.794	2650.56
806.977	2743.36
807.16	2732.13
807.344	2732.9
807.527	2722.44
807.71	2671.1
807.894	2701.13
808.077	2709.85
808.26	2664.7
808.444	2646.3
808.627	2705.97
808.81	2668.38
808.993	2581.78
809.177	2571.32
809.36	2631.57
809.543	2618.2
809.726	2556.98
809.909	2513
810.092	2514.55
810.276	2526.75
810.459	2546.9
810.642	2500.99
810.825	2479.67
811.008	2488.39
811.191	2404.69
811.374	2388.03
811.557	2416.51
811.74	2448.09
811.923	2349.86
812.106	2333.39
812.289	2292.71
812.472	2338.04
812.654	2290.19
812.837	2282.63
813.02	2214.43
813.203	2160.57
813.386	2066.6
813.569	2064.28
813.751	1973.99
813.934	2059.24
814.117	2002.09
814.3	1946.87
814.482	1905.21
814.665	1876.73
814.848	1833.14
815.03	1798.46
815.213	1800.59
815.396	1783.54
815.578	1770.75
815.761	1738.78
815.943	1803.3
816.126	1682.79
816.309	1637.26
816.491	1599.87
816.674	1526.24
816.856	1584.17
817.039	1603.16
817.221	1656.05
817.403	1624.67
817.586	1608.78
817.768	1647.53
817.951	1570.22
818.133	1526.24
818.315	1589.99
818.498	1609.56
818.68	1673.88
818.862	1656.05
819.045	1694.8
819.227	1670.78
819.409	1659.35
819.591	1679.69
819.774	1637.45
819.956	1601.22
820.138	1702.36
820.32	1682.6
820.502	1749.25
820.684	1867.82
820.866	1841.08
821.048	1905.6
821.231	1894.94
821.413	1883.13
821.595	1855.61
821.777	1884.87
821.959	1862.2
822.141	1916.26
822.323	1772.69
822.505	1721.15
822.686	1627.96
822.868	1598.32
823.05	1467.15
823.232	1404.76
823.414	1398.76
823.596	1471.8
823.778	1438.09
823.96	1497.76
824.141	1470.44
824.323	1523.92
824.505	1578.75
824.687	1631.84
824.868	1683.37
825.05	1785.09
825.232	1847.67
825.413	1883.9
825.595	1818.61
825.777	1777.15
825.958	1799.23
826.14	1788.58
826.321	1828.1
826.503	1798.85
826.685	1862.01
826.866	1839.92
827.048	1834.69
827.229	1774.82
827.411	1738.4
827.592	1695.39
827.773	1691.51
827.955	1636.29
828.136	1664.97
828.318	1611.49
828.499	1683.37
828.68	1604.13
828.862	1632.03
829.043	1642.49
829.224	1587.66
829.406	1582.82
829.587	1586.69
829.768	1594.64
829.949	1628.93
830.131	1628.93
830.312	1704.88
830.493	1645.79
830.674	1660.7
830.855	1606.07
831.036	1637.45
831.218	1686.09
831.399	1722.9
831.58	1666.9
831.761	1679.5
831.942	1659.15
832.123	1652.18
832.304	1582.43
832.485	1621.95
832.666	1651.21
832.847	1674.07
833.028	1634.35
833.209	1636.29
833.389	1635.71
833.57	1580.69
833.751	1593.09
833.932	1669.04
834.113	1638.81
834.294	1606.46
834.475	1626.99
834.655	1689.19
834.836	1686.86
835.017	1680.85
835.198	1637.45
835.378	1698.29
835.559	1741.11
835.74	1667.1
835.92	1643.27
836.101	1648.5
836.281	1676.2
836.462	1686.09
836.643	1741.69
836.823	1738.59
837.004	1742.27
837.184	1765.72
837.365	1739.17
837.545	1741.3
837.726	1696.35
837.906	1796.13
838.087	1739.17
838.267	1715.34
838.448	1685.5
838.628	1726
838.808	1716.5
838.989	1769.4
839.169	1694.8
839.349	1742.85
839.53	1776.18
839.71	1718.05
839.89	1705.07
840.07	1776.37
840.251	1696.35
840.431	1757.58
840.611	1739.37
840.791	1691.9
840.971	1723.67
841.151	1684.92
841.332	1683.18
841.512	1728.13
841.692	1670.97
841.872	1704.68
842.052	1734.33
842.232	1724.06
842.412	1666.9
842.592	1692.67
842.772	1714.37
842.952	1714.18
843.132	1699.84
843.312	1701.2
843.492	1637.45
843.672	1718.25
843.851	1656.44
844.031	1651.02
844.211	1672.91
844.391	1659.15
844.571	1682.79
844.751	1683.57
844.93	1719.99
845.11	1654.89
845.29	1649.47
845.47	1700.62
845.649	1671.36
845.829	1680.85
846.009	1665.94
846.188	1700.42
846.368	1634.35
846.547	1660.7
846.727	1679.11
846.907	1605.1
847.086	1684.34
847.266	1682.99
847.445	1666.32
847.625	1621.57
847.804	1645.2
847.984	1644.62
848.163	1600.06
848.343	1630.67
848.522	1649.27
848.701	1670.78
848.881	1616.34
849.06	1639.59
849.239	1598.51
849.419	1635.32
849.598	1568.87
849.777	1546.2
849.957	1540.58
850.136	1476.84
850.315	1460.56
850.494	1509.97
850.674	1491.95
850.853	1566.16
851.032	1519.85
851.211	1589.99
851.39	1542.71
851.569	1451.26
851.748	1465.79
851.927	1525.28
852.107	1512.29
852.286	1478.58
852.465	1474.51
852.644	1559.57
852.823	1523.34
853.002	1503.19
853.181	1496.02
853.359	1510.94
853.538	1445.64
853.717	1512.1
853.896	1379.38
854.075	1405.73
854.254	1322.62
854.433	1269.92
854.611	1302.08
854.79	1249.57
854.969	1317.38
855.148	1328.82
855.327	1302.27
855.505	1343.15
855.684	1348
855.863	1354.78
856.041	1344.9
856.22	1359.04
856.399	1371.83
856.577	1485.36
856.756	1469.28
856.934	1560.15
857.113	1519.46
857.291	1434.21
857.47	1426.27
857.648	1448.36
857.827	1434.41
858.005	1507.45
858.184	1422.98
858.362	1491.76
858.541	1454.56
858.719	1418.13
858.898	1415.03
859.076	1388.1
859.254	1488.46
859.433	1430.15
859.611	1427.05
859.789	1377.83
859.967	1429.37
860.146	1482.07
860.324	1383.45
860.502	1393.33
860.68	1369.31
860.859	1393.14
861.037	1362.14
861.215	1419.3
861.393	1383.26
861.571	1400.7
861.749	1384.42
861.927	1411.55
862.105	1370.86
862.283	1370.66
862.461	1360.78
862.639	1318.16
862.817	1365.63
862.995	1387.91
863.173	1377.83
863.351	1376.48
863.529	1378.22
863.707	1380.93
863.885	1360.98
864.063	1314.87
864.241	1317.38
864.418	1364.08
864.596	1314.87
864.774	1308.67
864.952	1317
865.129	1357.1
865.307	1302.66
865.485	1234.46
865.663	1310.6
865.84	1234.27
866.018	1271.08
866.196	1114.72
866.373	1140.11
866.551	1133.91
866.728	1111.04
866.906	1126.16
867.084	1157.16
867.261	1221.09
867.439	1199.78
867.616	1214.12
867.794	1194.74
867.971	1227.87
868.149	1225.74
868.326	1254.8
868.503	1255.19
868.681	1273.6
868.858	1240.66
869.035	1204.43
869.213	1224.77
869.39	1199
869.567	1310.99
869.745	1208.89
869.922	1231.75
870.099	1227.49
870.276	1246.28
870.454	1250.54
870.631	1249.57
870.808	1209.85
870.985	1245.89
871.162	1312.54
871.339	1228.07
871.517	1171.11
871.694	1162.19
871.871	1191.45
872.048	1196.68
872.225	1193.58
872.402	1211.6
872.579	1123.64
872.756	1214.7
872.933	1155.99
873.11	1139.33
873.287	1141.46
873.463	1151.73
873.64	1187.77
873.817	1212.37
873.994	1197.26
874.171	1127.12
874.348	1183.31
874.524	1118.02
874.701	1122.67
874.878	1102.52
875.055	1155.8
875.231	1104.07
875.408	1168.78
875.585	1123.44
875.762	1100
875.938	1126.93
876.115	1132.36
876.291	1104.07
876.468	1112.79
876.645	1087.6
876.821	1094.19
876.998	1120.54
877.174	1114.14
877.351	1093.22
877.527	1094.77
877.704	1088.96
877.88	1114.72
878.057	1077.14
878.233	1110.27
878.409	1069
878.586	1103.1
878.762	1050.4
878.938	1066.68
879.115	1027.34
879.291	1061.06
879.467	1016.69
879.644	1031.03
879.82	1053.31
879.996	1013.39
880.172	1009.33
880.349	1085.66
880.525	1047.69
880.701	1002.35
880.877	1018.82
881.053	1034.9
881.229	1019.4
881.405	1094.57
881.581	1013.39
881.757	997.31
881.933	1030.64
882.109	1084.69
882.285	1027.34
882.461	970.77
882.637	999.64
882.813	978.91
882.989	1029.09
883.165	1076.75
883.341	1001
883.517	1042.26
883.693	1042.46
883.869	1082.18
884.044	982.78
884.22	1043.43
884.396	1092.64
884.572	1044.78
884.747	1049.63
884.923	1013.01
885.099	1043.62
885.275	1049.63
885.45	1014.36
885.626	1004.1
885.801	980.07
885.977	1005.26
886.153	954.3
886.328	1015.91
886.504	1015.91
886.679	999.83
886.855	992.66
887.03	1031.99
887.206	1042.46
887.381	1041.68
887.557	1035.29
887.732	1017.08
887.908	1021.34
888.083	1034.9
888.258	986.27
888.434	1038.19
888.609	1006.81
888.784	1047.69
888.96	992.47
889.135	1009.52
889.31	1004.29
889.485	1003.71
889.661	999.25
889.836	1022.11
890.011	1029.09
890.186	1044.98
890.361	990.34
890.537	999.25
890.712	995.18
890.887	989.56
891.062	1045.56
891.237	1050.79
891.412	986.46
891.587	1012.04
891.762	1044.59
891.937	1019.59
892.112	960.5
892.287	996.54
892.462	977.55
892.637	928.73
892.812	901.41
892.987	926.21
893.161	902.57
893.336	933.18
893.511	923.3
893.686	913.42
893.861	889.2
894.035	889.01
894.21	914.2
894.385	844.83
894.56	895.02
894.734	821.2
894.909	825.65
895.084	812.87
895.258	813.84
895.433	834.57
895.608	759.2
895.782	742.73
895.957	797.17
896.131	773.54
896.306	699.33
896.48	691
896.655	695.07
896.829	640.82
897.004	643.92
897.178	692.16
897.353	652.44
897.527	699.91
897.701	682.67
897.876	620.67
898.05	717.74
898.224	650.12
898.399	691.58
898.573	652.25
898.747	564.87
898.921	592.96
899.096	515.08
899.27	534.06
899.444	515.66
899.618	572.23
899.792	570.68
899.967	587.15
900.141	604.59
900.315	582.11
900.489	557.12
900.663	557.7
900.837	574.17
901.011	533.1
901.185	611.18
901.359	559.06
901.533	584.63
901.707	587.93
901.881	563.9
902.055	524.38
902.229	544.53
902.403	654.19
902.576	561.58
902.75	566.03
902.924	682.47
903.098	616.02
903.272	700.49
903.446	717.16
903.619	702.43
903.793	742.73
903.967	720.64
904.14	776.83
904.314	733.43
904.488	732.07
904.661	748.15
904.835	725.49
905.009	773.15
905.182	763.85
905.356	744.47
905.529	740.6
905.703	712.12
905.876	718.32
906.05	664.65
906.223	685.19
906.397	602.26
906.57	584.63
906.744	565.45
906.917	573.01
907.09	566.61
907.264	565.65
907.437	537.94
907.61	529.8
907.784	547.63
907.957	521.66
908.13	518.18
908.304	557.12
908.477	490.28
908.65	530.77
908.823	474.78
908.996	551.31
909.17	523.6
909.343	492.21
909.516	499.77
909.689	485.82
909.862	474.78
910.035	514.88
910.208	464.12
910.381	466.83
910.554	548.79
910.727	502.87
910.9	492.8
911.073	474.97
911.246	543.17
911.419	528.25
911.592	512.95
911.765	482.91
911.938	495.7
912.11	505.2
912.283	505
912.456	516.82
912.629	511.78
912.802	485.43
912.974	430.02
913.147	409.29
913.32	378.68
913.493	397.08
913.665	413.94
913.838	419.37
914.01	418.98
914.183	442.81
914.356	457.53
914.528	467.8
914.701	524.38
914.873	465.28
915.046	395.34
915.218	394.76
915.391	372.48
915.563	372.67
915.736	415.49
915.908	432.15
916.081	419.75
916.253	423.05
916.425	422.47
916.598	454.82
916.77	427.12
916.942	418.78
917.115	330.05
917.287	399.6
917.459	393.4
917.632	372.09
917.804	311.84
917.976	376.55
918.148	366.09
918.32	410.84
918.493	437.38
918.665	478.27
918.837	438.35
919.009	485.43
919.181	477.68
919.353	455.98
919.525	441.26
919.697	459.28
919.869	438.55
920.041	523.02
920.213	546.46
920.385	521.47
920.557	480.4
920.729	493.18
920.901	478.65
921.073	487.18
921.244	459.47
921.416	499.38
921.588	453.66
921.76	447.85
921.932	490.08
922.103	469.55
922.275	479.43
922.447	479.62
922.619	403.09
922.79	450.75
922.962	424.21
923.134	458.7
923.305	427.5
923.477	397.86
923.648	373.25
923.82	403.87
923.991	366.28
924.163	372.87
924.335	376.35
924.506	368.02
924.677	425.37
924.849	362.99
925.02	397.67
925.192	415.3
925.363	372.29
925.535	403.48
925.706	379.84
925.877	422.08
926.049	382.75
926.22	425.18
926.391	415.68
926.562	417.04
926.734	349.62
926.905	395.92
927.076	312.42
927.247	367.44
927.419	306.41
927.59	318.23
927.761	324.62
927.932	271.73
928.103	292.27
928.274	258.75
928.445	290.52
928.616	279.67
928.787	232.4
928.958	289.17
929.129	270.57
929.3	238.79
929.471	214.96
929.642	172.34
929.813	173.5
929.984	242.67
930.155	160.71
930.326	208.76
930.496	172.53
930.667	126.03
930.838	142.69
931.009	117.12
931.18	148.51
931.35	144.63
931.521	127.39
931.692	78.56
931.863	66.36
932.033	121.38
932.204	116.54
932.374	122.74
932.545	59.77
932.716	101.43
932.886	91.35
933.057	27.42
933.227	47.95
933.398	120.8
933.568	27.42
933.739	21.99
933.909	20.63
934.08	94.65
934.25	-5.33
934.421	39.82
934.591	57.25
934.761	17.15
934.932	11.33
935.102	25.28
935.272	29.74
935.443	2.62
935.613	28.38
935.783	39.82
935.953	14.43
936.123	166.14
936.294	2.03
936.464	6.3
936.634	25.28
936.804	-9.78
936.974	6.3
937.144	32.26
937.314	23.73
937.484	7.07
937.655	-14.43
937.825	61.9
937.995	-16.37
938.165	77.01
938.334	47.18
938.504	46.21
938.674	37.49
938.844	42.53
939.014	98.71
939.184	75.85
939.354	141.14
939.524	117.9
939.694	65
939.863	56.86
940.033	123.9
940.203	128.75
940.373	118.86
940.542	123.51
940.712	51.63
940.882	114.02
941.051	123.13
941.221	114.41
941.391	134.36
941.56	73.91
941.73	78.95
941.899	151.22
942.069	62.48
942.238	107.24
942.408	93.48
942.577	94.26
942.747	81.66
942.916	18.7
943.086	32.84
943.255	81.66
943.425	59.38
943.594	66.55
943.763	28.97
943.933	37.1
944.102	8.23
944.271	69.46
944.441	40.4
944.61	44.46
944.779	41.95
944.948	131.07
945.117	26.25
945.287	42.72
945.456	-4.75
945.625	27.03
945.794	78.95
945.963	30.71
946.132	67.52
946.301	63.65
946.47	88.06
946.639	5.13
946.808	33.62
946.977	92.32
947.146	105.11
947.315	41.56
947.484	85.35
947.653	52.99
947.822	36.33
947.991	46.4
948.16	116.15
948.329	92.9
948.498	51.63
948.666	53.57
948.835	60.16
949.004	45.05
949.173	10.37
949.341	83.8
949.51	77.4
949.679	103.75
949.847	75.08
950.016	128.94
950.185	134.94
950.353	40.4
950.522	58.8
950.69	107.05
950.859	69.07
951.028	95.23
951.196	55.9
951.365	50.66
951.533	58.03
951.701	63.84
951.87	96.97
952.038	36.91
952.207	49.11
952.375	82.83
952.543	36.72
952.712	65.2
952.88	34.78
953.048	110.92
953.217	38.65
953.385	49.7
953.553	100.65
953.721	29.93
953.89	32.07
954.058	23.93
954.226	68.3
954.394	88.45
954.562	3.58
954.73	36.91
954.898	50.86
955.067	85.15
955.235	46.98
955.403	66.55
955.571	107.63
955.739	87.48
955.907	30.32
956.075	65.78
956.243	51.44
956.41	58.8
956.578	24.51
956.746	37.49
956.914	39.82
957.082	89.03
957.25	82.83
957.418	63.45
957.585	52.6
957.753	77.6
957.921	58.22
958.089	61.9
958.256	96
958.424	71.4
958.592	56.67
958.759	15.4
958.927	71.78
959.095	47.18
959.262	39.62
959.43	82.44
959.597	17.73
959.765	62.1
959.932	23.35
960.1	76.63
960.267	41.37
960.435	49.7
960.602	105.11
960.77	36.33
960.937	27.61
961.104	53.57
961.272	52.41
961.439	41.37
961.606	73.14
961.774	75.27
961.941	66.55
962.108	83.8
962.275	56.09
962.443	102.78
962.61	71.4
962.777	115.76
962.944	100.26
963.111	88.64
963.278	83.02
963.446	95.03
963.613	88.64
963.78	86.12
963.947	103.36
964.114	85.35
964.281	176.21
964.448	95.42
964.615	55.12
964.782	65.97
964.949	107.63
965.116	92.9
965.282	109.95
965.449	94.26
965.616	36.13
965.783	108.01
965.95	87.86
966.117	64.61
966.283	100.07
966.45	80.31
966.617	80.11
966.784	116.15
966.95	116.15
967.117	106.85
967.284	69.07
967.45	82.63
967.617	122.35
967.784	93.68
967.95	149.48
968.117	99.88
968.283	112.86
968.45	193.65
968.616	125.06
968.783	116.54
968.949	141.34
969.116	134.36
969.282	128.55
969.449	114.02
969.615	90.19
969.781	76.24
969.948	70.04
970.114	67.33
970.28	154.71
970.447	91.35
970.613	149.86
970.779	105.11
970.945	129.71
971.112	118.09
971.278	113.25
971.444	121.19
971.61	136.69
971.776	96.2
971.942	122.74
972.108	121.77
972.275	121.77
972.441	125.45
972.607	180.67
972.773	90
972.939	128.36
973.105	99.1
973.271	41.56
973.437	88.83
973.602	82.44
973.768	93.48
973.934	91.35
974.1	129.91
974.266	44.27
974.432	82.63
974.598	55.51
974.763	129.52
974.929	67.13
975.095	146.18
975.261	65.2
975.426	57.06
975.592	80.31
975.758	123.51
975.923	12.11
976.089	74.88
976.255	153.16
976.42	106.66
976.586	116.93
976.751	104.14
976.917	149.28
977.082	121.38
977.248	49.7
977.413	52.8
977.579	62.68
977.744	91.74
977.91	59.38
978.075	73.91
978.24	94.65
978.406	87.67
978.571	72.95
978.736	64.81
978.902	67.91
979.067	64.81
979.232	33.03
979.397	95.23
979.563	138.82
979.728	64.03
979.893	79.34
980.058	47.37
980.223	95.61
980.388	121.96
980.554	82.25
980.719	55.7
980.884	95.61
981.049	122.93
981.214	72.36
981.379	106.08
981.544	56.67
981.709	69.07
981.874	54.54
982.039	81.08
982.204	118.48
982.368	68.3
982.533	65.97
982.698	127.58
982.863	119.45
983.028	63.45
983.193	85.35
983.357	83.02
983.522	94.65
983.687	76.05
983.852	83.99
984.016	78.76
984.181	104.72
984.346	103.17
984.51	102.4
984.675	123.71
984.839	86.12
985.004	103.95
985.168	134.56
985.333	83.99
985.498	76.05
985.662	120.61
985.827	104.53
985.991	73.53
986.155	79.92
986.32	110.34
986.484	147.73
986.649	76.63
986.813	55.9
986.977	111.31
987.142	103.36
987.306	67.91
987.47	46.01
987.634	81.86
987.799	83.8
987.963	104.14
988.127	105.88
988.291	156.64
988.455	77.6
988.62	98.52
988.784	112.47
988.948	101.04
989.112	27.61
989.276	110.53
989.44	90.77
989.604	62.29
989.768	72.56
989.932	152.38
990.096	40.2
990.26	32.07
990.424	50.28
990.588	88.06
990.752	121
990.915	97.36
991.079	61.13
991.243	71.2
991.407	117.12
991.571	80.31
991.734	130.3
991.898	85.35
992.062	159.16
992.226	84.18
992.389	69.07
992.553	33.23
992.717	56.67
992.88	46.21
993.044	65
993.207	55.7
993.371	101.23
993.535	69.46
993.698	93.1
993.862	101.43
994.025	81.66
994.189	77.01
994.352	55.7
994.515	71.98
994.679	114.99
994.842	45.24
995.006	85.35
995.169	68.88
995.332	77.01
995.496	111.7
995.659	31.29
995.822	59.38
995.985	66.36
996.149	91.16
996.312	60.55
996.475	129.13
996.638	33.81
996.801	129.71
996.964	126.81
997.128	72.36
997.291	73.91
997.454	88.25
997.617	13.08
997.78	97.55
997.943	67.52
998.106	91.55
998.269	72.56
998.432	55.9
998.595	75.08
998.758	31.48
998.92	31.1
999.083	3.58
999.246	41.17
999.409	27.03
999.572	10.95
999.735	44.08
999.897	96.97
1000.06	51.63
1000.223	47.37
1000.386	91.35
1000.548	83.8
1000.711	70.43
1000.874	67.13
1001.036	12.69
1001.199	92.32
1001.361	57.83
1001.524	44.46
1001.687	105.3
1001.849	40.98
1002.012	89.61
1002.174	51.83
1002.337	51.63
1002.499	50.08
1002.661	103.75
1002.824	15.98
1002.986	14.24
1003.149	54.73
1003.311	44.08
1003.473	82.05
1003.636	14.43
1003.798	70.43
1003.96	77.4
1004.123	47.76
1004.285	15.4
1004.447	52.6
1004.609	37.49
1004.771	76.63
1004.933	13.27
1005.096	20.25
1005.258	19.28
1005.42	39.82
1005.582	81.66
1005.744	57.06
1005.906	18.12
1006.068	37.3
1006.23	-3
1006.392	-18.5
1006.554	36.72
1006.716	89.03
1006.878	57.25
1007.04	29.16
1007.202	47.76
1007.363	55.9
1007.525	33.42
1007.687	36.13
1007.849	73.72
1008.011	8.23
1008.172	8.82
1008.334	46.6
1008.496	49.11
1008.658	9.98
1008.819	28.38
1008.981	2.62
1009.143	11.92
1009.304	17.73
1009.466	75.27
1009.627	79.34
1009.789	110.92
1009.95	18.5
1010.112	35.17
1010.273	21.22
1010.435	7.65
1010.596	65
1010.758	23.15
1010.919	52.21
1011.081	12.88
1011.242	33.81
1011.403	47.76
1011.565	28
1011.726	70.04
1011.887	-5.72
1012.049	28.58
1012.21	51.63
1012.371	85.73
1012.532	-7.27
1012.693	41.95
1012.855	18.12
1013.016	34.39
1013.177	76.82
1013.338	0.29
1013.499	104.14
1013.66	59.38
1013.821	54.54
1013.982	37.3
1014.143	62.48
1014.304	32.65
1014.465	32.26
1014.626	35.17
1014.787	34
1014.948	94.06
1015.109	-41.37
1015.27	55.7
1015.431	11.72
1015.592	28.58
1015.752	61.9
1015.913	41.17
1016.074	22.38
1016.235	48.15
1016.395	19.67
1016.556	19.28
1016.717	30.32
1016.877	77.6
1017.038	30.32
1017.199	17.53
1017.359	44.66
1017.52	30.52
1017.681	-6.1
1017.841	28.97
1018.002	-26.64
1018.162	27.42
1018.323	61.51
1018.483	29.74
1018.644	11.53
1018.804	6.68
1018.964	-17.53
1019.125	34.39
1019.285	27.61
1019.446	-14.24
1019.606	5.91
1019.766	-31.87
1019.926	51.05
1020.087	40.4
1020.247	-16.95
1020.407	32.07
1020.567	56.86
1020.728	18.31
1020.888	-14.63
1021.048	15.4
1021.208	0.48
1021.368	4.94
1021.528	56.09
1021.688	35.94
1021.848	50.08
1022.008	28.97
1022.168	22.57
1022.328	9.59
1022.488	38.85
1022.648	9.01
1022.808	-10.37
1022.968	63.45
1023.128	3.78
1023.288	-2.42
1023.448	-10.95
1023.608	35.75
1023.767	15.4
1023.927	9.4
1024.087	-6.68
1024.247	-28.97
1024.406	10.75
1024.566	-3.39
1024.726	-11.92
1024.885	18.89
1025.045	42.33
1025.205	5.72
1025.364	13.47
1025.524	19.47
1025.683	-1.65
1025.843	39.04
1026.003	21.99
1026.162	78.37
1026.321	63.06
1026.481	23.54
1026.64	19.67
1026.8	58.41
1026.959	-5.33
1027.119	16.18
1027.278	-3
1027.437	27.03
1027.597	14.63
1027.756	23.93
1027.915	16.95
1028.074	34
1028.234	0.87
1028.393	53.18
1028.552	9.78
1028.711	-42.33
1028.87	38.46
1029.03	-12.69
1029.189	12.5
1029.348	-37.49
1029.507	-5.13
1029.666	-6.68
1029.825	-4.55
1029.984	-32.07
1030.143	33.62
1030.302	1.65
1030.461	-40.78
1030.62	15.6
1030.779	34.39
1030.938	-25.28
1031.097	-21.22
1031.255	32.07
1031.414	48.92
1031.573	42.72
1031.732	-26.83
1031.891	-9.01
1032.049	61.9
1032.208	34
1032.367	-4.94
1032.525	-19.28
1032.684	-17.15
1032.843	19.47
1033.001	-53.18
1033.16	133.59
1033.319	51.63
1033.477	31.68
1033.636	9.4
1033.794	-40.59
1033.953	34.39
1034.111	31.68
1034.27	-3.58
1034.428	-17.34
1034.587	-32.07
1034.745	29.93
1034.903	12.69
1035.062	21.02
1035.22	-28.97
1035.378	37.88
1035.537	-12.5
1035.695	19.47
1035.853	25.87
1036.011	30.52
1036.17	14.05
1036.328	-54.93
1036.486	2.62
1036.644	30.71
1036.802	-66.94
1036.96	-30.9
1037.119	-15.98
1037.277	-14.63
1037.435	-38.27
1037.593	-19.08
1037.751	-9.01
1037.909	8.82
1038.067	8.82
