Data from gum_young_FLMT105791__65__17-39-23-043.txt Node

Date: Mon Mar 20 17:39:23 GMT 2023
User: antho
Spectrometer: FLMT10579
Trigger mode: 0
Integration Time (sec): 1.000000E-1
Scans to average: 10
Electric dark correction enabled: true
Nonlinearity correction enabled: false
Boxcar width: 0
XAxis mode: Wavelengths
Number of Pixels in Spectrum: 3648
>>>>>Begin Spectral Data<<<<<
345.248	-131.41
345.464	-131.41
345.681	-131.41
345.898	-151.17
346.114	-156.21
346.331	-36.86
346.548	36.57
346.764	-23.1
346.981	5.18
347.197	-6.44
347.414	-8.57
347.631	-24.85
347.847	56.53
348.064	-0.05
348.28	26.69
348.497	-35.5
348.713	10.41
348.93	23.01
349.146	57.49
349.363	12.35
349.579	-7.02
349.796	-3.54
350.012	-13.8
350.229	45.09
350.445	26.3
350.661	-23.1
350.878	4.21
351.094	29.98
351.311	44.13
351.527	15.84
351.743	9.25
351.96	28.04
352.176	33.28
352.392	50.71
352.609	25.53
352.825	-16.9
353.041	-8.38
353.257	-1.99
353.474	14.1
353.69	30.95
353.906	13.71
354.122	-18.07
354.339	65.44
354.555	11.96
354.771	25.53
354.987	53.04
355.203	30.37
355.42	21.46
355.636	17
355.852	-26.4
356.068	32.5
356.284	-28.92
356.5	89.08
356.716	30.56
356.932	24.56
357.148	41.99
357.364	22.81
357.58	37.54
357.796	67.38
358.012	47.03
358.228	18.75
358.444	-46.94
358.66	45.29
358.876	13.71
359.092	-17.68
359.308	24.36
359.524	35.21
359.74	-3.34
359.956	1.11
360.172	27.46
360.388	57.11
360.604	-7.02
360.819	109.61
361.035	30.56
361.251	27.27
361.467	-9.15
361.683	45.48
361.898	15.06
362.114	38.12
362.33	24.36
362.546	32.89
362.762	20.49
362.977	25.91
363.193	24.94
363.409	44.51
363.624	-14.19
363.84	-13.22
364.056	-20.78
364.271	42.58
364.487	31.92
364.703	3.25
364.918	-16.52
365.134	26.88
365.35	-0.63
365.565	97.41
365.781	33.28
365.996	37.54
366.212	60.01
366.427	47.23
366.643	20.88
366.858	6.73
367.074	-24.07
367.289	63.69
367.505	103.41
367.72	-25.43
367.936	1.89
368.151	60.59
368.367	48.39
368.582	15.84
368.798	3.05
369.013	59.63
369.228	21.26
369.444	24.17
369.659	51.49
369.874	33.86
370.09	70.67
370.305	-14.19
370.52	34.83
370.736	76.68
370.951	17.39
371.166	61.76
371.381	74.93
371.597	56.53
371.812	-1.79
372.027	-6.64
372.242	9.25
372.458	85.98
372.673	8.09
372.888	23.59
373.103	29.79
373.318	100.51
373.533	29.79
373.749	34.24
373.964	-16.52
374.179	67.76
374.394	-7.22
374.609	56.91
374.824	5.18
375.039	53.04
375.254	11.19
375.469	65.05
375.684	39.09
375.899	51.49
376.114	17.39
376.329	48.97
376.544	74.16
376.759	80.16
376.974	9.83
377.189	31.73
377.404	9.06
377.619	70.67
377.834	-14.19
378.049	-3.92
378.264	-9.54
378.478	28.24
378.693	9.06
378.908	24.56
379.123	7.51
379.338	58.08
379.553	29.4
379.767	25.91
379.982	33.08
380.197	37.93
380.412	8.67
380.626	48.97
380.841	100.51
381.056	36.38
381.271	84.04
381.485	18.36
381.7	-10.7
381.915	23.98
382.129	29.01
382.344	17.58
382.559	52.26
382.773	47.61
382.988	-14.58
383.202	33.28
383.417	-8.96
383.632	92.76
383.846	31.73
384.061	45.29
384.275	-7.8
384.49	59.63
384.704	49.94
384.919	4.8
385.133	27.46
385.348	62.53
385.562	11.19
385.777	70.09
385.991	16.23
386.206	18.75
386.42	49.16
386.634	78.03
386.849	39.48
387.063	54.78
387.277	1.7
387.492	11.77
387.706	9.06
387.92	16.81
388.135	85.39
388.349	65.63
388.563	46.64
388.778	64.47
388.992	58.85
389.206	60.21
389.42	117.94
389.635	41.03
389.849	76.87
390.063	68.54
390.277	53.81
390.491	97.41
390.706	62.34
390.92	70.86
391.134	50.13
391.348	76.29
391.562	-2.37
391.776	43.74
391.99	37.73
392.205	74.74
392.419	22.62
392.633	60.98
392.847	79.19
393.061	2.08
393.275	100.12
393.489	60.98
393.703	30.18
393.917	79.19
394.131	13.32
394.345	78.03
394.559	63.31
394.773	38.31
394.986	59.04
395.2	9.45
395.414	64.86
395.628	0.53
395.842	58.66
396.056	38.12
396.27	15.65
396.484	77.84
396.697	44.13
396.911	102.44
397.125	67.38
397.339	77.26
397.553	35.6
397.766	101.28
397.98	73.38
398.194	83.84
398.408	42.58
398.621	87.72
398.835	83.84
399.049	86.36
399.262	106.32
399.476	103.03
399.69	100.12
399.903	132.28
400.117	69.31
400.331	96.63
400.544	50.13
400.758	165.61
400.971	66.79
401.185	118.91
401.398	55.36
401.612	102.44
401.826	82.68
402.039	89.46
402.253	40.64
402.466	77.84
402.68	60.21
402.893	91.01
403.106	101.86
403.32	92.76
403.533	93.92
403.747	86.94
403.96	92.76
404.174	99.15
404.387	61.56
404.6	86.94
404.814	130.73
405.027	82.29
405.24	80.74
405.454	91.4
405.667	96.24
405.88	35.21
406.094	88.69
406.307	111.36
406.52	87.14
406.733	45.87
406.947	61.56
407.16	140.61
407.373	107.68
407.586	70.67
407.799	59.82
408.012	109.81
408.226	102.64
408.439	146.04
408.652	60.59
408.865	101.09
409.078	137.9
409.291	92.37
409.504	71.64
409.717	106.13
409.93	100.12
410.143	89.46
410.357	51.29
410.57	39.09
410.783	60.21
410.996	102.83
411.209	80.36
411.421	141.39
411.634	108.06
411.847	71.44
412.06	93.73
412.273	110
412.486	104.19
412.699	204.94
412.912	110.39
413.125	109.22
413.338	98.57
413.55	105.54
413.763	97.02
413.976	125.69
414.189	100.89
414.402	101.28
414.615	158.63
414.827	88.11
415.04	134.41
415.253	127.05
415.466	152.62
415.678	165.61
415.891	113.49
416.104	120.07
416.316	113.49
416.529	89.66
416.742	127.63
416.954	138.48
417.167	107.29
417.38	82.29
417.592	153.21
417.805	82.68
418.017	46.45
418.23	136.35
418.442	88.3
418.655	109.03
418.868	112.52
419.08	146.23
419.293	145.46
419.505	162.89
419.718	131.31
419.93	163.09
420.142	107.68
420.355	169.29
420.567	159.41
420.78	116.01
420.992	135.57
421.205	195.64
421.417	101.09
421.629	119.69
421.842	65.44
422.054	103.99
422.266	148.17
422.479	159.99
422.691	126.27
422.903	156.5
423.115	125.89
423.328	106.9
423.54	146.81
423.752	143.32
423.964	126.86
424.177	119.49
424.389	111.16
424.601	230.12
424.813	113.1
425.025	149.72
425.238	154.95
425.45	109.61
425.662	120.66
425.874	373.88
426.086	135.96
426.298	169.09
426.51	143.91
426.722	151.46
426.934	136.74
427.146	141.97
427.358	90.63
427.57	168.51
427.782	111.74
427.994	134.99
428.206	106.32
428.418	103.61
428.63	166.57
428.842	168.9
429.054	141.97
429.266	168.9
429.478	98.76
429.69	142.55
429.902	116.39
430.114	136.16
430.325	134.99
430.537	119.49
430.749	132.67
430.961	78.03
431.173	90.24
431.384	117.56
431.596	60.01
431.808	113.29
432.02	140.81
432.231	188.08
432.443	194.28
432.655	159.99
432.867	139.06
433.078	181.11
433.29	196.02
433.502	197.19
433.713	197.38
433.925	173.36
434.136	163.28
434.348	123.17
434.56	111.16
434.771	229.35
434.983	114.65
435.194	139.64
435.406	182.27
435.617	196.22
435.829	222.37
436.04	186.92
436.252	215.4
436.463	223.54
436.675	206.68
436.886	202.61
437.098	190.41
437.309	227.8
437.521	203.77
437.732	219.85
437.943	202.8
438.155	195.44
438.366	130.34
438.578	229.35
438.789	196.02
439	202.61
439.211	151.85
439.423	185.17
439.634	186.92
439.845	228.96
440.057	212.69
440.268	246.01
440.479	184.01
440.69	212.1
440.902	189.44
441.113	181.88
441.324	170.26
441.535	221.4
441.746	246.79
441.957	186.72
442.168	190.02
442.38	239.62
442.591	239.81
442.802	203.77
443.013	186.53
443.224	203.77
443.435	202.22
443.646	210.36
443.857	217.53
444.068	191.18
444.279	214.62
444.49	279.53
444.701	226.83
444.912	294.45
445.123	237.68
445.334	215.4
445.545	240
445.756	232.06
445.967	197.77
446.178	225.86
446.388	233.61
446.599	266.94
446.81	235.74
447.021	199.9
447.232	281.85
447.443	282.44
447.653	214.82
447.864	258.22
448.075	264.8
448.286	273.91
448.496	244.85
448.707	277.01
448.918	239.62
449.129	340.37
449.339	227.99
449.55	274.88
449.761	240.78
449.971	279.34
450.182	234.39
450.393	308.4
450.603	263.45
450.814	290.18
451.024	265.97
451.235	312.66
451.446	327
451.656	325.64
451.867	239.81
452.077	285.53
452.288	346.76
452.498	322.93
452.709	278.17
452.919	294.06
453.13	252.21
453.34	308.78
453.55	211.14
453.761	297.55
453.971	282.05
454.182	311.69
454.392	267.13
454.602	335.13
454.813	275.85
455.023	324.67
455.233	265.97
455.444	279.92
455.654	213.07
455.864	277.98
456.075	267.9
456.285	279.53
456.495	275.27
456.705	292.32
456.916	360.71
457.126	325.06
457.336	279.92
457.546	264.8
457.756	310.72
457.967	339.98
458.177	296.19
458.387	312.08
458.597	262.09
458.807	281.66
459.017	296
459.227	294.64
459.437	280.5
459.647	327.38
459.857	313.43
460.068	309.17
460.278	352.77
460.488	328.35
460.698	384.93
460.908	316.15
461.117	278.75
461.327	302.78
461.537	347.92
461.747	309.17
461.957	316.73
462.167	407.98
462.377	353.15
462.587	307.43
462.797	364.39
463.007	328.55
463.216	358.58
463.426	366.91
463.636	353.73
463.846	319.83
464.056	323.7
464.265	369.43
464.475	296
464.685	382.99
464.895	361.48
465.104	337.85
465.314	337.07
465.524	339.4
465.733	267.52
465.943	394.23
466.153	377.95
466.362	351.8
466.572	342.3
466.782	333.78
466.991	341.33
467.201	389.58
467.41	307.62
467.62	386.28
467.829	335.72
468.039	365.36
468.249	350.05
468.458	346.57
468.668	399.85
468.877	362.26
469.086	412.25
469.296	400.81
469.505	357.22
469.715	425.61
469.924	385.51
470.134	416.31
470.343	434.33
470.552	358.38
470.762	364.58
470.971	340.56
471.18	400.43
471.39	369.43
471.599	356.64
471.808	408.18
472.018	385.9
472.227	417.48
472.436	438.79
472.645	412.83
472.855	370.01
473.064	452.74
473.273	408.95
473.482	427.36
473.691	449.83
473.901	440.92
474.11	412.05
474.319	480.06
474.528	423.1
474.737	461.84
474.946	462.23
475.155	436.46
475.364	464.56
475.573	461.65
475.783	456.42
475.992	457.58
476.201	492.07
476.41	451.96
476.619	402.17
476.828	467.46
477.037	421.74
477.245	449.45
477.454	466.11
477.663	464.36
477.872	457
478.081	528.3
478.29	485.09
478.499	574.99
478.708	504.08
478.917	564.34
479.125	474.05
479.334	498.66
479.543	500.4
479.752	525.39
479.961	510.48
480.169	543.22
480.378	524.62
480.587	605.02
480.796	574.61
481.004	544.38
481.213	542.64
481.422	557.56
481.63	540.7
481.839	581
482.048	605.99
482.256	572.09
482.465	575.38
482.674	611.81
482.882	589.72
483.091	658.3
483.299	570.34
483.508	605.22
483.716	570.34
483.925	627.89
484.134	548.45
484.342	562.21
484.551	611.81
484.759	604.83
484.967	621.69
485.176	621.69
485.384	620.91
485.593	633.31
485.801	605.02
486.01	606.96
486.218	573.06
486.426	541.48
486.635	544.58
486.843	518.23
487.051	585.07
487.26	557.75
487.468	571.51
487.676	633.31
487.885	572.47
488.093	616.26
488.301	660.82
488.509	652.1
488.717	626.53
488.926	653.07
489.134	609.48
489.342	659.47
489.55	627.31
489.758	659.47
489.967	625.37
490.175	757.31
490.383	637.57
490.591	722.05
490.799	652.49
491.007	710.42
491.215	714.3
491.423	681.55
491.631	701.32
491.839	696.86
492.047	713.33
492.255	645.13
492.463	667.41
492.671	669.93
492.879	732.9
493.087	703.25
493.295	724.57
493.503	734.45
493.711	777.07
493.919	772.42
494.127	767.97
494.334	797.22
494.542	719.34
494.75	750.14
494.958	745.88
495.166	800.13
495.374	776.88
495.581	766.61
495.789	789.47
495.997	851.86
496.205	754.79
496.412	750.72
496.62	787.53
496.828	804.2
497.035	785.21
497.243	837.13
497.451	804.39
497.658	827.64
497.866	830.16
498.074	831.32
498.281	792.38
498.489	871.81
498.696	798.97
498.904	792.18
499.112	802.26
499.319	869.68
499.527	827.25
499.734	874.53
499.942	820.08
500.149	821.44
500.357	826.48
500.564	811.75
500.771	831.9
500.979	808.07
501.186	805.36
501.394	834.23
501.601	832.1
501.808	858.83
502.016	869.49
502.223	820.28
502.43	823.18
502.638	849.73
502.845	808.07
503.052	928.39
503.26	851.66
503.467	933.04
503.674	873.36
503.881	896.61
504.089	972.18
504.296	960.94
504.503	869.3
504.71	906.49
504.917	884.41
505.125	899.33
505.332	933.62
505.539	941.95
505.746	998.52
505.953	961.91
506.16	969.66
506.367	1018.48
506.574	1027.01
506.781	1036.89
506.988	972.37
507.195	1006.47
507.402	1007.44
507.609	1034.56
507.816	977.02
508.023	996.2
508.23	1017.32
508.437	990.97
508.644	1053.36
508.851	1088.23
509.058	1092.69
509.265	1061.3
509.472	1088.81
509.679	1189.17
509.885	1098.69
510.092	1112.84
510.299	1112.64
510.506	1101.02
510.713	1134.54
510.92	1115.16
511.126	1195.18
511.333	1178.32
511.54	1172.32
511.746	1223.08
511.953	1212.23
512.16	1231.02
512.367	1202.54
512.573	1191.3
512.78	1177.16
512.987	1182.78
513.193	1232.96
513.4	1140.93
513.606	1216.3
513.813	1247.3
514.02	1203.51
514.226	1289.34
514.433	1299.61
514.639	1239.35
514.846	1233.73
515.052	1216.88
515.259	1269.96
515.465	1251.56
515.672	1287.79
515.878	1350.56
516.085	1303.48
516.291	1381.56
516.497	1315.5
516.704	1301.93
516.91	1248.26
517.117	1238.58
517.323	1198.67
517.529	1228.89
517.736	1209.32
517.942	1248.85
518.148	1276.75
518.354	1309.1
518.561	1312.78
518.767	1325.96
518.973	1359.86
519.179	1391.83
519.386	1364.71
519.592	1379.43
519.798	1376.53
520.004	1507.5
520.21	1446.27
520.417	1505.56
520.623	1534.62
520.829	1519.9
521.035	1529
521.241	1545.86
521.447	1574.54
521.653	1653
521.859	1569.69
522.065	1609.02
522.271	1711.13
522.477	1665.4
522.683	1685.16
522.889	1623.94
523.095	1631.88
523.301	1663.66
523.507	1659.78
523.713	1698.15
523.919	1657.46
524.125	1763.05
524.331	1700.66
524.537	1820.4
524.742	1807.61
524.948	1839.19
525.154	1854.31
525.36	1920.18
525.566	1842.88
525.772	1903.52
525.977	1805.48
526.183	1872.52
526.389	1891.31
526.595	1834.93
526.8	1809.36
527.006	1766.73
527.212	1680.52
527.417	1679.16
527.623	1693.3
527.829	1805.29
528.034	1828.54
528.24	1832.22
528.446	1862.83
528.651	1933.55
528.857	1964.94
529.062	2025.77
529.268	1990.7
529.473	1986.64
529.679	2005.24
529.884	2079.63
530.09	2052.9
530.295	2046.5
530.501	2035.27
530.706	2092.42
530.912	2028.87
531.117	2059.68
531.323	2095.33
531.528	2129.62
531.733	2136.21
531.939	2067.82
532.144	2139.7
532.35	2131.36
532.555	2149
532.76	2119.55
532.966	2090.1
533.171	2080.22
533.376	2039.72
533.581	1987.8
533.787	2058.71
533.992	2088.74
534.197	2156.94
534.402	2144.35
534.607	2159.65
534.813	2219.52
535.018	2154.42
535.223	2177.09
535.428	2202.47
535.633	2280.94
535.838	2250.52
536.043	2258.85
536.249	2312.91
536.454	2277.06
536.659	2324.34
536.864	2253.23
537.069	2252.84
537.274	2256.53
537.479	2231.92
537.684	2247.03
537.889	2247.61
538.094	2323.95
538.299	2263.69
538.504	2304.77
538.708	2310.58
538.913	2323.17
539.118	2266.99
539.323	2359.79
539.528	2294.11
539.733	2296.05
539.938	2300.31
540.142	2280.36
540.347	2252.84
540.552	2266.41
540.757	2252.07
540.962	2287.33
541.166	2178.64
541.371	2163.14
541.576	2230.76
541.781	2172.44
541.985	2340.22
542.19	2327.05
542.395	2362.7
542.599	2382.65
542.804	2353.01
543.008	2392.34
543.213	2329.57
543.418	2278.81
543.622	2344.68
543.827	2313.1
544.031	2353.79
544.236	2380.91
544.44	2419.85
544.645	2461.7
544.849	2367.16
545.054	2434.97
545.258	2486.7
545.463	2445.24
545.667	2388.08
545.872	2446.98
546.076	2394.86
546.281	2420.05
546.485	2429.35
546.689	2464.03
546.894	2470.42
547.098	2458.6
547.302	2396.02
547.507	2429.15
547.711	2456.09
547.915	2476.43
548.119	2380.52
548.324	2417.92
548.528	2437.68
548.732	2404.35
548.936	2508.59
549.141	2474.1
549.345	2426.83
549.549	2458.41
549.753	2492.7
549.957	2541.14
550.161	2529.71
550.366	2495.42
550.57	2445.62
550.774	2464.03
550.978	2464.42
551.182	2481.47
551.386	2431.29
551.59	2448.53
551.794	2439.62
551.998	2510.53
552.202	2486.12
552.406	2474.88
552.61	2499.68
552.814	2525.25
553.018	2558.77
553.222	2465.97
553.426	2482.43
553.63	2544.05
553.833	2527.38
554.037	2443.1
554.241	2528.16
554.445	2496.38
554.649	2505.3
554.853	2459.57
555.056	2515.18
555.26	2537.27
555.464	2516.53
555.668	2494.64
555.871	2495.03
556.075	2520.8
556.279	2456.47
556.483	2434.97
556.686	2496.77
556.89	2420.05
557.094	2488.25
557.297	2397.96
557.501	2458.99
557.704	2382.85
557.908	2435.74
558.112	2426.64
558.315	2498.13
558.519	2411.33
558.722	2409.97
558.926	2388.27
559.129	2285.39
559.333	2318.14
559.536	2303.22
559.74	2263.69
559.943	2297.21
560.147	2303.41
560.35	2308.06
560.553	2316.97
560.757	2307.48
560.96	2382.07
561.164	2367.35
561.367	2370.84
561.57	2354.76
561.774	2320.46
561.977	2303.99
562.18	2337.12
562.384	2417.53
562.587	2286.56
562.79	2334.99
562.993	2294.11
563.197	2323.95
563.4	2327.24
563.603	2337.9
563.806	2357.27
564.009	2272.22
564.212	2334.02
564.416	2245.29
564.619	2268.34
564.822	2218.36
565.025	2300.31
565.228	2243.16
565.431	2236.76
565.634	2184.45
565.837	2198.6
566.04	2152.87
566.243	2134.46
566.446	2120.32
566.649	2209.83
566.852	2165.27
567.055	2132.53
567.258	2186.97
567.461	2231.14
567.664	2186.97
567.867	2136.4
568.07	2130.59
568.273	2148.03
568.475	2167.4
568.678	2072.85
568.881	2099.98
569.084	2066.27
569.287	1991.67
569.489	2030.23
569.692	2051.54
569.895	2074.6
570.098	1986.83
570.3	1974.43
570.503	1928.12
570.706	1931.81
570.909	1922.51
571.111	1905.07
571.314	1875.81
571.516	1925.8
571.719	1942.66
571.922	1871.36
572.124	1928.51
572.327	1921.92
572.529	1866.51
572.732	1885.11
572.935	1912.43
573.137	1966.68
573.34	1870.58
573.542	1922.12
573.745	1915.34
573.947	1922.51
574.15	1880.27
574.352	1866.71
574.554	1926.38
574.757	1836.87
574.959	1812.46
575.162	1857.41
575.364	1813.23
575.566	1920.37
575.769	1766.54
575.971	1809.94
576.173	1686.13
576.376	1767.7
576.578	1832.22
576.78	1832.41
576.982	1741.74
577.185	1777.58
577.387	1734.76
577.589	1756.08
577.791	1739.8
577.993	1783.01
578.196	1719.26
578.398	1735.35
578.6	1770.61
578.802	1695.24
579.004	1669.47
579.206	1694.66
579.408	1722.95
579.61	1703.96
579.812	1774.87
580.014	1702.6
580.216	1684.39
580.418	1716.94
580.62	1683.23
580.822	1689.23
581.024	1720.04
581.226	1744.06
581.428	1711.32
581.63	1796.18
581.832	1688.46
582.034	1777.97
582.236	1722.75
582.438	1758.4
582.64	1777.58
582.841	1795.99
583.043	1822.14
583.245	1779.52
583.447	1758.6
583.649	1742.32
583.85	1752.2
584.052	1756.27
584.254	1716.36
584.456	1768.86
584.657	1690.2
584.859	1757.63
585.061	1730.7
585.262	1706.48
585.464	1613.67
585.666	1693.5
585.867	1672.96
586.069	1711.9
586.27	1670.44
586.472	1664.43
586.674	1665.4
586.875	1652.23
587.077	1656.3
587.278	1673.35
587.48	1657.27
587.681	1737.28
587.883	1658.43
588.084	1613.28
588.285	1634.79
588.487	1626.85
588.688	1605.15
588.89	1523
589.091	1499.17
589.292	1480.96
589.494	1445.69
589.695	1405.98
589.896	1358.51
590.098	1381.56
590.299	1407.72
590.5	1386.41
590.702	1412.37
590.903	1446.66
591.104	1504.4
591.305	1510.21
591.507	1551.29
591.708	1502.66
591.909	1500.91
592.11	1570.66
592.311	1495.29
592.512	1475.53
592.714	1453.83
592.915	1492.97
593.116	1481.92
593.317	1504.98
593.518	1489.87
593.719	1484.44
593.92	1544.12
594.121	1516.99
594.322	1497.81
594.523	1474.37
594.724	1426.71
594.925	1452.86
595.126	1483.67
595.327	1461.97
595.528	1455.38
595.729	1494.13
595.929	1442.01
596.13	1485.22
596.331	1499.75
596.532	1483.86
596.733	1549.35
596.934	1535.98
597.135	1514.67
597.335	1517.96
597.536	1446.08
597.737	1492
597.938	1465.26
598.138	1510.02
598.339	1489.67
598.54	1474.95
598.74	1482.51
598.941	1453.64
599.142	1509.82
599.342	1505.56
599.543	1468.75
599.744	1464.87
599.944	1461.19
600.145	1463.32
600.345	1494.91
600.546	1547.41
600.746	1463.91
600.947	1564.07
601.147	1475.53
601.348	1508.47
601.548	1448.02
601.749	1481.92
601.949	1435.81
602.15	1443.76
602.35	1447.05
602.551	1514.09
602.751	1436.59
602.951	1442.4
603.152	1392.03
603.352	1456.35
603.552	1447.44
603.753	1461.97
603.953	1476.5
604.153	1486.57
604.354	1474.37
604.554	1465.26
604.754	1463.13
604.954	1461.19
605.155	1468.17
605.355	1458.09
605.555	1489.48
605.755	1516.41
605.955	1475.53
606.155	1514.28
606.356	1425.93
606.556	1461
606.756	1470.69
606.956	1398.61
607.156	1491.81
607.356	1408.69
607.556	1420.7
607.756	1423.41
607.956	1475.72
608.156	1441.04
608.356	1419.92
608.556	1450.15
608.756	1441.24
608.956	1399.39
609.156	1420.89
609.356	1350.18
609.556	1374.01
609.755	1402.88
609.955	1338.55
610.155	1348.04
610.355	1390.09
610.555	1365.68
610.755	1345.72
610.954	1307.75
611.154	1387.57
611.354	1384.86
611.554	1319.76
611.753	1357.54
611.953	1333.51
612.153	1355.02
612.352	1381.95
612.552	1314.33
612.752	1265.7
612.951	1324.21
613.151	1323.63
613.351	1308.71
613.55	1328.67
613.75	1318.4
613.949	1308.91
614.149	1319.37
614.348	1281.59
614.548	1292.05
614.747	1237.42
614.947	1299.41
615.146	1215.72
615.346	1317.82
615.545	1305.42
615.745	1295.93
615.944	1276.94
616.144	1266.28
616.343	1284.88
616.542	1241.29
616.742	1242.84
616.941	1236.06
617.14	1204.67
617.34	1226.57
617.539	1230.83
617.738	1219.98
617.938	1275.97
618.137	1238
618.336	1188.01
618.535	1254.46
618.734	1245.16
618.934	1259.31
619.133	1242.65
619.332	1237.42
619.531	1211.07
619.73	1213.97
619.929	1288.37
620.128	1250.59
620.328	1285.27
620.527	1225.4
620.726	1215.13
620.925	1274.61
621.124	1202.35
621.323	1214.55
621.522	1184.52
621.721	1203.32
621.92	1188.4
622.119	1207
622.318	1186.07
622.517	1174.06
622.715	1210.1
622.914	1119.42
623.113	1153.52
623.312	1108.77
623.511	1180.26
623.71	1132.4
623.909	1151.2
624.107	1214.94
624.306	1092.69
624.505	1090.17
624.704	1127.37
624.902	1123.69
625.101	1173.28
625.3	1118.65
625.499	1076.02
625.697	1141.9
625.896	1091.91
626.095	1127.56
626.293	1050.84
626.492	1092.88
626.69	1143.06
626.889	1102.95
627.088	1130.47
627.286	1094.04
627.485	1063.82
627.683	1067.11
627.882	1092.49
628.08	1011.31
628.279	1026.81
628.477	1093.85
628.676	1016.74
628.874	1069.05
629.073	1044.06
629.271	1031.66
629.469	1081.84
629.668	1048.51
629.866	1049.48
630.065	1047.93
630.263	1076.6
630.461	1023.52
630.66	1081.25
630.858	1067.11
631.056	1089.39
631.254	1133.76
631.453	1036.31
631.651	1081.06
631.849	1067.31
632.047	1051.22
632.245	1062.27
632.444	1057.42
632.642	1073.12
632.84	1102.37
633.038	1051.81
633.236	1020.81
633.434	1053.55
633.632	1035.34
633.83	1064.98
634.028	1064.01
634.227	1082.42
634.425	1115.16
634.623	1055.49
634.821	1110.32
635.019	1058.39
635.216	1020.22
635.414	1084.74
635.612	1084.94
635.81	1056.65
636.008	1104.7
636.206	1032.24
636.404	1066.34
636.602	1033.01
636.8	1055.1
636.997	1060.52
637.195	1098.11
637.393	1059.36
637.591	1108.77
637.789	1072.34
637.986	1046.96
638.184	1051.81
638.382	1114.58
638.58	1079.12
638.777	1119.81
638.975	1084.35
639.173	1054.91
639.37	1065.56
639.568	1064.98
639.765	1057.23
639.963	1008.6
640.161	1067.69
640.358	1049.67
640.556	1006.08
640.753	984.38
640.951	993.29
641.148	1041.73
641.346	1013.83
641.543	1008.41
641.741	1034.37
641.938	980.31
642.136	1014.02
642.333	938.66
642.531	1033.98
642.728	1028.56
642.925	968.49
643.123	969.08
643.32	1004.92
643.517	985.35
643.715	982.83
643.912	946.02
644.109	956.09
644.306	965.01
644.504	922.38
644.701	972.56
644.898	996.97
645.095	897.97
645.293	928
645.49	965.01
645.687	923.54
645.884	975.47
646.081	866.58
646.278	903.59
646.475	867.94
646.672	901.07
646.87	889.25
647.067	904.75
647.264	879.37
647.461	843.14
647.658	823.18
647.855	871.81
648.052	813.69
648.249	779.01
648.446	818.34
648.642	804.58
648.839	796.83
649.036	824.93
649.233	796.64
649.43	767.77
649.627	769.71
649.824	807.1
650.021	782.88
650.217	749.37
650.414	820.86
650.611	804.78
650.808	832.29
651.004	796.06
651.201	826.67
651.398	850.7
651.595	828.61
651.791	796.45
651.988	821.05
652.185	767.97
652.381	821.25
652.578	782.5
652.775	765.83
652.971	777.65
653.168	771.26
653.364	808.85
653.561	750.14
653.757	780.95
653.954	802.45
654.15	780.56
654.347	843.33
654.543	792.77
654.74	712.55
654.936	763.7
655.133	773.2
655.329	747.23
655.525	762.54
655.722	780.75
655.918	712.75
656.115	773.58
656.311	695.5
656.507	675.74
656.704	632.54
656.9	683.1
657.096	681.55
657.292	672.25
657.489	700.74
657.685	730.18
657.881	688.72
658.077	668.57
658.273	698.6
658.47	751.69
658.666	723.6
658.862	740.26
659.058	722.63
659.254	766.42
659.45	712.94
659.646	739.29
659.842	714.69
660.038	762.93
660.234	687.17
660.43	760.22
660.626	801.48
660.822	754.02
661.018	775.13
661.214	723.21
661.41	693.76
661.606	763.7
661.802	745.88
661.998	709.07
662.194	677.68
662.39	726.7
662.586	730.38
662.781	731.15
662.977	691.44
663.173	737.74
663.369	674.77
663.564	720.3
663.76	723.4
663.956	703.84
664.152	728.83
664.347	642.61
664.543	682.33
664.739	690.47
664.934	656.75
665.13	661.02
665.326	710.62
665.521	702.29
665.717	641.25
665.912	663.34
666.108	597.47
666.304	654.04
666.499	646.87
666.695	591.27
666.89	643.77
667.086	664.7
667.281	637.19
667.477	688.34
667.672	653.65
667.867	648.62
668.063	693.37
668.258	648.81
668.454	631.37
668.649	693.18
668.844	645.13
669.04	677.49
669.235	620.72
669.43	631.37
669.626	601.54
669.821	610.64
670.016	602.7
670.211	645.71
670.407	574.99
670.602	608.51
670.797	637.38
670.992	667.02
671.187	616.46
671.382	661.21
671.578	611.03
671.773	627.11
671.968	559.88
672.163	630.41
672.358	641.06
672.553	612.97
672.748	593.21
672.943	686.2
673.138	636.22
673.333	651.91
673.528	578.29
673.723	612.19
673.918	614.32
674.113	570.15
674.308	665.86
674.503	622.46
674.698	649.2
674.892	649.2
675.087	633.89
675.282	640.87
675.477	588.56
675.672	658.69
675.867	609.87
676.061	598.63
676.256	559.49
676.451	590.69
676.646	596.11
676.84	551.55
677.035	533.73
677.23	552.13
677.424	609.29
677.619	618.01
677.814	628.08
678.008	626.34
678.203	537.6
678.397	571.31
678.592	631.18
678.787	650.36
678.981	596.5
679.176	612.39
679.37	603.28
679.565	570.34
679.759	610.64
679.954	620.52
680.148	658.89
680.342	629.05
680.537	634.47
680.731	600.96
680.926	582.74
681.12	624.59
681.314	569.37
681.509	580.03
681.703	627.5
681.897	625.37
682.092	585.65
682.286	573.25
682.48	653.27
682.674	636.99
682.869	590.11
683.063	632.54
683.257	671.29
683.451	583.52
683.645	656.37
683.839	628.47
684.034	611.81
684.228	652.49
684.422	586.23
684.616	574.99
684.81	660.82
685.004	610.26
685.198	612.97
685.392	640.09
685.586	588.56
685.78	638.35
685.974	623.82
686.168	681.17
686.362	687.75
686.556	598.82
686.75	544.19
686.944	590.49
687.138	580.42
687.331	477.34
687.525	515.71
687.719	436.46
687.913	491.68
688.107	529.27
688.301	527.14
688.494	531.79
688.688	518.23
688.882	515.13
689.076	501.37
689.269	517.84
689.463	585.26
689.657	532.37
689.85	565.5
690.044	563.76
690.238	561.24
690.431	597.66
690.625	590.11
690.818	623.82
691.012	620.72
691.205	656.95
691.399	626.14
691.593	664.89
691.786	739.1
691.98	745.1
692.173	757.31
692.366	744.13
692.56	789.08
692.753	797.03
692.947	729.6
693.14	835.58
693.333	816.01
693.527	775.91
693.72	804.2
693.914	834.42
694.107	799.55
694.3	838.49
694.493	825.7
694.687	932.07
694.88	834.42
695.073	900.49
695.266	929.55
695.46	883.05
695.653	978.96
695.846	998.72
696.039	920.83
696.232	939.43
696.425	1036.5
696.618	1032.04
696.812	1087.65
697.005	1124.85
697.198	1194.98
697.391	1128.53
697.584	1147.13
697.777	1216.68
697.97	1213.39
698.163	1225.6
698.356	1234.7
698.549	1290.7
698.742	1288.37
698.935	1221.14
699.127	1282.17
699.32	1262.99
699.513	1255.05
699.706	1312.4
699.899	1327.12
700.092	1308.91
700.285	1360.06
700.477	1295.93
700.67	1353.47
700.863	1410.63
701.056	1448.02
701.248	1431.55
701.441	1461.97
701.634	1401.52
701.826	1515.05
702.019	1444.34
702.212	1487.74
702.404	1475.92
702.597	1440.27
702.79	1517.77
702.982	1550.12
703.175	1583.06
703.367	1626.85
703.56	1613.87
703.752	1718.1
703.945	1681.1
704.137	1685.55
704.33	1744.65
704.522	1752.4
704.715	1803.35
704.907	1796.18
705.1	1837.84
705.292	1837.45
705.484	1806.06
705.677	1812.65
705.869	1865.54
706.061	1926.96
706.254	1918.05
706.446	1896.74
706.638	1908.17
706.831	1985.09
707.023	1950.21
707.215	2049.02
707.407	2052.51
707.599	2004.07
707.792	2069.17
707.984	2065.68
708.176	2148.03
708.368	2082.54
708.56	2121.87
708.752	2160.43
708.944	2103.47
709.136	2171.66
709.329	2173.41
709.521	2259.24
709.713	2252.84
709.905	2226.3
710.097	2299.34
710.289	2220.49
710.481	2255.75
710.672	2343.91
710.864	2284.62
711.056	2375.87
711.248	2366.19
711.44	2378.78
711.632	2380.91
711.824	2427.41
712.016	2457.25
712.207	2461.9
712.399	2459.77
712.591	2539.98
712.783	2540.95
712.975	2519.63
713.166	2478.17
713.358	2496.58
713.55	2555.09
713.741	2612.63
713.933	2543.47
714.125	2508.2
714.316	2538.82
714.508	2631.81
714.7	2622.32
714.891	2612.63
715.083	2672.11
715.274	2630.07
715.466	2651.58
715.657	2678.12
715.849	2583.18
716.04	2619.61
716.232	2544.24
716.423	2568.46
716.615	2475.65
716.806	2430.7
716.998	2368.12
717.189	2272.22
717.381	2231.14
717.572	2152.1
717.763	2192.4
717.955	2178.64
718.146	2120.51
718.337	2042.24
718.528	2048.63
718.72	1929.87
718.911	1990.51
719.102	1982.76
719.293	1969.78
719.485	1954.28
719.676	1941.69
719.867	1904.49
720.058	1927.54
720.249	1949.05
720.44	1969.59
720.632	2019.38
720.823	2064.91
721.014	2190.65
721.205	2244.9
721.396	2318.52
721.587	2425.47
721.778	2453.18
721.969	2551.8
722.16	2589.58
722.351	2635.69
722.542	2684.51
722.733	2713.19
722.924	2662.62
723.115	2657.39
723.305	2679.28
723.496	2635.88
723.687	2519.44
723.878	2559.93
724.069	2527.19
724.26	2512.27
724.45	2489.8
724.641	2465.39
724.832	2459.96
725.023	2498.71
725.213	2409
725.404	2421.21
725.595	2459.38
725.785	2451.82
725.976	2484.95
726.167	2528.55
726.357	2538.82
726.548	2607.98
726.739	2533.39
726.929	2581.63
727.12	2651.19
727.31	2616.51
727.501	2537.65
727.691	2590.93
727.882	2592.1
728.072	2632.78
728.263	2675.6
728.453	2734.11
728.644	2719.58
728.834	2715.9
729.024	2637.43
729.215	2656.81
729.405	2729.08
729.596	2765.69
729.786	2739.54
729.976	2775.19
730.167	2790.3
730.357	2746.12
730.547	2775.57
730.737	2841.06
730.928	2795.34
731.118	2862.37
731.308	2820.91
731.498	2870.9
731.688	2954.6
731.879	2963.9
732.069	2976.49
732.259	3066.2
732.449	3046.43
732.639	3180.89
732.829	3153.96
733.019	3216.35
733.209	3258.39
733.399	3273.31
733.589	3405.83
733.779	3415.13
733.969	3459.5
734.159	3535.26
734.349	3563.35
734.539	3550.76
734.729	3565.48
734.919	3615.86
735.109	3674.37
735.299	3559.67
735.488	3631.74
735.678	3620.89
735.868	3636.01
736.058	3558.12
736.248	3581.18
736.437	3584.47
736.627	3553.08
736.817	3705.17
737.007	3629.61
737.196	3719.12
737.386	3679.41
737.576	3627.87
737.765	3765.43
737.955	3710.21
738.144	3805.92
738.334	3809.22
738.524	3772.21
738.713	3763.3
738.903	3740.24
739.092	3798.17
739.282	3772.79
739.471	3811.93
739.661	3804.95
739.85	3842.15
740.04	3827.43
740.229	3868.11
740.419	3924.5
740.608	3907.25
740.797	3902.99
740.987	3992.89
741.176	3916.75
741.365	3938.06
741.555	3864.05
741.744	3999.67
741.933	3951.23
742.123	3955.11
742.312	3962.08
742.501	4038.23
742.69	4039
742.88	3986.69
743.069	4090.15
743.258	4007.61
743.447	4077.56
743.636	4042.1
743.825	3991.14
744.014	4071.55
744.204	4101.77
744.393	3990.56
744.582	4099.64
744.771	4160.29
744.96	4123.09
745.149	4091.89
745.338	4048.11
745.527	4129.09
745.716	4113.59
745.905	4087.05
746.094	4165.32
746.283	4178.11
746.471	4176.17
746.66	4175.2
746.849	4185.28
747.038	4179.85
747.227	4137.81
747.416	4209.5
747.604	4086.08
747.793	4161.45
747.982	4158.54
748.171	4162.8
748.359	4123.86
748.548	4170.55
748.737	4149.24
748.926	4155.64
749.114	4003.74
749.303	4107.59
749.491	4088.02
749.68	4037.26
749.869	4114.56
750.057	4071.36
750.246	4042.29
750.434	4087.24
750.623	4065.35
750.811	4029.12
751	4122.51
751.188	4079.88
751.377	4084.92
751.565	4005.48
751.754	4049.07
751.942	4001.41
752.131	4091.89
752.319	4020.4
752.507	3987.08
752.696	4107.59
752.884	4063.8
753.072	4028.54
753.261	4060.51
753.449	4041.13
753.637	3964.79
753.825	4121.73
754.014	4011.1
754.202	3998.31
754.39	4051.01
754.578	4053.53
754.766	3986.49
754.955	3939.41
755.143	4082.79
755.331	3976.03
755.519	3992.11
755.707	3974.29
755.895	3979.52
756.083	4014.01
756.271	3928.56
756.459	3922.75
756.647	3992.11
756.835	3926.82
757.023	3997.93
757.211	3927.79
757.399	3921.78
757.587	3902.02
757.775	3874.12
757.963	3840.99
758.151	3868.31
758.339	3817.16
758.526	3786.93
758.714	3856.3
758.902	3677.27
759.09	3629.42
759.278	3383.17
759.465	3105.53
759.653	2675.02
759.841	2406.87
760.028	2056.58
760.216	1804.13
760.404	1676.06
760.591	1383.31
760.779	1158.56
760.967	1023.71
761.154	812.33
761.342	856.12
761.529	849.15
761.717	885.76
761.905	893.51
762.092	943.89
762.28	885.57
762.467	889.83
762.655	812.91
762.842	796.45
763.029	843.72
763.217	828.41
763.404	826.28
763.592	857.86
763.779	823.96
763.966	848.95
764.154	937.11
764.341	954.74
764.528	1002.98
764.716	1099.66
764.903	1116.9
765.09	1198.08
765.277	1241.48
765.465	1432.91
765.652	1489.09
765.839	1586.74
766.026	1728.95
766.213	1781.65
766.4	1923.47
766.588	2088.16
766.775	2163.91
766.962	2299.54
767.149	2373.94
767.336	2514.98
767.523	2531.26
767.71	2661.65
767.897	2796.11
768.084	2870.12
768.271	2931.73
768.458	2996.06
768.645	3100.29
768.832	3087.89
769.019	3116.96
769.206	3161.91
769.392	3252
769.579	3283.97
769.766	3303.54
769.953	3273.7
770.14	3341.51
770.327	3335.31
770.513	3407.38
770.7	3465.12
770.887	3395.95
771.073	3437.8
771.26	3419.59
771.447	3362.05
771.634	3425.21
771.82	3488.56
772.007	3382
772.193	3413.78
772.38	3503.48
772.567	3454.27
772.753	3448.85
772.94	3486.05
773.126	3489.15
773.313	3484.11
773.499	3473.84
773.686	3503.87
773.872	3447.49
774.059	3486.82
774.245	3441.29
774.432	3377.16
774.618	3328.34
774.804	3414.36
774.991	3366.89
775.177	3440.51
775.363	3406.03
775.55	3440.9
775.736	3360.69
775.922	3429.47
776.109	3367.67
776.295	3374.25
776.481	3416.49
776.667	3381.62
776.853	3327.37
777.04	3316.32
777.226	3315.16
777.412	3412.03
777.598	3313.8
777.784	3303.15
777.97	3275.05
778.156	3339.38
778.342	3341.7
778.528	3306.83
778.715	3259.36
778.901	3280.87
779.087	3266.14
779.272	3254.9
779.458	3269.63
779.644	3268.27
779.83	3289.2
780.016	3335.89
780.202	3279.12
780.388	3276.02
780.574	3212.67
780.76	3185.74
780.946	3258.2
781.131	3217.32
781.317	3217.71
781.503	3145.24
781.689	3173.14
781.874	3320.2
782.06	3154.54
782.246	3218.67
782.432	3187.48
782.617	3190.77
782.803	3225.07
782.989	3122.58
783.174	3156.68
783.36	3118.51
783.545	3107.46
783.731	3103.78
783.916	3080.92
784.102	3095.45
784.288	3064.06
784.473	3107.08
784.659	3011.36
784.844	3111.73
785.029	3047.79
785.215	3050.89
785.4	2973.2
785.586	3097.19
785.771	2976.49
785.956	3049.53
786.142	2983.85
786.327	3011.95
786.512	2999.16
786.698	3015.43
786.883	2919.72
787.068	2948.4
787.254	2957.5
787.439	2925.34
787.624	2910.23
787.809	2909.26
787.994	2866.44
788.18	2954.79
788.365	2869.74
788.55	2849.59
788.735	2874.19
788.92	2829.24
789.105	2844.74
789.29	2835.05
789.475	2809.29
789.66	2822.07
789.845	2722.29
790.03	2769.57
790.215	2770.92
790.4	2827.89
790.585	2811.03
790.77	2734.11
790.955	2720.74
791.14	2710.67
791.325	2850.36
791.51	2688
791.695	2775.57
791.879	2748.84
792.064	2660.29
792.249	2763.37
792.434	2706.79
792.618	2718.23
792.803	2769.18
792.988	2717.06
793.173	2724.43
793.357	2796.31
793.542	2736.82
793.727	2742.64
793.911	2779.64
794.096	2779.06
794.281	2797.08
794.465	2848.42
794.65	2757.56
794.834	2800.96
795.019	2832.54
795.203	2861.79
795.388	2803.67
795.572	2862.76
795.757	2774.8
795.941	2834.67
796.126	2777.51
796.31	2719.39
796.494	2746.9
796.679	2712.41
796.863	2723.84
797.048	2819.75
797.232	2791.66
797.416	2814.13
797.601	2761.82
797.785	2853.65
797.969	2831.57
798.153	2764.14
798.338	2844.16
798.522	2850.36
798.706	2868.19
798.89	2865.67
799.074	2972.62
799.258	2874.97
799.443	2854.82
799.627	2836.99
799.811	2856.17
799.995	2777.32
800.179	2778.09
800.363	2799.02
800.547	2824.4
800.731	2848.23
800.915	2764.72
801.099	2803.67
801.283	2773.64
801.467	2797.86
801.651	2786.81
801.835	2850.94
802.019	2825.75
802.202	2780.03
802.386	2725.59
802.57	2735.66
802.754	2731.4
802.938	2739.92
803.121	2722.1
803.305	2829.44
803.489	2776.16
803.673	2809.09
803.856	2770.92
804.04	2778.48
804.224	2796.69
804.407	2771.7
804.591	2768.21
804.775	2776.93
804.958	2801.15
805.142	2898.41
805.326	2830.21
805.509	2797.27
805.693	2836.02
805.876	2823.24
806.06	2826.14
806.243	2816.26
806.427	2838.74
806.61	2900.35
806.794	2829.05
806.977	2831.57
807.16	2825.37
807.344	2794.37
807.527	2842.61
807.71	2813.55
807.894	2833.89
808.077	2840.48
808.26	2819.17
808.444	2765.31
808.627	2815.49
808.81	2766.47
808.993	2708.34
809.177	2706.02
809.36	2724.43
809.543	2692.84
809.726	2628.13
809.909	2621.16
810.092	2645.76
810.276	2637.05
810.459	2619.22
810.642	2636.85
810.825	2563.03
811.008	2587.64
811.191	2513.63
811.374	2500.45
811.557	2529.13
811.74	2574.46
811.923	2459.57
812.106	2436.9
812.289	2421.79
812.472	2387.11
812.654	2398.54
812.837	2363.09
813.02	2304.19
813.203	2302.06
813.386	2193.17
813.569	2161.2
813.751	2099.59
813.934	2149
814.117	2092.42
814.3	2031.78
814.482	1975.59
814.665	1943.82
814.848	1886.47
815.03	1886.27
815.213	1880.66
815.396	1825.05
815.578	1832.61
815.761	1815.17
815.943	1829.7
816.126	1738.83
816.309	1736.12
816.491	1652.42
816.674	1573.37
816.856	1672.38
817.039	1683.81
817.221	1750.85
817.403	1686.33
817.586	1673.35
817.768	1698.34
817.951	1655.91
818.133	1634.4
818.315	1622.2
818.498	1691.75
818.68	1750.65
818.862	1751.23
819.045	1777.78
819.227	1715.97
819.409	1708.03
819.591	1742.13
819.774	1713.65
819.956	1643.12
820.138	1774.87
820.32	1787.27
820.502	1812.26
820.684	1872.52
820.866	1920.76
821.048	1970.17
821.231	1994.19
821.413	1988.38
821.595	1946.53
821.777	1936.65
821.959	1951.76
822.141	2004.07
822.323	1858.76
822.505	1803.35
822.686	1738.45
822.868	1676.83
823.05	1530.75
823.232	1493.36
823.414	1422.06
823.596	1514.47
823.778	1494.71
823.96	1545.28
824.141	1564.27
824.323	1593.14
824.505	1668.5
824.687	1733.8
824.868	1816.14
825.05	1882.01
825.232	1907.39
825.413	1946.34
825.595	1904.68
825.777	1863.8
825.958	1942.07
826.14	1886.66
826.321	1950.02
826.503	1903.13
826.685	1923.09
826.866	1915.34
827.048	1935.1
827.229	1897.12
827.411	1835.13
827.592	1798.89
827.773	1792.5
827.955	1724.5
828.136	1732.44
828.318	1674.9
828.499	1737.28
828.68	1660.75
828.862	1698.73
829.043	1718.3
829.224	1698.53
829.406	1665.21
829.587	1685.16
829.768	1720.43
829.949	1718.3
830.131	1707.25
830.312	1764.21
830.493	1704.15
830.674	1719.07
830.855	1710.74
831.036	1721.59
831.218	1795.02
831.399	1772.54
831.58	1735.54
831.761	1753.17
831.942	1709.19
832.123	1735.15
832.304	1678.97
832.485	1719.85
832.666	1733.02
832.847	1753.36
833.028	1723.33
833.209	1697.95
833.389	1710.35
833.57	1646.8
833.751	1691.75
833.932	1753.17
834.113	1725.27
834.294	1711.32
834.475	1754.14
834.655	1804.9
834.836	1760.53
835.017	1770.22
835.198	1717.91
835.378	1764.99
835.559	1777.19
835.74	1770.61
835.92	1775.84
836.101	1715.97
836.281	1814.59
836.462	1778.55
836.643	1813.04
836.823	1802.77
837.004	1816.33
837.184	1821.95
837.365	1803.93
837.545	1832.8
837.726	1780.29
837.906	1826.21
838.087	1806.84
838.267	1779.71
838.448	1771.58
838.628	1786.69
838.808	1783.39
838.989	1822.73
839.169	1765.38
839.349	1830.48
839.53	1818.66
839.71	1831.44
839.89	1833.77
840.07	1853.92
840.251	1756.85
840.431	1835.32
840.611	1822.73
840.791	1797.54
840.971	1799.86
841.151	1796.57
841.332	1781.46
841.512	1872.32
841.692	1761.5
841.872	1806.84
842.052	1817.88
842.232	1834.35
842.412	1774.09
842.592	1801.61
842.772	1796.38
842.952	1829.12
843.132	1756.27
843.312	1776.61
843.492	1763.05
843.672	1794.83
843.851	1711.9
844.031	1738.45
844.211	1748.71
844.391	1761.7
844.571	1774.29
844.751	1783.01
844.93	1768.86
845.11	1737.48
845.29	1768.09
845.47	1781.07
845.649	1737.09
845.829	1764.6
846.009	1725.85
846.188	1760.92
846.368	1749.1
846.547	1758.21
846.727	1791.14
846.907	1701.63
847.086	1746.2
847.266	1765.96
847.445	1737.09
847.625	1728.56
847.804	1688.07
847.984	1743.29
848.163	1671.02
848.343	1690.2
848.522	1716.94
848.701	1706.86
848.881	1678.58
849.06	1720.23
849.239	1687.88
849.419	1692.14
849.598	1649.32
849.777	1623.75
849.957	1631.3
850.136	1541.02
850.315	1572.99
850.494	1582.09
850.674	1539.66
850.853	1620.45
851.032	1611.73
851.211	1605.15
851.39	1586.35
851.569	1566.59
851.748	1573.76
851.927	1603.6
852.107	1597.98
852.286	1560
852.465	1560.2
852.644	1624.33
852.823	1595.07
853.002	1608.44
853.181	1583.84
853.359	1584.22
853.538	1500.14
853.717	1591.78
853.896	1484.25
854.075	1419.73
854.254	1402.49
854.433	1330.8
854.611	1374.01
854.79	1355.79
854.969	1378.66
855.148	1414.89
855.327	1365.68
855.505	1429.03
855.684	1374.59
855.863	1422.44
856.041	1429.22
856.22	1489.09
856.399	1435.04
856.577	1546.25
856.756	1529
856.934	1615.8
857.113	1611.93
857.291	1549.35
857.47	1498.78
857.648	1553.8
857.827	1537.72
858.005	1542.57
858.184	1473.59
858.362	1571.82
858.541	1526.49
858.719	1507.3
858.898	1466.23
859.076	1505.76
859.254	1565.82
859.433	1472.62
859.611	1483.09
859.789	1442.98
859.967	1531.72
860.146	1516.22
860.324	1465.07
860.502	1467.2
860.68	1424.57
860.859	1437.17
861.037	1469.33
861.215	1456.54
861.393	1457.9
861.571	1459.84
861.749	1425.74
861.927	1451.31
862.105	1467.2
862.283	1474.56
862.461	1423.22
862.639	1378.85
862.817	1435.23
862.995	1444.92
863.173	1435.42
863.351	1413.92
863.529	1423.61
863.707	1461.77
863.885	1442.98
864.063	1384.47
864.241	1407.53
864.418	1460.81
864.596	1380.59
864.774	1357.93
864.952	1374.01
865.129	1426.71
865.307	1365.87
865.485	1318.21
865.663	1390.28
865.84	1299.41
866.018	1330.41
866.196	1206.03
866.373	1243.03
866.551	1206.8
866.728	1129.11
866.906	1206.42
867.084	1214.17
867.261	1210.68
867.439	1256.4
867.616	1292.05
867.794	1259.89
867.971	1288.56
868.149	1287.01
868.326	1328.09
868.503	1305.61
868.681	1331.19
868.858	1290.5
869.035	1252.53
869.213	1301.16
869.39	1304.45
869.567	1369.16
869.745	1277.52
869.922	1303.1
870.099	1297.67
870.276	1300.38
870.454	1324.99
870.631	1299.22
870.808	1275.2
870.985	1321.89
871.162	1358.89
871.339	1285.85
871.517	1221.53
871.694	1249.81
871.871	1261.83
872.048	1281.98
872.225	1235.48
872.402	1266.86
872.579	1251.36
872.756	1280.04
872.933	1234.32
873.11	1253.5
873.287	1267.64
873.463	1233.93
873.64	1193.63
873.817	1236.45
873.994	1226.76
874.171	1185.88
874.348	1205.45
874.524	1176.97
874.701	1200.6
874.878	1149.07
875.055	1197.5
875.231	1237.22
875.408	1213
875.585	1134.92
875.762	1189.75
875.938	1182.78
876.115	1161.47
876.291	1160.3
876.468	1163.4
876.645	1136.67
876.821	1126.98
876.998	1152.75
877.174	1193.63
877.351	1157.2
877.527	1125.24
877.704	1153.91
877.88	1137.25
878.057	1125.43
878.233	1196.73
878.409	1117.49
878.586	1170.77
878.762	1111.29
878.938	1119.23
879.115	1062.85
879.291	1123.1
879.467	1090.75
879.644	1110.9
879.82	1112.25
879.996	1096.95
880.172	1045.99
880.349	1123.1
880.525	1122.72
880.701	1054.13
880.877	1039.21
881.053	1074.28
881.229	1121.94
881.405	1145.58
881.581	1056.26
881.757	1058.97
881.933	1111.29
882.109	1141.9
882.285	1105.67
882.461	1063.04
882.637	1085.71
882.813	1063.62
882.989	1069.05
883.165	1145.77
883.341	1051.61
883.517	1117.68
883.693	1098.69
883.869	1116.9
884.044	1042.31
884.22	1100.63
884.396	1117.1
884.572	1097.53
884.747	1119.42
884.923	1092.1
885.099	1106.44
885.275	1098.5
885.45	1083.39
885.626	1055.1
885.801	1042.7
885.977	1071.95
886.153	1023.71
886.328	1068.27
886.504	1030.88
886.679	1091.52
886.855	1039.21
887.03	1066.53
887.206	1071.18
887.381	1083.77
887.557	1078.74
887.732	1088.04
887.908	1076.41
888.083	1071.57
888.258	1054.71
888.434	1063.62
888.609	1035.34
888.784	1115.16
888.96	1065.37
889.135	1053.36
889.31	1019.06
889.485	1078.74
889.661	1052.97
889.836	1089.59
890.011	1080.48
890.186	1070.02
890.361	1044.06
890.537	1082.8
890.712	1063.04
890.887	1072.73
891.062	1078.74
891.237	1129.69
891.412	1025.65
891.587	1019.84
891.762	1058.78
891.937	1095.79
892.112	1014.99
892.287	1036.31
892.462	1027.97
892.637	999.88
892.812	974.5
892.987	1001.62
893.161	958.81
893.336	976.44
893.511	939.82
893.686	994.07
893.861	952.8
894.035	965.01
894.21	948.54
894.385	913.08
894.56	962.68
894.734	878.98
894.909	889.64
895.084	872.4
895.258	866
895.433	870.46
895.608	837.52
895.782	767.38
895.957	806.72
896.131	801.1
896.306	737.16
896.48	722.43
896.655	774.17
896.829	672.06
897.004	690.66
897.178	687.17
897.353	650.94
897.527	713.52
897.701	696.47
897.876	674.39
898.05	749.37
898.224	718.37
898.399	737.93
898.573	657.14
898.747	600.18
898.921	608.9
899.096	535.08
899.27	534.69
899.444	552.32
899.618	599.41
899.792	587.39
899.967	602.7
900.141	651.14
900.315	595.53
900.489	631.57
900.663	587.97
900.837	600.76
901.011	550.58
901.185	645.52
901.359	603.47
901.533	603.09
901.707	615.68
901.881	601.34
902.055	540.89
902.229	604.64
902.403	673.22
902.576	593.79
902.75	609.29
902.924	712.75
903.098	688.72
903.272	693.37
903.446	751.11
903.619	724.76
903.793	758.47
903.967	772.23
904.14	798.38
904.314	794.32
904.488	761.96
904.661	785.4
904.835	751.5
905.009	788.89
905.182	849.53
905.356	797.8
905.529	780.17
905.703	735.8
905.876	730.77
906.05	708.29
906.223	711.39
906.397	642.8
906.57	641.84
906.744	592.24
906.917	594.95
907.09	602.31
907.264	591.46
907.437	534.89
907.61	530.63
907.784	553.68
907.957	571.7
908.13	550.58
908.304	562.59
908.477	501.76
908.65	559.11
908.823	483.16
908.996	575.77
909.17	526.56
909.343	503.31
909.516	514.16
909.689	544.19
909.862	492.84
910.035	533.34
910.208	498.85
910.381	498.27
910.554	595.92
910.727	506.02
910.9	503.89
911.073	509.31
911.246	574.8
911.419	578.67
911.592	543.99
911.765	502.34
911.938	506.41
912.11	524.81
912.283	540.12
912.456	569.37
912.629	505.05
912.802	488.78
912.974	450.8
913.147	386.48
913.32	392.68
913.493	395.58
913.665	453.51
913.838	423.48
914.01	430.65
914.183	476.76
914.356	455.26
914.528	474.63
914.701	516.87
914.873	504.86
915.046	451.77
915.218	433.36
915.391	340.56
915.563	395
915.736	438.6
915.908	466.49
916.081	451.38
916.253	431.23
916.425	438.4
916.598	457.58
916.77	445.76
916.942	449.64
917.115	370.98
917.287	461.84
917.459	396.16
917.632	376.98
917.804	313.05
917.976	438.79
918.148	434.91
918.32	433.95
918.493	463.01
918.665	485.29
918.837	453.9
919.009	531.59
919.181	501.56
919.353	487.42
919.525	467.27
919.697	481.03
919.869	475.02
920.041	541.09
920.213	604.44
920.385	501.18
920.557	487.42
920.729	536.44
920.901	523.46
921.073	509.12
921.244	460.1
921.416	521.91
921.588	482.58
921.76	449.25
921.932	557.17
922.103	502.34
922.275	477.34
922.447	502.73
922.619	434.72
922.79	483.74
922.962	430.65
923.134	512.22
923.305	408.95
923.477	368.27
923.648	400.04
923.82	468.43
923.991	373.11
924.163	393.26
924.335	394.42
924.506	424.26
924.677	447.9
924.849	386.48
925.02	427.55
925.192	425.61
925.363	426.2
925.535	421.35
925.706	401.59
925.877	450.03
926.049	397.52
926.22	418.06
926.391	431.62
926.562	447.51
926.734	407.01
926.905	434.53
927.076	384.15
927.247	399.26
927.419	343.66
927.59	344.43
927.761	345.6
927.932	310.72
928.103	326.42
928.274	286.5
928.445	278.37
928.616	278.95
928.787	304.52
928.958	298.32
929.129	277.01
929.3	271
929.471	233.42
929.642	196.02
929.813	159.6
929.984	235.55
930.155	152.24
930.326	209.39
930.496	180.52
930.667	132.09
930.838	173.55
931.009	122.21
931.18	153.01
931.35	162.31
931.521	156.11
931.692	117.94
931.863	63.5
932.033	122.4
932.204	113.49
932.374	102.25
932.545	76.29
932.716	121.62
932.886	116.01
933.057	42.58
933.227	48.78
933.398	120.66
933.568	44.9
933.739	27.85
933.909	29.59
934.08	114.65
934.25	18.36
934.421	27.27
934.591	53.04
934.761	40.64
934.932	5.57
935.102	50.13
935.272	54.98
935.443	62.34
935.613	59.04
935.783	54.39
935.953	0.34
936.123	164.83
936.294	19.52
936.464	22.23
936.634	13.51
936.804	16.81
936.974	5.18
937.144	59.04
937.314	46.64
937.484	19.52
937.655	25.72
937.825	74.54
937.995	10.03
938.165	85.01
938.334	20.68
938.504	66.99
938.674	69.51
938.844	66.6
939.014	98.57
939.184	103.41
939.354	123.76
939.524	130.54
939.694	92.37
939.863	98.57
940.033	151.27
940.203	139.45
940.373	99.54
940.542	127.24
940.712	103.99
940.882	120.46
941.051	139.26
941.221	122.59
941.391	141.97
941.56	82.68
941.73	105.74
941.899	157.08
942.069	74.93
942.238	91.21
942.408	72.99
942.577	109.61
942.747	87.53
942.916	45.29
943.086	67.38
943.255	104.19
943.425	85.59
943.594	70.28
943.763	24.75
943.933	51.1
944.102	3.05
944.271	70.28
944.441	85.2
944.61	50.13
944.779	65.24
944.948	143.52
945.117	48.39
945.287	41.22
945.456	-21.75
945.625	31.92
945.794	68.34
945.963	34.44
946.132	86.56
946.301	57.3
946.47	62.73
946.639	22.81
946.808	65.24
946.977	76.09
947.146	99.73
947.315	45.68
947.484	71.83
947.653	71.83
947.822	52.65
947.991	35.99
948.16	128.02
948.329	119.69
948.498	65.24
948.666	56.14
948.835	104.19
949.004	42.77
949.173	41.8
949.341	80.16
949.51	78.81
949.679	109.42
949.847	86.94
950.016	135.57
950.185	156.31
950.353	38.31
950.522	52.65
950.69	120.07
950.859	37.54
951.028	91.79
951.196	83.84
951.365	66.02
951.533	45.09
951.701	105.74
951.87	84.23
952.038	24.17
952.207	61.95
952.375	123.56
952.543	45.48
952.712	65.63
952.88	53.62
953.048	119.11
953.217	74.93
953.385	62.34
953.553	88.3
953.721	44.13
953.89	81.13
954.058	35.21
954.226	24.56
954.394	68.54
954.562	10.22
954.73	90.43
954.898	44.9
955.067	76.29
955.235	76.29
955.403	106.9
955.571	126.47
955.739	84.62
955.907	53.23
956.075	68.93
956.243	57.49
956.41	78.23
956.578	23.59
956.746	45.87
956.914	79.97
957.082	94.5
957.25	101.86
957.418	43.35
957.585	67.38
957.753	114.07
957.921	40.64
958.089	77.06
958.256	101.86
958.424	85.39
958.592	92.76
958.759	38.31
958.927	75.9
959.095	73.38
959.262	56.14
959.43	78.23
959.597	34.83
959.765	83.65
959.932	60.59
960.1	99.15
960.267	56.72
960.435	62.14
960.602	107.68
960.77	73.77
960.937	59.24
961.104	65.44
961.272	31.14
961.439	57.69
961.606	85.01
961.774	106.71
961.941	28.63
962.108	94.5
962.275	82.88
962.443	115.23
962.61	103.41
962.777	134.61
962.944	100.51
963.111	86.56
963.278	101.48
963.446	98.57
963.613	86.36
963.78	119.88
963.947	106.9
964.114	106.32
964.281	158.24
964.448	97.02
964.615	77.45
964.782	102.06
964.949	105.54
965.116	128.02
965.282	141
965.449	91.98
965.616	72.22
965.783	125.5
965.95	99.15
966.117	35.6
966.283	83.46
966.45	101.09
966.617	119.88
966.784	114.26
966.95	101.09
967.117	112.91
967.284	93.34
967.45	71.64
967.617	140.61
967.784	106.9
967.95	147.39
968.117	112.71
968.283	132.09
968.45	191.57
968.616	127.24
968.783	146.04
968.949	142.94
969.116	151.27
969.282	114.07
969.449	131.89
969.615	119.69
969.781	77.45
969.948	118.14
970.114	61.37
970.28	178.97
970.447	97.99
970.613	153.59
970.779	134.22
970.945	134.99
971.112	129.18
971.278	118.91
971.444	117.17
971.61	141
971.776	105.54
971.942	118.33
972.108	120.66
972.275	90.63
972.441	129.57
972.607	169.67
972.773	81.13
972.939	104.58
973.105	118.14
973.271	99.93
973.437	85.59
973.602	94.89
973.768	121.24
973.934	93.92
974.1	121.82
974.266	38.51
974.432	96.83
974.598	90.63
974.763	108.26
974.929	77.06
975.095	150.49
975.261	76.68
975.426	58.08
975.592	86.17
975.758	149.52
975.923	33.66
976.089	84.62
976.255	120.85
976.42	106.9
976.586	136.74
976.751	134.99
976.917	167.74
977.082	137.32
977.248	56.72
977.413	35.02
977.579	80.16
977.744	103.03
977.91	66.21
978.075	64.66
978.24	134.41
978.406	112.13
978.571	86.56
978.736	87.14
978.902	126.27
979.067	52.46
979.232	24.17
979.397	90.04
979.563	139.64
979.728	69.12
979.893	76.87
980.058	83.46
980.223	139.45
980.388	98.76
980.554	109.42
980.719	73.19
980.884	129.18
981.049	114.26
981.214	79.39
981.379	120.46
981.544	61.56
981.709	84.62
981.874	60.59
982.039	77.45
982.204	134.41
982.368	88.88
982.533	63.5
982.698	130.34
982.863	130.15
983.028	90.24
983.193	96.24
983.357	87.33
983.522	103.99
983.687	89.66
983.852	91.4
984.016	97.21
984.181	103.22
984.346	140.03
984.51	141
984.675	99.15
984.839	80.74
985.004	119.3
985.168	120.66
985.333	126.27
985.498	92.56
985.662	115.62
985.827	91.01
985.991	92.76
986.155	90.04
986.32	136.35
986.484	141.77
986.649	111.36
986.813	34.63
986.977	94.11
987.142	92.56
987.306	78.42
987.47	106.13
987.634	86.36
987.799	111.36
987.963	110.39
988.127	106.32
988.291	166.96
988.455	102.06
988.62	98.57
988.784	142.94
988.948	115.81
989.112	84.23
989.276	95.08
989.44	100.89
989.604	61.56
989.768	68.34
989.932	163.67
990.096	80.16
990.26	48.19
990.424	51.88
990.588	110.19
990.752	126.27
990.915	133.06
991.079	77.64
991.243	75.71
991.407	115.23
991.571	103.99
991.734	63.11
991.898	87.91
992.062	188.27
992.226	103.61
992.389	74.54
992.553	30.18
992.717	78.42
992.88	47.61
993.044	97.99
993.207	79.39
993.371	105.93
993.535	110.58
993.698	105.16
993.862	121.82
994.025	124.34
994.189	86.75
994.352	82.49
994.515	111.16
994.679	125.31
994.842	69.7
995.006	114.84
995.169	58.27
995.332	84.04
995.496	101.86
995.659	45.29
995.822	60.4
995.985	49.16
996.149	139.64
996.312	63.69
996.475	163.86
996.638	68.34
996.801	128.99
996.964	137.12
997.128	89.85
997.291	50.33
997.454	81.13
997.617	38.7
997.78	118.14
997.943	77.84
998.106	112.52
998.269	39.86
998.432	70.28
998.595	74.74
998.758	27.27
998.92	48.58
999.083	-0.44
999.246	61.95
999.409	29.98
999.572	24.17
999.735	42.19
999.897	73.96
1000.06	49.36
1000.223	48.97
1000.386	117.75
1000.548	75.32
1000.711	80.94
1000.874	78.03
1001.036	49.16
1001.199	103.99
1001.361	51.68
1001.524	60.79
1001.687	96.83
1001.849	35.02
1002.012	78.61
1002.174	53.81
1002.337	75.13
1002.499	65.63
1002.661	96.24
1002.824	25.91
1002.986	56.33
1003.149	110.77
1003.311	45.48
1003.473	110.39
1003.636	41.22
1003.798	81.33
1003.96	95.47
1004.123	60.21
1004.285	43.74
1004.447	52.65
1004.609	45.68
1004.771	94.5
1004.933	29.21
1005.096	22.23
1005.258	24.36
1005.42	47.42
1005.582	100.51
1005.744	77.26
1005.906	24.36
1006.068	54.2
1006.23	14.29
1006.392	0.15
1006.554	12.55
1006.716	89.85
1006.878	60.01
1007.04	15.45
1007.202	46.84
1007.363	73.19
1007.525	61.56
1007.687	62.53
1007.849	97.79
1008.011	-7.02
1008.172	36.76
1008.334	40.83
1008.496	63.89
1008.658	-3.15
1008.819	-1.79
1008.981	13.32
1009.143	31.53
1009.304	48
1009.466	59.63
1009.627	84.81
1009.789	121.24
1009.95	51.1
1010.112	41.8
1010.273	75.32
1010.435	43.74
1010.596	46.45
1010.758	29.98
1010.919	38.12
1011.081	14.87
1011.242	48.78
1011.403	55.75
1011.565	45.87
1011.726	73.96
1011.887	27.27
1012.049	14.48
1012.21	60.98
1012.371	88.11
1012.532	6.54
1012.693	15.06
1012.855	18.94
1013.016	33.66
1013.177	58.85
1013.338	45.87
1013.499	98.96
1013.66	58.66
1013.821	47.61
1013.982	57.49
1014.143	32.69
1014.304	10.22
1014.465	63.89
1014.626	89.46
1014.787	44.51
1014.948	110
1015.109	-39.77
1015.27	72.99
1015.431	24.75
1015.592	14.48
1015.752	79
1015.913	48.97
1016.074	73.19
1016.235	26.69
1016.395	38.31
1016.556	18.36
1016.717	47.03
1016.877	83.26
1017.038	7.31
1017.199	57.3
1017.359	44.9
1017.52	38.51
1017.681	26.11
1017.841	16.23
1018.002	46.84
1018.162	18.94
1018.323	54.98
1018.483	31.14
1018.644	23.2
1018.804	0.73
1018.964	28.43
1019.125	32.31
1019.285	40.25
1019.446	18.16
1019.606	20.49
1019.766	-28.53
1019.926	35.6
1020.087	69.7
1020.247	12.35
1020.407	45.09
1020.567	63.11
1020.728	35.6
1020.888	-10.7
1021.048	3.05
1021.208	20.88
1021.368	29.21
1021.528	46.45
1021.688	46.84
1021.848	72.61
1022.008	9.25
1022.168	16.42
1022.328	28.43
1022.488	29.59
1022.648	22.04
1022.808	19.13
1022.968	53.43
1023.128	-0.82
1023.288	6.93
1023.448	29.98
1023.608	44.71
1023.767	51.88
1023.927	11.58
1024.087	-4.12
1024.247	-10.32
1024.406	36.57
1024.566	7.51
1024.726	14.48
1024.885	33.08
1025.045	47.42
1025.205	22.62
1025.364	26.49
1025.524	47.42
1025.683	17.78
1025.843	34.63
1026.003	3.44
1026.162	66.6
1026.321	52.07
1026.481	38.31
1026.64	3.63
1026.8	39.09
1026.959	5.38
1027.119	12.35
1027.278	26.49
1027.437	7.7
1027.597	45.87
1027.756	51.88
1027.915	35.99
1028.074	37.73
1028.234	5.18
1028.393	27.66
1028.552	33.08
1028.711	-44.8
1028.87	58.66
1029.03	-19.62
1029.189	12.74
1029.348	-32.4
1029.507	10.41
1029.666	31.92
1029.825	-3.34
1029.984	11
1030.143	13.9
1030.302	6.93
1030.461	-16.13
1030.62	9.64
1030.779	72.8
1030.938	5.57
1031.097	-11.29
1031.255	34.83
1031.414	67.57
1031.573	60.98
1031.732	-50.81
1031.891	20.1
1032.049	59.82
1032.208	29.98
1032.367	-18.84
1032.525	-9.15
1032.684	13.9
1032.843	17.58
1033.001	-36.86
1033.16	151.46
1033.319	45.87
1033.477	56.14
1033.636	9.25
1033.794	-39.19
1033.953	43.54
1034.111	40.06
1034.27	4.41
1034.428	40.44
1034.587	5.18
1034.745	53.23
1034.903	10.22
1035.062	47.23
1035.22	-23.49
1035.378	56.14
1035.537	-13.03
1035.695	58.46
1035.853	34.44
1036.011	44.32
1036.17	30.18
1036.328	-29.69
1036.486	32.89
1036.644	21.07
1036.802	-45.97
1036.96	4.8
1037.119	18.75
1037.277	7.31
1037.435	8.86
1037.593	-0.44
1037.751	-7.02
1037.909	46.26
1038.067	46.26
