Data from gum_young_FLMT105791__60__17-39-18-043.txt Node

Date: Mon Mar 20 17:39:18 GMT 2023
User: antho
Spectrometer: FLMT10579
Trigger mode: 0
Integration Time (sec): 1.000000E-1
Scans to average: 10
Electric dark correction enabled: true
Nonlinearity correction enabled: false
Boxcar width: 0
XAxis mode: Wavelengths
Number of Pixels in Spectrum: 3648
>>>>>Begin Spectral Data<<<<<
345.248	-150.48
345.464	-150.48
345.681	-150.48
345.898	-134.59
346.114	-133.62
346.331	-36.36
346.548	5.88
346.764	-10.01
346.981	-1.87
347.197	11.69
347.414	-8.46
347.631	-20.28
347.847	60.51
348.064	6.26
348.28	20.21
348.497	-29.77
348.713	2.2
348.93	27.96
349.146	41.91
349.363	1.03
349.579	22.35
349.796	20.02
350.012	-6.52
350.229	35.13
350.445	5.1
350.661	-30.35
350.878	2.97
351.094	1.23
351.311	10.53
351.527	51.41
351.743	10.33
351.96	16.92
352.176	28.16
352.392	18.66
352.609	36.3
352.825	-22.6
353.041	2.39
353.257	-2.84
353.474	3.16
353.69	11.11
353.906	23.12
354.122	-29.19
354.339	55.48
354.555	-8.07
354.771	9.75
354.987	42.5
355.203	61.68
355.42	-7.69
355.636	1.81
355.852	-10.98
356.068	-3.04
356.284	-20.67
356.5	50.44
356.716	10.53
356.932	17.7
357.148	27.58
357.364	-10.59
357.58	58
357.796	54.9
358.012	22.73
358.228	5.49
358.444	-40.62
358.66	49.86
358.876	24.09
359.092	-16.21
359.308	38.81
359.524	31.06
359.74	27.19
359.956	-2.07
360.172	10.72
360.388	35.91
360.604	15.18
360.819	88.99
361.035	0.26
361.251	3.94
361.467	-11.37
361.683	50.63
361.898	5.68
362.114	20.99
362.33	22.35
362.546	39.59
362.762	30.48
362.977	-1.1
363.193	-13.89
363.409	59.54
363.624	4.13
363.84	-14.85
364.056	-7.3
364.271	51.41
364.487	16.53
364.703	0.06
364.918	-34.42
365.134	16.34
365.35	15.95
365.565	80.08
365.781	22.35
365.996	10.72
366.212	61.09
366.427	2.2
366.643	-11.95
366.858	7.81
367.074	-19.5
367.289	35.33
367.505	77.56
367.72	-27.45
367.936	10.72
368.151	23.9
368.367	43.85
368.582	20.6
368.798	16.34
369.013	39.4
369.228	18.08
369.444	16.53
369.659	63.61
369.874	30.29
370.09	52.96
370.305	-62.32
370.52	-13.89
370.736	59.35
370.951	-6.72
371.166	70.39
371.381	65.55
371.597	48.89
371.812	-25.32
372.027	-7.1
372.242	17.31
372.458	55.09
372.673	-1.1
372.888	22.15
373.103	29.71
373.318	97.71
373.533	45.4
373.749	14.79
373.964	-30.16
374.179	31.06
374.394	-1.1
374.609	49.28
374.824	-28.8
375.039	43.27
375.254	16.92
375.469	57.03
375.684	30.29
375.899	66.71
376.114	18.47
376.329	19.05
376.544	54.12
376.759	51.21
376.974	15.56
377.189	-4.2
377.404	34.55
377.619	45.79
377.834	-21.64
378.049	-14.08
378.264	-19.12
378.478	22.54
378.693	-10.98
378.908	37.07
379.123	49.08
379.338	51.41
379.553	18.66
379.767	16.34
379.982	51.6
380.197	51.99
380.412	27.96
380.626	32.23
380.841	79.89
381.056	26.22
381.271	65.16
381.485	21.76
381.7	-10.59
381.915	43.85
382.129	9.56
382.344	46.37
382.559	6.85
382.773	41.14
382.988	-9.62
383.202	30.1
383.417	34.75
383.632	114.57
383.846	22.54
384.061	51.41
384.275	1.61
384.49	49.66
384.704	48.11
384.919	14.98
385.133	24.67
385.348	33.97
385.562	-17.18
385.777	64.78
385.991	19.25
386.206	27.77
386.42	24.67
386.634	51.02
386.849	34.94
387.063	56.83
387.277	-13.5
387.492	-2.26
387.706	6.26
387.92	-5.94
388.135	43.85
388.349	38.04
388.563	39.59
388.778	16.53
388.992	59.35
389.206	53.73
389.42	68.65
389.635	17.5
389.849	42.3
390.063	77.95
390.277	38.23
390.491	94.61
390.706	51.41
390.92	58
391.134	14.4
391.348	57.22
391.562	24.48
391.776	32.81
391.99	17.89
392.205	42.11
392.419	2.78
392.633	9.36
392.847	75.43
393.061	6.85
393.275	87.25
393.489	30.68
393.703	45.98
393.917	59.74
394.131	-18.92
394.345	66.52
394.559	64
394.773	40.56
394.986	43.46
395.2	51.41
395.414	66.33
395.628	11.88
395.842	56.45
396.056	14.21
396.27	1.23
396.484	26.03
396.697	49.28
396.911	72.53
397.125	49.66
397.339	61.87
397.553	39.4
397.766	110.89
397.98	63.03
398.194	75.63
398.408	51.02
398.621	83.18
398.835	90.16
399.049	67.29
399.262	86.28
399.476	68.65
399.69	79.11
399.903	121.74
400.117	56.25
400.331	96.94
400.544	25.06
400.758	153.9
400.971	56.25
401.185	97.33
401.398	60.13
401.612	123.48
401.826	82.41
402.039	83.38
402.253	40.75
402.466	83.57
402.68	64.19
402.893	98.1
403.106	71.75
403.32	74.66
403.533	79.11
403.747	73.49
403.96	97.52
404.174	118.25
404.387	49.66
404.6	55.86
404.814	80.86
405.027	75.82
405.24	89.58
405.454	52.57
405.667	119.99
405.88	6.26
406.094	103.72
406.307	91.13
406.52	69.81
406.733	36.68
406.947	39.98
407.16	124.64
407.373	124.45
407.586	64.19
407.799	57.03
408.012	123.48
408.226	97.91
408.439	133.75
408.652	50.63
408.865	99.84
409.078	129.49
409.291	96.94
409.504	49.28
409.717	105.08
409.93	107.59
410.143	73.88
410.357	32.03
410.57	61.87
410.783	89.77
410.996	93.06
411.209	102.94
411.421	152.93
411.634	84.34
411.847	59.74
412.06	116.7
412.273	89.96
412.486	86.48
412.699	155.06
412.912	82.79
413.125	107.21
413.338	113.02
413.55	135.11
413.763	88.99
413.976	128.71
414.189	58.96
414.402	80.08
414.615	142.28
414.827	65.55
415.04	110.89
415.253	140.53
415.466	145.96
415.678	135.3
415.891	113.41
416.104	102.56
416.316	83.76
416.529	96.94
416.742	143.83
416.954	141.5
417.167	92.87
417.38	89.38
417.592	132.98
417.805	67.88
418.017	68.26
418.23	138.21
418.442	78.14
418.655	92.68
418.868	101.59
419.08	143.63
419.293	142.47
419.505	140.92
419.718	110.89
419.93	123.68
420.142	100.81
420.355	171.92
420.567	148.67
420.78	134.33
420.992	111.47
421.205	183.74
421.417	82.21
421.629	125.42
421.842	104.3
422.054	80.66
422.266	125.42
422.479	141.89
422.691	102.36
422.903	113.6
423.115	96.16
423.328	120.38
423.54	115.15
423.752	144.79
423.964	98.1
424.177	155.45
424.389	121.74
424.601	226.36
424.813	150.02
425.025	149.64
425.238	145.38
425.45	151.19
425.662	107.21
425.874	398.41
426.086	118.25
426.298	149.83
426.51	146.34
426.722	147.12
426.934	119.61
427.146	163.01
427.358	84.34
427.57	149.25
427.782	134.72
427.994	119.8
428.206	131.62
428.418	106.63
428.63	146.54
428.842	196.33
429.054	130.65
429.266	175.79
429.478	104.49
429.69	145.96
429.902	88.22
430.114	127.36
430.325	150.8
430.537	116.51
430.749	126.19
430.961	66.91
431.173	145.38
431.384	147.31
431.596	48.31
431.808	133.94
432.02	151.38
432.231	165.91
432.443	152.54
432.655	160.1
432.867	134.14
433.078	154.29
433.29	209.12
433.502	170.76
433.713	179.67
433.925	159.32
434.136	183.54
434.348	96.16
434.56	125.03
434.771	237.02
434.983	118.64
435.194	141.31
435.406	152.54
435.617	190.71
435.829	222.87
436.04	169.01
436.252	192.46
436.463	197.3
436.675	193.04
436.886	173.27
437.098	182.77
437.309	220.16
437.521	194.39
437.732	189.55
437.943	194.59
438.155	167.46
438.366	131.43
438.578	222.87
438.789	195.56
439	204.27
439.211	164.75
439.423	188.58
439.634	197.88
439.845	205.63
440.057	179.67
440.268	201.76
440.479	192.65
440.69	193.81
440.902	176.37
441.113	188.97
441.324	183.16
441.535	210.86
441.746	252.32
441.957	160.68
442.168	185.29
442.38	202.72
442.591	218.03
442.802	160.49
443.013	192.46
443.224	214.93
443.435	198.85
443.646	197.11
443.857	191.68
444.068	182.38
444.279	173.27
444.49	239.15
444.701	226.17
444.912	299.79
445.123	250
445.334	232.95
445.545	219
445.756	225.2
445.967	170.95
446.178	243.6
446.388	250
446.599	233.53
446.81	254.45
447.021	200.98
447.232	252.52
447.443	262.59
447.653	203.11
447.864	271.12
448.075	245.15
448.286	259.49
448.496	217.26
448.707	286.81
448.918	203.89
449.129	312.77
449.339	227.33
449.55	255.04
449.761	251.74
449.971	277.51
450.182	247.29
450.393	262.59
450.603	244.38
450.814	291.07
451.024	273.83
451.235	265.11
451.446	304.83
451.656	343.77
451.867	241.67
452.077	250.19
452.288	303.47
452.498	304.83
452.709	266.08
452.919	277.9
453.13	253.68
453.34	272.47
453.55	205.05
453.761	278.67
453.971	271.31
454.182	300.57
454.392	272.86
454.602	338.73
454.813	289.72
455.023	312.19
455.233	251.16
455.444	252.9
455.654	224.62
455.864	263.17
456.075	262.79
456.285	272.86
456.495	282.16
456.705	276.15
456.916	298.24
457.126	315.68
457.336	293.98
457.546	240.89
457.756	266.08
457.967	290.3
458.177	288.94
458.387	289.91
458.597	252.13
458.807	272.47
459.017	289.33
459.227	269.95
459.437	290.88
459.647	326.33
459.857	348.62
460.068	282.35
460.278	318.78
460.488	318
460.698	341.45
460.908	308.12
461.117	264.14
461.327	267.05
461.537	297.66
461.747	314.71
461.957	334.67
462.167	428.05
462.377	316.07
462.587	316.26
462.797	328.08
463.007	311.22
463.216	337.18
463.426	365.86
463.636	342.61
463.846	288.55
464.056	305.02
464.265	338.35
464.475	305.6
464.685	337.38
464.895	339.12
465.104	314.13
465.314	329.43
465.524	346.1
465.733	285.84
465.943	378.84
466.153	376.13
466.362	356.56
466.572	343.38
466.782	298.82
466.991	351.52
467.201	400.35
467.41	272.67
467.62	348.81
467.829	345.52
468.039	363.15
468.249	336.99
468.458	344.93
468.668	375.74
468.877	343.58
469.086	399.38
469.296	384.46
469.505	356.37
469.715	403.64
469.924	366.25
470.134	413.71
470.343	383.1
470.552	370.9
470.762	353.85
470.971	343
471.18	352.68
471.39	360.05
471.599	346.68
471.808	416.43
472.018	340.67
472.227	413.71
472.436	403.45
472.645	397.25
472.855	344.55
473.064	423.6
473.273	390.27
473.482	387.75
473.691	407.71
473.901	391.43
474.11	409.45
474.319	512.14
474.528	426.89
474.737	471.84
474.946	419.14
475.155	451.3
475.364	444.13
475.573	448.78
475.783	433.48
475.992	436.19
476.201	493.35
476.41	432.9
476.619	387.37
476.828	468.35
477.037	427.08
477.245	437.35
477.454	495.67
477.663	459.05
477.872	452.08
478.081	518.53
478.29	425.34
478.499	535
478.708	452.46
478.917	520.47
479.125	484.82
479.334	481.14
479.543	482.3
479.752	497.41
479.961	498.77
480.169	528.22
480.378	465.64
480.587	629.36
480.796	540.43
481.004	493.35
481.213	533.84
481.422	546.43
481.63	530.74
481.839	539.26
482.048	573.94
482.256	548.76
482.465	557.09
482.674	566
482.882	569.1
483.091	595.06
483.299	563.09
483.508	559.61
483.716	553.79
483.925	578.79
484.134	535.58
484.342	523.96
484.551	565.03
484.759	603.01
484.967	621.8
485.176	579.56
485.384	620.83
485.593	617.34
485.801	569.68
486.01	578.59
486.218	573.17
486.426	511.75
486.635	514.85
486.843	501.48
487.051	534.61
487.26	541.39
487.468	591.77
487.676	621.41
487.885	552.63
488.093	585.57
488.301	617.73
488.509	620.06
488.717	648.54
488.926	627.22
489.134	594.87
489.342	638.07
489.55	593.71
489.758	630.52
489.967	634.97
490.175	741.34
490.383	658.42
490.591	725.26
490.799	662.49
491.007	721.19
491.215	677.4
491.423	645.82
491.631	694.26
491.839	666.17
492.047	685.35
492.255	660.55
492.463	615.21
492.671	659.39
492.879	727.39
493.087	686.12
493.295	697.94
493.503	708.4
493.711	721
493.919	750.06
494.127	763.43
494.334	754.32
494.542	690
494.75	732.62
494.958	727.97
495.166	788.03
495.374	771.18
495.581	750.45
495.789	776.99
495.997	796.56
496.205	744.05
496.412	769.82
496.62	757.04
496.828	750.45
497.035	789
497.243	812.83
497.451	783.58
497.658	784.93
497.866	772.73
498.074	853.13
498.281	801.21
498.489	849.45
498.696	817.48
498.904	756.26
499.112	772.53
499.319	853.33
499.527	783.77
499.734	841.51
499.942	794.43
500.149	789.97
500.357	832.79
500.564	789.39
500.771	804.89
500.979	765.37
501.186	781.45
501.394	832.79
501.601	832.02
501.808	856.62
502.016	805.28
502.223	836.28
502.43	821.94
502.638	837.83
502.845	797.72
503.052	905.45
503.26	850.81
503.467	932.18
503.674	870.76
503.881	889.36
504.089	951.56
504.296	910.48
504.503	847.71
504.71	858.95
504.917	859.53
505.125	894.98
505.332	887.81
505.539	959.69
505.746	987.4
505.953	980.23
506.16	973.26
506.367	982.56
506.574	980.62
506.781	1035.26
506.988	927.34
507.195	974.42
507.402	962.6
507.609	1016.85
507.816	977.71
508.023	955.43
508.23	960.28
508.437	952.14
508.644	1017.82
508.851	1058.31
509.058	1052.11
509.265	1032.93
509.472	1058.31
509.679	1131.35
509.885	1050.17
510.092	1085.44
510.299	1060.64
510.506	1076.14
510.713	1097.26
510.92	1064.9
511.126	1113.53
511.333	1165.84
511.54	1148.99
511.746	1149.57
511.953	1187.74
512.16	1192.19
512.367	1167.97
512.573	1156.35
512.78	1160.42
512.987	1158.09
513.193	1189.48
513.4	1111.59
513.606	1194.13
513.813	1188.32
514.02	1169.72
514.226	1274.53
514.433	1264.07
514.639	1186.38
514.846	1233.85
515.052	1215.44
515.259	1250.9
515.465	1295.65
515.672	1263.68
515.878	1367.73
516.085	1283.64
516.291	1319.68
516.497	1278.41
516.704	1287.71
516.91	1231.91
517.117	1207.69
517.323	1132.52
517.529	1205.95
517.736	1204.4
517.942	1250.32
518.148	1283.25
518.354	1314.25
518.561	1275.12
518.767	1283.06
518.973	1303.98
519.179	1351.84
519.386	1359.2
519.592	1378.77
519.798	1374.51
520.004	1464.41
520.21	1452.78
520.417	1482.62
520.623	1494.44
520.829	1555.47
521.035	1538.42
521.241	1544.23
521.447	1567.09
521.653	1656.6
521.859	1579.49
522.065	1604.1
522.271	1692.25
522.477	1634.32
522.683	1700.78
522.889	1643.82
523.095	1644.01
523.301	1651.95
523.507	1642.65
523.713	1689.73
523.919	1687.6
524.125	1756.77
524.331	1740.69
524.537	1832.14
524.742	1810.24
524.948	1841.63
525.154	1813.15
525.36	1888.13
525.566	1819.93
525.772	1850.35
525.977	1802.5
526.183	1857.52
526.389	1854.42
526.595	1772.85
526.8	1787
527.006	1715.12
527.212	1659.7
527.417	1712.21
527.623	1699.03
527.829	1781.96
528.034	1800.95
528.24	1852.48
528.446	1813.73
528.651	1925.14
528.857	1896.46
529.062	1980.36
529.268	1960.59
529.473	1982.49
529.679	2024.14
529.884	2054.75
530.09	2031.89
530.295	2028.4
530.501	2047.39
530.706	1998.57
530.912	2023.95
531.117	2035.96
531.323	2049.72
531.528	2101.06
531.733	2136.9
531.939	2100.87
532.144	2090.6
532.35	2108.42
532.555	2123.34
532.76	2113.65
532.966	2081.88
533.171	2052.24
533.376	2022.79
533.581	2016.39
533.787	2104.16
533.992	2091.57
534.197	2145.43
534.402	2134.19
534.607	2158.02
534.813	2210.91
535.018	2143.1
535.223	2155.5
535.428	2164.61
535.633	2214.98
535.838	2260.9
536.043	2239.2
536.249	2330.84
536.454	2268.26
536.659	2258.58
536.864	2234.75
537.069	2209.75
537.274	2243.27
537.479	2240.95
537.684	2227.77
537.889	2223.12
538.094	2332.2
538.299	2276.01
538.504	2320.38
538.708	2296.16
538.913	2312.24
539.118	2278.92
539.323	2322.51
539.528	2250.05
539.733	2278.53
539.938	2279.69
540.142	2270.78
540.347	2255.09
540.552	2233.97
540.757	2227.58
540.962	2216.34
541.166	2206.65
541.371	2203.94
541.576	2236.1
541.781	2163.83
541.985	2337.24
542.19	2251.79
542.395	2341.11
542.599	2388.19
542.804	2338.98
543.008	2399.24
543.213	2350.8
543.418	2269.23
543.622	2343.05
543.827	2297.33
544.031	2381.99
544.236	2408.92
544.44	2397.88
544.645	2445.15
544.849	2375.79
545.054	2461.24
545.258	2446.32
545.463	2468.21
545.667	2384.32
545.872	2416.29
546.076	2437.99
546.281	2427.72
546.485	2389.16
546.689	2439.34
546.894	2428.49
547.098	2435.85
547.302	2429.46
547.507	2427.14
547.711	2431.2
547.915	2457.36
548.119	2356.61
548.324	2404.27
548.528	2481.39
548.732	2400.4
548.936	2475.77
549.141	2470.54
549.345	2467.63
549.549	2480.03
549.753	2501.15
549.957	2551.33
550.161	2505.6
550.366	2517.62
550.57	2458.14
550.774	2465.89
550.978	2477.9
551.182	2525.37
551.386	2443.02
551.59	2456
551.794	2453.68
551.998	2503.28
552.202	2467.82
552.406	2440.31
552.61	2509.28
552.814	2492.43
553.018	2550.75
553.222	2448.84
553.426	2468.02
553.63	2543
553.833	2467.63
554.037	2451.16
554.241	2484.49
554.445	2489.91
554.649	2476.74
554.853	2472.67
555.056	2552.88
555.26	2562.95
555.464	2507.93
555.668	2485.45
555.871	2543
556.075	2546.29
556.279	2459.3
556.483	2435.85
556.686	2443.99
556.89	2468.4
557.094	2496.69
557.297	2410.67
557.501	2474.02
557.704	2370.56
557.908	2445.74
558.112	2394.97
558.315	2464.53
558.519	2404.47
558.722	2412.41
558.926	2339.76
559.129	2306.63
559.333	2291.32
559.536	2319.61
559.74	2289.77
559.943	2295.78
560.147	2312.44
560.35	2307.98
560.553	2313.99
560.757	2280.47
560.96	2369.59
561.164	2337.24
561.367	2420.74
561.57	2328.33
561.774	2341.5
561.977	2299.46
562.18	2301.78
562.384	2350.61
562.587	2317.48
562.79	2260.71
562.993	2300.23
563.197	2340.34
563.4	2352.74
563.603	2348.67
563.806	2380.06
564.009	2263.23
564.212	2299.46
564.416	2225.45
564.619	2240.17
564.822	2203.94
565.025	2285.31
565.228	2216.92
565.431	2264
565.634	2129.93
565.837	2180.3
566.04	2150.27
566.243	2176.81
566.446	2073.35
566.649	2178.95
566.852	2069.28
567.055	2128.18
567.258	2131.09
567.461	2189.21
567.664	2195.41
567.867	2101.83
568.07	2150.47
568.273	2151.82
568.475	2162.09
568.678	2101.64
568.881	2067.15
569.084	2066.57
569.287	1958.07
569.489	2004.19
569.692	2064.44
569.895	2042.35
570.098	1986.94
570.3	1933.27
570.503	1932.5
570.706	1928.82
570.909	1912.93
571.111	1881.54
571.314	1891.81
571.516	1913.9
571.719	1910.02
571.922	1905.37
572.124	1860.04
572.327	1894.91
572.529	1854.03
572.732	1865.85
572.935	1896.46
573.137	1968.34
573.34	1860.43
573.542	1905.37
573.745	1884.84
573.947	1872.05
574.15	1864.69
574.352	1804.24
574.554	1909.25
574.757	1830.2
574.959	1818.96
575.162	1803.27
575.364	1778.28
575.566	1874.76
575.769	1713.95
575.971	1794.55
576.173	1696.9
576.376	1741.27
576.578	1831.94
576.78	1819.16
576.982	1702.33
577.185	1809.47
577.387	1734.3
577.589	1761.81
577.791	1753.28
577.993	1752.51
578.196	1704.27
578.398	1754.45
578.6	1762.2
578.802	1669.2
579.004	1687.02
579.206	1707.17
579.408	1707.56
579.61	1698.84
579.812	1716.47
580.014	1687.02
580.216	1665.9
580.418	1685.08
580.62	1637.03
580.822	1656.22
581.024	1713.18
581.226	1738.75
581.428	1683.73
581.63	1814.12
581.832	1719.57
582.034	1751.15
582.236	1728.48
582.438	1751.35
582.64	1783.31
582.841	1809.86
583.043	1837.37
583.245	1746.5
583.447	1737.01
583.649	1701.36
583.85	1725
584.052	1769.36
584.254	1716.47
584.456	1750.57
584.657	1696.71
584.859	1707.56
585.061	1699.03
585.262	1686.25
585.464	1666.29
585.666	1732.16
585.867	1665.32
586.069	1714.73
586.27	1671.72
586.472	1653.7
586.674	1641.3
586.875	1650.6
587.077	1642.46
587.278	1654.47
587.48	1630.84
587.681	1725
587.883	1661.83
588.084	1561.09
588.285	1625.22
588.487	1607.39
588.688	1604.49
588.89	1546.36
589.091	1502.38
589.292	1508.39
589.494	1445.23
589.695	1423.14
589.896	1351.26
590.098	1378.77
590.299	1423.14
590.5	1391.75
590.702	1421.59
590.903	1467.7
591.104	1482.23
591.305	1488.82
591.507	1517.3
591.708	1484.36
591.909	1464.6
592.11	1539.77
592.311	1491.72
592.512	1437.09
592.714	1420.62
592.915	1477.19
593.116	1446.39
593.317	1470.22
593.518	1468.09
593.719	1475.45
593.92	1494.05
594.121	1509.36
594.322	1467.51
594.523	1490.76
594.724	1385.16
594.925	1432.63
595.126	1446.58
595.327	1437.86
595.528	1481.07
595.729	1469.06
595.929	1445.61
596.13	1477.19
596.331	1474.09
596.532	1472.35
596.733	1532.8
596.934	1485.52
597.135	1510.52
597.335	1512.84
597.536	1473.51
597.737	1507.22
597.938	1444.26
598.138	1471.19
598.339	1474.87
598.54	1519.04
598.74	1468.67
598.941	1460.14
599.142	1564.77
599.342	1490.56
599.543	1449.88
599.744	1474.29
599.944	1416.16
600.145	1457.62
600.345	1468.09
600.546	1551.4
600.746	1501.02
600.947	1532.8
601.147	1478.36
601.348	1479.52
601.548	1443.09
601.749	1486.11
601.949	1422.36
602.15	1436.51
602.35	1440.19
602.551	1446.39
602.751	1434.96
602.951	1428.18
603.152	1379.16
603.352	1487.07
603.552	1443.68
603.753	1486.88
603.953	1481.46
604.153	1478.74
604.354	1461.11
604.554	1482.04
604.754	1459.56
604.954	1437.86
605.155	1479.32
605.355	1432.44
605.555	1476.42
605.755	1474.87
605.955	1421.39
606.155	1473.12
606.356	1410.16
606.556	1447.94
606.756	1425.66
606.956	1385.16
607.156	1471.57
607.356	1434.38
607.556	1472.16
607.756	1434.18
607.956	1468.09
608.156	1427.01
608.356	1397.37
608.556	1479.91
608.756	1418.29
608.956	1374.12
609.156	1394.27
609.356	1373.54
609.556	1358.04
609.755	1405.31
609.955	1377.61
610.155	1373.34
610.355	1391.56
610.555	1345.45
610.755	1351.84
610.954	1281.12
611.154	1340.02
611.354	1384.97
611.554	1313.86
611.753	1329.56
611.953	1289.65
612.153	1359.78
612.352	1340.21
612.552	1328.4
612.752	1252.64
612.951	1327.23
613.151	1325.3
613.351	1282.09
613.55	1291.39
613.75	1326.46
613.949	1274.15
614.149	1304.76
614.348	1295.85
614.548	1284.22
614.747	1226.87
614.947	1265.04
615.146	1217.57
615.346	1303.4
615.545	1327.81
615.745	1296.62
615.944	1278.8
616.144	1273.18
616.343	1275.5
616.542	1243.92
616.742	1240.43
616.941	1258.07
617.14	1152.09
617.34	1217.18
617.539	1234.04
617.738	1200.72
617.938	1276.08
618.137	1230.17
618.336	1150.54
618.535	1246.25
618.734	1193.74
618.934	1262.33
619.133	1265.04
619.332	1244.31
619.531	1181.34
619.73	1200.91
619.929	1225.13
620.128	1212.34
620.328	1276.86
620.527	1199.55
620.726	1183.86
620.925	1204.98
621.124	1214.86
621.323	1211.95
621.522	1179.02
621.721	1164.68
621.92	1153.83
622.119	1226.48
622.318	1163.9
622.517	1149.18
622.715	1187.74
622.914	1096.87
623.113	1177.08
623.312	1086.99
623.511	1163.32
623.71	1135.42
623.909	1116.63
624.107	1170.3
624.306	1092.8
624.505	1111.59
624.704	1138.33
624.902	1117.4
625.101	1161.77
625.3	1141.24
625.499	1088.92
625.697	1107.52
625.896	1079.04
626.095	1115.27
626.293	1062.77
626.492	1096.29
626.69	1117.02
626.889	1078.27
627.088	1132.52
627.286	1082.14
627.485	1058.51
627.683	1078.66
627.882	1078.46
628.08	1031.19
628.279	1052.11
628.477	1124.77
628.676	1024.02
628.874	1064.71
629.073	1024.6
629.271	1021.11
629.469	1081.17
629.668	1031.57
629.866	1032.35
630.065	1039.13
630.263	1057.54
630.461	1030.61
630.66	1045.91
630.858	1049.4
631.056	1076.14
631.254	1068.97
631.453	1035.06
631.651	1098.81
631.849	1048.43
632.047	1049.98
632.245	1010.26
632.444	1052.11
632.642	1075.36
632.84	1084.66
633.038	1027.7
633.236	1015.3
633.434	1024.99
633.632	1041.26
633.83	1012.59
634.028	1070.13
634.227	1042.23
634.425	1126.12
634.623	1052.31
634.821	1058.7
635.019	1046.69
635.216	1049.59
635.414	1064.9
635.612	1050.17
635.81	1056.57
636.008	1105.97
636.206	1035.64
636.404	1061.02
636.602	1019.95
636.8	1035.84
636.997	1092.02
637.195	1069.36
637.393	1058.12
637.591	1060.83
637.789	1049.98
637.986	1013.17
638.184	1043.78
638.382	1078.85
638.58	1071.87
638.777	1089.12
638.975	1038.36
639.173	1054.05
639.37	1030.61
639.568	1048.82
639.765	1077.11
639.963	1003.48
640.161	1030.22
640.358	1049.21
640.556	972.29
640.753	975
640.951	967.06
641.148	994.76
641.346	988.76
641.543	962.21
641.741	996.7
641.938	962.6
642.136	968.99
642.333	931.41
642.531	1008.52
642.728	1029.25
642.925	965.7
643.123	945.74
643.32	960.66
643.517	955.04
643.715	988.76
643.912	936.06
644.109	959.5
644.306	937.61
644.504	911.65
644.701	922.5
644.898	957.18
645.095	890.91
645.293	918.23
645.49	967.44
645.687	918.81
645.884	913
646.081	832.98
646.278	856.04
646.475	881.61
646.672	845.58
646.87	869.21
647.067	880.45
647.264	880.84
647.461	839.18
647.658	803.15
647.855	855.26
648.052	843.06
648.249	772.34
648.446	841.32
648.642	795.01
648.839	774.47
649.036	808.77
649.233	768.47
649.43	779.7
649.627	736.5
649.824	784.35
650.021	783
650.217	784.35
650.414	755.87
650.611	793.85
650.808	834.92
651.004	806.05
651.201	803.15
651.398	840.73
651.595	790.75
651.791	787.45
651.988	817.68
652.185	792.3
652.381	811.67
652.578	764.98
652.775	749.67
652.971	794.23
653.168	793.65
653.364	819.42
653.561	718.48
653.757	762.27
653.954	804.5
654.15	757.42
654.347	808.77
654.543	787.84
654.74	732.04
654.936	711.31
655.133	741.73
655.329	752.19
655.525	722.16
655.722	770.98
655.918	708.79
656.115	736.3
656.311	672.75
656.507	634.59
656.704	606.49
656.9	627.61
657.096	640.79
657.292	626.06
657.489	709.76
657.685	693.1
657.881	659.19
658.077	695.42
658.273	701.82
658.47	760.33
658.666	699.3
658.862	724.87
659.058	719.25
659.254	738.24
659.45	677.21
659.646	696.2
659.842	700.85
660.038	763.43
660.234	698.14
660.43	713.83
660.626	732.82
660.822	727.78
661.018	753.55
661.214	701.04
661.41	655.12
661.606	718.48
661.802	741.15
661.998	714.8
662.194	682.44
662.39	734.56
662.586	702.2
662.781	719.06
662.977	745.41
663.173	709.57
663.369	708.21
663.564	712.67
663.76	728.75
663.956	682.44
664.152	714.6
664.347	652.99
664.543	667.91
664.739	660.36
664.934	640.4
665.13	615.79
665.326	708.02
665.521	669.07
665.717	603.78
665.912	615.02
666.108	557.67
666.304	610.95
666.499	626.45
666.695	571.81
666.89	644.47
667.086	662.29
667.281	661.32
667.477	686.51
667.672	627.22
667.867	634.78
668.063	653.38
668.258	608.43
668.454	643.11
668.649	668.11
668.844	633.23
669.04	652.41
669.235	586.34
669.43	618.12
669.626	579.95
669.821	600.1
670.016	616.37
670.211	601.65
670.407	585.18
670.602	596.03
670.797	605.33
670.992	630.52
671.187	607.66
671.382	640.98
671.578	603.97
671.773	628.19
671.968	548.76
672.163	602.62
672.358	619.67
672.553	582.86
672.748	579.37
672.943	656.29
673.138	607.46
673.333	623.74
673.528	581.11
673.723	622.96
673.918	588.86
674.113	570.07
674.308	663.84
674.503	600.87
674.698	594.09
674.892	597.97
675.087	602.62
675.282	598.55
675.477	566.78
675.672	601.26
675.867	583.24
676.061	540.81
676.256	536.94
676.451	571.23
676.646	569.88
676.84	567.16
677.035	550.5
677.23	534.42
677.424	606.49
677.619	612.31
677.814	584.99
678.008	594.29
678.203	523.38
678.397	542.94
678.592	564.26
678.787	620.64
678.981	557.09
679.176	556.7
679.37	580.14
679.565	548.37
679.759	559.61
679.954	564.64
680.148	615.79
680.342	594.67
680.537	633.42
680.731	550.5
680.926	579.56
681.12	572.2
681.314	526.67
681.509	547.98
681.703	553.41
681.897	597.97
682.092	575.88
682.286	546.82
682.48	634.39
682.674	608.43
682.869	562.71
683.063	582.66
683.257	616.96
683.451	536.36
683.645	594.48
683.839	575.49
684.034	589.83
684.228	621.41
684.422	550.89
684.616	564.26
684.81	646.79
685.004	585.18
685.198	604.36
685.392	621.41
685.586	566.97
685.78	604.17
685.974	653.77
686.168	609.79
686.362	655.9
686.556	580.34
686.75	541.2
686.944	561.35
687.138	576.85
687.331	459.25
687.525	489.66
687.719	421.46
687.913	479.4
688.107	517.56
688.301	510.98
688.494	536.74
688.688	497.99
688.882	455.56
689.076	487.92
689.269	526.28
689.463	591.77
689.657	520.47
689.85	534.61
690.044	554.57
690.238	582.47
690.431	568.13
690.625	555.73
690.818	596.81
691.012	615.99
691.205	662.87
691.399	609.01
691.593	666.17
691.786	714.8
691.98	724.49
692.173	765.56
692.366	743.47
692.56	741.92
692.753	776.8
692.947	745.99
693.14	834.53
693.333	791.52
693.527	749.29
693.72	822.72
693.914	793.07
694.107	804.5
694.3	831.43
694.493	794.62
694.687	889.36
694.88	871.35
695.073	937.99
695.266	903.31
695.46	895.56
695.653	938.96
695.846	952.91
696.039	926.37
696.232	956.98
696.425	1033.51
696.618	1040.68
696.812	1035.64
697.005	1118.57
697.198	1191.22
697.391	1118.18
697.584	1183.28
697.777	1237.33
697.97	1228.42
698.163	1229
698.356	1222.22
698.549	1306.31
698.742	1306.11
698.935	1244.89
699.127	1297.98
699.32	1230.55
699.513	1291
699.706	1283.45
699.899	1331.11
700.092	1306.5
700.285	1328.4
700.477	1290.81
700.67	1353.78
700.863	1397.95
701.056	1454.53
701.248	1426.43
701.441	1466.73
701.634	1428.95
701.826	1519.62
702.019	1427.01
702.212	1504.32
702.404	1479.71
702.597	1485.52
702.79	1520.79
702.982	1518.85
703.175	1600.8
703.367	1584.53
703.56	1610.3
703.752	1685.08
703.945	1675.2
704.137	1706.2
704.33	1726.55
704.522	1742.82
704.715	1736.23
704.907	1771.5
705.1	1817.41
705.292	1828.65
705.484	1797.26
705.677	1853.45
705.869	1871.86
706.061	1889.49
706.254	1951.1
706.446	1907.31
706.638	1895.11
706.831	1965.63
707.023	1943.74
707.215	2037.32
707.407	2049.91
707.599	2029.37
707.792	2093.12
707.984	2071.61
708.176	2105.52
708.368	2078.58
708.56	2132.25
708.752	2123.15
708.944	2134
709.136	2151.63
709.329	2159.96
709.521	2319.99
709.713	2222.35
709.905	2257.41
710.097	2282.02
710.289	2274.85
710.481	2253.15
710.672	2299.46
710.864	2333.56
711.056	2390.13
711.248	2350.02
711.44	2355.06
711.632	2388.97
711.824	2417.84
712.016	2477.12
712.207	2424.42
712.399	2457.94
712.591	2512.58
712.783	2497.85
712.975	2467.24
713.166	2470.92
713.358	2543
713.55	2567.02
713.741	2518.2
713.933	2592.02
714.125	2552.49
714.316	2536.8
714.508	2632.31
714.7	2630.57
714.891	2615.46
715.083	2665.25
715.274	2615.65
715.466	2702.84
715.657	2658.66
715.849	2598.02
716.04	2617.4
716.232	2582.13
716.423	2590.85
716.615	2528.85
716.806	2433.53
716.998	2382.77
717.189	2272.53
717.381	2278.14
717.572	2161.51
717.763	2202.97
717.955	2134.97
718.146	2090.98
718.337	2042.55
718.528	2021.82
718.72	1974.54
718.911	2005.35
719.102	1932.31
719.293	2013.29
719.485	1971.64
719.676	1953.81
719.867	1894.72
720.058	1920.87
720.249	1917.77
720.44	1971.25
720.632	2016.59
720.823	2087.5
721.014	2212.66
721.205	2251.99
721.396	2304.11
721.587	2436.44
721.778	2453.1
721.969	2530.02
722.16	2608.29
722.351	2637.16
722.542	2732.48
722.733	2738.68
722.924	2669.9
723.115	2664.28
723.305	2675.52
723.496	2705.74
723.687	2540.28
723.878	2564.89
724.069	2524.01
724.26	2538.73
724.45	2510.06
724.641	2471.89
724.832	2480.22
725.023	2461.62
725.213	2472.86
725.404	2422.29
725.595	2412.41
725.785	2433.14
725.976	2497.66
726.167	2476.35
726.357	2509.09
726.548	2575.55
726.739	2495.14
726.929	2588.92
727.12	2642.39
727.31	2635.22
727.501	2563.53
727.691	2570.32
727.882	2582.52
728.072	2645.88
728.263	2629.02
728.453	2721.63
728.644	2690.05
728.834	2641.61
729.024	2663.51
729.215	2624.37
729.405	2628.83
729.596	2757.48
729.786	2784.41
729.976	2775.3
730.167	2758.25
730.357	2723.96
730.547	2761.54
730.737	2800.29
730.928	2852.8
731.118	2873.14
731.308	2812.11
731.498	2843.11
731.688	2934.56
731.879	2986.29
732.069	2980.87
732.259	3048.1
732.449	3117.46
732.639	3121.53
732.829	3169.96
733.019	3222.86
733.209	3319.92
733.399	3339.88
733.589	3364.49
733.779	3423.19
733.969	3410.98
734.159	3503.21
734.349	3528.78
734.539	3600.47
734.729	3581.68
734.919	3584
735.109	3711.1
735.299	3583.81
735.488	3636.31
735.678	3623.33
735.868	3635.15
736.058	3622.36
736.248	3622.36
736.437	3605.12
736.627	3554.55
736.817	3722.14
737.007	3625.08
737.196	3690.37
737.386	3686.88
737.576	3671.19
737.765	3730.09
737.955	3667.31
738.144	3811.85
738.334	3761.28
738.524	3744.81
738.713	3768.25
738.903	3759.54
739.092	3773.87
739.282	3767.67
739.471	3806.04
739.661	3815.53
739.85	3807.59
740.04	3846.72
740.229	3887.99
740.419	3881.6
740.608	3909.5
740.797	3869.39
740.987	3969.56
741.176	3950.18
741.365	3913.76
741.555	3877.14
741.744	3959.29
741.933	3939.33
742.123	3957.55
742.312	3942.24
742.501	4024.58
742.69	4021.29
742.88	3943.6
743.069	4068.37
743.258	4016.25
743.447	4050.54
743.636	4049.58
743.825	4026.13
744.014	4062.36
744.204	4113.51
744.393	4025.55
744.582	4135.21
744.771	4116.22
744.96	4064.3
745.149	4108.86
745.338	4081.35
745.527	4108.67
745.716	4071.86
745.905	4062.94
746.094	4150.71
746.283	4105.18
746.471	4138.31
746.66	4158.46
746.849	4127.27
747.038	4180.74
747.227	4102.27
747.416	4093.75
747.604	4129.79
747.793	4090.84
747.982	4116.03
748.171	4124.17
748.359	4111.57
748.548	4141.99
748.737	4159.24
748.926	4122.42
749.114	4039.5
749.303	4132.11
749.491	4082.12
749.68	4020.71
749.869	4123.78
750.057	4146.64
750.246	4109.44
750.434	4102.27
750.623	4066.82
750.811	4035.63
751	4044.15
751.188	4023.81
751.377	4061.2
751.565	4049.77
751.754	4026.91
751.942	3999.78
752.131	4061.01
752.319	4019.54
752.507	3974.98
752.696	4021.68
752.884	4039.31
753.072	3981.38
753.261	4043.18
753.449	4054.23
753.637	3954.25
753.825	4068.76
754.014	4009.08
754.202	4010.24
754.39	4093.75
754.578	4037.37
754.766	4041.44
754.955	3916.08
755.143	4079.8
755.331	3991.06
755.519	4008.5
755.707	3973.43
755.895	3943.01
756.083	3979.25
756.271	3890.7
756.459	3935.26
756.647	3985.64
756.835	3926.16
757.023	3889.93
757.211	3897.48
757.399	3850.98
757.587	3871.52
757.775	3830.64
757.963	3839.17
758.151	3884.31
758.339	3851.76
758.526	3802.16
758.714	3824.83
758.902	3704.12
759.09	3575.86
759.278	3359.25
759.465	3100.6
759.653	2686.95
759.841	2415.32
760.028	2064.44
760.216	1800.36
760.404	1668.23
760.591	1371.21
760.779	1154.02
760.967	1013.75
761.154	849.65
761.342	824.27
761.529	829.5
761.717	907.58
761.905	892.46
762.092	963.76
762.28	892.27
762.467	870.38
762.655	786.29
762.842	833.18
763.029	791.91
763.217	850.42
763.404	785.13
763.592	858.75
763.779	838.8
763.966	857.78
764.154	901.96
764.341	958.92
764.528	982.17
764.716	1015.88
764.903	1097.64
765.09	1171.27
765.277	1270.08
765.465	1435.93
765.652	1495.79
765.839	1567.48
766.026	1734.3
766.213	1772.46
766.4	1924.75
766.588	2133.03
766.775	2165.19
766.962	2307.59
767.149	2370.37
767.336	2530.4
767.523	2517.03
767.71	2641.61
767.897	2786.73
768.084	2881.09
768.271	2935.34
768.458	3012.25
768.645	3057.2
768.832	3055.26
769.019	3080.06
769.206	3108.74
769.392	3223.05
769.579	3305.59
769.766	3272.07
769.953	3305
770.14	3330.77
770.327	3315.66
770.513	3393.16
770.7	3396.26
770.887	3383.28
771.073	3382.31
771.26	3407.69
771.447	3402.27
771.634	3413.89
771.82	3493.91
772.007	3370.1
772.193	3459.62
772.38	3427.65
772.567	3437.72
772.753	3422.8
772.94	3477.05
773.126	3470.27
773.313	3462.52
773.499	3440.43
773.686	3462.91
773.872	3390.25
774.059	3438.3
774.245	3378.82
774.432	3410.4
774.618	3315.85
774.804	3374.17
774.991	3361.97
775.177	3384.63
775.363	3372.04
775.55	3404.4
775.736	3348.02
775.922	3367.39
776.109	3357.12
776.295	3352.09
776.481	3371.46
776.667	3386.38
776.853	3335.42
777.04	3318.57
777.226	3381.53
777.412	3427.45
777.598	3312.37
777.784	3354.02
777.97	3306.55
778.156	3325.54
778.342	3307.14
778.528	3263.74
778.715	3258.7
778.901	3253.27
779.087	3245.52
779.272	3245.33
779.458	3194.18
779.644	3264.32
779.83	3194.18
780.016	3383.08
780.202	3252.11
780.388	3230.99
780.574	3168.61
780.76	3211.23
780.946	3247.85
781.131	3160.47
781.317	3172.48
781.503	3148.46
781.689	3163.76
781.874	3269.94
782.06	3178.49
782.246	3189.34
782.432	3194.76
782.617	3172.48
782.803	3183.72
782.989	3128.11
783.174	3149.43
783.36	3083.36
783.545	3105.83
783.731	3116.3
783.916	3047.13
784.102	3054.3
784.288	3078.32
784.473	3052.94
784.659	3027.56
784.844	3079.87
785.029	3044.61
785.215	3018.07
785.4	2982.03
785.586	3100.02
785.771	3000.43
785.956	3081.81
786.142	2980.67
786.327	2983.97
786.512	2996.37
786.698	2934.17
786.883	2892.71
787.068	2924.68
787.254	2939.99
787.439	2935.53
787.624	2886.12
787.809	2888.45
787.994	2860.94
788.18	2934.75
788.365	2842.14
788.55	2871.2
788.735	2867.33
788.92	2811.14
789.105	2836.91
789.29	2838.07
789.475	2785.76
789.66	2785.57
789.845	2743.14
790.03	2737.33
790.215	2762.71
790.4	2792.74
790.585	2768.71
790.77	2773.94
790.955	2719.11
791.14	2740.23
791.325	2825.48
791.51	2634.64
791.695	2737.33
791.879	2758.06
792.064	2685.79
792.249	2784.21
792.434	2746.63
792.618	2704
792.803	2776.66
792.988	2692.18
793.173	2735.39
793.357	2733.84
793.542	2702.06
793.727	2750.5
793.911	2787.12
794.096	2756.12
794.281	2751.86
794.465	2828.19
794.65	2769.29
794.834	2825.48
795.019	2822.77
795.203	2831.1
795.388	2809.98
795.572	2830.91
795.757	2778.01
795.941	2796.03
796.126	2792.16
796.31	2736.74
796.494	2766.78
796.679	2710.01
796.863	2729.19
797.048	2800.49
797.232	2807.27
797.416	2782.66
797.601	2805.91
797.785	2832.07
797.969	2840.01
798.153	2761.74
798.338	2817.92
798.522	2830.52
798.706	2863.07
798.89	2844.08
799.074	2918.87
799.258	2915.96
799.443	2830.52
799.627	2855.7
799.811	2888.64
799.995	2874.3
800.179	2774.33
800.363	2784.21
800.547	2831.87
800.731	2834.78
800.915	2745.85
801.099	2771.62
801.283	2756.51
801.467	2768.52
801.651	2750.31
801.835	2837.88
802.019	2815.02
802.202	2793.32
802.386	2706.71
802.57	2719.5
802.754	2705.16
802.938	2740.04
803.121	2729.77
803.305	2793.51
803.489	2744.11
803.673	2772.78
803.856	2778.4
804.04	2807.27
804.224	2782.08
804.407	2755.93
804.591	2748.18
804.775	2781.69
804.958	2767.74
805.142	2890
805.326	2821.22
805.509	2793.12
805.693	2818.51
805.876	2834.39
806.06	2799.52
806.243	2823.93
806.427	2823.35
806.61	2838.85
806.794	2757.86
806.977	2846.02
807.16	2824.12
807.344	2837.49
807.527	2809.79
807.71	2817.34
807.894	2770.84
808.077	2831.68
808.26	2731.32
808.444	2749.92
808.627	2809.01
808.81	2746.43
808.993	2691.21
809.177	2660.8
809.36	2687.92
809.543	2708.26
809.726	2614.49
809.909	2674.36
810.092	2645.88
810.276	2609.26
810.459	2598.99
810.642	2606.35
810.825	2537.77
811.008	2632.31
811.191	2455.81
811.374	2475.38
811.557	2486.23
811.74	2517.62
811.923	2404.66
812.106	2469.57
812.289	2365.52
812.472	2366.3
812.654	2372.69
812.837	2384.9
813.02	2329.29
813.203	2305.27
813.386	2167.51
813.569	2163.64
813.751	2092.92
813.934	2138.07
814.117	2067.93
814.3	2022.4
814.482	1970.86
814.665	1973.38
814.848	1908.47
815.03	1921.46
815.213	1841.44
815.396	1879.61
815.578	1793.97
815.761	1786.41
815.943	1808.89
816.126	1754.06
816.309	1713.57
816.491	1653.7
816.674	1593.25
816.856	1668.81
817.039	1596.93
817.221	1706.01
817.403	1689.73
817.586	1703.49
817.768	1709.11
817.951	1622.31
818.133	1614.56
818.315	1623.47
818.498	1696.9
818.68	1757.16
818.862	1700.97
819.045	1760.84
819.227	1734.1
819.409	1677.92
819.591	1722.67
819.774	1706.4
819.956	1674.43
820.138	1757.93
820.32	1723.83
820.502	1832.14
820.684	1891.62
820.866	1900.34
821.048	1925.14
821.231	1972.99
821.413	1914.09
821.595	1956.33
821.777	1940.83
821.959	1935.79
822.141	2013.49
822.323	1848.61
822.505	1786.03
822.686	1719.96
822.868	1650.6
823.05	1516.52
823.232	1528.34
823.414	1448.52
823.596	1487.66
823.778	1485.33
823.96	1519.62
824.141	1571.94
824.323	1556.05
824.505	1667.65
824.687	1673.85
824.868	1756.96
825.05	1854.42
825.232	1905.96
825.413	1954.2
825.595	1895.69
825.777	1864.11
825.958	1886.58
826.14	1889.88
826.321	1922.23
826.503	1892.98
826.685	1935.21
826.866	1963.31
827.048	1952.65
827.229	1841.44
827.411	1850.35
827.592	1778.28
827.773	1765.3
827.955	1712.79
828.136	1751.15
828.318	1689.15
828.499	1717.25
828.68	1674.23
828.862	1693.8
829.043	1743.21
829.224	1685.86
829.406	1651.37
829.587	1692.64
829.768	1681.21
829.949	1691.87
830.131	1696.32
830.312	1760.65
830.493	1733.71
830.674	1733.13
830.855	1690.9
831.036	1698.65
831.218	1760.26
831.399	1755.03
831.58	1693.61
831.761	1715.5
831.942	1699.81
832.123	1706.78
832.304	1672.1
832.485	1682.57
832.666	1669.78
832.847	1688.18
833.028	1673.85
833.209	1711.43
833.389	1713.57
833.57	1615.92
833.751	1640.91
833.932	1731.39
834.113	1706.2
834.294	1642.07
834.475	1758.32
834.655	1781.96
834.836	1786.22
835.017	1746.89
835.198	1718.02
835.378	1712.02
835.559	1809.47
835.74	1675.2
835.92	1739.91
836.101	1756.38
836.281	1761.42
836.462	1748.83
836.643	1791.06
836.823	1817.03
837.004	1781.38
837.184	1813.54
837.365	1798.04
837.545	1796.49
837.726	1764.13
837.906	1846.28
838.087	1773.82
838.267	1770.33
838.448	1760.84
838.628	1779.83
838.808	1759.87
838.989	1802.3
839.169	1771.5
839.349	1841.05
839.53	1835.24
839.71	1841.83
839.89	1795.52
840.07	1826.13
840.251	1784.86
840.431	1800.95
840.611	1777.89
840.791	1778.28
840.971	1820.32
841.151	1772.27
841.332	1754.45
841.512	1834.66
841.692	1719.38
841.872	1796.1
842.052	1760.06
842.232	1790.48
842.412	1729.84
842.592	1792.23
842.772	1767.62
842.952	1769.95
843.132	1736.43
843.312	1772.08
843.492	1708.72
843.672	1778.66
843.851	1690.7
844.031	1781.76
844.211	1756
844.391	1722.28
844.571	1744.56
844.751	1754.83
844.93	1749.41
845.11	1741.85
845.29	1760.06
845.47	1782.73
845.649	1724.41
845.829	1799.59
846.009	1703.49
846.188	1766.26
846.368	1754.06
846.547	1727.71
846.727	1738.17
846.907	1694.19
847.086	1717.63
847.266	1780.6
847.445	1749.02
847.625	1730.03
847.804	1671.91
847.984	1722.48
848.163	1697.68
848.343	1692.25
848.522	1695.55
848.701	1745.92
848.881	1664.55
849.06	1672.68
849.239	1689.54
849.419	1695.16
849.598	1617.27
849.777	1602.16
849.957	1627.54
850.136	1540.55
850.315	1552.37
850.494	1545
850.674	1561.28
850.853	1623.67
851.032	1580.07
851.211	1643.82
851.39	1612.43
851.569	1528.15
851.748	1513.62
851.927	1614.75
852.107	1596.93
852.286	1538.81
852.465	1537.64
852.644	1588.02
852.823	1598.48
853.002	1594.41
853.181	1574.07
853.359	1570.77
853.538	1531.64
853.717	1596.93
853.896	1477.97
854.075	1405.7
854.254	1373.73
854.433	1343.31
854.611	1373.34
854.79	1296.04
854.969	1384.97
855.148	1375.86
855.327	1328.59
855.505	1417.33
855.684	1375.09
855.863	1433.99
856.041	1430.31
856.22	1439.03
856.399	1422.36
856.577	1538.22
856.756	1495.21
856.934	1570.58
857.113	1585.5
857.291	1528.34
857.47	1461.5
857.648	1503.35
857.827	1531.83
858.005	1547.91
858.184	1504.12
858.362	1586.08
858.541	1525.24
858.719	1492.69
858.898	1488.04
859.076	1495.41
859.254	1564.96
859.433	1443.09
859.611	1466.92
859.789	1445.61
859.967	1534.16
860.146	1543.65
860.324	1437.86
860.502	1464.79
860.68	1430.89
860.859	1412.48
861.037	1435.15
861.215	1478.74
861.393	1469.06
861.571	1425.08
861.749	1434.76
861.927	1444.84
862.105	1452.98
862.283	1430.11
862.461	1414.81
862.639	1415.58
862.817	1453.36
862.995	1420.43
863.173	1390.39
863.351	1406.86
863.529	1410.54
863.707	1471.57
863.885	1442.51
864.063	1354.16
864.241	1360.36
864.418	1450.26
864.596	1380.13
864.774	1351.26
864.952	1387.29
865.129	1400.86
865.307	1384
865.485	1315.03
865.663	1371.79
865.84	1283.45
866.018	1306.11
866.196	1179.79
866.373	1217.96
866.551	1198.97
866.728	1138.72
866.906	1153.64
867.084	1199.17
867.261	1247.22
867.439	1256.71
867.616	1309.02
867.794	1234.82
867.971	1285
868.149	1260
868.326	1365.01
868.503	1326.26
868.681	1288.48
868.858	1240.82
869.035	1255.16
869.213	1290.42
869.39	1320.26
869.567	1320.84
869.745	1241.6
869.922	1289.84
870.099	1324.91
870.276	1310.76
870.454	1320.26
870.631	1284.41
870.808	1274.34
870.985	1292.36
871.162	1347.58
871.339	1267.37
871.517	1248.18
871.694	1206.14
871.871	1259.23
872.048	1276.08
872.225	1242.18
872.402	1250.51
872.579	1208.66
872.756	1220.28
872.933	1198.97
873.11	1221.25
873.287	1223.19
873.463	1228.03
873.64	1207.69
873.817	1214.86
873.994	1240.82
874.171	1210.21
874.348	1211.37
874.524	1181.92
874.701	1217.77
874.878	1144.53
875.055	1198.39
875.231	1167
875.408	1192.19
875.585	1133.68
875.762	1174.75
875.938	1165.84
876.115	1174.37
876.291	1154.8
876.468	1152.67
876.645	1097.45
876.821	1136
876.998	1139.3
877.174	1151.31
877.351	1139.49
877.527	1135.23
877.704	1169.14
877.88	1123.6
878.057	1137.75
878.233	1172.82
878.409	1158.48
878.586	1160.22
878.762	1137.75
878.938	1147.05
879.115	1082.53
879.291	1105.39
879.467	1044.94
879.644	1098.03
879.82	1141.43
879.996	1086.02
880.172	1090.47
880.349	1089.12
880.525	1086.21
880.701	1062.19
880.877	1032.74
881.053	1073.23
881.229	1049.21
881.405	1135.42
881.581	1050.37
881.757	1085.63
881.933	1103.26
882.109	1083.11
882.285	1106.56
882.461	1019.76
882.637	1055.6
882.813	1022.27
882.989	1066.06
883.165	1108.3
883.341	1064.12
883.517	1117.4
883.693	1086.41
883.869	1075.56
884.044	1072.26
884.22	1076.72
884.396	1133.87
884.572	1079.04
884.747	1140.07
884.923	1099.77
885.099	1089.31
885.275	1098.81
885.45	1070.52
885.626	1044.94
885.801	1031.77
885.977	1085.82
886.153	984.88
886.328	1088.54
886.504	1038.36
886.679	1044.75
886.855	1046.3
887.03	1086.41
887.206	1076.33
887.381	1080.79
887.557	1066.06
887.732	1076.91
887.908	1062.19
888.083	1070.13
888.258	1056.76
888.434	1054.44
888.609	1043.59
888.784	1106.94
888.96	1056.37
889.135	1069.55
889.31	1045.52
889.485	1066.84
889.661	1031.77
889.836	1061.41
890.011	1059.67
890.186	1048.62
890.361	1040.49
890.537	1035.06
890.712	1062.77
890.887	1095.71
891.062	1063.35
891.237	1124.77
891.412	1020.34
891.587	1071.49
891.762	1075.56
891.937	1073.81
892.112	1008.91
892.287	1025.18
892.462	995.15
892.637	975
892.812	947.29
892.987	967.44
893.161	945.94
893.336	940.32
893.511	968.03
893.686	952.33
893.861	950.2
894.035	949.81
894.21	974.42
894.385	907.19
894.56	915.33
894.734	854.1
894.909	874.06
895.084	843.83
895.258	824.65
895.433	854.68
895.608	822.52
895.782	755.1
895.957	811.48
896.131	810.12
896.306	726.42
896.48	725.84
896.655	722.55
896.829	650.28
897.004	693.1
897.178	683.41
897.353	686.32
897.527	737.47
897.701	709.95
897.876	644.27
898.05	725.26
898.224	706.66
898.399	726.42
898.573	677.4
898.747	558.83
898.921	615.02
899.096	533.84
899.27	561.74
899.444	533.06
899.618	608.82
899.792	604.17
899.967	612.5
900.141	646.6
900.315	572.2
900.489	590.41
900.663	595.64
900.837	566.97
901.011	543.53
901.185	641.17
901.359	588.67
901.533	604.17
901.707	613.86
901.881	593.71
902.055	551.08
902.229	597.77
902.403	640.98
902.576	628.97
902.75	604.94
902.924	699.1
903.098	644.86
903.272	691.74
903.446	722.35
903.619	746.38
903.793	758.2
903.967	736.3
904.14	807.6
904.314	768.66
904.488	745.6
904.661	771.18
904.835	757.04
905.009	786.68
905.182	827.17
905.356	787.07
905.529	770.4
905.703	732.62
905.876	726.42
906.05	695.62
906.223	690.39
906.397	624.51
906.57	595.64
906.744	622.96
906.917	592.74
907.09	597.77
907.264	570.26
907.437	577.24
907.61	544.11
907.784	558.64
907.957	559.8
908.13	524.54
908.304	550.5
908.477	521.83
908.65	529.96
908.823	483.85
908.996	594.09
909.17	540.23
909.343	504.78
909.516	491.99
909.689	535.58
909.862	480.36
910.035	499.35
910.208	478.81
910.381	500.51
910.554	575.3
910.727	504.39
910.9	490.63
911.073	502.84
911.246	556.7
911.419	566.97
911.592	553.6
911.765	503.23
911.938	513.11
912.11	513.69
912.283	494.31
912.456	566.39
912.629	506.71
912.802	490.63
912.974	480.56
913.147	440.45
913.32	388.33
913.493	379.62
913.665	424.95
913.838	443.16
914.01	438.32
914.183	455.18
914.356	438.9
914.528	479.59
914.701	549.53
914.873	492.38
915.046	432.31
915.218	408.68
915.391	338.54
915.563	373.03
915.736	377.68
915.908	445.49
916.081	441.61
916.253	448.4
916.425	442.78
916.598	466.61
916.77	445.68
916.942	473
917.115	367.6
917.287	420.11
917.459	379.23
917.632	370.51
917.804	344.16
917.976	414.88
918.148	438.9
918.32	425.53
918.493	442.58
918.665	490.83
918.837	464.09
919.009	508.84
919.181	494.31
919.353	486.56
919.525	494.7
919.697	446.65
919.869	476.88
920.041	539.84
920.213	593.9
920.385	532.48
920.557	485.79
920.729	488.11
920.901	488.31
921.073	491.99
921.244	466.8
921.416	515.82
921.588	455.95
921.76	447.43
921.932	540.23
922.103	475.33
922.275	486.37
922.447	497.03
922.619	427.47
922.79	462.15
922.962	435.03
923.134	463.31
923.305	408.87
923.477	406.35
923.648	411.39
923.82	426.31
923.991	363.34
924.163	387.56
924.335	417.01
924.506	386.59
924.677	429.6
924.849	394.73
925.02	405.58
925.192	427.66
925.363	401.7
925.535	415.26
925.706	374.58
925.877	448.2
926.049	392.98
926.22	398.8
926.391	395.7
926.562	420.5
926.734	381.17
926.905	419.72
927.076	363.15
927.247	373.8
927.419	326.14
927.59	313.74
927.761	325.37
927.932	307.74
928.103	319.55
928.274	274.6
928.445	276.35
928.616	269.76
928.787	282.74
928.958	308.7
929.129	281.19
929.3	271.89
929.471	230.82
929.642	168.43
929.813	160.87
929.984	267.82
930.155	164.36
930.326	218.42
930.496	173.66
930.667	133.94
930.838	174.24
931.009	135.49
931.18	153.12
931.35	145.76
931.521	123.87
931.692	97.33
931.863	68.07
932.033	102.17
932.204	125.03
932.374	100.43
932.545	53.35
932.716	112.05
932.886	137.24
933.057	39.78
933.227	68.84
933.398	111.47
933.568	48.89
933.739	16.73
933.909	43.08
934.08	74.08
934.25	1.03
934.421	-15.82
934.591	70.01
934.761	32.23
934.932	-1.49
935.102	51.6
935.272	8.4
935.443	30.48
935.613	40.36
935.783	59.16
935.953	34.16
936.123	160.49
936.294	11.88
936.464	28.74
936.634	25.45
936.804	27
936.974	-13.11
937.144	13.63
937.314	24.48
937.484	8.98
937.655	-20.09
937.825	40.17
937.995	21.38
938.165	39.4
938.334	23.31
938.504	65.94
938.674	24.28
938.844	48.5
939.014	90.35
939.184	89.96
939.354	151.38
939.524	116.12
939.694	76.01
939.863	84.73
940.033	139.37
940.203	127.36
940.373	106.24
940.542	103.72
940.712	85.51
940.882	93.45
941.051	116.31
941.221	113.02
941.391	140.14
941.56	64
941.73	66.52
941.899	162.81
942.069	75.24
942.238	109.14
942.408	78.53
942.577	114.57
942.747	76.21
942.916	45.4
943.086	32.61
943.255	117.09
943.425	76.98
943.594	75.04
943.763	14.21
943.933	34.55
944.102	-7.3
944.271	31.26
944.441	52.18
944.61	72.33
944.779	43.08
944.948	157.19
945.117	25.25
945.287	61.48
945.456	-2.07
945.625	30.68
945.794	51.8
945.963	45.21
946.132	91.13
946.301	34.16
946.47	76.98
946.639	24.48
946.808	43.08
946.977	43.85
947.146	93.06
947.315	31.06
947.484	78.73
947.653	60.13
947.822	23.31
947.991	44.82
948.16	127.94
948.329	84.54
948.498	71.75
948.666	69.62
948.835	89.58
949.004	22.54
949.173	26.61
949.341	48.7
949.51	49.08
949.679	90.54
949.847	59.16
950.016	134.14
950.185	88.61
950.353	49.08
950.522	63.03
950.69	90.35
950.859	25.83
951.028	108.37
951.196	62.64
951.365	38.23
951.533	58.77
951.701	95.78
951.87	66.52
952.038	38.62
952.207	54.7
952.375	100.04
952.543	45.21
952.712	38.23
952.88	54.9
953.048	124.84
953.217	67.88
953.385	68.46
953.553	110.31
953.721	20.99
953.89	41.33
954.058	11.5
954.226	47.34
954.394	52.76
954.562	23.9
954.73	34.36
954.898	62.06
955.067	106.04
955.235	35.52
955.403	104.3
955.571	115.34
955.739	81.63
955.907	42.11
956.075	45.01
956.243	5.68
956.41	84.93
956.578	8.59
956.746	34.16
956.914	56.64
957.082	91.32
957.25	85.31
957.418	73.11
957.585	70.78
957.753	138.59
957.921	29.71
958.089	58.19
958.256	49.86
958.424	84.54
958.592	38.23
958.759	40.95
958.927	101.78
959.095	49.47
959.262	90.93
959.43	81.24
959.597	50.44
959.765	69.04
959.932	29.71
960.1	106.24
960.267	70.01
960.435	52.38
960.602	94.81
960.77	37.26
960.937	1.81
961.104	71.75
961.272	23.9
961.439	52.38
961.606	63.03
961.774	100.81
961.941	60.71
962.108	94.61
962.275	50.44
962.443	103.33
962.61	93.84
962.777	132.01
962.944	93.64
963.111	64.97
963.278	94.23
963.446	77.18
963.613	61.87
963.78	114.57
963.947	79.5
964.114	76.79
964.281	147.7
964.448	82.6
964.615	68.26
964.782	81.05
964.949	104.3
965.116	102.75
965.282	118.64
965.449	86.48
965.616	22.93
965.783	95
965.95	96.74
966.117	33.2
966.283	71.17
966.45	82.6
966.617	85.89
966.784	107.79
966.95	122.51
967.117	127.55
967.284	68.46
967.45	58.19
967.617	153.71
967.784	108.18
967.95	146.15
968.117	90.16
968.283	150.22
968.45	210.28
968.616	105.27
968.783	132.39
968.949	126.97
969.116	143.63
969.282	103.72
969.449	140.53
969.615	112.83
969.781	72.14
969.948	112.44
970.114	60.9
970.28	132.78
970.447	109.73
970.613	176.96
970.779	126
970.945	127.94
971.112	118.83
971.278	108.95
971.444	87.64
971.61	154.09
971.776	94.42
971.942	139.95
972.108	120.19
972.275	88.22
972.441	122.71
972.607	159.13
972.773	73.11
972.939	123.48
973.105	95.58
973.271	81.83
973.437	101.2
973.602	67.49
973.768	110.31
973.934	110.89
974.1	109.14
974.266	34.55
974.432	93.45
974.598	94.81
974.763	125.81
974.929	89.38
975.095	145.18
975.261	44.43
975.426	32.61
975.592	90.93
975.758	159.32
975.923	35.13
976.089	55.09
976.255	124.45
976.42	113.41
976.586	116.89
976.751	92.48
976.917	165.52
977.082	123.29
977.248	48.11
977.413	43.85
977.579	74.27
977.744	84.93
977.91	56.25
978.075	90.93
978.24	116.51
978.406	95
978.571	74.85
978.736	62.26
978.902	104.49
979.067	49.66
979.232	38.62
979.397	93.84
979.563	125.61
979.728	58.58
979.893	101.78
980.058	70.01
980.223	107.01
980.388	88.03
980.554	82.6
980.719	84.93
980.884	77.95
981.049	152.16
981.214	73.69
981.379	92.48
981.544	92.48
981.709	76.21
981.874	62.84
982.039	92.48
982.204	89.19
982.368	88.22
982.533	48.11
982.698	114.18
982.863	125.81
983.028	74.85
983.193	67.29
983.357	105.08
983.522	81.05
983.687	64.78
983.852	69.62
984.016	86.48
984.181	92.68
984.346	94.81
984.51	122.32
984.675	92.29
984.839	106.04
985.004	86.86
985.168	134.33
985.333	110.89
985.498	67.88
985.662	115.34
985.827	113.21
985.991	98.49
986.155	84.93
986.32	123.68
986.484	130.07
986.649	90.93
986.813	34.75
986.977	105.08
987.142	102.94
987.306	38.81
987.47	101.59
987.634	68.46
987.799	102.17
987.963	61.48
988.127	117.09
988.291	163.01
988.455	90.54
988.62	85.31
988.784	103.14
988.948	107.4
989.112	58.38
989.276	68.84
989.44	106.82
989.604	94.42
989.768	72.91
989.932	147.51
990.096	57.8
990.26	46.95
990.424	53.54
990.588	100.81
990.752	147.51
990.915	103.53
991.079	93.26
991.243	49.47
991.407	139.95
991.571	84.93
991.734	91.13
991.898	88.61
992.062	163.39
992.226	83.57
992.389	48.11
992.553	28.74
992.717	58.58
992.88	73.69
993.044	93.45
993.207	68.84
993.371	96.55
993.535	89.77
993.698	61.29
993.862	90.16
994.025	96.55
994.189	88.99
994.352	65.55
994.515	69.23
994.679	86.48
994.842	58.38
995.006	106.43
995.169	30.29
995.332	54.7
995.496	120.96
995.659	39.2
995.822	62.45
995.985	72.14
996.149	86.48
996.312	54.31
996.475	121.54
996.638	47.15
996.801	101.98
996.964	147.51
997.128	68.65
997.291	48.5
997.454	76.01
997.617	53.15
997.78	105.08
997.943	36.1
998.106	96.16
998.269	36.49
998.432	86.09
998.595	62.26
998.758	36.3
998.92	30.29
999.083	3.16
999.246	46.76
999.409	36.3
999.572	13.43
999.735	42.11
999.897	63.81
1000.06	65.94
1000.223	48.11
1000.386	98.29
1000.548	60.32
1000.711	59.74
1000.874	82.02
1001.036	24.48
1001.199	69.62
1001.361	58
1001.524	58
1001.687	60.71
1001.849	11.11
1002.012	69.62
1002.174	57.41
1002.337	62.84
1002.499	59.54
1002.661	93.45
1002.824	15.76
1002.986	41.91
1003.149	62.45
1003.311	32.81
1003.473	115.73
1003.636	27.96
1003.798	67.88
1003.96	85.51
1004.123	54.7
1004.285	47.92
1004.447	56.83
1004.609	33.39
1004.771	108.95
1004.933	4.91
1005.096	26.8
1005.258	5.3
1005.42	31.65
1005.582	77.76
1005.744	54.7
1005.906	11.3
1006.068	58.38
1006.23	16.92
1006.392	24.86
1006.554	30.29
1006.716	87.44
1006.878	37.85
1007.04	-11.95
1007.202	25.45
1007.363	31.84
1007.525	69.23
1007.687	57.22
1007.849	84.93
1008.011	24.67
1008.172	-4.78
1008.334	17.5
1008.496	52.96
1008.658	-27.25
1008.819	13.63
1008.981	23.12
1009.143	-5.75
1009.304	21.38
1009.466	50.83
1009.627	56.45
1009.789	115.93
1009.95	71.94
1010.112	11.69
1010.273	48.7
1010.435	24.09
1010.596	30.87
1010.758	11.11
1010.919	22.93
1011.081	2.39
1011.242	32.81
1011.403	49.47
1011.565	70.39
1011.726	66.52
1011.887	2.97
1012.049	39.01
1012.21	57.61
1012.371	78.53
1012.532	-42.75
1012.693	38.81
1012.855	16.15
1013.016	28.74
1013.177	55.48
1013.338	45.98
1013.499	96.16
1013.66	65.16
1013.821	37.26
1013.982	45.4
1014.143	23.7
1014.304	9.95
1014.465	48.31
1014.626	53.54
1014.787	19.63
1014.948	92.29
1015.109	-44.11
1015.27	59.16
1015.431	-7.88
1015.592	6.85
1015.752	90.16
1015.913	33.58
1016.074	64.58
1016.235	24.48
1016.395	55.28
1016.556	31.45
1016.717	27
1016.877	73.11
1017.038	25.83
1017.199	22.35
1017.359	38.04
1017.52	29.32
1017.681	15.37
1017.841	10.91
1018.002	28.35
1018.162	37.07
1018.323	74.66
1018.483	27.96
1018.644	-7.49
1018.804	-4
1018.964	2.78
1019.125	12.85
1019.285	20.41
1019.446	-15.63
1019.606	-14.47
1019.766	-10.4
1019.926	26.61
1020.087	25.25
1020.247	-4.59
1020.407	30.87
1020.567	58.96
1020.728	21.18
1020.888	4.33
1021.048	21.18
1021.208	-2.84
1021.368	-2.07
1021.528	83.76
1021.688	78.14
1021.848	57.41
1022.008	16.15
1022.168	-2.45
1022.328	28.16
1022.488	33.2
1022.648	23.31
1022.808	30.87
1022.968	51.21
1023.128	10.91
1023.288	7.04
1023.448	28.16
1023.608	42.69
1023.767	30.48
1023.927	-6.72
1024.087	-6.72
1024.247	-25.12
1024.406	25.25
1024.566	-29.77
1024.726	-13.69
1024.885	13.24
1025.045	30.68
1025.205	10.72
1025.364	10.91
1025.524	9.75
1025.683	5.3
1025.843	18.28
1026.003	33.97
1026.162	78.73
1026.321	52.57
1026.481	16.34
1026.64	2.2
1026.8	29.51
1026.959	5.1
1027.119	22.35
1027.278	3.16
1027.437	-5.55
1027.597	14.79
1027.756	11.3
1027.915	35.71
1028.074	45.4
1028.234	0.45
1028.393	41.33
1028.552	14.6
1028.711	-50.12
1028.87	50.63
1029.03	-37.72
1029.189	20.41
1029.348	-50.5
1029.507	-8.46
1029.666	-29.38
1029.825	-8.46
1029.984	-22.41
1030.143	29.13
1030.302	-1.1
1030.461	-28.03
1030.62	46.37
1030.779	12.27
1030.938	-9.24
1031.097	-16.21
1031.255	41.72
1031.414	60.51
1031.573	35.91
1031.732	-32.29
1031.891	-3.04
1032.049	39.98
1032.208	38.43
1032.367	-2.07
1032.525	11.5
1032.684	2.58
1032.843	12.66
1033.001	-48.76
1033.16	152.35
1033.319	47.73
1033.477	45.6
1033.636	-4
1033.794	-37.33
1033.953	29.13
1034.111	20.21
1034.27	-11.95
1034.428	18.66
1034.587	-14.27
1034.745	30.48
1034.903	7.23
1035.062	31.84
1035.22	-10.98
1035.378	31.65
1035.537	-34.81
1035.695	15.95
1035.853	7.43
1036.011	12.08
1036.17	30.29
1036.328	-55.93
1036.486	11.69
1036.644	33.39
1036.802	-49.92
1036.96	-13.5
1037.119	7.04
1037.277	-24.35
1037.435	-35.58
1037.593	-18.54
1037.751	3.55
1037.909	22.35
1038.067	22.35
