Data from gum_young_FLMT105791__20__17-38-19-045.txt Node

Date: Mon Mar 20 17:38:19 GMT 2023
User: antho
Spectrometer: FLMT10579
Trigger mode: 0
Integration Time (sec): 1.000000E-1
Scans to average: 10
Electric dark correction enabled: true
Nonlinearity correction enabled: false
Boxcar width: 0
XAxis mode: Wavelengths
Number of Pixels in Spectrum: 3648
>>>>>Begin Spectral Data<<<<<
345.248	-152.43
345.464	-152.43
345.681	-152.43
345.898	-173.74
346.114	-176.84
346.331	-25.72
346.548	14.97
346.764	-17.39
346.981	-2.28
347.197	-18.16
347.414	17.68
347.631	-8.48
347.847	64.57
348.064	-9.25
348.28	36.09
348.497	-34.24
348.713	-17.78
348.93	15.16
349.146	11.29
349.363	4.7
349.579	28.72
349.796	2.18
350.012	-5.18
350.229	18.65
350.445	0.63
350.661	-39.28
350.878	22.14
351.094	4.7
351.311	10.51
351.527	23.1
351.743	-1.31
351.96	29.3
352.176	34.34
352.392	6.64
352.609	43.25
352.825	-2.86
353.041	12.06
353.257	12.84
353.474	19.81
353.69	11.29
353.906	-23.01
354.122	-13.13
354.339	28.34
354.555	-0.53
354.771	-5.57
354.987	36.86
355.203	70.18
355.42	-17.39
355.636	5.09
355.852	-2.08
356.068	16.9
356.284	-12.93
356.5	67.67
356.716	23.88
356.932	10.51
357.148	6.83
357.364	8.57
357.58	36.09
357.796	32.99
358.012	33.57
358.228	66.5
358.444	-39.86
358.66	52.17
358.876	43.45
359.092	-18.94
359.308	10.9
359.524	35.89
359.74	14.39
359.956	-6.73
360.172	13.42
360.388	47.71
360.604	-15.65
360.819	57.59
361.035	7.6
361.251	38.41
361.467	-33.66
361.683	41.32
361.898	44.61
362.114	29.3
362.33	1.21
362.546	39.38
362.762	23.49
362.977	16.52
363.193	-14.68
363.409	30.27
363.624	-12.93
363.84	-10.41
364.056	-24.17
364.271	30.08
364.487	19.04
364.703	7.22
364.918	18.65
365.134	5.47
365.35	0.05
365.565	85.3
365.781	19.62
365.996	7.99
366.212	48.68
366.427	19.42
366.643	2.37
366.858	2.18
367.074	-26.88
367.289	39.38
367.505	105.83
367.72	-27.66
367.936	-16.03
368.151	24.65
368.367	38.41
368.582	15.55
368.798	-15.65
369.013	42.29
369.228	19.42
369.444	8.96
369.659	32.4
369.874	16.71
370.09	66.89
370.305	-24.75
370.52	-0.53
370.736	58.37
370.951	32.02
371.166	51.39
371.381	59.92
371.597	41.12
371.812	-19.52
372.027	-9.83
372.242	34.34
372.458	71.73
372.673	7.8
372.888	7.6
373.103	40.15
373.318	109.9
373.533	32.99
373.749	21.75
373.964	-26.69
374.179	77.74
374.394	-10.61
374.609	64.37
374.824	7.6
375.039	42.48
375.254	6.83
375.469	72.12
375.684	20
375.899	54.69
376.114	19.42
376.329	47.13
376.544	27.95
376.759	68.25
376.974	-8.28
377.189	27.37
377.404	6.05
377.619	57.01
377.834	-43.93
378.049	-21.84
378.264	-1.31
378.478	35.12
378.693	11.09
378.908	39.77
379.123	-2.86
379.338	69.02
379.553	27.95
379.767	15.16
379.982	50.23
380.197	44.8
380.412	5.47
380.626	14.97
380.841	82.58
381.056	27.56
381.271	94.6
381.485	27.17
381.7	-12.35
381.915	40.54
382.129	13.8
382.344	33.95
382.559	5.47
382.773	90.72
382.988	-12.55
383.202	20.59
383.417	6.64
383.632	126.37
383.846	52.75
384.061	23.88
384.275	18.84
384.49	43.64
384.704	26.59
384.919	38.22
385.133	33.76
385.348	24.85
385.562	-31.53
385.777	58.56
385.991	23.88
386.206	25.24
386.42	21.75
386.634	63.79
386.849	25.82
387.063	39.77
387.277	3.73
387.492	20.78
387.706	-22.81
387.92	4.7
388.135	41.12
388.349	35.5
388.563	11.29
388.778	42.09
388.992	32.4
389.206	59.14
389.42	81.03
389.635	20.2
389.849	77.74
390.063	53.33
390.277	10.51
390.491	95.37
390.706	40.15
390.92	52.55
391.134	12.06
391.348	50.04
391.562	-23.39
391.776	14.97
391.99	20.2
392.205	61.66
392.419	4.12
392.633	28.14
392.847	87.82
393.061	0.24
393.275	89.17
393.489	43.25
393.703	23.3
393.917	66.5
394.131	-4.8
394.345	23.1
394.559	72.51
394.773	-0.15
394.986	61.27
395.2	8.77
395.414	40.35
395.628	-11.38
395.842	51.2
396.056	12.25
396.27	-10.8
396.484	64.18
396.697	50.04
396.911	75.03
397.125	46.16
397.339	59.53
397.553	52.17
397.766	89.17
397.98	77.74
398.194	88.4
398.408	45.19
398.621	43.64
398.835	52.36
399.049	58.37
399.262	88.98
399.476	82.58
399.69	92.47
399.903	116.1
400.117	51.78
400.331	65.34
400.544	68.05
400.758	144
400.971	89.37
401.185	92.08
401.398	35.5
401.612	73.48
401.826	90.14
402.039	65.34
402.253	30.27
402.466	76.38
402.68	54.69
402.893	88.2
403.106	69.6
403.32	69.02
403.533	100.02
403.747	71.35
403.96	82.58
404.174	103.51
404.387	31.44
404.6	80.65
404.814	80.45
405.027	60.5
405.24	72.9
405.454	44.22
405.667	122.88
405.88	34.15
406.094	66.31
406.307	115.52
406.52	94.21
406.733	51.97
406.947	44.03
407.16	130.05
407.373	109.13
407.586	44.8
407.799	47.9
408.012	97.7
408.226	75.8
408.439	126.95
408.652	47.32
408.865	94.98
409.078	110.1
409.291	79.1
409.504	33.57
409.717	102.73
409.93	83.75
410.143	67.67
410.357	46.55
410.57	38.41
410.783	67.47
410.996	93.82
411.209	85.3
411.421	96.15
411.634	73.48
411.847	72.7
412.06	84.72
412.273	88.78
412.486	64.37
412.699	170.74
412.912	75.61
413.125	80.26
413.338	75.61
413.55	105.25
413.763	83.94
413.976	112.81
414.189	85.88
414.402	74.83
414.615	131.02
414.827	77.16
415.04	98.47
415.253	131.8
415.466	157.56
415.678	144.2
415.891	88.01
416.104	113.2
416.316	97.12
416.529	61.08
416.742	117.27
416.954	135.87
417.167	73.87
417.38	94.6
417.592	138.77
417.805	74.06
418.017	51.39
418.23	106.42
418.442	91.3
418.655	97.7
418.868	106.61
419.08	130.83
419.293	120.56
419.505	98.28
419.718	129.86
419.93	137.22
420.142	88.59
420.355	129.08
420.567	160.86
420.78	116.49
420.992	104.09
421.205	163.76
421.417	97.12
421.629	101.57
421.842	82.2
422.054	66.12
422.266	133.54
422.479	135.09
422.691	89.37
422.903	138.97
423.115	118.04
423.328	101.38
423.54	127.73
423.752	109.71
423.964	94.21
424.177	151.37
424.389	123.47
424.601	208.13
424.813	136.06
425.025	159.31
425.238	152.72
425.45	94.98
425.662	103.7
425.874	398.59
426.086	95.76
426.298	106.42
426.51	161.05
426.722	126.37
426.934	106.42
427.146	141.68
427.358	86.07
427.57	162.8
427.782	117.07
427.994	132.57
428.206	99.63
428.418	92.47
428.63	154.46
428.842	152.72
429.054	146.33
429.266	155.43
429.478	97.5
429.69	129.28
429.902	107.77
430.114	128.31
430.325	120.75
430.537	119.2
430.749	116.68
430.961	80.65
431.173	116.3
431.384	137.61
431.596	63.6
431.808	126.37
432.02	156.21
432.231	138.97
432.443	173.84
432.655	130.63
432.867	94.21
433.078	152.53
433.29	211.04
433.502	177.52
433.713	160.47
433.925	144.39
434.136	179.65
434.348	103.12
434.56	102.73
434.771	224.21
434.983	119.4
435.194	119.59
435.406	143.03
435.617	192.83
435.829	228.48
436.04	181.01
436.252	188.76
436.463	183.72
436.675	190.31
436.886	181.98
437.098	178.49
437.309	222.86
437.521	167.64
437.732	175.58
437.943	183.14
438.155	178.68
438.366	135.48
438.578	215.88
438.789	178.1
439	175.2
439.211	166.48
439.423	195.73
439.634	188.76
439.845	208.33
440.057	173.06
440.268	211.43
440.479	134.12
440.69	198.06
440.902	176.16
441.113	163.76
441.324	191.86
441.535	185.46
441.746	243.98
441.957	182.95
442.168	192.25
442.38	205.61
442.591	230.41
442.802	189.73
443.013	195.54
443.224	211.81
443.435	181.2
443.646	161.05
443.857	168.8
444.068	176.94
444.279	193.8
444.49	270.13
444.701	207.16
444.912	305.2
445.123	218.4
445.334	242.81
445.545	208.91
445.756	189.73
445.967	178.68
446.178	221.31
446.388	286.02
446.599	248.04
446.81	224.6
447.021	185.66
447.232	263.74
447.443	255.6
447.653	172.87
447.864	265.48
448.075	251.92
448.286	244.56
448.496	233.32
448.707	253.47
448.918	191.66
449.129	302.49
449.339	224.8
449.55	268
449.761	204.06
449.971	270.52
450.182	226.93
450.393	284.47
450.603	243.59
450.814	269.74
451.024	252.5
451.235	274.78
451.446	317.99
451.656	290.67
451.867	265.29
452.077	278.27
452.288	310.43
452.498	319.15
452.709	276.91
452.919	276.72
453.13	243.39
453.34	293.38
453.55	218.01
453.761	291.64
453.971	296.09
454.182	298.81
454.392	307.72
454.602	320.51
454.813	304.62
455.023	323.8
455.233	228.48
455.444	276.53
455.654	235.45
455.864	272.26
456.075	282.34
456.285	271.49
456.495	287.76
456.705	279.63
456.916	306.94
457.126	360.81
457.336	280.79
457.546	242.62
457.756	261.03
457.967	307.14
458.177	273.04
458.387	298.23
458.597	274.01
458.807	302.88
459.017	257.93
459.227	314.31
459.437	258.12
459.647	317.99
459.857	305.2
460.068	276.14
460.278	320.12
460.488	298.81
460.698	362.36
460.908	325.93
461.117	259.28
461.327	272.46
461.537	313.73
461.747	321.09
461.957	313.14
462.167	396.46
462.377	347.05
462.587	303.07
462.797	359.06
463.007	325.16
463.216	349.76
463.426	379.02
463.636	326.71
463.846	287.57
464.056	282.34
464.265	357.71
464.475	309.46
464.685	319.93
464.895	365.65
465.104	334.26
465.314	351.7
465.524	342.21
465.733	315.86
465.943	371.66
466.153	388.12
466.362	364.87
466.572	354.22
466.782	335.04
466.991	356.54
467.201	394.13
467.41	307.14
467.62	362.16
467.829	351.7
468.039	381.92
468.249	350.34
468.458	328.45
468.668	377.27
468.877	392.19
469.086	407.89
469.296	405.76
469.505	359.84
469.715	397.62
469.924	377.47
470.134	425.32
470.343	390.84
470.552	345.11
470.762	389.67
470.971	333.49
471.18	367.39
471.39	367.78
471.599	348.6
471.808	410.41
472.018	363.13
472.227	433.85
472.436	442.76
472.645	394.52
472.855	387.74
473.064	432.88
473.273	401.49
473.482	424.35
473.691	455.74
473.901	444.31
474.11	423
474.319	474.54
474.528	422.42
474.737	498.37
474.946	448.96
475.155	445.47
475.364	497.2
475.573	434.43
475.783	458.65
475.992	474.54
476.201	512.32
476.41	438.69
476.619	417.77
476.828	457.68
477.037	436.56
477.245	464.65
477.454	494.49
477.663	480.35
477.872	461.17
478.081	538.47
478.29	448.77
478.499	542.73
478.708	510.18
478.917	577.22
479.125	497.4
479.334	501.66
479.543	483.64
479.752	512.51
479.961	516.19
480.169	551.65
480.378	487.9
480.587	630.31
480.796	554.55
481.004	526.46
481.213	564.05
481.422	543.7
481.63	560.95
481.839	579.35
482.048	629.34
482.256	567.34
482.465	575.48
482.674	596.21
482.882	593.5
483.091	658.21
483.299	582.45
483.508	598.15
483.716	572.38
483.925	624.69
484.134	582.65
484.342	588.27
484.551	615.97
484.759	628.37
484.967	612.87
485.176	633.8
485.384	611.71
485.593	664.41
485.801	626.63
486.01	627.01
486.218	559.59
486.426	546.61
486.635	554.17
486.843	536.15
487.051	570.44
487.26	569.86
487.468	600.08
487.676	621.78
487.885	613.26
488.093	635.54
488.301	599.7
488.509	645.23
488.717	686.3
488.926	639.41
489.134	645.03
489.342	652.98
489.55	636.9
489.758	673.13
489.967	649.88
490.175	735.9
490.383	666.35
490.591	767.48
490.799	660.92
491.007	727.57
491.215	726.21
491.423	693.86
491.631	709.74
491.839	695.41
492.047	726.99
492.255	664.8
492.463	639.8
492.671	698.51
492.879	767.29
493.087	719.82
493.295	730.86
493.503	765.93
493.711	788.41
493.919	782.01
494.127	787.63
494.334	801.97
494.542	756.83
494.75	782.98
494.958	776.01
495.166	843.04
495.374	814.76
495.581	785.11
495.789	796.54
495.997	852.54
496.205	818.05
496.412	784.14
496.62	787.63
496.828	814.95
497.035	809.72
497.243	836.07
497.451	809.33
497.658	811.66
497.866	840.72
498.074	877.53
498.281	847.11
498.489	922.67
498.696	815.72
498.904	825.8
499.112	840.14
499.319	882.37
499.527	824.64
499.734	927.9
499.942	814.56
500.149	865.13
500.357	884.31
500.564	862.03
500.771	868.04
500.979	854.47
501.186	865.13
501.394	875.79
501.601	869.59
501.808	916.47
502.016	886.05
502.223	875.79
502.43	872.69
502.638	882.37
502.845	842.66
503.052	951.54
503.26	948.44
503.467	985.83
503.674	929.26
503.881	921.51
504.089	985.06
504.296	982.93
504.503	890.51
504.71	964.72
504.917	944.95
505.125	978.67
505.332	970.92
505.539	1000.56
505.746	1018
505.953	1031.17
506.16	1034.27
506.367	1075.93
506.574	1125.14
506.781	1123.01
506.988	1007.15
507.195	1055.78
507.402	1074.76
507.609	1065.46
507.816	1029.43
508.023	1036.4
508.23	1056.16
508.437	1039.5
508.644	1092.78
508.851	1148
509.058	1132.31
509.265	1115.45
509.472	1145.09
509.679	1223.56
509.885	1125.72
510.092	1143.74
510.299	1173.58
510.506	1159.24
510.713	1162.14
510.92	1171.25
511.126	1194.11
511.333	1229.96
511.54	1242.16
511.746	1278.39
511.953	1292.15
512.16	1306.87
512.367	1256.31
512.573	1227.24
512.78	1282.27
512.987	1255.92
513.193	1268.9
513.4	1193.14
513.606	1262.31
513.813	1306.1
514.02	1255.34
514.226	1352.6
514.433	1340.97
514.639	1263.09
514.846	1300.87
515.052	1288.27
515.259	1312.3
515.465	1364.8
515.672	1343.49
515.878	1460.52
516.085	1381.47
516.291	1368.87
516.497	1325.47
516.704	1344.65
516.91	1307.84
517.117	1258.44
517.323	1239.45
517.529	1282.27
517.736	1259.99
517.942	1300.48
518.148	1353.37
518.354	1368.29
518.561	1350.27
518.767	1360.15
518.973	1421.77
519.179	1440.75
519.386	1405.3
519.592	1395.03
519.798	1422.54
520.004	1564.36
520.21	1504.88
520.417	1575.79
520.623	1606.21
520.829	1601.37
521.035	1618.81
521.241	1586.06
521.447	1630.43
521.653	1727.11
521.859	1634.69
522.065	1664.72
522.271	1730.6
522.477	1722.27
522.683	1767.99
522.889	1728.85
523.095	1721.88
523.301	1697.47
523.507	1682.16
523.713	1684.29
523.919	1687.39
524.125	1783.69
524.331	1797.25
524.537	1855.57
524.742	1845.88
524.948	1831.93
525.154	1882.11
525.36	1921.63
525.566	1884.43
525.772	1931.71
525.977	1801.9
526.183	1898.19
526.389	1890.05
526.595	1816.43
526.8	1857.31
527.006	1760.05
527.212	1709.09
527.417	1744.35
527.623	1755.79
527.829	1831.35
528.034	1842.39
528.24	1845.3
528.446	1855.37
528.651	1936.75
528.857	1942.36
529.062	2034.39
529.268	2005.53
529.473	2019.09
529.679	1995.06
529.884	2121.39
530.09	2052.8
530.295	2065.01
530.501	2102.98
530.706	2084.96
530.912	2045.83
531.117	2102.79
531.323	2088.84
531.528	2146.57
531.733	2158.01
531.939	2136.5
532.144	2126.62
532.35	2144.25
532.555	2160.33
532.76	2111.89
532.966	2109.57
533.171	2072.18
533.376	2041.95
533.581	2037.88
533.787	2060.55
533.992	2170.02
534.197	2154.32
534.402	2126.23
534.607	2175.05
534.813	2272.12
535.018	2121
535.223	2142.89
535.428	2199.66
535.633	2258.95
535.838	2233.95
536.043	2265.73
536.249	2320.95
536.454	2290.53
536.659	2241.9
536.864	2234.92
537.069	2237.64
537.274	2226.2
537.479	2205.86
537.684	2269.41
537.889	2202.37
538.094	2354.46
538.299	2271.54
538.504	2345.36
538.708	2288.4
538.913	2325.6
539.118	2308.74
539.323	2349.43
539.528	2274.83
539.733	2237.44
539.938	2272.32
540.142	2279.29
540.347	2254.49
540.552	2264.37
540.757	2202.95
540.962	2241.32
541.166	2215.55
541.371	2214.19
541.576	2260.88
541.781	2147.74
541.985	2280.45
542.19	2254.88
542.395	2360.08
542.599	2391.08
542.804	2300.41
543.008	2353.3
543.213	2290.33
543.418	2278.32
543.622	2359.7
543.827	2289.56
544.031	2370.74
544.236	2359.5
544.44	2356.79
544.645	2431.38
544.849	2329.28
545.054	2434.09
545.258	2424.21
545.463	2424.21
545.667	2347.88
545.872	2397.48
546.076	2388.76
546.281	2421.89
546.485	2406.39
546.689	2387.98
546.894	2409.88
547.098	2394.18
547.302	2388.76
547.507	2380.62
547.711	2429.25
547.915	2441.26
548.119	2355.05
548.324	2395.93
548.528	2456.96
548.732	2383.72
548.936	2448.82
549.141	2444.56
549.345	2418.01
549.549	2433.71
549.753	2448.82
549.957	2520.31
550.161	2473.62
550.366	2454.05
550.57	2415.5
550.774	2431.19
550.978	2468.78
551.182	2464.9
551.386	2464.9
551.59	2434.48
551.794	2441.65
551.998	2475.56
552.202	2449.21
552.406	2405.03
552.61	2495.9
552.814	2483.5
553.018	2494.54
553.222	2453.66
553.426	2460.83
553.63	2519.15
553.833	2460.06
554.037	2407.55
554.241	2462.58
554.445	2530.77
554.649	2493.19
554.853	2412.4
555.056	2479.43
555.26	2492.22
555.464	2454.44
555.668	2434.09
555.871	2508.69
556.075	2472.46
556.279	2464.51
556.483	2400.77
556.686	2408.33
556.89	2420.15
557.094	2459.67
557.297	2363.57
557.501	2416.85
557.704	2324.24
557.908	2411.62
558.112	2348.46
558.315	2413.17
558.519	2413.95
558.722	2385.08
558.926	2354.66
559.129	2271.54
559.333	2281.81
559.536	2257.4
559.74	2272.12
559.943	2268.63
560.147	2228.14
560.35	2276.38
560.553	2343.42
560.757	2269.02
560.96	2338.38
561.164	2294.6
561.367	2397.67
561.57	2321.14
561.774	2308.16
561.977	2272.9
562.18	2259.72
562.384	2375
562.587	2277.93
562.79	2257.78
562.993	2282.78
563.197	2291.11
563.4	2362.21
563.603	2325.21
563.806	2359.7
564.009	2245.19
564.212	2294.21
564.416	2195.2
564.619	2243.45
564.822	2194.82
565.025	2249.84
565.228	2216.32
565.431	2252.55
565.634	2156.46
565.837	2154.13
566.04	2157.04
566.243	2137.86
566.446	2082.83
566.649	2195.79
566.852	2076.82
567.055	2127.78
567.258	2138.63
567.461	2199.85
567.664	2187.45
567.867	2092.32
568.07	2117.51
568.273	2130.49
568.475	2182.03
568.678	2091.36
568.881	2089.61
569.084	2080.31
569.287	2000.1
569.489	1998.36
569.692	2050.28
569.895	2055.32
570.098	1966.58
570.3	1981.5
570.503	1936.94
570.706	1920.08
570.909	1949.15
571.111	1889.86
571.314	1890.05
571.516	1911.56
571.719	1887.73
571.922	1873
572.124	1910.01
572.327	1936.16
572.529	1858.67
572.732	1937.52
572.935	1908.26
573.137	1997.78
573.34	1894.32
573.542	1932.29
573.745	1896.25
573.947	1934.23
574.15	1881.92
574.352	1860.22
574.554	1923.18
574.757	1866.42
574.959	1845.49
575.162	1859.25
575.364	1814.88
575.566	1921.05
575.769	1822.24
575.971	1788.72
576.173	1728.47
576.376	1836.38
576.578	1816.23
576.78	1818.56
576.982	1755.4
577.185	1808.1
577.387	1772.06
577.589	1770.51
577.791	1802.09
577.993	1817.4
578.196	1763.92
578.398	1784.85
578.6	1789.89
578.802	1735.25
579.004	1711.42
579.206	1715.49
579.408	1761.99
579.61	1723.62
579.812	1758.11
580.014	1754.24
580.216	1771.09
580.418	1747.84
580.62	1708.51
580.822	1729.24
581.024	1755.01
581.226	1793.18
581.428	1742.22
581.63	1843.36
581.832	1741.45
582.034	1810.81
582.236	1781.55
582.438	1837.55
582.64	1824.37
582.841	1829.99
583.043	1835.61
583.245	1806.55
583.447	1809.07
583.649	1792.6
583.85	1821.27
584.052	1812.17
584.254	1734.47
584.456	1799.19
584.657	1733.5
584.859	1750.17
585.061	1739.12
585.262	1750.36
585.464	1702.51
585.666	1747.45
585.867	1714.52
586.069	1755.01
586.27	1772.25
586.472	1733.31
586.674	1697.86
586.875	1687.97
587.077	1713.55
587.278	1753.46
587.48	1722.07
587.681	1810.81
587.883	1723.62
588.084	1623.26
588.285	1650.39
588.487	1668.6
588.688	1651.55
588.89	1570.18
589.091	1514.76
589.292	1521.93
589.494	1481.44
589.695	1462.65
589.896	1400.84
590.098	1432.03
590.299	1461.48
590.5	1459.93
590.702	1510.89
590.903	1492.87
591.104	1533.95
591.305	1568.43
591.507	1588.78
591.708	1577.73
591.909	1531.43
592.11	1615.51
592.311	1575.21
592.512	1539.56
592.714	1494.23
592.915	1555.45
593.116	1567.85
593.317	1582.96
593.518	1563.98
593.719	1560.29
593.92	1559.71
594.121	1599.04
594.322	1576.57
594.523	1570.37
594.724	1505.85
594.925	1535.88
595.126	1523.87
595.327	1548.86
595.528	1529.1
595.729	1530.85
595.929	1540.53
596.13	1550.41
596.331	1538.6
596.532	1534.91
596.733	1637.41
596.934	1592.26
597.135	1558.16
597.335	1604.66
597.536	1534.91
597.737	1566.69
597.938	1523.29
598.138	1545.96
598.339	1575.99
598.54	1580.83
598.74	1523.68
598.941	1538.98
599.142	1595.56
599.342	1562.43
599.543	1528.71
599.744	1531.04
599.944	1522.71
600.145	1529.49
600.345	1554.87
600.546	1630.24
600.746	1567.08
600.947	1600.98
601.147	1562.23
601.348	1585.48
601.548	1502.75
601.749	1558.74
601.949	1503.91
602.15	1468.65
602.35	1520.96
602.551	1560.68
602.751	1490.35
602.951	1520.77
603.152	1475.05
603.352	1521.55
603.552	1521.74
603.753	1557
603.953	1581.22
604.153	1547.51
604.354	1537.43
604.554	1524.06
604.754	1534.72
604.954	1507.6
605.155	1533.75
605.355	1513.21
605.555	1542.08
605.755	1598.27
605.955	1538.98
606.155	1555.84
606.356	1539.37
606.556	1578.7
606.756	1504.88
606.956	1477.76
607.156	1603.11
607.356	1468.46
607.556	1526.78
607.756	1516.12
607.956	1535.88
608.156	1507.98
608.356	1466.33
608.556	1562.62
608.756	1492.48
608.956	1514.18
609.156	1499.26
609.356	1473.3
609.556	1448.89
609.755	1493.65
609.955	1431.84
610.155	1468.07
610.355	1492.1
610.555	1401.81
610.755	1441.14
610.954	1389.8
611.154	1495.2
611.354	1483.38
611.554	1446.18
611.753	1452.77
611.953	1420.41
612.153	1447.53
612.352	1444.63
612.552	1380.88
612.752	1364.61
612.951	1434.94
613.151	1432.62
613.351	1403.36
613.55	1413.43
613.75	1434.75
613.949	1403.75
614.149	1421.96
614.348	1386.12
614.548	1394.45
614.747	1331.48
614.947	1380.11
615.146	1320.05
615.346	1381.85
615.545	1420.6
615.745	1416.34
615.944	1402.2
616.144	1388.25
616.343	1396.38
616.542	1378.17
616.742	1352.79
616.941	1317.92
617.14	1277.23
617.34	1319.08
617.539	1304.55
617.738	1287.31
617.938	1371.97
618.137	1328.19
618.336	1282.66
618.535	1347.75
618.734	1337.1
618.934	1353.57
619.133	1306.49
619.332	1342.14
619.531	1292.73
619.73	1332.25
619.929	1368.1
620.128	1348.72
620.328	1362.29
620.527	1283.62
620.726	1297.96
620.925	1345.43
621.124	1304.16
621.323	1318.5
621.522	1266.96
621.721	1278.78
621.92	1271.22
622.119	1300.09
622.318	1267.35
622.517	1281.88
622.715	1238.09
622.914	1216.2
623.113	1264.44
623.312	1197.41
623.511	1285.56
623.71	1241.58
623.909	1243.91
624.107	1308.04
624.306	1188.49
624.505	1202.64
624.704	1197.21
624.902	1213.29
625.101	1248.56
625.3	1238.29
625.499	1178.42
625.697	1181.91
625.896	1171.64
626.095	1202.64
626.293	1145.87
626.492	1168.54
626.69	1228.6
626.889	1207.29
627.088	1241.58
627.286	1194.69
627.485	1148.58
627.683	1165.24
627.882	1164.86
628.08	1109.83
628.279	1141.22
628.477	1194.31
628.676	1123.01
628.874	1167.38
629.073	1124.17
629.271	1114.87
629.469	1135.6
629.668	1096.27
629.866	1115.64
630.065	1099.76
630.263	1123.01
630.461	1112.74
630.66	1128.43
630.858	1143.54
631.056	1186.94
631.254	1187.53
631.453	1092.98
631.651	1159.24
631.849	1132.5
632.047	1124.17
632.245	1127.66
632.444	1163.69
632.642	1165.24
632.84	1173.77
633.038	1138.89
633.236	1119.71
633.434	1129.21
633.632	1137.34
633.83	1105.57
634.028	1158.27
634.227	1181.13
634.425	1230.15
634.623	1184.23
634.821	1148
635.019	1157.49
635.216	1129.21
635.414	1185.98
635.612	1148.78
635.81	1161.95
636.008	1198.76
636.206	1157.88
636.404	1145.68
636.602	1123.59
636.8	1183.65
636.997	1169.12
637.195	1133.86
637.393	1161.37
637.591	1175.13
637.789	1157.88
637.986	1139.67
638.184	1146.45
638.382	1206.71
638.58	1197.02
638.777	1217.75
638.975	1145.48
639.173	1120.88
639.37	1132.89
639.568	1150.52
639.765	1147.42
639.963	1105.38
640.161	1127.46
640.358	1138.12
640.556	1101.5
640.753	1085.42
640.951	1074.96
641.148	1087.94
641.346	1027.88
641.543	1079.8
641.741	1083.29
641.938	1060.43
642.136	1058.68
642.333	1045.51
642.531	1131.53
642.728	1130.76
642.925	1082.71
643.123	1055.2
643.32	1073.02
643.517	1063.53
643.715	1064.88
643.912	1029.23
644.109	1086
644.306	1060.62
644.504	1005.79
644.701	1053.26
644.898	1067.21
645.095	981.77
645.293	1027.68
645.49	1021.87
645.687	995.33
645.884	1014.7
646.081	974.6
646.278	995.13
646.475	980.99
646.672	968.2
646.87	981.38
647.067	956.77
647.264	968.01
647.461	913.76
647.658	916.09
647.855	991.45
648.052	928.1
648.249	862.61
648.446	908.34
648.642	912.6
648.839	894.97
649.036	850.02
649.233	846.72
649.43	859.9
649.627	848.27
649.824	863.77
650.021	882.37
650.217	858.15
650.414	859.51
650.611	896.52
650.808	876.95
651.004	883.73
651.201	927.52
651.398	939.92
651.595	910.47
651.791	893.42
651.988	889.35
652.185	849.24
652.381	900.2
652.578	811.46
652.775	848.08
652.971	865.71
653.168	862.42
653.364	885.67
653.561	798.29
653.757	841.49
653.954	879.85
654.15	835.49
654.347	924.61
654.543	854.28
654.74	809.52
654.936	829.87
655.133	831.81
655.329	849.24
655.525	813.4
655.722	869.78
655.918	758.38
656.115	781.62
656.311	754.31
656.507	717.69
656.704	692.69
656.9	720.79
657.096	751.01
657.292	706.06
657.489	778.33
657.685	790.15
657.881	769.61
658.077	779.3
658.273	795.57
658.47	822.7
658.666	810.11
658.862	809.52
659.058	790.15
659.254	829.87
659.45	758.76
659.646	806.62
659.842	769.81
660.038	844.01
660.234	758.18
660.43	790.15
660.626	859.51
660.822	833.55
661.018	822.51
661.214	792.67
661.41	768.84
661.606	801.97
661.802	804.29
661.998	767.67
662.194	730.48
662.39	815.92
662.586	817.66
662.781	775.42
662.977	802.74
663.173	792.47
663.369	743.65
663.564	782.79
663.76	802.94
663.956	750.82
664.152	782.01
664.347	709.16
664.543	766.12
664.739	772.52
664.934	691.73
665.13	687.66
665.326	739.97
665.521	743.46
665.717	687.85
665.912	708.78
666.108	650.26
666.304	704.9
666.499	689.98
666.695	634.38
666.89	697.54
667.086	730.86
667.281	730.48
667.477	730.86
667.672	687.85
667.867	695.41
668.063	683.2
668.258	690.37
668.454	694.44
668.649	741.33
668.844	682.62
669.04	718.66
669.235	672.35
669.43	667.12
669.626	630.89
669.821	626.43
670.016	626.82
670.211	665.18
670.407	615.97
670.602	664.21
670.797	665.18
670.992	675.45
671.187	632.44
671.382	697.34
671.578	635.15
671.773	658.79
671.968	621.2
672.163	636.12
672.358	690.56
672.553	616.75
672.748	667.9
672.943	714.59
673.138	636.31
673.333	644.65
673.528	601.44
673.723	654.91
673.918	618.3
674.113	609
674.308	704.9
674.503	657.43
674.698	637.86
674.892	660.53
675.087	634.38
675.282	642.71
675.477	618.1
675.672	625.46
675.867	630.11
676.061	595.63
676.256	608.61
676.451	585.75
676.646	629.73
676.84	583.42
677.035	615.39
677.23	600.66
677.424	669.83
677.619	677
677.814	652.2
678.008	656.46
678.203	587.1
678.397	608.61
678.592	627.79
678.787	687.46
678.981	602.02
679.176	626.05
679.37	621.4
679.565	593.11
679.759	610.55
679.954	635.93
680.148	690.76
680.342	656.08
680.537	634.18
680.731	589.62
680.926	651.04
681.12	665.38
681.314	598.53
681.509	612.29
681.703	652.2
681.897	623.53
682.092	610.74
682.286	618.3
682.48	701.03
682.674	636.51
682.869	663.05
683.063	625.85
683.257	702.58
683.451	637.67
683.645	659.76
683.839	625.08
684.034	615.78
684.228	690.37
684.422	631.28
684.616	600.86
684.81	675.26
685.004	660.73
685.198	645.61
685.392	705.48
685.586	663.44
685.78	709.55
685.974	719.24
686.168	683.01
686.362	745.98
686.556	660.92
686.75	633.21
686.944	634.96
687.138	605.51
687.331	531.69
687.525	540.02
687.719	497.79
687.913	563.27
688.107	571.99
688.301	562.5
688.494	603.76
688.688	553.39
688.882	547.38
689.076	532.08
689.269	583.23
689.463	644.26
689.657	611.13
689.85	587.88
690.044	660.34
690.238	635.35
690.431	667.12
690.625	664.6
690.818	697.73
691.012	689.98
691.205	765.16
691.399	714.59
691.593	762.64
691.786	819.21
691.98	793.64
692.173	858.54
692.366	825.61
692.56	864.16
692.753	894.97
692.947	824.25
693.14	896.32
693.333	913.37
693.527	888.57
693.72	913.76
693.914	892.84
694.107	887.8
694.3	934.88
694.493	943.02
694.687	999.2
694.88	931.2
695.073	1007.92
695.266	988.93
695.46	1037.95
695.653	1044.93
695.846	1077.48
696.039	1005.79
696.232	1078.45
696.425	1126.3
696.618	1174.35
696.812	1140.83
697.005	1209.81
697.198	1288.66
697.391	1203.61
697.584	1282.46
697.777	1315.2
697.97	1292.73
698.163	1310.17
698.356	1301.25
698.549	1347.95
698.742	1358.8
698.935	1326.25
699.127	1353.76
699.32	1309.59
699.513	1334.39
699.706	1321.99
699.899	1385.53
700.092	1358.41
700.285	1424.09
700.477	1340.2
700.67	1426.8
700.863	1412.47
701.056	1533.36
701.248	1492.1
701.441	1496.16
701.634	1486.86
701.826	1558.36
702.019	1446.76
702.212	1538.4
702.404	1473.88
702.597	1505.46
702.79	1523.87
702.982	1556.03
703.175	1618.03
703.367	1605.44
703.56	1619
703.752	1700.37
703.945	1684.49
704.137	1717.81
704.33	1701.92
704.522	1720.33
704.715	1756.17
704.907	1783.1
705.1	1836.38
705.292	1804.42
705.484	1777.29
705.677	1836
705.869	1852.66
706.061	1847.23
706.254	1881.92
706.446	1855.76
706.638	1876.68
706.831	1947.4
707.023	1881.92
707.215	2005.72
707.407	2013.66
707.599	1949.73
707.792	2031.88
707.984	1948.18
708.176	2073.14
708.368	2022.77
708.56	2037.88
708.752	2055.51
708.944	2059.97
709.136	2062.88
709.329	2054.35
709.521	2194.62
709.713	2158.01
709.905	2157.23
710.097	2212.84
710.289	2119.84
710.481	2178.74
710.672	2177.77
710.864	2207.6
711.056	2248.29
711.248	2235.31
711.44	2251
711.632	2252.94
711.824	2294.4
712.016	2319.78
712.207	2334.32
712.399	2314.75
712.591	2386.82
712.783	2359.7
712.975	2329.08
713.166	2328.5
713.358	2351.17
713.55	2442.81
713.741	2377.52
713.933	2389.53
714.125	2410.07
714.316	2404.84
714.508	2400
714.7	2424.8
714.891	2415.5
715.083	2503.46
715.274	2386.05
715.466	2451.53
715.657	2447.46
715.849	2384.69
716.04	2418.98
716.232	2337.61
716.423	2364.15
716.615	2304.67
716.806	2276.97
716.998	2169.82
717.189	2136.31
717.381	2067.91
717.572	2007.66
717.763	2016.76
717.955	1991.58
718.146	1992.93
718.337	1877.65
718.528	1857.5
718.72	1805.77
718.911	1875.91
719.102	1796.67
719.293	1843.75
719.485	1828.25
719.676	1775.94
719.867	1751.33
720.058	1771.09
720.249	1787.56
720.44	1782.33
720.632	1842.58
720.823	1949.15
721.014	2024.51
721.205	2039.24
721.396	2129.52
721.587	2215.55
721.778	2264.76
721.969	2291.5
722.16	2352.14
722.351	2386.24
722.542	2483.11
722.733	2504.04
722.924	2417.24
723.115	2442.23
723.305	2447.85
723.496	2428.86
723.687	2328.12
723.878	2312.03
724.069	2315.91
724.26	2324.82
724.45	2228.92
724.641	2242.48
724.832	2253.91
725.023	2232.4
725.213	2267.67
725.404	2208.19
725.595	2211.29
725.785	2218.45
725.976	2313.78
726.167	2270.77
726.357	2281.42
726.548	2353.5
726.739	2272.12
726.929	2366.09
727.12	2375.78
727.31	2380.23
727.501	2347.88
727.691	2328.5
727.882	2385.66
728.072	2403.87
728.263	2410.46
728.453	2445.33
728.644	2458.51
728.834	2432.93
729.024	2406
729.215	2408.71
729.405	2437.39
729.596	2535.04
729.786	2525.93
729.976	2526.9
730.167	2526.32
730.357	2471.68
730.547	2518.57
730.737	2583.67
730.928	2589.48
731.118	2572.82
731.308	2528.26
731.498	2573.4
731.688	2690.81
731.879	2677.64
732.069	2740.02
732.259	2733.24
732.449	2764.63
732.639	2847.75
732.829	2873.71
733.019	2920.21
733.209	2995.57
733.399	2988.99
733.589	3055.25
733.779	3062.03
733.969	3106.4
734.159	3155.42
734.349	3213.35
734.539	3245.31
734.729	3236.98
734.919	3222.84
735.109	3253.45
735.299	3241.05
735.488	3260.81
735.678	3262.95
735.868	3267.98
736.058	3262.95
736.248	3247.25
736.437	3231.95
736.627	3216.06
736.817	3362.73
737.007	3305.57
737.196	3341.22
737.386	3290.46
737.576	3294.33
737.765	3349.36
737.955	3274.57
738.144	3466.57
738.334	3381.13
738.524	3352.46
738.713	3386.17
738.903	3377.64
739.092	3405.93
739.282	3394.11
739.471	3408.64
739.661	3413.49
739.85	3479.94
740.04	3442.74
740.229	3471.03
740.419	3519.85
740.608	3525.09
740.797	3517.34
740.987	3558.41
741.176	3565.77
741.365	3570.03
741.555	3498.93
741.744	3589.02
741.933	3521.99
742.123	3606.07
742.312	3596.58
742.501	3618.47
742.69	3589.02
742.88	3558.99
743.069	3682.02
743.258	3638.62
743.447	3679.89
743.636	3652.57
743.825	3650.83
744.014	3635.33
744.204	3685.51
744.393	3619.83
744.582	3741.31
744.771	3710.5
744.96	3704.3
745.149	3691.51
745.338	3701.01
745.527	3748.28
745.716	3729.88
745.905	3689
746.094	3773.47
746.283	3745.38
746.471	3720.96
746.66	3764.56
746.849	3761.07
747.038	3772.31
747.227	3713.8
747.416	3752.16
747.604	3718.45
747.793	3747.51
747.982	3750.41
748.171	3763.01
748.359	3740.92
748.548	3742.08
748.737	3732.98
748.926	3724.45
749.114	3625.83
749.303	3710.5
749.491	3732.2
749.68	3646.95
749.869	3735.11
750.057	3706.82
750.246	3678.92
750.434	3633.97
750.623	3738.79
750.811	3647.15
751	3703.53
751.188	3664.78
751.377	3635.13
751.565	3638.23
751.754	3648.31
751.942	3593.67
752.131	3681.05
752.319	3611.5
752.507	3606.85
752.696	3637.65
752.884	3638.82
753.072	3639.98
753.261	3628.16
753.449	3627.38
753.637	3647.92
753.825	3638.82
754.014	3605.1
754.202	3617.12
754.39	3623.7
754.578	3692.87
754.766	3602.78
754.955	3552.6
755.143	3630.68
755.331	3630.48
755.519	3628.16
755.707	3583.02
755.895	3595.42
756.083	3603.36
756.271	3521.02
756.459	3546.01
756.647	3586.31
756.835	3582.05
757.023	3545.04
757.211	3503.58
757.399	3491.18
757.587	3487.69
757.775	3464.44
757.963	3481.88
758.151	3516.37
758.339	3400.12
758.526	3445.26
758.714	3449.33
758.902	3345.29
759.09	3235.43
759.278	3052.54
759.465	2777.8
759.653	2420.73
759.841	2196.37
760.028	1886.57
760.216	1654.26
760.404	1538.4
760.591	1241.39
760.779	1011.8
760.967	922.48
761.154	727.96
761.342	804.68
761.529	788.41
761.717	804.49
761.905	827.35
762.092	877.72
762.28	774.26
762.467	809.52
762.655	736.09
762.842	751.4
763.029	773.29
763.217	768.26
763.404	752.18
763.592	769.81
763.779	790.73
763.966	833.36
764.154	855.64
764.341	914.15
764.528	912.99
764.716	969.95
764.903	1028.46
765.09	1097.63
765.277	1124.94
765.465	1287.5
765.652	1388.05
765.839	1451.8
766.026	1601.37
766.213	1632.37
766.4	1745.71
766.588	1947.98
766.775	1922.99
766.962	2119.26
767.149	2142.31
767.336	2339.35
767.523	2276.97
767.71	2452.5
767.897	2557.51
768.084	2608.47
768.271	2697.59
768.458	2722.39
768.645	2806.86
768.832	2823.33
769.019	2869.44
769.206	2854.91
769.392	2945.01
769.579	3011.85
769.766	3004.49
769.953	2968.45
770.14	3035.68
770.327	3060.29
770.513	3065.32
770.7	3202.11
770.887	3049.63
771.073	3121.32
771.26	3114.92
771.447	3069.97
771.634	3098.07
771.82	3183.51
772.007	3021.73
772.193	3131.58
772.38	3156
772.567	3110.66
772.753	3113.57
772.94	3145.53
773.126	3174.6
773.313	3164.72
773.499	3139.53
773.686	3205.98
773.872	3076.37
774.059	3094.77
774.245	3106.01
774.432	3120.15
774.618	3038.39
774.804	3101.36
774.991	3056.8
775.177	3121.51
775.363	3051.18
775.55	3114.54
775.736	3030.64
775.922	3071.33
776.109	3046.34
776.295	3040.52
776.481	3056.6
776.667	3138.56
776.853	3044.79
777.04	3016.31
777.226	3049.24
777.412	3120.54
777.598	3056.02
777.784	3005.07
777.97	2982.59
778.156	3037.42
778.342	3019.79
778.528	2992.28
778.715	2947.14
778.901	2927.18
779.087	2995.19
779.272	2965.35
779.458	2936.29
779.644	2969.03
779.83	2940.94
780.016	3021.73
780.202	2936.09
780.388	2955.27
780.574	2864.02
780.76	2941.13
780.946	2890.37
781.131	2929.12
781.317	2914.59
781.503	2899.09
781.689	2885.14
781.874	2952.37
782.06	2869.83
782.246	2914.01
782.432	2867.12
782.617	2874.48
782.803	2924.86
782.989	2802.41
783.174	2863.83
783.36	2771.41
783.545	2805.7
783.731	2811.51
783.916	2748.16
784.102	2807.64
784.288	2791.95
784.473	2824.5
784.659	2776.45
784.844	2866.73
785.029	2749.13
785.215	2758.23
785.4	2716.58
785.586	2822.75
785.771	2717.74
785.956	2835.93
786.142	2740.6
786.327	2742.93
786.512	2702.43
786.698	2647.41
786.883	2587.35
787.068	2674.92
787.254	2668.92
787.439	2649.74
787.624	2649.15
787.809	2614.47
787.994	2583.47
788.18	2662.52
788.365	2617.77
788.55	2606.34
788.735	2587.16
788.92	2554.41
789.105	2590.26
789.29	2590.45
789.475	2522.83
789.66	2544.72
789.845	2508.88
790.03	2479.63
790.215	2554.8
790.4	2538.91
790.585	2585.99
790.77	2508.11
790.955	2475.94
791.14	2507.14
791.325	2547.63
791.51	2449.01
791.695	2500.74
791.879	2507.33
792.064	2435.06
792.249	2522.44
792.434	2444.17
792.618	2462.19
792.803	2511.98
792.988	2499.58
793.173	2474.01
793.357	2523.22
793.542	2467.81
793.727	2498.42
793.911	2573.59
794.096	2516.24
794.281	2555.57
794.465	2560.81
794.65	2494.16
794.834	2559.26
795.019	2557.32
795.203	2561.19
795.388	2573.01
795.572	2555.77
795.757	2569.33
795.941	2550.15
796.126	2496.29
796.31	2492.8
796.494	2505.98
796.679	2515.66
796.863	2481.18
797.048	2600.14
797.232	2524.38
797.416	2519.15
797.601	2512.95
797.785	2623
797.969	2545.11
798.153	2504.04
798.338	2549.57
798.522	2598.2
798.706	2592.39
798.89	2584.44
799.074	2673.76
799.258	2641.6
799.443	2574.76
799.627	2583.47
799.811	2599.36
799.995	2567.97
800.179	2522.06
800.363	2538.33
800.547	2573.79
800.731	2589.67
800.915	2477.3
801.099	2505.59
801.283	2527.48
801.467	2526.9
801.651	2524.96
801.835	2554.61
802.019	2511.01
802.202	2560.61
802.386	2484.47
802.57	2509.85
802.754	2480.4
802.938	2480.4
803.121	2487.38
803.305	2552.09
803.489	2520.7
803.673	2546.27
803.856	2545.89
804.04	2505.01
804.224	2537.17
804.407	2515.47
804.591	2516.44
804.775	2521.67
804.958	2542.98
805.142	2585.02
805.326	2529.81
805.509	2561.77
805.693	2552.09
805.876	2576.89
806.06	2561.39
806.243	2595.49
806.427	2605.17
806.61	2610.99
806.794	2548.99
806.977	2603.82
807.16	2589.29
807.344	2558.29
807.527	2530
807.71	2566.04
807.894	2532.71
808.077	2587.54
808.26	2536.39
808.444	2527.09
808.627	2549.57
808.81	2527.29
808.993	2461.41
809.177	2406.39
809.36	2476.14
809.543	2475.17
809.726	2362.21
809.909	2378.68
810.092	2364.93
810.276	2426.15
810.459	2369.96
810.642	2368.8
810.825	2326.18
811.008	2332.57
811.191	2263.02
811.374	2240.93
811.557	2298.86
811.74	2357.95
811.923	2205.28
812.106	2206.64
812.289	2154.71
812.472	2212.84
812.654	2155.68
812.837	2135.72
813.02	2093.49
813.203	2057.84
813.386	1946.43
813.569	1945.08
813.751	1910.01
813.934	1950.5
814.117	1940.43
814.3	1873.58
814.482	1819.53
814.665	1796.47
814.848	1741.84
815.03	1698.63
815.213	1684.1
815.396	1662.79
815.578	1644.57
815.761	1631.79
815.943	1708.12
816.126	1612.8
816.309	1554.48
816.491	1516.12
816.674	1461.1
816.856	1535.69
817.039	1501.2
817.221	1561.46
817.403	1560.29
817.586	1524.45
817.768	1543.63
817.951	1450.63
818.133	1455.09
818.315	1533.75
818.498	1536.46
818.68	1593.23
818.862	1540.34
819.045	1585.29
819.227	1543.83
819.409	1560.1
819.591	1583.93
819.774	1571.34
819.956	1532.98
820.138	1614.74
820.32	1595.94
820.502	1658.72
820.684	1741.64
820.866	1726.53
821.048	1805.58
821.231	1756.95
821.413	1783.1
821.595	1773.22
821.777	1783.3
821.959	1743.39
822.141	1817.01
822.323	1697.08
822.505	1600.59
822.686	1589.74
822.868	1506.63
823.05	1367.9
823.232	1386.7
823.414	1322.95
823.596	1420.8
823.778	1372.94
823.96	1408.98
824.141	1432.42
824.323	1420.41
824.505	1509.92
824.687	1548.28
824.868	1629.85
825.05	1691.46
825.232	1721.88
825.413	1778.65
825.595	1728.85
825.777	1653.87
825.958	1713.36
826.14	1716.26
826.321	1764.89
826.503	1724.21
826.685	1739.7
826.866	1741.64
827.048	1781.55
827.229	1692.62
827.411	1650.39
827.592	1613.77
827.773	1617.64
827.955	1548.48
828.136	1590.71
828.318	1517.28
828.499	1617.64
828.68	1513.21
828.862	1528.52
829.043	1553.71
829.224	1563.2
829.406	1488.03
829.587	1551
829.768	1538.21
829.949	1532.4
830.131	1533.17
830.312	1618.81
830.493	1548.86
830.674	1585.09
830.855	1531.04
831.036	1563.98
831.218	1620.36
831.399	1623.46
831.58	1565.14
831.761	1556.03
831.942	1584.9
832.123	1528.13
832.304	1525.61
832.485	1533.17
832.666	1525.61
832.847	1557.78
833.028	1533.36
833.209	1570.95
833.389	1538.6
833.57	1498.49
833.751	1538.21
833.932	1553.32
834.113	1568.63
834.294	1511.66
834.475	1621.91
834.655	1609.31
834.836	1615.32
835.017	1596.14
835.198	1557.39
835.378	1568.43
835.559	1659.69
835.74	1581.03
835.92	1583.93
836.101	1576.57
836.281	1615.71
836.462	1612.99
836.643	1612.99
836.823	1656.2
837.004	1647.09
837.184	1637.99
837.365	1663.76
837.545	1634.5
837.726	1598.27
837.906	1677.12
838.087	1636.44
838.267	1617.64
838.448	1585.68
838.628	1654.65
838.808	1650.97
838.989	1697.47
839.169	1607.76
839.349	1662.4
839.53	1645.74
839.71	1681.77
839.89	1573.66
840.07	1684.68
840.251	1624.62
840.431	1675.19
840.611	1623.26
840.791	1584.71
840.971	1653.87
841.151	1622.29
841.332	1580.06
841.512	1669.18
841.692	1578.51
841.872	1631.21
842.052	1643.02
842.232	1622.88
842.412	1555.45
842.592	1592.65
842.772	1659.3
842.952	1646.32
843.132	1582.96
843.312	1598.66
843.492	1585.09
843.672	1618.23
843.851	1546.54
844.031	1576.96
844.211	1560.68
844.391	1553.9
844.571	1604.47
844.751	1600.01
844.93	1578.7
845.11	1581.22
845.29	1606.21
845.47	1603.31
845.649	1570.18
845.829	1603.89
846.009	1565.72
846.188	1574.24
846.368	1578.89
846.547	1587.61
846.727	1609.7
846.907	1549.83
847.086	1570.95
847.266	1618.03
847.445	1594.59
847.625	1545.38
847.804	1531.23
847.984	1548.86
848.163	1508.37
848.343	1501.59
848.522	1548.86
848.701	1575.79
848.881	1508.95
849.06	1537.63
849.239	1508.56
849.419	1534.72
849.598	1463.42
849.777	1484.93
849.957	1418.28
850.136	1401.42
850.315	1397.93
850.494	1430.48
850.674	1451.02
850.853	1448.5
851.032	1421.77
851.211	1493.65
851.39	1454.51
851.569	1363.64
851.748	1376.82
851.927	1458.58
852.107	1431.26
852.286	1401.81
852.465	1403.17
852.644	1443.47
852.823	1458.19
853.002	1435.72
853.181	1444.05
853.359	1416.92
853.538	1365.77
853.717	1459.35
853.896	1319.27
854.075	1293.12
854.254	1276.26
854.433	1226.66
854.611	1267.93
854.79	1179
854.969	1259.21
855.148	1278.39
855.327	1258.05
855.505	1279.56
855.684	1311.14
855.863	1304.94
856.041	1275.49
856.22	1330.12
856.399	1279.94
856.577	1399.48
856.756	1375.07
856.934	1478.34
857.113	1478.15
857.291	1378.17
857.47	1332.84
857.648	1377.4
857.827	1443.85
858.005	1385.53
858.184	1338.26
858.362	1460.52
858.541	1377.59
858.719	1377.59
858.898	1396.58
859.076	1364.42
859.254	1405.88
859.433	1352.21
859.611	1333.22
859.789	1305.52
859.967	1386.7
860.146	1399.68
860.324	1291.76
860.502	1330.7
860.68	1296.99
860.859	1290.02
861.037	1275.29
861.215	1329.93
861.393	1338.26
861.571	1289.63
861.749	1306.49
861.927	1312.88
862.105	1303.19
862.283	1298.15
862.461	1274.71
862.639	1251.46
862.817	1271.42
862.995	1294.28
863.173	1274.13
863.351	1268.51
863.529	1292.15
863.707	1339.23
863.885	1282.27
864.063	1254.17
864.241	1255.72
864.418	1318.89
864.596	1273.74
864.774	1203.8
864.952	1264.44
865.129	1262.12
865.307	1233.25
865.485	1173.77
865.663	1254.17
865.84	1183.65
866.018	1198.18
866.196	1091.81
866.373	1108.09
866.551	1101.11
866.728	1026.91
866.906	1102.28
867.084	1096.08
867.261	1092.2
867.439	1155.36
867.616	1180.74
867.794	1130.18
867.971	1178.42
868.149	1143.74
868.326	1225.89
868.503	1179.39
868.681	1179.97
868.858	1165.83
869.035	1139.28
869.213	1170.28
869.39	1147.42
869.567	1249.52
869.745	1141.99
869.922	1174.93
870.099	1183.46
870.276	1169.12
870.454	1168.54
870.631	1170.48
870.808	1153.23
870.985	1165.63
871.162	1220.85
871.339	1159.43
871.517	1084.45
871.694	1106.73
871.871	1146.06
872.048	1157.69
872.225	1124.56
872.402	1174.35
872.579	1100.73
872.756	1149.74
872.933	1092.2
873.11	1123.01
873.287	1143.74
873.463	1090.65
873.64	1075.73
873.817	1144.32
873.994	1133.28
874.171	1087.36
874.348	1122.04
874.524	1059.65
874.701	1098.21
874.878	1041.44
875.055	1067.98
875.231	1077.28
875.408	1106.15
875.585	1025.17
875.762	1071.66
875.938	1071.47
876.115	1056.36
876.291	1037.76
876.468	1065.66
876.645	1035.05
876.821	1019.16
876.998	1041.05
877.174	1053.84
877.351	1045.9
877.527	995.52
877.704	1065.85
877.88	1047.83
878.057	1019.55
878.233	1059.65
878.409	1035.82
878.586	1012.57
878.762	1025.36
878.938	1034.85
879.115	960.65
879.291	1037.76
879.467	961.62
879.644	988.74
879.82	1057.33
879.996	974.02
880.172	947.28
880.349	1014.12
880.525	1018.77
880.701	960.26
880.877	974.79
881.053	965.88
881.229	968.01
881.405	1018.97
881.581	941.66
881.757	962.97
881.933	957.55
882.109	1011.8
882.285	962.97
882.461	933.91
882.637	982.93
882.813	954.25
882.989	945.92
883.165	1016.06
883.341	959.48
883.517	984.87
883.693	975.95
883.869	997.85
884.044	936.24
884.22	1014.32
884.396	1018.97
884.572	1005.4
884.747	980.99
884.923	1006.95
885.099	1011.41
885.275	1013.35
885.45	961.23
885.626	937.79
885.801	968.59
885.977	944.76
886.153	894
886.328	967.62
886.504	936.04
886.679	978.67
886.855	931.97
887.03	953.87
887.206	1004.24
887.381	962
887.557	991.84
887.732	961.03
887.908	974.02
888.083	993.58
888.258	958.9
888.434	951.93
888.609	960.26
888.784	1009.08
888.96	965.49
889.135	966.27
889.31	905.62
889.485	983.51
889.661	958.9
889.836	964.33
890.011	968.4
890.186	951.15
890.361	973.24
890.537	968.98
890.712	976.15
890.887	941.66
891.062	972.66
891.237	986.42
891.412	926.16
891.587	952.32
891.762	971.11
891.937	1005.02
892.112	940.3
892.287	918.02
892.462	919.19
892.637	869.39
892.812	877.72
892.987	875.98
893.161	875.4
893.336	858.15
893.511	858.74
893.686	891.87
893.861	881.6
894.035	863.39
894.21	862.22
894.385	825.22
894.56	847.31
894.734	786.86
894.909	778.33
895.084	800.03
895.258	771.55
895.433	803.13
895.608	784.14
895.782	730.67
895.957	708.39
896.131	718.08
896.306	639.61
896.48	686.3
896.655	660.73
896.829	634.96
897.004	617.52
897.178	648.91
897.353	593.88
897.527	664.8
897.701	639.61
897.876	592.91
898.05	639.61
898.224	641.16
898.399	656.66
898.573	604.73
898.747	528.59
898.921	578.58
899.096	485.77
899.27	493.72
899.444	502.24
899.618	527.62
899.792	562.11
899.967	559.01
900.141	563.85
900.315	504.57
900.489	543.7
900.663	575.48
900.837	555.91
901.011	510.96
901.185	577.03
901.359	544.48
901.533	542.15
901.707	547.77
901.881	546.42
902.055	505.34
902.229	524.13
902.403	595.24
902.576	520.65
902.75	554.36
902.924	639.8
903.098	614.61
903.272	646
903.446	685.14
903.619	666.73
903.793	683.01
903.967	655.5
904.14	722.53
904.314	706.64
904.488	708
904.661	730.28
904.835	710.52
905.009	711.1
905.182	767.87
905.356	716.33
905.529	715.94
905.703	656.08
905.876	693.28
906.05	667.31
906.223	628.95
906.397	561.72
906.57	570.83
906.744	543.7
906.917	547.77
907.09	530.33
907.264	540.6
907.437	495.07
907.61	479.19
907.784	514.45
907.957	513.87
908.13	479.38
908.304	504.76
908.477	480.93
908.65	495.65
908.823	454.19
908.996	537.12
909.17	465.04
909.343	479.96
909.516	476.09
909.689	494.3
909.862	451.67
910.035	494.1
910.208	441.6
910.381	461.55
910.554	551.84
910.727	489.45
910.9	443.92
911.073	452.64
911.246	513.48
911.419	516.97
911.592	502.05
911.765	448.19
911.938	437.34
912.11	506.5
912.283	509.6
912.456	501.85
912.629	465.62
912.802	450.32
912.974	395.29
913.147	384.64
913.32	330.39
913.493	329.61
913.665	403.04
913.838	401.69
914.01	402.27
914.183	434.24
914.356	411.57
914.528	444.7
914.701	468.34
914.873	455.35
915.046	432.88
915.218	381.92
915.391	306.36
915.563	330
915.736	391.61
915.908	419.12
916.081	414.09
916.253	402.46
916.425	415.25
916.598	427.07
916.77	401.49
916.942	379.02
917.115	312.18
917.287	395.49
917.459	376.11
917.632	351.12
917.804	316.83
917.976	357.12
918.148	385.8
918.32	379.99
918.493	421.25
918.665	472.02
918.837	431.14
919.009	456.13
919.181	484.61
919.353	448.57
919.525	439.08
919.697	438.69
919.869	442.18
920.041	472.79
920.213	554.55
920.385	450.51
920.557	458.26
920.729	460.97
920.901	450.9
921.073	444.7
921.244	404.01
921.416	472.21
921.588	424.74
921.76	405.76
921.932	527.62
922.103	436.37
922.275	433.85
922.447	417.57
922.619	364.29
922.79	424.35
922.962	426.1
923.134	468.53
923.305	374.37
923.477	383.86
923.648	369.14
923.82	363.52
923.991	334.46
924.163	325.74
924.335	374.17
924.506	350.92
924.677	421.64
924.849	371.27
925.02	377.47
925.192	397.23
925.363	378.05
925.535	356.74
925.706	353.44
925.877	402.27
926.049	342.4
926.22	379.02
926.391	390.26
926.562	391.61
926.734	371.27
926.905	420.09
927.076	291.06
927.247	330.58
927.419	297.45
927.59	292.99
927.761	285.83
927.932	284.86
928.103	307.91
928.274	268.78
928.445	219.56
928.616	259.48
928.787	253.28
928.958	287.57
929.129	249.01
929.3	235.84
929.471	196.9
929.642	186.24
929.813	133.35
929.984	194.57
930.155	131.02
930.326	190.31
930.496	170.55
930.667	123.27
930.838	144.39
931.009	111.26
931.18	126.95
931.35	135.67
931.521	109.9
931.692	90.53
931.863	64.95
932.033	100.41
932.204	105.64
932.374	119.01
932.545	56.62
932.716	120.37
932.886	125.98
933.057	43.06
933.227	62.05
933.398	124.82
933.568	49.07
933.739	-6.54
933.909	19.23
934.08	107.77
934.25	5.47
934.421	12.84
934.591	60.69
934.761	29.11
934.932	2.95
935.102	47.52
935.272	30.85
935.443	27.17
935.613	18.84
935.783	51
935.953	17.87
936.123	159.5
936.294	20.59
936.464	29.5
936.634	47.32
936.804	-1.5
936.974	-1.31
937.144	52.75
937.314	28.53
937.484	16.32
937.655	15.74
937.825	65.73
937.995	0.44
938.165	73.09
938.334	-15.26
938.504	78.32
938.674	50.62
938.844	53.14
939.014	89.75
939.184	85.1
939.354	119.78
939.524	124.43
939.694	83.75
939.863	69.41
940.033	147.1
940.203	118.23
940.373	89.37
940.542	103.9
940.712	81.62
940.882	123.66
941.051	111.07
941.221	97.5
941.391	100.6
941.56	85.3
941.73	51.97
941.899	149.23
942.069	67.47
942.238	86.07
942.408	79.87
942.577	103.32
942.747	57.2
942.916	12.06
943.086	37.64
943.255	119.2
943.425	79.29
943.594	71.35
943.763	11.48
943.933	58.95
944.102	6.05
944.271	39.77
944.441	68.05
944.61	42.87
944.779	64.57
944.948	125.98
945.117	29.3
945.287	49.84
945.456	-20.3
945.625	23.1
945.794	66.7
945.963	48.49
946.132	85.3
946.301	39.77
946.47	65.34
946.639	4.31
946.808	35.12
946.977	64.76
947.146	116.1
947.315	43.45
947.484	90.33
947.653	32.02
947.822	67.67
947.991	39.96
948.16	100.99
948.329	95.37
948.498	62.44
948.666	66.5
948.835	93.05
949.004	29.89
949.173	43.25
949.341	77.93
949.51	80.45
949.679	81.62
949.847	102.54
950.016	110.68
950.185	95.57
950.353	67.08
950.522	53.91
950.69	119.2
950.859	59.92
951.028	77.74
951.196	89.56
951.365	65.92
951.533	56.43
951.701	81.42
951.87	81.42
952.038	41.7
952.207	58.17
952.375	72.9
952.543	25.62
952.712	57.4
952.88	62.05
953.048	121.72
953.217	54.1
953.385	41.12
953.553	89.75
953.721	40.74
953.89	47.32
954.058	6.05
954.226	9.93
954.394	58.56
954.562	18.45
954.73	61.47
954.898	28.53
955.067	71.54
955.235	34.92
955.403	56.24
955.571	126.76
955.739	89.17
955.907	43.06
956.075	20.2
956.243	27.75
956.41	77.55
956.578	22.91
956.746	10.12
956.914	50.23
957.082	82.58
957.25	90.92
957.418	40.93
957.585	60.89
957.753	102.73
957.921	47.52
958.089	42.29
958.256	64.37
958.424	55.46
958.592	71.93
958.759	25.24
958.927	85.1
959.095	61.85
959.262	61.85
959.43	77.55
959.597	69.02
959.765	46.94
959.932	36.67
960.1	86.07
960.267	53.91
960.435	61.47
960.602	59.14
960.77	71.35
960.937	45.19
961.104	86.46
961.272	19.81
961.439	54.88
961.606	77.55
961.774	98.47
961.941	39.96
962.108	90.53
962.275	81.23
962.443	100.41
962.61	86.27
962.777	134.51
962.944	77.74
963.111	80.07
963.278	96.73
963.446	89.37
963.613	54.88
963.78	81.03
963.947	106.61
964.114	66.7
964.281	139.35
964.448	85.3
964.615	67.47
964.782	97.5
964.949	92.66
965.116	90.33
965.282	116.68
965.449	60.11
965.616	49.84
965.783	95.18
965.95	89.37
966.117	13.22
966.283	80.65
966.45	68.83
966.617	72.7
966.784	143.81
966.95	108.35
967.117	127.15
967.284	77.93
967.45	39.77
967.617	117.65
967.784	107.58
967.95	129.28
968.117	82.58
968.283	119.01
968.45	173.65
968.616	113.2
968.783	123.66
968.949	92.47
969.116	117.07
969.282	88.98
969.449	117.65
969.615	108.35
969.781	68.05
969.948	68.83
970.114	61.66
970.28	154.08
970.447	105.83
970.613	149.62
970.779	92.47
970.945	123.66
971.112	129.47
971.278	107.58
971.444	105.25
971.61	147.3
971.776	95.18
971.942	111.45
972.108	124.63
972.275	72.51
972.441	98.47
972.607	196.31
972.773	60.11
972.939	125.02
973.105	81.42
973.271	73.09
973.437	69.41
973.602	67.86
973.768	92.08
973.934	81.03
974.1	98.67
974.266	39.96
974.432	101.96
974.598	104.67
974.763	109.32
974.929	68.25
975.095	135.87
975.261	50.04
975.426	51.97
975.592	79.48
975.758	121.53
975.923	29.69
976.089	78.9
976.255	124.05
976.42	95.37
976.586	123.85
976.751	77.35
976.917	151.75
977.082	119.98
977.248	50.81
977.413	35.31
977.579	59.72
977.744	83.94
977.91	53.72
978.075	69.02
978.24	101.77
978.406	86.07
978.571	69.8
978.736	85.49
978.902	105.06
979.067	45
979.232	29.3
979.397	108.74
979.563	105.64
979.728	59.53
979.893	76.58
980.058	68.83
980.223	98.47
980.388	92.85
980.554	69.6
980.719	41.9
980.884	100.6
981.049	125.02
981.214	71.93
981.379	126.95
981.544	50.23
981.709	67.08
981.874	83.36
982.039	61.47
982.204	105.45
982.368	91.11
982.533	78.32
982.698	112.42
982.863	105.83
983.028	80.45
983.193	74.25
983.357	106.22
983.522	110.48
983.687	58.56
983.852	74.64
984.016	81.03
984.181	88.78
984.346	91.88
984.51	116.3
984.675	86.46
984.839	96.34
985.004	85.3
985.168	130.63
985.333	96.73
985.498	78.9
985.662	112.03
985.827	97.31
985.991	69.8
986.155	77.35
986.32	109.32
986.484	133.73
986.649	115.33
986.813	44.42
986.977	87.23
987.142	105.25
987.306	59.53
987.47	54.49
987.634	104.67
987.799	83.75
987.963	102.15
988.127	103.12
988.291	146.13
988.455	105.25
988.62	102.73
988.784	89.95
988.948	99.25
989.112	55.65
989.276	103.51
989.44	80.45
989.604	68.44
989.768	73.48
989.932	166.67
990.096	51.59
990.26	27.95
990.424	51
990.588	82.2
990.752	144.97
990.915	101.57
991.079	78.13
991.243	33.18
991.407	123.47
991.571	87.62
991.734	112.42
991.898	103.9
992.062	133.35
992.226	78.71
992.389	52.36
992.553	32.4
992.717	82
992.88	70.96
993.044	64.95
993.207	63.21
993.371	106.42
993.535	98.67
993.698	95.18
993.862	80.84
994.025	104.48
994.189	92.66
994.352	91.5
994.515	100.99
994.679	113.39
994.842	47.52
995.006	103.32
995.169	55.65
995.332	41.32
995.496	89.37
995.659	23.69
995.822	69.41
995.985	57.79
996.149	111.45
996.312	80.84
996.475	99.63
996.638	78.71
996.801	103.7
996.964	144.39
997.128	50.81
997.291	51.78
997.454	71.73
997.617	32.6
997.78	117.65
997.943	60.69
998.106	94.98
998.269	54.88
998.432	92.08
998.595	72.9
998.758	4.31
998.92	21.36
999.083	27.17
999.246	41.32
999.409	23.49
999.572	-4.41
999.735	40.93
999.897	70.38
1000.06	57.79
1000.223	29.3
1000.386	93.82
1000.548	81.23
1000.711	69.41
1000.874	74.45
1001.036	9.93
1001.199	78.71
1001.361	27.17
1001.524	54.49
1001.687	78.71
1001.849	48.1
1002.012	63.21
1002.174	70.18
1002.337	91.3
1002.499	47.13
1002.661	77.16
1002.824	16.52
1002.986	38.6
1003.149	57.59
1003.311	29.5
1003.473	123.66
1003.636	27.37
1003.798	42.67
1003.96	77.35
1004.123	74.25
1004.285	43.25
1004.447	68.25
1004.609	53.91
1004.771	93.82
1004.933	-6.54
1005.096	32.21
1005.258	25.62
1005.42	43.45
1005.582	70.38
1005.744	57.01
1005.906	19.62
1006.068	44.03
1006.23	-13.13
1006.392	0.05
1006.554	19.81
1006.716	69.99
1006.878	69.99
1007.04	23.1
1007.202	41.12
1007.363	15.94
1007.525	59.92
1007.687	60.5
1007.849	74.25
1008.011	28.92
1008.172	14.58
1008.334	14.19
1008.496	54.3
1008.658	-6.15
1008.819	24.07
1008.981	4.7
1009.143	13.03
1009.304	15.94
1009.466	57.59
1009.627	87.62
1009.789	127.53
1009.95	55.27
1010.112	10.32
1010.273	74.64
1010.435	39.77
1010.596	0.63
1010.758	20
1010.919	7.99
1011.081	-3.44
1011.242	44.22
1011.403	48.29
1011.565	15.55
1011.726	52.17
1011.887	5.86
1012.049	26.59
1012.21	58.37
1012.371	67.67
1012.532	-34.05
1012.693	43.25
1012.855	12.45
1013.016	44.42
1013.177	86.65
1013.338	27.17
1013.499	93.05
1013.66	38.22
1013.821	64.57
1013.982	57.79
1014.143	20.59
1014.304	20.97
1014.465	43.06
1014.626	46.74
1014.787	18.07
1014.948	125.98
1015.109	-52.26
1015.27	57.2
1015.431	6.05
1015.592	18.84
1015.752	84.13
1015.913	45.19
1016.074	24.65
1016.235	16.71
1016.395	33.18
1016.556	41.7
1016.717	37.25
1016.877	57.4
1017.038	5.28
1017.199	43.06
1017.359	43.64
1017.52	26.4
1017.681	22.72
1017.841	31.24
1018.002	31.05
1018.162	12.25
1018.323	69.6
1018.483	27.56
1018.644	8.77
1018.804	-3.44
1018.964	2.57
1019.125	6.05
1019.285	35.89
1019.446	6.25
1019.606	2.76
1019.766	-27.08
1019.926	29.5
1020.087	29.89
1020.247	-1.89
1020.407	50.23
1020.567	61.27
1020.728	25.62
1020.888	4.5
1021.048	15.74
1021.208	30.47
1021.368	8.19
1021.528	48.87
1021.688	56.24
1021.848	53.14
1022.008	5.47
1022.168	28.34
1022.328	13.8
1022.488	32.4
1022.648	14.77
1022.808	32.4
1022.968	25.82
1023.128	-1.31
1023.288	-0.15
1023.448	35.7
1023.608	51.97
1023.767	44.22
1023.927	-1.7
1024.087	-0.73
1024.247	-15.84
1024.406	15.94
1024.566	15.74
1024.726	-5.96
1024.885	31.24
1025.045	50.62
1025.205	14.97
1025.364	24.46
1025.524	29.11
1025.683	10.12
1025.843	26.2
1026.003	14.19
1026.162	78.32
1026.321	41.51
1026.481	25.62
1026.64	9.93
1026.8	36.09
1026.959	51.39
1027.119	9.54
1027.278	5.67
1027.437	-25.33
1027.597	20.59
1027.756	22.52
1027.915	34.73
1028.074	22.33
1028.234	-6.35
1028.393	21.17
1028.552	-6.93
1028.711	-56.53
1028.87	44.03
1029.03	-12.55
1029.189	-0.53
1029.348	-26.49
1029.507	0.24
1029.666	-11.19
1029.825	-43.16
1029.984	8.38
1030.143	29.3
1030.302	0.05
1030.461	-42.38
1030.62	13.61
1030.779	39.38
1030.938	-3.44
1031.097	-19.52
1031.255	34.34
1031.414	72.51
1031.573	11.09
1031.732	-32.31
1031.891	10.51
1032.049	68.05
1032.208	35.5
1032.367	8.57
1032.525	15.35
1032.684	-13.32
1032.843	3.15
1033.001	-27.46
1033.16	148.65
1033.319	55.07
1033.477	49.26
1033.636	-15.26
1033.794	-16.03
1033.953	50.04
1034.111	34.34
1034.27	-1.31
1034.428	11.48
1034.587	-2.47
1034.745	34.54
1034.903	17.1
1035.062	19.04
1035.22	-47.23
1035.378	45
1035.537	-25.53
1035.695	32.6
1035.853	8.57
1036.011	32.99
1036.17	14
1036.328	-40.25
1036.486	42.09
1036.644	26.4
1036.802	-42.58
1036.96	-6.15
1037.119	2.76
1037.277	-5.57
1037.435	-11.19
1037.593	-8.86
1037.751	27.56
1037.909	37.05
1038.067	37.05
