Data from gum_young_FLMT105791__104__17-40-32-041.txt Node

Date: Mon Mar 20 17:40:32 GMT 2023
User: antho
Spectrometer: FLMT10579
Trigger mode: 0
Integration Time (sec): 1.000000E-1
Scans to average: 10
Electric dark correction enabled: true
Nonlinearity correction enabled: false
Boxcar width: 0
XAxis mode: Wavelengths
Number of Pixels in Spectrum: 3648
>>>>>Begin Spectral Data<<<<<
345.248	-135.36
345.464	-135.36
345.681	-135.36
345.898	-140.4
346.114	-148.93
346.331	-11.56
346.548	20.8
346.764	-8.46
346.981	1.23
347.197	-5.75
347.414	13.05
347.631	-24.93
347.847	50.25
348.064	2.2
348.28	26.22
348.497	-51.08
348.713	-11.95
348.93	16.53
349.146	46.18
349.363	10.72
349.579	37.26
349.796	-2.84
350.012	-15.44
350.229	47.34
350.445	32.81
350.661	-4.39
350.878	14.6
351.094	23.7
351.311	37.85
351.527	25.25
351.743	4.52
351.96	48.89
352.176	39.59
352.392	15.56
352.609	49.66
352.825	14.98
353.041	16.15
353.257	10.53
353.474	33
353.69	7.23
353.906	26.22
354.122	8.59
354.339	53.93
354.555	32.23
354.771	15.18
354.987	40.95
355.203	78.92
355.42	11.3
355.636	2
355.852	0.45
356.068	27
356.284	-27.06
356.5	55.86
356.716	11.69
356.932	-8.27
357.148	1.61
357.364	10.72
357.58	51.6
357.796	42.69
358.012	49.86
358.228	13.24
358.444	-21.05
358.66	67.49
358.876	35.91
359.092	-8.85
359.308	24.09
359.524	57.61
359.74	-4.2
359.956	-6.91
360.172	9.17
360.388	54.7
360.604	5.1
360.819	85.7
361.035	30.87
361.251	36.68
361.467	-5.75
361.683	64.78
361.898	18.86
362.114	44.63
362.33	28.35
362.546	49.86
362.762	19.25
362.977	28.16
363.193	20.99
363.409	43.08
363.624	-2.26
363.84	11.3
364.056	3.36
364.271	24.67
364.487	48.31
364.703	11.88
364.918	-19.5
365.134	18.86
365.35	30.87
365.565	101.98
365.781	23.7
365.996	41.14
366.212	61.09
366.427	48.5
366.643	38.62
366.858	20.8
367.074	18.47
367.289	54.9
367.505	107.79
367.72	-22.8
367.936	10.53
368.151	50.44
368.367	61.68
368.582	29.71
368.798	-10.4
369.013	90.35
369.228	15.95
369.444	33.97
369.659	65.36
369.874	44.82
370.09	61.09
370.305	-41.01
370.52	30.68
370.736	84.15
370.951	27.96
371.166	77.76
371.381	86.09
371.597	42.88
371.812	-8.46
372.027	0.65
372.242	49.28
372.458	101.59
372.673	1.61
372.888	33.58
373.103	39.01
373.318	69.81
373.533	36.3
373.749	55.28
373.964	-63.48
374.179	79.11
374.394	8.59
374.609	78.73
374.824	-2.84
375.039	79.11
375.254	14.4
375.469	56.25
375.684	39.4
375.899	50.05
376.114	42.11
376.329	56.64
376.544	68.26
376.759	42.69
376.974	7.43
377.189	24.28
377.404	52.38
377.619	86.09
377.834	-2.65
378.049	7.62
378.264	-9.43
378.478	47.53
378.693	12.66
378.908	59.35
379.123	1.61
379.338	79.69
379.553	51.21
379.767	60.32
379.982	71.56
380.197	65.55
380.412	14.79
380.626	63.42
380.841	105.46
381.056	54.31
381.271	118.83
381.485	9.75
381.7	6.46
381.915	51.21
382.129	37.85
382.344	53.73
382.559	39.59
382.773	41.91
382.988	-5.36
383.202	55.09
383.417	6.46
383.632	120.58
383.846	21.76
384.061	71.94
384.275	37.85
384.49	53.15
384.704	49.08
384.919	47.92
385.133	26.03
385.348	41.33
385.562	28.55
385.777	91.32
385.991	43.27
386.206	34.75
386.42	36.1
386.634	89.96
386.849	50.05
387.063	30.48
387.277	7.23
387.492	12.85
387.706	3.55
387.92	12.27
388.135	64
388.349	73.88
388.563	44.43
388.778	55.67
388.992	59.35
389.206	78.14
389.42	113.02
389.635	41.33
389.849	82.41
390.063	94.81
390.277	82.79
390.491	133.75
390.706	70.78
390.92	71.17
391.134	33.78
391.348	77.95
391.562	36.1
391.776	53.54
391.99	24.86
392.205	98.68
392.419	20.6
392.633	50.25
392.847	100.62
393.061	30.29
393.275	128.91
393.489	62.84
393.703	62.45
393.917	89.77
394.131	38.23
394.345	79.5
394.559	82.79
394.773	52.18
394.986	73.49
395.2	32.61
395.414	87.06
395.628	49.08
395.842	81.63
396.056	79.11
396.27	12.08
396.484	73.11
396.697	76.98
396.911	110.89
397.125	86.67
397.339	76.4
397.553	50.63
397.766	107.98
397.98	91.71
398.194	98.88
398.408	44.43
398.621	96.74
398.835	92.68
399.049	89.77
399.262	125.42
399.476	98.68
399.69	96.16
399.903	160.49
400.117	83.96
400.331	97.91
400.544	73.69
400.758	195.75
400.971	102.75
401.185	133.56
401.398	62.45
401.612	117.28
401.826	128.13
402.039	109.73
402.253	79.5
402.466	128.91
402.68	91.9
402.893	96.94
403.106	106.43
403.32	109.53
403.533	123.48
403.747	94.81
403.96	94.81
404.174	159.71
404.387	88.8
404.6	112.05
404.814	154.87
405.027	122.9
405.24	111.86
405.454	89.19
405.667	137.63
405.88	63.61
406.094	138.21
406.307	145.76
406.52	98.29
406.733	90.93
406.947	72.53
407.16	146.73
407.373	128.91
407.586	92.87
407.799	82.79
408.012	132.59
408.226	116.31
408.439	169.21
408.652	86.28
408.865	117.86
409.078	152.74
409.291	145.76
409.504	103.14
409.717	138.59
409.93	144.21
410.143	136.46
410.357	85.51
410.57	54.31
410.783	98.1
410.996	121.54
411.209	143.44
411.421	149.06
411.634	146.34
411.847	105.66
412.06	119.99
412.273	123.68
412.486	145.96
412.699	201.17
412.912	101.59
413.125	161.07
413.338	139.56
413.55	162.62
413.763	163.2
413.976	151.57
414.189	109.14
414.402	113.99
414.615	190.52
414.827	97.13
415.04	177.73
415.253	164.56
415.466	161.46
415.678	212.61
415.891	142.47
416.104	158.16
416.316	159.13
416.529	127.94
416.742	188.58
416.954	196.14
417.167	143.63
417.38	133.75
417.592	181.22
417.805	127.74
418.017	130.46
418.23	174.05
418.442	139.56
418.655	113.41
418.868	164.17
419.08	171.92
419.293	189.94
419.505	185.48
419.718	169.4
419.93	203.69
420.142	162.62
420.355	184.32
420.567	203.31
420.78	181.02
420.992	147.89
421.205	188.39
421.417	128.33
421.629	146.15
421.842	141.5
422.054	125.23
422.266	186.84
422.479	194.39
422.691	148.86
422.903	179.47
423.115	151.19
423.328	137.43
423.54	208.92
423.752	186.06
423.964	129.1
424.177	183.16
424.389	162.04
424.601	270.15
424.813	183.54
425.025	207.37
425.238	204.47
425.45	152.74
425.662	181.99
425.874	418.95
426.086	177.34
426.298	188.39
426.51	187.42
426.722	192.46
426.934	132.01
427.146	197.3
427.358	175.02
427.57	189.36
427.782	166.3
427.994	186.45
428.206	171.92
428.418	157.19
428.63	222.87
428.842	229.85
429.054	181.99
429.266	212.22
429.478	168.04
429.69	168.43
429.902	135.69
430.114	190.71
430.325	191.87
430.537	138.79
430.749	133.75
430.961	123.68
431.173	157.77
431.384	185.87
431.596	101.59
431.808	160.49
432.02	202.14
432.231	223.07
432.443	259.49
432.655	218.61
432.867	152.93
433.078	211.64
433.29	274.22
433.502	225.2
433.713	259.1
433.925	213.96
434.136	270.15
434.348	171.53
434.56	149.64
434.771	296.5
434.983	148.47
435.194	204.86
435.406	205.63
435.617	260.65
435.829	272.28
436.04	243.8
436.252	245.93
436.463	279.25
436.675	269.18
436.886	258.14
437.098	252.71
437.309	310.45
437.521	226.17
437.732	237.6
437.943	236.05
438.155	266.66
438.366	183.35
438.578	301.15
438.789	248.64
439	250.19
439.211	225.78
439.423	235.08
439.634	259.69
439.845	250.77
440.057	250.77
440.268	285.65
440.479	255.62
440.69	263.95
440.902	240.5
441.113	247.48
441.324	233.34
441.535	283.71
441.746	320.52
441.957	226.75
442.168	256.2
442.38	299.79
442.591	301.73
442.802	251.55
443.013	255.62
443.224	278.09
443.435	243.41
443.646	278.67
443.857	255.42
444.068	264.92
444.279	252.71
444.49	307.35
444.701	261.62
444.912	369.54
445.123	311.61
445.334	309.87
445.545	327.88
445.756	294.75
445.967	243.6
446.178	297.66
446.388	312.77
446.599	339.32
446.81	297.47
447.021	280.61
447.232	338.35
447.443	351.33
447.653	293.2
447.864	349
448.075	329.63
448.286	348.42
448.496	333.7
448.707	365.47
448.918	325.75
449.129	398.6
449.339	322.85
449.55	316.65
449.761	324.98
449.971	380.97
450.182	355.78
450.393	357.33
450.603	324.59
450.814	380
451.024	355.78
451.235	416.43
451.446	393.37
451.656	398.6
451.867	353.85
452.077	351.33
452.288	394.53
452.498	397.63
452.709	329.63
452.919	381.36
453.13	317.42
453.34	398.02
453.55	308.51
453.761	388.33
453.971	381.17
454.182	404.61
454.392	377.29
454.602	411.78
454.813	369.93
455.023	403.06
455.233	326.33
455.444	385.23
455.654	284.29
455.864	340.09
456.075	354.23
456.285	381.75
456.495	364.7
456.705	394.92
456.916	434.45
457.126	422.24
457.336	391.63
457.546	326.53
457.756	386.98
457.967	424.76
458.177	377.68
458.387	376.13
458.597	357.33
458.807	383.1
459.017	390.27
459.227	372.64
459.437	384.85
459.647	398.02
459.857	406.93
460.068	362.76
460.278	430.57
460.488	439.87
460.698	440.84
460.908	410.81
461.117	362.37
461.327	405.97
461.537	417.2
461.747	422.82
461.957	401.51
462.167	507.29
462.377	473
462.587	410.81
462.797	424.18
463.007	417.59
463.216	440.84
463.426	472.61
463.636	478.23
463.846	383.3
464.056	396.08
464.265	465.64
464.475	407.32
464.685	415.65
464.895	466.03
465.104	420.69
465.314	439.87
465.524	417.59
465.733	394.73
465.943	510.98
466.153	486.37
466.362	456.73
466.572	448.01
466.782	416.23
466.991	435.61
467.201	486.95
467.41	411.58
467.62	474.55
467.829	458.86
468.039	472.61
468.249	468.93
468.458	456.92
468.668	508.84
468.877	493.35
469.086	528.03
469.296	535.97
469.505	483.85
469.715	557.28
469.924	477.46
470.134	519.5
470.343	511.75
470.552	495.28
470.762	492.18
470.971	439.68
471.18	472.42
471.39	492.76
471.599	472.42
471.808	526.28
472.018	471.45
472.227	548.37
472.436	546.43
472.645	524.34
472.855	505.36
473.064	607.07
473.273	549.14
473.482	560.58
473.691	556.89
473.901	531.13
474.11	536.74
474.319	620.06
474.528	507.49
474.737	614.05
474.946	576.27
475.155	559.03
475.364	566.19
475.573	557.09
475.783	552.05
475.992	599.13
476.201	611.53
476.41	584.99
476.619	561.74
476.828	587.31
477.037	564.45
477.245	571.23
477.454	642.72
477.663	596.81
477.872	600.1
478.081	673.53
478.29	603.39
478.499	677.4
478.708	648.73
478.917	690.77
479.125	629.55
479.334	643.31
479.543	678.37
479.752	655.9
479.961	661.91
480.169	702.2
480.378	653.96
480.587	792.68
480.796	696
481.004	674.11
481.213	740.57
481.422	713.83
481.63	698.91
481.839	721.97
482.048	777.57
482.256	701.43
482.465	747.54
482.674	785.9
482.882	774.86
483.091	807.22
483.299	736.11
483.508	776.99
483.716	739.02
483.925	808.57
484.134	705.5
484.342	731.85
484.551	777.57
484.759	777.77
484.967	791.13
485.176	786.68
485.384	822.91
485.593	789.2
485.801	785.9
486.01	773.31
486.218	716.74
486.426	662.87
486.635	670.43
486.843	655.71
487.051	718.29
487.26	727.78
487.468	735.53
487.676	791.52
487.885	716.93
488.093	809.15
488.301	774.47
488.509	814.77
488.717	814.97
488.926	806.83
489.134	787.26
489.342	825.04
489.55	793.07
489.758	827.75
489.967	841.7
490.175	946.13
490.383	879.48
490.591	934.89
490.799	866.31
491.007	913.39
491.215	892.08
491.423	864.56
491.631	889.95
491.839	883.36
492.047	907.38
492.255	866.7
492.463	858.56
492.671	873.28
492.879	953.88
493.087	880.45
493.295	918.62
493.503	935.48
493.711	960.86
493.919	982.56
494.127	982.36
494.334	969.96
494.542	923.27
494.75	948.07
494.958	957.18
495.166	1054.44
495.374	1006.58
495.581	988.18
495.789	1015.3
495.997	1051.34
496.205	1009.88
496.412	998.64
496.62	992.44
496.828	991.47
497.035	1007.36
497.243	1048.43
497.451	1033.71
497.658	1079.24
497.866	1033.71
498.074	1122.25
498.281	1019.95
498.489	1105.01
498.696	1066.64
498.904	1023.05
499.112	1025.96
499.319	1114.89
499.527	1073.23
499.734	1136.59
499.942	1049.21
500.149	1036.81
500.357	1091.44
500.564	1035.45
500.771	1087.57
500.979	1038.74
501.186	1043.39
501.394	1099.77
501.601	1058.7
501.808	1081.17
502.016	1077.88
502.223	1071.49
502.43	1085.24
502.638	1071.87
502.845	1066.64
503.052	1178.63
503.26	1111.01
503.467	1186.38
503.674	1156.93
503.881	1136.2
504.089	1210.98
504.296	1139.3
504.503	1088.92
504.71	1151.12
504.917	1107.52
505.125	1190.06
505.332	1201.88
505.539	1220.87
505.746	1253.61
505.953	1249.73
506.16	1225.71
506.367	1280.35
506.574	1333.43
506.781	1299.53
506.988	1246.63
507.195	1290.03
507.402	1258.26
507.609	1317.35
507.816	1266.98
508.023	1255.35
508.23	1264.65
508.437	1254.19
508.644	1305.92
508.851	1367.15
509.058	1344.48
509.265	1369.47
509.472	1371.99
509.679	1458.01
509.885	1356.88
510.092	1416.36
510.299	1398.34
510.506	1385.36
510.713	1431.86
510.92	1435.93
511.126	1457.62
511.333	1496.96
511.54	1524.27
511.746	1542.87
511.953	1517.88
512.16	1583.37
512.367	1505.87
512.573	1510.13
512.78	1532.8
512.987	1541.71
513.193	1546.94
513.4	1470.99
513.606	1524.27
513.813	1541.32
514.02	1550.82
514.226	1635.1
514.433	1611.27
514.639	1539.19
514.846	1623.47
515.052	1555.08
515.259	1634.71
515.465	1628.12
515.672	1634.9
515.878	1687.8
516.085	1670.75
516.291	1693.22
516.497	1678.88
516.704	1596.54
516.91	1618.24
517.117	1555.66
517.323	1529.51
517.529	1516.33
517.736	1503.35
517.942	1593.05
518.148	1637.42
518.354	1676.37
518.561	1671.52
518.767	1652.53
518.973	1739.53
519.179	1699.81
519.386	1763.75
519.592	1716.47
519.798	1768.2
520.004	1898.21
520.21	1859.84
520.417	1918.36
520.623	1927.66
520.829	1974.74
521.035	1936.96
521.241	1942.19
521.447	1995.27
521.653	2080.33
521.859	2009.03
522.065	2070.64
522.271	2154.34
522.477	2110.17
522.683	2127.02
522.889	2113.85
523.095	2085.95
523.301	2123.73
523.507	2109.39
523.713	2119.47
523.919	2126.44
524.125	2195.22
524.331	2177.4
524.537	2263.61
524.742	2275.24
524.948	2276.98
525.154	2319.8
525.36	2404.86
525.566	2329.49
525.772	2410.28
525.977	2281.83
526.183	2360.1
526.389	2389.36
526.595	2279.31
526.8	2263.23
527.006	2189.99
527.212	2176.62
527.417	2148.72
527.623	2135.16
527.829	2261.87
528.034	2297.91
528.24	2301.78
528.446	2350.41
528.651	2461.82
528.857	2466.85
529.062	2538.73
529.268	2506.38
529.473	2532.92
529.679	2551.91
529.884	2608.29
530.09	2598.99
530.295	2587.37
530.501	2590.08
530.706	2608.87
530.912	2570.51
531.117	2637.74
531.323	2630.18
531.528	2721.44
531.733	2693.73
531.939	2646.26
532.144	2724.54
532.35	2690.24
532.555	2699.16
532.76	2618.95
532.966	2666.41
533.171	2672.42
533.376	2616.62
533.581	2562.76
533.787	2623.21
533.992	2705.55
534.197	2720.08
534.402	2706.52
534.607	2709.81
534.813	2759.41
535.018	2730.93
535.223	2782.27
535.428	2805.52
535.633	2842.92
535.838	2882.44
536.043	2876.05
536.249	2888.45
536.454	2832.26
536.659	2874.69
536.864	2880.5
537.069	2866.75
537.274	2819.47
537.479	2814.82
537.684	2832.84
537.889	2766.58
538.094	2897.36
538.299	2830.13
538.504	2901.24
538.708	2915.77
538.913	2973.89
539.118	2916.54
539.323	2945.8
539.528	2840.59
539.733	2847.57
539.938	2886.32
540.142	2880.89
540.347	2826.45
540.552	2875.08
540.757	2804.36
540.962	2862.87
541.166	2777.62
541.371	2817.92
541.576	2811.53
541.781	2778.4
541.985	2895.81
542.19	2850.47
542.395	2996.17
542.599	2949.48
542.804	2922.35
543.008	2997.33
543.213	2917.51
543.418	2932.04
543.622	2979.9
543.827	2857.45
544.031	2958
544.236	2967.69
544.44	3031.82
544.645	3085.1
544.849	3007.41
545.054	3035.89
545.258	3068.25
545.463	3056.43
545.667	2975.63
545.872	3025.04
546.076	3018.65
546.281	3012.64
546.485	2977.38
546.689	3039.57
546.894	3042.48
547.098	3065.53
547.302	3003.92
547.507	3010.7
547.711	3094.21
547.915	3050.61
548.119	2999.47
548.324	2956.84
548.528	3066.5
548.732	3014.77
548.936	3066.11
549.141	3063.01
549.345	3025.23
549.549	3081.42
549.753	3098.47
549.957	3174.81
550.161	3115.13
550.366	3143.81
550.57	3067.86
550.774	3085.68
550.978	3075.8
551.182	3090.53
551.386	3040.15
551.59	3027.17
551.794	3030.85
551.998	3119.98
552.202	3081.23
552.406	3089.17
552.61	3090.14
552.814	3161.63
553.018	3162.6
553.222	3082.97
553.426	3049.45
553.63	3148.26
553.833	3045.19
554.037	3036.47
554.241	3106.22
554.445	3100.21
554.649	3104.48
554.853	3045.19
555.056	3107.96
555.26	3156.4
555.464	3116.68
555.668	3110.1
555.871	3135.67
556.075	3115.91
556.279	3085.1
556.483	3030.46
556.686	3088.4
556.89	3030.27
557.094	3054.49
557.297	2961.68
557.501	3052.36
557.704	2904.34
557.908	2984.16
558.112	2956.07
558.315	3079.48
558.519	2986.48
558.722	2941.54
558.926	2962.65
559.129	2840.79
559.333	2873.34
559.536	2873.92
559.74	2837.11
559.943	2816.37
560.147	2804.36
560.35	2845.44
560.553	2856.87
560.757	2800.49
560.96	2946.18
561.164	2909.95
561.367	2949.67
561.57	2932.82
561.774	2892.52
561.977	2858.8
562.18	2855.12
562.384	2963.43
562.587	2812.5
562.79	2851.83
562.993	2828.58
563.197	2845.44
563.4	2873.34
563.603	2847.18
563.806	2892.9
564.009	2793.71
564.212	2841.95
564.416	2772.39
564.619	2799.71
564.822	2788.47
565.025	2824.51
565.228	2768.52
565.431	2780.53
565.634	2710.39
565.837	2704.19
566.04	2643.55
566.243	2670.87
566.446	2574.97
566.649	2667.19
566.852	2580.97
567.055	2677.26
567.258	2676.49
567.461	2687.14
567.664	2704.58
567.867	2595.11
568.07	2641.42
568.273	2617.59
568.475	2671.45
568.678	2552.49
568.881	2579.42
569.084	2532.73
569.287	2414.35
569.489	2469.57
569.692	2544.35
569.895	2517.62
570.098	2437.02
570.3	2401.95
570.503	2390.52
570.706	2362.81
570.909	2385.87
571.111	2319.41
571.314	2315.15
571.516	2365.14
571.719	2371.34
571.922	2307.4
572.124	2315.73
572.327	2351.19
572.529	2291.51
572.732	2293.26
572.935	2362.04
573.137	2410.28
573.34	2274.66
573.542	2352.35
573.745	2348.67
573.947	2318.06
574.15	2291.13
574.352	2263.81
574.554	2317.09
574.757	2242.88
574.959	2218.28
575.162	2223.51
575.364	2199.1
575.566	2266.13
575.769	2180.3
575.971	2176.23
576.173	2085.75
576.376	2138.07
576.578	2192.12
576.78	2208.59
576.982	2101.25
577.185	2130.32
577.387	2095.83
577.589	2115.01
577.791	2099.32
577.993	2150.08
578.196	2145.43
578.398	2134.58
578.6	2152.4
578.802	2065.99
579.004	2051.46
579.206	2031.31
579.408	2108.03
579.61	2041.39
579.812	2100.09
580.014	2056.5
580.216	2065.8
580.418	2074.13
580.62	2032.09
580.822	2025.69
581.024	2084.98
581.226	2155.12
581.428	2082.65
581.63	2185.53
581.832	2052.43
582.034	2146.4
582.236	2121.79
582.438	2143.1
582.64	2176.23
582.841	2172.55
583.043	2226.03
583.245	2142.33
583.447	2145.23
583.649	2147.17
583.85	2168.87
584.052	2168.68
584.254	2116.95
584.456	2186.11
584.657	2082.65
584.859	2129.93
585.061	2074.13
585.262	2042.94
585.464	2061.34
585.666	2122.76
585.867	2048.17
586.069	2109.2
586.27	2055.53
586.472	2072.38
586.674	2002.64
586.875	2074.9
587.077	2033.44
587.278	2056.3
587.48	2008.25
587.681	2085.17
587.883	2037.9
588.084	1942.57
588.285	1976.67
588.487	1930.95
588.688	1981.9
588.89	1871.28
589.091	1852.09
589.292	1800.75
589.494	1769.95
589.695	1765.49
589.896	1687.02
590.098	1664.74
590.299	1740.3
590.5	1716.28
590.702	1745.73
590.903	1811.6
591.104	1853.26
591.305	1838.14
591.507	1893.36
591.708	1893.36
591.909	1845.89
592.11	1917
592.311	1871.28
592.512	1807.73
592.714	1799.4
592.915	1806.37
593.116	1808.11
593.317	1814.51
593.518	1845.7
593.719	1841.83
593.92	1902.27
594.121	1895.69
594.322	1843.38
594.523	1868.56
594.724	1780.02
594.925	1810.83
595.126	1809.08
595.327	1837.37
595.528	1818.19
595.729	1856.94
595.929	1826.52
596.13	1839.5
596.331	1852.09
596.532	1836.21
596.733	1926.88
596.934	1875.15
597.135	1872.44
597.335	1883.29
597.536	1862.17
597.737	1827.68
597.938	1791.45
598.138	1826.52
598.339	1799.2
598.54	1843.96
598.74	1804.43
598.941	1808.31
599.142	1862.36
599.342	1842.41
599.543	1800.75
599.744	1827.68
599.944	1817.22
600.145	1813.15
600.345	1837.76
600.546	1908.67
600.746	1898.79
600.947	1909.83
601.147	1820.13
601.348	1880.96
601.548	1822.06
601.749	1841.83
601.949	1800.75
602.15	1815.48
602.35	1776.92
602.551	1833.11
602.751	1779.83
602.951	1824.39
603.152	1722.28
603.352	1796.49
603.552	1813.54
603.753	1823.42
603.953	1842.21
604.153	1817.8
604.354	1810.63
604.554	1813.73
604.754	1790.87
604.954	1763.36
605.155	1830.01
605.355	1805.98
605.555	1837.18
605.755	1823.03
605.955	1796.88
606.155	1821.48
606.356	1802.11
606.556	1854.42
606.756	1797.26
606.956	1758.13
607.156	1809.08
607.356	1735.65
607.556	1794.36
607.756	1773.82
607.956	1793.97
608.156	1766.85
608.356	1714.53
608.556	1793.58
608.756	1745.53
608.956	1729.06
609.156	1742.24
609.356	1696.32
609.556	1695.93
609.755	1719.96
609.955	1689.54
610.155	1726.16
610.355	1729.84
610.555	1681.4
610.755	1692.83
610.954	1637.62
611.154	1714.73
611.354	1754.25
611.554	1690.9
611.753	1700.58
611.953	1614.37
612.153	1707.17
612.352	1688.38
612.552	1578.14
612.752	1584.72
612.951	1644.01
613.151	1626.96
613.351	1569.42
613.55	1658.15
613.75	1633.16
613.949	1598.87
614.149	1596.54
614.348	1589.95
614.548	1573.1
614.747	1548.1
614.947	1592.09
615.146	1512.65
615.346	1621.15
615.545	1578.52
615.745	1598.09
615.944	1612.82
616.144	1591.89
616.343	1570.77
616.542	1538.61
616.742	1530.28
616.941	1506.26
617.14	1483.2
617.34	1552.37
617.539	1513.42
617.738	1481.07
617.938	1547.72
618.137	1515.75
618.336	1487.07
618.535	1516.91
618.734	1519.04
618.934	1513.62
619.133	1547.14
619.332	1579.1
619.531	1493.66
619.73	1548.88
619.929	1573.49
620.128	1543.07
620.328	1576
620.527	1497.34
620.726	1505.48
620.925	1510.91
621.124	1483.97
621.323	1481.46
621.522	1437.09
621.721	1459.95
621.92	1429.14
622.119	1518.27
622.318	1446.78
622.517	1490.17
622.715	1497.73
622.914	1417.91
623.113	1468.28
623.312	1412.87
623.511	1452.2
623.71	1404.54
623.909	1398.14
624.107	1505.48
624.306	1394.27
624.505	1399.31
624.704	1369.66
624.902	1430.69
625.101	1466.92
625.3	1378.19
625.499	1393.88
625.697	1402.99
625.896	1358.62
626.095	1442.51
626.293	1306.89
626.492	1388.07
626.69	1377.41
626.889	1349.32
627.088	1414.23
627.286	1353.97
627.485	1341.18
627.683	1347.96
627.882	1330.33
628.08	1258.26
628.279	1260
628.477	1353.2
628.676	1264.46
628.874	1266.98
629.073	1254.38
629.271	1260.78
629.469	1312.51
629.668	1268.92
629.866	1283.64
630.065	1280.15
630.263	1275.31
630.461	1279.96
630.66	1306.11
630.858	1291.78
631.056	1332.46
631.254	1357.07
631.453	1288.87
631.651	1328.01
631.849	1308.44
632.047	1294.88
632.245	1283.25
632.444	1331.3
632.642	1310.38
632.84	1366.56
633.038	1271.24
633.236	1293.71
633.434	1323.16
633.632	1301.66
633.83	1284.61
634.028	1348.93
634.227	1321.61
634.425	1369.86
634.623	1305.92
634.821	1339.25
635.019	1359.98
635.216	1317.55
635.414	1371.02
635.612	1326.07
635.81	1359.01
636.008	1372.57
636.206	1331.5
636.404	1334.98
636.602	1330.72
636.8	1330.53
636.997	1353
637.195	1327.04
637.393	1320.06
637.591	1385.94
637.789	1345.64
637.986	1342.73
638.184	1310.18
638.382	1400.47
638.58	1352.42
638.777	1374.31
638.975	1292.16
639.173	1341.57
639.37	1329.95
639.568	1292.55
639.765	1318.51
639.963	1279.96
640.161	1342.15
640.358	1323.94
640.556	1261.55
640.753	1254.97
640.951	1234.43
641.148	1283.45
641.346	1274.15
641.543	1240.43
641.741	1271.63
641.938	1229.39
642.136	1258.84
642.333	1212.92
642.531	1285
642.728	1307.47
642.925	1284.41
643.123	1247.41
643.32	1246.25
643.517	1217.77
643.715	1230.75
643.912	1211.18
644.109	1222.22
644.306	1230.94
644.504	1183.28
644.701	1226.68
644.898	1240.43
645.095	1216.6
645.293	1206.53
645.49	1207.5
645.687	1164.87
645.884	1232.3
646.081	1099.39
646.278	1137.36
646.475	1142.01
646.672	1118.37
646.87	1121.09
647.067	1123.02
647.264	1129.61
647.461	1069.74
647.658	1089.89
647.855	1125.54
648.052	1110.04
648.249	1000.58
648.446	1078.85
648.642	1072.26
648.839	1054.24
649.036	1066.45
649.233	1042.81
649.43	1012.39
649.627	978.68
649.824	1032.54
650.021	997.09
650.217	1031.19
650.414	1011.23
650.611	1048.82
650.808	1075.56
651.004	1035.64
651.201	1088.73
651.398	1108.88
651.595	1059.28
651.791	1043.97
651.988	1095.12
652.185	1020.34
652.381	1040.68
652.578	956.01
652.775	1050.95
652.971	1064.51
653.168	1002.51
653.364	1048.82
653.561	976.74
653.757	1014.33
653.954	1045.14
654.15	998.25
654.347	1094.74
654.543	1007.55
654.74	935.67
654.936	983.14
655.133	973.45
655.329	1002.71
655.525	962.79
655.722	1001.54
655.918	929.86
656.115	971.9
656.311	848.68
656.507	862.24
656.704	798.69
656.9	853.52
657.096	866.31
657.292	857.2
657.489	905.45
657.685	918.81
657.881	880.84
658.077	913.39
658.273	954.08
658.47	971.13
658.666	939.35
658.862	960.86
659.058	943.61
659.254	960.47
659.45	924.82
659.646	931.02
659.842	918.04
660.038	988.95
660.234	894.98
660.43	930.05
660.626	996.31
660.822	973.84
661.018	968.61
661.214	935.86
661.41	900.21
661.606	955.04
661.802	964.34
661.998	928.11
662.194	925.6
662.39	938.96
662.586	951.56
662.781	933.73
662.977	940.32
663.173	926.95
663.369	925.21
663.564	928.5
663.76	967.83
663.956	932.38
664.152	953.3
664.347	858.75
664.543	885.3
664.739	898.47
664.934	826.78
665.13	880.84
665.326	904.48
665.521	932.18
665.717	860.11
665.912	843.06
666.108	806.83
666.304	880.26
666.499	872.51
666.695	783.97
666.89	864.18
667.086	871.73
667.281	859.14
667.477	893.63
667.672	881.42
667.867	837.83
668.063	864.56
668.258	838.22
668.454	842.28
668.649	902.54
668.844	836.67
669.04	863.01
669.235	823.1
669.43	800.63
669.626	807.6
669.821	819.03
670.016	808.38
670.211	836.28
670.407	789.78
670.602	837.25
670.797	798.11
670.992	849.26
671.187	779.32
671.382	850.81
671.578	800.43
671.773	842.28
671.968	776.8
672.163	795.78
672.358	834.92
672.553	783.97
672.748	796.75
672.943	879.1
673.138	788.03
673.333	833.18
673.528	771.37
673.723	824.85
673.918	801.21
674.113	766.53
674.308	874.45
674.503	850.42
674.698	857.59
674.892	807.6
675.087	867.28
675.282	830.08
675.477	796.75
675.672	840.73
675.867	797.72
676.061	774.67
676.256	783.38
676.451	827.56
676.646	810.9
676.84	785.13
677.035	762.27
677.23	772.92
677.424	826.59
677.619	813.61
677.814	809.73
678.008	864.76
678.203	767.69
678.397	766.53
678.592	810.9
678.787	867.86
678.981	810.9
679.176	821.94
679.37	799.47
679.565	810.12
679.759	816.71
679.954	839.38
680.148	863.79
680.342	833.76
680.537	877.16
680.731	843.83
680.926	847.13
681.12	844.03
681.314	823.88
681.509	826.4
681.703	825.62
681.897	862.24
682.092	841.51
682.286	828.53
682.48	913.78
682.674	887.04
682.869	846.55
683.063	876.58
683.257	902.93
683.451	835.89
683.645	859.53
683.839	873.28
684.034	861.46
684.228	862.43
684.422	820.78
684.616	819.03
684.81	873.09
685.004	842.09
685.198	888.98
685.392	927.73
685.586	866.89
685.78	884.33
685.974	888.59
686.168	869.8
686.362	930.63
686.556	840.54
686.75	795.4
686.944	792.49
687.138	801.4
687.331	724.1
687.525	698.91
687.719	667.33
687.913	721.39
688.107	718.09
688.301	698.52
688.494	769.24
688.688	696
688.882	711.12
689.076	680.5
689.269	750.84
689.463	809.15
689.657	765.56
689.85	775.25
690.044	792.3
690.238	815.16
690.431	816.52
690.625	815.35
690.818	848.48
691.012	859.33
691.205	899.05
691.399	894.21
691.593	870.57
691.786	963.38
691.98	949.23
692.173	998.44
692.366	1002.9
692.56	1023.82
692.753	1049.01
692.947	993.02
693.14	1105.2
693.333	1092.22
693.527	1043.59
693.72	1110.43
693.914	1061.41
694.107	1097.64
694.3	1078.46
694.493	1075.94
694.687	1161.77
694.88	1135.04
695.073	1196.84
695.266	1188.9
695.46	1202.27
695.653	1255.74
695.846	1252.25
696.039	1199.94
696.232	1258.07
696.425	1294.49
696.618	1354.16
696.812	1338.47
697.005	1420.62
697.198	1508.19
697.391	1466.92
697.584	1497.73
697.777	1531.83
697.97	1527.18
698.163	1507.81
698.356	1562.44
698.549	1628.32
698.742	1546.94
698.935	1549.65
699.127	1597.51
699.32	1592.09
699.513	1600.22
699.706	1645.75
699.899	1643.23
700.092	1617.47
700.285	1689.73
700.477	1602.94
700.67	1659.51
700.863	1705.62
701.056	1771.69
701.248	1747.28
701.441	1794.55
701.634	1715.89
701.826	1814.51
702.019	1734.68
702.212	1797.26
702.404	1783.51
702.597	1771.88
702.79	1825.74
702.982	1883.87
703.175	1923.78
703.367	1946.84
703.56	1962.34
703.752	2066.19
703.945	2013.1
704.137	2057.08
704.33	2104.93
704.522	2118.5
704.715	2147.37
704.907	2149.11
705.1	2180.3
705.292	2161.51
705.484	2190.96
705.677	2185.15
705.869	2275.24
706.061	2301.39
706.254	2331.62
706.446	2278.34
706.638	2312.05
706.831	2365.14
707.023	2284.73
707.215	2420.94
707.407	2427.52
707.599	2410.28
707.792	2492.04
707.984	2442.83
708.176	2507.35
708.368	2509.48
708.56	2499.6
708.752	2542.22
708.944	2528.66
709.136	2611.58
709.329	2600.93
709.521	2705.16
709.713	2658.47
709.905	2610.23
710.097	2733.45
710.289	2682.49
710.481	2696.44
710.672	2715.82
710.864	2772.59
711.056	2866.75
711.248	2792.35
711.44	2815.02
711.632	2831.29
711.824	2869.27
712.016	2878.37
712.207	2885.74
712.399	2876.05
712.591	2967.69
712.783	2960.52
712.975	2989.78
713.166	2940.76
713.358	2954.13
713.55	3009.35
713.741	3040.35
713.933	3024.65
714.125	2993.27
714.316	3013.03
714.508	3113.78
714.7	3105.83
714.891	3060.88
715.083	3130.63
715.274	3094.6
715.466	3094.98
715.657	3126.76
715.849	3054.3
716.04	3051.97
716.232	3008.18
716.423	3009.35
716.615	2913.64
716.806	2881.09
716.998	2754.57
717.189	2694.31
717.381	2603.64
717.572	2551.72
717.763	2580
717.955	2523.23
718.146	2467.44
718.337	2388.97
718.528	2406.02
718.72	2240.75
718.911	2309.53
719.102	2252.96
719.293	2294.42
719.485	2281.83
719.676	2236.88
719.867	2214.01
720.058	2230.68
720.249	2217.5
720.44	2238.81
720.632	2352.74
720.823	2361.26
721.014	2566.25
721.205	2587.75
721.396	2636.38
721.587	2805.33
721.778	2845.44
721.969	2932.04
722.16	3004.7
722.351	3043.45
722.542	3147.1
722.733	3167.44
722.924	3063.79
723.115	3128.5
723.305	3053.71
723.496	3056.23
723.687	2909.37
723.878	2907.44
724.069	2928.75
724.26	2890.19
724.45	2867.72
724.641	2840.98
724.832	2826.26
725.023	2865.39
725.213	2853.77
725.404	2793.51
725.595	2771.62
725.785	2779.37
725.976	2893.29
726.167	2868.49
726.357	2826.84
726.548	2995.59
726.739	2850.28
726.929	2968.08
727.12	2998.88
727.31	3006.44
727.501	2936.5
727.691	2936.5
727.882	2945.8
728.072	3006.63
728.263	2960.33
728.453	3074.45
728.644	3075.61
728.834	3068.63
729.024	2989.78
729.215	2966.92
729.405	3028.92
729.596	3102.73
729.786	3093.63
729.976	3116.1
730.167	3129.08
730.357	3117.65
730.547	3086.07
730.737	3152.53
730.928	3155.24
731.118	3229.06
731.308	3151.17
731.498	3168.8
731.688	3303.45
731.879	3328.06
732.069	3318.18
732.259	3416.8
732.449	3434.43
732.639	3583.03
732.829	3562.49
733.019	3646
733.209	3696.76
733.399	3678.16
733.589	3765.74
733.779	3824.25
733.969	3850.4
734.159	3903.88
734.349	3912.4
734.539	3967.81
734.729	4024.58
734.919	4023.81
735.109	4081.74
735.299	3980.21
735.488	4050.16
735.678	4066.24
735.868	4040.28
736.058	4012.57
736.248	3967.23
736.437	3996.29
736.627	3949.41
736.817	4089.29
737.007	3999.98
737.196	4091.81
737.386	4091.62
737.576	4078.44
737.765	4143.74
737.955	4071.66
738.144	4255.53
738.334	4207.09
738.524	4103.24
738.713	4178.22
738.903	4172.6
739.092	4235.38
739.282	4171.64
739.471	4173.77
739.661	4215.04
739.85	4274.32
740.04	4249.52
740.229	4291.37
740.419	4268.32
740.608	4302.8
740.797	4270.83
740.987	4348.72
741.176	4300.48
741.365	4329.15
741.555	4280.13
741.744	4393.48
741.933	4341.75
742.123	4377.98
742.312	4381.27
742.501	4422.15
742.69	4406.26
742.88	4325.67
743.069	4456.06
743.258	4412.27
743.447	4463.03
743.636	4456.06
743.825	4451.99
744.014	4484.73
744.204	4464
744.393	4387.47
744.582	4478.73
744.771	4485.31
744.96	4471.17
745.149	4450.44
745.338	4447.92
745.527	4510.89
745.716	4452.18
745.905	4440.94
746.094	4527.94
746.283	4548.86
746.471	4513.6
746.66	4534.91
746.849	4538.98
747.038	4537.24
747.227	4502.36
747.416	4541.5
747.604	4490.35
747.793	4485.12
747.982	4480.66
748.171	4506.04
748.359	4527.94
748.548	4516.31
748.737	4484.93
748.926	4511.08
749.114	4381.27
749.303	4473.88
749.491	4472.91
749.68	4428.74
749.869	4504.69
750.057	4399.1
750.246	4445.59
750.434	4405.49
750.623	4382.63
750.811	4386.7
751	4480.28
751.188	4424.67
751.377	4363.83
751.565	4437.65
751.754	4373.52
751.942	4332.64
752.131	4441.72
752.319	4382.24
752.507	4357.83
752.696	4415.37
752.884	4412.46
753.072	4356.28
753.261	4386.11
753.449	4379.14
753.637	4340.39
753.825	4444.63
754.014	4375.26
754.202	4329.93
754.39	4360.93
754.578	4374.3
754.766	4289.63
754.955	4313.46
755.143	4376.62
755.331	4305.13
755.519	4325.08
755.707	4290.98
755.895	4276.26
756.083	4302.03
756.271	4271.8
756.459	4259.79
756.647	4294.08
756.835	4256.5
757.023	4235.96
757.211	4217.75
757.399	4187.72
757.587	4203.02
757.775	4167.37
757.963	4206.9
758.151	4187.91
758.339	4129.79
758.526	4135.99
758.714	4114.48
758.902	4001.14
759.09	3940.88
759.278	3664.41
759.465	3385.02
759.653	2962.27
759.841	2622.82
760.028	2300.23
760.216	2010.39
760.404	1837.56
760.591	1510.13
760.779	1289.26
760.967	1135.42
761.154	933.93
761.342	923.66
761.529	932.76
761.717	977.91
761.905	962.41
762.092	1045.14
762.28	967.44
762.467	962.41
762.655	889.56
762.842	871.93
763.029	913.58
763.217	924.24
763.404	868.05
763.592	941.09
763.779	900.21
763.966	965.12
764.154	976.16
764.341	1069.55
764.528	1076.52
764.716	1127.48
764.903	1204.98
765.09	1277.05
765.277	1318.51
765.465	1538.42
765.652	1571.16
765.839	1671.33
766.026	1827.68
766.213	1931.53
766.4	2017.55
766.588	2266.71
766.775	2287.83
766.962	2415.32
767.149	2520.52
767.336	2750.11
767.523	2714.66
767.71	2897.55
767.897	3007.99
768.084	3093.43
768.271	3189.53
768.458	3209.49
768.645	3303.45
768.832	3289.89
769.019	3379.79
769.206	3409.24
769.392	3485
769.579	3584
769.766	3518.32
769.953	3568.11
770.14	3618.49
770.327	3604.34
770.513	3673.12
770.7	3746.55
770.887	3663.82
771.073	3745.2
771.26	3681.07
771.447	3662.47
771.634	3683.2
771.82	3757.02
772.007	3641.35
772.193	3721.56
772.38	3722.34
772.567	3710.91
772.753	3692.31
772.94	3739.58
773.126	3725.05
773.313	3751.2
773.499	3730.09
773.686	3789.18
773.872	3674.67
774.059	3718.85
774.245	3643.48
774.432	3660.14
774.618	3574.12
774.804	3666.54
774.991	3616.94
775.177	3673.71
775.363	3634.96
775.55	3638.64
775.736	3543.9
775.922	3664.02
776.109	3632.83
776.295	3637.28
776.481	3628.95
776.667	3675.45
776.853	3571.21
777.04	3583.61
777.226	3615
777.412	3690.37
777.598	3569.66
777.784	3523.94
777.97	3580.51
778.156	3567.92
778.342	3562.11
778.528	3522
778.715	3467.75
778.901	3482.48
779.087	3555.33
779.272	3524.91
779.458	3461.94
779.644	3503.21
779.83	3474.15
780.016	3553.2
780.202	3481.9
780.388	3450.12
780.574	3384.05
780.76	3427.65
780.946	3453.03
781.131	3480.35
781.317	3425.71
781.503	3422.8
781.689	3456.71
781.874	3544.67
782.06	3413.5
782.246	3417.77
782.432	3408.08
782.617	3449.35
782.803	3450.32
782.989	3364.68
783.174	3354.02
783.36	3282.53
783.545	3387.73
783.731	3327.48
783.916	3272.26
784.102	3377.08
784.288	3281.95
784.473	3289.31
784.659	3248.04
784.844	3316.05
785.029	3276.33
785.215	3249.59
785.4	3213.36
785.586	3334.26
785.771	3216.85
785.956	3260.64
786.142	3221.5
786.327	3193.02
786.512	3181.78
786.698	3146.91
786.883	3114.55
787.068	3173.84
787.254	3181.59
787.439	3101.76
787.624	3143.42
787.809	3122.49
787.994	3046.16
788.18	3169.77
788.365	3062.43
788.55	3070.76
788.735	3073.48
788.92	3032.01
789.105	3077.16
789.29	3052.94
789.475	2982.42
789.66	2988.42
789.845	2984.93
790.03	2948.32
790.215	3015.74
790.4	2988.81
790.585	3004.31
790.77	2958.97
790.955	2924.49
791.14	2902.01
791.325	3025.23
791.51	2890.58
791.695	2938.05
791.879	2948.9
792.064	2890
792.249	2999.47
792.434	2944.83
792.618	2943.08
792.803	2995.78
792.988	2952.38
793.173	2966.33
793.357	2990.55
793.542	2920.03
793.727	2987.45
793.911	2981.83
794.096	2979.32
794.281	3008.96
794.465	3030.46
794.65	2947.35
794.834	3001.98
795.019	3032.79
795.203	3010.7
795.388	3017.29
795.572	3043.45
795.757	3002.18
795.941	3008.38
796.126	3007.41
796.31	2928.36
796.494	2910.92
796.679	2923.52
796.863	2918.29
797.048	3014
797.232	2964.59
797.416	2990.36
797.601	2957.03
797.785	3061.27
797.969	3010.12
798.153	2965.75
798.338	3026.4
798.522	3074.06
798.706	3058.17
798.89	3062.24
799.074	3147.88
799.258	3076
799.443	3020.97
799.627	3063.6
799.811	3045.96
799.995	3044.03
800.179	3005.28
800.363	2999.66
800.547	3044.22
800.731	3029.11
800.915	2928.17
801.099	2935.53
801.283	2980.09
801.467	2987.45
801.651	2976.6
801.835	3020.97
802.019	2990.55
802.202	3012.83
802.386	2916.15
802.57	2923.13
802.754	2945.8
802.938	2876.44
803.121	2963.62
803.305	2959.94
803.489	3003.15
803.673	2993.46
803.856	2993.07
804.04	2961.3
804.224	2945.8
804.407	2940.37
804.591	2929.91
804.775	2950.06
804.958	2946.57
805.142	3065.53
805.326	2981.83
805.509	3006.44
805.693	3043.64
805.876	3023.3
806.06	3042.86
806.243	3003.53
806.427	3062.05
806.61	3038.21
806.794	2995.98
806.977	3023.68
807.16	3026.01
807.344	3039.18
807.527	3007.99
807.71	2998.3
807.894	3024.46
808.077	3058.36
808.26	2952.97
808.444	2983.58
808.627	3017.68
808.81	2948.7
808.993	2882.83
809.177	2892.9
809.36	2890.19
809.543	2921.77
809.726	2820.25
809.909	2841.37
810.092	2793.32
810.276	2808.24
810.459	2806.11
810.642	2773.17
810.825	2744.3
811.008	2793.71
811.191	2662.93
811.374	2649.75
811.557	2633.48
811.74	2718.34
811.923	2625.15
812.106	2623.6
812.289	2597.25
812.472	2528.08
812.654	2570.9
812.837	2529.43
813.02	2480.22
813.203	2432.56
813.386	2348.47
813.569	2317.28
813.751	2261.09
813.934	2264.39
814.117	2229.32
814.3	2179.14
814.482	2113.27
814.665	2094.67
814.848	2072.19
815.03	2000.12
815.213	1994.89
815.396	1989.27
815.578	1935.21
815.761	1927.27
815.943	1921.26
816.126	1841.05
816.309	1836.01
816.491	1788.35
816.674	1717.25
816.856	1762.2
817.039	1736.81
817.221	1819.54
817.403	1821.48
817.586	1808.11
817.768	1787.19
817.951	1726.55
818.133	1728.48
818.315	1733.33
818.498	1807.53
818.68	1817.8
818.862	1858.68
819.045	1859.07
819.227	1856.16
819.409	1836.98
819.591	1837.18
819.774	1840.66
819.956	1787.19
820.138	1879.22
820.32	1877.09
820.502	1936.57
820.684	2042.55
820.866	2011.94
821.048	2063.28
821.231	2112.88
821.413	2093.5
821.595	2056.3
821.777	2101.83
821.959	2063.67
822.141	2118.88
822.323	1968.73
822.505	1916.81
822.686	1837.95
822.868	1789.9
823.05	1632.38
823.232	1592.47
823.414	1542.49
823.596	1647.69
823.778	1641.68
823.96	1638
824.141	1632.97
824.323	1665.71
824.505	1765.49
824.687	1803.46
824.868	1870.69
825.05	1969.51
825.232	2028.21
825.413	2085.95
825.595	2023.75
825.777	1998.76
825.958	2024.53
826.14	2002.64
826.321	2065.8
826.503	2023.37
826.685	2051.27
826.866	2059.21
827.048	2062.5
827.229	1991.4
827.411	1965.82
827.592	1856.55
827.773	1880.77
827.955	1848.41
828.136	1855.58
828.318	1799.4
828.499	1872.24
828.68	1777.31
828.862	1853.26
829.043	1832.53
829.224	1799.4
829.406	1771.3
829.587	1808.31
829.768	1761.42
829.949	1824.78
830.131	1814.7
830.312	1834.66
830.493	1817.61
830.674	1851.13
830.855	1817.99
831.036	1840.08
831.218	1883.68
831.399	1885.42
831.58	1841.05
831.761	1853.45
831.942	1830.39
832.123	1835.63
832.304	1796.3
832.485	1787.58
832.666	1831.56
832.847	1859.07
833.028	1827.88
833.209	1811.79
833.389	1815.48
833.57	1777.5
833.751	1767.62
833.932	1839.31
834.113	1820.13
834.294	1795.13
834.475	1829.81
834.655	1883.48
834.836	1862.94
835.017	1893.17
835.198	1835.82
835.378	1881.93
835.559	1921.26
835.74	1852.87
835.92	1844.34
836.101	1866.04
836.281	1895.69
836.462	1877.48
836.643	1903.44
836.823	1917.97
837.004	1940.44
837.184	1964.08
837.365	1965.44
837.545	1940.06
837.726	1922.62
837.906	1952.26
838.087	1907.89
838.267	1948.19
838.448	1884.06
838.628	1926.69
838.808	1909.06
838.989	1929.01
839.169	1913.71
839.349	1944.71
839.53	1928.62
839.71	1940.06
839.89	1888.52
840.07	1968.15
840.251	1869.73
840.431	1929.01
840.611	1887.94
840.791	1899.95
840.971	1923.97
841.151	1882.13
841.332	1894.91
841.512	1936.57
841.692	1835.82
841.872	1895.88
842.052	1881.16
842.232	1904.79
842.412	1873.02
842.592	1869.73
842.772	1953.23
842.952	1944.71
843.132	1850.35
843.312	1885.03
843.492	1842.41
843.672	1936.18
843.851	1821.09
844.031	1857.52
844.211	1849.19
844.391	1851.9
844.571	1878.83
844.751	1868.37
844.93	1888.52
845.11	1821.87
845.29	1864.11
845.47	1908.47
845.649	1853.84
845.829	1878.25
846.009	1863.72
846.188	1897.04
846.368	1842.79
846.547	1830.2
846.727	1905.96
846.907	1804.82
847.086	1842.79
847.266	1866.43
847.445	1817.99
847.625	1844.15
847.804	1830.78
847.984	1791.26
848.163	1775.95
848.343	1783.7
848.522	1831.94
848.701	1823.23
848.881	1738.75
849.06	1818.77
849.239	1783.9
849.419	1766.26
849.598	1705.43
849.777	1714.73
849.957	1707.37
850.136	1631.03
850.315	1616.69
850.494	1651.95
850.674	1676.17
850.853	1688.18
851.032	1667.45
851.211	1717.63
851.39	1721.51
851.569	1676.37
851.748	1664.93
851.927	1720.73
852.107	1686.25
852.286	1654.67
852.465	1645.95
852.644	1686.25
852.823	1703.68
853.002	1697.87
853.181	1704.27
853.359	1695.93
853.538	1626.38
853.717	1658.15
853.896	1561.86
854.075	1525.05
854.254	1470.8
854.433	1397.18
854.611	1450.07
854.79	1408.61
854.969	1469.64
855.148	1468.86
855.327	1463.82
855.505	1506.06
855.684	1492.5
855.863	1540.55
856.041	1522.14
856.22	1560.89
856.399	1511.49
856.577	1609.14
856.756	1583.75
856.934	1704.07
857.113	1722.09
857.291	1616.5
857.47	1598.09
857.648	1621.15
857.827	1604.1
858.005	1669.78
858.184	1549.27
858.362	1655.25
858.541	1645.37
858.719	1607.78
858.898	1573.87
859.076	1575.23
859.254	1654.28
859.433	1611.07
859.611	1558.37
859.789	1538.22
859.967	1627.54
860.146	1581.82
860.324	1530.86
860.502	1561.28
860.68	1506.45
860.859	1497.92
861.037	1543.46
861.215	1569.42
861.393	1539.58
861.571	1544.62
861.749	1527.37
861.927	1551.4
862.105	1522.53
862.283	1528.92
862.461	1530.86
862.639	1501.41
862.817	1502.96
862.995	1516.14
863.173	1494.05
863.351	1521.17
863.529	1529.51
863.707	1548.88
863.885	1563.6
864.063	1458.59
864.241	1486.69
864.418	1560.7
864.596	1479.52
864.774	1451.43
864.952	1471.19
865.129	1513.62
865.307	1464.41
865.485	1383.23
865.663	1493.08
865.84	1351.26
866.018	1404.54
866.196	1284.8
866.373	1287.51
866.551	1259.81
866.728	1192.58
866.906	1277.83
867.084	1282.09
867.261	1341.38
867.439	1289.26
867.616	1369.86
867.794	1359.78
867.971	1332.08
868.149	1345.06
868.326	1428.76
868.503	1407.64
868.681	1365.4
868.858	1324.33
869.035	1350.68
869.213	1405.89
869.39	1358.81
869.567	1396.79
869.745	1374.7
869.922	1369.28
870.099	1407.44
870.276	1390.01
870.454	1402.02
870.631	1380.9
870.808	1335.95
870.985	1407.06
871.162	1418.1
871.339	1371.02
871.517	1321.03
871.694	1315.22
871.871	1351.26
872.048	1332.85
872.225	1294.49
872.402	1327.81
872.579	1269.88
872.756	1312.51
872.933	1297.59
873.11	1313.67
873.287	1330.53
873.463	1294.1
873.64	1269.88
873.817	1322.78
873.994	1297.4
874.171	1254.77
874.348	1290.03
874.524	1257.1
874.701	1290.42
874.878	1254.58
875.055	1290.23
875.231	1262.91
875.408	1302.63
875.585	1211.76
875.762	1248.38
875.938	1259.42
876.115	1243.15
876.291	1212.53
876.468	1231.52
876.645	1197.42
876.821	1219.7
876.998	1203.82
877.174	1250.12
877.351	1208.47
877.527	1215.05
877.704	1226.68
877.88	1223.38
878.057	1210.02
878.233	1233.07
878.409	1210.02
878.586	1225.52
878.762	1159.06
878.938	1183.09
879.115	1126.7
879.291	1208.47
879.467	1170.3
879.644	1150.15
879.82	1184.25
879.996	1136
880.172	1088.15
880.349	1144.14
880.525	1156.15
880.701	1099.39
880.877	1110.62
881.053	1158.09
881.229	1151.89
881.405	1168.55
881.581	1108.3
881.757	1133.49
881.933	1157.32
882.109	1158.29
882.285	1164.49
882.461	1096.87
882.637	1148.4
882.813	1100.55
882.989	1114.69
883.165	1186.19
883.341	1120.5
883.517	1161.77
883.693	1148.6
883.869	1154.02
884.044	1127.09
884.22	1163.71
884.396	1208.85
884.572	1177.47
884.747	1233.85
884.923	1142.2
885.099	1166.42
885.275	1181.15
885.45	1118.37
885.626	1152.09
885.801	1107.72
885.977	1134.07
886.153	1071.68
886.328	1140.65
886.504	1093.96
886.679	1138.33
886.855	1094.54
887.03	1160.61
887.206	1162.55
887.381	1094.35
887.557	1149.95
887.732	1126.12
887.908	1152.86
888.083	1155.38
888.258	1118.37
888.434	1093.38
888.609	1127.09
888.784	1187.93
888.96	1108.3
889.135	1129.8
889.31	1112.17
889.485	1134.45
889.661	1136.59
889.836	1158.29
890.011	1129.22
890.186	1098.03
890.361	1117.21
890.537	1153.44
890.712	1120.89
890.887	1139.49
891.062	1106.36
891.237	1183.09
891.412	1087.37
891.587	1118.57
891.762	1137.17
891.937	1207.3
892.112	1100.74
892.287	1108.3
892.462	1069.74
892.637	1014.14
892.812	1028.47
892.987	1000.77
893.161	1004.06
893.336	996.7
893.511	1022.27
893.686	1055.79
893.861	992.44
894.035	1006
894.21	1021.69
894.385	966.48
894.56	1003.87
894.734	934.7
894.909	937.03
895.084	925.4
895.258	903.31
895.433	903.31
895.608	874.64
895.782	831.63
895.957	854.68
896.131	850.23
896.306	768.27
896.48	782.42
896.655	812.06
896.829	717.51
897.004	704.34
897.178	706.66
897.353	713.05
897.527	769.24
897.701	748.12
897.876	694.65
898.05	765.17
898.224	757.81
898.399	796.37
898.573	731.65
898.747	647.76
898.921	680.12
899.096	566
899.27	570.65
899.444	577.63
899.618	656.67
899.792	661.52
899.967	658.22
900.141	684.38
900.315	647.96
900.489	625.09
900.663	631.87
900.837	625.48
901.011	572.2
901.185	695.23
901.359	621.61
901.533	640.79
901.707	627.81
901.881	649.89
902.055	576.46
902.229	629.74
902.403	691.74
902.576	651.25
902.75	664.81
902.924	744.05
903.098	711.7
903.272	764.98
903.446	813.22
903.619	756.84
903.793	817.48
903.967	811.48
904.14	824.46
904.314	861.08
904.488	796.37
904.661	815.16
904.835	818.07
905.009	826.2
905.182	873.67
905.356	860.5
905.529	830.66
905.703	781.83
905.876	788.81
906.05	762.46
906.223	724.49
906.397	696.59
906.57	694.07
906.744	662.87
906.917	671.79
907.09	633.62
907.264	626.64
907.437	617.34
907.61	575.88
907.784	599.91
907.957	616.96
908.13	572.01
908.304	637.3
908.477	572.59
908.65	543.14
908.823	541.59
908.996	598.16
909.17	546.04
909.343	546.82
909.516	581.11
909.689	554.76
909.862	543.91
910.035	541.2
910.208	535
910.381	507.68
910.554	600.1
910.727	550.89
910.9	565.23
911.073	518.92
911.246	584.41
911.419	599.71
911.592	572.2
911.765	531.13
911.938	525.7
912.11	581.69
912.283	564.26
912.456	579.76
912.629	568.33
912.802	526.86
912.974	482.88
913.147	456.53
913.32	415.65
913.493	436.77
913.665	471.26
913.838	482.3
914.01	451.69
914.183	484.82
914.356	478.04
914.528	519.89
914.701	568.13
914.873	528.61
915.046	460.8
915.218	452.08
915.391	393.76
915.563	386.4
915.736	459.83
915.908	485.21
916.081	482.11
916.253	460.8
916.425	520.08
916.598	518.92
916.77	487.73
916.942	470.87
917.115	392.4
917.287	435.8
917.459	411.39
917.632	395.89
917.804	362.37
917.976	436.58
918.148	461.38
918.32	466.41
918.493	487.34
918.665	529.77
918.837	481.72
919.009	541.01
919.181	533.45
919.353	524.93
919.525	524.93
919.697	509.43
919.869	521.83
920.041	571.23
920.213	634.59
920.385	541.2
920.557	513.49
920.729	524.54
920.901	535.58
921.073	524.93
921.244	492.57
921.416	555.93
921.588	514.27
921.76	479.98
921.932	588.09
922.103	522.79
922.275	498.19
922.447	532.87
922.619	446.46
922.79	517.76
922.962	487.92
923.134	502.26
923.305	455.37
923.477	451.3
923.648	441.23
923.82	439.87
923.991	405.19
924.163	407.52
924.335	427.66
924.506	421.85
924.677	484.82
924.849	422.43
925.02	454.98
925.192	471.65
925.363	433.67
925.535	440.65
925.706	422.63
925.877	502.84
926.049	416.81
926.22	420.88
926.391	436.96
926.562	470.87
926.734	428.05
926.905	470.29
927.076	371.48
927.247	400.35
927.419	361.21
927.59	349.78
927.761	357.92
927.932	327.3
928.103	341.83
928.274	309.09
928.445	273.64
928.616	307.74
928.787	299.99
928.958	349.78
929.129	314.13
929.3	268.79
929.471	265.89
929.642	207.76
929.813	164.36
929.984	244.19
930.155	175.02
930.326	254.65
930.496	211.25
930.667	160.29
930.838	185.29
931.009	137.63
931.18	165.14
931.35	162.23
931.521	172.11
931.692	132.98
931.863	65.16
932.033	119.61
932.204	118.25
932.374	102.56
932.545	60.13
932.716	161.65
932.886	134.53
933.057	65.16
933.227	62.06
933.398	124.45
933.568	65.55
933.739	40.56
933.909	34.94
934.08	77.37
934.25	12.27
934.421	17.7
934.591	51.41
934.761	63.42
934.932	30.68
935.102	58.58
935.272	64.97
935.443	61.87
935.613	19.05
935.783	70.59
935.953	7.23
936.123	150.41
936.294	44.24
936.464	30.48
936.634	33
936.804	33.58
936.974	21.57
937.144	59.16
937.314	40.95
937.484	35.33
937.655	17.31
937.825	68.26
937.995	20.41
938.165	86.09
938.334	65.36
938.504	52.96
938.674	45.01
938.844	74.08
939.014	123.09
939.184	117.09
939.354	133.94
939.524	143.05
939.694	100.62
939.863	95.97
940.033	151.77
940.203	145.96
940.373	123.87
940.542	127.55
940.712	93.64
940.882	121.74
941.051	116.12
941.221	140.34
941.391	151.77
941.56	89.58
941.73	95.78
941.899	161.65
942.069	90.74
942.238	119.61
942.408	80.86
942.577	90.74
942.747	58
942.916	51.8
943.086	67.49
943.255	119.03
943.425	84.93
943.594	74.27
943.763	12.46
943.933	54.12
944.102	12.27
944.271	64
944.441	120.38
944.61	55.09
944.779	84.15
944.948	143.05
945.117	25.25
945.287	86.86
945.456	21.96
945.625	48.89
945.794	78.14
945.963	39.59
946.132	96.16
946.301	71.56
946.47	88.61
946.639	27
946.808	41.33
946.977	95.78
947.146	91.9
947.315	30.29
947.484	82.02
947.653	90.74
947.822	38.23
947.991	46.76
948.16	148.67
948.329	114.38
948.498	92.09
948.666	81.05
948.835	93.26
949.004	59.54
949.173	29.9
949.341	79.31
949.51	81.44
949.679	99.65
949.847	77.76
950.016	154.48
950.185	140.34
950.353	67.88
950.522	85.51
950.69	129.88
950.859	39.2
951.028	132.2
951.196	97.33
951.365	57.22
951.533	68.26
951.701	100.23
951.87	105.46
952.038	29.13
952.207	58.77
952.375	122.9
952.543	58.96
952.712	70.01
952.88	59.54
953.048	139.76
953.217	76.4
953.385	71.56
953.553	113.02
953.721	52.38
953.89	93.26
954.058	47.34
954.226	49.86
954.394	72.33
954.562	21.57
954.73	67.49
954.898	55.67
955.067	102.36
955.235	57.61
955.403	109.34
955.571	137.24
955.739	68.84
955.907	48.7
956.075	62.26
956.243	48.31
956.41	85.51
956.578	45.79
956.746	41.91
956.914	55.86
957.082	96.36
957.25	101.39
957.418	77.37
957.585	76.59
957.753	125.23
957.921	72.53
958.089	82.41
958.256	104.69
958.424	106.24
958.592	99.84
958.759	67.49
958.927	105.85
959.095	58.58
959.262	53.73
959.43	85.51
959.597	66.71
959.765	72.14
959.932	51.41
960.1	108.76
960.267	81.05
960.435	76.4
960.602	115.93
960.77	55.86
960.937	51.21
961.104	92.29
961.272	40.56
961.439	64
961.606	89.19
961.774	108.37
961.941	75.82
962.108	94.81
962.275	88.99
962.443	118.06
962.61	110.31
962.777	168.62
962.944	115.93
963.111	86.86
963.278	108.76
963.446	94.23
963.613	110.69
963.78	91.51
963.947	87.83
964.114	114.76
964.281	151.96
964.448	116.12
964.615	66.91
964.782	119.61
964.949	136.85
965.116	100.23
965.282	134.33
965.449	94.03
965.616	69.81
965.783	101.59
965.95	120.77
966.117	59.16
966.283	82.41
966.45	129.1
966.617	96.16
966.784	141.11
966.95	127.16
967.117	146.34
967.284	115.15
967.45	69.43
967.617	138.01
967.784	140.73
967.95	164.17
968.117	130.07
968.283	151.19
968.45	202.34
968.616	131.04
968.783	151.38
968.949	157.19
969.116	170.17
969.282	123.29
969.449	134.53
969.615	123.87
969.781	100.04
969.948	117.48
970.114	93.45
970.28	192.65
970.447	131.81
970.613	202.53
970.779	119.8
970.945	142.47
971.112	127.74
971.278	119.41
971.444	122.71
971.61	132.98
971.776	116.7
971.942	130.84
972.108	155.84
972.275	117.86
972.441	141.89
972.607	170.17
972.773	108.76
972.939	141.11
973.105	115.15
973.271	84.15
973.437	105.66
973.602	108.76
973.768	140.34
973.934	92.09
974.1	103.72
974.266	72.53
974.432	135.11
974.598	115.54
974.763	157.97
974.929	92.48
975.095	158.74
975.261	105.85
975.426	90.16
975.592	113.41
975.758	143.63
975.923	78.14
976.089	112.05
976.255	125.42
976.42	113.6
976.586	126.58
976.751	125.03
976.917	194.59
977.082	131.81
977.248	79.11
977.413	37.85
977.579	77.76
977.744	87.06
977.91	88.99
978.075	87.83
978.24	119.8
978.406	104.3
978.571	81.63
978.736	76.79
978.902	137.63
979.067	89.77
979.232	41.72
979.397	115.15
979.563	165.33
979.728	77.18
979.893	114.57
980.058	64
980.223	143.05
980.388	107.98
980.554	99.07
980.719	96.16
980.884	83.38
981.049	140.34
981.214	84.93
981.379	120.19
981.544	102.94
981.709	97.52
981.874	114.38
982.039	100.04
982.204	140.53
982.368	83.57
982.533	85.12
982.698	134.72
982.863	122.13
983.028	91.71
983.193	122.32
983.357	98.1
983.522	101.98
983.687	97.33
983.852	105.66
984.016	90.93
984.181	95.39
984.346	137.43
984.51	113.99
984.675	79.11
984.839	130.84
985.004	128.52
985.168	157.77
985.333	112.05
985.498	85.12
985.662	119.03
985.827	130.07
985.991	129.1
986.155	113.21
986.32	140.14
986.484	172.5
986.649	128.13
986.813	59.54
986.977	106.43
987.142	112.44
987.306	70.98
987.47	83.38
987.634	89.96
987.799	117.28
987.963	116.89
988.127	85.7
988.291	149.44
988.455	112.63
988.62	77.56
988.784	129.29
988.948	126.78
989.112	86.28
989.276	119.22
989.44	104.3
989.604	94.61
989.768	98.68
989.932	173.08
990.096	88.61
990.26	58.96
990.424	54.12
990.588	116.7
990.752	160.1
990.915	124.45
991.079	101.2
991.243	76.59
991.407	129.88
991.571	95.78
991.734	126.19
991.898	111.47
992.062	195.17
992.226	113.02
992.389	84.73
992.553	36.88
992.717	82.21
992.88	92.48
993.044	119.22
993.207	84.15
993.371	102.56
993.535	100.81
993.698	91.13
993.862	114.38
994.025	114.18
994.189	100.43
994.352	108.37
994.515	113.99
994.679	124.26
994.842	95.78
995.006	138.59
995.169	69.62
995.332	82.79
995.496	106.63
995.659	39.98
995.822	93.26
995.985	114.96
996.149	128.71
996.312	100.43
996.475	133.94
996.638	72.53
996.801	130.46
996.964	159.91
997.128	77.56
997.291	83.57
997.454	96.16
997.617	65.94
997.78	151.38
997.943	64.78
998.106	124.45
998.269	69.04
998.432	61.29
998.595	75.24
998.758	42.5
998.92	65.94
999.083	41.14
999.246	68.65
999.409	47.53
999.572	27.58
999.735	67.68
999.897	82.21
1000.06	72.33
1000.223	54.12
1000.386	121.35
1000.548	100.23
1000.711	84.73
1000.874	67.68
1001.036	32.23
1001.199	106.04
1001.361	71.56
1001.524	70.78
1001.687	101.78
1001.849	46.95
1002.012	94.42
1002.174	76.21
1002.337	90.74
1002.499	32.81
1002.661	120.38
1002.824	43.08
1002.986	51.21
1003.149	63.81
1003.311	41.14
1003.473	114.76
1003.636	61.68
1003.798	53.35
1003.96	42.5
1004.123	70.01
1004.285	70.01
1004.447	66.71
1004.609	58.58
1004.771	115.34
1004.933	40.17
1005.096	56.25
1005.258	30.1
1005.42	46.18
1005.582	109.92
1005.744	83.57
1005.906	35.52
1006.068	50.25
1006.23	26.61
1006.392	23.51
1006.554	38.43
1006.716	117.67
1006.878	77.76
1007.04	1.03
1007.202	46.95
1007.363	62.06
1007.525	55.48
1007.687	89.96
1007.849	90.54
1008.011	35.71
1008.172	18.66
1008.334	48.31
1008.496	62.06
1008.658	30.1
1008.819	9.17
1008.981	22.93
1009.143	37.26
1009.304	33.2
1009.466	79.89
1009.627	102.56
1009.789	147.89
1009.95	50.25
1010.112	33
1010.273	53.73
1010.435	26.22
1010.596	47.34
1010.758	54.31
1010.919	38.81
1011.081	25.64
1011.242	39.78
1011.403	84.54
1011.565	58.38
1011.726	56.06
1011.887	13.05
1012.049	45.6
1012.21	76.4
1012.371	92.48
1012.532	-21.05
1012.693	46.95
1012.855	19.63
1013.016	57.61
1013.177	85.7
1013.338	46.37
1013.499	98.88
1013.66	69.43
1013.821	66.52
1013.982	44.82
1014.143	56.06
1014.304	35.71
1014.465	82.6
1014.626	121.16
1014.787	40.36
1014.948	128.13
1015.109	-28.61
1015.27	90.16
1015.431	51.99
1015.592	39.01
1015.752	101.59
1015.913	44.05
1016.074	44.82
1016.235	30.87
1016.395	42.88
1016.556	52.18
1016.717	41.33
1016.877	73.11
1017.038	29.9
1017.199	82.02
1017.359	55.28
1017.52	33.78
1017.681	4.71
1017.841	42.69
1018.002	37.65
1018.162	29.71
1018.323	86.67
1018.483	53.15
1018.644	18.66
1018.804	39.2
1018.964	3.94
1019.125	39.98
1019.285	50.83
1019.446	11.69
1019.606	13.82
1019.766	-4.97
1019.926	51.8
1020.087	40.56
1020.247	10.33
1020.407	28.93
1020.567	89.96
1020.728	24.28
1020.888	8.01
1021.048	-0.9
1021.208	-15.44
1021.368	45.01
1021.528	70.01
1021.688	39.2
1021.848	66.33
1022.008	35.91
1022.168	32.61
1022.328	31.06
1022.488	46.37
1022.648	42.5
1022.808	12.66
1022.968	61.87
1023.128	14.4
1023.288	15.76
1023.448	15.56
1023.608	58
1023.767	60.13
1023.927	-15.24
1024.087	28.74
1024.247	-23.77
1024.406	18.86
1024.566	-20.47
1024.726	8.59
1024.885	41.14
1025.045	49.86
1025.205	26.61
1025.364	5.3
1025.524	40.17
1025.683	9.95
1025.843	25.06
1026.003	30.48
1026.162	85.31
1026.321	76.01
1026.481	42.5
1026.64	22.54
1026.8	52.57
1026.959	58.96
1027.119	17.5
1027.278	31.06
1027.437	-2.26
1027.597	38.81
1027.756	57.03
1027.915	41.72
1028.074	56.83
1028.234	-10.01
1028.393	46.18
1028.552	26.03
1028.711	-37.91
1028.87	70.2
1029.03	-11.75
1029.189	21.96
1029.348	-26.09
1029.507	31.65
1029.666	14.01
1029.825	-12.34
1029.984	-4.78
1030.143	15.37
1030.302	3.16
1030.461	-39.07
1030.62	20.8
1030.779	48.5
1030.938	11.11
1031.097	6.07
1031.255	54.12
1031.414	88.41
1031.573	87.64
1031.732	-38.88
1031.891	2.39
1032.049	64.78
1032.208	28.55
1032.367	17.31
1032.525	34.55
1032.684	31.06
1032.843	31.45
1033.001	-14.08
1033.16	148.09
1033.319	57.8
1033.477	34.75
1033.636	-19.31
1033.794	-1.68
1033.953	33.78
1034.111	25.45
1034.27	6.85
1034.428	45.79
1034.587	-6.33
1034.745	15.56
1034.903	14.01
1035.062	55.48
1035.22	2.97
1035.378	39.01
1035.537	-13.3
1035.695	23.51
1035.853	9.36
1036.011	33.58
1036.17	18.66
1036.328	-21.64
1036.486	34.94
1036.644	30.48
1036.802	-51.28
1036.96	8.4
1037.119	13.43
1037.277	1.23
1037.435	-20.86
1037.593	-27.45
1037.751	3.36
1037.909	33.2
1038.067	33.2
