Data from gum_young_FLMT105791__122__17-40-50-040.txt Node

Date: Mon Mar 20 17:40:50 GMT 2023
User: antho
Spectrometer: FLMT10579
Trigger mode: 0
Integration Time (sec): 1.000000E-1
Scans to average: 10
Electric dark correction enabled: true
Nonlinearity correction enabled: false
Boxcar width: 0
XAxis mode: Wavelengths
Number of Pixels in Spectrum: 3648
>>>>>Begin Spectral Data<<<<<
345.248	-156.01
345.464	-156.01
345.681	-156.01
345.898	-149.43
346.114	-141.1
346.331	-13.03
346.548	29.59
346.764	8.48
346.981	0.73
347.197	-26.4
347.414	10.41
347.631	-45.58
347.847	59.04
348.064	11.19
348.28	34.05
348.497	-42.48
348.713	-26.01
348.93	44.32
349.146	46.45
349.363	-1.21
349.579	8.48
349.796	12.74
350.012	-27.17
350.229	50.71
350.445	6.93
350.661	-6.44
350.878	8.48
351.094	30.56
351.311	23.2
351.527	10.41
351.743	-10.32
351.96	23.78
352.176	24.36
352.392	29.98
352.609	29.59
352.825	1.11
353.041	34.63
353.257	-3.92
353.474	-3.92
353.69	11.77
353.906	15.65
354.122	-27.17
354.339	64.08
354.555	21.65
354.771	-6.64
354.987	58.08
355.203	33.28
355.42	-15.35
355.636	-4.7
355.852	-10.12
356.068	11.77
356.284	-36.86
356.5	53.62
356.716	14.1
356.932	26.69
357.148	36.38
357.364	24.36
357.58	66.6
357.796	56.91
358.012	59.04
358.228	26.69
358.444	-51.59
358.66	71.83
358.876	17
359.092	20.49
359.308	21.46
359.524	53.81
359.74	-2.57
359.956	-9.35
360.172	8.28
360.388	32.89
360.604	-4.31
360.819	60.4
361.035	30.56
361.251	34.24
361.467	11.19
361.683	43.74
361.898	23.39
362.114	40.06
362.33	37.15
362.546	56.53
362.762	1.31
362.977	20.49
363.193	-8.96
363.409	55.36
363.624	-10.51
363.84	10.03
364.056	-2.37
364.271	29.4
364.487	14.1
364.703	21.46
364.918	6.35
365.134	15.26
365.35	14.68
365.565	102.06
365.781	25.14
365.996	46.64
366.212	63.11
366.427	29.4
366.643	13.13
366.858	29.98
367.074	-14
367.289	87.33
367.505	104.19
367.72	-14.39
367.936	16.61
368.151	48.97
368.367	28.24
368.582	41.8
368.798	28.24
369.013	60.01
369.228	16.42
369.444	4.8
369.659	32.69
369.874	57.69
370.09	67.57
370.305	-31.82
370.52	9.45
370.736	69.12
370.951	26.11
371.166	74.35
371.381	83.46
371.597	54.78
371.812	-2.37
372.027	5.18
372.242	-4.5
372.458	92.56
372.673	58.66
372.888	15.65
373.103	67.38
373.318	90.63
373.533	49.74
373.749	37.93
373.964	0.92
374.179	91.21
374.394	3.63
374.609	64.47
374.824	-9.74
375.039	78.03
375.254	5.57
375.469	70.48
375.684	34.24
375.899	66.02
376.114	24.75
376.329	44.51
376.544	57.69
376.759	45.29
376.974	4.6
377.189	29.01
377.404	22.04
377.619	72.03
377.834	-32.6
378.049	2.86
378.264	-5.47
378.478	20.1
378.693	-14.58
378.908	53.81
379.123	0.53
379.338	51.88
379.553	51.29
379.767	48.78
379.982	49.16
380.197	69.7
380.412	-2.76
380.626	26.3
380.841	108.06
381.056	61.37
381.271	76.09
381.485	17.39
381.7	15.06
381.915	44.13
382.129	24.36
382.344	24.36
382.559	28.24
382.773	59.04
382.988	-29.5
383.202	46.45
383.417	8.86
383.632	105.74
383.846	42.38
384.061	34.24
384.275	24.56
384.49	40.06
384.704	65.05
384.919	31.92
385.133	33.28
385.348	73.96
385.562	7.7
385.777	71.06
385.991	47.42
386.206	21.65
386.42	19.91
386.634	90.04
386.849	55.75
387.063	50.71
387.277	1.89
387.492	8.28
387.706	10.8
387.92	41.8
388.135	76.87
388.349	38.7
388.563	16.81
388.778	65.63
388.992	70.28
389.206	63.11
389.42	106.71
389.635	72.8
389.849	57.11
390.063	75.13
390.277	44.32
390.491	119.11
390.706	70.28
390.92	62.73
391.134	61.56
391.348	66.99
391.562	-8.19
391.776	42.77
391.99	15.65
392.205	48.19
392.419	21.65
392.633	30.18
392.847	85.98
393.061	20.88
393.275	104.38
393.489	15.45
393.703	46.64
393.917	89.27
394.131	29.79
394.345	50.91
394.559	59.82
394.773	62.14
394.986	57.88
395.2	66.6
395.414	78.03
395.628	20.3
395.842	59.43
396.056	54.39
396.27	6.15
396.484	81.91
396.697	55.56
396.911	91.98
397.125	67.57
397.339	91.59
397.553	71.83
397.766	82.1
397.98	72.61
398.194	118.91
398.408	58.27
398.621	87.91
398.835	97.6
399.049	68.15
399.262	129.76
399.476	105.93
399.69	94.5
399.903	160.57
400.117	94.11
400.331	127.05
400.544	43.16
400.758	179.36
400.971	105.16
401.185	105.74
401.398	34.44
401.612	136.93
401.826	118.91
402.039	95.66
402.253	58.85
402.466	105.93
402.68	91.01
402.893	100.51
403.106	109.81
403.32	81.91
403.533	115.04
403.747	115.62
403.96	97.6
404.174	128.02
404.387	59.24
404.6	98.18
404.814	125.69
405.027	109.61
405.24	119.69
405.454	93.34
405.667	134.22
405.88	47.81
406.094	122.4
406.307	144.1
406.52	97.21
406.733	83.65
406.947	59.43
407.16	164.83
407.373	153.01
407.586	106.71
407.799	64.66
408.012	124.53
408.226	124.53
408.439	171.22
408.652	85.01
408.865	142.36
409.078	134.99
409.291	132.67
409.504	75.51
409.717	137.12
409.93	126.47
410.143	114.84
410.357	76.87
410.57	64.08
410.783	113.87
410.996	121.43
411.209	117.56
411.421	136.74
411.634	121.04
411.847	98.57
412.06	122.79
412.273	108.45
412.486	145.84
412.699	197.77
412.912	144.49
413.125	162.31
413.338	133.25
413.55	123.17
413.763	140.81
413.976	133.25
414.189	109.42
414.402	130.34
414.615	187.89
414.827	124.92
415.04	149.33
415.253	144.87
415.466	179.17
415.678	221.21
415.891	120.46
416.104	150.3
416.316	114.26
416.529	129.37
416.742	176.65
416.954	202.42
417.167	138.29
417.38	132.28
417.592	170.06
417.805	121.82
418.017	111.36
418.23	153.4
418.442	143.52
418.655	109.61
418.868	143.13
419.08	169.29
419.293	162.31
419.505	174.32
419.718	163.86
419.93	196.02
420.142	138.29
420.355	180.33
420.567	169.67
420.78	168.71
420.992	152.62
421.205	229.74
421.417	135.96
421.629	154.37
421.842	130.54
422.054	111.36
422.266	194.67
422.479	217.53
422.691	131.7
422.903	188.66
423.115	124.34
423.328	154.76
423.54	182.66
423.752	171.03
423.964	116.2
424.177	166.38
424.389	150.3
424.601	268.49
424.813	173.94
425.025	213.65
425.238	216.17
425.45	179.17
425.662	148.56
425.874	468.82
426.086	169.09
426.298	189.24
426.51	212.69
426.722	159.79
426.934	156.5
427.146	220.63
427.358	118.72
427.57	213.27
427.782	181.11
427.994	152.43
428.206	161.73
428.418	160.18
428.63	188.86
428.842	203
429.054	209.39
429.266	211.52
429.478	149.72
429.69	172.19
429.902	124.34
430.114	228.77
430.325	188.66
430.537	154.56
430.749	149.91
430.961	121.24
431.173	164.25
431.384	173.16
431.596	135.38
431.808	166.38
432.02	208.81
432.231	229.54
432.443	235.55
432.655	225.47
432.867	145.26
433.078	216.56
433.29	248.72
433.502	251.24
433.713	219.66
433.925	219.08
434.136	250.08
434.348	178.97
434.56	161.54
434.771	277.79
434.983	169.09
435.194	197.96
435.406	198.54
435.617	234.77
435.829	278.56
436.04	247.17
436.252	255.12
436.463	256.28
436.675	256.86
436.886	248.72
437.098	274.1
437.309	321.96
437.521	242.72
437.732	257.64
437.943	241.36
438.155	232.64
438.366	214.62
438.578	276.04
438.789	237.1
439	263.84
439.211	242.33
439.423	226.44
439.634	257.83
439.845	263.45
440.057	262.48
440.268	262.48
440.479	266.55
440.69	277.59
440.902	244.65
441.113	248.92
441.324	243.3
441.535	255.12
441.746	318.86
441.957	225.09
442.168	253.18
442.38	296.19
442.591	291.35
442.802	252.99
443.013	265
443.224	281.85
443.435	280.69
443.646	261.51
443.857	261.9
444.068	284.18
444.279	264.03
444.49	345.02
444.701	281.27
444.912	352.57
445.123	332.03
445.334	302.2
445.545	297.93
445.756	305.88
445.967	252.02
446.178	304.52
446.388	352.77
446.599	330.48
446.81	321.57
447.021	284.18
447.232	338.62
447.443	345.4
447.653	302.78
447.864	354.7
448.075	323.32
448.286	372.33
448.496	308.2
448.707	354.9
448.918	325.25
449.129	401.98
449.339	308.59
449.55	351.6
449.761	330.29
449.971	393.26
450.182	320.8
450.393	370.59
450.603	355.09
450.814	393.65
451.024	364.58
451.235	390.35
451.446	405.66
451.656	420.77
451.867	333.97
452.077	396.16
452.288	429.68
452.498	416.7
452.709	378.92
452.919	390.74
453.13	332.81
453.34	384.15
453.55	315.57
453.761	389.77
453.971	382.21
454.182	401.01
454.392	394.42
454.602	413.99
454.813	397.71
455.023	412.25
455.233	360.9
455.444	368.07
455.654	322.54
455.864	384.35
456.075	351.02
456.285	357.22
456.495	370.2
456.705	425.23
456.916	450.22
457.126	444.21
457.336	407.01
457.546	336.49
457.756	366.72
457.967	436.85
458.177	380.08
458.387	383.57
458.597	380.86
458.807	399.26
459.017	370.4
459.227	376.21
459.437	394.23
459.647	407.98
459.857	435.88
460.068	399.26
460.278	425.61
460.488	436.85
460.698	479.67
460.908	414.76
461.117	387.25
461.327	395.78
461.537	432.78
461.747	444.02
461.957	435.5
462.167	517.84
462.377	454.48
462.587	438.98
462.797	467.85
463.007	452.74
463.216	448.09
463.426	488.78
463.636	496.33
463.846	413.8
464.056	428.91
464.265	489.74
464.475	438.6
464.685	451.38
464.895	482.19
465.104	441.11
465.314	477.93
465.524	428.52
465.733	421.55
465.943	523.65
466.153	489.94
466.362	453.9
466.572	472.11
466.782	462.43
466.991	481.22
467.201	479.67
467.41	435.5
467.62	458.94
467.829	451.19
468.039	492.46
468.249	473.66
468.458	472.5
468.668	480.25
468.877	486.64
469.086	526.56
469.296	525.78
469.505	465.91
469.715	569.76
469.924	517.84
470.134	554.65
470.343	532.56
470.552	500.98
470.762	499.24
470.971	469.79
471.18	529.66
471.39	487.81
471.599	486.84
471.808	538.38
472.018	485.29
472.227	544.19
472.436	568.21
472.645	536.63
472.855	526.94
473.064	588.94
473.273	558.52
473.482	590.3
473.691	574.02
473.901	552.32
474.11	531.79
474.319	626.34
474.528	547.67
474.737	636.99
474.946	607.54
475.155	605.02
475.364	621.88
475.573	614.13
475.783	626.14
475.992	623.62
476.201	622.66
476.41	582.55
476.619	566.27
476.828	617.62
477.037	588.56
477.245	574.8
477.454	668.19
477.663	617.04
477.872	591.85
478.081	670.51
478.29	629.05
478.499	724.57
478.708	664.5
478.917	715.27
479.125	638.54
479.334	644.94
479.543	646.49
479.752	688.14
479.961	685.04
480.169	743.94
480.378	666.64
480.587	798.38
480.796	712.17
481.004	727.86
481.213	748.2
481.422	757.89
481.63	705.39
481.839	772.62
482.048	801.48
482.256	764.28
482.465	776.88
482.674	768.74
482.882	770.68
483.091	856.51
483.299	776.68
483.508	805.75
483.716	783.85
483.925	787.15
484.134	756.15
484.342	761.38
484.551	813.5
484.759	836.75
484.967	842.17
485.176	823.18
485.384	821.05
485.593	829.58
485.801	813.5
486.01	781.14
486.218	754.4
486.426	693.18
486.635	721.27
486.843	725.73
487.051	773.39
487.26	742.58
487.468	764.67
487.676	817.37
487.885	788.7
488.093	804.2
488.301	873.95
488.509	876.46
488.717	900.1
488.926	877.24
489.134	881.11
489.342	883.44
489.55	845.66
489.758	880.34
489.967	877.82
490.175	993.29
490.383	902.04
490.591	960.94
490.799	907.08
491.007	972.76
491.215	940.59
491.423	949.7
491.631	943.89
491.839	945.44
492.047	947.57
492.255	912.31
492.463	908.63
492.671	910.18
492.879	1000.46
493.087	930.52
493.295	968.49
493.503	958.81
493.711	1005.5
493.919	1003.56
494.127	1009.57
494.334	997.36
494.542	962.68
494.75	1014.8
494.958	1002.01
495.166	1066.92
495.374	1066.53
495.581	1035.92
495.789	1045.99
495.997	1074.09
496.205	1042.12
496.412	1027.78
496.62	1016.54
496.828	1040.96
497.035	1053.55
497.243	1096.37
497.451	1070.4
497.658	1097.92
497.866	1097.92
498.074	1117.29
498.281	1076.99
498.489	1147.13
498.696	1073.31
498.904	1073.31
499.112	1055.68
499.319	1150.62
499.527	1088.04
499.734	1144.22
499.942	1072.73
500.149	1112.64
500.357	1119.04
500.564	1092.49
500.771	1130.27
500.979	1118.65
501.186	1101.79
501.394	1153.91
501.601	1116.13
501.808	1132.6
502.016	1114.77
502.223	1078.93
502.43	1130.27
502.638	1147.71
502.845	1104.7
503.052	1203.51
503.26	1161.08
503.467	1211.84
503.674	1147.71
503.881	1182.39
504.089	1270.93
504.296	1231.99
504.503	1182.58
504.71	1221.53
504.917	1155.85
505.125	1232.57
505.332	1246.33
505.539	1262.41
505.746	1325.18
505.953	1289.53
506.16	1309.1
506.367	1349.4
506.574	1370.52
506.781	1396.48
506.988	1310.07
507.195	1350.76
507.402	1330.8
507.609	1391.44
507.816	1316.85
508.023	1354.05
508.23	1333.71
508.437	1267.83
508.644	1373.43
508.851	1397.84
509.058	1427.29
509.265	1385.05
509.472	1444.72
509.679	1524.74
509.885	1396.09
510.092	1434.07
510.299	1461.97
510.506	1462.16
510.713	1477.27
510.92	1459.06
511.126	1537.92
511.333	1549.35
511.54	1568.72
511.746	1607.28
511.953	1587.71
512.16	1615.42
512.367	1579.57
512.573	1582.09
512.78	1587.9
512.987	1591.59
513.193	1556.13
513.4	1514.47
513.606	1583.45
513.813	1626.65
514.02	1621.23
514.226	1662.5
514.433	1660.95
514.639	1626.07
514.846	1637.5
515.052	1635.37
515.259	1655.13
515.465	1679.16
515.672	1703.18
515.878	1771.96
516.085	1749.1
516.291	1781.65
516.497	1758.01
516.704	1740.77
516.91	1657.07
517.117	1604.37
517.323	1587.13
517.529	1620.84
517.736	1562.72
517.942	1604.76
518.148	1659.2
518.354	1704.15
518.561	1731.08
518.767	1751.04
518.973	1806.26
519.179	1828.34
519.386	1777.58
519.592	1789.79
519.798	1828.93
520.004	1958.15
520.21	1911.46
520.417	1960.48
520.623	2029.84
520.829	2048.44
521.035	2039.33
521.241	2065.1
521.447	2067.43
521.653	2161.59
521.859	2085.25
522.065	2136.4
522.271	2254.98
522.477	2213.13
522.683	2240.06
522.889	2188.52
523.095	2183.87
523.301	2193.95
523.507	2173.6
523.713	2235.79
523.919	2181.74
524.125	2327.82
524.331	2314.26
524.537	2407.45
524.742	2397.38
524.948	2423.15
525.154	2419.08
525.36	2468.87
525.566	2392.15
525.772	2457.83
525.977	2398.54
526.183	2431.29
526.389	2471.78
526.595	2357.08
526.8	2387.69
527.006	2291.98
527.212	2268.93
527.417	2250.71
527.623	2217
527.829	2365.22
528.034	2400.29
528.24	2406.68
528.446	2423.54
528.651	2508.2
528.857	2517.7
529.062	2597.13
529.268	2590.16
529.473	2608.95
529.679	2642.66
529.884	2678.51
530.09	2645.38
530.295	2653.13
530.501	2651.77
530.706	2677.15
530.912	2679.09
531.117	2669.79
531.323	2762.59
531.528	2768.21
531.733	2783.91
531.939	2730.43
532.144	2782.74
532.35	2752.52
532.555	2760.46
532.76	2714.93
532.966	2728.11
533.171	2673.86
533.376	2626.58
533.581	2659.71
533.787	2684.32
533.992	2733.14
534.197	2734.69
534.402	2743.02
534.607	2795.72
534.813	2839.12
535.018	2830.21
535.223	2830.99
535.428	2849.59
535.633	2900.15
535.838	2910.62
536.043	2950.33
536.249	3041.59
536.454	2960.41
536.659	2962.93
536.864	2944.13
537.069	2909.45
537.274	2906.16
537.479	2941.42
537.684	2923.79
537.889	2845.32
538.094	3010.98
538.299	2941.42
538.504	2980.17
538.708	2949.37
538.913	2992.76
539.118	2979.2
539.323	2996.64
539.528	2938.32
539.733	2948.4
539.938	2967
540.142	2982.3
540.347	2956.34
540.552	2884.46
540.757	2881.36
540.962	2899.77
541.166	2866.44
541.371	2838.93
541.576	2901.7
541.781	2836.22
541.985	2965.83
542.19	2948.4
542.395	3064.65
542.599	3041.2
542.804	2974.55
543.008	3051.08
543.213	3015.43
543.418	2973
543.622	3040.43
543.827	2969.71
544.031	3089.64
544.236	3080.73
544.44	3070.26
544.645	3150.86
544.849	3097
545.054	3149.89
545.258	3158.23
545.463	3150.67
545.667	3043.53
545.872	3128
546.076	3116.96
546.281	3099.13
546.485	3054.38
546.689	3111.34
546.894	3116.38
547.098	3116.76
547.302	3099.71
547.507	3119.28
547.711	3139.24
547.915	3152.22
548.119	3087.31
548.324	3061.55
548.528	3162.29
548.732	3098.36
548.936	3164.04
549.141	3189.42
549.345	3189.42
549.549	3166.75
549.753	3204.92
549.957	3254.71
550.161	3231.85
550.366	3215.77
550.57	3131.29
550.774	3200.85
550.978	3140.98
551.182	3200.07
551.386	3169.07
551.59	3190.58
551.794	3172.37
551.998	3218.67
552.202	3206.86
552.406	3183.41
552.61	3215.57
552.814	3225.65
553.018	3249.87
553.222	3168.3
553.426	3124.13
553.63	3279.7
553.833	3148.34
554.037	3151.44
554.241	3201.82
554.445	3204.72
554.649	3194.46
554.853	3187.09
555.056	3209.37
555.26	3258.78
555.464	3193.29
555.668	3204.34
555.871	3256.07
556.075	3206.08
556.279	3200.07
556.483	3146.41
556.686	3139.04
556.89	3151.25
557.094	3140.59
557.297	3105.53
557.501	3155.13
557.704	3022.8
557.908	3159.97
558.112	3047.6
558.315	3126.45
558.519	3088.86
558.722	3011.56
558.926	3035.39
559.129	2960.8
559.333	2944.91
559.536	3003.81
559.74	2942.58
559.943	2921.66
560.147	2941.03
560.35	2928.63
560.553	3001.87
560.757	2932.9
560.96	3016.21
561.164	2991.41
561.367	3071.62
561.57	3004.97
561.774	2962.54
561.977	2978.23
562.18	2917.4
562.384	3002.84
562.587	2928.05
562.79	2954.02
562.993	2902.87
563.197	2943.36
563.4	2985.6
563.603	2981.92
563.806	3046.82
564.009	2932.32
564.212	2941.81
564.416	2868.57
564.619	2870.51
564.822	2841.84
565.025	2899.19
565.228	2861.21
565.431	2878.26
565.634	2748.06
565.837	2796.11
566.04	2743.8
566.243	2745.93
566.446	2673.66
566.649	2801.92
566.852	2663.98
567.055	2754.84
567.258	2771.89
567.461	2781
567.664	2762.98
567.867	2710.67
568.07	2718.23
568.273	2756.59
568.475	2759.49
568.678	2656.03
568.881	2672.11
569.084	2644.79
569.287	2518.28
569.489	2567.88
569.692	2651.96
569.895	2619.8
570.098	2564
570.3	2529.52
570.503	2439.23
570.706	2486.7
570.909	2480.3
571.111	2435.74
571.314	2395.25
571.516	2428.96
571.719	2446.4
571.922	2389.24
572.124	2438.84
572.327	2372.58
572.529	2375.29
572.732	2389.82
572.935	2419.08
573.137	2532.03
573.34	2398.54
573.542	2464.8
573.745	2447.56
573.947	2457.44
574.15	2328.6
574.352	2385.75
574.554	2423.34
574.757	2350.11
574.959	2294.31
575.162	2358.82
575.364	2289.66
575.566	2383.82
575.769	2249.36
575.971	2306.12
576.173	2165.08
576.376	2279
576.578	2284.43
576.78	2309.61
576.982	2186.58
577.185	2266.21
577.387	2225.72
577.589	2210.41
577.791	2223.2
577.993	2237.73
578.196	2223.01
578.398	2237.34
578.6	2247.61
578.802	2144.93
579.004	2132.33
579.206	2138.73
579.408	2197.82
579.61	2148.41
579.812	2209.44
580.014	2167.21
580.216	2143.76
580.418	2195.69
580.62	2173.6
580.822	2144.93
581.024	2193.95
581.226	2247.81
581.428	2192.98
581.63	2296.63
581.832	2157.71
582.034	2229.01
582.236	2198.6
582.438	2220.29
582.64	2244.13
582.841	2242.58
583.043	2303.02
583.245	2224.75
583.447	2256.33
583.649	2233.47
583.85	2223.98
584.052	2265.05
584.254	2160.81
584.456	2205.96
584.657	2148.61
584.859	2211.19
585.061	2197.63
585.262	2147.83
585.464	2164.69
585.666	2199.56
585.867	2146.67
586.069	2142.41
586.27	2117.42
586.472	2124.2
586.674	2117.22
586.875	2101.92
587.077	2136.98
587.278	2095.33
587.48	2137.56
587.681	2235.79
587.883	2117.03
588.084	2014.34
588.285	2074.98
588.487	2073.63
588.688	2042.63
588.89	1935.68
589.091	1902.36
589.292	1898.29
589.494	1851.21
589.695	1822.73
589.896	1718.1
590.098	1775.06
590.299	1781.26
590.5	1759.37
590.702	1832.8
590.903	1855.66
591.104	1922.31
591.305	1909.91
591.507	1956.8
591.708	1950.4
591.909	1920.37
592.11	1996.32
592.311	1922.7
592.512	1902.16
592.714	1829.31
592.915	1876.97
593.116	1906.42
593.317	1927.16
593.518	1946.72
593.719	1963.58
593.92	1937.81
594.121	1999.62
594.322	1920.76
594.523	1949.24
594.724	1887.82
594.925	1868.64
595.126	1864.57
595.327	1878.14
595.528	1870.19
595.729	1896.35
595.929	1907.2
596.13	1893.44
596.331	1915.34
596.532	1907.97
596.733	1974.82
596.934	1937.42
597.135	1946.72
597.335	1939.75
597.536	1902.16
597.737	1934.52
597.938	1908.75
598.138	1923.67
598.339	1920.57
598.54	1898.48
598.74	1872.13
598.941	1936.46
599.142	1948.85
599.342	1915.14
599.543	1886.47
599.744	1946.72
599.944	1918.44
600.145	1849.08
600.345	1901.39
600.546	1946.72
600.746	1942.85
600.947	1950.6
601.147	1899.45
601.348	1968.42
601.548	1829.7
601.749	1903.91
601.949	1833.58
602.15	1848.11
602.35	1847.91
602.551	1858.96
602.751	1834.74
602.951	1860.51
603.152	1824.66
603.352	1904.49
603.552	1887.44
603.753	1887.05
603.953	1929.67
604.153	1874.84
604.354	1898.09
604.554	1893.83
604.754	1912.62
604.954	1842.1
605.155	1911.85
605.355	1906.04
605.555	1893.25
605.755	1922.31
605.955	1865.35
606.155	1877.94
606.356	1856.83
606.556	1893.06
606.756	1875.23
606.956	1854.69
607.156	1913.21
607.356	1829.89
607.556	1829.12
607.756	1863.02
607.956	1927.54
608.156	1864.96
608.356	1837.06
608.556	1855.86
608.756	1808.19
608.956	1849.27
609.156	1841.52
609.356	1811.68
609.556	1772.93
609.755	1840.55
609.955	1783.2
610.155	1801.8
610.355	1803.74
610.555	1728.37
610.755	1754.91
610.954	1719.46
611.154	1776.61
611.354	1803.93
611.554	1715.39
611.753	1732.83
611.953	1685.94
612.153	1784.94
612.352	1785.91
612.552	1709.77
612.752	1697.18
612.951	1748.71
613.151	1719.46
613.351	1708.61
613.55	1682.07
613.75	1723.14
613.949	1673.15
614.149	1738.83
614.348	1702.02
614.548	1670.63
614.747	1627.04
614.947	1680.32
615.146	1617.74
615.346	1665.21
615.545	1693.5
615.745	1677.61
615.944	1688.46
616.144	1658.04
616.343	1651.26
616.542	1647.38
616.742	1641.77
616.941	1610.57
617.14	1542.76
617.34	1607.67
617.539	1577.83
617.738	1596.62
617.938	1669.67
618.137	1605.53
618.336	1553.61
618.535	1621.42
618.734	1586.55
618.934	1619.48
619.133	1589.26
619.332	1608.83
619.531	1568.72
619.73	1583.45
619.929	1621.62
620.128	1572.21
620.328	1654.17
620.527	1579.57
620.726	1581.32
620.925	1590.23
621.124	1587.52
621.323	1571.24
621.522	1554.19
621.721	1583.25
621.92	1539.27
622.119	1562.33
622.318	1517.77
622.517	1548.57
622.715	1540.63
622.914	1457.12
623.113	1531.72
623.312	1450.34
623.511	1525.52
623.71	1541.6
623.909	1497.62
624.107	1544.5
624.306	1460.42
624.505	1487.16
624.704	1449.76
624.902	1463.32
625.101	1521.84
625.3	1495.68
625.499	1449.37
625.697	1479.41
625.896	1442.21
626.095	1455.38
626.293	1401.33
626.492	1435.23
626.69	1468.56
626.889	1424.77
627.088	1492.58
627.286	1423.8
627.485	1409.08
627.683	1391.44
627.882	1410.63
628.08	1331.19
628.279	1360.83
628.477	1431.74
628.676	1336.61
628.874	1398.42
629.073	1329.64
629.271	1332.74
629.469	1387.76
629.668	1355.6
629.866	1371.68
630.065	1371.49
630.263	1372.07
630.461	1315.3
630.66	1355.21
630.858	1400.36
631.056	1384.47
631.254	1461.77
631.453	1358.89
631.651	1410.63
631.849	1395.13
632.047	1414.69
632.245	1367.42
632.444	1425.54
632.642	1404.23
632.84	1413.73
633.038	1365.09
633.236	1345.33
633.434	1374.2
633.632	1384.08
633.83	1381.95
634.028	1444.92
634.227	1386.99
634.425	1440.66
634.623	1403.65
634.821	1384.66
635.019	1387.18
635.216	1407.72
635.414	1434.65
635.612	1407.33
635.81	1392.99
636.008	1441.62
636.206	1401.52
636.404	1397.26
636.602	1374.2
636.8	1389.31
636.997	1417.41
637.195	1434.65
637.393	1368.97
637.591	1417.02
637.789	1432.52
637.986	1408.49
638.184	1373.81
638.382	1417.6
638.58	1389.31
638.777	1437.36
638.975	1343.59
639.173	1343.39
639.37	1407.33
639.568	1388.54
639.765	1376.72
639.963	1337.19
640.161	1367.81
640.358	1367.81
640.556	1311.62
640.753	1310.07
640.951	1303.1
641.148	1332.74
641.346	1317.82
641.543	1320.92
641.741	1354.05
641.938	1293.02
642.136	1310.26
642.333	1262.8
642.531	1355.21
642.728	1342.81
642.925	1320.34
643.123	1270.16
643.32	1315.5
643.517	1260.66
643.715	1275.39
643.912	1264.73
644.109	1286.05
644.306	1267.45
644.504	1211.07
644.701	1248.85
644.898	1282.56
645.095	1209.32
645.293	1248.46
645.49	1227.73
645.687	1263.18
645.884	1263.18
646.081	1151.97
646.278	1212.03
646.475	1163.79
646.672	1185.1
646.87	1225.4
647.067	1196.15
647.264	1186.27
647.461	1138.99
647.658	1102.57
647.855	1158.17
648.052	1127.75
648.249	1074.09
648.446	1097.14
648.642	1093.65
648.839	1070.41
649.036	1110.51
649.233	1067.5
649.43	1058.01
649.627	1010.92
649.824	1066.14
650.021	1071.76
650.217	1055.87
650.414	1108.38
650.611	1120.59
650.808	1101.4
651.004	1092.1
651.201	1113.03
651.398	1174.25
651.595	1115.16
651.791	1067.89
651.988	1125.82
652.185	1044.06
652.381	1107.41
652.578	1042.12
652.775	1089.78
652.971	1070.99
653.168	1044.44
653.364	1117.68
653.561	1007.24
653.757	1079.51
653.954	1069.05
654.15	1050.26
654.347	1133.95
654.543	1077.19
654.74	1008.6
654.936	1013.25
655.133	1039.02
655.329	1065.56
655.525	1009.96
655.722	1041.92
655.918	979.34
656.115	1016.54
656.311	917.15
656.507	892.93
656.704	845.08
656.9	879.95
657.096	890.8
657.292	889.64
657.489	961.71
657.685	956.68
657.881	925.87
658.077	938.27
658.273	950.28
658.47	1014.8
658.666	983.61
658.862	1014.8
659.058	965.39
659.254	1002.98
659.45	988.64
659.646	987.29
659.842	961.13
660.038	1013.44
660.234	946.02
660.43	979.93
660.626	1065.17
660.822	1019.84
661.018	1020.03
661.214	971.79
661.41	935.94
661.606	1001.24
661.802	999.69
661.998	965.2
662.194	925.87
662.39	979.73
662.586	951.06
662.781	989.42
662.977	1024.49
663.173	968.88
663.369	968.11
663.564	955.9
663.76	988.26
663.956	915.02
664.152	994.65
664.347	891.58
664.543	936.72
664.739	921.99
664.934	906.49
665.13	865.81
665.326	955.32
665.521	946.21
665.717	906.88
665.912	914.63
666.108	843.53
666.304	903.01
666.499	873.56
666.695	802.26
666.89	856.51
667.086	903.59
667.281	900.68
667.477	945.44
667.672	912.5
667.867	854.38
668.063	895.06
668.258	822.21
668.454	847.79
668.649	946.41
668.844	910.95
669.04	894.87
669.235	885.96
669.43	883.05
669.626	813.69
669.821	846.43
670.016	836.94
670.211	867.55
670.407	824.93
670.602	839.26
670.797	838.88
670.992	892.16
671.187	841.2
671.382	880.15
671.578	862.9
671.773	854.96
671.968	802.45
672.163	866.2
672.358	891.96
672.553	814.08
672.748	828.8
672.943	883.25
673.138	811.75
673.333	885.96
673.528	813.3
673.723	852.05
673.918	845.27
674.113	784.63
674.308	891.96
674.503	879.56
674.698	848.76
674.892	848.95
675.087	881.89
675.282	855.35
675.477	819.89
675.672	868.52
675.867	832.1
676.061	784.82
676.256	791.8
676.451	812.72
676.646	825.51
676.84	804.78
677.035	803.81
677.23	780.95
677.424	855.54
677.619	856.51
677.814	896.42
678.008	871.81
678.203	806.33
678.397	859.03
678.592	826.86
678.787	906.88
678.981	817.76
679.176	832.68
679.37	867.94
679.565	804.78
679.759	800.9
679.954	856.12
680.148	893.13
680.342	861.55
680.537	878.01
680.731	835.39
680.926	854.38
681.12	889.83
681.314	845.85
681.509	838.1
681.703	844.69
681.897	861.74
682.092	845.85
682.286	842.36
682.48	920.44
682.674	891.77
682.869	851.66
683.063	875.88
683.257	918.12
683.451	828.41
683.645	890.61
683.839	897.58
684.034	869.49
684.228	897.19
684.422	825.7
684.616	813.11
684.81	901.07
685.004	867.55
685.198	847.21
685.392	877.82
685.586	845.85
685.78	876.46
685.974	884.41
686.168	919.86
686.362	941.95
686.556	840.04
686.75	812.33
686.944	768.93
687.138	815.63
687.331	681.17
687.525	699.38
687.719	635.44
687.913	727.28
688.107	694.73
688.301	717.59
688.494	747.82
688.688	710.04
688.882	720.5
689.076	693.95
689.269	749.75
689.463	833.06
689.657	733.87
689.85	772.23
690.044	800.71
690.238	825.31
690.431	795.48
690.625	779.2
690.818	840.62
691.012	890.61
691.205	915.79
691.399	862.13
691.593	928.19
691.786	958.42
691.98	996.59
692.173	1033.4
692.366	982.25
692.56	1032.24
692.753	1083
692.947	1037.08
693.14	1075.05
693.333	1072.54
693.527	1009.57
693.72	1068.08
693.914	1077.19
694.107	1070.99
694.3	1128.92
694.493	1081.06
694.687	1194.21
694.88	1131.63
695.073	1209.13
695.266	1212.62
695.46	1220.75
695.653	1268.41
695.846	1256.21
696.039	1227.15
696.232	1254.27
696.425	1316.46
696.618	1352.5
696.812	1374.78
697.005	1433.29
697.198	1519.51
697.391	1467.59
697.584	1506.53
697.777	1591.39
697.97	1527.45
698.163	1608.83
698.356	1555.16
698.549	1645.64
698.742	1626.65
698.935	1573.95
699.127	1614.64
699.32	1603.98
699.513	1628.78
699.706	1654.94
699.899	1684.78
700.092	1675.28
700.285	1701.25
700.477	1639.63
700.67	1717.91
700.863	1750.07
701.056	1823.5
701.248	1803.54
701.441	1821.18
701.634	1767.9
701.826	1918.82
702.019	1782.23
702.212	1870.97
702.404	1835.13
702.597	1817.49
702.79	1913.4
702.982	1944.79
703.175	1980.24
703.367	2005.24
703.56	2071.3
703.752	2111.22
703.945	2090.48
704.137	2102.3
704.33	2147.83
704.522	2170.5
704.715	2176.31
704.907	2226.11
705.1	2280.74
705.292	2234.44
705.484	2234.63
705.677	2252.65
705.869	2313.1
706.061	2326.66
706.254	2355.72
706.446	2367.54
706.638	2360.57
706.831	2440.78
707.023	2399.12
707.215	2543.85
707.407	2483.79
707.599	2489.99
707.792	2559.16
707.984	2539.98
708.176	2589.96
708.368	2555.48
708.56	2604.88
708.752	2613.8
708.944	2591.13
709.136	2643.83
709.329	2641.7
709.521	2764.34
709.713	2737.99
709.905	2793.98
710.097	2779.45
710.289	2785.46
710.481	2800.76
710.672	2879.62
710.864	2850.94
711.056	2905.58
711.248	2873.42
711.44	2875.55
711.632	2874.39
711.824	2926.89
712.016	2966.42
712.207	2972.42
712.399	2976.68
712.591	3075.3
712.783	3043.14
712.975	3032.68
713.166	2973.58
713.358	3028.41
713.55	3092.54
713.741	3089.83
713.933	3107.27
714.125	3091.77
714.316	3070.07
714.508	3150.48
714.7	3124.13
714.891	3155.9
715.083	3177.02
715.274	3102.43
715.466	3178.18
715.657	3169.07
715.849	3108.24
716.04	3140.21
716.232	3051.28
716.423	3066.97
716.615	2988.89
716.806	2905.38
716.998	2867.6
717.189	2757.94
717.381	2660.29
717.572	2595
717.763	2651.77
717.955	2561.29
718.146	2525.06
718.337	2455.12
718.528	2402.42
718.72	2332.86
718.911	2370.45
719.102	2297.6
719.293	2349.14
719.485	2326.86
719.676	2264.66
719.867	2220.49
720.058	2259.82
720.249	2242.77
720.44	2337.32
720.632	2363.86
720.823	2421.99
721.014	2578.92
721.205	2664.56
721.396	2687.61
721.587	2877.68
721.778	2896.67
721.969	2979.01
722.16	3036.55
722.351	3066.78
722.542	3188.06
722.733	3228.17
722.924	3160.74
723.115	3163.65
723.305	3081.11
723.496	3134.78
723.687	2961.77
723.878	2970.48
724.069	2969.71
724.26	2962.73
724.45	2929.22
724.641	2911.78
724.832	2904.03
725.023	2881.17
725.213	2870.7
725.404	2834.09
725.595	2883.49
725.785	2815.87
725.976	2896.09
726.167	2910.42
726.357	2908.48
726.548	2992.18
726.739	2932.32
726.929	3002.06
727.12	3053.6
727.31	3028.22
727.501	2926.89
727.691	2954.21
727.882	2952.27
728.072	3046.63
728.263	3046.05
728.453	3121.41
728.644	3115.6
728.834	3047.01
729.024	3044.3
729.215	3024.35
729.405	3041.4
729.596	3132.65
729.786	3154.54
729.976	3191.94
730.167	3198.33
730.357	3150.86
730.547	3175.08
730.737	3232.82
730.928	3212.47
731.118	3276.02
731.308	3190
731.498	3241.54
731.688	3340.54
731.879	3327.56
732.069	3419.98
732.259	3479.26
732.449	3529.64
732.639	3592.99
732.829	3612.17
733.019	3683.67
733.209	3723.77
733.399	3790.23
733.589	3864.63
733.779	3901.63
733.969	3887.3
734.159	3956.08
734.349	4029.31
734.539	4040.55
734.729	4052.56
734.919	4043.84
735.109	4172.1
735.299	4054.5
735.488	4107.2
735.678	4063.61
735.868	4108.75
736.058	4073.29
736.248	4073.49
736.437	4075.23
736.627	4038.61
736.817	4160.67
737.007	4097.71
737.196	4172.3
737.386	4163.77
737.576	4144.79
737.765	4203.49
737.955	4174.04
738.144	4318.38
738.334	4231
738.524	4211.44
738.713	4289.71
738.903	4178.69
739.092	4239.72
739.282	4233.91
739.471	4280.6
739.661	4269.95
739.85	4343.76
740.04	4310.44
740.229	4343.96
740.419	4410.61
740.608	4392.78
740.797	4351.71
740.987	4447.61
741.176	4386.39
741.365	4371.28
741.555	4337.56
741.744	4462.53
741.933	4362.17
742.123	4450.91
742.312	4452.65
742.501	4524.72
742.69	4540.42
742.88	4383.68
743.069	4518.52
743.258	4530.54
743.447	4475.51
743.636	4513.1
743.825	4505.74
744.014	4516.01
744.204	4579.75
744.393	4495.66
744.582	4619.85
744.771	4622.95
744.96	4543.71
745.149	4579.94
745.338	4560.57
745.527	4574.52
745.716	4551.46
745.905	4560.57
746.094	4606.68
746.283	4615.59
746.471	4575.68
746.66	4597.38
746.849	4631.29
747.038	4604.94
747.227	4564.25
747.416	4588.08
747.604	4584.01
747.793	4563.09
747.982	4586.72
748.171	4607.84
748.359	4554.17
748.548	4601.84
748.737	4583.24
748.926	4580.72
749.114	4468.54
749.303	4558.05
749.491	4537.12
749.68	4497.41
749.869	4594.28
750.057	4509.22
750.246	4465.44
750.434	4495.86
750.623	4499.92
750.811	4485.97
751	4509.03
751.188	4490.82
751.377	4488.88
751.565	4486.94
751.754	4475.51
751.942	4418.55
752.131	4519.88
752.319	4408.67
752.507	4355.39
752.696	4477.84
752.884	4467.18
753.072	4457.88
753.261	4443.74
753.449	4438.7
753.637	4376.51
753.825	4509.03
754.014	4406.73
754.202	4432.11
754.39	4449.74
754.578	4465.05
754.766	4369.73
754.955	4353.45
755.143	4446.45
755.331	4348.22
755.519	4369.15
755.707	4344.54
755.895	4373.41
756.083	4365.27
756.271	4298.43
756.459	4320.71
756.647	4367.79
756.835	4311.41
757.023	4342.21
757.211	4313.73
757.399	4295.72
757.587	4274.21
757.775	4177.14
757.963	4244.37
758.151	4288.55
758.339	4219.96
758.526	4198.07
758.714	4269.17
758.902	4103.13
759.09	3990.56
759.278	3714.86
759.465	3475.2
759.653	3009.81
759.841	2704.28
760.028	2345.07
760.216	2043.6
760.404	1859.54
760.591	1545.67
760.779	1286.63
760.967	1091.72
761.154	930.91
761.342	949.12
761.529	910.76
761.717	965.39
761.905	955.32
762.092	1050.64
762.28	969.85
762.467	989.81
762.655	882.47
762.842	915.21
763.029	902.23
763.217	911.92
763.404	923.16
763.592	954.16
763.779	905.14
763.966	973.73
764.154	972.37
764.341	1046.38
764.528	1067.11
764.716	1149.26
764.903	1174.25
765.09	1291.66
765.277	1377.69
765.465	1537.92
765.652	1628.98
765.839	1711.13
766.026	1844.04
766.213	1919.21
766.4	2068.2
766.588	2272.22
766.775	2321.43
766.962	2464.42
767.149	2560.9
767.336	2754.65
767.523	2748.64
767.71	2908.87
767.897	3041.59
768.084	3095.45
768.271	3195.23
768.458	3262.85
768.645	3351.78
768.832	3359.33
769.019	3407.97
769.206	3491.08
769.392	3555.41
769.579	3592.61
769.766	3606.94
769.953	3581.37
770.14	3695.87
770.327	3677.66
770.513	3720.48
770.7	3774.54
770.887	3719.12
771.073	3773.57
771.26	3784.22
771.447	3721.84
771.634	3749.93
771.82	3822.97
772.007	3728.62
772.193	3742.76
772.38	3824.91
772.567	3766.01
772.753	3747.22
772.94	3843.7
773.126	3785.58
773.313	3819.68
773.499	3735.01
773.686	3813.48
773.872	3726.87
774.059	3808.63
774.245	3724.35
774.432	3742.95
774.618	3651.31
774.804	3759.04
774.991	3695.87
775.177	3747.41
775.363	3655.19
775.55	3742.37
775.736	3676.89
775.922	3713.31
776.109	3701.49
776.295	3668.56
776.481	3740.05
776.667	3713.12
776.853	3699.17
777.04	3618.96
777.226	3679.02
777.412	3703.24
777.598	3668.94
777.784	3643.56
777.97	3639.11
778.156	3641.24
778.342	3655.19
778.528	3620.51
778.715	3561.8
778.901	3558.51
779.087	3601.13
779.272	3565.68
779.458	3531.58
779.644	3559.09
779.83	3509.88
780.016	3600.94
780.202	3555.41
780.388	3561.22
780.574	3466.48
780.76	3440.9
780.946	3535.06
781.131	3536.42
781.317	3492.83
781.503	3479.07
781.689	3519.95
781.874	3567.81
782.06	3406.61
782.246	3489.15
782.432	3447.1
782.617	3485.46
782.803	3490.89
782.989	3451.95
783.174	3416.88
783.36	3390.92
783.545	3389.56
783.731	3409.71
783.916	3285.13
784.102	3405.64
784.288	3359.72
784.473	3345.38
784.659	3355.65
784.844	3402.35
785.029	3376.77
785.215	3310.51
785.4	3288.23
785.586	3381.42
785.771	3238.82
785.956	3305.86
786.142	3285.13
786.327	3305.47
786.512	3236.11
786.698	3230.69
786.883	3198.14
787.068	3237.66
787.254	3271.57
787.439	3213.44
787.624	3168.88
787.809	3185.74
787.994	3192.13
788.18	3210.92
788.365	3111.92
788.55	3110.56
788.735	3135.94
788.92	3095.26
789.105	3091.77
789.29	3130.33
789.475	3000.13
789.66	3032.1
789.845	2984.82
790.03	3006.71
790.215	3041.59
790.4	3058.83
790.585	3090.61
790.77	3066.78
790.955	2954.21
791.14	3015.05
791.325	3064.84
791.51	2893.95
791.695	2995.09
791.879	3007.1
792.064	2939.87
792.249	3031.9
792.434	3016.4
792.618	3022.6
792.803	3016.01
792.988	2977.07
793.173	2950.92
793.357	3000.9
793.542	2993.15
793.727	3041.4
793.911	3012.91
794.096	3010.78
794.281	3072.2
794.465	3135.94
794.65	3001.68
794.834	3070.46
795.019	3108.04
795.203	3075.5
795.388	3097.97
795.572	3117.15
795.757	3041.59
795.941	3111.92
796.126	3029.19
796.31	2999.16
796.494	3046.43
796.679	3014.08
796.863	2985.98
797.048	3116.38
797.232	3072.78
797.416	3071.23
797.601	3032.68
797.785	3098.55
797.969	3083.24
798.153	3085.38
798.338	3100.88
798.522	3120.64
798.706	3094.29
798.89	3122.96
799.074	3178.57
799.258	3158.23
799.443	3115.41
799.627	3061.74
799.811	3103.59
799.995	3079.76
800.179	3032.48
800.363	3066.39
800.547	3105.72
800.731	3114.63
800.915	2988.7
801.099	2997.41
801.283	3051.66
801.467	3042.95
801.651	3012.33
801.835	3061.35
802.019	3032.87
802.202	3023.18
802.386	2968.55
802.57	2945.1
802.754	2964.28
802.938	2910.03
803.121	2995.86
803.305	3050.31
803.489	3007.1
803.673	3031.51
803.856	3006.52
804.04	2955.37
804.224	3025.31
804.407	3003.81
804.591	2978.62
804.775	2992.57
804.958	3029.58
805.142	3149.7
805.326	3052.05
805.509	3023.18
805.693	3096.61
805.876	3107.27
806.06	3054.96
806.243	3120.83
806.427	3140.01
806.61	3124.13
806.794	3046.43
806.977	3096.42
807.16	3085.57
807.344	3077.43
807.527	3064.06
807.71	3038.3
807.894	3079.76
808.077	3119.48
808.26	3072.01
808.444	2985.98
808.627	3082.08
808.81	2992.38
808.993	2955.18
809.177	2890.47
809.36	2964.87
809.543	2945.49
809.726	2844.16
809.909	2862.57
810.092	2863.54
810.276	2857.53
810.459	2853.65
810.642	2776.16
810.825	2798.44
811.008	2827.69
811.191	2707.57
811.374	2692.26
811.557	2750.97
811.74	2763.17
811.923	2642.28
812.106	2624.06
812.289	2660.1
812.472	2600.43
812.654	2602.17
812.837	2586.28
813.02	2511.11
813.203	2490.57
813.386	2378.78
813.569	2355.53
813.751	2293.34
813.934	2291.59
814.117	2194.53
814.3	2201.5
814.482	2165.66
814.665	2094.55
814.848	2098.43
815.03	2001.36
815.213	1994.39
815.396	2011.44
815.578	1970.36
815.761	1930.26
815.943	1976.95
816.126	1903.91
816.309	1854.5
816.491	1786.3
816.674	1733.8
816.856	1823.69
817.039	1791.92
817.221	1842.88
817.403	1814.39
817.586	1826.41
817.768	1851.01
817.951	1752.98
818.133	1740
818.315	1771.58
818.498	1802.58
818.68	1861.47
818.862	1859.15
819.045	1858.76
819.227	1848.11
819.409	1826.02
819.591	1894.8
819.774	1836.48
819.956	1829.31
820.138	1935.68
820.32	1905.84
820.502	1978.89
820.684	2036.23
820.866	2057.35
821.048	2096.49
821.231	2147.64
821.413	2120.32
821.595	2107.53
821.777	2113.35
821.959	2099.59
822.141	2174.57
822.323	2030.04
822.505	1959.51
822.686	1896.93
822.868	1806.45
823.05	1673.15
823.232	1632.27
823.414	1556.32
823.596	1626.65
823.778	1627.43
823.96	1667.53
824.141	1662.11
824.323	1714.61
824.505	1792.89
824.687	1833.38
824.868	1902.16
825.05	1981.4
825.232	2037.98
825.413	2085.25
825.595	2062.39
825.777	2000
825.958	2063.55
826.14	2068.01
826.321	2101.72
826.503	2029.84
826.685	2079.44
826.866	2088.93
827.048	2056.77
827.229	2008.34
827.411	1966.29
827.592	1900.61
827.773	1910.49
827.955	1859.92
828.136	1851.98
828.318	1835.9
828.499	1877.56
828.68	1816.91
828.862	1839
829.043	1873.29
829.224	1787.46
829.406	1810.91
829.587	1790.18
829.768	1795.99
829.949	1852.95
830.131	1829.89
830.312	1882.98
830.493	1854.5
830.674	1860.51
830.855	1831.64
831.036	1861.28
831.218	1880.66
831.399	1934.13
831.58	1835.13
831.761	1878.33
831.942	1890.34
832.123	1876.39
832.304	1794.63
832.485	1810.13
832.666	1857.41
832.847	1873.87
833.028	1866.12
833.209	1851.4
833.389	1827.18
833.57	1766.35
833.751	1813.43
833.932	1824.47
834.113	1859.34
834.294	1803.54
834.475	1876.2
834.655	1915.34
834.836	1898.87
835.017	1919.79
835.198	1872.71
835.378	1906.62
835.559	1936.07
835.74	1878.91
835.92	1888.6
836.101	1894.22
836.281	1916.89
836.462	1909.14
836.643	1923.86
836.823	1981.02
837.004	1982.95
837.184	2015.5
837.365	1960.09
837.545	1967.84
837.726	1969.2
837.906	1978.89
838.087	1987.8
838.267	1941.11
838.448	1946.53
838.628	1954.67
838.808	1958.74
838.989	1985.28
839.169	1914.56
839.349	1958.74
839.53	1995.55
839.71	1974.24
839.89	1931.42
840.07	1984.31
840.251	1935.87
840.431	1984.31
840.611	1932.19
840.791	1938.01
840.971	1944.98
841.151	1895.77
841.332	1910.69
841.512	2007.56
841.692	1898.87
841.872	1957.38
842.052	1936.84
842.232	1971.72
842.412	1865.16
842.592	1945.75
842.772	1950.4
842.952	1950.21
843.132	1897.32
843.312	1883.95
843.492	1877.17
843.672	1961.84
843.851	1855.08
844.031	1867.29
844.211	1899.06
844.391	1950.02
844.571	1910.11
844.751	1919.79
844.93	1906.62
845.11	1929.67
845.29	1906.62
845.47	1968.62
845.649	1906.42
845.829	1907.39
846.009	1879.88
846.188	1932.39
846.368	1907.2
846.547	1899.06
846.727	1927.35
846.907	1847.33
847.086	1923.47
847.266	1912.04
847.445	1893.06
847.625	1864.77
847.804	1857.79
847.984	1872.52
848.163	1861.47
848.343	1850.63
848.522	1868.26
848.701	1869.03
848.881	1811.49
849.06	1855.08
849.239	1835.9
849.419	1857.21
849.598	1773.13
849.777	1789.4
849.957	1745.23
850.136	1709.19
850.315	1704.35
850.494	1664.43
850.674	1708.8
850.853	1732.25
851.032	1694.46
851.211	1768.67
851.39	1696.4
851.569	1689.62
851.748	1668.12
851.927	1740.58
852.107	1692.33
852.286	1660.95
852.465	1641.38
852.644	1735.73
852.823	1711.13
853.002	1688.65
853.181	1702.41
853.359	1699.89
853.538	1660.17
853.717	1697.56
853.896	1598.37
854.075	1547.22
854.254	1504.79
854.433	1452.09
854.611	1463.91
854.79	1437.94
854.969	1505.56
855.148	1517.57
855.327	1459.84
855.505	1547.8
855.684	1519.51
855.863	1570.08
856.041	1504.59
856.22	1568.72
856.399	1541.02
856.577	1653.78
856.756	1647.38
856.934	1755.3
857.113	1741.35
857.291	1655.33
857.47	1588.1
857.648	1633.05
857.827	1629.75
858.005	1671.41
858.184	1635.76
858.362	1729.15
858.541	1604.95
858.719	1645.83
858.898	1624.72
859.076	1571.82
859.254	1647.77
859.433	1579.38
859.611	1584.42
859.789	1586.55
859.967	1628.01
860.146	1630.14
860.324	1571.24
860.502	1584.42
860.68	1553.8
860.859	1540.24
861.037	1555.74
861.215	1600.88
861.393	1569.5
861.571	1572.21
861.749	1543.73
861.927	1599.53
862.105	1560
862.283	1514.86
862.461	1522.22
862.639	1529
862.817	1493.55
862.995	1545.09
863.173	1521.25
863.351	1530.17
863.529	1552.84
863.707	1573.18
863.885	1544.31
864.063	1467.01
864.241	1494.71
864.418	1577.64
864.596	1504.21
864.774	1470.49
864.952	1509.63
865.129	1530.75
865.307	1476.5
865.485	1442.79
865.663	1466.04
865.84	1417.99
866.018	1418.38
866.196	1273.45
866.373	1325.38
866.551	1276.75
866.728	1236.83
866.906	1295.73
867.084	1306.2
867.261	1318.01
867.439	1354.24
867.616	1372.46
867.794	1383.89
867.971	1383.89
868.149	1387.76
868.326	1408.11
868.503	1420.12
868.681	1374.98
868.858	1361.41
869.035	1378.85
869.213	1442.01
869.39	1352.89
869.567	1452.28
869.745	1361.99
869.922	1412.76
870.099	1417.02
870.276	1413.92
870.454	1424.57
870.631	1405.98
870.808	1376.14
870.985	1393.38
871.162	1467.2
871.339	1395.71
871.517	1347.66
871.694	1357.34
871.871	1365.68
872.048	1338.16
872.225	1352.11
872.402	1380.01
872.579	1313.95
872.756	1354.05
872.933	1307.94
873.11	1281.01
873.287	1368.58
873.463	1335.84
873.64	1319.56
873.817	1331.19
873.994	1314.33
874.171	1284.11
874.348	1309.1
874.524	1288.95
874.701	1314.53
874.878	1246.33
875.055	1299.22
875.231	1323.05
875.408	1290.7
875.585	1225.02
875.762	1284.69
875.938	1274.23
876.115	1282.75
876.291	1244.58
876.468	1216.49
876.645	1229.86
876.821	1231.8
876.998	1258.15
877.174	1311.43
877.351	1258.15
877.527	1181.62
877.704	1244.78
877.88	1211.07
878.057	1234.7
878.233	1217.85
878.409	1197.5
878.586	1243.23
878.762	1220.17
878.938	1203.32
879.115	1150.42
879.291	1200.99
879.467	1140.93
879.644	1222.11
879.82	1206.03
879.996	1194.98
880.172	1151.39
880.349	1188.01
880.525	1207.58
880.701	1127.95
880.877	1102.57
881.053	1187.82
881.229	1171.73
881.405	1198.28
881.581	1115.94
881.757	1162.63
881.933	1161.66
882.109	1209.13
882.285	1168.25
882.461	1090.36
882.637	1176.38
882.813	1128.72
882.989	1145.19
883.165	1203.7
883.341	1139.57
883.517	1201.18
883.693	1170.96
883.869	1194.79
884.044	1120.78
884.22	1172.7
884.396	1195.18
884.572	1191.69
884.747	1207.19
884.923	1178.71
885.099	1189.56
885.275	1185.68
885.45	1138.99
885.626	1137.83
885.801	1130.47
885.977	1150.62
886.153	1083.19
886.328	1169.8
886.504	1118.07
886.679	1143.45
886.855	1103.73
887.03	1151
887.206	1181.42
887.381	1121.55
887.557	1158.75
887.732	1187.04
887.908	1176.19
888.083	1180.84
888.258	1136.47
888.434	1138.8
888.609	1137.25
888.784	1163.02
888.96	1140.54
889.135	1125.43
889.31	1156.82
889.485	1159.53
889.661	1124.27
889.836	1219.78
890.011	1180.26
890.186	1121.94
890.361	1111.29
890.537	1168.05
890.712	1150.62
890.887	1156.24
891.062	1188.78
891.237	1213.97
891.412	1141.9
891.587	1140.93
891.762	1145.39
891.937	1170.57
892.112	1103.34
892.287	1120.78
892.462	1076.6
892.637	1028.56
892.812	1001.43
892.987	1043.28
893.161	1060.14
893.336	1016.74
893.511	1065.56
893.686	1009.18
893.861	1029.33
894.035	1015.19
894.21	1018.29
894.385	970.04
894.56	1018.67
894.734	941.56
894.909	910.37
895.084	931.68
895.258	923.35
895.433	928.97
895.608	907.85
895.782	850.89
895.957	845.85
896.131	850.31
896.306	776.3
896.48	798.97
896.655	795.48
896.829	719.53
897.004	739.87
897.178	736
897.353	714.3
897.527	761.57
897.701	750.33
897.876	719.14
898.05	801.87
898.224	737.35
898.399	812.14
898.573	731.54
898.747	648.23
898.921	674.39
899.096	571.89
899.27	587.01
899.444	593.79
899.618	635.83
899.792	657.72
899.967	635.64
900.141	701.51
900.315	628.08
900.489	598.82
900.663	639.12
900.837	661.99
901.011	599.21
901.185	691.82
901.359	618.01
901.533	646.68
901.707	626.34
901.881	647.07
902.055	615.49
902.229	652.49
902.403	701.51
902.576	632.73
902.75	647.26
902.924	742
903.098	698.22
903.272	756.34
903.446	799.35
903.619	787.92
903.793	840.43
903.967	801.1
904.14	853.02
904.314	849.34
904.488	816.01
904.661	851.08
904.835	842.75
905.009	866
905.182	877.43
905.356	837.52
905.529	838.1
905.703	818.73
905.876	800.71
906.05	733.28
906.223	752.27
906.397	693.37
906.57	682.14
906.744	667.41
906.917	646.29
907.09	602.7
907.264	643.19
907.437	622.85
907.61	595.53
907.784	597.27
907.957	574.99
908.13	563.37
908.304	623.24
908.477	544.77
908.65	584.68
908.823	559.11
908.996	610.64
909.17	561.24
909.343	557.17
909.516	556.97
909.689	564.14
909.862	524.81
910.035	565.5
910.208	537.79
910.381	503.31
910.554	609.48
910.727	562.4
910.9	525.78
911.073	522.49
911.246	606.57
911.419	623.62
911.592	600.76
911.765	557.75
911.938	538.57
912.11	567.24
912.283	583.52
912.456	609.87
912.629	582.55
912.802	531.98
912.974	499.24
913.147	489.36
913.32	414.76
913.493	450.8
913.665	475.6
913.838	456.81
914.01	471.92
914.183	484.51
914.356	478.31
914.528	532.95
914.701	571.12
914.873	534.89
915.046	473.86
915.218	423.68
915.391	390.93
915.563	440.92
915.736	469.79
915.908	474.44
916.081	476.38
916.253	466.88
916.425	479.86
916.598	512.99
916.77	488
916.942	435.69
917.115	392.68
917.287	464.56
917.459	437.24
917.632	382.21
917.804	369.82
917.976	453.71
918.148	482.58
918.32	432.59
918.493	487.61
918.665	527.72
918.837	498.85
919.009	559.3
919.181	539.93
919.353	494.78
919.525	518.81
919.697	546.13
919.869	507.38
920.041	554.65
920.213	645.52
920.385	557.36
920.557	534.89
920.729	582.74
920.901	551.16
921.073	522.88
921.244	514.54
921.416	559.88
921.588	560.85
921.76	493.04
921.932	592.82
922.103	543.22
922.275	517.84
922.447	524.04
922.619	466.49
922.79	487.03
922.962	472.89
923.134	510.09
923.305	456.23
923.477	441.7
923.648	444.6
923.82	458.55
923.991	389.96
924.163	428.52
924.335	438.98
924.506	402.95
924.677	475.02
924.849	426.2
925.02	433.17
925.192	473.66
925.363	450.61
925.535	439.95
925.706	421.55
925.877	452.35
926.049	410.31
926.22	428.71
926.391	437.05
926.562	466.69
926.734	416.12
926.905	482.96
927.076	417.48
927.247	407.01
927.419	373.11
927.59	347.53
927.761	343.47
927.932	327.58
928.103	341.14
928.274	290.77
928.445	306.85
928.616	291.73
928.787	308.01
928.958	304.33
929.129	289.41
929.3	286.5
929.471	236.52
929.642	202.8
929.813	167.54
929.984	256.28
930.155	170.26
930.326	235.35
930.496	174.91
930.667	134.22
930.838	188.66
931.009	143.91
931.18	166.77
931.35	153.21
931.521	158.05
931.692	107.87
931.863	45.87
932.033	109.61
932.204	135.38
932.374	102.44
932.545	82.29
932.716	124.53
932.886	107.68
933.057	60.59
933.227	71.25
933.398	139.64
933.568	44.51
933.739	34.83
933.909	31.73
934.08	99.15
934.25	2.66
934.421	12.35
934.591	67.18
934.761	20.49
934.932	21.26
935.102	45.87
935.272	46.26
935.443	41.03
935.613	45.29
935.783	61.95
935.953	-5.09
936.123	138.29
936.294	12.16
936.464	33.28
936.634	14.48
936.804	3.44
936.974	11.77
937.144	28.43
937.314	44.32
937.484	28.24
937.655	26.88
937.825	68.54
937.995	5.38
938.165	89.46
938.334	38.12
938.504	58.46
938.674	41.8
938.844	65.44
939.014	110.19
939.184	96.05
939.354	148.56
939.524	124.53
939.694	70.86
939.863	90.63
940.033	133.06
940.203	135.57
940.373	100.89
940.542	111.36
940.712	97.41
940.882	117.75
941.051	141.58
941.221	124.92
941.391	158.44
941.56	79.19
941.73	100.7
941.899	171.81
942.069	94.69
942.238	127.44
942.408	100.31
942.577	99.73
942.747	82.68
942.916	35.21
943.086	74.54
943.255	129.76
943.425	97.21
943.594	74.16
943.763	13.13
943.933	37.54
944.102	-0.24
944.271	68.93
944.441	82.29
944.61	69.89
944.779	56.14
944.948	160.76
945.117	34.05
945.287	61.18
945.456	24.56
945.625	29.59
945.794	41.8
945.963	51.49
946.132	85.78
946.301	58.85
946.47	89.27
946.639	24.75
946.808	67.76
946.977	98.18
947.146	101.86
947.315	71.25
947.484	107.29
947.653	52.65
947.822	54.59
947.991	54.59
948.16	118.72
948.329	127.82
948.498	56.53
948.666	60.21
948.835	84.23
949.004	31.34
949.173	52.46
949.341	76.48
949.51	107.68
949.679	62.53
949.847	91.79
950.016	154.17
950.185	109.03
950.353	81.52
950.522	76.29
950.69	122.79
950.859	43.74
951.028	127.44
951.196	84.23
951.365	82.1
951.533	85.59
951.701	90.63
951.87	95.86
952.038	28.63
952.207	88.69
952.375	113.87
952.543	64.47
952.712	67.38
952.88	66.99
953.048	123.56
953.217	70.86
953.385	88.3
953.553	130.34
953.721	29.01
953.89	81.71
954.058	33.47
954.226	66.99
954.394	83.07
954.562	26.11
954.73	63.89
954.898	68.34
955.067	103.03
955.235	57.69
955.403	107.09
955.571	140.03
955.739	83.26
955.907	42.96
956.075	69.51
956.243	42.38
956.41	100.7
956.578	23.98
956.746	16.81
956.914	47.61
957.082	123.17
957.25	88.11
957.418	61.95
957.585	88.69
957.753	104.58
957.921	58.85
958.089	95.47
958.256	104.96
958.424	100.31
958.592	73.19
958.759	64.47
958.927	84.43
959.095	25.53
959.262	43.16
959.43	49.16
959.597	39.28
959.765	74.74
959.932	41.99
960.1	130.15
960.267	75.71
960.435	80.16
960.602	89.08
960.77	71.64
960.937	38.31
961.104	78.61
961.272	29.01
961.439	57.88
961.606	106.9
961.774	119.49
961.941	82.49
962.108	101.09
962.275	86.56
962.443	103.22
962.61	108.45
962.777	150.69
962.944	116.2
963.111	136.74
963.278	97.79
963.446	87.33
963.613	83.46
963.78	128.41
963.947	110.58
964.114	95.86
964.281	153.4
964.448	124.92
964.615	68.15
964.782	92.95
964.949	124.72
965.116	100.89
965.282	128.99
965.449	86.94
965.616	69.89
965.783	149.91
965.95	106.13
966.117	64.47
966.283	108.06
966.45	128.79
966.617	109.42
966.784	142.55
966.95	116.78
967.117	152.04
967.284	106.32
967.45	97.21
967.617	122.79
967.784	127.82
967.95	159.41
968.117	100.31
968.283	164.44
968.45	194.47
968.616	138.48
968.783	164.83
968.949	152.62
969.116	154.76
969.282	137.51
969.449	148.36
969.615	140.81
969.781	88.69
969.948	116.97
970.114	85.78
970.28	188.27
970.447	123.95
970.613	186.72
970.779	124.34
970.945	148.17
971.112	159.41
971.278	126.86
971.444	125.69
971.61	150.49
971.776	129.37
971.942	126.86
972.108	160.57
972.275	107.48
972.441	150.69
972.607	189.82
972.773	95.66
972.939	140.42
973.105	131.31
973.271	75.13
973.437	123.95
973.602	96.44
973.768	113.87
973.934	117.75
974.1	136.74
974.266	41.99
974.432	158.44
974.598	116.01
974.763	151.27
974.929	98.18
975.095	144.49
975.261	78.23
975.426	92.37
975.592	72.03
975.758	155.72
975.923	12.55
976.089	86.56
976.255	140.03
976.42	104.77
976.586	126.08
976.751	116.2
976.917	189.82
977.082	128.79
977.248	66.6
977.413	52.65
977.579	84.81
977.744	122.79
977.91	93.53
978.075	81.33
978.24	127.24
978.406	75.9
978.571	80.36
978.736	50.91
978.902	128.02
979.067	81.33
979.232	60.79
979.397	105.35
979.563	169.67
979.728	90.04
979.893	94.69
980.058	106.9
980.223	128.21
980.388	114.84
980.554	121.82
980.719	110.39
980.884	110.77
981.049	127.05
981.214	76.87
981.379	95.28
981.544	74.93
981.709	116.59
981.874	78.03
982.039	124.53
982.204	133.44
982.368	113.87
982.533	83.84
982.698	158.63
982.863	101.28
983.028	66.79
983.193	138.29
983.357	110.19
983.522	110.19
983.687	110
983.852	66.41
984.016	94.5
984.181	101.28
984.346	87.53
984.51	126.86
984.675	97.79
984.839	139.64
985.004	102.25
985.168	132.67
985.333	126.08
985.498	116.01
985.662	122.79
985.827	107.48
985.991	112.91
986.155	129.37
986.32	142.55
986.484	145.07
986.649	118.14
986.813	70.67
986.977	105.74
987.142	120.46
987.306	46.06
987.47	69.31
987.634	82.29
987.799	95.08
987.963	97.79
988.127	95.08
988.291	153.01
988.455	98.18
988.62	85.78
988.784	111.55
988.948	136.35
989.112	78.42
989.276	98.96
989.44	110
989.604	58.08
989.768	105.74
989.932	162.89
990.096	79
990.26	73.96
990.424	59.04
990.588	101.67
990.752	144.87
990.915	119.49
991.079	101.48
991.243	82.68
991.407	105.16
991.571	110.19
991.734	77.84
991.898	148.17
992.062	184.79
992.226	92.56
992.389	61.95
992.553	69.51
992.717	74.74
992.88	49.36
993.044	112.71
993.207	86.56
993.371	128.79
993.535	104.38
993.698	97.99
993.862	120.07
994.025	156.5
994.189	90.43
994.352	116.2
994.515	97.21
994.679	144.29
994.842	88.49
995.006	116.59
995.169	48.97
995.332	73.77
995.496	137.12
995.659	54.39
995.822	70.09
995.985	94.69
996.149	133.06
996.312	63.89
996.475	155.92
996.638	66.02
996.801	112.52
996.964	134.41
997.128	90.82
997.291	70.67
997.454	88.49
997.617	51.29
997.78	121.04
997.943	58.46
998.106	89.08
998.269	69.31
998.432	66.79
998.595	96.44
998.758	39.86
998.92	67.76
999.083	35.6
999.246	68.54
999.409	84.62
999.572	23.78
999.735	50.71
999.897	98.38
1000.06	82.88
1000.223	63.89
1000.386	114.07
1000.548	90.43
1000.711	86.36
1000.874	63.5
1001.036	9.45
1001.199	95.66
1001.361	59.63
1001.524	82.29
1001.687	94.69
1001.849	24.17
1002.012	86.56
1002.174	74.74
1002.337	86.36
1002.499	54.01
1002.661	104.19
1002.824	38.7
1002.986	28.82
1003.149	83.84
1003.311	39.48
1003.473	117.94
1003.636	41.99
1003.798	103.8
1003.96	93.14
1004.123	71.06
1004.285	34.05
1004.447	70.67
1004.609	51.49
1004.771	114.65
1004.933	0.34
1005.096	58.46
1005.258	25.33
1005.42	44.71
1005.582	97.6
1005.744	42.77
1005.906	17.58
1006.068	70.48
1006.23	30.18
1006.392	-3.15
1006.554	25.53
1006.716	85.39
1006.878	76.68
1007.04	17.39
1007.202	39.86
1007.363	51.49
1007.525	70.09
1007.687	85.59
1007.849	89.08
1008.011	15.45
1008.172	26.88
1008.334	67.76
1008.496	57.88
1008.658	9.64
1008.819	48.97
1008.981	24.17
1009.143	28.24
1009.304	59.24
1009.466	77.45
1009.627	86.75
1009.789	124.14
1009.95	69.12
1010.112	51.88
1010.273	59.43
1010.435	18.16
1010.596	65.83
1010.758	37.34
1010.919	26.69
1011.081	9.25
1011.242	72.8
1011.403	81.33
1011.565	35.21
1011.726	77.64
1011.887	27.85
1012.049	38.12
1012.21	82.29
1012.371	97.02
1012.532	-14
1012.693	33.28
1012.855	31.14
1013.016	33.08
1013.177	76.29
1013.338	17.97
1013.499	104.77
1013.66	57.3
1013.821	69.7
1013.982	41.99
1014.143	60.79
1014.304	36.38
1014.465	59.24
1014.626	80.55
1014.787	62.53
1014.948	103.8
1015.109	0.34
1015.27	81.52
1015.431	34.05
1015.592	28.82
1015.752	79.78
1015.913	32.31
1016.074	58.27
1016.235	16.81
1016.395	32.5
1016.556	38.51
1016.717	33.28
1016.877	70.09
1017.038	53.04
1017.199	53.04
1017.359	26.88
1017.52	47.23
1017.681	10.8
1017.841	10.41
1018.002	7.9
1018.162	46.45
1018.323	80.74
1018.483	17.39
1018.644	19.33
1018.804	-7.41
1018.964	-8.57
1019.125	29.59
1019.285	36.96
1019.446	-0.63
1019.606	10.8
1019.766	-23.1
1019.926	43.93
1020.087	40.64
1020.247	-10.32
1020.407	27.46
1020.567	72.61
1020.728	19.33
1020.888	18.36
1021.048	33.66
1021.208	-2.37
1021.368	18.75
1021.528	64.47
1021.688	96.83
1021.848	66.41
1022.008	28.04
1022.168	19.33
1022.328	49.74
1022.488	52.26
1022.648	21.46
1022.808	31.53
1022.968	43.93
1023.128	16.81
1023.288	-0.44
1023.448	10.41
1023.608	46.84
1023.767	35.6
1023.927	12.55
1024.087	-1.79
1024.247	-6.83
1024.406	24.56
1024.566	24.56
1024.726	-10.12
1024.885	8.09
1025.045	43.54
1025.205	6.54
1025.364	31.73
1025.524	32.89
1025.683	3.44
1025.843	50.33
1026.003	28.43
1026.162	75.32
1026.321	44.51
1026.481	28.43
1026.64	25.91
1026.8	35.41
1026.959	11
1027.119	41.99
1027.278	22.04
1027.437	-3.34
1027.597	15.65
1027.756	54.78
1027.915	34.44
1028.074	57.69
1028.234	-7.6
1028.393	36.18
1028.552	17
1028.711	-8.57
1028.87	49.16
1029.03	3.63
1029.189	34.83
1029.348	-35.31
1029.507	7.51
1029.666	11
1029.825	-12.06
1029.984	4.6
1030.143	17.58
1030.302	31.14
1030.461	-43.45
1030.62	21.84
1030.779	17.97
1030.938	6.15
1031.097	-19.42
1031.255	45.87
1031.414	55.94
1031.573	18.36
1031.732	-23.69
1031.891	15.65
1032.049	63.5
1032.208	16.03
1032.367	2.08
1032.525	14.87
1032.684	13.51
1032.843	29.4
1033.001	-35.7
1033.16	130.34
1033.319	44.51
1033.477	32.31
1033.636	3.83
1033.794	-13.03
1033.953	36.38
1034.111	39.48
1034.27	-5.86
1034.428	17.78
1034.587	-7.99
1034.745	17
1034.903	0.53
1035.062	31.53
1035.22	-22.72
1035.378	45.29
1035.537	-25.04
1035.695	26.49
1035.853	9.64
1036.011	35.41
1036.17	15.26
1036.328	-40.93
1036.486	57.11
1036.644	-5.67
1036.802	-34.92
1036.96	9.06
1037.119	21.07
1037.277	4.8
1037.435	-19.23
1037.593	-33.76
1037.751	35.02
1037.909	33.28
1038.067	33.28
