Data from gum_young_FLMT105791__9__17-38-08-045.txt Node

Date: Mon Mar 20 17:38:08 GMT 2023
User: antho
Spectrometer: FLMT10579
Trigger mode: 0
Integration Time (sec): 1.000000E-1
Scans to average: 10
Electric dark correction enabled: true
Nonlinearity correction enabled: false
Boxcar width: 0
XAxis mode: Wavelengths
Number of Pixels in Spectrum: 3648
>>>>>Begin Spectral Data<<<<<
345.248	-145.38
345.464	-145.38
345.681	-145.38
345.898	-142.86
346.114	-134.14
346.331	-10.53
346.548	12.72
346.764	-3.75
346.981	14.85
347.197	-6.26
347.414	14.27
347.631	-22.73
347.847	55.93
348.064	-7.62
348.28	6.72
348.497	-21.96
348.713	-31.65
348.93	22.02
349.146	30.35
349.363	-10.33
349.579	8.07
349.796	21.83
350.012	-10.14
350.229	43.72
350.445	21.64
350.661	-24.09
350.878	24.54
351.094	11.75
351.311	28.22
351.527	23.57
351.743	8.07
351.96	24.93
352.176	31.71
352.392	18.34
352.609	-2.78
352.825	-24.09
353.041	-6.46
353.257	-18.86
353.474	4.78
353.69	18.15
353.906	22.99
354.122	-31.26
354.339	51.67
354.555	-7.23
354.771	-7.81
354.987	52.83
355.203	28.22
355.42	-22.73
355.636	-6.65
355.852	-8.59
356.068	14.47
356.284	-10.14
356.5	50.31
356.716	23.19
356.932	21.44
357.148	23.57
357.364	-0.84
357.58	48.57
357.796	38.88
358.012	43.72
358.228	30.16
358.444	-28.74
358.66	64.84
358.876	22.6
359.092	-8.98
359.308	25.7
359.524	73.95
359.74	-23.51
359.956	1.49
360.172	6.14
360.388	69.3
360.604	-7.62
360.819	76.08
361.035	11.37
361.251	9.04
361.467	-0.45
361.683	50.31
361.898	14.85
362.114	17.57
362.33	5.55
362.546	34.03
362.762	-4.52
362.977	38.3
363.193	-5.49
363.409	42.95
363.624	8.07
363.84	-4.91
364.056	6.72
364.271	47.98
364.487	5.36
364.703	3.04
364.918	-22.73
365.134	7.3
365.35	20.47
365.565	78.98
365.781	6.52
365.996	29.19
366.212	74.72
366.427	16.21
366.643	-1.03
366.858	-14.4
367.074	3.81
367.289	46.82
367.505	95.84
367.72	-27.96
367.936	17.57
368.151	23.96
368.367	36.55
368.582	18.92
368.798	-24.09
369.013	50.12
369.228	10.79
369.444	26.67
369.659	51.08
369.874	24.15
370.09	53.22
370.305	-39.98
370.52	-8.4
370.736	38.3
370.951	23.77
371.166	63.29
371.381	62.52
371.597	40.43
371.812	-17.7
372.027	-13.63
372.242	8.46
372.458	71.43
372.673	17.76
372.888	7.3
373.103	56.12
373.318	77.82
373.533	25.7
373.749	35.39
373.964	-43.27
374.179	45.47
374.394	-8.2
374.609	76.66
374.824	-6.26
375.039	53.99
375.254	0.13
375.469	67.36
375.684	9.24
375.899	32.29
376.114	24.35
376.329	-0.65
376.544	40.04
376.759	38.68
376.974	4.2
377.189	13.3
377.404	15.63
377.619	50.89
377.834	-22.54
378.049	-13.82
378.264	-5.1
378.478	18.92
378.693	-4.71
378.908	45.47
379.123	11.17
379.338	53.02
379.553	26.29
379.767	12.34
379.982	38.68
380.197	39.27
380.412	10.01
380.626	35
380.841	91.58
381.056	57.67
381.271	82.28
381.485	10.98
381.7	-0.06
381.915	17.95
382.129	3.04
382.344	51.08
382.559	8.07
382.773	46.24
382.988	9.24
383.202	31.9
383.417	-25.25
383.632	123.55
383.846	37.72
384.061	10.59
384.275	13.5
384.49	34.23
384.704	32.29
384.919	49.15
385.133	32.68
385.348	49.15
385.562	19.5
385.777	59.8
385.991	21.44
386.206	-9.95
386.42	21.05
386.634	94.68
386.849	46.43
387.063	46.24
387.277	1.1
387.492	14.66
387.706	-16.15
387.92	-0.06
388.135	61.16
388.349	47.79
388.563	12.14
388.778	31.71
388.992	53.22
389.206	45.47
389.42	100.49
389.635	19.12
389.849	32.68
390.063	77.05
390.277	49.15
390.491	84.22
390.706	42.17
390.92	60.19
391.134	33.84
391.348	52.05
391.562	0.71
391.776	45.08
391.99	-13.63
392.205	69.88
392.419	9.43
392.633	37.72
392.847	83.83
393.061	-1.81
393.275	89.45
393.489	47.79
393.703	46.63
393.917	69.1
394.131	24.74
394.345	64.07
394.559	47.79
394.773	15.44
394.986	59.61
395.2	41.59
395.414	42.37
395.628	11.17
395.842	36.17
396.056	23.19
396.27	-27.19
396.484	60.19
396.697	33.26
396.911	81.7
397.125	71.04
397.339	52.63
397.553	41.2
397.766	113.28
397.98	70.46
398.194	74.14
398.408	49.73
398.621	42.95
398.835	43.33
399.049	39.27
399.262	79.95
399.476	83.05
399.69	68.91
399.903	134.59
400.117	54.96
400.331	86.93
400.544	38.1
400.758	170.82
400.971	56.7
401.185	73.37
401.398	46.63
401.612	124.51
401.826	89.64
402.039	79.95
402.253	66.97
402.466	74.53
402.68	52.44
402.893	77.63
403.106	67.94
403.32	56.32
403.533	47.6
403.747	66
403.96	91.77
404.174	103.01
404.387	50.31
404.6	72.98
404.814	106.88
405.027	90.22
405.24	68.72
405.454	50.5
405.667	128.78
405.88	24.93
406.094	84.02
406.307	87.32
406.52	67.55
406.733	39.65
406.947	17.37
407.16	131.1
407.373	115.22
407.586	38.68
407.799	59.8
408.012	96.23
408.226	95.65
408.439	129.16
408.652	57.28
408.865	90.42
409.078	111.15
409.291	89.06
409.504	49.73
409.717	110.18
409.93	84.6
410.143	91
410.357	32.48
410.57	70.27
410.783	92.55
410.996	100.88
411.209	85.77
411.421	115.02
411.634	94.48
411.847	67.17
412.06	67.55
412.273	90.42
412.486	91.58
412.699	177.99
412.912	99.72
413.125	149.7
413.338	92.55
413.55	101.85
413.763	79.37
413.976	109.02
414.189	69.1
414.402	74.33
414.615	127.81
414.827	53.8
415.04	124.71
415.253	101.65
415.466	118.7
415.678	122
415.891	99.72
416.104	128.78
416.316	104.17
416.529	63.68
416.742	137.5
416.954	153.38
417.167	91.19
417.38	97
417.592	122.96
417.805	81.12
418.017	79.76
418.23	117.73
418.442	109.21
418.655	104.95
418.868	94.1
419.08	127.23
419.293	141.37
419.505	133.23
419.718	142.34
419.93	156.1
420.142	112.7
420.355	157.84
420.567	145.44
420.78	131.49
420.992	101.27
421.205	166.36
421.417	75.88
421.629	116.38
421.842	89.25
422.054	112.7
422.266	136.33
422.479	136.14
422.691	107.27
422.903	146.02
423.115	95.26
423.328	121.03
423.54	124.13
423.752	120.83
423.964	102.82
424.177	130.33
424.389	112.12
424.601	205.5
424.813	141.95
425.025	153.19
425.238	142.92
425.45	108.43
425.662	118.31
425.874	400.41
426.086	89.45
426.298	134.2
426.51	155.13
426.722	124.13
426.934	134.4
427.146	149.7
427.358	106.69
427.57	151.64
427.782	145.25
427.994	120.45
428.206	106.88
428.418	103.59
428.63	162.49
428.842	146.6
429.054	139.43
429.266	150.48
429.478	119.09
429.69	112.12
429.902	82.47
430.114	165.78
430.325	124.13
430.537	97.97
430.749	119.86
430.961	74.92
431.173	95.07
431.384	165.01
431.596	48.76
431.808	123.35
432.02	128
432.231	156.1
432.443	177.41
432.655	162.3
432.867	88.28
433.078	148.73
433.29	205.69
433.502	184
433.713	177.8
433.925	168.3
434.136	207.83
434.348	108.05
434.56	127.42
434.771	204.92
434.983	108.63
435.194	138.46
435.406	150.28
435.617	199.69
435.829	215.77
436.04	179.35
436.252	197.56
436.463	210.15
436.675	187.87
436.886	171.4
437.098	188.65
437.309	219.64
437.521	174.5
437.732	171.01
437.943	174.5
438.155	176.44
438.366	139.63
438.578	214.61
438.789	186.32
439	204.73
439.211	179.35
439.423	195.62
439.634	214.22
439.845	199.5
440.057	196.98
440.268	219.84
440.479	157.65
440.69	212.09
440.902	175.47
441.113	154.16
441.324	185.74
441.535	176.25
441.746	244.44
441.957	171.4
442.168	157.45
442.38	229.72
442.591	230.49
442.802	177.6
443.013	193.88
443.224	233.59
443.435	211.51
443.646	190.78
443.857	195.43
444.068	199.3
444.279	186.71
444.49	257.81
444.701	220.81
444.912	298.31
445.123	244.64
445.334	248.9
445.545	239.02
445.756	231.46
445.967	180.7
446.178	233.4
446.388	247.74
446.599	251.23
446.81	241.34
447.021	215.96
447.232	248.71
447.443	285.71
447.653	216.93
447.864	257.43
448.075	242.12
448.286	272.93
448.496	264.21
448.707	276.61
448.918	213.44
449.129	307.41
449.339	244.06
449.55	238.83
449.761	224.88
449.971	298.31
450.182	229.53
450.393	270.6
450.603	248.9
450.814	313.03
451.024	273.31
451.235	277.58
451.446	316.13
451.656	335.7
451.867	266.53
452.077	295.21
452.288	325.43
452.498	306.83
452.709	268.08
452.919	299.08
453.13	238.24
453.34	292.69
453.55	241.34
453.761	288.62
453.971	300.05
454.182	313.42
454.392	295.79
454.602	330.66
454.813	297.72
455.023	312.84
455.233	258.39
455.444	285.13
455.654	214.03
455.864	265.18
456.075	271.38
456.285	272.54
456.495	294.04
456.705	297.72
456.916	362.24
457.126	373.67
457.336	303.54
457.546	267.89
457.756	274.48
457.967	324.27
458.177	270.6
458.387	310.12
458.597	262.85
458.807	257.43
459.017	310.32
459.227	312.84
459.437	277.38
459.647	313.22
459.857	325.04
460.068	283.97
460.278	342.29
460.488	322.33
460.698	366.51
460.908	324.07
461.117	293.27
461.327	300.05
461.537	301.02
461.747	349.84
461.957	316.32
462.167	409.52
462.377	341.9
462.587	326.21
462.797	355.85
463.007	325.24
463.216	369.61
463.426	393.44
463.636	366.12
463.846	294.62
464.056	336.28
464.265	391.69
464.475	279.32
464.685	334.92
464.895	363.99
465.104	334.54
465.314	382.97
465.524	371.35
465.733	305.86
465.943	414.94
466.153	420.37
466.362	383.36
466.572	348.49
466.782	335.7
466.991	330.86
467.201	401.77
467.41	293.66
467.62	377.55
467.829	348.49
468.039	377.94
468.249	372.32
468.458	362.63
468.668	374.26
468.877	386.85
469.086	440.13
469.296	426.57
469.505	345.58
469.715	432.77
469.924	375.22
470.134	415.52
470.343	415.52
470.552	356.04
470.762	384.33
470.971	357.79
471.18	397.89
471.39	403.32
471.599	346.36
471.808	416.1
472.018	368.06
472.227	447.49
472.436	435.09
472.645	392.85
472.855	410.29
473.064	431.22
473.273	414.55
473.482	440.9
473.691	462.41
473.901	432.96
474.11	414.17
474.319	487.21
474.528	431.99
474.737	495.54
474.946	438.58
475.155	443.62
475.364	488.57
475.573	456.6
475.783	463.57
475.992	459.31
476.201	508.72
476.41	454.27
476.619	429.86
476.828	479.46
477.037	406.61
477.245	435.29
477.454	512.01
477.663	472.87
477.872	472.87
478.081	538.36
478.29	443.62
478.499	568.39
478.708	520.53
478.917	566.26
479.125	490.5
479.334	510.85
479.543	491.28
479.752	510.85
479.961	520.92
480.169	568
480.378	517.24
480.587	619.54
480.796	569.16
481.004	547.27
481.213	559.67
481.422	576.53
481.63	580.21
481.839	582.92
482.048	602.3
482.256	560.45
482.465	594.93
482.674	597.65
482.882	609.46
483.091	636.98
483.299	589.51
483.508	659.06
483.716	603.07
483.925	600.36
484.134	595.51
484.342	595.9
484.551	629.03
484.759	629.81
484.967	633.49
485.176	636.2
485.384	641.04
485.593	638.91
485.801	622.25
486.01	612.37
486.218	584.86
486.426	547.66
486.635	545.92
486.843	545.72
487.051	574.01
487.26	593.38
487.468	646.28
487.676	627.68
487.885	612.37
488.093	637.56
488.301	648.6
488.509	665.46
488.717	718.16
488.926	655.58
489.134	642.21
489.342	669.91
489.55	633.3
489.758	668.75
489.967	653.83
490.175	794.49
490.383	694.13
490.591	768.92
490.799	707.89
491.007	749.35
491.215	755.55
491.423	720.09
491.631	722.81
491.839	721.84
492.047	760.2
492.255	667.2
492.463	680.96
492.671	723.39
492.879	789.07
493.087	735.59
493.295	757.68
493.503	770.47
493.711	765.43
493.919	790.04
494.127	806.31
494.334	799.72
494.542	733.07
494.75	760.78
494.958	767.95
495.166	828.98
495.374	817.55
495.581	818.32
495.789	801.27
495.997	862.89
496.205	789.65
496.412	790.62
496.62	807.47
496.828	857.46
497.035	832.27
497.243	846.03
497.451	847
497.658	874.32
497.866	847.39
498.074	924.69
498.281	857.65
498.489	925.66
498.696	854.36
498.904	834.21
499.112	843.32
499.319	935.35
499.527	860.75
499.734	898.92
499.942	857.85
500.149	841.38
500.357	930.7
500.564	843.32
500.771	891.75
500.979	877.22
501.186	854.94
501.394	901.44
501.601	871.41
501.808	900.09
502.016	890.98
502.223	894.27
502.43	890.4
502.638	897.76
502.845	888.27
503.052	974.68
503.26	917.52
503.467	998.51
503.674	930.7
503.881	947.17
504.089	1025.63
504.296	997.73
504.503	925.08
504.71	977
504.917	946.39
505.125	984.56
505.332	996.38
505.539	1027.76
505.746	1080.46
505.953	1041.33
506.16	1039
506.367	1087.24
506.574	1112.24
506.781	1108.36
506.988	1035.51
507.195	1100.03
507.402	1075.62
507.609	1123.28
507.816	1068.06
508.023	1066.71
508.23	1076.78
508.437	1009.36
508.644	1129.68
508.851	1171.52
509.058	1149.05
509.265	1170.94
509.472	1183.34
509.679	1244.96
509.885	1181.99
510.092	1173.46
510.299	1147.31
510.506	1197.1
510.713	1200.97
510.92	1193.42
511.126	1237.79
511.333	1281.57
511.54	1259.68
511.746	1294.94
511.953	1285.25
512.16	1310.44
512.367	1291.07
512.573	1285.45
512.78	1297.07
512.987	1297.27
513.193	1293
513.4	1231.01
513.606	1308.12
513.813	1356.55
514.02	1311.22
514.226	1353.84
514.433	1353.45
514.639	1306.57
514.846	1330.79
515.052	1337.37
515.259	1356.36
515.465	1388.91
515.672	1381.93
515.878	1460.6
516.085	1402.08
516.291	1451.88
516.497	1398.4
516.704	1390.07
516.91	1346.67
517.117	1298.82
517.323	1260.45
517.529	1323.81
517.736	1306.57
517.942	1342.6
518.148	1339.31
518.354	1376.12
518.561	1416.42
518.767	1352.48
518.973	1466.41
519.179	1488.5
519.386	1466.6
519.592	1439.86
519.798	1472.41
520.004	1576.84
520.21	1557.86
520.417	1582.66
520.623	1645.43
520.829	1576.65
521.035	1646.79
521.241	1625.67
521.447	1692.9
521.653	1767.1
521.859	1660.74
522.065	1688.44
522.271	1765.94
522.477	1746.18
522.683	1778.34
522.889	1685.92
523.095	1743.27
523.301	1736.88
523.507	1739.59
523.713	1776.4
523.919	1734.75
524.125	1851
524.331	1790.55
524.537	1900.6
524.742	1890.52
524.948	1882
525.154	1894.98
525.36	1963.37
525.566	1897.11
525.772	1952.33
525.977	1884.13
526.183	1951.36
526.389	1973.06
526.595	1852.93
526.8	1852.35
527.006	1791.71
527.212	1781.05
527.417	1770.01
527.623	1791.32
527.829	1853.52
528.034	1909.12
528.24	1910.67
528.446	1925.4
528.651	2018.39
528.857	2010.26
529.062	2049.2
529.268	2063.15
529.473	2108.1
529.679	2069.16
529.884	2172.42
530.09	2142.59
530.295	2113.91
530.501	2133.48
530.706	2160.02
530.912	2098.22
531.117	2136.58
531.323	2173
531.528	2196.45
531.733	2179.98
531.939	2123.41
532.144	2211.17
532.35	2167
532.555	2230.93
532.76	2190.64
532.966	2119.53
533.171	2130.57
533.376	2101.9
533.581	2104.42
533.787	2149.37
533.992	2206.72
534.197	2198.19
534.402	2206.52
534.607	2195.67
534.813	2288.09
535.018	2241.2
535.223	2239.85
535.428	2244.3
535.633	2308.43
535.838	2271.43
536.043	2286.15
536.249	2362.3
536.454	2332.46
536.659	2337.88
536.864	2285.77
537.069	2258.25
537.274	2272.78
537.479	2269.88
537.684	2322
537.889	2251.47
538.094	2396.39
538.299	2297
538.504	2328
538.708	2356.87
538.913	2403.56
539.118	2369.85
539.323	2349.12
539.528	2331.88
539.733	2291
539.938	2314.25
540.142	2349.7
540.347	2312.11
540.552	2275.88
540.757	2270.46
540.962	2288.48
541.166	2167.19
541.371	2259.42
541.576	2287.7
541.781	2218.15
541.985	2336.72
542.19	2348.93
542.395	2402.21
542.599	2412.09
542.804	2391.94
543.008	2424.88
543.213	2354.16
543.418	2323.55
543.622	2390.97
543.827	2337.88
544.031	2411.51
544.236	2392.71
544.44	2416.16
544.645	2460.33
544.849	2428.36
545.054	2428.17
545.258	2524.46
545.463	2474.28
545.667	2377.21
545.872	2460.14
546.076	2437.86
546.281	2465.56
546.485	2452.39
546.689	2474.67
546.894	2487.46
547.098	2452.78
547.302	2392.52
547.507	2467.11
547.711	2467.89
547.915	2496.56
548.119	2409.76
548.324	2416.54
548.528	2511.48
548.732	2460.14
548.936	2510.32
549.141	2507.99
549.345	2476.22
549.549	2489.01
549.753	2476.8
549.957	2538.8
550.161	2531.05
550.366	2542.87
550.57	2495.98
550.774	2459.56
550.978	2480.09
551.182	2464.98
551.386	2463.63
551.59	2485.91
551.794	2505.67
551.998	2560.11
552.202	2464.98
552.406	2470.21
552.61	2519.23
552.814	2534.54
553.018	2583.75
553.222	2502.18
553.426	2469.24
553.63	2540.54
553.833	2488.42
554.037	2456.84
554.241	2494.24
554.445	2503.92
554.649	2515.55
554.853	2465.56
555.056	2507.02
555.26	2582.97
555.464	2493.27
555.668	2544.81
555.871	2578.32
556.075	2533.57
556.279	2478.93
556.483	2426.23
556.686	2475.06
556.89	2500.44
557.094	2484.94
557.297	2427.59
557.501	2495.21
557.704	2413.06
557.908	2488.81
558.112	2404.73
558.315	2469.44
558.519	2451.81
558.722	2415.19
558.926	2444.44
559.129	2296.62
559.333	2343.7
559.536	2339.43
559.74	2347.18
559.943	2305.91
560.147	2327.23
560.35	2304.17
560.553	2324.71
560.757	2325.48
560.96	2385.35
561.164	2329.36
561.367	2413.25
561.57	2413.64
561.774	2358.23
561.977	2328.78
562.18	2306.3
562.384	2405.69
562.587	2315.21
562.79	2340.4
562.993	2261.35
563.197	2330.13
563.4	2377.99
563.603	2378.76
563.806	2381.48
564.009	2273.56
564.212	2355.51
564.416	2232.29
564.619	2303.98
564.822	2231.32
565.025	2306.69
565.228	2229.97
565.431	2285.38
565.634	2184.82
565.837	2216.02
566.04	2179.79
566.243	2195.87
566.446	2119.34
566.649	2218.15
566.852	2109.46
567.055	2180.95
567.258	2186.37
567.461	2229.58
567.664	2223.38
567.867	2146.46
568.07	2168.94
568.273	2177.27
568.475	2213.69
568.678	2090.66
568.881	2103.06
569.084	2135.42
569.287	2007.93
569.489	2070.9
569.692	2106.94
569.895	2135.42
570.098	2024.21
570.3	2042.22
570.503	1970.34
570.706	1985.46
570.909	1978.87
571.111	1923.65
571.314	1939.15
571.516	1952.71
571.719	1977.9
571.922	1970.93
572.124	1941.67
572.327	1974.8
572.529	1913
572.732	1932.18
572.935	1959.11
573.137	2014.71
573.34	1937.41
573.542	2000.38
573.745	1973.06
573.947	1971.7
574.15	1889.75
574.352	1889.55
574.554	1963.37
574.757	1883.74
574.959	1858.17
575.162	1840.73
575.364	1833.95
575.566	1934.7
575.769	1818.83
575.971	1872.7
576.173	1762.45
576.376	1850.8
576.578	1840.92
576.78	1900.79
576.982	1779.7
577.185	1823.1
577.387	1791.32
577.589	1742.89
577.791	1818.83
577.993	1816.9
578.196	1773.11
578.398	1803.33
578.6	1821.16
578.802	1742.5
579.004	1698.71
579.206	1768.85
579.408	1794.62
579.61	1746.37
579.812	1842.47
580.014	1766.52
580.216	1754.9
580.418	1783.77
580.62	1760.32
580.822	1703.75
581.024	1793.84
581.226	1812.05
581.428	1788.61
581.63	1848.48
581.832	1776.98
582.034	1810.89
582.236	1810.89
582.438	1832.59
582.64	1873.66
582.841	1856.62
583.043	1902.73
583.245	1801.98
583.447	1853.9
583.649	1812.05
583.85	1805.27
584.052	1828.72
584.254	1755.48
584.456	1838.6
584.657	1785.7
584.859	1809.15
585.061	1775.63
585.262	1808.95
585.464	1749.28
585.666	1785.9
585.867	1738.43
586.069	1797.72
586.27	1751.8
586.472	1759.94
586.674	1762.07
586.875	1757.22
587.077	1759.74
587.278	1750.83
587.48	1693.87
587.681	1834.53
587.883	1738.82
588.084	1653.57
588.285	1686.7
588.487	1655.12
588.688	1679.92
588.89	1572.58
589.091	1567.54
589.292	1535.58
589.494	1483.65
589.695	1481.52
589.896	1452.65
590.098	1420.49
590.299	1494.31
590.5	1471.83
590.702	1498.57
590.903	1549.53
591.104	1589.63
591.305	1593.89
591.507	1609.2
591.708	1610.17
591.909	1537.9
592.11	1652.41
592.311	1632.26
592.512	1576.84
592.714	1521.63
592.915	1534.61
593.116	1560.18
593.317	1573.55
593.518	1591.96
593.719	1558.83
593.92	1605.71
594.121	1634.58
594.322	1573.74
594.523	1606.29
594.724	1529.96
594.925	1569.29
595.126	1555.34
595.327	1564.25
595.528	1564.83
595.729	1547.01
595.929	1571.03
596.13	1577.62
596.331	1609.97
596.532	1579.36
596.733	1633.03
596.934	1608.42
597.135	1585.95
597.335	1586.14
597.536	1535.38
597.737	1546.23
597.938	1550.11
598.138	1584.79
598.339	1563.67
598.54	1592.73
598.74	1546.43
598.941	1563.48
599.142	1615.98
599.342	1625.47
599.543	1559.21
599.744	1580.91
599.944	1579.75
600.145	1540.23
600.345	1581.69
600.546	1663.64
600.746	1608.81
600.947	1647.56
601.147	1577.62
601.348	1627.99
601.548	1550.11
601.749	1556.31
601.949	1518.53
602.15	1534.8
602.35	1549.33
602.551	1586.34
602.751	1540.81
602.951	1547.01
603.152	1498.18
603.352	1580.14
603.552	1555.14
603.753	1593.12
603.953	1593.12
604.153	1553.4
604.354	1572.58
604.554	1572.97
604.754	1576.84
604.954	1533.25
605.155	1592.73
605.355	1600.09
605.555	1606.68
605.755	1619.66
605.955	1545.65
606.155	1593.51
606.356	1548.36
606.556	1556.11
606.756	1590.79
606.956	1521.82
607.156	1574.71
607.356	1526.86
607.556	1566.58
607.756	1541
607.956	1577.62
608.156	1536.93
608.356	1492.18
608.556	1561.15
608.756	1538.09
608.956	1498.96
609.156	1516.2
609.356	1500.31
609.556	1489.27
609.755	1521.43
609.955	1478.23
610.155	1494.11
610.355	1503.8
610.555	1502.06
610.755	1460.6
610.954	1441.61
611.154	1460.6
611.354	1506.13
611.554	1454.01
611.753	1445.1
611.953	1427.85
612.153	1469.9
612.352	1477.65
612.552	1415.07
612.752	1393.56
612.951	1431.34
613.151	1408.67
613.351	1417.39
613.55	1430.76
613.75	1446.84
613.949	1417.2
614.149	1450.71
614.348	1417.2
614.548	1384.07
614.747	1383.68
614.947	1367.4
615.146	1351.13
615.346	1404.6
615.545	1417.58
615.745	1408.87
615.944	1381.16
616.144	1405.57
616.343	1399.37
616.542	1344.35
616.742	1357.52
616.941	1369.53
617.14	1293.59
617.34	1344.93
617.539	1363.53
617.738	1303.85
617.938	1397.63
618.137	1319.74
618.336	1346.48
618.535	1373.99
618.734	1333.3
618.934	1353.84
619.133	1355.58
619.332	1348.42
619.531	1326.14
619.73	1324.97
619.929	1386
620.128	1347.06
620.328	1374.38
620.527	1338.15
620.726	1352.68
620.925	1377.28
621.124	1315.67
621.323	1358.68
621.522	1273.44
621.721	1293
621.92	1251.54
622.119	1364.3
622.318	1258.32
622.517	1293.59
622.715	1267.62
622.914	1243.99
623.113	1298.62
623.312	1199.42
623.511	1283.7
623.71	1267.62
623.909	1241.08
624.107	1316.45
624.306	1235.85
624.505	1210.66
624.704	1258.52
624.902	1227.52
625.101	1273.24
625.3	1258.52
625.499	1244.76
625.697	1250.77
625.896	1225
626.095	1244.96
626.293	1176.76
626.492	1182.57
626.69	1239.53
626.889	1191.87
627.088	1249.61
627.286	1177.72
627.485	1169.97
627.683	1191.29
627.882	1176.76
628.08	1137.04
628.279	1136.07
628.477	1210.08
628.676	1121.15
628.874	1174.82
629.073	1113.59
629.271	1109.33
629.469	1170.56
629.668	1151.38
629.866	1150.41
630.065	1116.5
630.263	1203.88
630.461	1149.24
630.66	1154.48
630.858	1175.59
631.056	1191.29
631.254	1207.95
631.453	1105.65
631.651	1189.93
631.849	1157.38
632.047	1169.39
632.245	1183.34
632.444	1199.42
632.642	1204.27
632.84	1204.85
633.038	1178.89
633.236	1156.03
633.434	1129.68
633.632	1161.26
633.83	1173.85
634.028	1199.23
634.227	1174.24
634.425	1246.51
634.623	1182.18
634.821	1203.3
635.019	1186.25
635.216	1161.06
635.414	1211.63
635.612	1188.96
635.81	1156.22
636.008	1235.27
636.206	1182.18
636.404	1189.16
636.602	1168.81
636.8	1156.22
636.997	1201.75
637.195	1218.22
637.393	1172.3
637.591	1218.99
637.789	1170.36
637.986	1175.21
638.184	1164.55
638.382	1186.44
638.58	1189.93
638.777	1214.73
638.975	1137.43
639.173	1162.23
639.37	1164.74
639.568	1193.42
639.765	1179.08
639.963	1131.23
640.161	1177.92
640.358	1176.17
640.556	1064.38
640.753	1111.46
640.951	1091.12
641.148	1118.05
641.346	1125.61
641.543	1129.09
641.741	1108.56
641.938	1072.91
642.136	1086.08
642.333	1059.35
642.531	1130.26
642.728	1133.36
642.925	1080.08
643.123	1063.22
643.32	1082.21
643.517	1083.76
643.715	1080.08
643.912	1071.75
644.109	1094.22
644.306	1071.36
644.504	1041.71
644.701	1070.97
644.898	1074.07
645.095	1025.63
645.293	1034.55
645.49	1048.5
645.687	1022.92
645.884	1054.89
646.081	969.83
646.278	977
646.475	965.38
646.672	971.19
646.87	1011.49
647.067	958.4
647.264	979.52
647.461	959.18
647.658	895.24
647.855	946.2
648.052	909.38
648.249	867.73
648.446	911.13
648.642	928.76
648.839	888.07
649.036	910.74
649.233	878.19
649.43	870.25
649.627	865.02
649.824	908.03
650.021	856.1
650.217	879.16
650.414	870.83
650.611	914.81
650.808	894.08
651.004	904.73
651.201	899.5
651.398	946.78
651.595	908.22
651.791	874.7
651.988	925.47
652.185	858.43
652.381	949.3
652.578	851.84
652.775	869.47
652.971	884.39
653.168	855.14
653.364	880.9
653.561	864.82
653.757	853.39
653.954	879.74
654.15	845.25
654.347	923.72
654.543	850.49
654.74	814.26
654.936	828.79
655.133	831.11
655.329	855.91
655.525	828.4
655.722	864.63
655.918	808.06
656.115	825.88
656.311	737.53
656.507	694.33
656.704	701.69
656.9	741.79
657.096	726.1
657.292	750.12
657.489	800.11
657.685	779.57
657.881	755.16
658.077	780.35
658.273	769.31
658.47	827.62
658.666	793.52
658.862	806.31
659.058	768.53
659.254	866.18
659.45	797.98
659.646	822.59
659.842	819.29
660.038	833.44
660.234	758.26
660.43	811.74
660.626	871.6
660.822	787.32
661.018	842.74
661.214	805.73
661.41	773.18
661.606	811.16
661.802	857.07
661.998	780.54
662.194	772.79
662.39	797.98
662.586	812.12
662.781	801.86
662.977	766.21
663.173	790.42
663.369	782.29
663.564	781.12
663.76	796.24
663.956	747.8
664.152	794.49
664.347	728.04
664.543	789.84
664.739	759.04
664.934	668.36
665.13	689.48
665.326	774.73
665.521	731.33
665.717	699.36
665.912	720.68
666.108	669.53
666.304	696.84
666.499	729.01
666.695	627.68
666.89	696.26
667.086	745.67
667.281	733.66
667.477	768.92
667.672	706.73
667.867	717.96
668.063	713.51
668.258	686.77
668.454	690.45
668.649	772.41
668.844	695.88
669.04	731.14
669.235	673.21
669.43	683.28
669.626	676.89
669.821	684.25
670.016	659.06
670.211	678.83
670.407	619.15
670.602	681.93
670.797	685.8
670.992	693.36
671.187	621.48
671.382	688.71
671.578	655.58
671.773	680.38
671.968	622.25
672.163	640.08
672.358	684.44
672.553	636.2
672.748	649.96
672.943	691.03
673.138	638.14
673.333	637.17
673.528	639.11
673.723	663.71
673.918	654.61
674.113	609.46
674.308	698.2
674.503	670.11
674.698	662.74
674.892	651.12
675.087	673.98
675.282	708.66
675.477	626.32
675.672	660.23
675.867	617.99
676.061	606.17
676.256	585.05
676.451	646.86
676.646	627.68
676.84	606.56
677.035	581.95
677.23	592.22
677.424	653.83
677.619	655.38
677.814	661.58
678.008	673.21
678.203	613.53
678.397	603.65
678.592	642.21
678.787	667.39
678.981	636.98
679.176	637.75
679.37	617.02
679.565	612.18
679.759	625.55
679.954	648.21
680.148	673.21
680.342	663.13
680.537	673.21
680.731	650.93
680.926	655.96
681.12	657.9
681.314	619.54
681.509	611.01
681.703	617.8
681.897	655.96
682.092	644.92
682.286	627.1
682.48	709.24
682.674	681.93
682.869	647.63
683.063	642.21
683.257	708.08
683.451	633.49
683.645	682.12
683.839	659.64
684.034	642.01
684.228	683.86
684.422	635.43
684.616	633.68
684.81	685.8
685.004	641.63
685.198	648.99
685.392	672.24
685.586	671.66
685.78	725.13
685.974	676.11
686.168	706.14
686.362	724.94
686.556	645.69
686.75	643.18
686.944	614.89
687.138	611.6
687.331	540.3
687.525	535.84
687.719	507.55
687.913	576.72
688.107	578.27
688.301	578.66
688.494	605.59
688.688	558.31
688.882	574.98
689.076	547.66
689.269	591.45
689.463	657.9
689.657	644.92
689.85	633.1
690.044	631.94
690.238	661.58
690.431	687.93
690.625	680.76
690.818	684.64
691.012	704.79
691.205	764.66
691.399	713.89
691.593	765.62
691.786	822.39
691.98	835.76
692.173	864.24
692.366	884.2
692.56	886.14
692.753	928.37
692.947	861.72
693.14	942.32
693.333	931.86
693.527	863.66
693.72	935.54
693.914	908.03
694.107	905.12
694.3	952.59
694.493	939.03
694.687	1005.48
694.88	954.53
695.073	1057.02
695.266	1030.67
695.46	1057.8
695.653	1067.87
695.846	1096.74
696.039	1049.46
696.232	1067.87
696.425	1145.37
696.618	1163.19
696.812	1173.07
697.005	1235.66
697.198	1302.89
697.391	1252.51
697.584	1269.95
697.777	1362.56
697.97	1310.83
698.163	1350.35
698.356	1331.95
698.549	1428.82
698.742	1365.66
698.935	1319.55
699.127	1362.17
699.32	1349.19
699.513	1316.84
699.706	1381.35
699.899	1428.82
700.092	1386.39
700.285	1429.79
700.477	1343.57
700.67	1444.51
700.863	1465.05
701.056	1513.49
701.248	1507.48
701.441	1526.66
701.634	1488.11
701.826	1597.19
702.019	1489.66
702.212	1576.26
702.404	1530.54
702.597	1523.76
702.79	1539.84
702.982	1587.11
703.175	1651.63
703.367	1681.47
703.56	1673.14
703.752	1728.74
703.945	1698.32
704.137	1707.62
704.33	1768.07
704.522	1786.48
704.715	1779.5
704.907	1799.27
705.1	1854.68
705.292	1854.48
705.484	1823.87
705.677	1875.99
705.869	1863.4
706.061	1903.7
706.254	1941.67
706.446	1888.58
706.638	1888.39
706.831	1936.83
707.023	1946.9
707.215	1998.05
707.407	2024.4
707.599	1991.66
707.792	2064.7
707.984	2056.56
708.176	2072.26
708.368	2030.99
708.56	2110.23
708.752	2085.82
708.944	2104.03
709.136	2151.69
709.329	2117.79
709.521	2209.82
709.713	2208.27
709.905	2212.72
710.097	2218.15
710.289	2183.66
710.481	2236.94
710.672	2218.15
710.864	2262.52
711.056	2257.09
711.248	2267.17
711.44	2283.63
711.632	2275.5
711.824	2301.26
712.016	2371.98
712.207	2375.47
712.399	2346.41
712.591	2412.67
712.783	2386.9
712.975	2394.07
713.166	2380.31
713.358	2374.31
713.55	2426.04
713.741	2443.67
713.933	2458.78
714.125	2449.48
714.316	2438.05
714.508	2501.21
714.7	2493.07
714.891	2463.82
715.083	2488.81
715.274	2467.69
715.466	2477.19
715.657	2531.05
715.849	2419.45
716.04	2505.28
716.232	2379.73
716.423	2424.68
716.615	2352.41
716.806	2283.25
716.998	2234.62
717.189	2167
717.381	2095.51
717.572	2035.44
717.763	2074.19
717.955	2021.49
718.146	1987.2
718.337	1928.5
718.528	1872.7
718.72	1820.38
718.911	1862.62
719.102	1822.32
719.293	1883.74
719.485	1824.65
719.676	1844.02
719.867	1802.37
720.058	1792.87
720.249	1792.87
720.44	1851.38
720.632	1901.37
720.823	1951.36
721.014	2077.49
721.205	2069.16
721.396	2195.87
721.587	2246.63
721.778	2349.12
721.969	2368.3
722.16	2419.64
722.351	2442.7
722.542	2537.06
722.733	2535.51
722.924	2406.66
723.115	2482.81
723.305	2478.16
723.496	2450.45
723.687	2330.13
723.878	2333.62
724.069	2339.82
724.26	2379.73
724.45	2307.27
724.641	2301.65
724.832	2322.38
725.023	2261.93
725.213	2239.27
725.404	2263.87
725.595	2281.7
725.785	2248.18
725.976	2316.38
726.167	2302.62
726.357	2305.14
726.548	2411.7
726.739	2311.73
726.929	2395.62
727.12	2413.44
727.31	2437.47
727.501	2382.83
727.691	2358.03
727.882	2418.09
728.072	2435.92
728.263	2465.56
728.453	2490.17
728.644	2485.52
728.834	2484.16
729.024	2464.98
729.215	2428.56
729.405	2478.54
729.596	2554.49
729.786	2525.43
729.976	2562.24
730.167	2574.06
730.357	2501.02
730.547	2547.91
730.737	2589.37
730.928	2612.42
731.118	2639.55
731.308	2611.65
731.498	2587.62
731.688	2715.69
731.879	2735.84
732.069	2770.33
732.259	2783.89
732.449	2844.53
732.639	2941.21
732.829	2904.4
733.019	2971.05
733.209	3003.99
733.399	3028.79
733.589	3144.07
733.779	3118.68
733.969	3138.06
734.159	3210.91
734.349	3227.76
734.539	3286.08
734.729	3274.84
734.919	3300.23
735.109	3337.04
735.299	3280.08
735.488	3325.41
735.678	3304.29
735.868	3331.61
736.058	3350.99
736.248	3314.95
736.437	3257.8
736.627	3267.29
736.817	3350.02
737.007	3360.09
737.196	3403.69
737.386	3347.69
737.576	3310.88
737.765	3429.65
737.955	3345.76
738.144	3527.49
738.334	3443.21
738.524	3365.71
738.713	3467.04
738.903	3463.94
739.092	3452.32
739.282	3459.87
739.471	3481.96
739.661	3473.63
739.85	3514.12
740.04	3480.99
740.229	3537.57
740.419	3556.36
740.608	3587.36
740.797	3566.63
740.987	3652.07
741.176	3614.68
741.365	3600.34
741.555	3524
741.744	3606.93
741.933	3586.39
742.123	3591.82
742.312	3664.28
742.501	3700.31
742.69	3689.66
742.88	3632.5
743.069	3795.06
743.258	3682.3
743.447	3714.07
743.636	3695.08
743.825	3703.8
744.014	3699.54
744.204	3764.83
744.393	3702.25
744.582	3770.06
744.771	3759.41
744.96	3725.11
745.149	3774.71
745.338	3767.93
745.527	3809.2
745.716	3734.22
745.905	3710
746.094	3780.91
746.283	3808.04
746.471	3808.04
746.66	3860.74
746.849	3780.33
747.038	3828.57
747.227	3806.68
747.416	3811.91
747.604	3746.62
747.793	3753.4
747.982	3825.28
748.171	3811.72
748.359	3794.86
748.548	3821.6
748.737	3791.76
748.926	3805.32
749.114	3734.03
749.303	3759.6
749.491	3741.78
749.68	3694.89
749.869	3779.17
750.057	3745.07
750.246	3692.56
750.434	3761.34
750.623	3742.16
750.811	3696.44
751	3795.06
751.188	3693.73
751.377	3735.38
751.565	3721.82
751.754	3697.8
751.942	3657.11
752.131	3741.19
752.319	3704.58
752.507	3671.64
752.696	3698.96
752.884	3714.46
753.072	3641.41
753.261	3675.9
753.449	3667.76
753.637	3618.94
753.825	3748.75
754.014	3674.93
754.202	3679.97
754.39	3730.54
754.578	3735.58
754.766	3636.96
754.955	3621.26
755.143	3722.01
755.331	3689.08
755.519	3662.53
755.707	3604.22
755.895	3578.45
756.083	3580.97
756.271	3617
756.459	3658.27
756.647	3633.86
756.835	3584.84
757.023	3571.08
757.211	3558.1
757.399	3533.11
757.587	3552.1
757.775	3510.44
757.963	3522.07
758.151	3509.09
758.339	3502.11
758.526	3462.39
758.714	3499.79
758.902	3381.02
759.09	3265.16
759.278	3040.8
759.465	2803.85
759.653	2456.65
759.841	2219.7
760.028	1912.61
760.216	1637.1
760.404	1519.49
760.591	1272.27
760.779	1055.08
760.967	932.05
761.154	773.18
761.342	812.9
761.529	794.3
761.717	857.27
761.905	828.59
762.092	888.07
762.28	793.72
762.467	813.67
762.655	752.64
762.842	786.74
763.029	797.01
763.217	777.83
763.404	788.1
763.592	813.29
763.779	748.19
763.966	828.59
764.154	881.29
764.341	912.29
764.528	930.12
764.716	1012.07
764.903	1025.44
765.09	1097.9
765.277	1154.48
765.465	1360.62
765.652	1406.54
765.839	1459.82
766.026	1590.21
766.213	1650.86
766.4	1781.44
766.588	1941.28
766.775	1983.13
766.962	2106.55
767.149	2197.22
767.336	2338.66
767.523	2314.05
767.71	2481.64
767.897	2572.51
768.084	2670.93
768.271	2657.76
768.458	2723.25
768.645	2842.4
768.832	2814.7
769.019	2849.76
769.206	2854.03
769.392	2970.86
769.579	3064.05
769.766	3022
769.953	3035.37
770.14	3068.89
770.327	3052.23
770.513	3122.17
770.7	3195.41
770.887	3094.08
771.073	3156.27
771.26	3192.89
771.447	3129.34
771.634	3103.77
771.82	3186.88
772.007	3110.74
772.193	3179.52
772.38	3144.45
772.567	3136.51
772.753	3118.49
772.94	3198.12
773.126	3218.46
773.313	3156.66
773.499	3146.58
773.686	3205.48
773.872	3147.17
774.059	3166.15
774.245	3129.34
774.432	3152.4
774.618	3002.82
774.804	3108.8
774.991	3088.85
775.177	3136.9
775.363	3090.98
775.55	3126.82
775.736	3052.23
775.922	3092.92
776.109	3089.62
776.295	3089.82
776.481	3107.64
776.667	3058.43
776.853	3082.45
777.04	3025.49
777.226	3118.88
777.412	3131.28
777.598	3014.45
777.784	3046.8
777.97	3003.4
778.156	3069.28
778.342	3004.95
778.528	2988.29
778.715	2968.14
778.901	3006.31
779.087	3004.37
779.272	3002.05
779.458	2993.52
779.644	2994.3
779.83	2987.13
780.016	3077.22
780.202	2955.94
780.388	2975.31
780.574	2913.7
780.76	2943.73
780.946	2993.14
781.131	2918.74
781.317	2926.1
781.503	2902.85
781.689	2908.47
781.874	3014.45
782.06	2893.55
782.246	2889.48
782.432	2893.55
782.617	2921.84
782.803	2942.76
782.989	2836.78
783.174	2868.17
783.36	2824.77
783.545	2833.1
783.731	2869.53
783.916	2779.82
784.102	2879.99
784.288	2828.45
784.473	2823.22
784.659	2830.39
784.844	2835.23
785.029	2820.7
785.215	2807.14
785.4	2739.91
785.586	2831.55
785.771	2743.01
785.956	2812.95
786.142	2778.46
786.327	2767.23
786.512	2766.84
786.698	2716.85
786.883	2683.33
787.068	2699.61
787.254	2733.71
787.439	2680.23
787.624	2661.63
787.809	2659.7
787.994	2629.28
788.18	2698.25
788.365	2602.15
788.55	2633.15
788.735	2658.34
788.92	2616.69
789.105	2613.2
789.29	2608.35
789.475	2567.28
789.66	2554.11
789.845	2571.35
790.03	2537.64
790.215	2567.67
790.4	2574.84
790.585	2612.23
790.77	2554.11
790.955	2488.81
791.14	2545.39
791.325	2585.69
791.51	2443.67
791.695	2501.41
791.879	2530.08
792.064	2476.8
792.249	2587.62
792.434	2480.29
792.618	2497.14
792.803	2557.59
792.988	2479.51
793.173	2507.41
793.357	2505.28
793.542	2486.1
793.727	2544.22
793.911	2560.11
794.096	2524.46
794.281	2577.35
794.465	2606.8
794.65	2552.36
794.834	2580.84
795.019	2604.09
795.203	2564.76
795.388	2593.05
795.572	2643.81
795.757	2571.74
795.941	2595.37
796.126	2571.74
796.31	2493.85
796.494	2534.15
796.679	2525.62
796.863	2485.32
797.048	2607.19
797.232	2571.74
797.416	2570.77
797.601	2539.38
797.785	2650.59
797.969	2618.62
798.153	2559.92
798.338	2593.05
798.522	2629.47
798.706	2640.9
798.89	2599.05
799.074	2698.64
799.258	2619.59
799.443	2601.19
799.627	2626.37
799.811	2652.92
799.995	2595.95
800.179	2566.12
800.363	2564.95
800.547	2609.52
800.731	2599.83
800.915	2548.68
801.099	2547.32
801.283	2557.98
801.467	2567.09
801.651	2563.02
801.835	2585.3
802.019	2571.35
802.202	2600.99
802.386	2516.32
802.57	2554.49
802.754	2529.69
802.938	2497.34
803.121	2517.1
803.305	2575.42
803.489	2546.94
803.673	2559.34
803.856	2561.86
804.04	2566.7
804.224	2568.25
804.407	2517.29
804.591	2541.71
804.775	2567.67
804.958	2538.61
805.142	2601.19
805.326	2555.66
805.509	2599.64
805.693	2602.35
805.876	2602.74
806.06	2625.4
806.243	2664.93
806.427	2635.87
806.61	2664.35
806.794	2591.69
806.977	2621.53
807.16	2606.61
807.344	2597.89
807.527	2584.72
807.71	2589.75
807.894	2578.52
808.077	2615.33
808.26	2582
808.444	2532.41
808.627	2624.44
808.81	2498.89
808.993	2491.72
809.177	2468.28
809.36	2472.34
809.543	2492.69
809.726	2401.04
809.909	2396.2
810.092	2404.34
810.276	2393.49
810.459	2433.01
810.642	2355.13
810.825	2375.08
811.008	2380.51
811.191	2269.68
811.374	2291.77
811.557	2302.23
811.74	2394.26
811.923	2297.2
812.106	2255.35
812.289	2208.85
812.472	2184.05
812.654	2212.14
812.837	2210.59
813.02	2115.85
813.203	2111.2
813.386	2006.38
813.569	1967.24
813.751	1929.66
813.934	1983.91
814.117	1945.35
814.3	1925.01
814.482	1815.54
814.665	1792.68
814.848	1743.66
815.03	1723.51
815.213	1703.36
815.396	1717.12
815.578	1689.22
815.761	1662.29
815.943	1696.19
816.126	1611.72
816.309	1547.59
816.491	1522.59
816.674	1443.74
816.856	1526.66
817.039	1521.04
817.221	1617.34
817.403	1562.51
817.586	1586.34
817.768	1563.86
817.951	1491.6
818.133	1473.96
818.315	1508.26
818.498	1531.31
818.68	1577.62
818.862	1565.99
819.045	1618.11
819.227	1600.29
819.409	1564.25
819.591	1593.31
819.774	1568.32
819.956	1562.12
820.138	1647.76
820.32	1676.82
820.502	1690.38
820.684	1757.22
820.866	1775.24
821.048	1798.88
821.231	1832.98
821.413	1792.48
821.595	1789.38
821.777	1794.23
821.959	1770.2
822.141	1823.68
822.323	1711.89
822.505	1601.84
822.686	1579.75
822.868	1538.09
823.05	1445.48
823.232	1378.25
823.414	1327.88
823.596	1377.28
823.778	1372.05
823.96	1413.52
824.141	1456.14
824.323	1411.38
824.505	1518.72
824.687	1574.33
824.868	1603.58
825.05	1705.88
825.232	1733.59
825.413	1834.72
825.595	1757.22
825.777	1684.57
825.958	1729.32
826.14	1757.61
826.321	1797.91
826.503	1765.36
826.685	1757.61
826.866	1777.37
827.048	1736.69
827.229	1696.19
827.411	1683.21
827.592	1618.31
827.773	1630.71
827.955	1582.66
828.136	1592.15
828.318	1564.64
828.499	1595.25
828.68	1521.82
828.862	1548.94
829.043	1601.26
829.224	1547.01
829.406	1515.81
829.587	1535.96
829.768	1544.49
829.949	1575.68
830.131	1612.88
830.312	1619.66
830.493	1559.02
830.674	1598.93
830.855	1600.09
831.036	1583.04
831.218	1656.09
831.399	1619.86
831.58	1607.26
831.761	1615.98
831.942	1590.21
832.123	1571.61
832.304	1525.11
832.485	1540.23
832.666	1580.14
832.847	1588.28
833.028	1598.35
833.209	1565.61
833.389	1511.55
833.57	1505.35
833.751	1546.81
833.932	1596.8
834.113	1568.13
834.294	1512.13
834.475	1593.89
834.655	1628.77
834.836	1626.25
835.017	1618.69
835.198	1584.79
835.378	1607.07
835.559	1608.42
835.74	1597.58
835.92	1599.13
836.101	1598.93
836.281	1639.04
836.462	1615.59
836.643	1662.09
836.823	1682.24
837.004	1684.96
837.184	1715.76
837.365	1674.49
837.545	1680.31
837.726	1634
837.906	1671.01
838.087	1641.56
838.267	1652.6
838.448	1631.67
838.628	1629.74
838.808	1671.97
838.989	1689.6
839.169	1611.52
839.349	1669.65
839.53	1663.84
839.71	1690.38
839.89	1650.66
840.07	1690.57
840.251	1648.53
840.431	1718.47
840.611	1615.59
840.791	1639.81
840.971	1643.11
841.151	1608.81
841.332	1604.74
841.512	1674.88
841.692	1603.58
841.872	1653.96
842.052	1632.26
842.232	1648.92
842.412	1589.05
842.592	1618.11
842.772	1655.89
842.952	1632.06
843.132	1622.57
843.312	1612.11
843.492	1601.45
843.672	1647.17
843.851	1565.22
844.031	1641.17
844.211	1609.01
844.391	1559.41
844.571	1617.34
844.751	1627.02
844.93	1622.37
845.11	1591.38
845.29	1630.51
845.47	1667.13
845.649	1590.99
845.829	1634.97
846.009	1566.77
846.188	1626.83
846.368	1597.58
846.547	1589.05
846.727	1650.47
846.907	1541.19
847.086	1576.26
847.266	1650.86
847.445	1591.96
847.625	1586.34
847.804	1565.22
847.984	1595.64
848.163	1528.99
848.343	1526.08
848.522	1572.39
848.701	1556.5
848.881	1527.83
849.06	1548.17
849.239	1537.71
849.419	1556.11
849.598	1471.83
849.777	1469.31
849.957	1480.36
850.136	1434.83
850.315	1409.25
850.494	1430.95
850.674	1424.17
850.853	1467.76
851.032	1457.11
851.211	1502.06
851.39	1493.53
851.569	1441.61
851.748	1433.08
851.927	1475.9
852.107	1422.23
852.286	1396.27
852.465	1414.87
852.644	1478.03
852.823	1466.21
853.002	1445.68
853.181	1454.2
853.359	1435.41
853.538	1392.4
853.717	1456.91
853.896	1319.35
854.075	1282.93
854.254	1250.96
854.433	1243.41
854.611	1268.2
854.79	1209.11
854.969	1268.59
855.148	1300.17
855.327	1265.1
855.505	1307.92
855.684	1285.45
855.863	1290.29
856.041	1281.96
856.22	1338.54
856.399	1297.27
856.577	1423.01
856.756	1399.18
856.934	1497.6
857.113	1502.25
857.291	1370.5
857.47	1387.17
857.648	1432.7
857.827	1399.18
858.005	1429.01
858.184	1379.42
858.362	1491.98
858.541	1361.78
858.719	1360.62
858.898	1374.18
859.076	1355
859.254	1426.3
859.433	1360.82
859.611	1328.85
859.789	1326.52
859.967	1359.85
860.146	1409.83
860.324	1303.27
860.502	1351.32
860.68	1304.63
860.859	1343.96
861.037	1347.64
861.215	1350.93
861.393	1356.75
861.571	1310.05
861.749	1328.07
861.927	1335.44
862.105	1360.43
862.283	1348.42
862.461	1312.38
862.639	1293.39
862.817	1295.52
862.995	1300.75
863.173	1313.15
863.351	1280.6
863.529	1306.95
863.707	1332.53
863.885	1319.74
864.063	1232.36
864.241	1280.41
864.418	1334.66
864.596	1259.68
864.774	1241.27
864.952	1284.87
865.129	1299.59
865.307	1266.46
865.485	1191.67
865.663	1287.77
865.84	1229.65
866.018	1206.01
866.196	1093.83
866.373	1104.29
866.551	1078.14
866.728	1048.5
866.906	1085.5
867.084	1113.4
867.261	1124.83
867.439	1145.56
867.616	1163
867.794	1157.19
867.971	1170.17
868.149	1179.47
868.326	1217.44
868.503	1198.07
868.681	1200.97
868.858	1146.92
869.035	1132
869.213	1210.66
869.39	1170.56
869.567	1214.73
869.745	1177.72
869.922	1168.81
870.099	1187.22
870.276	1203.49
870.454	1215.31
870.631	1185.09
870.808	1170.94
870.985	1180.44
871.162	1228.49
871.339	1171.14
871.517	1156.41
871.694	1120.57
871.871	1150.79
872.048	1143.04
872.225	1153.12
872.402	1152.54
872.579	1138.39
872.756	1168.81
872.933	1129.87
873.11	1123.86
873.287	1161.45
873.463	1144.98
873.64	1114.18
873.817	1157.38
873.994	1131.23
874.171	1096.54
874.348	1129.29
874.524	1062.45
874.701	1094.8
874.878	1065.35
875.055	1120.76
875.231	1098.87
875.408	1113.4
875.585	1071.75
875.762	1073.3
875.938	1124.83
876.115	1062.25
876.291	1074.46
876.468	1051.4
876.645	1032.61
876.821	1021.76
876.998	1064.38
877.174	1061.09
877.351	1051.79
877.527	1032.8
877.704	1057.02
877.88	1028.35
878.057	1028.73
878.233	1106.23
878.409	1012.46
878.586	1056.63
878.762	1046.36
878.938	1031.06
879.115	970.61
879.291	1064.58
879.467	973.32
879.644	1007.61
879.82	1043.07
879.996	1028.35
880.172	922.75
880.349	1001.61
880.525	1036.1
880.701	975.84
880.877	981.07
881.053	963.63
881.229	991.92
881.405	1037.26
881.581	959.37
881.757	991.53
881.933	982.62
882.109	1022.34
882.285	975.84
882.461	928.18
882.637	978.36
882.813	957.63
882.989	972.74
883.165	1002.58
883.341	963.05
883.517	1033.77
883.693	975.26
883.869	985.53
884.044	938.25
884.22	998.31
884.396	1061.86
884.572	1020.79
884.747	1026.6
884.923	1005.68
885.099	1031.45
885.275	1003.74
885.45	952.98
885.626	984.75
885.801	939.03
885.977	983.4
886.153	899.7
886.328	991.92
886.504	966.35
886.679	974.68
886.855	935.15
887.03	1000.45
887.206	994.44
887.381	943.1
887.557	983.01
887.732	982.04
887.908	997.35
888.083	980.68
888.258	967.32
888.434	946
888.609	977
888.784	1013.04
888.96	964.8
889.135	984.37
889.31	949.49
889.485	972.93
889.661	957.24
889.836	1006.65
890.011	984.56
890.186	959.37
890.361	951.82
890.537	999.28
890.712	987.27
890.887	1021.56
891.062	940.19
891.237	999.67
891.412	953.75
891.587	964.6
891.762	979.72
891.937	1013.81
892.112	922.75
892.287	943.48
892.462	896.99
892.637	897.57
892.812	874.51
892.987	907.64
893.161	853.39
893.336	907.64
893.511	878.97
893.686	917.91
893.861	852.23
894.035	852.42
894.21	881.1
894.385	833.24
894.56	873.15
894.734	788.29
894.909	780.35
895.084	810.38
895.258	763.88
895.433	779.77
895.608	760.2
895.782	729.01
895.957	727.46
896.131	754
896.306	670.69
896.48	678.63
896.655	681.73
896.829	587.76
897.004	642.59
897.178	607.53
897.353	616.25
897.527	671.46
897.701	652.28
897.876	588.93
898.05	676.69
898.224	637.95
898.399	710.21
898.573	642.79
898.747	526.54
898.921	574.01
899.096	491.08
899.27	499.42
899.444	530.03
899.618	554.63
899.792	562.77
899.967	564.71
900.141	591.25
900.315	515.88
900.489	539.33
900.663	560.45
900.837	543.01
901.011	537.39
901.185	592.8
901.359	550.18
901.533	567.23
901.707	568.39
901.881	562.19
902.055	501.16
902.229	529.06
902.403	575.36
902.576	560.64
902.75	552.12
902.924	663.71
903.098	581.76
903.272	671.85
903.446	689.09
903.619	674.56
903.793	710.21
903.967	697.04
904.14	709.63
904.314	713.31
904.488	719.51
904.661	721.26
904.835	725.91
905.009	705.56
905.182	777.25
905.356	718.93
905.529	696.07
905.703	658.09
905.876	682.31
906.05	628.84
906.223	647.24
906.397	586.99
906.57	574.98
906.744	545.33
906.917	551.34
907.09	564.32
907.264	540.49
907.437	543.98
907.61	512.01
907.784	538.94
907.957	537.39
908.13	470.16
908.304	500
908.477	483.72
908.65	500.58
908.823	466.67
908.996	516.85
909.17	479.07
909.343	475.39
909.516	491.67
909.689	477.72
909.862	452.92
910.035	463.57
910.208	438.77
910.381	441.87
910.554	531.77
910.727	476.36
910.9	455.63
911.073	456.4
911.246	514.33
911.419	544.56
911.592	508.13
911.765	444.97
911.938	465.51
912.11	496.32
912.283	472.68
912.456	512.98
912.629	500.77
912.802	462.99
912.974	405.25
913.147	418.82
913.32	337.25
913.493	399.44
913.665	401.96
913.838	376.19
914.01	411.07
914.183	425.79
914.356	431.8
914.528	445.36
914.701	466.09
914.873	471.13
915.046	389.17
915.218	388.2
915.391	322.72
915.563	341.51
915.736	388.79
915.908	420.75
916.081	407.19
916.253	422.69
916.425	425.4
916.598	405.06
916.77	405.06
916.942	376.97
917.115	326.59
917.287	411.26
917.459	406.03
917.632	309.16
917.804	317.87
917.976	395.18
918.148	411.84
918.32	388.2
918.493	419.01
918.665	468.8
918.837	395.76
919.009	479.07
919.181	473.65
919.353	464.74
919.525	442.84
919.697	444.2
919.869	437.8
920.041	477.72
920.213	507.36
920.385	497.48
920.557	444.78
920.729	466.28
920.901	447.49
921.073	441.87
921.244	400.8
921.416	483.33
921.588	431.8
921.76	414.75
921.932	507.36
922.103	454.85
922.275	437.03
922.447	474.81
922.619	406.03
922.79	424.05
922.962	412.23
923.134	454.66
923.305	411.07
923.477	380.26
923.648	380.07
923.82	416.3
923.991	356.24
924.163	365.92
924.335	368.64
924.506	343.45
924.677	379.87
924.849	379.29
925.02	381.81
925.192	413.78
925.363	358.56
925.535	377.55
925.706	363.21
925.877	404.87
926.049	357.98
926.22	382.2
926.391	382.59
926.562	416.49
926.734	357.21
926.905	423.47
927.076	319.62
927.247	340.16
927.419	303.34
927.59	294.04
927.761	324.85
927.932	299.08
928.103	300.82
928.274	255.88
928.445	257.43
928.616	259.94
928.787	258.59
928.958	295.21
929.129	263.82
929.3	228.75
929.471	201.82
929.642	189.03
929.813	151.06
929.984	223.71
930.155	159.97
930.326	194.65
930.496	163.85
930.667	128.58
930.838	141.56
931.009	131.88
931.18	133.04
931.35	129.16
931.521	133.23
931.692	90.8
931.863	59.61
932.033	125.29
932.204	94.87
932.374	103.78
932.545	68.72
932.716	130.91
932.886	110.57
933.057	51.28
933.227	32.29
933.398	103.2
933.568	37.52
933.739	6.91
933.909	33.07
934.08	71.62
934.25	34.81
934.421	38.49
934.591	67.17
934.761	29
934.932	0.32
935.102	39.65
935.272	54.96
935.443	25.7
935.613	29.77
935.783	32.1
935.953	11.17
936.123	159
936.294	27.64
936.464	13.3
936.634	50.31
936.804	27.64
936.974	-0.84
937.144	48.57
937.314	7.3
937.484	22.02
937.655	12.92
937.825	55.54
937.995	14.08
938.165	64.45
938.334	13.89
938.504	50.5
938.674	16.21
938.844	49.34
939.014	118.31
939.184	81.7
939.354	142.92
939.524	101.65
939.694	84.8
939.863	73.17
940.033	132.07
940.203	152.22
940.373	103.01
940.542	115.22
940.712	94.48
940.882	115.41
941.051	103.78
941.221	91.97
941.391	119.09
941.56	74.72
941.73	68.91
941.899	166.75
942.069	77.05
942.238	115.22
942.408	68.91
942.577	92.55
942.747	81.5
942.916	5.55
943.086	63.87
943.255	74.14
943.425	56.32
943.594	56.7
943.763	24.74
943.933	31.52
944.102	-9.56
944.271	45.66
944.441	91.58
944.61	52.05
944.779	35.58
944.948	132.85
945.117	34.42
945.287	46.24
945.456	16.6
945.625	24.15
945.794	81.5
945.963	43.72
946.132	56.9
946.301	36.94
946.47	70.27
946.639	8.07
946.808	47.4
946.977	60.97
947.146	99.33
947.315	54.57
947.484	66.2
947.653	54.38
947.822	45.08
947.991	22.99
948.16	108.24
948.329	101.65
948.498	41.59
948.666	48.37
948.835	96.03
949.004	39.07
949.173	9.43
949.341	59.22
949.51	64.84
949.679	82.28
949.847	80.53
950.016	147.76
950.185	100.3
950.353	46.24
950.522	55.93
950.69	97.78
950.859	39.85
951.028	80.15
951.196	46.05
951.365	44.3
951.533	51.08
951.701	85.57
951.87	84.99
952.038	23.38
952.207	41.59
952.375	93.32
952.543	39.85
952.712	72.4
952.88	60.77
953.048	100.49
953.217	56.12
953.385	47.02
953.553	109.79
953.721	17.95
953.89	68.52
954.058	51.47
954.226	37.33
954.394	72.78
954.562	30.16
954.73	62.71
954.898	29.38
955.067	99.91
955.235	61.35
955.403	82.67
955.571	98.17
955.739	83.25
955.907	40.23
956.075	54.57
956.243	19.31
956.41	85.57
956.578	33.84
956.746	47.98
956.914	46.24
957.082	75.88
957.25	68.72
957.418	13.5
957.585	76.27
957.753	104.95
957.921	44.69
958.089	74.14
958.256	73.75
958.424	77.82
958.592	89.25
958.759	16.79
958.927	77.43
959.095	32.48
959.262	52.25
959.43	70.07
959.597	51.86
959.765	65.42
959.932	32.68
960.1	93.9
960.267	64.65
960.435	65.62
960.602	113.08
960.77	66.58
960.937	27.45
961.104	89.45
961.272	9.43
961.439	17.37
961.606	70.46
961.774	75.11
961.941	59.61
962.108	86.35
962.275	64.84
962.443	75.3
962.61	102.04
962.777	135.17
962.944	87.51
963.111	70.27
963.278	105.53
963.446	90.8
963.613	92.16
963.78	83.63
963.947	103.59
964.114	90.03
964.281	160.36
964.448	93.13
964.615	56.9
964.782	93.9
964.949	111.53
965.116	109.79
965.282	113.67
965.449	27.06
965.616	48.18
965.783	105.53
965.95	93.71
966.117	29.38
966.283	99.52
966.45	97.97
966.617	79.76
966.784	123.74
966.95	136.72
967.117	115.41
967.284	77.82
967.45	63.48
967.617	113.67
967.784	116.18
967.95	144.66
968.117	79.57
968.283	142.92
968.45	178.96
968.616	85.57
968.783	125.48
968.949	114.83
969.116	156.68
969.282	102.04
969.449	121.03
969.615	118.7
969.781	55.35
969.948	88.67
970.114	71.43
970.28	130.33
970.447	97.58
970.613	128.39
970.779	101.65
970.945	142.53
971.112	102.82
971.278	83.25
971.444	88.48
971.61	135.56
971.776	113.67
971.942	128
972.108	125.1
972.275	88.67
972.441	116.38
972.607	136.72
972.773	57.67
972.939	106.88
973.105	101.65
973.271	77.24
973.437	72.4
973.602	56.9
973.768	93.13
973.934	75.11
974.1	115.22
974.266	54.38
974.432	85.77
974.598	66.39
974.763	102.43
974.929	91.77
975.095	125.1
975.261	44.5
975.426	51.08
975.592	84.99
975.758	159
975.923	34.03
976.089	100.88
976.255	135.75
976.42	125.29
976.586	112.31
976.751	118.51
976.917	163.07
977.082	121.41
977.248	54.96
977.413	34.23
977.579	77.63
977.744	104.56
977.91	79.18
978.075	46.82
978.24	93.13
978.406	95.07
978.571	82.47
978.736	64.65
978.902	116.57
979.067	38.1
979.232	32.87
979.397	74.33
979.563	128
979.728	66.39
979.893	81.89
980.058	62.32
980.223	120.06
980.388	80.92
980.554	92.55
980.719	68.13
980.884	114.44
981.049	132.85
981.214	47.02
981.379	83.05
981.544	59.8
981.709	98.75
981.874	77.82
982.039	60.58
982.204	76.85
982.368	84.8
982.533	51.86
982.698	119.28
982.863	127.61
983.028	77.63
983.193	110.18
983.357	87.51
983.522	67.36
983.687	75.88
983.852	64.65
984.016	89.83
984.181	96.23
984.346	95.45
984.51	115.02
984.675	88.09
984.839	103.01
985.004	114.44
985.168	121.22
985.333	97.2
985.498	86.35
985.662	129.55
985.827	92.55
985.991	89.64
986.155	57.67
986.32	92.55
986.484	126.65
986.649	112.31
986.813	59.61
986.977	66.58
987.142	100.3
987.306	45.27
987.47	33.84
987.634	69.49
987.799	85.18
987.963	104.95
988.127	96.23
988.291	159.78
988.455	80.53
988.62	71.62
988.784	114.63
988.948	105.14
989.112	53.8
989.276	67.36
989.44	92.74
989.604	61.93
989.768	99.52
989.932	162.49
990.096	34.81
990.26	57.87
990.424	60.97
990.588	84.99
990.752	126.06
990.915	118.7
991.079	52.25
991.243	68.91
991.407	98.17
991.571	70.07
991.734	114.83
991.898	114.63
992.062	156.68
992.226	65.42
992.389	36.36
992.553	19.31
992.717	56.7
992.88	52.83
993.044	71.43
993.207	67.17
993.371	93.52
993.535	83.83
993.698	83.05
993.862	97.97
994.025	103.2
994.189	68.13
994.352	96.62
994.515	69.88
994.679	96.03
994.842	72.78
995.006	114.44
995.169	50.89
995.332	41.01
995.496	112.7
995.659	20.09
995.822	58.45
995.985	81.12
996.149	131.3
996.312	69.68
996.475	123.55
996.638	37.13
996.801	111.34
996.964	139.63
997.128	83.44
997.291	79.18
997.454	99.52
997.617	12.53
997.78	116.57
997.943	53.02
998.106	110.95
998.269	55.93
998.432	71.62
998.595	51.67
998.758	22.8
998.92	31.13
999.083	30.55
999.246	61.93
999.409	60.19
999.572	15.05
999.735	30.35
999.897	86.93
1000.06	42.56
1000.223	64.84
1000.386	96.81
1000.548	59.61
1000.711	78.21
1000.874	73.75
1001.036	14.27
1001.199	108.63
1001.361	39.46
1001.524	75.69
1001.687	77.63
1001.849	24.74
1002.012	76.47
1002.174	61.74
1002.337	67.36
1002.499	57.28
1002.661	92.16
1002.824	24.93
1002.986	38.1
1003.149	62.13
1003.311	36.36
1003.473	106.69
1003.636	53.6
1003.798	64.45
1003.96	69.3
1004.123	45.47
1004.285	36.36
1004.447	43.33
1004.609	36.55
1004.771	94.48
1004.933	-9.36
1005.096	46.43
1005.258	-1.03
1005.42	43.92
1005.582	77.24
1005.744	56.7
1005.906	15.63
1006.068	35.2
1006.23	10.4
1006.392	-2
1006.554	-7.04
1006.716	69.68
1006.878	68.13
1007.04	-16.92
1007.202	12.53
1007.363	60.38
1007.525	68.91
1007.687	48.95
1007.849	74.72
1008.011	-5.3
1008.172	9.04
1008.334	17.18
1008.496	71.82
1008.658	-3.55
1008.819	35.58
1008.981	4.59
1009.143	32.1
1009.304	23.38
1009.466	60.19
1009.627	95.26
1009.789	145.63
1009.95	59.22
1010.112	33.84
1010.273	56.32
1010.435	24.54
1010.596	47.6
1010.758	17.37
1010.919	14.85
1011.081	16.6
1011.242	22.6
1011.403	46.63
1011.565	30.93
1011.726	22.22
1011.887	13.89
1012.049	26.87
1012.21	81.31
1012.371	61.93
1012.532	-36.88
1012.693	50.12
1012.855	5.36
1013.016	41.4
1013.177	76.85
1013.338	44.11
1013.499	85.96
1013.66	64.26
1013.821	68.91
1013.982	27.45
1014.143	68.13
1014.304	12.72
1014.465	55.15
1014.626	57.48
1014.787	13.89
1014.948	110.95
1015.109	-33.97
1015.27	42.75
1015.431	25.9
1015.592	28.61
1015.752	55.73
1015.913	65.62
1016.074	49.92
1016.235	42.95
1016.395	4.78
1016.556	55.54
1016.717	38.49
1016.877	91.58
1017.038	8.27
1017.199	49.53
1017.359	43.92
1017.52	29.58
1017.681	22.99
1017.841	31.13
1018.002	30.55
1018.162	42.56
1018.323	64.84
1018.483	27.64
1018.644	24.15
1018.804	-7.81
1018.964	21.64
1019.125	23.57
1019.285	37.52
1019.446	-7.81
1019.606	4.78
1019.766	-9.56
1019.926	56.32
1020.087	-1.23
1020.247	-32.61
1020.407	57.09
1020.567	38.88
1020.728	10.01
1020.888	4.78
1021.048	-2.2
1021.208	13.5
1021.368	-15.37
1021.528	41.01
1021.688	58.83
1021.848	50.12
1022.008	39.07
1022.168	5.75
1022.328	26.29
1022.488	33.65
1022.648	-9.36
1022.808	31.9
1022.968	35.78
1023.128	-6.26
1023.288	19.7
1023.448	-12.85
1023.608	41.01
1023.767	45.27
1023.927	7.88
1024.087	-5.88
1024.247	-17.7
1024.406	9.04
1024.566	0.13
1024.726	3.23
1024.885	33.45
1025.045	53.02
1025.205	8.27
1025.364	21.44
1025.524	44.69
1025.683	6.33
1025.843	25.51
1026.003	31.13
1026.162	48.95
1026.321	58.06
1026.481	29.77
1026.64	3.62
1026.8	12.34
1026.959	22.02
1027.119	12.14
1027.278	-4.91
1027.437	3.81
1027.597	20.28
1027.756	34.81
1027.915	26.87
1028.074	33.26
1028.234	-6.46
1028.393	47.02
1028.552	1.49
1028.711	-37.07
1028.87	43.14
1029.03	-15.95
1029.189	18.34
1029.348	-33.39
1029.507	6.72
1029.666	-9.95
1029.825	-20.8
1029.984	-15.56
1030.143	26.09
1030.302	7.49
1030.461	-27
1030.62	4.39
1030.779	32.48
1030.938	-23.9
1031.097	-15.76
1031.255	34.42
1031.414	28.22
1031.573	29
1031.732	-31.06
1031.891	-7.62
1032.049	28.8
1032.208	21.05
1032.367	-4.52
1032.525	13.69
1032.684	3.23
1032.843	-10.14
1033.001	-22.15
1033.16	155.13
1033.319	26.29
1033.477	30.16
1033.636	-12.27
1033.794	-29.71
1033.953	23.96
1034.111	29.19
1034.27	-2
1034.428	28.8
1034.587	1.29
1034.745	6.33
1034.903	18.15
1035.062	22.02
1035.22	-39.78
1035.378	23.96
1035.537	-32.23
1035.695	30.16
1035.853	-5.3
1036.011	31.9
1036.17	35.39
1036.328	-19.05
1036.486	24.74
1036.644	17.57
1036.802	-65.36
1036.96	-17.31
1037.119	35.78
1037.277	-6.26
1037.435	-56.83
1037.593	4
1037.751	2.65
1037.909	6.91
1038.067	6.91
