Data from gum_young_FLMT105791__71__17-39-29-043.txt Node

Date: Mon Mar 20 17:39:29 GMT 2023
User: antho
Spectrometer: FLMT10579
Trigger mode: 0
Integration Time (sec): 1.000000E-1
Scans to average: 10
Electric dark correction enabled: true
Nonlinearity correction enabled: false
Boxcar width: 0
XAxis mode: Wavelengths
Number of Pixels in Spectrum: 3648
>>>>>Begin Spectral Data<<<<<
345.248	-157.58
345.464	-157.58
345.681	-157.58
345.898	-160.68
346.114	-146.34
346.331	-23.51
346.548	35.39
346.764	-3.36
346.981	-14.21
347.197	-35.52
347.414	27.25
347.631	-29.51
347.847	68.13
348.064	-3.55
348.28	6.91
348.497	-33.97
348.713	5.94
348.93	24.35
349.146	35
349.363	-20.99
349.579	14.85
349.796	9.24
350.012	4.97
350.229	22.99
350.445	2.65
350.661	-40.36
350.878	2.84
351.094	27.64
351.311	22.6
351.527	29.19
351.743	7.1
351.96	52.05
352.176	12.14
352.392	18.15
352.609	35.58
352.825	-7.04
353.041	15.24
353.257	-3.55
353.474	5.75
353.69	4.78
353.906	10.2
354.122	-29.9
354.339	58.45
354.555	4.59
354.771	-20.02
354.987	58.64
355.203	65.62
355.42	9.04
355.636	7.1
355.852	-6.26
356.068	16.21
356.284	-11.88
356.5	57.09
356.716	9.43
356.932	-9.56
357.148	36.75
357.364	8.07
357.58	60
357.796	42.95
358.012	52.05
358.228	16.79
358.444	-22.73
358.66	58.83
358.876	26.09
359.092	-7.04
359.308	32.48
359.524	23.96
359.74	-2.39
359.956	-8.2
360.172	16.02
360.388	31.13
360.604	-28.35
360.819	100.68
361.035	6.33
361.251	54.18
361.467	-32.23
361.683	56.7
361.898	11.56
362.114	32.48
362.33	20.09
362.546	35.78
362.762	10.79
362.977	12.34
363.193	-16.34
363.409	37.91
363.624	-22.73
363.84	9.62
364.056	-4.13
364.271	28.22
364.487	32.29
364.703	1.29
364.918	8.07
365.134	-29.9
365.35	22.22
365.565	108.82
365.781	10.98
365.996	26.87
366.212	82.67
366.427	33.45
366.643	-1.42
366.858	7.88
367.074	-17.11
367.289	57.28
367.505	91.58
367.72	-8.4
367.936	8.85
368.151	60.19
368.367	57.67
368.582	19.12
368.798	-7.43
369.013	50.7
369.228	25.12
369.444	30.35
369.659	55.15
369.874	29
370.09	60.97
370.305	-47.92
370.52	11.95
370.736	74.92
370.951	50.31
371.166	79.57
371.381	73.37
371.597	41.59
371.812	-14.79
372.027	-3.55
372.242	20.67
372.458	49.92
372.673	1.68
372.888	36.94
373.103	26.67
373.318	95.26
373.533	25.12
373.749	36.94
373.964	-30.68
374.179	61.16
374.394	-24.48
374.609	57.48
374.824	-25.45
375.039	47.02
375.254	-9.17
375.469	88.48
375.684	14.66
375.899	60.77
376.114	14.47
376.329	26.29
376.544	48.76
376.759	51.47
376.974	16.79
377.189	-16.92
377.404	19.31
377.619	66.39
377.834	-12.27
378.049	-26.8
378.264	-12.46
378.478	34.42
378.693	-12.66
378.908	56.32
379.123	2.65
379.338	56.51
379.553	12.72
379.767	19.7
379.982	62.13
380.197	70.65
380.412	35.97
380.626	30.93
380.841	99.72
381.056	47.4
381.271	100.49
381.485	-5.1
381.7	16.99
381.915	47.6
382.129	16.79
382.344	37.72
382.559	26.48
382.773	63.68
382.988	2.26
383.202	30.16
383.417	-9.36
383.632	94.87
383.846	21.83
384.061	33.26
384.275	18.15
384.49	38.1
384.704	19.7
384.919	50.7
385.133	39.27
385.348	72.78
385.562	-13.05
385.777	64.26
385.991	14.66
386.206	22.02
386.42	-3.55
386.634	46.82
386.849	57.28
387.063	34.81
387.277	4.59
387.492	-7.23
387.706	-16.73
387.92	18.92
388.135	62.71
388.349	49.34
388.563	36.36
388.778	41.98
388.992	59.8
389.206	60.97
389.42	99.33
389.635	23.77
389.849	47.02
390.063	45.47
390.277	10.4
390.491	83.25
390.706	64.45
390.92	67.75
391.134	64.84
391.348	71.82
391.562	-2.97
391.776	26.09
391.99	21.44
392.205	63.1
392.419	48.18
392.633	24.93
392.847	96.42
393.061	18.92
393.275	82.67
393.489	30.93
393.703	75.3
393.917	75.5
394.131	-5.68
394.345	69.1
394.559	84.22
394.773	39.65
394.986	36.75
395.2	53.8
395.414	66.78
395.628	31.52
395.842	40.23
396.056	40.04
396.27	-3.16
396.484	50.5
396.697	51.67
396.911	70.07
397.125	56.32
397.339	63.68
397.553	43.53
397.766	121.22
397.98	87.7
398.194	91.97
398.408	68.52
398.621	75.11
398.835	54.57
399.049	43.53
399.262	128.58
399.476	82.67
399.69	94.87
399.903	127.03
400.117	58.64
400.331	95.26
400.544	49.34
400.758	165.98
400.971	72.78
401.185	94.1
401.398	24.54
401.612	103.2
401.826	107.47
402.039	68.72
402.253	37.91
402.466	98.75
402.68	60.58
402.893	53.99
403.106	81.89
403.32	96.03
403.533	101.46
403.747	77.82
403.96	83.05
404.174	84.8
404.387	67.75
404.6	91.58
404.814	113.28
405.027	88.09
405.24	75.11
405.454	64.45
405.667	126.45
405.88	25.12
406.094	60.97
406.307	89.06
406.52	87.9
406.733	69.1
406.947	22.41
407.16	130.13
407.373	110.18
407.586	61.16
407.799	66.2
408.012	111.15
408.226	84.41
408.439	133.23
408.652	72.4
408.865	75.69
409.078	137.69
409.291	86.54
409.504	41.78
409.717	114.63
409.93	121.61
410.143	81.89
410.357	45.08
410.57	37.33
410.783	99.33
410.996	84.8
411.209	93.9
411.421	148.93
411.634	94.68
411.847	94.29
412.06	62.13
412.273	133.04
412.486	97.39
412.699	181.67
412.912	114.83
413.125	136.14
413.338	112.5
413.55	121.61
413.763	123.55
413.976	106.5
414.189	74.33
414.402	90.61
414.615	148.73
414.827	92.55
415.04	149.51
415.253	129.36
415.466	130.71
415.678	146.41
415.891	119.09
416.104	124.13
416.316	115.41
416.529	100.49
416.742	169.08
416.954	141.18
417.167	117.93
417.38	108.43
417.592	158.61
417.805	78.02
418.017	70.85
418.23	135.56
418.442	106.5
418.655	131.68
418.868	127.61
419.08	153.58
419.293	140.4
419.505	118.31
419.718	134.59
419.93	152.8
420.142	124.71
420.355	152.41
420.567	132.85
420.78	149.7
420.992	141.95
421.205	179.93
421.417	95.45
421.629	115.8
421.842	95.84
422.054	84.41
422.266	136.91
422.479	167.14
422.691	100.1
422.903	146.8
423.115	109.6
423.328	125.29
423.54	152.61
423.752	115.8
423.964	109.6
424.177	141.56
424.389	133.81
424.601	223.33
424.813	145.63
425.025	152.41
425.238	146.8
425.45	144.47
425.662	140.79
425.874	380.45
426.086	127.23
426.298	136.72
426.51	146.21
426.722	140.98
426.934	138.66
427.146	160.55
427.358	102.62
427.57	169.66
427.782	146.02
427.994	167.14
428.206	122.58
428.418	95.07
428.63	177.02
428.842	168.11
429.054	161.52
429.266	153.77
429.478	115.8
429.69	167.14
429.902	101.46
430.114	152.8
430.325	163.65
430.537	115.22
430.749	125.48
430.961	85.57
431.173	109.6
431.384	131.3
431.596	74.53
431.808	145.05
432.02	155.13
432.231	173.34
432.443	207.63
432.655	167.33
432.867	128.58
433.078	177.41
433.29	233.59
433.502	204.92
433.713	192.13
433.925	162.88
434.136	199.69
434.348	139.05
434.56	127.61
434.771	248.32
434.983	129.16
435.194	139.05
435.406	162.3
435.617	202.21
435.829	220.03
436.04	187.68
436.252	195.62
436.463	224.29
436.675	215.38
436.886	172.18
437.098	196.4
437.309	250.64
437.521	178.96
437.732	214.03
437.943	182.64
438.155	174.11
438.366	140.01
438.578	238.63
438.789	184
439	192.33
439.211	158.61
439.423	198.72
439.634	199.11
439.845	214.22
440.057	191.55
440.268	199.11
440.479	177.21
440.69	205.69
440.902	162.1
441.113	181.86
441.324	192.13
441.535	212.67
441.746	251.23
441.957	161.71
442.168	217.71
442.38	197.56
442.591	234.37
442.802	186.32
443.013	214.03
443.224	203.37
443.435	178.57
443.646	208.21
443.857	161.91
444.068	209.38
444.279	175.47
444.49	296.37
444.701	218.87
444.912	330.66
445.123	254.52
445.334	235.53
445.545	229.33
445.756	242.31
445.967	179.15
446.178	228.17
446.388	264.4
446.599	259.56
446.81	241.15
447.021	225.07
447.232	267.31
447.443	281.84
447.653	209.18
447.864	273.31
448.075	233.4
448.286	285.33
448.496	244.64
448.707	245.22
448.918	223.91
449.129	313.61
449.339	204.92
449.55	264.98
449.761	269.44
449.971	293.46
450.182	247.54
450.393	271.96
450.603	243.67
450.814	277.58
451.024	269.83
451.235	295.21
451.446	323.88
451.656	308.77
451.867	264.79
452.077	291.52
452.288	329.89
452.498	318.84
452.709	269.05
452.919	292.49
453.13	257.81
453.34	317.29
453.55	213.06
453.761	280.29
453.971	307.02
454.182	293.85
454.392	302.37
454.602	301.41
454.813	314.39
455.023	337.83
455.233	236.69
455.444	290.17
455.654	227.78
455.864	270.99
456.075	250.64
456.285	275.06
456.495	275.44
456.705	322.33
456.916	309.93
457.126	336.67
457.336	296.17
457.546	230.11
457.756	294.04
457.967	330.08
458.177	285.71
458.387	282.61
458.597	260.72
458.807	308.77
459.017	281.84
459.227	289.01
459.437	296.56
459.647	313.03
459.857	332.99
460.068	294.43
460.278	335.7
460.488	295.98
460.698	388.4
460.908	315.16
461.117	282.42
461.327	260.14
461.537	340.74
461.747	310.51
461.957	297.92
462.167	411.26
462.377	345
462.587	309.54
462.797	359.53
463.007	308.38
463.216	353.14
463.426	380.45
463.636	328.72
463.846	294.24
464.056	313.03
464.265	354.88
464.475	316.52
464.685	353.33
464.895	352.56
465.104	314.58
465.314	385.1
465.524	307.02
465.733	305.09
465.943	389.17
466.153	396.15
466.362	372.71
466.572	343.26
466.782	346.16
466.991	374.06
467.201	380.65
467.41	285.52
467.62	360.31
467.829	320.78
468.039	356.24
468.249	342.87
468.458	340.74
468.668	365.54
468.877	366.12
469.086	400.22
469.296	378.71
469.505	351.59
469.715	391.89
469.924	381.81
470.134	407.97
470.343	417.27
470.552	342.09
470.762	331.82
470.971	350.23
471.18	390.14
471.39	394.99
471.599	333.96
471.808	418.43
472.018	360.69
472.227	431.99
472.436	433.93
472.645	392.85
472.855	379.87
473.064	434.7
473.273	392.66
473.482	442.65
473.691	441.29
473.901	415.52
474.11	399.05
474.319	501.35
474.528	414.75
474.737	487.4
474.946	439.74
475.155	450.59
475.364	467.25
475.573	458.15
475.783	431.8
475.992	460.86
476.201	490.31
476.41	422.89
476.619	417.27
476.828	474.42
477.037	407.39
477.245	455.82
477.454	497.48
477.663	444.2
477.872	479.65
478.081	519.37
478.29	436.84
478.499	541.46
478.708	494.38
478.917	564.71
479.125	497.67
479.334	506.2
479.543	477.52
479.752	506.39
479.961	495.73
480.169	530.8
480.378	480.82
480.587	605.2
480.796	544.17
481.004	503.1
481.213	539.72
481.422	532.55
481.63	527.51
481.839	573.81
482.048	602.49
482.256	549.6
482.465	578.08
482.674	582.34
482.882	580.98
483.091	628.84
483.299	599
483.508	610.82
483.716	590.67
483.925	613.34
484.134	545.33
484.342	558.7
484.551	639.11
484.759	605.59
484.967	622.06
485.176	615.66
485.384	638.91
485.593	631.16
485.801	607.33
486.01	594.93
486.218	584.86
486.426	503.1
486.635	535.07
486.843	537.2
487.051	577.88
487.26	565.1
487.468	588.35
487.676	629.81
487.885	574.4
488.093	622.45
488.301	659.45
488.509	635.62
488.717	651.89
488.926	631.55
489.134	643.18
489.342	664.1
489.55	618.38
489.758	647.83
489.967	633.3
490.175	756.71
490.383	646.66
490.591	706.34
490.799	646.28
491.007	742.96
491.215	687.35
491.423	682.12
491.631	658.48
491.839	675.73
492.047	715.83
492.255	672.82
492.463	622.83
492.671	672.82
492.879	728.81
493.087	682.12
493.295	738.69
493.503	723.97
493.711	747.02
493.919	737.34
494.127	766.59
494.334	764.27
494.542	709.83
494.75	749.16
494.958	741.41
495.166	776.09
495.374	772.02
495.581	762.91
495.789	796.04
495.997	808.25
496.205	793.72
496.412	757.68
496.62	760.39
496.828	794.88
497.035	779.19
497.243	827.82
497.451	783.45
497.658	806.89
497.866	813.48
498.074	840.41
498.281	774.54
498.489	883.81
498.696	813.09
498.904	781.9
499.112	778.22
499.319	897.18
499.527	800.69
499.734	860.37
499.942	801.47
500.149	807.47
500.357	850.87
500.564	799.34
500.771	844.29
500.979	795.27
501.186	812.51
501.394	840.6
501.601	814.06
501.808	847.19
502.016	817.55
502.223	818.32
502.43	828.2
502.638	841.77
502.845	862.5
503.052	908.61
503.26	836.92
503.467	936.7
503.674	900.86
503.881	901.44
504.089	966.35
504.296	916.94
504.503	871.22
504.71	895.82
504.917	856.3
505.125	909.77
505.332	906.48
505.539	923.72
505.746	1016.91
505.953	968.67
506.16	970.61
506.367	1018.27
506.574	1014.78
506.781	1023.11
506.988	987.85
507.195	988.43
507.402	992.11
507.609	1049.27
507.816	966.73
508.023	984.95
508.23	963.83
508.437	967.12
508.644	1029.51
508.851	1079.49
509.058	1079.3
509.265	1041.71
509.472	1082.59
509.679	1182.18
509.885	1087.24
510.092	1111.46
510.299	1101.58
510.506	1084.92
510.713	1114.56
510.92	1115.14
511.126	1099.45
511.333	1182.96
511.54	1161.26
511.746	1208.72
511.953	1229.26
512.16	1208.53
512.367	1184.7
512.573	1155.06
512.78	1196.91
512.987	1175.79
513.193	1204.07
513.4	1124.44
513.606	1192.26
513.813	1232.56
514.02	1209.5
514.226	1289.9
514.433	1271.69
514.639	1185.28
514.846	1244.76
515.052	1202.52
515.259	1244.37
515.465	1289.32
515.672	1251.93
515.878	1374.38
516.085	1303.66
516.291	1381.93
516.497	1310.44
516.704	1288.16
516.91	1238.17
517.117	1185.67
517.323	1172.69
517.529	1223.84
517.736	1225.97
517.942	1218.02
518.148	1280.22
518.354	1285.64
518.561	1292.23
518.767	1327.69
518.973	1355.58
519.179	1368.18
519.386	1348.8
519.592	1359.27
519.798	1380.19
520.004	1497.41
520.21	1437.93
520.417	1503.03
520.623	1521.04
520.829	1511.94
521.035	1536.54
521.241	1579.56
521.447	1574.91
521.653	1664.42
521.859	1549.72
522.065	1623.73
522.271	1720.99
522.477	1676.43
522.683	1714.6
522.889	1647.37
523.095	1682.05
523.301	1662.67
523.507	1627.8
523.713	1695.8
523.919	1649.89
524.125	1771.95
524.331	1752.38
524.537	1828.13
524.742	1836.47
524.948	1825.62
525.154	1825.62
525.36	1933.34
525.566	1877.35
525.772	1906.21
525.977	1833.56
526.183	1885.68
526.389	1903.89
526.595	1820.19
526.8	1794.62
527.006	1738.04
527.212	1711.89
527.417	1728.35
527.623	1702.97
527.829	1781.05
528.034	1835.88
528.24	1876.57
528.446	1855.07
528.651	1968.21
528.857	1979.06
529.062	2015.49
529.268	2000.57
529.473	2041.45
529.679	1981.58
529.884	2103.06
530.09	2069.93
530.295	2031.38
530.501	2035.83
530.706	2050.94
530.912	2044.55
531.117	2076.91
531.323	2066.25
531.528	2141.04
531.733	2095.51
531.939	2102.67
532.144	2149.75
532.35	2137.74
532.555	2135.03
532.76	2115.07
532.966	2118.56
533.171	2071.48
533.376	2023.43
533.581	2016.65
533.787	2112.94
533.992	2155.37
534.197	2138.52
534.402	2151.3
534.607	2164.87
534.813	2211.75
535.018	2179.2
535.223	2170.87
535.428	2217.76
535.633	2268.91
535.838	2283.05
536.043	2244.88
536.249	2384.38
536.454	2265.03
536.659	2314.05
536.864	2267.36
537.069	2250.5
537.274	2264.07
537.479	2270.65
537.684	2297.58
537.889	2230.35
538.094	2334.4
538.299	2296.03
538.504	2339.63
538.708	2324.9
538.913	2343.7
539.118	2338.08
539.323	2361.91
539.528	2302.23
539.733	2314.44
539.938	2282.67
540.142	2355.13
540.347	2302.81
540.552	2267.36
540.757	2284.41
540.962	2273.37
541.166	2245.08
541.371	2219.31
541.576	2282.28
541.781	2193.35
541.985	2332.65
542.19	2327.23
542.395	2407.24
542.599	2445.41
542.804	2342.15
543.008	2432.82
543.213	2395.43
543.418	2322.77
543.622	2387.87
543.827	2357.45
544.031	2404.92
544.236	2437.08
544.44	2410.93
544.645	2491.91
544.849	2420.42
545.054	2408.99
545.258	2527.95
545.463	2499.86
545.667	2434.18
545.872	2474.28
546.076	2483.97
546.281	2464.01
546.485	2422.94
546.689	2474.28
546.894	2491.72
547.098	2471.18
547.302	2433.01
547.507	2460.33
547.711	2442.51
547.915	2491.72
548.119	2420.03
548.324	2486.68
548.528	2499.08
548.732	2454.91
548.936	2527.76
549.141	2501.21
549.345	2477.77
549.549	2516.91
549.753	2512.64
549.957	2561.08
550.161	2568.05
550.366	2567.09
550.57	2447.16
550.774	2507.22
550.978	2573.29
551.182	2506.06
551.386	2499.27
551.59	2475.64
551.794	2511.29
551.998	2535.12
552.202	2485.13
552.406	2530.66
552.61	2566.12
552.814	2541.71
553.018	2600.22
553.222	2475.83
553.426	2518.07
553.63	2560.89
553.833	2533.96
554.037	2457.23
554.241	2520.59
554.445	2512.26
554.649	2528.53
554.853	2540.35
555.056	2557.21
555.26	2577.74
555.464	2571.15
555.668	2555.66
555.871	2546.94
556.075	2514.19
556.279	2498.11
556.483	2484.16
556.686	2505.47
556.89	2466.53
557.094	2502.57
557.297	2412.67
557.501	2525.24
557.704	2409.96
557.908	2483.97
558.112	2415.19
558.315	2477.38
558.519	2424.68
558.722	2415.77
558.926	2392.52
559.129	2319.67
559.333	2345.63
559.536	2301.46
559.74	2318.12
559.943	2307.08
560.147	2325.87
560.35	2317.15
560.553	2340.21
560.757	2300.88
560.96	2412.28
561.164	2350.09
561.367	2424.49
561.57	2347.76
561.774	2338.46
561.977	2345.83
562.18	2307.27
562.384	2428.17
562.587	2331.68
562.79	2325.48
562.993	2299.52
563.197	2354.74
563.4	2370.82
563.603	2353.38
563.806	2387.87
564.009	2291.38
564.212	2323.16
564.416	2234.62
564.619	2318.51
564.822	2227.64
565.025	2310.56
565.228	2258.64
565.431	2277.24
565.634	2178.82
565.837	2172.04
566.04	2156.34
566.243	2191.02
566.446	2109.26
566.649	2183.85
566.852	2115.27
567.055	2132.7
567.258	2168.16
567.461	2226.67
567.664	2214.08
567.867	2149.95
568.07	2156.92
568.273	2189.28
568.475	2200.71
568.678	2077.1
568.881	2108.68
569.084	2096.86
569.287	2007.93
569.489	2055.4
569.692	2074.58
569.895	2091.82
570.098	2013.55
570.3	2012.58
570.503	1965.11
570.706	1971.12
570.909	1950
571.111	1906.21
571.314	1907.57
571.516	1932.76
571.719	1926.17
571.922	1894.01
572.124	1882.19
572.327	1941.86
572.529	1873.28
572.732	1886.84
572.935	1929.85
573.137	1978.29
573.34	1928.69
573.542	1952.33
573.745	1941.67
573.947	1916.87
574.15	1893.23
574.352	1898.66
574.554	1919.78
574.757	1871.34
574.959	1870.56
575.162	1823.48
575.364	1809.53
575.566	1883.35
575.769	1791.9
575.971	1835.88
576.173	1697.94
576.376	1785.32
576.578	1816.51
576.78	1857.97
576.982	1722.74
577.185	1794.62
577.387	1753.54
577.589	1746.18
577.791	1805.47
577.993	1754.32
578.196	1746.76
578.398	1764.2
578.6	1761.1
578.802	1741.14
579.004	1691.35
579.206	1725.45
579.408	1769.62
579.61	1691.35
579.812	1766.14
580.014	1724.09
580.216	1734.36
580.418	1741.53
580.62	1733.97
580.822	1691.54
581.024	1716.73
581.226	1770.2
581.428	1714.21
581.63	1822.71
581.832	1726.22
582.034	1785.51
582.236	1714.02
582.438	1784.93
582.64	1798.68
582.841	1825.42
583.043	1817.67
583.245	1736.69
583.447	1776.02
583.649	1764
583.85	1756.45
584.052	1816.7
584.254	1733.39
584.456	1771.17
584.657	1694.64
584.859	1769.62
585.061	1751.41
585.262	1720.02
585.464	1699.68
585.666	1721.57
585.867	1673.14
586.069	1740.17
586.27	1690.96
586.472	1696.97
586.674	1666.94
586.875	1642.52
587.077	1662.87
587.278	1707.62
587.48	1640.2
587.681	1743.47
587.883	1687.09
588.084	1637.49
588.285	1665.97
588.487	1621.02
588.688	1609.39
588.89	1530.73
589.091	1501.28
589.292	1496.05
589.494	1483.46
589.695	1417.39
589.896	1348.03
590.098	1344.73
590.299	1435.41
590.5	1399.57
590.702	1410.22
590.903	1492.95
591.104	1509.81
591.305	1502.06
591.507	1546.62
591.708	1516.39
591.909	1504.77
592.11	1527.24
592.311	1529.57
592.512	1473
592.714	1447.81
592.915	1482.1
593.116	1468.93
593.317	1503.61
593.518	1525.31
593.719	1522.79
593.92	1505.16
594.121	1545.26
594.322	1531.51
594.523	1518.33
594.724	1444.51
594.925	1441.22
595.126	1454.78
595.327	1496.05
595.528	1460.79
595.729	1491.21
595.929	1459.24
596.13	1481.91
596.331	1498.96
596.532	1525.69
596.733	1543.91
596.934	1538.87
597.135	1543.13
597.335	1500.7
597.536	1482.1
597.737	1488.11
597.938	1448
598.138	1526.86
598.339	1467.18
598.54	1511.55
598.74	1469.7
598.941	1463.7
599.142	1514.84
599.342	1497.8
599.543	1454.78
599.744	1438.9
599.944	1453.81
600.145	1488.5
600.345	1495.86
600.546	1570.45
600.746	1540.42
600.947	1562.31
601.147	1466.8
601.348	1504.77
601.548	1444.32
601.749	1499.93
601.949	1435.21
602.15	1443.55
602.35	1460.98
602.551	1504.58
602.751	1420.68
602.951	1450.52
603.152	1390.27
603.352	1501.67
603.552	1460.01
603.753	1504.19
603.953	1491.98
604.153	1485.4
604.354	1458.85
604.554	1440.45
604.754	1488.11
604.954	1445.1
605.155	1515.62
605.355	1449.94
605.555	1518.14
605.755	1491.98
605.955	1474.35
606.155	1479.39
606.356	1470.48
606.556	1464.47
606.756	1482.1
606.956	1388.13
607.156	1497.8
607.356	1426.11
607.556	1465.63
607.756	1427.27
607.956	1494.11
608.156	1462.53
608.356	1435.41
608.556	1465.44
608.756	1460.98
608.956	1382.32
609.156	1402.08
609.356	1372.44
609.556	1375.35
609.755	1393.37
609.955	1361.59
610.155	1381.16
610.355	1411.38
610.555	1371.86
610.755	1376.32
610.954	1332.53
611.154	1379.61
611.354	1435.99
611.554	1355.97
611.753	1387.55
611.953	1322.65
612.153	1400.15
612.352	1344.15
612.552	1302.89
612.752	1307.54
612.951	1336.21
613.151	1351.32
613.351	1312.57
613.55	1303.85
613.75	1337.95
613.949	1323.81
614.149	1338.34
614.348	1328.07
614.548	1309.09
614.747	1257.74
614.947	1319.35
615.146	1239.53
615.346	1313.15
615.545	1323.04
615.745	1275.76
615.944	1325.17
616.144	1274.4
616.343	1306.57
616.542	1238.95
616.742	1247.86
616.941	1267.62
617.14	1181.6
617.34	1250.77
617.539	1231.97
617.738	1202.91
617.938	1300.37
618.137	1232.56
618.336	1207.95
618.535	1288.94
618.734	1249.99
618.934	1237.01
619.133	1220.74
619.332	1261.23
619.531	1209.69
619.73	1230.42
619.929	1252.32
620.128	1284.48
620.328	1300.17
620.527	1231.39
620.726	1220.16
620.925	1255.42
621.124	1243.02
621.323	1241.47
621.522	1182.76
621.721	1174.43
621.92	1171.52
622.119	1241.27
622.318	1165.71
622.517	1181.02
622.715	1216.47
622.914	1138.39
623.113	1183.92
623.312	1134.33
623.511	1188.57
623.71	1203.69
623.909	1121.73
624.107	1241.66
624.306	1105.65
624.505	1121.93
624.704	1140.14
624.902	1144.4
625.101	1176.95
625.3	1098.48
625.499	1115.34
625.697	1123.09
625.896	1091.51
626.095	1142.46
626.293	1084.14
626.492	1098.29
626.69	1132.97
626.889	1108.17
627.088	1157.96
627.286	1120.18
627.485	1089.18
627.683	1067.68
627.882	1079.88
628.08	1003.74
628.279	1064
628.477	1101.78
628.676	1002.58
628.874	1061.67
629.073	1017.69
629.271	1040.94
629.469	1049.08
629.668	1031.83
629.866	1053.34
630.065	1045.59
630.263	1070.39
630.461	1001.41
630.66	1047.33
630.858	1077.17
631.056	1096.16
631.254	1085.11
631.453	1050.24
631.651	1082.79
631.849	1059.93
632.047	1056.05
632.245	1021.18
632.444	1050.05
632.642	1090.34
632.84	1084.14
633.038	1010.71
633.236	1036.29
633.434	1051.4
633.632	1042.88
633.83	1053.15
634.028	1092.28
634.227	1066.13
634.425	1110.3
634.623	1059.35
634.821	1075.04
635.019	1070.2
635.216	1071.75
635.414	1081.82
635.612	1039.58
635.81	1031.83
636.008	1107.78
636.206	1057.99
636.404	1068.45
636.602	1007.23
636.8	1062.06
636.997	1085.69
637.195	1091.51
637.393	1064.77
637.591	1094.61
637.789	1088.02
637.986	1051.01
638.184	1046.95
638.382	1095.77
638.58	1082.79
638.777	1136.07
638.975	1097.51
639.173	1043.65
639.37	1055.47
639.568	1063.03
639.765	1059.73
639.963	1073.88
640.161	1092.86
640.358	1067.68
640.556	1014.01
640.753	1000.06
640.951	964.02
641.148	1015.95
641.346	986.11
641.543	963.25
641.741	980.1
641.938	941.74
642.136	995.21
642.333	961.7
642.531	999.86
642.728	1043.26
642.925	981.65
643.123	968.09
643.32	977.2
643.517	952.2
643.715	964.22
643.912	966.93
644.109	971.77
644.306	947.36
644.504	949.88
644.701	948.91
644.898	952.4
645.095	910.55
645.293	921.78
645.49	998.31
645.687	951.43
645.884	970.42
646.081	854.36
646.278	903.96
646.475	893.89
646.672	898.92
646.87	877.8
647.067	892.92
647.264	895.05
647.461	840.22
647.658	852.42
647.855	870.83
648.052	868.12
648.249	779.96
648.446	799.34
648.642	804.76
648.839	813.87
649.036	819.29
649.233	786.74
649.43	781.51
649.627	801.08
649.824	811.74
650.021	797.01
650.217	771.05
650.414	822.59
650.611	830.34
650.808	810.96
651.004	827.82
651.201	826.07
651.398	885.75
651.595	806.12
651.791	779.38
651.988	838.09
652.185	797.79
652.381	818.13
652.578	761.17
652.775	810.19
652.971	793.52
653.168	795.85
653.364	803.21
653.561	758.26
653.757	754.77
653.954	800.69
654.15	760.2
654.347	835.95
654.543	789.26
654.74	730.56
654.936	725.52
655.133	782.48
655.329	771.44
655.525	744.12
655.722	809.22
655.918	735.98
656.115	741.21
656.311	684.83
656.507	657.51
656.704	605.4
656.9	645.5
657.096	657.71
657.292	644.73
657.489	697.04
657.685	693.74
657.881	682.12
658.077	685.61
658.273	707.89
658.47	791.01
658.666	701.3
658.862	760.97
659.058	693.94
659.254	751.87
659.45	696.65
659.646	761.36
659.842	742.96
660.038	785.19
660.234	709.83
660.43	740.82
660.626	773.57
660.822	739.66
661.018	747.41
661.214	707.89
661.41	699.36
661.606	752.84
661.802	776.67
661.998	703.82
662.194	685.03
662.39	750.51
662.586	713.31
662.781	713.89
662.977	739.66
663.173	747.99
663.369	705.18
663.564	705.56
663.76	719.32
663.956	681.73
664.152	751.48
664.347	635.81
664.543	687.93
664.739	659.84
664.934	629.42
665.13	634.85
665.326	677.08
665.521	711.76
665.717	638.72
665.912	641.43
666.108	598.23
666.304	630.39
666.499	636.4
666.695	611.01
666.89	654.41
667.086	673.01
667.281	641.04
667.477	703.24
667.672	662.94
667.867	642.21
668.063	641.43
668.258	594.35
668.454	630.39
668.649	712.93
668.844	638.33
669.04	673.01
669.235	613.34
669.43	602.3
669.626	606.75
669.821	647.83
670.016	598.42
670.211	617.41
670.407	607.72
670.602	614.5
670.797	580.21
670.992	647.24
671.187	575.56
671.382	635.43
671.578	647.05
671.773	616.63
671.968	563.16
672.163	589.51
672.358	628.45
672.553	610.05
672.748	592.8
672.943	671.08
673.138	604.81
673.333	644.53
673.528	553.08
673.723	614.7
673.918	565.1
674.113	551.53
674.308	624.38
674.503	593.19
674.698	599.39
674.892	583.5
675.087	602.3
675.282	591.83
675.477	586.21
675.672	619.15
675.867	587.38
676.061	537.2
676.256	533.52
676.451	570.33
676.646	600.16
676.84	550.76
677.035	548.63
677.23	552.7
677.424	579.24
677.619	622.25
677.814	610.63
678.008	630.39
678.203	557.35
678.397	566.65
678.592	622.45
678.787	634.65
678.981	579.63
679.176	586.6
679.37	571.49
679.565	578.08
679.759	575.95
679.954	595.51
680.148	650.54
680.342	635.81
680.537	605.78
680.731	591.06
680.926	600.94
681.12	633.1
681.314	555.41
681.509	597.45
681.703	601.71
681.897	615.47
682.092	585.44
682.286	583.7
682.48	670.3
682.674	627.29
682.869	614.5
683.063	609.46
683.257	663.71
683.451	596.29
683.645	604.23
683.839	582.92
684.034	609.85
684.228	628.65
684.422	566.26
684.616	575.75
684.81	618.76
685.004	606.36
685.198	607.33
685.392	648.6
685.586	586.41
685.78	645.69
685.974	652.28
686.168	651.51
686.362	656.16
686.556	573.43
686.75	562.96
686.944	549.21
687.138	567.23
687.331	480.62
687.525	487.21
687.719	417.85
687.913	517.63
688.107	532.74
688.301	486.43
688.494	556.57
688.688	504.65
688.882	513.17
689.076	490.12
689.269	539.72
689.463	622.25
689.657	560.83
689.85	545.53
690.044	582.92
690.238	581.56
690.431	578.66
690.625	594.93
690.818	650.15
691.012	646.66
691.205	677.86
691.399	620.51
691.593	682.7
691.786	736.37
691.98	735.01
692.173	783.84
692.366	768.72
692.56	786.36
692.753	797.4
692.947	768.72
693.14	837.5
693.333	821.42
693.527	762.52
693.72	852.04
693.914	815.22
694.107	832.85
694.3	870.25
694.493	864.05
694.687	919.85
694.88	884
695.073	928.95
695.266	938.06
695.46	916.55
695.653	983.01
695.846	990.56
696.039	938.25
696.232	996.96
696.425	1057.99
696.618	1049.66
696.812	1087.24
697.005	1143.24
697.198	1222.67
697.391	1192.84
697.584	1209.11
697.777	1234.69
697.97	1236.82
698.163	1266.07
698.356	1260.45
698.549	1341.25
698.742	1286.22
698.935	1245.73
699.127	1278.67
699.32	1258.52
699.513	1281.96
699.706	1343.96
699.899	1330.59
700.092	1330.59
700.285	1392.01
700.477	1329.24
700.67	1402.86
700.863	1434.44
701.056	1486.56
701.248	1477.65
701.441	1474.74
701.634	1450.33
701.826	1553.21
702.019	1455.95
702.212	1550.3
702.404	1458.66
702.597	1454.2
702.79	1514.65
702.982	1560.57
703.175	1588.08
703.367	1629.74
703.56	1657.25
703.752	1740.56
703.945	1687.09
704.137	1730.68
704.33	1742.11
704.522	1781.83
704.715	1752.96
704.907	1776.98
705.1	1830.85
705.292	1846.15
705.484	1792.68
705.677	1865.14
705.869	1903.7
706.061	1951.55
706.254	2019.56
706.446	1944.19
706.638	1939.15
706.831	1984.68
707.023	1975.96
707.215	2099.96
707.407	2072.26
707.599	2062.37
707.792	2091.63
707.984	2092.02
708.176	2164.67
708.368	2106.36
708.56	2165.45
708.752	2159.05
708.944	2125.34
709.136	2220.86
709.329	2195.48
709.521	2284.6
709.713	2255.54
709.905	2283.44
710.097	2306.69
710.289	2258.45
710.481	2327.23
710.672	2354.74
710.864	2394.84
711.056	2404.53
711.248	2361.91
711.44	2393.68
711.632	2390.58
711.824	2433.21
712.016	2491.14
712.207	2461.11
712.399	2484.36
712.591	2548.29
712.783	2506.25
712.975	2556.24
713.166	2514.19
713.358	2549.46
713.55	2597.12
713.741	2589.75
713.933	2607
714.125	2612.23
714.316	2559.14
714.508	2631.8
714.7	2667.64
714.891	2643.62
715.083	2669.19
715.274	2653.5
715.466	2684.11
715.657	2702.9
715.849	2603.7
716.04	2626.57
716.232	2575.22
716.423	2652.53
716.615	2523.88
716.806	2454.33
716.998	2402.01
717.189	2341.56
717.381	2241.4
717.572	2199.35
717.763	2214.08
717.955	2191.41
718.146	2116.82
718.337	2072.84
718.528	2046.1
718.72	1965.11
718.911	2024.01
719.102	1981.78
719.293	2021.88
719.485	1985.07
719.676	1980.42
719.867	1924.43
720.058	1945.16
720.249	1919.2
720.44	1999.79
720.632	2046.49
720.823	2124.37
721.014	2192.96
721.205	2286.15
721.396	2376.83
721.587	2479.51
721.778	2520.01
721.969	2568.05
722.16	2622.69
722.351	2650.59
722.542	2730.61
722.733	2769.55
722.924	2697.67
723.115	2709.88
723.305	2692.83
723.496	2706.58
723.687	2574.84
723.878	2589.17
724.069	2549.65
724.26	2566.12
724.45	2480.09
724.641	2455.1
724.832	2532.99
725.023	2483.39
725.213	2465.95
725.404	2446.96
725.595	2460.14
725.785	2454.33
725.976	2565.54
726.167	2491.14
726.357	2507.8
726.548	2647.49
726.739	2579.1
726.929	2594.4
727.12	2638.39
727.31	2662.41
727.501	2582.78
727.691	2604.87
727.882	2599.64
728.072	2684.5
728.263	2626.18
728.453	2758.12
728.644	2716.27
728.834	2700.97
729.024	2655.82
729.215	2671.32
729.405	2678.1
729.596	2768.78
729.786	2823.03
729.976	2799.78
730.167	2795.9
730.357	2761.03
730.547	2795.9
730.737	2869.33
730.928	2844.34
731.118	2904.21
731.308	2851.12
731.498	2849.38
731.688	2938.5
731.879	2989.07
732.069	2997.01
732.259	3064.63
732.449	3106.28
732.639	3199.28
732.829	3237.26
733.019	3267.09
733.209	3300.03
733.399	3341.11
733.589	3456.19
733.779	3459.49
733.969	3474.21
734.159	3518.19
734.349	3597.63
734.539	3642.96
734.729	3604.99
734.919	3657.11
735.109	3717.75
735.299	3596.27
735.488	3659.24
735.678	3692.95
735.868	3670.67
736.058	3668.93
736.248	3639.09
736.437	3613.32
736.627	3592.4
736.817	3766.96
737.007	3662.92
737.196	3773.55
737.386	3720.46
737.576	3674.74
737.765	3778.98
737.955	3758.24
738.144	3861.71
738.334	3805.32
738.524	3759.79
738.713	3842.33
738.903	3824.31
739.092	3806.68
739.282	3863.06
739.471	3891.15
739.661	3817.14
739.85	3882.44
740.04	3883.21
740.229	3922.35
740.419	3960.32
740.608	3938.24
740.797	3943.08
740.987	3983.57
741.176	3963.42
741.365	3947.34
741.555	3915.37
741.744	4056.61
741.933	3978.15
742.123	3991.13
742.312	4067.46
742.501	4064.17
742.69	4057.58
742.88	3947.54
743.069	4133.53
743.258	4052.16
743.447	4112.03
743.636	4124.81
743.825	4073.86
744.014	4106.8
744.204	4105.44
744.393	4061.65
744.582	4177.32
744.771	4202.89
744.96	4126.75
745.149	4141.67
745.338	4128.88
745.527	4180.03
745.716	4095.95
745.905	4118.23
746.094	4174.8
746.283	4189.91
746.471	4169.96
746.66	4211.03
746.849	4199.21
747.038	4219.75
747.227	4178.09
747.416	4205.99
747.604	4160.08
747.793	4168.99
747.982	4213.36
748.171	4223.24
748.359	4161.43
748.548	4184.49
748.737	4193.59
748.926	4175.58
749.114	4052.93
749.303	4168.41
749.491	4127.33
749.68	4037.24
749.869	4160.66
750.057	4106.21
750.246	4124.43
750.434	4124.81
750.623	4117.06
750.811	4120.55
751	4142.83
751.188	4068.63
751.377	4117.26
751.565	4075.6
751.754	4056.42
751.942	4067.08
752.131	4093.23
752.319	4026.2
752.507	3973.69
752.696	4066.69
752.884	4128.69
753.072	4051.19
753.261	4108.15
753.449	4103.31
753.637	4067.46
753.825	4106.99
754.014	4044.41
754.202	4072.5
754.39	4097.11
754.578	4075.6
754.766	4050.22
754.955	4016.12
755.143	4093.43
755.331	4002.17
755.519	4029.49
755.707	4011.28
755.895	3990.35
756.083	4027.17
756.271	3978.73
756.459	4032.78
756.647	3994.03
756.835	3974.85
757.023	3948.89
757.211	3978.53
757.399	3955.67
757.587	3955.48
757.775	3919.64
757.963	3910.34
758.151	3946.37
758.339	3830.51
758.526	3877.59
758.714	3844.66
758.902	3702.44
759.09	3645.68
759.278	3398.84
759.465	3115.97
759.653	2719.76
759.841	2440.57
760.028	2117.59
760.216	1844.6
760.404	1674.88
760.591	1394.14
760.779	1172.11
760.967	1002.19
761.154	847
761.342	855.33
761.529	839.25
761.717	890.98
761.905	858.82
762.092	948.33
762.28	893.89
762.467	880.13
762.655	821.81
762.842	840.41
763.029	826.85
763.217	867.92
763.404	840.41
763.592	865.21
763.779	806.31
763.966	893.69
764.154	894.66
764.341	980.3
764.528	983.98
764.716	1037.06
764.903	1110.88
765.09	1210.27
765.277	1268.01
765.465	1429.4
765.652	1486.36
765.839	1598.74
766.026	1760.9
766.213	1780.47
766.4	1910.67
766.588	2110.42
766.775	2188.89
766.962	2311.15
767.149	2380.31
767.336	2547.91
767.523	2566.12
767.71	2707.17
767.897	2836.59
768.084	2912.34
768.271	3002.05
768.458	3035.76
768.645	3115.97
768.832	3100.28
769.019	3162.86
769.206	3202.77
769.392	3245.01
769.579	3341.11
769.766	3303.33
769.953	3311.85
770.14	3405.62
770.327	3363.97
770.513	3440.69
770.7	3513.93
770.887	3396.91
771.073	3443.99
771.26	3479.25
771.447	3418.8
771.634	3396.52
771.82	3549.38
772.007	3441.08
772.193	3497.46
772.38	3525.55
772.567	3437.59
772.753	3463.36
772.94	3558.3
773.126	3525.94
773.313	3510.05
773.499	3502.89
773.686	3471.3
773.872	3453.67
774.059	3498.62
774.245	3419.57
774.432	3474.21
774.618	3356.02
774.804	3445.92
774.991	3394.97
775.177	3456.77
775.363	3433.52
775.55	3420.74
775.736	3383.92
775.922	3408.14
776.109	3372.69
776.295	3408.34
776.481	3463.75
776.667	3450.38
776.853	3344.21
777.04	3351.37
777.226	3382.57
777.412	3473.82
777.598	3371.33
777.784	3342.27
777.97	3341.69
778.156	3362.81
778.342	3344.79
778.528	3350.79
778.715	3289.96
778.901	3293.83
779.087	3317.28
779.272	3291.12
779.458	3259.35
779.644	3306.04
779.83	3289.18
780.016	3355.64
780.202	3294.99
780.388	3269.42
780.574	3167.32
780.76	3223.5
780.946	3348.28
781.131	3214.01
781.317	3250.82
781.503	3206.06
781.689	3210.71
781.874	3348.47
782.06	3241.91
782.246	3270.19
782.432	3210.71
782.617	3206.06
782.803	3252.37
782.989	3152.98
783.174	3191.73
783.36	3143.48
783.545	3140
783.731	3135.35
783.916	3059.79
784.102	3126.63
784.288	3085.55
784.473	3090.01
784.659	3070.64
784.844	3115
785.029	3117.72
785.215	3048.74
785.4	3034.02
785.586	3135.35
785.771	3036.73
785.956	3044.29
786.142	3015.03
786.327	3050.68
786.512	2994.88
786.698	3002.24
786.883	2945.09
787.068	2986.55
787.254	2955.55
787.439	2944.31
787.624	2975.12
787.809	2935.21
787.994	2905.18
788.18	2971.24
788.365	2924.74
788.55	2881.54
788.735	2908.47
788.92	2835.04
789.105	2853.06
789.29	2850.73
789.475	2821.48
789.66	2834.07
789.845	2797.84
790.03	2781.76
790.215	2848.02
790.4	2841.63
790.585	2839.11
790.77	2786.21
790.955	2763.55
791.14	2797.65
791.325	2846.47
791.51	2696.32
791.695	2736.81
791.879	2813.92
792.064	2739.71
792.249	2845.11
792.434	2806.36
792.618	2754.44
792.803	2792.8
792.988	2742.23
793.173	2785.25
793.357	2781.18
793.542	2754.05
793.727	2761.03
793.911	2784.47
794.096	2770.52
794.281	2826.51
794.465	2928.04
794.65	2798.23
794.834	2835.23
795.019	2844.14
795.203	2882.7
795.388	2850.34
795.572	2894.52
795.757	2837.75
795.941	2861
796.126	2800.94
796.31	2757.35
796.494	2777.11
796.679	2762.96
796.863	2745.53
797.048	2863.91
797.232	2774.78
797.416	2797.45
797.601	2779.43
797.785	2885.22
797.969	2861.19
798.153	2800.75
798.338	2854.03
798.522	2889.87
798.706	2877.08
798.89	2865.46
799.074	2931.33
799.258	2861.78
799.443	2867.59
799.627	2866.04
799.811	2946.64
799.995	2847.63
800.179	2832.52
800.363	2784.86
800.547	2882.12
800.731	2874.56
800.915	2788.35
801.099	2812.56
801.283	2788.35
801.467	2843.56
801.651	2777.69
801.835	2828.45
802.019	2810.43
802.202	2818.38
802.386	2779.82
802.57	2793.96
802.754	2809.46
802.938	2763.93
803.121	2766.06
803.305	2845.31
803.489	2787.18
803.673	2809.27
803.856	2811.4
804.04	2838.33
804.224	2816.25
804.407	2773.62
804.591	2779.63
804.775	2822.45
804.958	2813.34
805.142	2893.36
805.326	2842.59
805.509	2851.12
805.693	2884.64
805.876	2865.07
806.06	2851.51
806.243	2883.09
806.427	2902.66
806.61	2897.23
806.794	2808.3
806.977	2884.25
807.16	2873.01
807.344	2851.89
807.527	2873.4
807.71	2839.11
807.894	2858.48
808.077	2857.13
808.26	2808.69
808.444	2808.5
808.627	2837.94
808.81	2754.83
808.993	2754.25
809.177	2700
809.36	2737
809.543	2751.53
809.726	2658.92
809.909	2660.28
810.092	2673.07
810.276	2642.45
810.459	2656.79
810.642	2627.34
810.825	2606.42
811.008	2599.25
811.191	2500.44
811.374	2529.89
811.557	2499.86
811.74	2579.87
811.923	2458.78
812.106	2526.98
812.289	2389.61
812.472	2420.42
812.654	2446.96
812.837	2421.97
813.02	2335.17
813.203	2304.95
813.386	2201.1
813.569	2191.8
813.751	2121.66
813.934	2124.76
814.117	2141.23
814.3	2073.81
814.482	2017.81
814.665	1961.24
814.848	1948.84
815.03	1880.45
815.213	1864.95
815.396	1871.15
815.578	1845.96
815.761	1781.05
815.943	1856.42
816.126	1734.55
816.309	1722.93
816.491	1672.56
816.674	1605.32
816.856	1651.05
817.039	1675.27
817.221	1725.84
817.403	1701.23
817.586	1687.67
817.768	1725.64
817.951	1615.21
818.133	1613.07
818.315	1668.1
818.498	1709.37
818.68	1783.57
818.862	1733.2
819.045	1752.57
819.227	1729.71
819.409	1686.7
819.591	1747.34
819.774	1739.79
819.956	1681.86
820.138	1808.37
820.32	1779.89
820.502	1839.76
820.684	1925.78
820.866	1914.93
821.048	1986.43
821.231	1969.76
821.413	1986.62
821.595	1956.2
821.777	1984.29
821.959	1960.85
822.141	2031.96
822.323	1883.55
822.505	1808.18
822.686	1741.14
822.868	1689.99
823.05	1556.89
823.232	1523.37
823.414	1440.45
823.596	1501.48
823.778	1486.56
823.96	1575.1
824.141	1577.04
824.323	1589.44
824.505	1646.79
824.687	1750.83
824.868	1811.08
825.05	1877.35
825.232	1921.91
825.413	1965.5
825.595	1927.53
825.777	1875.8
825.958	1928.88
826.14	1924.23
826.321	1936.05
826.503	1963.18
826.685	1931.6
826.866	1983.52
827.048	1952.13
827.229	1890.33
827.411	1837.24
827.592	1800.04
827.773	1764.39
827.955	1741.34
828.136	1730.68
828.318	1704.91
828.499	1756.64
828.68	1672.36
828.862	1719.83
829.043	1742.69
829.224	1749.09
829.406	1673.52
829.587	1742.11
829.768	1722.15
829.949	1706.85
830.131	1734.36
830.312	1774.27
830.493	1738.24
830.674	1745.4
830.855	1728.94
831.036	1727
831.218	1807.6
831.399	1769.62
831.58	1744.44
831.761	1719.05
831.942	1756.06
832.123	1750.44
832.304	1677.4
832.485	1695.22
832.666	1714.6
832.847	1736.3
833.028	1734.17
833.209	1744.63
833.389	1705.3
833.57	1682.82
833.751	1720.41
833.932	1758.97
834.113	1677.59
834.294	1696.39
834.475	1755.48
834.655	1778.53
834.836	1778.73
835.017	1782.6
835.198	1696.77
835.378	1753.93
835.559	1806.24
835.74	1797.52
835.92	1720.99
836.101	1747.54
836.281	1834.33
836.462	1810.5
836.643	1813.41
836.823	1816.7
837.004	1822.32
837.184	1856.03
837.365	1835.69
837.545	1880.83
837.726	1830.46
837.906	1860.3
838.087	1848.28
838.267	1840.73
838.448	1808.57
838.628	1808.76
838.808	1835.11
838.989	1892.26
839.169	1796.94
839.349	1831.43
839.53	1845.38
839.71	1853.9
839.89	1795.39
840.07	1860.3
840.251	1801.59
840.431	1865.91
840.611	1831.04
840.791	1796.36
840.971	1842.08
841.151	1825.62
841.332	1822.13
841.512	1879.86
841.692	1784.93
841.872	1804.88
842.052	1795.39
842.232	1867.66
842.412	1780.08
842.592	1772.14
842.772	1783.96
842.952	1808.95
843.132	1790.16
843.312	1760.71
843.492	1777.18
843.672	1848.87
843.851	1712.47
844.031	1771.95
844.211	1769.43
844.391	1752.77
844.571	1764.97
844.751	1771.95
844.93	1747.15
845.11	1739.59
845.29	1772.72
845.47	1858.75
845.649	1769.43
845.829	1791.71
846.009	1773.3
846.188	1773.5
846.368	1786.48
846.547	1740.37
846.727	1789.19
846.907	1718.09
847.086	1787.45
847.266	1776.4
847.445	1741.14
847.625	1754.12
847.804	1703.75
847.984	1758
848.163	1727.97
848.343	1726.42
848.522	1703.17
848.701	1725.45
848.881	1713.05
849.06	1709.17
849.239	1709.37
849.419	1690.77
849.598	1621.79
849.777	1649.31
849.957	1620.05
850.136	1576.26
850.315	1566.96
850.494	1564.06
850.674	1573.16
850.853	1629.35
851.032	1584.4
851.211	1667.13
851.39	1603.39
851.569	1552.04
851.748	1565.8
851.927	1635.94
852.107	1593.7
852.286	1571.61
852.465	1568.13
852.644	1632.06
852.823	1592.54
853.002	1551.85
853.181	1590.6
853.359	1613.46
853.538	1504.96
853.717	1597.77
853.896	1513.1
854.075	1429.79
854.254	1398.4
854.433	1320.52
854.611	1371.08
854.79	1330.79
854.969	1401.89
855.148	1422.04
855.327	1352.87
855.505	1423.59
855.684	1429.79
855.863	1426.11
856.041	1442.58
856.22	1469.51
856.399	1477.26
856.577	1571.42
856.756	1531.12
856.934	1612.88
857.113	1615.59
857.291	1551.66
857.47	1525.69
857.648	1539.84
857.827	1538.09
858.005	1577.62
858.184	1506.13
858.362	1573.36
858.541	1520.85
858.719	1511.94
858.898	1483.46
859.076	1478.23
859.254	1558.24
859.433	1516.78
859.611	1509.42
859.789	1495.08
859.967	1546.23
860.146	1544.49
860.324	1477.65
860.502	1456.14
860.68	1422.62
860.859	1451.68
861.037	1464.86
861.215	1491.98
861.393	1496.25
861.571	1451.1
861.749	1452.46
861.927	1466.02
862.105	1454.78
862.283	1460.98
862.461	1439.86
862.639	1412.55
862.817	1451.68
862.995	1462.53
863.173	1442.19
863.351	1433.86
863.529	1438.31
863.707	1464.86
863.885	1463.7
864.063	1359.27
864.241	1386.97
864.418	1492.18
864.596	1387.55
864.774	1376.12
864.952	1413.9
865.129	1426.5
865.307	1386.58
865.485	1353.45
865.663	1411.77
865.84	1331.17
866.018	1324
866.196	1195.55
866.373	1262.39
866.551	1176.95
866.728	1163
866.906	1206.59
867.084	1232.94
867.261	1271.11
867.439	1286.8
867.616	1292.62
867.794	1274.6
867.971	1300.17
868.149	1292.42
868.326	1329.43
868.503	1350.93
868.681	1293.97
868.858	1292.04
869.035	1241.08
869.213	1337.76
869.39	1288.55
869.567	1345.12
869.745	1298.24
869.922	1306.76
870.099	1321.87
870.276	1324
870.454	1353.07
870.631	1300.17
870.808	1278.09
870.985	1287.97
871.162	1372.63
871.339	1290.49
871.517	1269.17
871.694	1252.51
871.871	1285.64
872.048	1260.07
872.225	1289.13
872.402	1290.87
872.579	1208.72
872.756	1295.33
872.933	1228.29
873.11	1239.72
873.287	1290.87
873.463	1223.26
873.64	1239.72
873.817	1258.71
873.994	1207.56
874.171	1240.69
874.348	1237.59
874.524	1168.04
874.701	1211.63
874.878	1131.61
875.055	1245.54
875.231	1221.12
875.408	1247.67
875.585	1166.87
875.762	1210.08
875.938	1189.93
876.115	1165.91
876.291	1174.04
876.468	1180.24
876.645	1144.01
876.821	1148.86
876.998	1148.28
877.174	1180.24
877.351	1153.7
877.527	1125.03
877.704	1173.07
877.88	1193.42
878.057	1169.39
878.233	1194.97
878.409	1134.33
878.586	1178.89
878.762	1158.93
878.938	1147.89
879.115	1074.46
879.291	1140.33
879.467	1073.1
879.644	1126.77
879.82	1141.69
879.996	1115.14
880.172	1095.58
880.349	1057.21
880.525	1147.31
880.701	1057.6
880.877	1098.87
881.053	1125.99
881.229	1076.78
881.405	1141.3
881.581	1067.48
881.757	1127.54
881.933	1107.39
882.109	1095.77
882.285	1094.99
882.461	1024.86
882.637	1090.54
882.813	1054.5
882.989	1062.83
883.165	1141.69
883.341	1082.4
883.517	1115.73
883.693	1106.62
883.869	1097.32
884.044	1072.52
884.22	1123.09
884.396	1143.63
884.572	1092.86
884.747	1108.56
884.923	1100.23
885.099	1113.98
885.275	1150.41
885.45	1066.51
885.626	1083.95
885.801	1083.37
885.977	1072.33
886.153	1035.51
886.328	1086.66
886.504	1063.61
886.679	1077.94
886.855	1062.64
887.03	1106.04
887.206	1113.79
887.381	1055.08
887.557	1075.62
887.732	1093.83
887.908	1094.61
888.083	1086.08
888.258	1074.46
888.434	1082.59
888.609	1063.22
888.784	1111.85
888.96	1047.33
889.135	1063.8
889.31	1052.56
889.485	1069.42
889.661	1073.1
889.836	1101.78
890.011	1094.8
890.186	1043.85
890.361	1045.78
890.537	1077.94
890.712	1084.73
890.887	1064
891.062	1085.69
891.237	1110.11
891.412	1022.92
891.587	1051.6
891.762	1075.81
891.937	1113.01
892.112	1001.41
892.287	1043.26
892.462	1002.58
892.637	987.66
892.812	952.98
892.987	996.96
893.161	946
893.336	987.08
893.511	995.99
893.686	976.62
893.861	968.28
894.035	979.13
894.21	973.32
894.385	903.18
894.56	954.33
894.734	895.63
894.909	866.95
895.084	896.21
895.258	841.77
895.433	856.1
895.608	832.66
895.782	801.27
895.957	807.09
896.131	804.57
896.306	743.73
896.48	769.5
896.655	741.02
896.829	712.54
897.004	684.64
897.178	686.77
897.353	690.06
897.527	759.62
897.701	674.95
897.876	667.59
898.05	754.77
898.224	714.28
898.399	743.34
898.573	683.86
898.747	602.88
898.921	653.06
899.096	543.4
899.27	551.53
899.444	544.17
899.618	599.39
899.792	620.7
899.967	610.24
900.141	654.8
900.315	588.35
900.489	607.72
900.663	627.29
900.837	601.13
901.011	549.21
901.185	639.88
901.359	582.73
901.533	630.78
901.707	612.76
901.881	611.79
902.055	555.6
902.229	587.38
902.403	653.06
902.576	610.24
902.75	611.98
902.924	706.73
903.098	649.76
903.272	741.41
903.446	741.21
903.619	743.15
903.793	780.74
903.967	754.58
904.14	795.46
904.314	791.97
904.488	778.99
904.661	804.18
904.835	769.69
905.009	845.84
905.182	825.69
905.356	786.55
905.529	791.39
905.703	735.21
905.876	725.52
906.05	718.35
906.223	662.55
906.397	626.71
906.57	606.75
906.744	617.6
906.917	612.37
907.09	596.87
907.264	605.01
907.437	574.4
907.61	551.73
907.784	557.15
907.957	574.78
908.13	562.77
908.304	590.28
908.477	542.43
908.65	556.76
908.823	521.5
908.996	566.06
909.17	530.8
909.343	497.87
909.516	551.34
909.689	521.5
909.862	483.53
910.035	520.34
910.208	487.98
910.381	498.06
910.554	587.18
910.727	495.73
910.9	476.94
911.073	518.02
911.246	578.27
911.419	576.53
911.592	563.74
911.765	525.18
911.938	499.42
912.11	498.64
912.283	536.23
912.456	595.9
912.629	540.1
912.802	520.15
912.974	441.49
913.147	430.64
913.32	376.77
913.493	443.42
913.665	451.95
913.838	425.21
914.01	445.17
914.183	462.99
914.356	447.88
914.528	498.45
914.701	533.9
914.873	499.8
915.046	430.64
915.218	409.32
915.391	360.89
915.563	382.2
915.736	432.96
915.908	461.64
916.081	457.18
916.253	439.94
916.425	465.9
916.598	460.67
916.77	475.39
916.942	421.92
917.115	383.36
917.287	450.01
917.459	405.45
917.632	360.11
917.804	337.06
917.976	427.73
918.148	437.8
918.32	426.57
918.493	465.12
918.665	489.53
918.837	453.5
919.009	511.82
919.181	512.2
919.353	486.82
919.525	480.23
919.697	499.22
919.869	491.67
920.041	546.11
920.213	585.25
920.385	548.05
920.557	494.77
920.729	522.28
920.901	479.27
921.073	500.97
921.244	473.07
921.416	519.37
921.588	504.45
921.76	497.87
921.932	562.58
922.103	486.43
922.275	511.82
922.447	507.94
922.619	440.52
922.79	460.67
922.962	470.35
923.134	495.35
923.305	427.73
923.477	394.4
923.648	414.94
923.82	442.26
923.991	381.42
924.163	353.72
924.335	412.62
924.506	403.7
924.677	450.59
924.849	397.31
925.02	411.65
925.192	432.77
925.363	403.12
925.535	418.24
925.706	388.2
925.877	420.75
926.049	395.76
926.22	414.75
926.391	428.89
926.562	440.71
926.734	403.9
926.905	452.53
927.076	334.54
927.247	369.41
927.419	328.92
927.59	355.27
927.761	328.53
927.932	337.25
928.103	354.88
928.274	291.33
928.445	269.44
928.616	304.51
928.787	271.96
928.958	289.59
929.129	274.09
929.3	262.08
929.471	243.09
929.642	208.79
929.813	164.81
929.984	232.43
930.155	179.93
930.326	215.19
930.496	155.51
930.667	127.23
930.838	161.71
931.009	152.8
931.18	147.76
931.35	170.43
931.521	148.35
931.692	120.45
931.863	83.83
932.033	111.34
932.204	114.05
932.374	89.25
932.545	50.89
932.716	113.67
932.886	97.97
933.057	33.65
933.227	72.2
933.398	128.58
933.568	48.95
933.739	13.5
933.909	27.84
934.08	88.09
934.25	-24.48
934.421	34.62
934.591	72.59
934.761	43.92
934.932	11.37
935.102	70.85
935.272	45.27
935.443	20.47
935.613	47.6
935.783	47.98
935.953	16.6
936.123	180.7
936.294	10.98
936.464	44.69
936.634	56.9
936.804	8.46
936.974	15.63
937.144	28.8
937.314	51.47
937.484	27.84
937.655	9.04
937.825	66
937.995	2.45
938.165	63.48
938.334	38.49
938.504	69.68
938.674	29.97
938.844	62.71
939.014	137.11
939.184	111.92
939.354	148.93
939.524	134.2
939.694	90.42
939.863	67.36
940.033	147.57
940.203	122.77
940.373	115.02
940.542	128.58
940.712	82.67
940.882	123.16
941.051	131.49
941.221	136.33
941.391	123.74
941.56	71.62
941.73	53.41
941.899	171.98
942.069	89.64
942.238	104.56
942.408	55.73
942.577	102.23
942.747	72.98
942.916	53.8
943.086	49.92
943.255	118.51
943.425	60
943.594	83.25
943.763	7.3
943.933	33.26
944.102	-8.4
944.271	40.82
944.441	113.08
944.61	45.85
944.779	54.57
944.948	176.25
945.117	27.45
945.287	69.68
945.456	19.12
945.625	49.15
945.794	77.05
945.963	63.29
946.132	96.23
946.301	67.36
946.47	77.82
946.639	9.82
946.808	71.82
946.977	88.28
947.146	99.72
947.315	41.59
947.484	83.44
947.653	54.77
947.822	46.05
947.991	29.38
948.16	112.89
948.329	112.5
948.498	47.98
948.666	48.95
948.835	83.25
949.004	41.59
949.173	51.47
949.341	93.9
949.51	95.45
949.679	103.59
949.847	99.13
950.016	133.43
950.185	113.86
950.353	39.65
950.522	54.18
950.69	102.04
950.859	39.65
951.028	80.73
951.196	88.28
951.365	38.88
951.533	70.85
951.701	81.7
951.87	95.07
952.038	29
952.207	56.7
952.375	109.02
952.543	57.28
952.712	42.95
952.88	70.46
953.048	128.97
953.217	86.54
953.385	75.11
953.553	127.03
953.721	28.8
953.89	73.95
954.058	39.07
954.226	51.47
954.394	68.13
954.562	36.94
954.73	67.75
954.898	63.48
955.067	89.64
955.235	40.23
955.403	86.93
955.571	144.28
955.739	67.55
955.907	61.55
956.075	45.08
956.243	57.87
956.41	77.82
956.578	32.48
956.746	19.5
956.914	86.35
957.082	97.78
957.25	95.45
957.418	35.39
957.585	77.63
957.753	117.54
957.921	42.95
958.089	81.12
958.256	103.01
958.424	86.54
958.592	58.25
958.759	38.1
958.927	86.54
959.095	81.7
959.262	40.04
959.43	75.5
959.597	38.3
959.765	83.83
959.932	33.45
960.1	88.87
960.267	75.88
960.435	60.58
960.602	123.74
960.77	80.53
960.937	40.82
961.104	83.25
961.272	39.27
961.439	39.65
961.606	70.85
961.774	84.6
961.941	57.28
962.108	60.77
962.275	51.28
962.443	109.6
962.61	106.3
962.777	135.17
962.944	116.76
963.111	88.67
963.278	71.82
963.446	98.94
963.613	95.65
963.78	104.95
963.947	96.03
964.114	108.63
964.281	165.2
964.448	102.82
964.615	78.4
964.782	100.3
964.949	106.11
965.116	89.25
965.282	118.7
965.449	93.52
965.616	89.06
965.783	141.56
965.95	86.93
966.117	47.02
966.283	85.57
966.45	90.61
966.617	92.16
966.784	138.27
966.95	113.86
967.117	102.43
967.284	72.2
967.45	85.96
967.617	122.38
967.784	124.71
967.95	150.67
968.117	94.48
968.283	121.8
968.45	172.76
968.616	110.37
968.783	141.56
968.949	124.71
969.116	149.9
969.282	123.93
969.449	103.59
969.615	122.96
969.781	75.11
969.948	81.7
970.114	67.36
970.28	166.17
970.447	130.71
970.613	162.88
970.779	123.93
970.945	137.11
971.112	112.12
971.278	126.65
971.444	129.75
971.61	162.49
971.776	103.59
971.942	126.65
972.108	177.6
972.275	101.65
972.441	107.85
972.607	177.99
972.773	98.94
972.939	135.95
973.105	108.82
973.271	87.9
973.437	81.5
973.602	79.37
973.768	115.02
973.934	96.23
974.1	121.22
974.266	51.47
974.432	134.59
974.598	104.17
974.763	111.34
974.929	97.39
975.095	166.75
975.261	70.65
975.426	68.52
975.592	86.93
975.758	164.81
975.923	50.5
976.089	88.67
976.255	154.35
976.42	117.93
976.586	100.68
976.751	109.98
976.917	175.47
977.082	116.18
977.248	46.24
977.413	70.27
977.579	86.93
977.744	81.12
977.91	52.05
978.075	69.88
978.24	114.05
978.406	87.51
978.571	68.72
978.736	72.01
978.902	119.09
979.067	66.58
979.232	38.1
979.397	88.87
979.563	124.32
979.728	52.25
979.893	73.37
980.058	50.5
980.223	115.6
980.388	84.02
980.554	74.72
980.719	60.97
980.884	87.12
981.049	136.33
981.214	80.53
981.379	122.19
981.544	65.23
981.709	93.52
981.874	98.94
982.039	88.28
982.204	130.33
982.368	121.22
982.533	73.56
982.698	134.4
982.863	134.01
983.028	91.19
983.193	128
983.357	113.47
983.522	128.78
983.687	53.02
983.852	61.16
984.016	78.6
984.181	127.81
984.346	112.12
984.51	114.05
984.675	96.62
984.839	119.67
985.004	95.26
985.168	115.41
985.333	108.05
985.498	72.98
985.662	123.55
985.827	114.05
985.991	97.58
986.155	74.14
986.32	118.12
986.484	138.08
986.649	88.67
986.813	40.23
986.977	112.5
987.142	102.04
987.306	60.38
987.47	86.93
987.634	89.06
987.799	102.04
987.963	92.55
988.127	114.25
988.291	150.67
988.455	99.91
988.62	76.27
988.784	110.76
988.948	115.22
989.112	69.68
989.276	98.17
989.44	115.02
989.604	55.73
989.768	67.36
989.932	158.81
990.096	83.63
990.26	52.25
990.424	87.32
990.588	84.6
990.752	168.11
990.915	120.25
991.079	64.07
991.243	40.62
991.407	125.1
991.571	79.37
991.734	119.48
991.898	108.43
992.062	169.08
992.226	74.92
992.389	62.13
992.553	36.36
992.717	62.13
992.88	61.16
993.044	74.72
993.207	57.48
993.371	128.97
993.535	90.03
993.698	84.99
993.862	117.93
994.025	122.38
994.189	92.55
994.352	64.84
994.515	81.89
994.679	120.64
994.842	72.2
995.006	97.58
995.169	44.5
995.332	60.77
995.496	125.29
995.659	35.58
995.822	72.98
995.985	71.62
996.149	150.67
996.312	80.73
996.475	126.26
996.638	72.59
996.801	148.93
996.964	131.1
997.128	64.65
997.291	53.22
997.454	90.61
997.617	20.09
997.78	91.38
997.943	55.93
998.106	91
998.269	75.5
998.432	55.15
998.595	54.18
998.758	26.29
998.92	46.43
999.083	10.4
999.246	69.88
999.409	27.84
999.572	35.97
999.735	56.32
999.897	102.04
1000.06	48.18
1000.223	46.82
1000.386	82.28
1000.548	99.91
1000.711	61.93
1000.874	83.83
1001.036	31.32
1001.199	94.29
1001.361	60
1001.524	65.03
1001.687	113.28
1001.849	47.4
1002.012	75.69
1002.174	55.93
1002.337	89.64
1002.499	60
1002.661	93.9
1002.824	20.09
1002.986	37.72
1003.149	57.48
1003.311	60.97
1003.473	96.42
1003.636	38.68
1003.798	87.12
1003.96	79.57
1004.123	73.56
1004.285	41.98
1004.447	47.79
1004.609	58.64
1004.771	124.32
1004.933	8.07
1005.096	42.37
1005.258	26.87
1005.42	24.35
1005.582	90.61
1005.744	64.45
1005.906	27.25
1006.068	82.86
1006.23	16.79
1006.392	32.1
1006.554	29.38
1006.716	91.19
1006.878	77.05
1007.04	24.74
1007.202	49.92
1007.363	64.26
1007.525	63.1
1007.687	52.05
1007.849	106.88
1008.011	12.92
1008.172	47.21
1008.334	45.27
1008.496	81.31
1008.658	38.49
1008.819	34.42
1008.981	17.57
1009.143	37.13
1009.304	37.33
1009.466	59.61
1009.627	87.32
1009.789	119.86
1009.95	42.95
1010.112	32.29
1010.273	42.37
1010.435	21.44
1010.596	50.89
1010.758	26.29
1010.919	28.8
1011.081	8.65
1011.242	47.98
1011.403	29.58
1011.565	47.98
1011.726	42.95
1011.887	-1.03
1012.049	47.21
1012.21	63.48
1012.371	103.2
1012.532	-12.46
1012.693	48.37
1012.855	33.26
1013.016	16.21
1013.177	71.23
1013.338	58.25
1013.499	97.78
1013.66	53.99
1013.821	70.65
1013.982	52.63
1014.143	59.42
1014.304	30.55
1014.465	70.27
1014.626	67.17
1014.787	36.55
1014.948	90.42
1015.109	-15.18
1015.27	69.1
1015.431	31.9
1015.592	21.05
1015.752	67.94
1015.913	67.55
1016.074	41.59
1016.235	49.34
1016.395	32.87
1016.556	7.1
1016.717	62.9
1016.877	41.4
1017.038	5.36
1017.199	61.93
1017.359	46.24
1017.52	60
1017.681	16.02
1017.841	13.11
1018.002	10.4
1018.162	0.13
1018.323	82.86
1018.483	8.65
1018.644	-2
1018.804	6.72
1018.964	9.43
1019.125	21.64
1019.285	34.23
1019.446	12.92
1019.606	28.42
1019.766	-33.97
1019.926	52.25
1020.087	36.55
1020.247	-0.26
1020.407	54.77
1020.567	66.97
1020.728	39.46
1020.888	1.1
1021.048	21.83
1021.208	4.59
1021.368	20.09
1021.528	53.6
1021.688	38.1
1021.848	48.18
1022.008	10.79
1022.168	37.91
1022.328	25.12
1022.488	14.47
1022.648	13.3
1022.808	22.6
1022.968	39.65
1023.128	-5.88
1023.288	17.95
1023.448	29.38
1023.608	50.5
1023.767	57.48
1023.927	7.3
1024.087	3.42
1024.247	-13.63
1024.406	14.27
1024.566	-16.73
1024.726	-6.07
1024.885	29.97
1025.045	39.27
1025.205	7.3
1025.364	-3.16
1025.524	29.38
1025.683	37.91
1025.843	32.48
1026.003	24.35
1026.162	72.01
1026.321	46.43
1026.481	25.7
1026.64	7.3
1026.8	40.82
1026.959	44.88
1027.119	21.64
1027.278	7.1
1027.437	10.59
1027.597	43.33
1027.756	22.02
1027.915	33.84
1028.074	57.09
1028.234	-27.96
1028.393	29.38
1028.552	16.6
1028.711	-32.61
1028.87	60.77
1029.03	-10.53
1029.189	5.94
1029.348	-32.03
1029.507	17.18
1029.666	25.32
1029.825	-25.06
1029.984	-7.43
1030.143	12.14
1030.302	14.27
1030.461	-16.34
1030.62	22.99
1030.779	48.57
1030.938	-13.63
1031.097	-10.33
1031.255	28.22
1031.414	55.15
1031.573	32.87
1031.732	-28.93
1031.891	-0.84
1032.049	59.61
1032.208	28.42
1032.367	-11.11
1032.525	-5.3
1032.684	22.41
1032.843	4.97
1033.001	-14.79
1033.16	127.61
1033.319	47.02
1033.477	32.87
1033.636	-9.56
1033.794	-12.85
1033.953	50.5
1034.111	39.65
1034.27	-1.61
1034.428	13.3
1034.587	-42.5
1034.745	30.93
1034.903	12.34
1035.062	30.16
1035.22	-7.43
1035.378	36.36
1035.537	-13.05
1035.695	46.24
1035.853	1.49
1036.011	29
1036.17	15.05
1036.328	-34.16
1036.486	6.91
1036.644	27.45
1036.802	-57.03
1036.96	-3.36
1037.119	26.87
1037.277	-15.56
1037.435	-21.76
1037.593	-14.98
1037.751	25.7
1037.909	28.8
1038.067	28.8
