Data from gum_young_FLMT105791__17__17-38-16-045.txt Node

Date: Mon Mar 20 17:38:16 GMT 2023
User: antho
Spectrometer: FLMT10579
Trigger mode: 0
Integration Time (sec): 1.000000E-1
Scans to average: 10
Electric dark correction enabled: true
Nonlinearity correction enabled: false
Boxcar width: 0
XAxis mode: Wavelengths
Number of Pixels in Spectrum: 3648
>>>>>Begin Spectral Data<<<<<
345.248	-135.69
345.464	-135.69
345.681	-135.69
345.898	-163.59
346.114	-144.21
346.331	-19.83
346.548	21.25
346.764	5.75
346.981	-5.1
347.197	-19.83
347.414	-8.2
347.631	-13.05
347.847	64.84
348.064	-25.06
348.28	33.26
348.497	-21.76
348.713	-12.27
348.93	19.12
349.146	12.53
349.363	13.3
349.579	18.15
349.796	2.84
350.012	-9.95
350.229	41.2
350.445	1.29
350.661	12.53
350.878	-9.17
351.094	39.27
351.311	40.04
351.527	34.23
351.743	-18.47
351.96	33.84
352.176	33.84
352.392	22.02
352.609	64.26
352.825	13.5
353.041	-5.49
353.257	18.92
353.474	9.43
353.69	35.2
353.906	1.49
354.122	13.69
354.339	46.43
354.555	0.13
354.771	-11.11
354.987	56.51
355.203	62.13
355.42	15.24
355.636	9.43
355.852	-2.2
356.068	30.74
356.284	-20.02
356.5	51.28
356.716	8.27
356.932	40.82
357.148	27.06
357.364	22.02
357.58	57.28
357.796	57.87
358.012	51.67
358.228	19.7
358.444	-35.52
358.66	56.32
358.876	8.65
359.092	-0.65
359.308	21.25
359.524	38.49
359.74	-11.88
359.956	-10.33
360.172	21.83
360.388	50.7
360.604	-4.13
360.819	89.64
361.035	18.73
361.251	39.65
361.467	-8.78
361.683	49.34
361.898	-7.43
362.114	43.33
362.33	20.86
362.546	43.33
362.762	30.93
362.977	10.59
363.193	-4.52
363.409	30.35
363.624	15.44
363.84	-14.21
364.056	14.66
364.271	22.6
364.487	31.9
364.703	20.86
364.918	-0.65
365.134	2.65
365.35	6.33
365.565	108.63
365.781	30.16
365.996	17.18
366.212	41.2
366.427	22.22
366.643	-0.84
366.858	23.19
367.074	-3.55
367.289	80.34
367.505	119.48
367.72	-14.4
367.936	13.11
368.151	44.11
368.367	69.68
368.582	33.45
368.798	15.05
369.013	70.85
369.228	16.02
369.444	50.5
369.659	59.03
369.874	41.78
370.09	58.45
370.305	-33.97
370.52	-4.52
370.736	72.98
370.951	18.34
371.166	75.11
371.381	71.62
371.597	50.7
371.812	-16.73
372.027	19.7
372.242	22.8
372.458	68.33
372.673	-15.56
372.888	32.87
373.103	43.53
373.318	83.25
373.533	43.92
373.749	44.3
373.964	-5.68
374.179	58.45
374.394	-17.5
374.609	72.01
374.824	4.59
375.039	30.74
375.254	21.25
375.469	82.08
375.684	45.08
375.899	40.23
376.114	13.5
376.329	14.27
376.544	49.34
376.759	40.82
376.974	3.62
377.189	20.47
377.404	19.5
377.619	49.73
377.834	-37.46
378.049	19.89
378.264	16.99
378.478	23.38
378.693	11.95
378.908	56.51
379.123	29.38
379.338	78.21
379.553	47.79
379.767	37.52
379.982	27.64
380.197	48.18
380.412	63.29
380.626	28.8
380.841	126.84
381.056	17.37
381.271	75.88
381.485	14.27
381.7	-14.4
381.915	30.55
382.129	17.95
382.344	37.33
382.559	-8.2
382.773	40.82
382.988	-23.31
383.202	35.78
383.417	10.79
383.632	122.58
383.846	34.81
384.061	50.89
384.275	41.4
384.49	39.27
384.704	53.8
384.919	33.45
385.133	52.25
385.348	48.57
385.562	0.9
385.777	65.03
385.991	30.16
386.206	36.75
386.42	11.75
386.634	60.19
386.849	56.51
387.063	38.68
387.277	4.39
387.492	18.73
387.706	4.59
387.92	0.32
388.135	47.6
388.349	52.25
388.563	22.8
388.778	50.7
388.992	56.12
389.206	60.77
389.42	102.23
389.635	19.31
389.849	82.47
390.063	53.8
390.277	26.87
390.491	91.58
390.706	45.66
390.92	78.98
391.134	19.31
391.348	66.2
391.562	4
391.776	30.16
391.99	28.42
392.205	58.83
392.419	29.19
392.633	45.66
392.847	80.15
393.061	11.75
393.275	79.95
393.489	15.63
393.703	41.59
393.917	41.98
394.131	49.34
394.345	50.12
394.559	76.85
394.773	27.25
394.986	57.28
395.2	35.97
395.414	93.52
395.628	52.25
395.842	43.33
396.056	40.43
396.27	25.9
396.484	43.92
396.697	32.87
396.911	89.45
397.125	56.9
397.339	84.41
397.553	53.99
397.766	93.13
397.98	71.23
398.194	63.48
398.408	5.17
398.621	73.75
398.835	67.55
399.049	57.09
399.262	78.02
399.476	87.32
399.69	77.05
399.903	137.88
400.117	71.43
400.331	67.94
400.544	55.54
400.758	150.09
400.971	78.02
401.185	77.43
401.398	27.45
401.612	93.9
401.826	92.55
402.039	80.73
402.253	45.27
402.466	120.83
402.68	71.82
402.893	76.66
403.106	100.1
403.32	89.06
403.533	111.15
403.747	82.28
403.96	102.43
404.174	95.07
404.387	49.92
404.6	76.66
404.814	123.74
405.027	91.77
405.24	86.73
405.454	72.2
405.667	118.31
405.88	19.31
406.094	91.38
406.307	126.84
406.52	117.54
406.733	75.11
406.947	30.93
407.16	145.83
407.373	101.27
407.586	78.02
407.799	42.95
408.012	126.26
408.226	101.27
408.439	139.63
408.652	58.06
408.865	86.35
409.078	106.5
409.291	108.05
409.504	59.03
409.717	107.47
409.93	98.55
410.143	86.93
410.357	58.45
410.57	45.08
410.783	90.61
410.996	112.89
411.209	100.68
411.421	127.61
411.634	92.93
411.847	46.63
412.06	103.01
412.273	84.8
412.486	97.2
412.699	174.31
412.912	88.48
413.125	91.77
413.338	114.44
413.55	132.85
413.763	96.81
413.976	111.34
414.189	66.2
414.402	103.01
414.615	147.18
414.827	62.52
415.04	127.03
415.253	165.2
415.466	153.77
415.678	146.8
415.891	127.03
416.104	113.08
416.316	130.13
416.529	82.08
416.742	119.67
416.954	129.16
417.167	106.5
417.38	128.78
417.592	158.03
417.805	78.79
418.017	55.35
418.23	142.53
418.442	95.84
418.655	81.12
418.868	122.96
419.08	169.46
419.293	140.21
419.505	101.85
419.718	125.68
419.93	166.17
420.142	118.12
420.355	148.15
420.567	161.13
420.78	155.13
420.992	119.48
421.205	150.48
421.417	91.58
421.629	98.36
421.842	98.55
422.054	82.86
422.266	152.61
422.479	155.71
422.691	125.48
422.903	139.63
423.115	71.82
423.328	129.36
423.54	123.16
423.752	144.66
423.964	100.68
424.177	150.28
424.389	126.45
424.601	229.14
424.813	132.65
425.025	153.96
425.238	138.85
425.45	126.65
425.662	136.91
425.874	368.44
426.086	137.3
426.298	144.47
426.51	155.51
426.722	134.01
426.934	141.95
427.146	169.66
427.358	109.4
427.57	168.11
427.782	144.47
427.994	150.86
428.206	144.08
428.418	88.87
428.63	163.26
428.842	171.4
429.054	164.81
429.266	161.91
429.478	118.51
429.69	126.84
429.902	102.43
430.114	144.86
430.325	148.15
430.537	116.96
430.749	113.86
430.961	91
431.173	106.5
431.384	138.66
431.596	63.48
431.808	107.27
432.02	143.31
432.231	165.01
432.443	193.1
432.655	158.61
432.867	125.29
433.078	147.96
433.29	211.7
433.502	185.93
433.713	195.43
433.925	154.93
434.136	210.34
434.348	128.39
434.56	95.65
434.771	258.98
434.983	105.14
435.194	158.42
435.406	152.41
435.617	189.42
435.829	227.98
436.04	183.03
436.252	173.73
436.463	206.28
436.675	192.33
436.886	212.86
437.098	197.95
437.309	222.36
437.521	199.88
437.732	187.87
437.943	213.64
438.155	177.8
438.366	151.45
438.578	234.37
438.789	198.91
439	183.41
439.211	177.6
439.423	178.18
439.634	208.21
439.845	195.04
440.057	214.8
440.268	230.49
440.479	189.81
440.69	212.48
440.902	182.83
441.113	183.8
441.324	195.43
441.535	215.96
441.746	250.26
441.957	173.92
442.168	208.02
442.38	217.9
442.591	220.81
442.802	180.7
443.013	241.54
443.224	234.76
443.435	196.78
443.646	215.77
443.857	208.41
444.068	209.18
444.279	195.04
444.49	267.89
444.701	220.81
444.912	317.68
445.123	259.56
445.334	233.01
445.545	234.18
445.756	216.16
445.967	183.41
446.178	224.68
446.388	250.64
446.599	275.06
446.81	253.36
447.021	211.51
447.232	272.54
447.443	302.96
447.653	180.31
447.864	265.95
448.075	247.93
448.286	284.74
448.496	223.33
448.707	269.05
448.918	226.23
449.129	322.72
449.339	218.68
449.55	268.47
449.761	256.07
449.971	298.69
450.182	252.97
450.393	273.31
450.603	256.65
450.814	306.06
451.024	304.31
451.235	307.99
451.446	324.85
451.656	315.94
451.867	233.98
452.077	305.09
452.288	348.68
452.498	345.77
452.709	281.06
452.919	313.03
453.13	264.79
453.34	294.04
453.55	245.8
453.761	303.73
453.971	303.54
454.182	291.91
454.392	275.25
454.602	358.76
454.813	335.31
455.023	315.74
455.233	270.79
455.444	299.66
455.654	262.85
455.864	314.97
456.075	271.96
456.285	309.35
456.495	277.96
456.705	295.79
456.916	341.71
457.126	356.82
457.336	317.1
457.546	260.53
457.756	281.84
457.967	354.11
458.177	286.68
458.387	313.03
458.597	282.81
458.807	321.36
459.017	297.53
459.227	298.69
459.437	285.33
459.647	333.96
459.857	331.05
460.068	305.09
460.278	368.06
460.488	345.77
460.698	355.66
460.908	322.14
461.117	301.41
461.327	304.89
461.537	323.49
461.747	315.36
461.957	307.8
462.167	412.62
462.377	356.82
462.587	346.74
462.797	352.56
463.007	326.98
463.216	353.91
463.426	393.63
463.636	369.02
463.846	280.68
464.056	326.01
464.265	378.32
464.475	299.47
464.685	324.85
464.895	386.07
465.104	325.62
465.314	371.54
465.524	341.32
465.733	320.01
465.943	412.04
466.153	402.93
466.362	370.19
466.572	383.94
466.782	351.59
466.991	343.45
467.201	429.67
467.41	309.74
467.62	372.9
467.829	358.76
468.039	361.66
468.249	369.22
468.458	365.92
468.668	385.1
468.877	389.95
469.086	431.6
469.296	436.45
469.505	361.27
469.715	457.57
469.924	385.88
470.134	424.63
470.343	411.07
470.552	366.51
470.762	396.15
470.971	357.21
471.18	387.43
471.39	393.24
471.599	361.66
471.808	407.39
472.018	348.1
472.227	438.77
472.436	460.86
472.645	414.36
472.855	378.13
473.064	452.53
473.273	478.1
473.482	452.92
473.691	459.12
473.901	435.09
474.11	417.46
474.319	507.36
474.528	461.83
474.737	475.78
474.946	471.71
475.155	458.54
475.364	492.44
475.573	439.55
475.783	467.83
475.992	486.24
476.201	500.97
476.41	446.72
476.619	447.1
476.828	465.9
477.037	465.9
477.245	455.44
477.454	522.67
477.663	471.52
477.872	470.74
478.081	544.95
478.29	475.97
478.499	562
478.708	504.45
478.917	590.09
479.125	507.75
479.334	514.53
479.543	515.5
479.752	520.34
479.961	536.03
480.169	574.01
480.378	539.13
480.587	641.43
480.796	587.76
481.004	557.54
481.213	582.15
481.422	559.09
481.63	566.84
481.839	617.99
482.048	623.8
482.256	552.5
482.465	617.99
482.674	602.1
482.882	592.8
483.091	646.28
483.299	591.25
483.508	639.3
483.716	601.52
483.925	631.36
484.134	585.44
484.342	610.63
484.551	636.98
484.759	644.53
484.967	633.88
485.176	644.14
485.384	655.58
485.593	652.48
485.801	628.26
486.01	611.21
486.218	614.31
486.426	541.65
486.635	557.35
486.843	573.62
487.051	572.85
487.26	591.83
487.468	621.67
487.676	640.27
487.885	614.31
488.093	640.27
488.301	654.8
488.509	668.36
488.717	686.77
488.926	660.61
489.134	679.21
489.342	666.04
489.55	643.76
489.758	685.8
489.967	682.31
490.175	789.07
490.383	696.46
490.591	775.7
490.799	682.7
491.007	751.29
491.215	735.21
491.423	691.81
491.631	719.51
491.839	712.73
492.047	746.06
492.255	666.62
492.463	666.62
492.671	702.27
492.879	740.82
493.087	742.37
493.295	761.56
493.503	750.71
493.711	784.81
493.919	786.94
494.127	802.05
494.334	817.35
494.542	748.38
494.75	797.98
494.958	767.56
495.166	813.48
495.374	814.45
495.581	845.45
495.789	803.21
495.997	852.42
496.205	785.97
496.412	789.84
496.62	797.59
496.828	836.92
497.035	798.76
497.243	877.42
497.451	833.05
497.658	859.79
497.866	834.4
498.074	890.01
498.281	834.6
498.489	918.3
498.696	888.85
498.904	853
499.112	835.37
499.319	904.35
499.527	874.12
499.734	908.42
499.942	880.32
500.149	865.02
500.357	900.09
500.564	856.1
500.771	918.3
500.979	865.6
501.186	853.2
501.394	910.93
501.601	866.18
501.808	926.63
502.016	879.35
502.223	923.72
502.43	910.35
502.638	885.55
502.845	915.78
503.052	976.42
503.26	917.33
503.467	1013.23
503.674	981.65
503.881	968.48
504.089	1036.48
504.296	983.4
504.503	903.77
504.71	962.47
504.917	946.2
505.125	996.57
505.332	983.01
505.539	1005.29
505.746	1103.91
505.953	1073.1
506.16	1017.5
506.367	1105.46
506.574	1110.11
506.781	1090.73
506.988	1037.45
507.195	1096.74
507.402	1091.89
507.609	1151.18
507.816	1066.13
508.023	1070.58
508.23	1081.04
508.437	1065.35
508.644	1097.9
508.851	1146.92
509.058	1151.76
509.265	1155.25
509.472	1167.65
509.679	1259.68
509.885	1145.56
510.092	1182.96
510.299	1197.1
510.506	1188.38
510.713	1187.22
510.92	1194.77
511.126	1229.84
511.333	1242.44
511.54	1234.88
511.746	1327.1
511.953	1290.1
512.16	1315.09
512.367	1261.42
512.573	1255.22
512.78	1245.15
512.987	1246.7
513.193	1313.93
513.4	1262.2
513.606	1251.74
513.813	1339.31
514.02	1279.05
514.226	1365.47
514.433	1363.33
514.639	1291.07
514.846	1328.65
515.052	1296.1
515.259	1347.45
515.465	1365.27
515.672	1352.1
515.878	1449.16
516.085	1386
516.291	1427.66
516.497	1357.91
516.704	1349.77
516.91	1303.47
517.117	1289.32
517.323	1243.41
517.529	1280.8
517.736	1299.98
517.942	1353.65
518.148	1333.5
518.354	1370.89
518.561	1401.89
518.767	1401.5
518.973	1390.85
519.179	1453.23
519.386	1424.56
519.592	1429.01
519.798	1460.01
520.004	1539.84
520.21	1550.3
520.417	1549.14
520.623	1599.51
520.829	1639.62
521.035	1626.64
521.241	1653.37
521.447	1647.17
521.653	1758.97
521.859	1648.72
522.065	1683.99
522.271	1788.22
522.477	1713.44
522.683	1748.5
522.889	1719.83
523.095	1711.11
523.301	1724.67
523.507	1704.14
523.713	1774.66
523.919	1730.49
524.125	1823.1
524.331	1795.58
524.537	1891.68
524.742	1863.59
524.948	1877.93
525.154	1887.61
525.36	1945.16
525.566	1893.43
525.772	1947.29
525.977	1885.48
526.183	1930.05
526.389	1925.98
526.595	1857
526.8	1829.3
527.006	1760.9
527.212	1744.05
527.417	1713.82
527.623	1769.43
527.829	1869.98
528.034	1834.72
528.24	1902.34
528.446	1869.4
528.651	2004.25
528.857	1970.54
529.062	2016.65
529.268	2000.57
529.473	2046.29
529.679	2077.68
529.884	2140.07
530.09	2109.26
530.295	2081.75
530.501	2105.39
530.706	2083.11
530.912	2061.6
531.117	2084.66
531.323	2099.96
531.528	2187.92
531.733	2173
531.939	2133.29
532.144	2160.02
532.35	2162.35
532.555	2165.06
532.76	2116.62
532.966	2090.08
533.171	2087.37
533.376	2103.06
533.581	2067.02
533.787	2074.58
533.992	2199.74
534.197	2171.84
534.402	2157.31
534.607	2163.32
534.813	2259.03
535.018	2161.77
535.223	2188.89
535.428	2208.07
535.633	2262.9
535.838	2291.19
536.043	2296.42
536.249	2381.28
536.454	2280.92
536.659	2312.31
536.864	2284.22
537.069	2250.7
537.274	2237.91
537.479	2263.68
537.684	2257.09
537.889	2213.11
538.094	2366.36
538.299	2287.51
538.504	2325.29
538.708	2322.19
538.913	2381.48
539.118	2312.7
539.323	2322
539.528	2295.07
539.733	2265.03
539.938	2314.44
540.142	2324.32
540.347	2268.13
540.552	2234.81
540.757	2238.1
540.962	2259.03
541.166	2195.29
541.371	2249.73
541.576	2236.75
541.781	2191.41
541.985	2368.11
542.19	2280.73
542.395	2370.05
542.599	2404.92
542.804	2357.84
543.008	2391.55
543.213	2315.02
543.418	2301.26
543.622	2367.53
543.827	2321.8
544.031	2368.88
544.236	2425.84
544.44	2410.15
544.645	2443.48
544.849	2369.66
545.054	2455.49
545.258	2462.46
545.463	2505.09
545.667	2371.6
545.872	2395.62
546.076	2440.38
546.281	2415.38
546.485	2360.16
546.689	2431.08
546.894	2442.12
547.098	2423.52
547.302	2378.57
547.507	2422.55
547.711	2456.46
547.915	2442.89
548.119	2361.13
548.324	2415.19
548.528	2452
548.732	2431.08
548.936	2451.42
549.141	2499.27
549.345	2435.14
549.549	2430.11
549.753	2399.88
549.957	2529.11
550.161	2522.14
550.366	2503.54
550.57	2438.63
550.774	2460.72
550.978	2464.79
551.182	2520.78
551.386	2441.34
551.59	2461.3
551.794	2460.53
551.998	2508.19
552.202	2437.86
552.406	2440.57
552.61	2484.16
552.814	2495.79
553.018	2569.8
553.222	2514.39
553.426	2446.96
553.63	2582.78
553.833	2480.67
554.037	2419.26
554.241	2480.29
554.445	2516.32
554.649	2466.34
554.853	2465.18
555.056	2525.24
555.26	2532.21
555.464	2475.83
555.668	2504.89
555.871	2509.16
556.075	2518.07
556.279	2512.84
556.483	2427.98
556.686	2461.69
556.89	2458.2
557.094	2473.12
557.297	2357.45
557.501	2443.86
557.704	2382.06
557.908	2460.33
558.112	2380.7
558.315	2448.32
558.519	2370.24
558.722	2376.44
558.926	2374.7
559.129	2285.77
559.333	2316.57
559.536	2305.33
559.74	2301.07
559.943	2288.48
560.147	2274.14
560.35	2316.38
560.553	2336.72
560.757	2278.4
560.96	2374.5
561.164	2329.94
561.367	2413.83
561.57	2305.91
561.774	2335.17
561.977	2324.32
562.18	2311.53
562.384	2357.06
562.587	2296.42
562.79	2296.03
562.993	2302.43
563.197	2284.02
563.4	2358.03
563.603	2322
563.806	2365.2
564.009	2266.2
564.212	2341.56
564.416	2213.69
564.619	2277.63
564.822	2231.9
565.025	2293.9
565.228	2278.98
565.431	2272.01
565.634	2175.72
565.837	2187.73
566.04	2142.59
566.243	2157.89
566.446	2108.49
566.649	2184.63
566.852	2124.96
567.055	2170.49
567.258	2158.86
567.461	2206.52
567.664	2225.51
567.867	2126.7
568.07	2191.99
568.273	2156.34
568.475	2171.65
568.678	2067.61
568.881	2089.5
569.084	2059.86
569.287	1982.16
569.489	2010.45
569.692	2081.56
569.895	2072.26
570.098	2014.33
570.3	2020.72
570.503	1948.45
570.706	1970.54
570.909	1942.83
571.111	1916.1
571.314	1899.63
571.516	1932.56
571.719	1988.56
571.922	1891.68
572.124	1950.39
572.327	1943.03
572.529	1903.31
572.732	1902.15
572.935	1968.6
573.137	1991.08
573.34	1921.52
573.542	1964.92
573.745	1948.65
573.947	1972.48
574.15	1897.69
574.352	1875.8
574.554	1945.35
574.757	1864.75
574.959	1855.26
575.162	1857.39
575.364	1851.58
575.566	1918.03
575.769	1809.34
575.971	1863.4
576.173	1724.48
576.376	1825.42
576.578	1838.4
576.78	1926.17
576.982	1758.19
577.185	1789
577.387	1763.62
577.589	1804.5
577.791	1820.19
577.993	1853.32
578.196	1809.92
578.398	1791.71
578.6	1795.58
578.802	1741.53
579.004	1735.72
579.206	1785.7
579.408	1774.85
579.61	1741.92
579.812	1784.15
580.014	1739.2
580.216	1746.18
580.418	1768.46
580.62	1771.95
580.822	1700.26
581.024	1759.94
581.226	1795.2
581.428	1766.14
581.63	1849.83
581.832	1754.51
582.034	1873.08
582.236	1799.07
582.438	1799.46
582.64	1836.47
582.841	1897.5
583.043	1862.04
583.245	1857.97
583.447	1817.67
583.649	1807.98
583.85	1809.73
584.052	1829.88
584.254	1772.14
584.456	1815.15
584.657	1767.88
584.859	1832.4
585.061	1773.5
585.262	1739.01
585.464	1719.83
585.666	1790.35
585.867	1727.19
586.069	1810.5
586.27	1770.59
586.472	1746.95
586.674	1724.87
586.875	1714.79
587.077	1712.66
587.278	1752.38
587.48	1724.67
587.681	1795.58
587.883	1737.65
588.084	1646.79
588.285	1702.2
588.487	1689.02
588.688	1629.35
588.89	1584.21
589.091	1538.09
589.292	1566.58
589.494	1529.38
589.695	1499.54
589.896	1427.85
590.098	1406.54
590.299	1499.15
590.5	1480.36
590.702	1517.17
590.903	1533.83
591.104	1610.17
591.305	1579.17
591.507	1617.34
591.708	1595.06
591.909	1545.26
592.11	1615.21
592.311	1613.27
592.512	1568.32
592.714	1511.36
592.915	1549.91
593.116	1560.18
593.317	1573.16
593.518	1562.7
593.719	1574.91
593.92	1601.84
594.121	1610.75
594.322	1569.87
594.523	1586.53
594.724	1506.32
594.925	1559.99
595.126	1558.44
595.327	1566.58
595.528	1560.96
595.729	1574.13
595.929	1530.93
596.13	1558.63
596.331	1594.86
596.532	1607.26
596.733	1601.64
596.934	1613.46
597.135	1584.98
597.335	1595.25
597.536	1536.16
597.737	1548.75
597.938	1534.22
598.138	1596.22
598.339	1560.57
598.54	1588.86
598.74	1541.58
598.941	1572.39
599.142	1632.06
599.342	1571.61
599.543	1541.39
599.744	1572.39
599.944	1577.81
600.145	1589.44
600.345	1553.59
600.546	1628.77
600.746	1626.64
600.947	1617.53
601.147	1541.97
601.348	1592.34
601.548	1551.85
601.749	1559.21
601.949	1514.26
602.15	1553.01
602.35	1513.1
602.551	1578.39
602.751	1551.85
602.951	1552.82
603.152	1476.87
603.352	1571.23
603.552	1539.84
603.753	1575.88
603.953	1574.13
604.153	1566.77
604.354	1558.63
604.554	1552.04
604.754	1577.04
604.954	1520.08
605.155	1569.48
605.355	1546.23
605.555	1580.33
605.755	1632.45
605.955	1575.88
606.155	1595.25
606.356	1555.73
606.556	1578.39
606.756	1566.77
606.956	1504.58
607.156	1573.74
607.356	1514.65
607.556	1560.18
607.756	1512.13
607.956	1568.51
608.156	1551.08
608.356	1522.01
608.556	1534.03
608.756	1520.85
608.956	1464.86
609.156	1519.69
609.356	1509.23
609.556	1464.08
609.755	1466.21
609.955	1455.75
610.155	1518.14
610.355	1480.94
610.555	1470.09
610.755	1440.83
610.954	1441.41
611.154	1466.6
611.354	1540.03
611.554	1429.6
611.753	1451.49
611.953	1420.88
612.153	1453.23
612.352	1439.28
612.552	1383.68
612.752	1350.74
612.951	1429.21
613.151	1424.95
613.351	1399.57
613.55	1421.46
613.75	1424.95
613.949	1392.01
614.149	1434.25
614.348	1423.01
614.548	1354.62
614.747	1345.51
614.947	1370.7
615.146	1362.37
615.346	1436.57
615.545	1423.78
615.745	1359.07
615.944	1371.67
616.144	1368.76
616.343	1377.87
616.542	1318.39
616.742	1354.23
616.941	1326.91
617.14	1306.18
617.34	1351.71
617.539	1332.92
617.738	1321.49
617.938	1399.76
618.137	1356.36
618.336	1318.97
618.535	1362.17
618.734	1361.78
618.934	1352.68
619.133	1301.34
619.332	1381.55
619.531	1317.22
619.73	1329.24
619.929	1376.9
620.128	1347.25
620.328	1395.69
620.527	1321.1
620.726	1346.48
620.925	1341.83
621.124	1339.12
621.323	1356.55
621.522	1307.34
621.721	1306.57
621.92	1252.32
622.119	1318.58
622.318	1282.74
622.517	1324
622.715	1311.99
622.914	1231.59
623.113	1264.52
623.312	1261.04
623.511	1303.66
623.71	1241.66
623.909	1236.43
624.107	1320.32
624.306	1260.65
624.505	1237.59
624.704	1265.88
624.902	1213.37
625.101	1292.04
625.3	1227.32
625.499	1203.11
625.697	1227.32
625.896	1178.89
626.095	1259.1
626.293	1187.41
626.492	1212.99
626.69	1240.69
626.889	1183.54
627.088	1230.42
627.286	1162.61
627.485	1211.24
627.683	1169.39
627.882	1174.24
628.08	1106.43
628.279	1129.09
628.477	1227.32
628.676	1125.03
628.874	1174.24
629.073	1138.78
629.271	1125.03
629.469	1148.86
629.668	1134.91
629.866	1119.02
630.065	1127.74
630.263	1178.11
630.461	1124.44
630.66	1160.29
630.858	1160.29
631.056	1203.49
631.254	1222.29
631.453	1156.8
631.651	1156.61
631.849	1152.73
632.047	1185.28
632.245	1168.81
632.444	1170.56
632.642	1213.76
632.84	1195.94
633.038	1138.2
633.236	1127.16
633.434	1165.13
633.632	1164.94
633.83	1140.33
634.028	1200.2
634.227	1165.52
634.425	1236.43
634.623	1186.44
634.821	1177.72
635.019	1180.82
635.216	1147.5
635.414	1174.62
635.612	1162.61
635.81	1161.84
636.008	1233.14
636.206	1153.89
636.404	1182.57
636.602	1139.94
636.8	1121.54
636.997	1175.98
637.195	1195.16
637.393	1169.01
637.591	1205.82
637.789	1163.97
637.986	1154.09
638.184	1176.95
638.382	1210.47
638.58	1178.69
638.777	1242.44
638.975	1181.02
639.173	1135.68
639.37	1157.77
639.568	1144.98
639.765	1191.29
639.963	1115.73
640.161	1164.94
640.358	1186.64
640.556	1100.03
640.753	1092.67
640.951	1072.13
641.148	1151.18
641.346	1090.15
641.543	1121.34
641.741	1131.81
641.938	1061.86
642.136	1078.33
642.333	1063.22
642.531	1125.99
642.728	1120.38
642.925	1072.91
643.123	1074.65
643.32	1088.6
643.517	1060.31
643.715	1063.22
643.912	1080.46
644.109	1067.1
644.306	1038.42
644.504	1024.86
644.701	1049.46
644.898	1076.01
645.095	1038.03
645.293	1025.25
645.49	1066.51
645.687	1034.93
645.884	1061.48
646.081	985.14
646.278	993.28
646.475	996.76
646.672	966.93
646.87	1000.83
647.067	980.3
647.264	964.22
647.461	949.3
647.658	920.43
647.855	986.5
648.052	908.22
648.249	835.57
648.446	917.52
648.642	930.12
648.839	927.98
649.036	912.1
649.233	883.62
649.43	879.74
649.627	850.1
649.824	890.79
650.021	860.75
650.217	883.42
650.414	878.19
650.611	891.95
650.808	911.9
651.004	925.47
651.201	927.6
651.398	936.51
651.595	903.38
651.791	863.85
651.988	904.35
652.185	872.96
652.381	906.09
652.578	841.38
652.775	868.89
652.971	886.14
653.168	896.99
653.364	900.67
653.561	830.53
653.757	858.24
653.954	883.23
654.15	870.25
654.347	927.4
654.543	890.59
654.74	813.67
654.936	826.07
655.133	848.55
655.329	852.62
655.525	828.59
655.722	880.32
655.918	797.98
656.115	855.14
656.311	755.36
656.507	740.05
656.704	689.09
656.9	760.2
657.096	710.6
657.292	742.76
657.489	786.16
657.685	770.08
657.881	772.99
658.077	768.92
658.273	758.84
658.47	816.39
658.666	815.61
658.862	828.98
659.058	796.43
659.254	849.71
659.45	769.5
659.646	799.72
659.842	806.31
660.038	877.03
660.234	796.43
660.43	807.09
660.626	872.96
660.822	840.02
661.018	820.65
661.214	812.9
661.41	778.61
661.606	811.35
661.802	830.92
661.998	811.35
662.194	773.57
662.39	825.3
662.586	834.02
662.781	818.9
662.977	816.39
663.173	795.66
663.369	791.2
663.564	798.37
663.76	825.3
663.956	772.21
664.152	813.09
664.347	716.41
664.543	770.66
664.739	731.72
664.934	724.55
665.13	699.75
665.326	785.19
665.521	761.56
665.717	701.69
665.912	718.93
666.108	669.53
666.304	711.38
666.499	728.04
666.695	648.99
666.89	718.35
667.086	747.61
667.281	723.58
667.477	766.98
667.672	729.97
667.867	734.62
668.063	750.12
668.258	691.03
668.454	700.72
668.649	767.37
668.844	716.61
669.04	713.12
669.235	678.63
669.43	678.63
669.626	618.57
669.821	687.35
670.016	664.29
670.211	679.79
670.407	656.35
670.602	689.87
670.797	661.39
670.992	723.58
671.187	622.45
671.382	702.85
671.578	622.64
671.773	720.68
671.968	661
672.163	677.66
672.358	675.73
672.553	630.39
672.748	664.49
672.943	716.8
673.138	658.48
673.333	683.67
673.528	645.31
673.723	651.51
673.918	678.63
674.113	615.66
674.308	706.14
674.503	675.92
674.698	706.14
674.892	666.62
675.087	695.1
675.282	653.64
675.477	639.11
675.672	660.42
675.867	631.94
676.061	597.84
676.256	611.98
676.451	632.13
676.646	630.97
676.84	611.21
677.035	604.23
677.23	605.78
677.424	671.85
677.619	662.94
677.814	671.46
678.008	699.17
678.203	602.3
678.397	633.88
678.592	655.77
678.787	673.98
678.981	640.46
679.176	646.08
679.37	660.61
679.565	625.35
679.759	630.58
679.954	645.11
680.148	656.93
680.342	694.71
680.537	664.29
680.731	634.26
680.926	684.25
681.12	668.94
681.314	587.18
681.509	631.36
681.703	650.15
681.897	660.61
682.092	674.56
682.286	636.59
682.48	679.99
682.674	678.63
682.869	643.76
683.063	653.44
683.257	718.54
683.451	628.65
683.645	701.69
683.839	664.29
684.034	647.24
684.228	679.02
684.422	624.96
684.616	621.86
684.81	685.41
685.004	685.03
685.198	663.13
685.392	710.41
685.586	678.44
685.78	683.48
685.974	716.8
686.168	676.5
686.362	743.15
686.556	655.77
686.75	627.48
686.944	588.93
687.138	659.45
687.331	564.9
687.525	569.75
687.719	520.15
687.913	561.8
688.107	604.23
688.301	540.68
688.494	604.04
688.688	562.58
688.882	562.96
689.076	560.25
689.269	575.95
689.463	685.41
689.657	633.1
689.85	655.38
690.044	648.6
690.238	635.43
690.431	674.37
690.625	677.08
690.818	697.81
691.012	717.96
691.205	774.73
691.399	719.9
691.593	773.37
691.786	828.4
691.98	823.36
692.173	888.27
692.366	854.17
692.56	895.24
692.753	908.42
692.947	849.32
693.14	926.05
693.333	942.9
693.527	897.37
693.72	935.15
693.914	955.69
694.107	932.05
694.3	930.89
694.493	927.02
694.687	1013.04
694.88	948.52
695.073	1033.19
695.266	1027.96
695.46	1035.13
695.653	1084.73
695.846	1101.78
696.039	1038.42
696.232	1057.6
696.425	1149.24
696.618	1160.87
696.812	1169.39
697.005	1214.15
697.198	1316.64
697.391	1236.82
697.584	1280.02
697.777	1319.55
697.97	1338.34
698.163	1322.65
698.356	1294.55
698.549	1399.37
698.742	1373.02
698.935	1332.34
699.127	1353.07
699.32	1344.35
699.513	1368.18
699.706	1360.04
699.899	1417.58
700.092	1420.49
700.285	1429.79
700.477	1363.33
700.67	1440.64
700.863	1450.52
701.056	1513.1
701.248	1529.38
701.441	1485.78
701.634	1495.86
701.826	1611.33
702.019	1476.29
702.212	1557.47
702.404	1533.06
702.597	1507.68
702.79	1565.03
702.982	1603.58
703.175	1614.62
703.367	1659.96
703.56	1633.81
703.752	1737.85
703.945	1688.06
704.137	1750.83
704.33	1763.62
704.522	1744.24
704.715	1789.58
704.907	1806.24
705.1	1856.03
705.292	1810.7
705.484	1808.18
705.677	1849.64
705.869	1887.03
706.061	1892.85
706.254	1910.67
706.446	1884.9
706.638	1911.25
706.831	1967.44
707.023	1914.93
707.215	2048.04
707.407	2012.78
707.599	2005.8
707.792	2084.46
707.984	2009.29
708.176	2071.48
708.368	2031.38
708.56	2065.28
708.752	2069.35
708.944	2099.96
709.136	2092.99
709.329	2064.12
709.521	2216.02
709.713	2183.66
709.905	2179.98
710.097	2206.91
710.289	2158.67
710.481	2206.33
710.672	2188.12
710.864	2222.99
711.056	2301.65
711.248	2285.77
711.44	2256.51
711.632	2235.2
711.824	2318.31
712.016	2359.97
712.207	2341.37
712.399	2328
712.591	2420.42
712.783	2332.26
712.975	2367.91
713.166	2345.25
713.358	2398.53
713.55	2410.93
713.741	2473.31
713.933	2447.93
714.125	2382.45
714.316	2361.71
714.508	2470.99
714.7	2481.64
714.891	2453.55
715.083	2517.29
715.274	2424.68
715.466	2489.39
715.657	2510.9
715.849	2384.96
716.04	2444.06
716.232	2375.47
716.423	2387.87
716.615	2306.11
716.806	2275.88
716.998	2216.02
717.189	2125.92
717.381	2094.54
717.572	2013.16
717.763	2049.2
717.955	2023.82
718.146	1959.49
718.337	1935.08
718.528	1867.85
718.72	1821.93
718.911	1896.14
719.102	1828.72
719.293	1856.03
719.485	1796.55
719.676	1840.92
719.867	1773.11
720.058	1781.63
720.249	1803.14
720.44	1809.53
720.632	1866.88
720.823	1967.44
721.014	2054.24
721.205	2047.07
721.396	2164.67
721.587	2289.06
721.778	2275.3
721.969	2329.75
722.16	2396.98
722.351	2413.25
722.542	2501.6
722.733	2489.2
722.924	2446.38
723.115	2479.51
723.305	2444.06
723.496	2442.51
723.687	2318.12
723.878	2332.65
724.069	2389.42
724.26	2322.19
724.45	2293.52
724.641	2259.22
724.832	2296.42
725.023	2211.17
725.213	2261.35
725.404	2236.36
725.595	2246.43
725.785	2223.57
725.976	2254.57
726.167	2275.11
726.357	2296.23
726.548	2413.06
726.739	2313.66
726.929	2377.02
727.12	2355.13
727.31	2383.22
727.501	2343.11
727.691	2359.58
727.882	2400.85
728.072	2432.24
728.263	2436.69
728.453	2448.13
728.644	2497.14
728.834	2420.03
729.024	2417.9
729.215	2387.68
729.405	2427.2
729.596	2528.53
729.786	2483.19
729.976	2528.72
730.167	2514.97
730.357	2502.18
730.547	2538.02
730.737	2548.68
730.928	2599.25
731.118	2623.66
731.308	2548.1
731.498	2574.06
731.688	2671.71
731.879	2699.61
732.069	2763.55
732.259	2799.39
732.449	2818.38
732.639	2904.79
732.829	2890.64
733.019	2978.8
733.209	3012.51
733.399	3009.22
733.589	3083.23
733.779	3125.85
733.969	3138.25
734.159	3168.28
734.349	3216.72
734.539	3250.43
734.729	3224.47
734.919	3262.83
735.109	3313.79
735.299	3243.46
735.488	3309.91
735.678	3270.58
735.868	3301.19
736.058	3283.37
736.248	3278.33
736.437	3249.85
736.627	3190.56
736.817	3373.85
737.007	3279.3
737.196	3367.46
737.386	3338.78
737.576	3283.37
737.765	3405.24
737.955	3355.25
738.144	3480.99
738.334	3401.75
738.524	3347.5
738.713	3404.07
738.903	3386.83
739.092	3420.93
739.282	3456
739.471	3470.14
739.661	3426.55
739.85	3460.26
740.04	3449.99
740.229	3491.65
740.419	3529.82
740.608	3580.38
740.797	3527.3
740.987	3609.83
741.176	3591.43
741.365	3573.41
741.555	3532.72
741.744	3636.96
741.933	3593.56
742.123	3608.67
742.312	3590.65
742.501	3620.1
742.69	3647.61
742.88	3598.6
743.069	3710.19
743.258	3696.25
743.447	3701.09
743.636	3694.89
743.825	3695.08
744.014	3638.7
744.204	3747.98
744.393	3663.89
744.582	3819.08
744.771	3779.17
744.96	3725.89
745.149	3726.86
745.338	3703.99
745.527	3747.2
745.716	3706.9
745.905	3710.97
746.094	3801.06
746.283	3737.13
746.471	3738.48
746.66	3754.76
746.849	3815.59
747.038	3759.79
747.227	3745.46
747.416	3803.97
747.604	3774.52
747.793	3765.22
747.982	3747.59
748.171	3787.11
748.359	3776.65
748.548	3769.09
748.737	3787.31
748.926	3762.89
749.114	3623.2
749.303	3739.84
749.491	3742.94
749.68	3695.28
749.869	3779.56
750.057	3744.1
750.246	3694.5
750.434	3741.78
750.623	3707.68
750.811	3654.78
751	3738.09
751.188	3678.61
751.377	3683.26
751.565	3673.96
751.754	3622.04
751.942	3646.84
752.131	3730.73
752.319	3666.41
752.507	3631.53
752.696	3704.77
752.884	3718.72
753.072	3632.31
753.261	3672.61
753.449	3659.82
753.637	3652.85
753.825	3728.21
754.014	3629.21
754.202	3625.91
754.39	3686.36
754.578	3642
754.766	3596.08
754.955	3595.88
755.143	3712.52
755.331	3618.16
755.519	3643.55
755.707	3613.71
755.895	3579.8
756.083	3599.57
756.271	3561.4
756.459	3557.91
756.647	3617.97
756.835	3561.59
757.023	3560.04
757.211	3529.04
757.399	3547.25
757.587	3548.8
757.775	3515.48
757.963	3519.16
758.151	3496.88
758.339	3473.44
758.526	3476.73
758.714	3484.87
758.902	3379.86
759.09	3267.68
759.278	3055.52
759.465	2779.63
759.653	2440.96
759.841	2210.4
760.028	1869.4
760.216	1665
760.404	1530.34
760.591	1277.89
760.779	1072.91
760.967	926.82
761.154	764.46
761.342	790.42
761.529	777.06
761.717	861.53
761.905	832.08
762.092	906.28
762.28	814.26
762.467	815.22
762.655	731.52
762.842	791.39
763.029	781.12
763.217	787.32
763.404	763.88
763.592	804.57
763.779	772.6
763.966	813.09
764.154	836.73
764.341	933.8
764.528	907.64
764.716	990.37
764.903	1029.31
765.09	1108.94
765.277	1183.15
765.465	1307.54
765.652	1375.54
765.839	1451.49
766.026	1606.1
766.213	1684.37
766.4	1778.34
766.588	1980.42
766.775	1971.31
766.962	2074.77
767.149	2179.79
767.336	2313.47
767.523	2287.12
767.71	2446.58
767.897	2526.98
768.084	2618.82
768.271	2674.62
768.458	2742.04
768.645	2816.05
768.832	2786.02
769.019	2854.99
769.206	2863.52
769.392	2963.49
769.579	3036.92
769.766	3031.89
769.953	3004.95
770.14	3063.08
770.327	3040.8
770.513	3095.24
770.7	3135.35
770.887	3075.48
771.073	3124.5
771.26	3132.44
771.447	3111.71
771.634	3051.65
771.82	3175.84
772.007	3105.51
772.193	3126.05
772.38	3125.08
772.567	3118.68
772.753	3165.18
772.94	3155.3
773.126	3205.29
773.313	3175.06
773.499	3139.22
773.686	3170.42
773.872	3117.72
774.059	3171.38
774.245	3087.88
774.432	3145.81
774.618	3053.97
774.804	3125.08
774.991	3090.2
775.177	3117.72
775.363	3094.85
775.55	3136.32
775.736	3052.42
775.922	3084.2
776.109	3059.79
776.295	3102.41
776.481	3091.56
776.667	3092.33
776.853	3103.18
777.04	3034.6
777.226	3038.28
777.412	3089.43
777.598	3044.09
777.784	3024.14
777.97	3005.54
778.156	3043.51
778.342	3005.15
778.528	3022
778.715	3002.05
778.901	2999.34
779.087	3011.93
779.272	2956.91
779.458	2936.56
779.644	2999.72
779.83	2941.79
780.016	3038.28
780.202	2991.39
780.388	2948.19
780.574	2866.81
780.76	2915.64
780.946	2966.01
781.131	2945.09
781.317	2942.18
781.503	2891.42
781.689	2889.09
781.874	3004.57
782.06	2885.99
782.246	2925.91
782.432	2871.08
782.617	2908.08
782.803	2941.6
782.989	2856.74
783.174	2854.41
783.36	2801.13
783.545	2871.85
783.731	2801.91
783.916	2762.58
784.102	2855.77
784.288	2813.53
784.473	2818.57
784.659	2810.82
784.844	2807.33
785.029	2822.25
785.215	2764.13
785.4	2734.87
785.586	2825.16
785.771	2705.81
785.956	2770.71
786.142	2722.67
786.327	2776.14
786.512	2748.43
786.698	2728.09
786.883	2630.64
787.068	2701.35
787.254	2690.7
787.439	2683.72
787.624	2678.88
787.809	2649.24
787.994	2663.96
788.18	2694.18
788.365	2633.54
788.55	2643.04
788.735	2602.15
788.92	2587.43
789.105	2590.72
789.29	2643.42
789.475	2556.43
789.66	2559.72
789.845	2526.4
790.03	2463.24
790.215	2545.77
790.4	2577.16
790.585	2569.41
790.77	2561.86
790.955	2462.85
791.14	2530.27
791.325	2591.89
791.51	2418.09
791.695	2520.01
791.879	2525.04
792.064	2490.17
792.249	2551.2
792.434	2444.25
792.618	2509.93
792.803	2510.9
792.988	2490.94
793.173	2501.79
793.357	2563.6
793.542	2490.56
793.727	2511.87
793.911	2555.27
794.096	2489.2
794.281	2566.89
794.465	2649.04
794.65	2539.77
794.834	2598.86
795.019	2601.77
795.203	2611.07
795.388	2540.35
795.572	2627.54
795.757	2587.62
795.941	2553.52
796.126	2573.09
796.31	2509.35
796.494	2511.67
796.679	2515.36
796.863	2494.43
797.048	2616.69
797.232	2571.15
797.416	2586.65
797.601	2575.03
797.785	2575.42
797.969	2600.41
798.153	2539.57
798.338	2626.18
798.522	2616.88
798.706	2621.72
798.89	2619.01
799.074	2721.12
799.258	2623.08
799.443	2634.7
799.627	2572.51
799.811	2634.9
799.995	2578.9
800.179	2562.82
800.363	2566.12
800.547	2554.88
800.731	2609.9
800.915	2542.29
801.099	2544.03
801.283	2531.24
801.467	2562.63
801.651	2527.56
801.835	2567.67
802.019	2588.01
802.202	2524.07
802.386	2526.98
802.57	2512.45
802.754	2561.47
802.938	2494.62
803.121	2524.66
803.305	2559.34
803.489	2548.49
803.673	2584.52
803.856	2561.27
804.04	2527.37
804.224	2567.28
804.407	2550.81
804.591	2492.88
804.775	2541.9
804.958	2553.52
805.142	2647.1
805.326	2551.39
805.509	2562.44
805.693	2594.99
805.876	2613.78
806.06	2550.04
806.243	2583.94
806.427	2587.43
806.61	2631.6
806.794	2569.8
806.977	2595.37
807.16	2596.54
807.344	2553.91
807.527	2580.07
807.71	2542.29
807.894	2563.79
808.077	2607
808.26	2530.27
808.444	2544.81
808.627	2590.53
808.81	2523.69
808.993	2471.96
809.177	2437.86
809.36	2478.74
809.543	2493.66
809.726	2386.51
809.909	2421.58
810.092	2437.47
810.276	2389.61
810.459	2409.18
810.642	2397.36
810.825	2364.04
811.008	2354.35
811.191	2279.57
811.374	2327.03
811.557	2326.84
811.74	2320.83
811.923	2265.62
812.106	2219.12
812.289	2199.94
812.472	2174.75
812.654	2164.87
812.837	2129.8
813.02	2112.36
813.203	2083.69
813.386	1967.05
813.569	1968.99
813.751	1929.27
813.934	1939.35
814.117	1900.79
814.3	1872.89
814.482	1809.73
814.665	1823.1
814.848	1753.54
815.03	1734.36
815.213	1724.09
815.396	1704.52
815.578	1673.33
815.761	1632.84
815.943	1693.67
816.126	1592.73
816.309	1578.39
816.491	1529.76
816.674	1464.47
816.856	1519.11
817.039	1504.38
817.221	1589.44
817.403	1509.03
817.586	1516.78
817.768	1562.7
817.951	1516.59
818.133	1441.61
818.315	1475.9
818.498	1556.5
818.68	1599.51
818.862	1578.78
819.045	1609.2
819.227	1574.71
819.409	1575.88
819.591	1613.85
819.774	1582.08
819.956	1540.81
820.138	1641.94
820.32	1617.72
820.502	1679.14
820.684	1722.54
820.866	1761.29
821.048	1801.01
821.231	1798.3
821.413	1757.8
821.595	1745.79
821.777	1817.09
821.959	1767.3
822.141	1817.09
822.323	1722.15
822.505	1642.33
822.686	1597.96
822.868	1498.76
823.05	1386.97
823.232	1409.83
823.414	1304.24
823.596	1394.72
823.778	1345.9
823.96	1396.08
824.141	1453.43
824.323	1464.86
824.505	1509.81
824.687	1584.21
824.868	1625.47
825.05	1722.35
825.232	1724.67
825.413	1797.72
825.595	1723.12
825.777	1686.31
825.958	1720.02
826.14	1738.82
826.321	1772.53
826.503	1733.2
826.685	1775.44
826.866	1792.87
827.048	1762.84
827.229	1657.25
827.411	1671.78
827.592	1616.76
827.773	1613.66
827.955	1590.79
828.136	1600.68
828.318	1532.67
828.499	1585.56
828.68	1522.4
828.862	1583.63
829.043	1611.14
829.224	1537.9
829.406	1540.61
829.587	1558.63
829.768	1544.68
829.949	1598.35
830.131	1572.78
830.312	1632.45
830.493	1534.22
830.674	1582.85
830.855	1535.19
831.036	1551.85
831.218	1634.58
831.399	1611.91
831.58	1567.54
831.761	1559.6
831.942	1591.57
832.123	1579.36
832.304	1524.14
832.485	1552.24
832.666	1555.92
832.847	1603.39
833.028	1590.02
833.209	1554.37
833.389	1562.12
833.57	1494.11
833.751	1515.81
833.932	1596.22
834.113	1599.9
834.294	1594.86
834.475	1597.58
834.655	1621.02
834.836	1623.34
835.017	1596.03
835.198	1546.43
835.378	1599.32
835.559	1668.87
835.74	1585.95
835.92	1599.51
836.101	1564.25
836.281	1633.61
836.462	1631.29
836.643	1637.49
836.823	1641.75
837.004	1649.11
837.184	1691.54
837.365	1689.02
837.545	1649.11
837.726	1596.8
837.906	1700.45
838.087	1639.23
838.267	1637.29
838.448	1643.69
838.628	1647.95
838.808	1664.61
838.989	1678.76
839.169	1618.11
839.349	1652.02
839.53	1697.74
839.71	1679.92
839.89	1644.46
840.07	1693.87
840.251	1627.61
840.431	1696.58
840.611	1663.64
840.791	1626.06
840.971	1693.48
841.151	1626.64
841.332	1603.97
841.512	1653.18
841.692	1577.04
841.872	1630.9
842.052	1616.95
842.232	1706.85
842.412	1586.73
842.592	1623.15
842.772	1639.42
842.952	1632.06
843.132	1617.53
843.312	1607.26
843.492	1594.67
843.672	1628.96
843.851	1558.05
844.031	1633.81
844.211	1587.31
844.391	1588.28
844.571	1622.18
844.751	1628.77
844.93	1631.87
845.11	1604.55
845.29	1580.33
845.47	1622.57
845.649	1595.06
845.829	1628.19
846.009	1573.16
846.188	1621.79
846.368	1589.63
846.547	1638.46
846.727	1616.37
846.907	1578.01
847.086	1648.34
847.266	1664.03
847.445	1573.16
847.625	1542.16
847.804	1543.91
847.984	1583.82
848.163	1570.45
848.343	1542.74
848.522	1567.93
848.701	1585.76
848.881	1549.91
849.06	1560.76
849.239	1517.94
849.419	1540.42
849.598	1498.76
849.777	1488.69
849.957	1444.13
850.136	1439.28
850.315	1399.57
850.494	1399.57
850.674	1421.85
850.853	1465.63
851.032	1434.44
851.211	1495.47
851.39	1446.45
851.569	1407.12
851.748	1409.83
851.927	1455.75
852.107	1465.25
852.286	1440.06
852.465	1373.02
852.644	1484.04
852.823	1457.3
853.002	1452.65
853.181	1413.32
853.359	1459.63
853.538	1367.98
853.717	1439.86
853.896	1354.23
854.075	1311.22
854.254	1295.52
854.433	1199.42
854.611	1270.72
854.79	1202.33
854.969	1232.36
855.148	1298.62
855.327	1224.81
855.505	1294.55
855.684	1299.4
855.863	1311.02
856.041	1288.94
856.22	1330.4
856.399	1317.03
856.577	1416.62
856.756	1400.73
856.934	1485.59
857.113	1483.65
857.291	1380
857.47	1347.64
857.648	1407.32
857.827	1396.27
858.005	1447.23
858.184	1346.87
858.362	1442.19
858.541	1380.19
858.719	1370.89
858.898	1371.47
859.076	1361.01
859.254	1379.22
859.433	1332.53
859.611	1307.92
859.789	1342.99
859.967	1412.74
860.146	1397.82
860.324	1320.13
860.502	1313.93
860.68	1285.64
860.859	1298.62
861.037	1307.15
861.215	1361.2
861.393	1335.82
861.571	1337.76
861.749	1335.82
861.927	1355.97
862.105	1339.7
862.283	1315.48
862.461	1282.35
862.639	1247.47
862.817	1306.95
862.995	1317.42
863.173	1303.47
863.351	1304.63
863.529	1305.6
863.707	1350.35
863.885	1275.76
864.063	1262.2
864.241	1297.46
864.418	1321.49
864.596	1281.38
864.774	1241.86
864.952	1252.32
865.129	1279.25
865.307	1245.54
865.485	1188.19
865.663	1273.24
865.84	1194
866.018	1187.02
866.196	1076.78
866.373	1110.69
866.551	1110.3
866.728	1041.33
866.906	1079.49
867.084	1094.61
867.261	1146.34
867.439	1149.63
867.616	1203.3
867.794	1119.79
867.971	1164.94
868.149	1157.38
868.326	1206.01
868.503	1194.97
868.681	1188.38
868.858	1165.13
869.035	1131.42
869.213	1198.46
869.39	1178.31
869.567	1224.81
869.745	1148.66
869.922	1194.77
870.099	1189.74
870.276	1220.35
870.454	1195.55
870.631	1197.68
870.808	1149.63
870.985	1199.23
871.162	1247.47
871.339	1159.13
871.517	1152.34
871.694	1139.17
871.871	1152.73
872.048	1161.26
872.225	1149.24
872.402	1181.41
872.579	1107.98
872.756	1147.31
872.933	1088.6
873.11	1169.2
873.287	1156.03
873.463	1130.45
873.64	1088.02
873.817	1143.43
873.994	1112.43
874.171	1071.94
874.348	1099.06
874.524	1079.49
874.701	1117.47
874.878	1057.8
875.055	1121.73
875.231	1086.86
875.408	1109.14
875.585	1011.3
875.762	1062.83
875.938	1054.11
876.115	1071.55
876.291	1050.24
876.468	1063.22
876.645	1033.58
876.821	1067.87
876.998	1033.58
877.174	1085.69
877.351	1075.81
877.527	1010.91
877.704	1035.32
877.88	1064.77
878.057	1059.73
878.233	1047.72
878.409	1047.91
878.586	1069.03
878.762	1043.07
878.938	1045.98
879.115	956.85
879.291	1037.26
879.467	970.03
879.644	1014.2
879.82	1028.15
879.996	996.57
880.172	953.56
880.349	992.7
880.525	1079.69
880.701	954.72
880.877	969.83
881.053	971.38
881.229	979.91
881.405	1008.2
881.581	946.78
881.757	983.78
881.933	995.6
882.109	1004.9
882.285	976.03
882.461	946
882.637	978.17
882.813	946.78
882.989	977.2
883.165	1006.06
883.341	958.4
883.517	1030.48
883.693	984.95
883.869	1009.36
884.044	962.86
884.22	1009.75
884.396	1009.36
884.572	1006.84
884.747	1034.35
884.923	1027.57
885.099	1026.99
885.275	1007.61
885.45	969.45
885.626	989.79
885.801	939.61
885.977	999.48
886.153	929.73
886.328	1017.3
886.504	936.32
886.679	971
886.855	938.45
887.03	979.33
887.206	970.42
887.381	993.08
887.557	976.03
887.732	991.53
887.908	1005.1
888.083	995.99
888.258	966.54
888.434	977.97
888.609	1001.61
888.784	1036.29
888.96	952.98
889.135	944.45
889.31	964.22
889.485	979.72
889.661	983.4
889.836	1006.26
890.011	998.7
890.186	969.83
890.361	979.33
890.537	965.18
890.712	974.1
890.887	958.4
891.062	950.85
891.237	988.24
891.412	968.67
891.587	965.96
891.762	973.13
891.937	1033.77
892.112	941.93
892.287	947.94
892.462	922.95
892.637	850.29
892.812	885.75
892.987	890.79
893.161	873.15
893.336	887.49
893.511	898.54
893.686	915.58
893.861	897.95
894.035	858.82
894.21	844.67
894.385	838.47
894.56	848.74
894.734	778.99
894.909	805.73
895.084	793.91
895.258	788.87
895.433	810.38
895.608	755.74
895.782	727.46
895.957	728.62
896.131	719.32
896.306	683.28
896.48	680.76
896.655	665.65
896.829	592.22
897.004	621.28
897.178	655.58
897.353	617.02
897.527	666.43
897.701	645.69
897.876	608.69
898.05	663.13
898.224	648.99
898.399	688.71
898.573	630.39
898.747	542.82
898.921	589.7
899.096	477.33
899.27	496.9
899.444	522.67
899.618	542.82
899.792	563.16
899.967	577.11
900.141	603.46
900.315	529.25
900.489	550.57
900.663	558.51
900.837	564.13
901.011	508.52
901.185	608.11
901.359	547.08
901.533	569.94
901.707	536.23
901.881	547.85
902.055	483.92
902.229	546.3
902.403	609.08
902.576	561.61
902.75	573.04
902.924	660.42
903.098	586.99
903.272	642.21
903.446	679.41
903.619	658.09
903.793	698.98
903.967	695.1
904.14	763.69
904.314	736.17
904.488	701.49
904.661	725.13
904.835	714.86
905.009	772.79
905.182	770.86
905.356	725.71
905.529	712.15
905.703	659.26
905.876	678.63
906.05	653.44
906.223	638.72
906.397	572.65
906.57	572.07
906.744	550.95
906.917	566.84
907.09	574.98
907.264	541.46
907.437	497.48
907.61	497.48
907.784	539.33
907.957	565.68
908.13	495.35
908.304	530.8
908.477	475.39
908.65	494.18
908.823	448.07
908.996	510.07
909.17	476.36
909.343	482.75
909.516	507.36
909.689	471.13
909.862	478.1
910.035	458.54
910.208	455.63
910.381	476.36
910.554	539.33
910.727	469
910.9	469.19
911.073	451.37
911.246	522.47
911.419	559.67
911.592	526.15
911.765	460.86
911.938	457.95
912.11	478.3
912.283	469
912.456	511.62
912.629	479.27
912.802	460.28
912.974	406.61
913.147	407.97
913.32	361.66
913.493	373.09
913.665	410.87
913.838	413.59
914.01	417.07
914.183	438.19
914.356	403.32
914.528	481.98
914.701	497.09
914.873	452.34
915.046	418.24
915.218	346.36
915.391	364.76
915.563	346.94
915.736	415.72
915.908	467.25
916.081	426.37
916.253	389.37
916.425	408.35
916.598	446.72
916.77	419.4
916.942	370.19
917.115	345.97
917.287	424.24
917.459	372.71
917.632	353.14
917.804	304.12
917.976	399.05
918.148	400.99
918.32	409.9
918.493	436.84
918.665	455.63
918.837	431.6
919.009	456.21
919.181	467.45
919.353	436.84
919.525	440.32
919.697	427.34
919.869	446.14
920.041	508.13
920.213	537.2
920.385	491.67
920.557	451.75
920.729	463.77
920.901	489.92
921.073	448.27
921.244	450.2
921.416	498.64
921.588	455.82
921.76	453.89
921.932	524.22
922.103	440.71
922.275	438.97
922.447	456.21
922.619	383.36
922.79	430.25
922.962	393.63
923.134	447.88
923.305	358.95
923.477	373.09
923.648	378.32
923.82	396.92
923.991	340.16
924.163	338.22
924.335	401.77
924.506	386.65
924.677	425.79
924.849	351.59
925.02	408.16
925.192	400.6
925.363	399.05
925.535	387.43
925.706	346.55
925.877	423.66
926.049	362.63
926.22	379.29
926.391	394.6
926.562	391.3
926.734	354.88
926.905	398.28
927.076	309.74
927.247	342.67
927.419	309.54
927.59	289.2
927.761	285.71
927.932	285.91
928.103	296.76
928.274	267.5
928.445	252.39
928.616	304.51
928.787	266.53
928.958	301.99
929.129	261.88
929.3	240.96
929.471	233.59
929.642	204.92
929.813	139.63
929.984	223.13
930.155	152.41
930.326	202.01
930.496	168.69
930.667	139.05
930.838	183.22
931.009	128.2
931.18	141.56
931.35	163.65
931.521	141.56
931.692	79.57
931.863	47.98
932.033	105.92
932.204	95.65
932.374	99.72
932.545	78.6
932.716	129.94
932.886	118.31
933.057	53.6
933.227	47.21
933.398	147.38
933.568	61.93
933.739	53.22
933.909	54.18
934.08	97.39
934.25	10.4
934.421	59.61
934.591	62.71
934.761	39.07
934.932	9.24
935.102	34.81
935.272	16.99
935.443	63.68
935.613	74.72
935.783	36.55
935.953	-8.59
936.123	166.17
936.294	8.46
936.464	14.27
936.634	57.09
936.804	22.41
936.974	2.65
937.144	45.08
937.314	53.8
937.484	14.27
937.655	20.86
937.825	64.65
937.995	35.58
938.165	67.55
938.334	51.08
938.504	94.68
938.674	37.72
938.844	38.88
939.014	96.23
939.184	104.17
939.354	129.16
939.524	115.02
939.694	83.25
939.863	66.78
940.033	113.86
940.203	114.05
940.373	97.2
940.542	134.59
940.712	88.48
940.882	108.24
941.051	105.53
941.221	100.49
941.391	106.5
941.56	68.72
941.73	67.17
941.899	147.57
942.069	83.83
942.238	111.53
942.408	66.39
942.577	98.75
942.747	57.87
942.916	32.87
943.086	60.97
943.255	106.11
943.425	88.09
943.594	69.88
943.763	0.13
943.933	62.32
944.102	0.71
944.271	46.05
944.441	79.57
944.61	51.47
944.779	64.07
944.948	147.76
945.117	19.7
945.287	34.23
945.456	7.88
945.625	38.1
945.794	68.33
945.963	45.27
946.132	77.82
946.301	46.05
946.47	104.95
946.639	12.72
946.808	47.98
946.977	85.18
947.146	86.73
947.315	51.28
947.484	71.62
947.653	54.57
947.822	60.77
947.991	22.8
948.16	135.95
948.329	106.3
948.498	61.16
948.666	68.33
948.835	105.92
949.004	36.55
949.173	30.74
949.341	94.48
949.51	71.43
949.679	111.15
949.847	97.58
950.016	120.06
950.185	98.17
950.353	63.68
950.522	56.7
950.69	122.58
950.859	61.74
951.028	112.7
951.196	69.49
951.365	51.67
951.533	74.33
951.701	76.47
951.87	53.99
952.038	44.5
952.207	57.87
952.375	125.48
952.543	57.87
952.712	62.32
952.88	47.79
953.048	122.38
953.217	91.19
953.385	79.76
953.553	112.89
953.721	43.33
953.89	52.63
954.058	15.44
954.226	27.45
954.394	74.14
954.562	26.87
954.73	73.95
954.898	51.28
955.067	89.25
955.235	40.43
955.403	102.43
955.571	119.86
955.739	102.04
955.907	25.7
956.075	54.18
956.243	46.43
956.41	78.98
956.578	30.55
956.746	50.31
956.914	41.01
957.082	71.62
957.25	98.75
957.418	54.57
957.585	75.69
957.753	98.36
957.921	37.33
958.089	52.63
958.256	80.92
958.424	72.98
958.592	95.07
958.759	56.7
958.927	93.32
959.095	28.8
959.262	51.67
959.43	66.78
959.597	32.29
959.765	74.33
959.932	11.56
960.1	62.71
960.267	83.44
960.435	75.69
960.602	108.24
960.77	69.88
960.937	45.47
961.104	63.29
961.272	34.03
961.439	86.93
961.606	84.8
961.774	106.88
961.941	88.09
962.108	88.48
962.275	70.07
962.443	112.7
962.61	86.73
962.777	134.59
962.944	108.24
963.111	108.43
963.278	95.84
963.446	90.61
963.613	68.13
963.78	89.83
963.947	76.66
964.114	107.27
964.281	156.1
964.448	82.28
964.615	95.45
964.782	103.2
964.949	120.83
965.116	99.33
965.282	137.88
965.449	74.14
965.616	46.63
965.783	124.71
965.95	65.62
966.117	58.06
966.283	93.71
966.45	89.83
966.617	88.67
966.784	128.39
966.95	114.83
967.117	105.72
967.284	66
967.45	86.35
967.617	143.89
967.784	114.05
967.95	139.24
968.117	75.88
968.283	131.3
968.45	167.33
968.616	111.53
968.783	147.76
968.949	134.78
969.116	151.06
969.282	113.67
969.449	112.5
969.615	123.35
969.781	60
969.948	91.97
970.114	73.17
970.28	155.9
970.447	94.48
970.613	154.93
970.779	111.73
970.945	119.48
971.112	118.9
971.278	121.22
971.444	90.03
971.61	123.93
971.776	108.82
971.942	131.68
972.108	133.23
972.275	100.49
972.441	120.06
972.607	182.64
972.773	79.95
972.939	140.4
973.105	104.17
973.271	68.13
973.437	105.72
973.602	70.27
973.768	124.71
973.934	83.63
974.1	108.43
974.266	34.62
974.432	102.43
974.598	75.5
974.763	136.14
974.929	110.76
975.095	130.33
975.261	66.78
975.426	72.2
975.592	74.72
975.758	139.63
975.923	39.85
976.089	74.14
976.255	116.57
976.42	87.7
976.586	92.93
976.751	104.95
976.917	167.72
977.082	111.15
977.248	56.12
977.413	25.32
977.579	89.25
977.744	107.66
977.91	62.32
978.075	58.83
978.24	107.08
978.406	103.98
978.571	65.03
978.736	64.65
978.902	78.4
979.067	79.37
979.232	55.73
979.397	100.1
979.563	143.31
979.728	55.73
979.893	104.17
980.058	62.32
980.223	128.2
980.388	111.34
980.554	82.86
980.719	85.38
980.884	97
981.049	121.61
981.214	100.3
981.379	104.37
981.544	83.25
981.709	77.05
981.874	82.86
982.039	91.77
982.204	116.38
982.368	91.38
982.533	51.67
982.698	115.22
982.863	107.08
983.028	114.83
983.193	116.76
983.357	104.75
983.522	97.97
983.687	73.75
983.852	97
984.016	91
984.181	102.82
984.346	97.58
984.51	107.47
984.675	93.52
984.839	118.12
985.004	110.18
985.168	131.1
985.333	102.43
985.498	92.93
985.662	118.31
985.827	103.4
985.991	112.12
986.155	77.05
986.32	129.94
986.484	152.61
986.649	105.92
986.813	63.29
986.977	77.63
987.142	103.01
987.306	37.72
987.47	78.02
987.634	108.24
987.799	89.25
987.963	103.78
988.127	127.03
988.291	147.76
988.455	103.59
988.62	65.23
988.784	111.34
988.948	115.02
989.112	56.9
989.276	88.09
989.44	99.52
989.604	54.18
989.768	85.18
989.932	156.87
990.096	54.18
990.26	66.2
990.424	38.88
990.588	69.3
990.752	137.5
990.915	134.98
991.079	48.57
991.243	68.13
991.407	124.51
991.571	79.76
991.734	94.1
991.898	113.28
992.062	141.37
992.226	72.78
992.389	76.85
992.553	37.52
992.717	39.85
992.88	38.49
993.044	99.72
993.207	79.18
993.371	93.71
993.535	115.99
993.698	74.53
993.862	115.99
994.025	117.35
994.189	83.44
994.352	83.83
994.515	97.39
994.679	100.3
994.842	58.64
995.006	110.57
995.169	78.21
995.332	63.29
995.496	112.89
995.659	51.28
995.822	76.85
995.985	78.79
996.149	123.35
996.312	89.25
996.475	136.14
996.638	68.91
996.801	115.8
996.964	134.01
997.128	73.37
997.291	63.68
997.454	96.03
997.617	45.66
997.78	112.89
997.943	48.57
998.106	116.57
998.269	51.08
998.432	59.42
998.595	64.07
998.758	4.39
998.92	37.33
999.083	58.25
999.246	77.05
999.409	34.23
999.572	15.24
999.735	67.55
999.897	86.93
1000.06	78.02
1000.223	54.18
1000.386	77.43
1000.548	99.91
1000.711	87.9
1000.874	88.67
1001.036	42.75
1001.199	91.38
1001.361	55.54
1001.524	56.9
1001.687	95.84
1001.849	34.03
1002.012	67.55
1002.174	72.78
1002.337	93.71
1002.499	36.17
1002.661	96.62
1002.824	30.55
1002.986	37.33
1003.149	60.19
1003.311	42.17
1003.473	112.89
1003.636	19.89
1003.798	97.2
1003.96	66.58
1004.123	82.08
1004.285	51.28
1004.447	45.47
1004.609	49.15
1004.771	99.72
1004.933	35.2
1005.096	28.61
1005.258	25.9
1005.42	35.58
1005.582	91.38
1005.744	71.23
1005.906	34.62
1006.068	67.94
1006.23	9.62
1006.392	9.82
1006.554	23.77
1006.716	86.15
1006.878	70.65
1007.04	4
1007.202	33.07
1007.363	57.48
1007.525	66.2
1007.687	50.7
1007.849	101.85
1008.011	3.42
1008.172	23.77
1008.334	45.08
1008.496	73.95
1008.658	7.1
1008.819	12.72
1008.981	1.68
1009.143	38.49
1009.304	35
1009.466	50.31
1009.627	97.2
1009.789	127.23
1009.95	59.42
1010.112	34.23
1010.273	42.56
1010.435	33.07
1010.596	36.55
1010.758	19.89
1010.919	40.04
1011.081	37.13
1011.242	51.08
1011.403	61.16
1011.565	62.52
1011.726	83.25
1011.887	6.14
1012.049	25.7
1012.21	57.48
1012.371	87.12
1012.532	-10.53
1012.693	23.77
1012.855	41.01
1013.016	41.4
1013.177	75.11
1013.338	48.95
1013.499	114.63
1013.66	61.93
1013.821	60
1013.982	52.05
1014.143	67.17
1014.304	24.74
1014.465	42.37
1014.626	59.22
1014.787	38.68
1014.948	106.5
1015.109	-38.43
1015.27	53.22
1015.431	7.1
1015.592	4.78
1015.752	79.76
1015.913	48.95
1016.074	31.71
1016.235	41.2
1016.395	50.12
1016.556	31.13
1016.717	46.05
1016.877	87.9
1017.038	25.32
1017.199	51.28
1017.359	49.92
1017.52	72.01
1017.681	31.32
1017.841	40.04
1018.002	27.64
1018.162	34.42
1018.323	88.48
1018.483	30.55
1018.644	24.93
1018.804	-15.56
1018.964	20.86
1019.125	16.99
1019.285	45.27
1019.446	0.52
1019.606	5.75
1019.766	-7.81
1019.926	41.2
1020.087	38.3
1020.247	-5.49
1020.407	29.38
1020.567	56.7
1020.728	31.71
1020.888	23.77
1021.048	17.76
1021.208	36.75
1021.368	0.71
1021.528	56.12
1021.688	58.64
1021.848	39.27
1022.008	60.77
1022.168	27.06
1022.328	44.11
1022.488	55.54
1022.648	13.89
1022.808	35
1022.968	36.36
1023.128	2.45
1023.288	16.79
1023.448	14.85
1023.608	48.95
1023.767	57.87
1023.927	29
1024.087	3.42
1024.247	-8.4
1024.406	25.12
1024.566	-0.45
1024.726	8.27
1024.885	64.26
1025.045	61.35
1025.205	44.88
1025.364	13.89
1025.524	46.63
1025.683	13.11
1025.843	29.77
1026.003	11.95
1026.162	48.57
1026.321	61.93
1026.481	18.15
1026.64	16.6
1026.8	40.82
1026.959	46.82
1027.119	25.32
1027.278	3.62
1027.437	33.65
1027.597	34.81
1027.756	30.35
1027.915	23.38
1028.074	55.54
1028.234	40.43
1028.393	35
1028.552	30.16
1028.711	-39.2
1028.87	51.28
1029.03	7.1
1029.189	34.62
1029.348	-29.71
1029.507	1.49
1029.666	-8.59
1029.825	-11.88
1029.984	10.2
1030.143	15.44
1030.302	27.45
1030.461	-13.82
1030.62	9.62
1030.779	35.78
1030.938	0.52
1031.097	14.27
1031.255	47.4
1031.414	44.5
1031.573	59.22
1031.732	-44.05
1031.891	5.17
1032.049	63.1
1032.208	21.25
1032.367	-6.07
1032.525	4.2
1032.684	11.95
1032.843	32.68
1033.001	-26.41
1033.16	137.5
1033.319	34.23
1033.477	50.7
1033.636	20.67
1033.794	-25.64
1033.953	33.45
1034.111	29.58
1034.27	7.3
1034.428	17.95
1034.587	-32.42
1034.745	5.94
1034.903	28.61
1035.062	49.73
1035.22	-49.08
1035.378	42.17
1035.537	-30.87
1035.695	34.42
1035.853	15.63
1036.011	36.55
1036.17	25.7
1036.328	-24.67
1036.486	40.43
1036.644	38.88
1036.802	-49.47
1036.96	-5.3
1037.119	-1.61
1037.277	-14.4
1037.435	-19.83
1037.593	-7.23
1037.751	9.82
1037.909	62.9
1038.067	62.9
