Data from gum_young_FLMT105791__77__17-39-35-043.txt Node

Date: Mon Mar 20 17:39:35 GMT 2023
User: antho
Spectrometer: FLMT10579
Trigger mode: 0
Integration Time (sec): 1.000000E-1
Scans to average: 10
Electric dark correction enabled: true
Nonlinearity correction enabled: false
Boxcar width: 0
XAxis mode: Wavelengths
Number of Pixels in Spectrum: 3648
>>>>>Begin Spectral Data<<<<<
345.248	-140.61
345.464	-140.61
345.681	-140.61
345.898	-148.94
346.114	-153.98
346.331	-31.34
346.548	17.87
346.764	1.6
346.981	-13.51
347.197	-4.02
347.414	18.84
347.631	-21.46
347.847	60.3
348.064	-0.34
348.28	5.86
348.497	-27.66
348.713	-6.15
348.93	27.75
349.146	10.32
349.363	-12.35
349.579	18.07
349.796	-10.41
350.012	-28.63
350.229	21.36
350.445	24.07
350.661	-10.61
350.878	9.74
351.094	37.05
351.311	35.31
351.527	15.94
351.743	11.48
351.96	19.81
352.176	48.87
352.392	36.86
352.609	33.95
352.825	-6.93
353.041	1.99
353.257	0.24
353.474	7.22
353.69	20.97
353.906	14.19
354.122	11.09
354.339	38.22
354.555	16.32
354.771	-15.26
354.987	63.21
355.203	44.8
355.42	-12.74
355.636	-21.07
355.852	4.31
356.068	5.47
356.284	-16.81
356.5	71.54
356.716	28.53
356.932	4.5
357.148	43.84
357.364	0.44
357.58	59.14
357.796	51
358.012	51.78
358.228	42.29
358.444	-34.63
358.66	62.63
358.876	36.67
359.092	-15.84
359.308	11.67
359.524	30.85
359.74	28.72
359.956	1.6
360.172	14.77
360.388	42.67
360.604	-16.23
360.819	90.92
361.035	24.65
361.251	12.45
361.467	-3.05
361.683	47.52
361.898	26.01
362.114	11.29
362.33	-3.63
362.546	12.06
362.762	-7.31
362.977	26.01
363.193	6.05
363.409	47.52
363.624	2.37
363.84	-9.64
364.056	-3.44
364.271	9.54
364.487	42.48
364.703	2.57
364.918	-34.44
365.134	10.32
365.35	14.58
365.565	119.01
365.781	17.49
365.996	58.37
366.212	73.67
366.427	33.18
366.643	1.4
366.858	16.9
367.074	-15.26
367.289	52.17
367.505	113.39
367.72	-11.19
367.936	-1.5
368.151	41.12
368.367	24.65
368.582	33.37
368.798	14.77
369.013	61.27
369.228	15.16
369.444	26.79
369.659	88.01
369.874	28.53
370.09	57.59
370.305	-56.33
370.52	21.36
370.736	76.97
370.951	-15.26
371.166	82.2
371.381	85.1
371.597	63.21
371.812	-11.38
372.027	-3.63
372.242	33.18
372.458	72.9
372.673	24.85
372.888	20.97
373.103	45
373.318	90.53
373.533	41.7
373.749	46.55
373.964	-36.96
374.179	69.99
374.394	-9.83
374.609	80.26
374.824	-5.38
375.039	61.27
375.254	4.7
375.469	60.69
375.684	30.85
375.899	56.82
376.114	19.23
376.329	39.19
376.544	50.42
376.759	59.14
376.974	24.85
377.189	4.31
377.404	9.74
377.619	37.25
377.834	-19.52
378.049	-14.68
378.264	13.22
378.478	45.97
378.693	-11.38
378.908	41.7
379.123	17.87
379.338	61.66
379.553	40.35
379.767	42.67
379.982	54.49
380.197	49.26
380.412	27.56
380.626	53.14
380.841	78.13
381.056	57.01
381.271	80.65
381.485	37.83
381.7	19.62
381.915	30.85
382.129	19.81
382.344	35.89
382.559	17.49
382.773	69.6
382.988	-4.41
383.202	26.98
383.417	9.35
383.632	106.61
383.846	18.65
384.061	17.87
384.275	4.31
384.49	18.84
384.704	43.45
384.919	51
385.133	28.14
385.348	60.5
385.562	10.9
385.777	53.72
385.991	42.09
386.206	23.88
386.42	38.02
386.634	65.15
386.849	58.56
387.063	23.49
387.277	-8.48
387.492	3.54
387.706	-3.63
387.92	14
388.135	84.91
388.349	51.97
388.563	36.47
388.778	47.13
388.992	56.04
389.206	60.11
389.42	83.94
389.635	26.01
389.849	47.52
390.063	66.89
390.277	22.91
390.491	75.8
390.706	46.55
390.92	69.02
391.134	38.02
391.348	69.41
391.562	12.84
391.776	32.21
391.99	30.08
392.205	56.82
392.419	45.58
392.633	27.75
392.847	56.82
393.061	22.14
393.275	81.62
393.489	30.27
393.703	63.6
393.917	86.27
394.131	3.73
394.345	28.72
394.559	102.35
394.773	44.42
394.986	35.5
395.2	58.37
395.414	81.42
395.628	25.04
395.842	51.2
396.056	32.79
396.27	-2.47
396.484	52.55
396.697	55.07
396.911	85.3
397.125	76
397.339	63.79
397.553	75.42
397.766	116.3
397.98	78.9
398.194	88.4
398.408	39.38
398.621	57.2
398.835	60.89
399.049	71.54
399.262	89.56
399.476	78.52
399.69	73.67
399.903	146.13
400.117	65.92
400.331	102.93
400.544	36.09
400.758	155.43
400.971	75.42
401.185	92.66
401.398	74.45
401.612	122.88
401.826	86.46
402.039	107
402.253	52.75
402.466	89.75
402.68	75.03
402.893	92.27
403.106	78.71
403.32	82
403.533	98.67
403.747	84.72
403.96	48.87
404.174	110.87
404.387	49.65
404.6	86.65
404.814	109.71
405.027	89.56
405.24	77.74
405.454	59.14
405.667	123.08
405.88	25.04
406.094	52.17
406.307	105.83
406.52	77.74
406.733	38.22
406.947	59.92
407.16	132.18
407.373	111.26
407.586	65.34
407.799	43.84
408.012	111.07
408.226	101.57
408.439	137.61
408.652	48.49
408.865	98.47
409.078	131.8
409.291	102.35
409.504	54.49
409.717	78.52
409.93	100.6
410.143	106.22
410.357	51.97
410.57	56.43
410.783	81.62
410.996	93.43
411.209	90.53
411.421	117.65
411.634	108.93
411.847	71.35
412.06	112.81
412.273	111.84
412.486	116.88
412.699	156.21
412.912	96.92
413.125	122.69
413.338	102.73
413.55	138.58
413.763	100.6
413.976	130.05
414.189	65.15
414.402	100.8
414.615	155.05
414.827	64.37
415.04	127.53
415.253	111.45
415.466	144.58
415.678	180.43
415.891	80.45
416.104	102.15
416.316	97.5
416.529	96.15
416.742	151.17
416.954	148.85
417.167	128.31
417.38	93.63
417.592	148.07
417.805	105.64
418.017	78.9
418.23	137.61
418.442	86.65
418.655	110.48
418.868	111.65
419.08	144.58
419.293	143.81
419.505	152.53
419.718	119.2
419.93	148.46
420.142	97.89
420.355	150.01
420.567	157.95
420.78	145.75
420.992	127.34
421.205	181.01
421.417	106.22
421.629	126.37
421.842	90.92
422.054	86.85
422.266	153.3
422.479	177.13
422.691	114.94
422.903	147.49
423.115	113.78
423.328	114.75
423.54	135.09
423.752	155.43
423.964	111.07
424.177	144.2
424.389	131.41
424.601	204.84
424.813	128.12
425.025	148.85
425.238	146.91
425.45	121.33
425.662	119.01
425.874	409.63
426.086	158.34
426.298	160.86
426.51	156.6
426.722	126.95
426.934	103.51
427.146	161.63
427.358	80.26
427.57	148.65
427.782	116.68
427.994	137.61
428.206	118.04
428.418	109.71
428.63	187.98
428.842	174.42
429.054	137.03
429.266	161.83
429.478	118.62
429.69	123.08
429.902	131.8
430.114	181.78
430.325	141.29
430.537	78.13
430.749	128.7
430.961	71.54
431.173	129.28
431.384	130.05
431.596	52.94
431.808	134.7
432.02	160.47
432.231	181.01
432.443	212.59
432.655	145.55
432.867	146.72
433.078	177.71
433.29	199.8
433.502	189.53
433.713	204.26
433.925	173.26
434.136	205.61
434.348	105.64
434.56	103.9
434.771	239.71
434.983	129.28
435.194	103.12
435.406	142.07
435.617	192.83
435.829	236.61
436.04	193.41
436.252	183.53
436.463	208.71
436.675	186.82
436.886	206.58
437.098	203.29
437.309	227.51
437.521	194.18
437.732	206
437.943	200.19
438.155	189.53
438.366	135.28
438.578	206.2
438.789	163.18
439	192.63
439.211	169.19
439.423	190.5
439.634	203.29
439.845	214.91
440.057	194.76
440.268	226.93
440.479	158.92
440.69	201.16
440.902	163.76
441.113	211.43
441.324	184.69
441.535	226.73
441.746	253.66
441.957	204.84
442.168	202.13
442.38	234.29
442.591	263.54
442.802	203.68
443.013	198.83
443.224	212.78
443.435	196.31
443.646	219.95
443.857	221.31
444.068	192.63
444.279	197.67
444.49	274.98
444.701	231.19
444.912	305.2
445.123	245.33
445.334	210.85
445.545	240.88
445.756	193.41
445.967	193.02
446.178	228.67
446.388	268.39
446.599	258.7
446.81	232.93
447.021	209.1
447.232	259.67
447.443	272.26
447.653	218.6
447.864	304.43
448.075	245.53
448.286	287.18
448.496	264.51
448.707	261.99
448.918	245.33
449.129	303.46
449.339	239.13
449.55	282.92
449.761	250.37
449.971	289.51
450.182	237
450.393	280.01
450.603	266.06
450.814	278.27
451.024	266.26
451.235	293.77
451.446	323.41
451.656	326.13
451.867	255.41
452.077	291.44
452.288	333.29
452.498	315.47
452.709	264.9
452.919	297.45
453.13	250.18
453.34	291.83
453.55	231.19
453.761	314.31
453.971	275.75
454.182	298.23
454.392	300.16
454.602	340.07
454.813	298.03
455.023	320.12
455.233	249.21
455.444	272.07
455.654	219.37
455.864	263.54
456.075	258.12
456.285	248.04
456.495	269.55
456.705	305.78
456.916	333.68
457.126	330.39
457.336	314.31
457.546	261.61
457.756	277.49
457.967	321.28
458.177	278.46
458.387	290.28
458.597	277.88
458.807	290.86
459.017	292.61
459.227	288.54
459.437	277.49
459.647	333.68
459.857	321.28
460.068	289.7
460.278	348.99
460.488	313.34
460.698	374.95
460.908	314.89
461.117	277.49
461.327	288.93
461.537	342.01
461.747	331.94
461.957	316.44
462.167	416.8
462.377	362.36
462.587	354.02
462.797	360.03
463.007	322.64
463.216	349.37
463.426	367.97
463.636	352.86
463.846	303.46
464.056	299.58
464.265	362.94
464.475	312.76
464.685	326.71
464.895	338.72
465.104	330.58
465.314	385.8
465.524	327.68
465.733	304.23
465.943	421.06
466.153	413.31
466.362	390.26
466.572	361.77
466.782	329.22
466.991	356.93
467.201	384.64
467.41	296.09
467.62	350.73
467.829	372.62
468.039	349.96
468.249	342.01
468.458	356.93
468.668	368.94
468.877	386.96
469.086	399.75
469.296	390.45
469.505	342.21
469.715	423
469.924	389.48
470.134	415.44
470.343	411.37
470.552	349.76
470.762	374.56
470.971	363.32
471.18	381.92
471.39	389.29
471.599	358.67
471.808	376.89
472.018	373.21
472.227	405.56
472.436	434.24
472.645	399.36
472.855	377.08
473.064	423.97
473.273	398.59
473.482	413.31
473.691	446.44
473.901	453.8
474.11	402.27
474.319	454.77
474.528	449.54
474.737	518.32
474.946	457.87
475.155	448.77
475.364	484.42
475.573	435.4
475.783	453.22
475.992	471.82
476.201	460.2
476.41	438.89
476.619	410.02
476.828	485.39
477.037	439.66
477.245	460.39
477.454	480.93
477.663	443.73
477.872	454
478.081	536.34
478.29	478.8
478.499	529.75
478.708	498.75
478.917	519.68
479.125	494.69
479.334	516.97
479.543	495.07
479.752	517.55
479.961	492.17
480.169	560.56
480.378	513.48
480.587	624.69
480.796	536.15
481.004	518.32
481.213	537.12
481.422	553.58
481.63	526.85
481.839	572.18
482.048	591.36
482.256	561.14
482.465	553.39
482.674	612.1
482.882	598.73
483.091	603.76
483.299	578
483.508	616.55
483.716	592.53
483.925	610.16
484.134	562.3
484.342	568.31
484.551	626.05
484.759	622.17
484.967	609.19
485.176	643.87
485.384	640
485.593	643.29
485.801	582.26
486.01	549.71
486.218	575.28
486.426	513.09
486.635	533.24
486.843	526.65
487.051	568.12
487.26	555.33
487.468	605.12
487.676	614.03
487.885	574.9
488.093	643.87
488.301	644.26
488.509	631.47
488.717	683.01
488.926	653.36
489.134	604.35
489.342	613.06
489.55	585.55
489.758	645.81
489.967	625.27
490.175	752.76
490.383	674.87
490.591	712.46
490.799	641.74
491.007	702.58
491.215	699.48
491.423	695.21
491.631	677.97
491.839	683.78
492.047	713.81
492.255	649.1
492.463	630.5
492.671	651.62
492.879	730.67
493.087	691.53
493.295	713.62
493.503	726.6
493.711	734.16
493.919	763.03
494.127	735.71
494.334	754.69
494.542	720.4
494.75	754.11
494.958	754.31
495.166	812.82
495.374	741.33
495.581	787.44
495.789	784.34
495.997	806.62
496.205	751.01
496.412	753.34
496.62	764.38
496.828	828.51
497.035	771.16
497.243	792.47
497.451	811.46
497.658	802.55
497.866	794.99
498.074	866.87
498.281	800.03
498.489	882.76
498.696	825.41
498.904	788.02
499.112	796.16
499.319	888.96
499.527	812.04
499.734	888.96
499.942	808.94
500.149	826.57
500.357	860.29
500.564	825.8
500.771	818.63
500.979	812.82
501.186	788.02
501.394	849.63
501.601	828.32
501.808	845.95
502.016	839.94
502.223	837.62
502.43	852.92
502.638	866.29
502.845	813.79
503.052	946.7
503.26	866.29
503.467	931.78
503.674	894.39
503.881	894.19
504.089	968.59
504.296	904.85
504.503	841.3
504.71	902.14
504.917	882.18
505.125	909.89
505.332	945.53
505.539	947.47
505.746	1027.68
505.953	988.35
506.16	998.04
506.367	1038.53
506.574	1072.83
506.781	1041.44
506.988	973.24
507.195	1015.09
507.402	980.8
507.609	1038.73
507.816	1043.38
508.023	1020.32
508.23	1005.79
508.437	960.84
508.644	1060.04
508.851	1086.39
509.058	1068.76
509.265	1098.6
509.472	1110.61
509.679	1173.96
509.885	1091.04
510.092	1121.84
510.299	1083.29
510.506	1103.25
510.713	1084.26
510.92	1109.64
511.126	1178.61
511.333	1169.7
511.54	1179.19
511.746	1225.89
511.953	1211.36
512.16	1253.4
512.367	1207.29
512.573	1203.8
512.78	1235.19
512.987	1197.6
513.193	1254.37
513.4	1164.28
513.606	1240.03
513.813	1272.19
514.02	1254.37
514.226	1299.7
514.433	1296.22
514.639	1222.4
514.846	1246.81
515.052	1276.84
515.259	1284.01
515.465	1285.56
515.672	1308.23
515.878	1379.92
516.085	1345.04
516.291	1388.63
516.497	1302.03
516.704	1330.7
516.91	1305.71
517.117	1235.38
517.323	1196.83
517.529	1258.44
517.736	1230.73
517.942	1277.04
518.148	1299.32
518.354	1313.85
518.561	1348.53
518.767	1341.75
518.973	1384.76
519.179	1398.13
519.386	1372.55
519.592	1396
519.798	1381.27
520.004	1526.58
520.21	1486.28
520.417	1532.59
520.623	1579.86
520.829	1586.45
521.035	1596.72
521.241	1577.73
521.447	1628.88
521.653	1725.76
521.859	1613.19
522.065	1639.73
522.271	1754.04
522.477	1720.33
522.683	1728.27
522.889	1734.47
523.095	1723.24
523.301	1687.59
523.507	1677.71
523.713	1721.49
523.919	1703.47
524.125	1790.08
524.331	1792.99
524.537	1844.91
524.742	1835.03
524.948	1870.48
525.154	1887.15
525.36	1977.82
525.566	1872.42
525.772	1971.62
525.977	1846.85
526.183	1950.5
526.389	1941.78
526.595	1890.44
526.8	1831.54
527.006	1806.94
527.212	1791.82
527.417	1744.16
527.623	1755.4
527.829	1872.23
528.034	1885.98
528.24	1899.16
528.446	1894.7
528.651	1978.01
528.857	2019.67
529.062	2071.4
529.268	2059.39
529.473	2087.67
529.679	2056.29
529.884	2162.66
530.09	2120.22
530.295	2117.12
530.501	2115.57
530.706	2095.62
530.912	2116.74
531.117	2143.28
531.323	2159.75
531.528	2187.26
531.733	2188.23
531.939	2191.72
532.144	2217.1
532.35	2175.44
532.555	2159.75
532.76	2135.34
532.966	2164.4
533.171	2124.68
533.376	2107.82
533.581	2099.3
533.787	2121.77
533.992	2211.09
534.197	2208.57
534.402	2214.19
534.607	2184.16
534.813	2304.28
535.018	2222.72
535.223	2274.64
535.428	2265.92
535.633	2320.37
535.838	2330.05
536.043	2300.41
536.249	2396.12
536.454	2327.73
536.659	2335.67
536.864	2294.6
537.069	2308.35
537.274	2353.88
537.479	2296.73
537.684	2341.29
537.889	2279.1
538.094	2440.29
538.299	2336.25
538.504	2377.71
538.708	2367.06
538.913	2387.4
539.118	2403.29
539.323	2393.8
539.528	2339.93
539.733	2355.24
539.938	2378.68
540.142	2346.13
540.347	2366.28
540.552	2311.65
540.757	2330.05
540.962	2322.88
541.166	2255.07
541.371	2301.96
541.576	2317.85
541.781	2272.51
541.985	2430.8
542.19	2348.85
542.395	2477.49
542.599	2462.58
542.804	2443.39
543.008	2424.21
543.213	2406.2
543.418	2355.05
543.622	2443.78
543.827	2382.95
544.031	2443.98
544.236	2484.86
544.44	2460.44
544.645	2527.87
544.849	2447.08
545.054	2511.21
545.258	2567.59
545.463	2579.79
545.667	2424.79
545.872	2554.8
546.076	2484.47
546.281	2519.34
546.485	2465.29
546.689	2542.59
546.894	2549.18
547.098	2517.79
547.302	2480.59
547.507	2499.39
547.711	2547.44
547.915	2524.77
548.119	2487.76
548.324	2492.61
548.528	2519.15
548.732	2499.19
548.936	2541.43
549.141	2569.14
549.345	2526.12
549.549	2535.62
549.753	2612.15
549.957	2645.09
550.161	2649.15
550.366	2566.62
550.57	2522.44
550.774	2543.37
550.978	2571.27
551.182	2586.77
551.386	2561.58
551.59	2570.69
551.794	2566.23
551.998	2624.94
552.202	2574.56
552.406	2594.13
552.61	2601.88
552.814	2575.72
553.018	2641.99
553.222	2598.2
553.426	2587.16
553.63	2666.98
553.833	2574.56
554.037	2568.94
554.241	2579.02
554.445	2580.96
554.649	2553.44
554.853	2570.3
555.056	2636.95
555.26	2629.78
555.464	2647.99
555.668	2601.88
555.871	2628.62
556.075	2671.05
556.279	2580.57
556.483	2535.81
556.686	2527.48
556.89	2528.26
557.094	2569.52
557.297	2482.53
557.501	2545.5
557.704	2461.8
557.908	2579.6
558.112	2493.58
558.315	2567.78
558.519	2499.97
558.722	2454.24
558.926	2469.94
559.129	2398.45
559.333	2361.05
559.536	2388.56
559.74	2386.43
559.943	2336.25
560.147	2367.25
560.35	2399.61
560.553	2403.68
560.757	2390.31
560.96	2468
561.164	2422.66
561.367	2491.44
561.57	2423.25
561.774	2438.74
561.977	2394.76
562.18	2375.2
562.384	2469.94
562.587	2406.2
562.79	2361.83
562.993	2369.19
563.197	2374.61
563.4	2417.24
563.603	2389.15
563.806	2461.41
564.009	2373.65
564.212	2383.33
564.416	2302.35
564.619	2347.3
564.822	2300.41
565.025	2421.31
565.228	2298.67
565.431	2313.78
565.634	2231.82
565.837	2260.5
566.04	2242.87
566.243	2228.92
566.446	2152.97
566.649	2224.46
566.852	2164.98
567.055	2238.99
567.258	2252.55
567.461	2319.4
567.664	2261.08
567.867	2179.51
568.07	2200.24
568.273	2205.47
568.475	2221.55
568.678	2162.46
568.881	2159.17
569.084	2115.19
569.287	2040.79
569.489	2060.94
569.692	2137.86
569.895	2121.19
570.098	2071.79
570.3	2039.43
570.503	1986.54
570.706	2062.68
570.909	2016.18
571.111	1929.38
571.314	1983.83
571.516	1978.79
571.719	1993.71
571.922	1971.62
572.124	1979.95
572.327	1990.22
572.529	1933.26
572.732	1914.27
572.935	1978.6
573.137	2023.93
573.34	1975.88
573.542	1998.74
573.745	1964.84
573.947	1985.18
574.15	1919.7
574.352	1892.96
574.554	1950.5
574.757	1907.49
574.959	1854.6
575.162	1880.17
575.364	1867.58
575.566	1942.95
575.769	1850.72
575.971	1862.35
576.173	1756.75
576.376	1839.48
576.578	1864.48
576.78	1923.76
576.982	1789.3
577.185	1816.62
577.387	1811
577.589	1828.44
577.791	1846.27
577.993	1829.22
578.196	1800.35
578.398	1795.89
578.6	1829.6
578.802	1757.34
579.004	1682.16
579.206	1770.9
579.408	1763.73
579.61	1725.95
579.812	1814.49
580.014	1751.33
580.216	1736.6
580.418	1767.41
580.62	1778.26
580.822	1700.18
581.024	1756.95
581.226	1789.69
581.428	1770.12
581.63	1852.66
581.832	1742.03
582.034	1797.83
582.236	1765.86
582.438	1810.23
582.64	1833.67
582.841	1860.99
583.043	1862.54
583.245	1818.75
583.447	1810.04
583.649	1808.87
583.85	1808.49
584.052	1847.04
584.254	1731.76
584.456	1814.49
584.657	1751.14
584.859	1755.01
585.061	1773.61
585.262	1740.09
585.464	1732.73
585.666	1788.72
585.867	1722.07
586.069	1778.84
586.27	1727.3
586.472	1705.41
586.674	1709.87
586.875	1703.67
587.077	1701.54
587.278	1718.59
587.48	1706.77
587.681	1762.37
587.883	1703.09
588.084	1654.65
588.285	1670.54
588.487	1644.57
588.688	1659.11
588.89	1567.08
589.091	1529.1
589.292	1516.9
589.494	1476.79
589.695	1481.83
589.896	1374.88
590.098	1386.7
590.299	1441.92
590.5	1400.26
590.702	1458.97
590.903	1514.96
591.104	1570.76
591.305	1548.67
591.507	1563.78
591.708	1557.78
591.909	1536.66
592.11	1574.24
592.311	1580.06
592.512	1527.94
592.714	1500.23
592.915	1515.35
593.116	1500.43
593.317	1552.16
593.518	1547.12
593.719	1531.23
593.92	1575.41
594.121	1596.33
594.322	1489.58
594.523	1543.05
594.724	1459.55
594.925	1495.78
595.126	1523.68
595.327	1517.86
595.528	1508.76
595.729	1496.16
595.929	1503.72
596.13	1532.59
596.331	1562.23
596.532	1537.43
596.733	1540.73
596.934	1565.53
597.135	1533.95
597.335	1534.33
597.536	1500.62
597.737	1561.07
597.938	1458.38
598.138	1520.58
598.339	1499.46
598.54	1545.57
598.74	1475.63
598.941	1500.81
599.142	1564.17
599.342	1529.68
599.543	1488.22
599.744	1522.9
599.944	1515.54
600.145	1513.8
600.345	1555.45
600.546	1591.88
600.746	1569.79
600.947	1587.03
601.147	1498.3
601.348	1561.26
601.548	1489
601.749	1522.13
601.949	1446.95
602.15	1468.85
602.35	1505.66
602.551	1511.28
602.751	1432.81
602.951	1460.32
603.152	1434.75
603.352	1508.18
603.552	1467.68
603.753	1510.5
603.953	1529.1
604.153	1534.91
604.354	1518.64
604.554	1501.4
604.754	1512.25
604.954	1461.48
605.155	1512.05
605.355	1515.15
605.555	1541.5
605.755	1533.56
605.955	1510.7
606.155	1541.11
606.356	1526.97
606.556	1526.58
606.756	1521.74
606.956	1412.27
607.156	1535.5
607.356	1461.1
607.556	1490.35
607.756	1448.89
607.956	1503.72
608.156	1489.96
608.356	1452.18
608.556	1479.11
608.756	1478.53
608.956	1437.27
609.156	1461.29
609.356	1434.55
609.556	1421.38
609.755	1470.59
609.955	1398.9
610.155	1407.43
610.355	1441.92
610.555	1414.98
610.755	1427.38
610.954	1373.14
611.154	1396.77
611.354	1458.38
611.554	1385.53
611.753	1393.48
611.953	1326.83
612.153	1397.35
612.352	1420.8
612.552	1350.27
612.752	1318.69
612.951	1375.65
613.151	1354.73
613.351	1304.74
613.55	1349.89
613.75	1368.68
613.949	1329.35
614.149	1329.35
614.348	1341.36
614.548	1299.12
614.747	1297.96
614.947	1315.59
615.146	1256.31
615.346	1333.8
615.545	1316.95
615.745	1330.12
615.944	1323.92
616.144	1310.55
616.343	1292.34
616.542	1273.36
616.742	1236.93
616.941	1262.51
617.14	1220.46
617.34	1259.41
617.539	1236.16
617.738	1236.74
617.938	1311.72
618.137	1258.44
618.336	1219.88
618.535	1272.77
618.734	1260.57
618.934	1278.59
619.133	1246.42
619.332	1271.03
619.531	1234.99
619.73	1283.43
619.929	1278.39
620.128	1294.28
620.328	1334.19
620.527	1236.93
620.726	1235.38
620.925	1263.28
621.124	1211.55
621.323	1252.62
621.522	1181.52
621.721	1178.61
621.92	1180.16
622.119	1241.77
622.318	1208.06
622.517	1186.56
622.715	1198.96
622.914	1153.62
623.113	1202.83
623.312	1147.81
623.511	1173.96
623.71	1168.93
623.909	1191.98
624.107	1248.17
624.306	1151.1
624.505	1166.21
624.704	1152.65
624.902	1152.65
625.101	1226.66
625.3	1144.13
625.499	1172.61
625.697	1136.57
625.896	1134.83
626.095	1139.09
626.293	1091.43
626.492	1120.29
626.69	1138.31
626.889	1135.41
627.088	1153.23
627.286	1128.82
627.485	1105.38
627.683	1103.83
627.882	1104.8
628.08	1036.21
628.279	1068.56
628.477	1112.93
628.676	1017.42
628.874	1071.08
629.073	1062.95
629.271	1051.51
629.469	1085.23
629.668	1062.36
629.866	1060.23
630.065	1054.03
630.263	1072.83
630.461	1021.48
630.66	1033.5
630.858	1080.38
631.056	1134.44
631.254	1119.91
631.453	1046.86
631.651	1087.75
631.849	1108.28
632.047	1079.22
632.245	1089.49
632.444	1109.83
632.642	1079.41
632.84	1117.78
633.038	1089.3
633.236	1052.1
633.434	1044.93
633.632	1067.01
633.83	1057.91
634.028	1129.21
634.227	1070.7
634.425	1186.94
634.623	1078.64
634.821	1104.99
635.019	1070.5
635.216	1083.48
635.414	1060.62
635.612	1092.98
635.81	1078.83
636.008	1151.29
636.206	1062.75
636.404	1110.22
636.602	1058.68
636.8	1047.25
636.997	1095.11
637.195	1067.79
637.393	1077.09
637.591	1150.52
637.789	1079.41
637.986	1072.63
638.184	1079.8
638.382	1114.87
638.58	1117.19
638.777	1123.59
638.975	1090.46
639.173	1090.07
639.37	1084.65
639.568	1067.21
639.765	1087.75
639.963	1024.39
640.161	1065.85
640.358	1075.93
640.556	1016.64
640.753	1006.18
640.951	1005.02
641.148	1035.24
641.346	1006.95
641.543	1029.62
641.741	1023.62
641.938	984.87
642.136	998.43
642.333	971.5
642.531	1040.86
642.728	1062.17
642.925	1001.53
643.123	988.35
643.32	998.04
643.517	968.98
643.715	1000.95
643.912	966.27
644.109	982.93
644.306	961.81
644.504	946.31
644.701	964.13
644.898	991.07
645.095	929.84
645.293	953.87
645.49	975.95
645.687	974.02
645.884	965.68
646.081	891.87
646.278	907.75
646.475	880.44
646.672	876.17
646.87	918.8
647.067	897.87
647.264	892.06
647.461	824.64
647.658	839.36
647.855	860.48
648.052	818.44
648.249	771.74
648.446	847.69
648.642	803.91
648.839	804.1
649.036	781.24
649.233	809.52
649.43	801.39
649.627	772.71
649.824	784.14
650.021	795.77
650.217	792.09
650.414	825.22
650.611	841.11
650.808	846.14
651.004	838.2
651.201	833.94
651.398	861.64
651.595	819.02
651.791	801.19
651.988	826.77
652.185	802.16
652.381	821.34
652.578	732.8
652.775	803.13
652.971	808.36
653.168	794.8
653.364	837.81
653.561	737.06
653.757	767.48
653.954	799.26
654.15	783.17
654.347	854.09
654.543	818.24
654.74	733.38
654.936	753.92
655.133	776.97
655.329	774.65
655.525	751.01
655.722	799.26
655.918	721.18
656.115	739.39
656.311	705.09
656.507	663.05
656.704	604.73
656.9	671.96
657.096	643.29
657.292	636.31
657.489	705.48
657.685	714.98
657.881	687.27
658.077	743.65
658.273	702.19
658.47	801.97
658.666	737.45
658.862	741.91
659.058	736.68
659.254	764.96
659.45	707.61
659.646	733.58
659.842	715.36
660.038	761.86
660.234	703.93
660.43	719.04
660.626	802.36
660.822	752.37
661.018	762.25
661.214	763.8
661.41	692.69
661.606	780.46
661.802	743.65
661.998	757.41
662.194	702.19
662.39	718.08
662.586	735.71
662.781	735.71
662.977	742.68
663.173	735.51
663.369	708
663.564	714.01
663.76	723.5
663.956	685.72
664.152	751.59
664.347	642.71
664.543	694.05
664.739	669.25
664.934	643.29
665.13	634.57
665.326	714.2
665.521	690.56
665.717	647.36
665.912	633.41
666.108	590.78
666.304	660.15
666.499	681.84
666.695	599.31
666.89	659.37
667.086	685.53
667.281	667.31
667.477	740.55
667.672	662.28
667.867	627.98
668.063	657.05
668.258	616.55
668.454	646.97
668.649	706.45
668.844	655.69
669.04	687.46
669.235	645.61
669.43	624.69
669.626	604.73
669.821	610.16
670.016	594.27
670.211	634.38
670.407	611.13
670.602	621.01
670.797	610.55
670.992	676.03
671.187	600.08
671.382	656.85
671.578	611.51
671.773	606.09
671.968	602.41
672.163	611.9
672.358	631.28
672.553	590.4
672.748	590.4
672.943	702.19
673.138	618.3
673.333	624.69
673.528	584.97
673.723	635.35
673.918	602.99
674.113	587.1
674.308	680.88
674.503	609.96
674.698	619.65
674.892	631.08
675.087	654.53
675.282	656.08
675.477	593.11
675.672	640.19
675.867	621.2
676.061	591.36
676.256	574.7
676.451	604.35
676.646	626.82
676.84	600.08
677.035	524.72
677.23	587.3
677.424	583.03
677.619	651.43
677.814	636.7
678.008	658.6
678.203	583.81
678.397	590.2
678.592	602.6
678.787	659.37
678.981	610.93
679.176	615.39
679.37	612.1
679.565	587.68
679.759	557.85
679.954	625.27
680.148	640.38
680.342	654.91
680.537	629.15
680.731	584.78
680.926	634.76
681.12	641.74
681.314	593.69
681.509	593.5
681.703	625.27
681.897	641.55
682.092	604.93
682.286	592.33
682.48	651.81
682.674	636.9
682.869	616.16
683.063	620.23
683.257	658.01
683.451	598.53
683.645	636.12
683.839	615.2
684.034	626.24
684.228	640.77
684.422	611.71
684.616	559.2
684.81	663.63
685.004	642.13
685.198	626.05
685.392	687.46
685.586	634.57
685.78	646
685.974	634.38
686.168	670.41
686.362	690.56
686.556	603.96
686.75	554.55
686.944	602.21
687.138	528.2
687.331	486.74
687.525	475.89
687.719	446.44
687.913	504.76
688.107	504.57
688.301	504.18
688.494	588.07
688.688	525.3
688.882	506.31
689.076	497.01
689.269	545.25
689.463	625.46
689.657	544.87
689.85	550.68
690.044	589.04
690.238	573.73
690.431	608.03
690.625	601.25
690.818	651.81
691.012	661.31
691.205	688.82
691.399	640.96
691.593	703.16
691.786	738.81
691.98	760.12
692.173	794.8
692.366	767.48
692.56	770.19
692.753	851.57
692.947	744.04
693.14	862.61
693.333	840.33
693.527	835.87
693.72	829.67
693.914	861.45
694.107	869.78
694.3	893.8
694.493	859.12
694.687	925.58
694.88	908.34
695.073	950.18
695.266	952.9
695.46	969.37
695.653	996.88
695.846	1026.33
696.039	989.13
696.232	1019.55
696.425	1062.17
696.618	1111.58
696.812	1094.14
697.005	1178.42
697.198	1256.31
697.391	1207.09
697.584	1229.76
697.777	1305.71
697.97	1263.47
698.163	1298.93
698.356	1280.72
698.549	1375.27
698.742	1356.47
698.935	1287.89
699.127	1329.93
699.32	1316.56
699.513	1338.45
699.706	1332.64
699.899	1338.84
700.092	1380.69
700.285	1436.3
700.477	1336.13
700.67	1429.52
700.863	1440.17
701.056	1536.46
701.248	1516.9
701.441	1528.33
701.634	1503.53
701.826	1582.96
702.019	1472.91
702.212	1550.8
702.404	1532.98
702.597	1568.63
702.79	1584.9
702.982	1625.2
703.175	1650.39
703.367	1656.01
703.56	1714.52
703.752	1780.97
703.945	1767.22
704.137	1755.4
704.33	1795.5
704.522	1809.26
704.715	1845.88
704.907	1852.47
705.1	1889.67
705.292	1883.47
705.484	1888.7
705.677	1910.01
705.869	1938.1
706.061	1972.01
706.254	2028.78
706.446	1975.69
706.638	1976.08
706.831	2064.04
707.023	2051.64
707.215	2131.07
707.407	2107.05
707.599	2091.74
707.792	2144.44
707.984	2137.66
708.176	2169.44
708.368	2154.91
708.56	2218.84
708.752	2223.1
708.944	2224.65
709.136	2263.98
709.329	2230.08
709.521	2332.18
709.713	2301.38
709.905	2353.3
710.097	2378.68
710.289	2313.58
710.481	2324.63
710.672	2398.06
710.864	2419.18
711.056	2458.89
711.248	2459.28
711.44	2435.26
711.632	2458.51
711.824	2516.44
712.016	2553.25
712.207	2561.58
712.399	2526.12
712.591	2578.63
712.783	2611.76
712.975	2614.86
713.166	2577.47
713.358	2613.31
713.55	2657.68
713.741	2684.61
713.933	2692.75
714.125	2676.28
714.316	2658.84
714.508	2733.82
714.7	2688.29
714.891	2678.22
715.083	2714.06
715.274	2665.62
715.466	2701.85
715.657	2730.33
715.849	2658.07
716.04	2691.2
716.232	2630.75
716.423	2646.83
716.615	2564.29
716.806	2537.36
716.998	2445.53
717.189	2334.9
717.381	2273.28
717.572	2258.17
717.763	2252.94
717.955	2222.33
718.146	2149.67
718.337	2134.17
718.528	2096.78
718.72	2000.1
718.911	2046.6
719.102	2022.19
719.293	2065.59
719.485	2051.44
719.676	1959.41
719.867	1989.25
720.058	1989.44
720.249	1958.06
720.44	2029.55
720.632	2064.43
720.823	2108.02
721.014	2254.68
721.205	2351.75
721.396	2404.65
721.587	2501.71
721.778	2578.05
721.969	2591.22
722.16	2640.05
722.351	2695.65
722.542	2803.18
722.733	2853.36
722.924	2720.84
723.115	2765.4
723.305	2766.37
723.496	2749.9
723.687	2612.54
723.878	2605.75
724.069	2603.82
724.26	2600.33
724.45	2540.07
724.641	2523.61
724.832	2575.34
725.023	2527.87
725.213	2550.73
725.404	2516.82
725.595	2522.25
725.785	2478.08
725.976	2540.66
726.167	2561.39
726.357	2558.87
726.548	2664.85
726.739	2596.46
726.929	2647.02
727.12	2725.1
727.31	2695.46
727.501	2650.9
727.691	2634.82
727.882	2664.46
728.072	2702.82
728.263	2726.65
728.453	2801.25
728.644	2775.28
728.834	2758.04
729.024	2716.38
729.215	2726.07
729.405	2757.27
729.596	2809.96
729.786	2819.07
729.976	2834.96
730.167	2877.97
730.357	2833.99
730.547	2811.71
730.737	2864.41
730.928	2864.41
731.118	2927.96
731.308	2914.78
731.498	2892.69
731.688	2971.94
731.879	2999.45
732.069	3083.15
732.259	3071.14
732.449	3152.9
732.639	3249.38
732.829	3275.73
733.019	3325.72
733.209	3392.76
733.399	3423.37
733.589	3464.44
733.779	3494.86
733.969	3520.24
734.159	3595.22
734.349	3629.32
734.539	3693.65
734.729	3717.48
734.919	3700.81
735.109	3781.61
735.299	3662.06
735.488	3719.41
735.678	3739.18
735.868	3691.32
736.058	3706.05
736.248	3725.81
736.437	3626.03
736.627	3664.78
736.817	3765.53
737.007	3741.11
737.196	3804.28
737.386	3772.11
737.576	3770.95
737.765	3781.8
737.955	3776.57
738.144	3892.24
738.334	3855.23
738.524	3827.91
738.713	3867.63
738.903	3819.58
739.092	3901.34
739.282	3862.01
739.471	3912.77
739.661	3882.55
739.85	3983.88
740.04	3963.73
740.229	3938.15
740.419	4020.69
740.608	3999.77
740.797	3989.69
740.987	4089.28
741.176	4012.36
741.365	4023.21
741.555	3974
741.744	4079.78
741.933	4017.78
742.123	4047.82
742.312	4104.2
742.501	4119.5
742.69	4123.76
742.88	4085.4
743.069	4186.34
743.258	4164.45
743.447	4187.7
743.636	4158.25
743.825	4171.81
744.014	4131.13
744.204	4222.19
744.393	4101.29
744.582	4222.77
744.771	4239.43
744.96	4209.98
745.149	4247.57
745.338	4209.01
745.527	4224.51
745.716	4190.8
745.905	4158.06
746.094	4259.58
746.283	4238.08
746.471	4251.44
746.66	4262.87
746.849	4254.16
747.038	4289.22
747.227	4191.58
747.416	4277.41
747.604	4218.89
747.793	4220.64
747.982	4251.44
748.171	4284.38
748.359	4223.93
748.548	4229.74
748.737	4219.86
748.926	4288.06
749.114	4147.01
749.303	4207.27
749.491	4169.88
749.68	4103.61
749.869	4248.54
750.057	4170.26
750.246	4202.43
750.434	4192.16
750.623	4155.35
750.811	4133.45
751	4202.81
751.188	4189.25
751.377	4188.67
751.565	4125.12
751.754	4162.51
751.942	4113.11
752.131	4197.58
752.319	4100.71
752.507	4106.71
752.696	4157.67
752.884	4155.15
753.072	4138.88
753.261	4117.56
753.449	4124.54
753.637	4072.03
753.825	4194.48
754.014	4115.24
754.202	4179.37
754.39	4170.07
754.578	4192.35
754.766	4095.09
754.955	4044.91
755.143	4185.76
755.331	4083.08
755.519	4133.06
755.707	4112.14
755.895	4070.87
756.083	4110.78
756.271	4042.58
756.459	4049.37
756.647	4050.14
756.835	4040.26
757.023	3980.78
757.211	4061.96
757.399	3978.07
757.587	3970.51
757.775	3950.17
757.963	3909.09
758.151	4003.06
758.339	3961.21
758.526	3904.64
758.714	3958.11
758.902	3804.47
759.09	3675.24
759.278	3472.97
759.465	3187.38
759.653	2764.82
759.841	2485.63
760.028	2157.62
760.216	1820.88
760.404	1696.11
760.591	1453.15
760.779	1205.93
760.967	1015.09
761.154	870.55
761.342	895.55
761.529	887.02
761.717	916.09
761.905	910.66
762.092	985.25
762.28	908.53
762.467	920.74
762.655	832.77
762.842	869
763.029	850.99
763.217	853.5
763.404	860.87
763.592	888.19
763.779	854.09
763.966	896.9
764.154	936.24
764.341	1004.63
764.528	1014.9
764.716	1072.83
764.903	1151.49
765.09	1224.92
765.277	1293.12
765.465	1463.03
765.652	1504.69
765.839	1660.07
766.026	1763.34
766.213	1803.45
766.4	1937.91
766.588	2150.06
766.775	2205.28
766.962	2335.67
767.149	2423.63
767.336	2607.5
767.523	2552.28
767.71	2693.33
767.897	2863.63
768.084	2966.9
768.271	2988.21
768.458	3086.83
768.645	3153.87
768.832	3139.53
769.019	3185.06
769.206	3260.23
769.392	3351.88
769.579	3359.82
769.766	3388.11
769.953	3335.79
770.14	3457.08
770.327	3428.41
770.513	3480.33
770.7	3523.34
770.887	3453.59
771.073	3535.16
771.26	3484.2
771.447	3457.47
771.634	3479.17
771.82	3574.88
772.007	3470.64
772.193	3514.43
772.38	3558.99
772.567	3493.5
772.753	3518.89
772.94	3575.07
773.126	3602.58
773.313	3518.11
773.499	3561.32
773.686	3557.83
773.872	3504.35
774.059	3563.45
774.245	3507.07
774.432	3497.77
774.618	3423.37
774.804	3457.47
774.991	3509.39
775.177	3538.65
775.363	3464.83
775.55	3543.49
775.736	3404.57
775.922	3493.12
776.109	3440.81
776.295	3485.37
776.481	3461.73
776.667	3475.29
776.853	3443.32
777.04	3430.54
777.226	3438.29
777.412	3496.22
777.598	3422.79
777.784	3456.11
777.97	3391.01
778.156	3428.99
778.342	3404.38
778.528	3394.31
778.715	3305.38
778.901	3349.74
779.087	3409.42
779.272	3334.05
779.458	3316.03
779.644	3333.86
779.83	3304.41
780.016	3423.37
780.202	3307.51
780.388	3319.33
780.574	3200.17
780.76	3281.93
780.946	3303.83
781.131	3273.6
781.317	3281.35
781.503	3249.58
781.689	3258.3
781.874	3367.57
782.06	3227.1
782.246	3262.95
782.432	3229.81
782.617	3250.35
782.803	3309.44
782.989	3206.76
783.174	3192.03
783.36	3172.66
783.545	3194.75
783.731	3206.76
783.916	3126.74
784.102	3205.21
784.288	3155.61
784.473	3168.59
784.659	3171.5
784.844	3157.16
785.029	3111.82
785.215	3098.84
785.4	3079.47
785.586	3205.98
785.771	3061.64
785.956	3167.82
786.142	3045.95
786.327	3060.67
786.512	3064.35
786.698	3031.61
786.883	2970.77
787.068	3064.35
787.254	3059.7
787.439	2996.35
787.624	3006.42
787.809	2984.72
787.994	2969.81
788.18	3026.57
788.365	2939.39
788.55	2940.16
788.735	2961.09
788.92	2930.48
789.105	2937.64
789.29	2943.84
789.475	2872.54
789.66	2914.98
789.845	2826.24
790.03	2858.79
790.215	2875.84
790.4	2882.62
790.585	2893.66
790.77	2823.91
790.955	2822.36
791.14	2842.51
791.325	2934.16
791.51	2755.72
791.695	2821.78
791.879	2824.11
792.064	2795.05
792.249	2861.5
792.434	2856.08
792.618	2814.81
792.803	2831.66
792.988	2800.28
793.173	2836.51
793.357	2849.68
793.542	2805.12
793.727	2822.95
793.911	2864.02
794.096	2870.22
794.281	2875.06
794.465	2922.92
794.65	2864.6
794.834	2914.98
795.019	2951.98
795.203	2945.2
795.388	2962.06
795.572	2929.7
795.757	2869.83
795.941	2906.06
796.126	2886.11
796.31	2815.97
796.494	2831.86
796.679	2802.99
796.863	2811.51
797.048	2880.49
797.232	2845.61
797.416	2876.42
797.601	2876.42
797.785	2909.94
797.969	2944.81
798.153	2880.49
798.338	2885.72
798.522	2955.66
798.706	2915.56
798.89	2923.89
799.074	3028.12
799.258	2966.51
799.443	2907.03
799.627	2896.57
799.811	2946.94
799.995	2889.21
800.179	2891.92
800.363	2859.95
800.547	2940.36
800.731	2948.11
800.915	2822.17
801.099	2829.92
801.283	2844.84
801.467	2861.31
801.651	2848.52
801.835	2876.23
802.019	2881.84
802.202	2881.07
802.386	2857.43
802.57	2801.83
802.754	2776.45
802.938	2822.95
803.121	2839.8
803.305	2877.97
803.489	2839.22
803.673	2841.93
803.856	2854.72
804.04	2820.43
804.224	2873.51
804.407	2840.38
804.591	2788.65
804.775	2828.95
804.958	2849.68
805.142	3009.91
805.326	2851.62
805.509	2882.43
805.693	2923.89
805.876	2936.68
806.06	2869.64
806.243	2952.95
806.427	2900.83
806.61	2954.31
806.794	2901.8
806.977	2930.86
807.16	2911.88
807.344	2878.55
807.527	2882.81
807.71	2901.61
807.894	2877.78
808.077	2927.18
808.26	2852.4
808.444	2860.34
808.627	2908.39
808.81	2791.36
808.993	2784.78
809.177	2766.18
809.36	2773.35
809.543	2798.15
809.726	2711.54
809.909	2730.33
810.092	2706.5
810.276	2711.93
810.459	2662.14
810.642	2700.5
810.825	2624.74
811.008	2657.49
811.191	2561
811.374	2558.48
811.557	2593.36
811.74	2636.17
811.923	2518.18
812.106	2476.14
812.289	2479.43
812.472	2488.73
812.654	2481.18
812.837	2447.46
813.02	2405.03
813.203	2359.7
813.386	2258.75
813.569	2189
813.751	2162.46
813.934	2199.66
814.117	2180.48
814.3	2102.4
814.482	2043.5
814.665	1985.57
814.848	1987.7
815.03	1905.55
815.213	1926.86
815.396	1886.57
815.578	1877.85
815.761	1860.22
815.943	1874.94
816.126	1768.57
816.309	1778.65
816.491	1724.98
816.674	1626.17
816.856	1725.95
817.039	1712.19
817.221	1765.47
817.403	1711.81
817.586	1731.37
817.768	1750.17
817.951	1660.85
818.133	1671.89
818.315	1692.82
818.498	1764.12
818.68	1765.28
818.862	1743.97
819.045	1786.2
819.227	1741.45
819.409	1741.25
819.591	1780.2
819.774	1750.94
819.956	1729.63
820.138	1793.18
820.32	1815.85
820.502	1866.42
820.684	1929.38
820.866	1950.11
821.048	1990.8
821.231	2039.43
821.413	1994.87
821.595	1975.5
821.777	2003.78
821.959	2025.87
822.141	2066.17
822.323	1938.1
822.505	1839.1
822.686	1810.62
822.868	1700.57
823.05	1588.58
823.232	1553.51
823.414	1483.57
823.596	1551.58
823.778	1561.65
823.96	1571.92
824.141	1592.65
824.323	1631.4
824.505	1708.32
824.687	1732.15
824.868	1819.72
825.05	1907.49
825.232	1929.58
825.413	1996.81
825.595	1961.16
825.777	1879.2
825.958	1915.63
826.14	1918.34
826.321	1984.41
826.503	1951.28
826.685	1978.21
826.866	1990.8
827.048	2000.29
827.229	1934.03
827.411	1867.58
827.592	1843.75
827.773	1832.32
827.955	1775.35
828.136	1773.8
828.318	1742.42
828.499	1766.44
828.68	1707.54
828.862	1757.53
829.043	1794.34
829.224	1735.25
829.406	1701.73
829.587	1755.79
829.768	1729.63
829.949	1762.37
830.131	1739.12
830.312	1799.96
830.493	1748.62
830.674	1774.77
830.855	1746.49
831.036	1752.69
831.218	1824.57
831.399	1807.52
831.58	1775.74
831.761	1752.3
831.942	1756.37
832.123	1780.97
832.304	1711.03
832.485	1728.08
832.666	1745.9
832.847	1797.44
833.028	1775.35
833.209	1787.56
833.389	1732.73
833.57	1701.92
833.751	1723.24
833.932	1785.62
834.113	1767.22
834.294	1735.64
834.475	1777.87
834.655	1810.23
834.836	1821.08
835.017	1829.02
835.198	1739.12
835.378	1838.71
835.559	1841.42
835.74	1820.88
835.92	1781.17
836.101	1830.18
836.281	1841.03
836.462	1786.2
836.643	1832.9
836.823	1811.39
837.004	1828.05
837.184	1896.06
837.365	1850.14
837.545	1875.13
837.726	1850.14
837.906	1885.21
838.087	1866.22
838.267	1847.43
838.448	1804.42
838.628	1833.87
838.808	1854.6
838.989	1887.34
839.169	1815.85
839.349	1867.38
839.53	1863.32
839.71	1919.11
839.89	1842.97
840.07	1864.09
840.251	1838.13
840.431	1904.39
840.611	1844.72
840.791	1854.6
840.971	1844.72
841.151	1842.78
841.332	1809.45
841.512	1869.71
841.692	1807.32
841.872	1832.12
842.052	1831.15
842.232	1864.09
842.412	1804.61
842.592	1811.59
842.772	1873.2
842.952	1829.99
843.132	1817.01
843.312	1798.99
843.492	1777.68
843.672	1816.62
843.851	1776.9
844.031	1776.13
844.211	1801.32
844.391	1742.61
844.571	1800.15
844.751	1803.06
844.93	1778.84
845.11	1767.99
845.29	1811.2
845.47	1818.95
845.649	1788.34
845.829	1873.58
846.009	1798.02
846.188	1807.71
846.368	1784.27
846.547	1791.82
846.727	1789.5
846.907	1739.51
847.086	1774.58
847.266	1838.71
847.445	1798.6
847.625	1731.18
847.804	1733.12
847.984	1790.85
848.163	1725.17
848.343	1735.64
848.522	1758.3
848.701	1771.67
848.881	1718.59
849.06	1771.87
849.239	1741.25
849.419	1725.95
849.598	1705.8
849.777	1660.66
849.957	1633.92
850.136	1588.97
850.315	1561.26
850.494	1574.24
850.674	1595.17
850.853	1639.15
851.032	1601.95
851.211	1653.68
851.39	1632.95
851.569	1599.82
851.748	1563.98
851.927	1647.87
852.107	1650.39
852.286	1583.35
852.465	1606.79
852.644	1656.39
852.823	1644.38
853.002	1589.74
853.181	1602.34
853.359	1595.56
853.538	1562.43
853.717	1630.04
853.896	1515.15
854.075	1462.07
854.254	1434.94
854.433	1354.54
854.611	1394.45
854.79	1338.65
854.969	1405.88
855.148	1452.96
855.327	1407.62
855.505	1400.07
855.684	1428.35
855.863	1457.42
856.041	1448.12
856.22	1495.58
856.399	1468.46
856.577	1588
856.756	1544.21
856.934	1643.61
857.113	1635.28
857.291	1573.47
857.47	1500.81
857.648	1569.4
857.827	1550.41
858.005	1583.16
858.184	1531.04
858.362	1622.1
858.541	1586.84
858.719	1528.33
858.898	1538.4
859.076	1518.06
859.254	1588.58
859.433	1527.75
859.611	1489.96
859.789	1498.88
859.967	1588.58
860.146	1572.5
860.324	1485.31
860.502	1479.7
860.68	1455.09
860.859	1490.55
861.037	1499.46
861.215	1517.86
861.393	1524.45
861.571	1459.16
861.749	1469.43
861.927	1503.91
862.105	1499.46
862.283	1497.91
862.461	1438.82
862.639	1422.73
862.817	1463.42
862.995	1462.84
863.173	1433.78
863.351	1477.18
863.529	1467.1
863.707	1499.26
863.885	1460.71
864.063	1397.16
864.241	1420.41
864.418	1442.88
864.596	1418.47
864.774	1366.35
864.952	1393.67
865.129	1456.06
865.307	1375.27
865.485	1369.26
865.663	1411.5
865.84	1344.46
866.018	1368.1
866.196	1264.83
866.373	1242.55
866.551	1210
866.728	1167.38
866.906	1218.52
867.084	1242.74
867.261	1267.54
867.439	1272.77
867.616	1327.02
867.794	1287.69
867.971	1309.39
868.149	1342.33
868.326	1385.92
868.503	1340.97
868.681	1323.73
868.858	1305.71
869.035	1299.9
869.213	1332.84
869.39	1288.66
869.567	1371.59
869.745	1312.88
869.922	1305.32
870.099	1385.73
870.276	1347.17
870.454	1327.02
870.631	1318.69
870.808	1337.1
870.985	1338.45
871.162	1381.47
871.339	1326.25
871.517	1253.59
871.694	1253.4
871.871	1315.2
872.048	1321.02
872.225	1296.22
872.402	1289.63
872.579	1231.7
872.756	1293.31
872.933	1232.47
873.11	1279.56
873.287	1291.76
873.463	1237.9
873.64	1240.03
873.817	1263.09
873.994	1286.14
874.171	1244.29
874.348	1254.95
874.524	1228.99
874.701	1250.69
874.878	1192.76
875.055	1255.34
875.231	1251.85
875.408	1258.44
875.585	1162.14
875.762	1198.96
875.938	1196.83
876.115	1182.68
876.291	1202.25
876.468	1217.56
876.645	1129.98
876.821	1208.64
876.998	1187.72
877.174	1189.08
877.351	1176.68
877.527	1163.5
877.704	1192.95
877.88	1198.96
878.057	1154.98
878.233	1208.45
878.409	1160.59
878.586	1159.82
878.762	1134.24
878.938	1182.49
879.115	1089.49
879.291	1166.79
879.467	1122.62
879.644	1120.68
879.82	1157.3
879.996	1126.3
880.172	1105.18
880.349	1095.88
880.525	1145.68
880.701	1073.8
880.877	1089.49
881.053	1126.49
881.229	1094.33
881.405	1120.68
881.581	1088.33
881.757	1107.12
881.933	1119.33
882.109	1138.31
882.285	1094.14
882.461	1052.87
882.637	1109.83
882.813	1079.22
882.989	1086.58
883.165	1151.49
883.341	1063.33
883.517	1141.99
883.693	1126.49
883.869	1141.99
884.044	1104.6
884.22	1137.34
884.396	1139.09
884.572	1095.3
884.747	1164.08
884.923	1151.68
885.099	1122.04
885.275	1129.21
885.45	1090.85
885.626	1080.19
885.801	1081.55
885.977	1084.06
886.153	1045.9
886.328	1091.23
886.504	1080.38
886.679	1102.86
886.855	1077.48
887.03	1101.31
887.206	1119.33
887.381	1091.04
887.557	1103.63
887.732	1113.9
887.908	1097.05
888.083	1118.94
888.258	1066.43
888.434	1083.29
888.609	1101.89
888.784	1116.42
888.96	1114.68
889.135	1070.89
889.31	1098.01
889.485	1120.49
889.661	1074.38
889.836	1145.09
890.011	1108.67
890.186	1088.33
890.361	1079.61
890.537	1109.25
890.712	1077.67
890.887	1077.86
891.062	1109.06
891.237	1127.08
891.412	1066.24
891.587	1113.9
891.762	1121.46
891.937	1120.29
892.112	1037.76
892.287	1093.17
892.462	1018.97
892.637	1008.89
892.812	966.27
892.987	998.82
893.161	996.68
893.336	1006.95
893.511	974.4
893.686	1005.6
893.861	987
894.035	994.17
894.21	983.32
894.385	954.45
894.56	938.56
894.734	904.85
894.909	899.42
895.084	870.75
895.258	892.64
895.433	911.82
895.608	863
895.782	811.85
895.957	821.92
896.131	834.52
896.306	744.43
896.48	762.64
896.655	752.18
896.829	719.43
897.004	693.28
897.178	719.82
897.353	701.99
897.527	747.72
897.701	716.14
897.876	700.06
898.05	759.15
898.224	730.28
898.399	752.18
898.573	708
898.747	602.8
898.921	652.01
899.096	541.38
899.27	579.55
899.444	584.97
899.618	608.03
899.792	624.11
899.967	617.71
900.141	682.23
900.315	628.37
900.489	620.43
900.663	616.94
900.837	618.3
901.011	577.8
901.185	663.63
901.359	630.5
901.533	619.65
901.707	632.63
901.881	620.04
902.055	584
902.229	599.89
902.403	662.08
902.576	641.55
902.75	621.2
902.924	708.97
903.098	674.87
903.272	746.56
903.446	751.21
903.619	745.39
903.793	796.74
903.967	756.44
904.14	802.36
904.314	789.96
904.488	771.94
904.661	823.28
904.835	761.28
905.009	829.29
905.182	869.2
905.356	825.61
905.529	809.33
905.703	784.92
905.876	771.74
906.05	710.71
906.223	715.75
906.397	663.05
906.57	646.97
906.744	604.73
906.917	619.85
907.09	621.98
907.264	617.13
907.437	561.72
907.61	569.67
907.784	564.63
907.957	603.96
908.13	563.47
908.304	578.38
908.477	564.05
908.65	527.62
908.823	516.38
908.996	585.55
909.17	523.75
909.343	521.23
909.516	526.65
909.689	571.02
909.862	532.08
910.035	539.05
910.208	518.9
910.381	510.77
910.554	584
910.727	549.9
910.9	536.73
911.073	526.07
911.246	583.81
911.419	613.26
911.592	553.39
911.765	534.21
911.938	522.58
912.11	530.53
912.283	504.37
912.456	613.45
912.629	551.26
912.802	522
912.974	458.65
913.147	421.25
913.32	379.21
913.493	443.54
913.665	438.5
913.838	456.32
914.01	428.62
914.183	500.5
914.356	466.01
914.528	483.06
914.701	532.66
914.873	509.22
915.046	443.73
915.218	442.95
915.391	367.78
915.563	374.56
915.736	419.12
915.908	455.55
916.081	448.57
916.253	438.3
916.425	455.74
916.598	484.8
916.77	454.97
916.942	446.05
917.115	385.61
917.287	437.34
917.459	411.18
917.632	397.42
917.804	334.07
917.976	406.72
918.148	432.69
918.32	416.6
918.493	472.6
918.665	530.92
918.837	484.03
919.009	529.75
919.181	520.26
919.353	484.03
919.525	469.69
919.697	496.82
919.869	498.56
920.041	543.7
920.213	587.88
920.385	530.53
920.557	522.2
920.729	549.71
920.901	518.71
921.073	494.88
921.244	485.77
921.416	525.49
921.588	496.43
921.76	485.58
921.932	564.82
922.103	469.5
922.275	498.95
922.447	513.87
922.619	439.66
922.79	491
922.962	478.99
923.134	498.17
923.305	426.49
923.477	435.59
923.648	407.31
923.82	417.57
923.991	374.17
924.163	389.48
924.335	400.33
924.506	400.33
924.677	452.64
924.849	393.36
925.02	448.19
925.192	438.69
925.363	440.05
925.535	416.22
925.706	435.2
925.877	460.39
926.049	403.43
926.22	410.41
926.391	420.67
926.562	430.17
926.734	381.54
926.905	422.22
927.076	363.13
927.247	397.04
927.419	342.21
927.59	304.04
927.761	339.11
927.932	318.38
928.103	345.69
928.274	276.72
928.445	303.26
928.616	301.33
928.787	294.16
928.958	302.49
929.129	311.59
929.3	276.33
929.471	216.85
929.642	195.35
929.813	149.43
929.984	246.3
930.155	171.32
930.326	181.98
930.496	194.57
930.667	149.43
930.838	169.58
931.009	148.65
931.18	154.66
931.35	149.62
931.521	153.11
931.692	104.28
931.863	69.41
932.033	111.45
932.204	118.43
932.374	100.41
932.545	76.19
932.716	116.1
932.886	118.23
933.057	49.45
933.227	59.53
933.398	123.08
933.568	74.06
933.739	42.48
933.909	34.34
934.08	68.44
934.25	18.26
934.421	17.87
934.591	64.57
934.761	27.17
934.932	14.39
935.102	58.56
935.272	12.45
935.443	40.15
935.613	3.34
935.783	43.06
935.953	14.39
936.123	160.28
936.294	18.84
936.464	14.58
936.634	35.89
936.804	25.43
936.974	20
937.144	51.2
937.314	61.66
937.484	37.05
937.655	28.92
937.825	92.66
937.995	25.62
938.165	78.71
938.334	33.18
938.504	66.89
938.674	53.72
938.844	69.8
939.014	90.14
939.184	70.18
939.354	175.97
939.524	136.64
939.694	82.58
939.863	96.73
940.033	138.77
940.203	148.46
940.373	110.68
940.542	120.37
940.712	75.42
940.882	131.8
941.051	136.06
941.221	119.2
941.391	135.28
941.56	93.24
941.73	89.95
941.899	186.43
942.069	89.17
942.238	91.5
942.408	81.42
942.577	117.85
942.747	85.88
942.916	32.99
943.086	66.5
943.255	110.68
943.425	86.27
943.594	82.97
943.763	38.02
943.933	33.18
944.102	-10.22
944.271	84.91
944.441	84.52
944.61	44.61
944.779	65.53
944.948	151.75
945.117	37.05
945.287	67.08
945.456	9.74
945.625	68.05
945.794	55.46
945.963	39.38
946.132	72.7
946.301	46.74
946.47	64.76
946.639	2.18
946.808	45
946.977	67.67
947.146	130.63
947.315	61.27
947.484	86.85
947.653	46.35
947.822	46.16
947.991	33.95
948.16	144.2
948.329	109.71
948.498	59.92
948.666	54.69
948.835	74.83
949.004	48.68
949.173	14.39
949.341	71.15
949.51	87.04
949.679	92.66
949.847	78.52
950.016	114.36
950.185	112.03
950.353	30.08
950.522	54.3
950.69	102.73
950.859	70.57
951.028	90.92
951.196	84.52
951.365	67.08
951.533	66.5
951.701	111.65
951.87	65.53
952.038	37.44
952.207	72.32
952.375	94.79
952.543	51
952.712	54.88
952.88	43.64
953.048	115.91
953.217	59.53
953.385	54.49
953.553	92.47
953.721	34.54
953.89	71.54
954.058	37.44
954.226	63.4
954.394	83.55
954.562	36.86
954.73	58.95
954.898	64.57
955.067	92.47
955.235	66.89
955.403	97.12
955.571	118.82
955.739	114.94
955.907	62.05
956.075	65.15
956.243	50.62
956.41	96.34
956.578	-1.7
956.746	38.8
956.914	44.03
957.082	97.89
957.25	81.42
957.418	39.19
957.585	86.65
957.753	109.52
957.921	76.38
958.089	80.45
958.256	81.81
958.424	98.47
958.592	88.59
958.759	68.63
958.927	89.17
959.095	30.85
959.262	72.7
959.43	88.59
959.597	47.32
959.765	73.67
959.932	28.92
960.1	86.85
960.267	87.62
960.435	70.57
960.602	133.54
960.77	57.98
960.937	42.87
961.104	90.33
961.272	23.49
961.439	60.11
961.606	87.82
961.774	94.79
961.941	75.61
962.108	98.28
962.275	65.73
962.443	102.93
962.61	105.25
962.777	145.94
962.944	122.5
963.111	101.96
963.278	114.36
963.446	91.11
963.613	106.03
963.78	132.38
963.947	121.92
964.114	100.02
964.281	141.1
964.448	109.32
964.615	79.87
964.782	89.95
964.949	116.49
965.116	112.03
965.282	145.75
965.449	96.34
965.616	56.43
965.783	126.57
965.95	91.3
966.117	54.69
966.283	74.64
966.45	89.75
966.617	105.83
966.784	150.78
966.95	112.42
967.117	91.69
967.284	80.65
967.45	79.1
967.617	148.85
967.784	126.37
967.95	155.82
968.117	67.47
968.283	142.84
968.45	174.61
968.616	135.28
968.783	138.19
968.949	130.44
969.116	148.65
969.282	132.18
969.449	127.92
969.615	111.07
969.781	81.03
969.948	101.77
970.114	76.19
970.28	161.83
970.447	115.13
970.613	159.31
970.779	115.13
970.945	135.48
971.112	109.52
971.278	95.76
971.444	116.49
971.61	165.31
971.776	108.35
971.942	110.48
972.108	122.88
972.275	87.82
972.441	137.03
972.607	171.51
972.773	92.27
972.939	124.82
973.105	74.06
973.271	68.44
973.437	92.08
973.602	74.06
973.768	92.85
973.934	115.52
974.1	126.76
974.266	37.64
974.432	146.52
974.598	105.06
974.763	109.32
974.929	72.32
975.095	163.76
975.261	93.63
975.426	84.91
975.592	88.01
975.758	155.82
975.923	41.7
976.089	117.46
976.255	117.07
976.42	77.93
976.586	86.46
976.751	104.28
976.917	176.75
977.082	113.58
977.248	51.39
977.413	59.14
977.579	72.9
977.744	77.74
977.91	67.08
978.075	80.45
978.24	98.28
978.406	91.69
978.571	98.08
978.736	46.16
978.902	127.53
979.067	77.16
979.232	42.29
979.397	106.61
979.563	148.07
979.728	70.38
979.893	94.79
980.058	79.1
980.223	108.74
980.388	109.9
980.554	111.07
980.719	92.47
980.884	95.76
981.049	129.47
981.214	98.28
981.379	107.58
981.544	62.82
981.709	79.87
981.874	90.14
982.039	103.12
982.204	133.35
982.368	78.32
982.533	67.86
982.698	130.05
982.863	113
983.028	83.94
983.193	107.97
983.357	112.42
983.522	72.9
983.687	103.7
983.852	86.65
984.016	71.54
984.181	97.31
984.346	100.22
984.51	116.68
984.675	129.86
984.839	108.35
985.004	103.51
985.168	126.95
985.333	112.81
985.498	94.79
985.662	102.15
985.827	100.99
985.991	98.86
986.155	79.68
986.32	125.98
986.484	143.42
986.649	121.72
986.813	66.12
986.977	102.35
987.142	120.17
987.306	57.59
987.47	58.56
987.634	100.41
987.799	98.47
987.963	64.57
988.127	113.97
988.291	150.2
988.455	90.14
988.62	82
988.784	124.05
988.948	96.53
989.112	70.18
989.276	114.17
989.44	93.43
989.604	96.53
989.768	85.1
989.932	166.67
990.096	56.82
990.26	65.15
990.424	34.54
990.588	88.59
990.752	169.58
990.915	110.68
991.079	81.62
991.243	61.85
991.407	129.08
991.571	47.71
991.734	108.74
991.898	122.5
992.062	138.97
992.226	60.89
992.389	56.24
992.553	34.54
992.717	67.47
992.88	80.65
993.044	106.8
993.207	49.07
993.371	108.74
993.535	106.42
993.698	96.53
993.862	109.32
994.025	104.48
994.189	67.28
994.352	105.83
994.515	66.7
994.679	138.97
994.842	97.5
995.006	112.42
995.169	56.24
995.332	59.53
995.496	113.78
995.659	59.34
995.822	70.57
995.985	85.88
996.149	107.38
996.312	96.34
996.475	133.54
996.638	69.02
996.801	124.05
996.964	130.25
997.128	83.94
997.291	69.8
997.454	59.72
997.617	59.53
997.78	107
997.943	64.57
998.106	103.12
998.269	62.63
998.432	89.17
998.595	64.95
998.758	15.55
998.92	48.68
999.083	31.05
999.246	88.2
999.409	45
999.572	21.55
999.735	51.78
999.897	89.95
1000.06	40.93
1000.223	26.59
1000.386	76.38
1000.548	75.61
1000.711	76
1000.874	88.2
1001.036	26.59
1001.199	97.12
1001.361	52.17
1001.524	47.71
1001.687	101.96
1001.849	67.47
1002.012	63.21
1002.174	69.8
1002.337	85.68
1002.499	36.47
1002.661	112.81
1002.824	31.05
1002.986	26.79
1003.149	48.87
1003.311	41.32
1003.473	88.98
1003.636	54.49
1003.798	115.33
1003.96	66.89
1004.123	69.02
1004.285	41.9
1004.447	45.77
1004.609	64.37
1004.771	105.83
1004.933	13.42
1005.096	32.21
1005.258	12.06
1005.42	48.1
1005.582	93.24
1005.744	74.25
1005.906	20
1006.068	65.34
1006.23	35.5
1006.392	11.87
1006.554	20
1006.716	74.64
1006.878	63.21
1007.04	-4.99
1007.202	35.7
1007.363	37.44
1007.525	56.82
1007.687	65.15
1007.849	89.95
1008.011	-27.85
1008.172	23.88
1008.334	32.4
1008.496	47.32
1008.658	17.29
1008.819	28.53
1008.981	22.52
1009.143	13.22
1009.304	45
1009.466	75.22
1009.627	94.4
1009.789	118.43
1009.95	69.99
1010.112	41.32
1010.273	71.93
1010.435	22.52
1010.596	46.16
1010.758	23.69
1010.919	45.39
1011.081	12.84
1011.242	36.67
1011.403	68.63
1011.565	36.09
1011.726	77.55
1011.887	16.32
1012.049	52.94
1012.21	81.23
1012.371	103.7
1012.532	-5.18
1012.693	71.35
1012.855	17.87
1013.016	29.3
1013.177	69.41
1013.338	33.76
1013.499	97.31
1013.66	56.82
1013.821	43.64
1013.982	52.36
1014.143	40.74
1014.304	24.46
1014.465	45.19
1014.626	93.24
1014.787	40.74
1014.948	102.93
1015.109	-7.51
1015.27	85.68
1015.431	26.98
1015.592	35.7
1015.752	70.96
1015.913	65.15
1016.074	25.43
1016.235	45.39
1016.395	34.54
1016.556	19.62
1016.717	30.08
1016.877	76.19
1017.038	-10.8
1017.199	34.92
1017.359	37.64
1017.52	50.62
1017.681	7.02
1017.841	17.49
1018.002	40.74
1018.162	13.61
1018.323	74.25
1018.483	38.22
1018.644	16.13
1018.804	-15.26
1018.964	6.83
1019.125	16.32
1019.285	40.15
1019.446	19.04
1019.606	9.74
1019.766	2.18
1019.926	40.93
1020.087	34.34
1020.247	9.35
1020.407	33.76
1020.567	59.72
1020.728	24.07
1020.888	-18.94
1021.048	32.99
1021.208	11.87
1021.368	1.4
1021.528	49.26
1021.688	38.99
1021.848	84.13
1022.008	38.02
1022.168	13.22
1022.328	26.2
1022.488	25.82
1022.648	24.46
1022.808	17.68
1022.968	52.36
1023.128	20
1023.288	10.32
1023.448	35.31
1023.608	47.71
1023.767	32.99
1023.927	-9.25
1024.087	-4.21
1024.247	6.44
1024.406	10.7
1024.566	-20.3
1024.726	-13.51
1024.885	10.12
1025.045	37.05
1025.205	27.75
1025.364	29.11
1025.524	34.34
1025.683	12.45
1025.843	32.99
1026.003	37.25
1026.162	77.74
1026.321	33.57
1026.481	27.95
1026.64	18.26
1026.8	27.37
1026.959	14.58
1027.119	26.79
1027.278	18.26
1027.437	-17.58
1027.597	33.18
1027.756	36.47
1027.915	24.07
1028.074	63.99
1028.234	3.92
1028.393	24.46
1028.552	-24.94
1028.711	-50.33
1028.87	86.65
1029.03	-28.43
1029.189	29.5
1029.348	-29.59
1029.507	-25.91
1029.666	-6.93
1029.825	-13.51
1029.984	-16.03
1030.143	10.12
1030.302	3.73
1030.461	-46.06
1030.62	26.2
1030.779	41.9
1030.938	10.7
1031.097	-45.29
1031.255	32.02
1031.414	51.59
1031.573	51.59
1031.732	-61.37
1031.891	9.93
1032.049	42.67
1032.208	27.37
1032.367	16.32
1032.525	1.02
1032.684	8.77
1032.843	2.18
1033.001	-34.44
1033.16	130.83
1033.319	57.4
1033.477	34.92
1033.636	8.38
1033.794	-36.76
1033.953	52.75
1034.111	43.45
1034.27	15.55
1034.428	32.6
1034.587	6.25
1034.745	38.8
1034.903	15.94
1035.062	63.02
1035.22	-26.11
1035.378	23.3
1035.537	-21.84
1035.695	42.09
1035.853	-0.73
1036.011	47.71
1036.17	-3.25
1036.328	-40.25
1036.486	-1.11
1036.644	19.62
1036.802	-41.03
1036.96	-17.2
1037.119	14.97
1037.277	-7.12
1037.435	-17.97
1037.593	-30.95
1037.751	34.34
1037.909	35.12
1038.067	35.12
