Data from gum_young_FLMT105791__50__17-39-08-043.txt Node

Date: Mon Mar 20 17:39:08 GMT 2023
User: antho
Spectrometer: FLMT10579
Trigger mode: 0
Integration Time (sec): 1.000000E-1
Scans to average: 10
Electric dark correction enabled: true
Nonlinearity correction enabled: false
Boxcar width: 0
XAxis mode: Wavelengths
Number of Pixels in Spectrum: 3648
>>>>>Begin Spectral Data<<<<<
345.248	-124.77
345.464	-124.77
345.681	-124.77
345.898	-158.49
346.114	-140.66
346.331	-39.14
346.548	36.42
346.764	9.88
346.981	-3.29
347.197	7.75
347.414	1.74
347.631	-15.11
347.847	45.53
348.064	3.29
348.28	6.59
348.497	-33.13
348.713	-20.54
348.93	19.96
349.146	26.74
349.363	2.52
349.579	-0.77
349.796	15.89
350.012	-5.62
350.229	23.44
350.445	20.92
350.661	-15.11
350.878	-3.87
351.094	18.41
351.311	35.46
351.527	26.35
351.743	-13.17
351.96	44.76
352.176	23.44
352.392	33.32
352.609	31
352.825	-13.37
353.041	-8.33
353.257	-13.37
353.474	-3.87
353.69	20.92
353.906	27.12
354.122	-32.55
354.339	39.14
354.555	23.83
354.771	6.01
354.987	74.79
355.203	67.23
355.42	-2.32
355.636	-10.46
355.852	-30.61
356.068	-13.17
356.284	7.94
356.5	43.79
356.716	29.64
356.932	-37.59
357.148	6.39
357.364	10.85
357.58	41.66
357.796	41.46
358.012	64.71
358.228	31.39
358.444	-40.69
358.66	53.86
358.876	11.43
359.092	-25.77
359.308	18.6
359.524	-2.71
359.74	-18.41
359.956	-21.12
360.172	8.91
360.388	28.87
360.604	-13.95
360.819	61.42
361.035	33.32
361.251	39.33
361.467	-4.65
361.683	38.36
361.898	3.87
362.114	24.02
362.33	18.21
362.546	43.79
362.762	20.73
362.977	36.04
363.193	-19.96
363.409	40.11
363.624	-13.17
363.84	8.14
364.056	21.12
364.271	32.16
364.487	51.73
364.703	-5.04
364.918	-14.92
365.134	-7.56
365.35	12.01
365.565	82.92
365.781	5.04
365.996	30.61
366.212	81.76
366.427	14.14
366.643	-14.34
366.858	12.21
367.074	-33.52
367.289	54.83
367.505	79.82
367.72	-13.76
367.936	8.91
368.151	64.91
368.367	17.24
368.582	34.49
368.798	-0.97
369.013	70.33
369.228	44.56
369.444	22.86
369.659	56.96
369.874	30.03
370.09	80.41
370.305	-39.91
370.52	-2.32
370.736	40.11
370.951	24.22
371.166	77.89
371.381	102.49
371.597	63.55
371.812	-12.98
372.027	-9.3
372.242	34.1
372.458	71.49
372.673	3.1
372.888	-17.44
373.103	26.93
373.318	86.61
373.533	47.86
373.749	37.39
373.964	-14.92
374.179	77.89
374.394	15.11
374.609	55.8
374.824	3.49
375.039	46.31
375.254	3.49
375.469	56.77
375.684	9.69
375.899	68.39
376.114	-1.36
376.329	4.26
376.544	56.19
376.759	44.17
376.974	14.53
377.189	27.71
377.404	22.28
377.619	47.47
377.834	-27.32
378.049	-11.62
378.264	-6.97
378.478	11.04
378.693	-0.97
378.908	55.02
379.123	-5.81
379.338	48.82
379.553	24.61
379.767	41.07
379.982	33.91
380.197	20.92
380.412	12.79
380.626	40.3
380.841	93.97
381.056	49.79
381.271	82.92
381.485	6.2
381.7	-8.14
381.915	50.37
382.129	18.21
382.344	19.18
382.559	-14.53
382.773	51.54
382.988	5.04
383.202	40.49
383.417	-17.44
383.632	106.37
383.846	43.79
384.061	37.59
384.275	24.41
384.49	37.78
384.704	54.64
384.919	13.95
385.133	27.32
385.348	35.65
385.562	11.24
385.777	75.56
385.991	33.52
386.206	-8.14
386.42	-5.81
386.634	80.41
386.849	18.79
387.063	32.55
387.277	-1.94
387.492	14.92
387.706	-19.37
387.92	-9.49
388.135	51.34
388.349	12.4
388.563	19.37
388.778	37.01
388.992	61.61
389.206	47.27
389.42	105.98
389.635	25.38
389.849	52.51
390.063	66.46
390.277	49.02
390.491	72.07
390.706	52.31
390.92	68.01
391.134	46.69
391.348	50.96
391.562	-17.82
391.776	21.51
391.99	12.79
392.205	37.39
392.419	1.36
392.633	24.02
392.847	75.37
393.061	0.97
393.275	79.82
393.489	31.58
393.703	32.36
393.917	62.58
394.131	-5.23
394.345	60.06
394.559	66.65
394.773	38.56
394.986	47.86
395.2	35.26
395.414	51.15
395.628	18.41
395.842	44.56
396.056	25.57
396.27	-32.55
396.484	18.79
396.697	48.82
396.911	62
397.125	51.34
397.339	78.08
397.553	58.32
397.766	84.67
397.98	40.11
398.194	55.22
398.408	20.34
398.621	63.55
398.835	65.29
399.049	33.32
399.262	92.22
399.476	86.99
399.69	33.71
399.903	89.32
400.117	32.94
400.331	39.33
400.544	45.14
400.758	147.83
400.971	64.32
401.185	87.19
401.398	12.98
401.612	77.69
401.826	64.52
402.039	66.26
402.253	40.69
402.466	90.09
402.68	43.21
402.893	62.19
403.106	70.72
403.32	48.44
403.533	92.42
403.747	81.37
403.96	82.34
404.174	73.82
404.387	5.62
404.6	57.74
404.814	98.04
405.027	63.16
405.24	73.43
405.454	63.94
405.667	82.92
405.88	12.01
406.094	69.17
406.307	77.89
406.52	70.52
406.733	44.56
406.947	32.94
407.16	122.64
407.373	96.49
407.586	28.29
407.799	34.68
408.012	94.94
408.226	64.13
408.439	96.49
408.652	42.24
408.865	66.07
409.078	100.75
409.291	91.45
409.504	43.79
409.717	94.94
409.93	86.02
410.143	54.83
410.357	19.18
410.57	21.31
410.783	52.7
410.996	82.73
411.209	52.51
411.421	96.1
411.634	48.24
411.847	63.94
412.06	76.14
412.273	65.68
412.486	68.39
412.699	158.68
412.912	49.21
413.125	83.31
413.338	83.51
413.55	122.25
413.763	77.31
413.976	115.67
414.189	38.36
414.402	36.23
414.615	117.6
414.827	53.86
415.04	105.79
415.253	77.69
415.466	123.61
415.678	150.93
415.891	83.7
416.104	92.42
416.316	76.14
416.529	71.69
416.742	110.05
416.954	101.72
417.167	97.26
417.38	79.24
417.592	112.76
417.805	53.47
418.017	35.07
418.23	107.72
418.442	61.22
418.655	74.98
418.868	79.44
419.08	88.54
419.293	122.64
419.505	94.35
419.718	78.66
419.93	124.97
420.142	102.1
420.355	111.6
420.567	153.45
420.78	128.65
420.992	99
421.205	135.82
421.417	43.79
421.629	109.47
421.842	71.11
422.054	68.59
422.266	116.64
422.479	108.69
422.691	76.92
422.903	115.28
423.115	85.44
423.328	93.97
423.54	97.07
423.752	93.39
423.964	81.57
424.177	116.25
424.389	87.57
424.601	174.18
424.813	93.97
425.025	164.1
425.238	144.54
425.45	101.14
425.662	92.61
425.874	330.15
426.086	83.51
426.298	139.69
426.51	125.74
426.722	101.72
426.934	87.57
427.146	112.57
427.358	51.92
427.57	130.59
427.782	96.68
427.994	100.55
428.206	71.88
428.418	61.61
428.63	122.64
428.842	139.11
429.054	131.55
429.266	103.65
429.478	98.81
429.69	126.71
429.902	65.1
430.114	122.06
430.325	110.82
430.537	82.73
430.749	94.16
430.961	55.8
431.173	77.11
431.384	126.9
431.596	29.84
431.808	99
432.02	113.92
432.231	122.64
432.443	160.23
432.655	111.21
432.867	85.25
433.078	129.42
433.29	192.78
433.502	123.61
433.713	142.21
433.925	117.22
434.136	157.13
434.348	87.96
434.56	48.44
434.771	185.42
434.983	105.98
435.194	124
435.406	117.6
435.617	154.8
435.829	174.37
436.04	148.8
436.252	157.52
436.463	182.9
436.675	164.69
436.886	122.45
437.098	160.62
437.309	206.34
437.521	117.41
437.732	142.21
437.943	132.52
438.155	148.22
438.366	109.85
438.578	195.1
438.789	141.44
439	148.6
439.211	136.01
439.423	157.13
439.634	151.9
439.845	174.95
440.057	140.47
440.268	173.4
440.479	131.17
440.69	123.22
440.902	133.1
441.113	147.44
441.324	143.18
441.535	148.02
441.746	196.07
441.957	137.56
442.168	143.57
442.38	146.09
442.591	181.35
442.802	135.24
443.013	149.96
443.224	175.15
443.435	127.87
443.646	143.57
443.857	167.01
444.068	158.1
444.279	144.54
444.49	211.18
444.701	167.2
444.912	249.55
445.123	183.09
445.334	192.58
445.545	180.77
445.756	179.6
445.967	142.21
446.178	192.97
446.388	218.93
446.599	205.37
446.81	196.46
447.021	169.53
447.232	186.97
447.443	230.17
447.653	157.9
447.864	190.84
448.075	171.08
448.286	241.02
448.496	184.64
448.707	231.14
448.918	162.36
449.129	266.4
449.339	163.52
449.55	169.53
449.761	173.21
449.971	257.68
450.182	179.02
450.393	208.67
450.603	225.72
450.814	228.23
451.024	209.63
451.235	235.4
451.446	236.57
451.656	266.6
451.867	174.76
452.077	233.85
452.288	272.21
452.498	250.13
452.709	196.85
452.919	244.51
453.13	189.68
453.34	245.09
453.55	141.63
453.761	238.89
453.971	232.88
454.182	246.83
454.392	222.81
454.602	293.53
454.813	251.1
455.023	229.78
455.233	201.88
455.444	251.29
455.654	168.17
455.864	229.59
456.075	204.98
456.285	201.69
456.495	230.95
456.705	232.69
456.916	258.07
457.126	280.16
457.336	226.68
457.546	174.37
457.756	195.88
457.967	256.52
458.177	222.03
458.387	245.09
458.597	222.42
458.807	232.88
459.017	201.88
459.227	222.03
459.437	242.38
459.647	262.14
459.857	234.43
460.068	212.73
460.278	265.63
460.488	267.76
460.698	320.85
460.908	234.82
461.117	213.12
461.327	211.96
461.537	259.23
461.747	257.88
461.957	241.41
462.167	340.41
462.377	294.88
462.587	242.77
462.797	291.98
463.007	274.15
463.216	272.21
463.426	311.35
463.636	301.86
463.846	211.77
464.056	250.71
464.265	289.07
464.475	235.79
464.685	249.55
464.895	270.28
465.104	248.58
465.314	269.11
465.524	242.57
465.733	214.48
465.943	371.03
466.153	325.69
466.362	299.15
466.572	276.86
466.782	273.57
466.991	261.95
467.201	307.67
467.41	231.53
467.62	279.77
467.829	259.04
468.039	266.4
468.249	275.12
468.458	273.38
468.668	296.82
468.877	253.62
469.086	309.41
469.296	315.61
469.505	284.81
469.715	339.64
469.924	294.5
470.134	347.2
470.343	351.65
470.552	290.43
470.762	291.78
470.971	279.38
471.18	282.68
471.39	284.03
471.599	280.35
471.808	322.01
472.018	270.47
472.227	345.06
472.436	322.78
472.645	312.51
472.855	274.54
473.064	353.59
473.273	348.75
473.482	347.2
473.691	372.19
473.901	351.07
474.11	319.68
474.319	400.09
474.528	352.62
474.737	364.44
474.946	350.49
475.155	363.86
475.364	370.64
475.573	346.42
475.783	352.81
475.992	348.94
476.201	396.02
476.41	335.18
476.619	297.01
476.828	356.69
477.037	340.8
477.245	330.15
477.454	388.85
477.663	366.96
477.872	344.87
478.081	430.51
478.29	365.99
478.499	434.58
478.708	413.26
478.917	445.04
479.125	372.19
479.334	384.78
479.543	392.73
479.752	422.95
479.961	412.1
480.169	447.17
480.378	370.44
480.587	543.46
480.796	415.98
481.004	396.02
481.213	457.05
481.422	427.41
481.63	431.67
481.839	469.26
482.048	492.7
482.256	424.69
482.465	443.87
482.674	447.56
482.882	465.77
483.091	505.68
483.299	444.07
483.508	496.57
483.716	433.8
483.925	456.47
484.134	423.73
484.342	444.65
484.551	497.93
484.759	480.11
484.967	492.89
485.176	479.91
485.384	509.94
485.593	513.62
485.801	474.49
486.01	438.64
486.218	414.04
486.426	399.89
486.635	429.73
486.843	429.93
487.051	448.72
487.26	432.83
487.468	488.82
487.676	498.32
487.885	460.54
488.093	478.94
488.301	467.32
488.509	503.94
488.717	522.54
488.926	481.85
489.134	486.5
489.342	506.46
489.55	474.68
489.758	501.42
489.967	489.6
490.175	619.99
490.383	516.72
490.591	578.72
490.799	495.41
491.007	569.23
491.215	548.11
491.423	512.85
491.631	528.35
491.839	556.64
492.047	556.25
492.255	535.32
492.463	511.88
492.671	521.96
492.879	598.49
493.087	539.97
493.295	562.64
493.503	552.57
493.711	584.15
493.919	624.25
494.127	600.62
494.334	620.77
494.542	566.52
494.75	582.21
494.958	583.95
495.166	639.95
495.374	614.57
495.581	616.12
495.789	593.84
495.997	653.51
496.205	586.28
496.412	612.05
496.62	586.47
496.828	615.15
497.035	600.23
497.243	658.74
497.451	607.79
497.658	639.75
497.866	603.14
498.074	642.85
498.281	617.86
498.489	693.81
498.696	628.71
498.904	592.87
499.112	618.25
499.319	691.68
499.527	617.86
499.734	683.54
499.942	612.24
500.149	647.7
500.357	663.2
500.564	641.3
500.771	655.83
500.979	638.01
501.186	637.62
501.394	646.73
501.601	645.95
501.808	684.7
502.016	673.27
502.223	652.35
502.43	681.22
502.638	647.5
502.845	649.05
503.052	757.36
503.26	661.84
503.467	771.89
503.674	681.41
503.881	717.25
504.089	795.53
504.296	735.85
504.503	691.87
504.71	727.91
504.917	687.8
505.125	742.25
505.332	727.52
505.539	742.25
505.746	795.91
505.953	807.93
506.16	790.88
506.367	840.86
506.574	826.14
506.781	835.83
506.988	750.38
507.195	803.28
507.402	779.64
507.609	849.39
507.816	779.45
508.023	820.13
508.23	798.04
508.437	763.56
508.644	832.92
508.851	871.86
509.058	869.54
509.265	819.55
509.472	880.97
509.679	978.62
509.885	854.23
510.092	875.74
510.299	887.75
510.506	878.06
510.713	908.29
510.92	899.18
511.126	915.07
511.333	977.84
511.54	941.61
511.746	994.12
511.953	999.93
512.16	1009.81
512.367	965.64
512.573	955.17
512.78	975.71
512.987	959.24
513.193	1001.87
513.4	881.94
513.606	961.37
513.813	1006.32
514.02	1016.4
514.226	1033.45
514.433	1048.95
514.639	958.66
514.846	1040.42
515.052	981.52
515.259	1036.35
515.465	1024.15
515.672	1035.77
515.878	1143.88
516.085	1049.72
516.291	1104.55
516.497	1060.38
516.704	1051.47
516.91	1002.84
517.117	983.46
517.323	951.49
517.529	1008.65
517.736	991.6
517.942	1017.75
518.148	1033.06
518.354	1053.21
518.561	1060.38
518.767	1089.05
518.973	1099.52
519.179	1140.98
519.386	1119.67
519.592	1097.97
519.798	1116.76
520.004	1244.83
520.21	1189.41
520.417	1222.93
520.623	1250.64
520.829	1244.63
521.035	1295.39
521.241	1268.27
521.447	1280.28
521.653	1390.33
521.859	1290.55
522.065	1330.85
522.271	1389.75
522.477	1339.76
522.683	1384.32
522.889	1393.24
523.095	1339.37
523.301	1375.22
523.507	1307.41
523.713	1348.29
523.919	1345.19
524.125	1435.47
524.331	1435.67
524.537	1462.6
524.742	1475.39
524.948	1473.84
525.154	1496.31
525.36	1595.31
525.566	1513.75
525.772	1556.18
525.977	1489.72
526.183	1507.93
526.389	1525.95
526.595	1443.03
526.8	1458.14
527.006	1448.26
527.212	1372.31
527.417	1407.96
527.623	1390.52
527.829	1477.13
528.034	1483.33
528.24	1492.43
528.446	1491.47
528.651	1596.09
528.857	1556.57
529.062	1674.17
529.268	1601.71
529.473	1660.41
529.679	1620.7
529.884	1672.04
530.09	1642.78
530.295	1702.26
530.501	1658.86
530.706	1641.62
530.912	1655.57
531.117	1689.48
531.323	1675.91
531.528	1723.96
531.733	1728.23
531.939	1707.69
532.144	1734.23
532.35	1744.89
532.555	1766.59
532.76	1713.31
532.966	1723.77
533.171	1686.18
533.376	1681.73
533.581	1679.79
533.787	1717.38
533.992	1753.22
534.197	1788.09
534.402	1731.33
534.607	1764.26
534.813	1832.46
535.018	1753.61
535.223	1795.84
535.428	1809.99
535.633	1829.17
535.838	1830.52
536.043	1822
536.249	1921
536.454	1848.54
536.659	1899.11
536.864	1838.47
537.069	1832.66
537.274	1840.02
537.479	1828.2
537.684	1884
537.889	1816.96
538.094	1933.21
538.299	1882.84
538.504	1904.92
538.708	1916.55
538.913	1917.52
539.118	1893.3
539.323	1908.41
539.528	1854.94
539.733	1851.84
539.938	1922.17
540.142	1884.19
540.347	1894.46
540.552	1848.93
540.757	1825.68
540.962	1814.25
541.166	1837.3
541.371	1799.33
541.576	1876.83
541.781	1787.9
541.985	1904.15
542.19	1902.21
542.395	1930.5
542.599	1975.25
542.804	1908.6
543.008	1914.42
543.213	1898.53
543.418	1880.9
543.622	1939.99
543.827	1843.12
544.031	1938.63
544.236	1995.79
544.44	1965.37
544.645	2000.63
544.849	1945.8
545.054	2000.44
545.258	2032.6
545.463	2017.1
545.667	1929.92
545.872	2004.7
546.076	1977.77
546.281	1971.96
546.485	1957.62
546.689	2004.9
546.894	2040.35
547.098	1998.31
547.302	1978.55
547.507	1975.06
547.711	2006.64
547.915	2037.45
548.119	1945.42
548.324	1948.9
548.528	2034.93
548.732	1971.77
548.936	2008.38
549.141	2024.08
549.345	2002.38
549.549	2008
549.753	2025.82
549.957	2099.25
550.161	2066.31
550.366	2038.41
550.57	2008
550.774	2018.85
550.978	2024.27
551.182	2062.44
551.386	1996.37
551.59	2038.03
551.794	1988.82
551.998	2070.38
552.202	2035.12
552.406	1979.13
552.61	2045.2
552.814	2032.6
553.018	2125.02
553.222	2003.54
553.426	2042.87
553.63	2110.88
553.833	2033.76
554.037	1989.59
554.241	2043.26
554.445	2073.29
554.649	2031.63
554.853	2017.3
555.056	2062.25
555.26	2087.82
555.464	2086.66
555.668	2035.51
555.871	2078.33
556.075	2092.86
556.279	2002.38
556.483	2010.13
556.686	2021.17
556.89	2029.89
557.094	2024.85
557.297	1939.02
557.501	2026.98
557.704	1925.46
557.908	2044.42
558.112	1976.61
558.315	1989.59
558.519	1970.02
558.722	1971.18
558.926	1932.24
559.129	1861.52
559.333	1862.49
559.536	1933.21
559.74	1893.88
559.943	1886.9
560.147	1867.92
560.35	1909.57
560.553	1924.88
560.757	1832.46
560.96	1976.03
561.164	1872.57
561.367	1991.14
561.57	1905.5
561.774	1900.08
561.977	1872.76
562.18	1842.54
562.384	1972.93
562.587	1896.59
562.79	1906.86
562.993	1885.35
563.197	1873.34
563.4	1954.72
563.603	1946.58
563.806	1954.13
564.009	1888.65
564.212	1895.24
564.416	1824.52
564.619	1898.72
564.822	1797.2
565.025	1898.53
565.228	1834.4
565.431	1834.4
565.634	1757.87
565.837	1774.34
566.04	1753.99
566.243	1783.83
566.446	1714.28
566.649	1753.02
566.852	1750.12
567.055	1737.91
567.258	1764.84
567.461	1805.92
567.664	1786.54
567.867	1692.19
568.07	1752.44
568.273	1743.34
568.475	1793.71
568.678	1707.3
568.881	1743.73
569.084	1715.63
569.287	1612.95
569.489	1663.32
569.692	1687.34
569.895	1693.16
570.098	1610.23
570.3	1601.32
570.503	1577.1
570.706	1591.63
570.909	1586.98
571.111	1562.77
571.314	1503.67
571.516	1579.23
571.719	1585.63
571.922	1549.4
572.124	1553.85
572.327	1562.38
572.529	1535.45
572.732	1535.64
572.935	1550.56
573.137	1622.83
573.34	1550.56
573.542	1561.6
573.745	1564.7
573.947	1598.41
574.15	1548.62
574.352	1471.9
574.554	1574.97
574.757	1480.04
574.959	1477.9
575.162	1475
575.364	1450.97
575.566	1556.37
575.769	1459.11
575.971	1487.78
576.173	1399.82
576.376	1487.4
576.578	1502.32
576.78	1513.36
576.982	1406.02
577.185	1452.14
577.387	1424.82
577.589	1451.55
577.791	1454.65
577.993	1456.59
578.196	1387.81
578.398	1448.45
578.6	1422.1
578.802	1377.93
579.004	1383.74
579.206	1395.95
579.408	1401.57
579.61	1376.57
579.812	1443.22
580.014	1398.08
580.216	1415.32
580.418	1397.89
580.62	1407.96
580.822	1340.15
581.024	1392.66
581.226	1437.41
581.428	1404.86
581.63	1478.29
581.832	1402.73
582.034	1432.18
582.236	1415.13
582.438	1424.24
582.64	1496.12
582.841	1476.94
583.043	1516.85
583.245	1444.97
583.447	1452.52
583.649	1416.29
583.85	1479.26
584.052	1452.33
584.254	1357.2
584.456	1437.41
584.657	1367.66
584.859	1374.25
585.061	1401.95
585.262	1404.09
585.464	1360.11
585.666	1420.36
585.867	1365.34
586.069	1452.52
586.27	1380.64
586.472	1376.77
586.674	1356.81
586.875	1334.92
587.077	1341.31
587.278	1361.27
587.48	1346.74
587.681	1459.89
587.883	1368.05
588.084	1305.47
588.285	1320.58
588.487	1288.03
588.688	1338.41
588.89	1247.93
589.091	1200.46
589.292	1241.73
589.494	1189.22
589.695	1179.73
589.896	1096.61
590.098	1121.41
590.299	1165.78
590.5	1117.53
590.702	1180.31
590.903	1190.38
591.104	1265.75
591.305	1238.63
591.507	1262.07
591.708	1242.69
591.909	1227.19
592.11	1265.75
592.311	1238.43
592.512	1228.36
592.714	1204.33
592.915	1212.08
593.116	1209.95
593.317	1215.57
593.518	1213.44
593.719	1238.82
593.92	1231.84
594.121	1285.32
594.322	1250.83
594.523	1220.03
594.724	1206.46
594.925	1215.38
595.126	1197.94
595.327	1231.07
595.528	1255.48
595.729	1214.41
595.929	1214.99
596.13	1244.63
596.331	1224.48
596.532	1243.08
596.733	1284.35
596.934	1241.34
597.135	1242.31
597.335	1243.28
597.536	1173.72
597.737	1258
597.938	1191.16
598.138	1214.8
598.339	1213.83
598.54	1206.27
598.74	1214.99
598.941	1209.37
599.142	1251.99
599.342	1250.06
599.543	1207.24
599.744	1195.81
599.944	1181.08
600.145	1212.47
600.345	1210.53
600.546	1263.81
600.746	1269.63
600.947	1286.09
601.147	1259.74
601.348	1264.78
601.548	1177.4
601.749	1257.23
601.949	1160.93
602.15	1165.2
602.35	1194.26
602.551	1227.39
602.751	1194.06
602.951	1215.76
603.152	1132.26
603.352	1222.16
603.552	1184.38
603.753	1269.43
603.953	1233.39
604.153	1216.93
604.354	1199.49
604.554	1187.28
604.754	1207.24
604.954	1148.92
605.155	1207.05
605.355	1192.13
605.555	1208.21
605.755	1250.44
605.955	1207.05
606.155	1239.21
606.356	1183.99
606.556	1219.06
606.756	1199.68
606.956	1129.93
607.156	1240.76
607.356	1178.76
607.556	1179.92
607.756	1163.26
607.956	1229.71
608.156	1220.8
608.356	1176.24
608.556	1208.79
608.756	1183.8
608.956	1159.96
609.156	1158.03
609.356	1139.62
609.556	1141.36
609.755	1151.83
609.955	1120.05
610.155	1158.03
610.355	1168.3
610.555	1123.54
610.755	1128.38
610.954	1066.97
611.154	1146.4
611.354	1160.16
611.554	1110.75
611.753	1107.65
611.953	1077.43
612.153	1159.58
612.352	1131.48
612.552	1070.65
612.752	1054.37
612.951	1105.72
613.151	1101.26
613.351	1072.39
613.55	1077.43
613.75	1111.53
613.949	1049.14
614.149	1124.32
614.348	1079.56
614.548	1053.79
614.747	1029.96
614.947	1070.07
615.146	999.74
615.346	1057.86
615.545	1044.49
615.745	1067.35
615.944	1087.5
616.144	1074.33
616.343	1033.45
616.542	1009.23
616.742	1045.46
616.941	1013.69
617.14	962.15
617.34	1027.64
617.539	1037.13
617.738	1015.24
617.938	1076.65
618.137	1038.1
618.336	1006.13
618.535	1023.95
618.734	978.81
618.934	1038.68
619.133	1021.44
619.332	1050.5
619.531	972.22
619.73	1008.07
619.929	1025.89
620.128	994.7
620.328	1058.63
620.527	985.59
620.726	1013.69
620.925	1018.53
621.124	990.82
621.323	1010
621.522	958.66
621.721	970.09
621.92	926.5
622.119	972.8
622.318	983.85
622.517	1000.12
622.715	971.84
622.914	917.39
623.113	959.24
623.312	896.47
623.511	966.02
623.71	916.23
623.909	932.7
624.107	1010.97
624.306	889.3
624.505	914.68
624.704	921.46
624.902	915.84
625.101	966.22
625.3	921.46
625.499	885.81
625.697	915.65
625.896	888.52
626.095	919.14
626.293	858.3
626.492	896.27
626.69	928.82
626.889	891.43
627.088	928.44
627.286	869.54
627.485	872.64
627.683	831.56
627.882	906.35
628.08	825.94
628.279	848.61
628.477	918.94
628.676	829.63
628.874	887.36
629.073	889.11
629.271	823.04
629.469	869.34
629.668	820.13
629.866	865.66
630.065	847.45
630.263	877.09
630.461	836.02
630.66	859.27
630.858	870.51
631.056	923.21
631.254	889.3
631.453	849.97
631.651	903.83
631.849	850.55
632.047	855.78
632.245	867.02
632.444	865.66
632.642	908.09
632.84	876.51
633.038	848.61
633.236	842.61
633.434	840.28
633.632	836.41
633.83	856.75
634.028	886.01
634.227	871.67
634.425	947.42
634.623	856.17
634.821	893.56
635.019	861.01
635.216	865.86
635.414	904.99
635.612	882.71
635.81	891.04
636.008	932.51
636.206	889.88
636.404	891.82
636.602	824.01
636.8	856.56
636.997	897.63
637.195	889.69
637.393	872.06
637.591	935.22
637.789	870.7
637.986	860.24
638.184	875.35
638.382	925.92
638.58	876.71
638.777	921.27
638.975	858.88
639.173	871.48
639.37	843.38
639.568	842.61
639.765	859.46
639.963	840.67
640.161	894.92
640.358	870.51
640.556	842.03
640.753	820.52
640.951	811.61
641.148	801.14
641.346	815.09
641.543	819.94
641.741	808.51
641.938	792.62
642.136	802.69
642.333	781.19
642.531	833.89
642.728	853.26
642.925	795.53
643.123	798.24
643.32	810.44
643.517	787.78
643.715	817.03
643.912	798.43
644.109	810.83
644.306	789.91
644.504	748.83
644.701	771.5
644.898	792.04
645.095	737.6
645.293	756.97
645.49	790.49
645.687	760.46
645.884	773.44
646.081	663.97
646.278	723.26
646.475	752.9
646.672	713.38
646.87	737.79
647.067	725.78
647.264	732.17
647.461	671.33
647.658	670.75
647.855	720.93
648.052	671.92
648.249	606.62
648.446	668.04
648.642	648.08
648.839	658.93
649.036	632.78
649.233	630.84
649.43	633.36
649.627	613.02
649.824	634.52
650.021	634.52
650.217	635.88
650.414	619.6
650.611	655.45
650.808	696.91
651.004	662.62
651.201	690.9
651.398	707.76
651.595	648.28
651.791	656.8
651.988	675.21
652.185	637.23
652.381	670.37
652.578	603.72
652.775	634.72
652.971	643.63
653.168	640.33
653.364	638.78
653.561	601.78
653.757	635.3
653.954	657
654.15	618.83
654.347	680.25
654.543	633.75
654.74	598.68
654.936	587.25
655.133	622.32
655.329	608.17
655.525	600.23
655.722	642.27
655.918	596.94
656.115	619.02
656.311	539.2
656.507	535.9
656.704	522.92
656.9	543.27
657.096	533.97
657.292	518.66
657.489	599.45
657.685	570.78
657.881	548.11
658.077	541.14
658.273	560.12
658.47	631.81
658.666	545.79
658.862	589.19
659.058	572.52
659.254	612.05
659.45	563.42
659.646	590.93
659.842	594.03
660.038	612.24
660.234	554.7
660.43	592.48
660.626	656.22
660.822	623.09
661.018	598.1
661.214	582.4
661.41	550.82
661.606	591.9
661.802	624.06
661.998	567.49
662.194	571.36
662.39	609.92
662.586	614.18
662.781	570.97
662.977	557.41
663.173	576.4
663.369	551.21
663.564	572.14
663.76	573.88
663.956	565.35
664.152	601.78
664.347	496.19
664.543	539.39
664.739	548.89
664.934	481.27
665.13	517.69
665.326	535.13
665.521	552.18
665.717	488.24
665.912	526.02
666.108	488.63
666.304	498.51
666.499	512.46
666.695	447.94
666.89	504.91
667.086	519.44
667.281	545.98
667.477	554.89
667.672	515.17
667.867	498.12
668.063	518.86
668.258	490.96
668.454	487.47
668.649	554.89
668.844	516.34
669.04	520.41
669.235	480.88
669.43	491.92
669.626	447.56
669.821	491.54
670.016	464.02
670.211	491.73
670.407	462.47
670.602	475.46
670.797	472.94
670.992	541.14
671.187	473.52
671.382	535.32
671.578	448.91
671.773	512.46
671.968	463.25
672.163	469.26
672.358	514.79
672.553	486.69
672.748	479.33
672.943	532.22
673.138	465.77
673.333	469.06
673.528	430.31
673.723	488.44
673.918	477.2
674.113	428.18
674.308	520.21
674.503	503.55
674.698	509.36
674.892	479.72
675.087	520.41
675.282	498.51
675.477	462.47
675.672	489.99
675.867	438.84
676.061	442.13
676.256	401.64
676.451	458.02
676.646	459.76
676.84	444.07
677.035	427.99
677.23	432.64
677.424	494.25
677.619	502.97
677.814	515.56
678.008	503.36
678.203	409
678.397	415.39
678.592	495.8
678.787	492.31
678.981	449.11
679.176	454.53
679.37	477.01
679.565	434.58
679.759	447.17
679.954	488.24
680.148	508.97
680.342	501.81
680.537	472.94
680.731	445.23
680.926	468.09
681.12	490.57
681.314	435.93
681.509	463.25
681.703	451.04
681.897	474.68
682.092	454.34
682.286	453.37
682.48	511.11
682.674	498.32
682.869	494.06
683.063	452.79
683.257	556.64
683.451	446.39
683.645	487.86
683.839	477.39
684.034	472.94
684.228	492.7
684.422	460.54
684.616	427.99
684.81	523.89
685.004	467.32
685.198	504.71
685.392	516.53
685.586	455.11
685.78	495.61
685.974	525.25
686.168	531.84
686.362	559.74
686.556	467.9
686.75	448.91
686.944	465.77
687.138	463.25
687.331	406.09
687.525	386.72
687.719	365.6
687.913	447.56
688.107	426.24
688.301	429.73
688.494	447.94
688.688	442.91
688.882	367.54
689.076	389.82
689.269	430.89
689.463	508.2
689.657	469.45
689.85	462.28
690.044	484.76
690.238	505.68
690.431	479.14
690.625	513.82
690.818	543.46
691.012	529.12
691.205	550.24
691.399	498.51
691.593	560.7
691.786	617.08
691.98	617.08
692.173	666.3
692.366	640.33
692.56	640.14
692.753	713.18
692.947	629.1
693.14	712.21
693.333	685.28
693.527	655.45
693.72	696.91
693.914	654.09
694.107	662.42
694.3	726.55
694.493	710.28
694.687	752.51
694.88	723.65
695.073	778.09
695.266	770.15
695.46	776.73
695.653	815.09
695.846	815.68
696.039	754.84
696.232	809.28
696.425	872.64
696.618	861.98
696.812	895.89
697.005	936.77
697.198	984.43
697.391	987.14
697.584	989.47
697.777	1045.27
697.97	1041.2
698.163	1032.29
698.356	1013.88
698.549	1089.25
698.742	1068.9
698.935	1033.45
699.127	1062.9
699.32	1043.72
699.513	1070.65
699.706	1136.71
699.899	1128.77
700.092	1050.11
700.285	1138.46
700.477	1066.58
700.67	1130.9
700.863	1162.1
701.056	1220.61
701.248	1188.06
701.441	1217.7
701.634	1150.08
701.826	1263.81
702.019	1176.63
702.212	1281.83
702.404	1198.13
702.597	1198.71
702.79	1266.91
702.982	1265.94
703.175	1329.49
703.367	1366.11
703.56	1376.57
703.752	1424.24
703.945	1391.49
704.137	1400.79
704.33	1398.66
704.522	1450
704.715	1479.84
704.907	1468.6
705.1	1497.47
705.292	1523.63
705.484	1487.59
705.677	1578.65
705.869	1572.65
706.061	1569.74
706.254	1608.3
706.446	1550.17
706.638	1574.39
706.831	1628.06
707.023	1599.96
707.215	1691.99
707.407	1700.33
707.599	1700.13
707.792	1713.11
707.984	1742.95
708.176	1750.7
708.368	1715.83
708.56	1770.27
708.752	1766.01
708.944	1782.28
709.136	1793.32
709.329	1761.16
709.521	1901.24
709.713	1833.04
709.905	1877.8
710.097	1884.39
710.289	1844.28
710.481	1882.45
710.672	1892.72
710.864	1942.7
711.056	1967.5
711.248	1964.21
711.44	1971.57
711.632	1945.22
711.824	1982.03
712.016	2002.18
712.207	2025.24
712.399	2037.83
712.591	2070.19
712.783	2089.76
712.975	2068.06
713.166	2059.92
713.358	2074.65
713.55	2125.02
713.741	2131.41
713.933	2128.12
714.125	2130.25
714.316	2074.65
714.508	2188.37
714.7	2163.96
714.891	2129.67
715.083	2155.83
715.274	2137.03
715.466	2163.77
715.657	2228.09
715.849	2077.36
716.04	2141.88
716.232	2085.3
716.423	2107.19
716.615	2083.75
716.806	2001.41
716.998	1964.21
717.189	1906.67
717.381	1827.81
717.572	1818.32
717.763	1793.52
717.955	1785.96
718.146	1735.39
718.337	1713.5
718.528	1632.51
718.72	1596.48
718.911	1660.99
719.102	1599.77
719.293	1651.7
719.485	1613.91
719.676	1631.55
719.867	1556.57
720.058	1604.81
720.249	1589.11
720.44	1625.15
720.632	1686.18
720.823	1705.94
721.014	1805.34
721.205	1852.8
721.396	1976.03
721.587	1995.79
721.778	2054.88
721.969	2053.91
722.16	2144.59
722.351	2143.04
722.542	2245.92
722.733	2267.81
722.924	2215.31
723.115	2278.85
723.305	2226.54
723.496	2240.88
723.687	2080.07
723.878	2107
724.069	2095.18
724.26	2055.66
724.45	2049.46
724.641	2051.59
724.832	2088.01
725.023	2037.45
725.213	2062.44
725.404	2026.4
725.595	2013.61
725.785	2001.02
725.976	2058.76
726.167	2074.84
726.357	2060.5
726.548	2194.38
726.739	2082.4
726.929	2177.14
727.12	2186.24
727.31	2190.7
727.501	2123.86
727.691	2153.5
727.882	2154.28
728.072	2171.91
728.263	2200.77
728.453	2250.76
728.644	2240.11
728.834	2243.21
729.024	2230.42
729.215	2216.27
729.405	2210.07
729.596	2314.7
729.786	2313.73
729.976	2290.48
730.167	2269.17
730.357	2307.34
730.547	2297.07
730.737	2323.22
730.928	2362.55
731.118	2396.07
731.308	2332.91
731.498	2338.92
731.688	2431.14
731.879	2455.16
732.069	2525.11
732.259	2558.43
732.449	2573.54
732.639	2605.32
732.829	2659.57
733.019	2700.45
733.209	2805.46
733.399	2802.75
733.589	2865.52
733.779	2860.1
733.969	2828.32
734.159	2922.48
734.349	2943.41
734.539	3001.53
734.729	2972.28
734.919	2974.02
735.109	3054.62
735.299	2986.03
735.488	3023.43
735.678	2990.49
735.868	3044.54
736.058	3044.54
736.248	3007.73
736.437	2947.28
736.627	2999.21
736.817	3035.05
737.007	3046.68
737.196	3094.14
737.386	3046.09
737.576	3038.73
737.765	3074.19
737.955	3067.21
738.144	3189.66
738.334	3146.65
738.524	3110.22
738.713	3123.4
738.903	3139.09
739.092	3150.14
739.282	3173.77
739.471	3178.23
739.661	3180.17
739.85	3216.98
740.04	3219.89
740.229	3202.25
740.419	3277.04
740.608	3280.72
740.797	3246.23
740.987	3306.1
741.176	3312.3
741.365	3263.28
741.555	3224.34
741.744	3294.87
741.933	3282.08
742.123	3328.96
742.312	3340.98
742.501	3309.4
742.69	3352.8
742.88	3322.57
743.069	3409.56
743.258	3356.28
743.447	3426.81
743.636	3412.47
743.825	3383.99
744.014	3366.16
744.204	3457.61
744.393	3380.31
744.582	3441.53
744.771	3495.01
744.96	3423.13
745.149	3444.63
745.338	3389.03
745.527	3466.33
745.716	3402.4
745.905	3435.33
746.094	3425.84
746.283	3462.07
746.471	3424.09
746.66	3529.3
746.849	3487.84
747.038	3510.7
747.227	3437.85
747.416	3479.51
747.604	3446.18
747.793	3447.15
747.982	3471.56
748.171	3461.1
748.359	3455.29
748.548	3473.89
748.737	3444.44
748.926	3454.9
749.114	3391.35
749.303	3444.24
749.491	3440.95
749.68	3327.8
749.869	3426.81
750.057	3440.18
750.246	3406.46
750.434	3409.37
750.623	3394.26
750.811	3406.27
751	3432.04
751.188	3419.64
751.377	3438.43
751.565	3395.61
751.754	3367.71
751.942	3315.98
752.131	3437.46
752.319	3343.3
752.507	3350.86
752.696	3389.61
752.884	3436.11
753.072	3373.72
753.261	3383.8
753.449	3378.95
753.637	3359
753.825	3460.13
754.014	3355.51
754.202	3371.4
754.39	3407.05
754.578	3404.72
754.766	3323.54
754.955	3304.55
755.143	3405.69
755.331	3349.5
755.519	3321.02
755.707	3340.01
755.895	3295.45
756.083	3362.87
756.271	3247.78
756.459	3303.2
756.647	3316.37
756.835	3337.1
757.023	3272.39
757.211	3284.98
757.399	3266.77
757.587	3272.39
757.775	3240.42
757.963	3280.33
758.151	3234.8
758.339	3197.8
758.526	3190.44
758.714	3211.36
758.902	3123.98
759.09	3037.96
759.278	2839.95
759.465	2556.49
759.653	2264.13
759.841	2040.55
760.028	1730.94
760.216	1515.68
760.404	1421.14
760.591	1146.4
760.779	954.59
760.967	879.61
761.154	668.82
761.342	756.97
761.529	734.3
761.717	761.62
761.905	757.36
762.092	779.45
762.28	744.57
762.467	722.87
762.655	697.68
762.842	700.98
763.029	731.59
763.217	703.69
763.404	719.19
763.592	731.2
763.779	675.6
763.966	753.1
764.154	760.26
764.341	839.31
764.528	840.86
764.716	864.89
764.903	982.49
765.09	1003.22
765.277	1064.45
765.465	1190.19
765.652	1270.01
765.839	1312.44
766.026	1452.52
766.213	1517.43
766.4	1610.62
766.588	1814.06
766.775	1814.83
766.962	1913.45
767.149	2001.02
767.336	2138.97
767.523	2097.7
767.71	2233.32
767.897	2336.59
768.084	2431.14
768.271	2464.66
768.458	2511.35
768.645	2570.64
768.832	2602.61
769.019	2594.28
769.206	2652.98
769.392	2726.99
769.579	2818.83
769.766	2796.55
769.953	2766.9
770.14	2812.24
770.327	2839.17
770.513	2872.88
770.7	2912.6
770.887	2859.71
771.073	2889.93
771.26	2895.36
771.447	2845.37
771.634	2846.15
771.82	2932.56
772.007	2876.18
772.193	2927.91
772.38	2957.16
772.567	2885.86
772.753	2902.91
772.94	2930.04
773.126	2939.73
773.313	2939.92
773.499	2878.89
773.686	2926.75
773.872	2879.08
774.059	2930.81
774.245	2869.59
774.432	2893.23
774.618	2847.31
774.804	2893.23
774.991	2835.1
775.177	2881.99
775.363	2849.25
775.55	2878.89
775.736	2799.07
775.922	2818.44
776.109	2813.6
776.295	2857.19
776.481	2870.56
776.667	2868.04
776.853	2850.02
777.04	2785.89
777.226	2838.98
777.412	2874.43
777.598	2778.53
777.784	2800.42
777.97	2750.24
778.156	2801.78
778.342	2764
778.528	2809.72
778.715	2733.39
778.901	2769.62
779.087	2793.25
779.272	2729.51
779.458	2718.66
779.644	2734.74
779.83	2728.15
780.016	2792.67
780.202	2769.04
780.388	2744.82
780.574	2627.6
780.76	2699.67
780.946	2737.26
781.131	2707.04
781.317	2675.46
781.503	2640.97
781.689	2701.42
781.874	2784.92
782.06	2689.6
782.246	2707.62
782.432	2649.11
782.617	2676.81
782.803	2707.81
782.989	2633.41
783.174	2627.99
783.36	2543.32
783.545	2619.85
783.731	2636.32
783.916	2537.31
784.102	2640.19
784.288	2562.89
784.473	2617.72
784.659	2570.83
784.844	2606.87
785.029	2547.78
785.215	2543.32
785.4	2514.06
785.586	2596.21
785.771	2540.8
785.956	2562.11
786.142	2506.7
786.327	2525.88
786.512	2522.98
786.698	2483.26
786.883	2459.81
787.068	2471.44
787.254	2479
787.439	2485
787.624	2466.21
787.809	2428.43
787.994	2435.79
788.18	2493.53
788.365	2414.09
788.55	2432.69
788.735	2416.61
788.92	2369.92
789.105	2402.08
789.29	2401.5
789.475	2344.73
789.66	2353.84
789.845	2325.74
790.03	2368.95
790.215	2381.73
790.4	2361.78
790.585	2375.15
790.77	2333.1
790.955	2249.41
791.14	2326.32
791.325	2391.42
791.51	2270.52
791.695	2308.69
791.879	2305.2
792.064	2281.37
792.249	2361.39
792.434	2275.56
792.618	2316.25
792.803	2361.78
792.988	2345.31
793.173	2290.29
793.357	2332.52
793.542	2310.05
793.727	2286.99
793.911	2323.42
794.096	2293.97
794.281	2343.76
794.465	2434.43
794.65	2332.52
794.834	2375.34
795.019	2400.33
795.203	2395.3
795.388	2409.44
795.572	2423.39
795.757	2355.19
795.941	2380.77
796.126	2352.29
796.31	2262.39
796.494	2314.12
796.679	2306.56
796.863	2269.75
797.048	2386.38
797.232	2356.94
797.416	2365.27
797.601	2360.81
797.785	2395.49
797.969	2386.19
798.153	2347.05
798.338	2353.64
798.522	2401.3
798.706	2391.62
798.89	2373.79
799.074	2468.92
799.258	2435.6
799.443	2377.86
799.627	2363.33
799.811	2409.83
799.995	2368.95
800.179	2364.1
800.363	2305.59
800.547	2382.12
800.731	2392.58
800.915	2309.66
801.099	2335.04
801.283	2317.02
801.467	2395.49
801.651	2300.75
801.835	2407.5
802.019	2374.76
802.202	2364.1
802.386	2304.24
802.57	2318.96
802.754	2330.59
802.938	2278.66
803.121	2316.05
803.305	2379.22
803.489	2368.37
803.673	2319.93
803.856	2354.03
804.04	2353.84
804.224	2377.47
804.407	2356.16
804.591	2340.66
804.775	2337.75
804.958	2345.12
805.142	2469.89
805.326	2347.25
805.509	2354.03
805.693	2368.75
805.876	2398.2
806.06	2382.7
806.243	2457.1
806.427	2437.73
806.61	2423.2
806.794	2349.77
806.977	2403.05
807.16	2402.85
807.344	2400.92
807.527	2392.78
807.71	2374.37
807.894	2409.63
808.077	2383.48
808.26	2359.45
808.444	2340.47
808.627	2405.37
808.81	2325.35
808.993	2281.18
809.177	2276.53
809.36	2313.34
809.543	2324.39
809.726	2229.84
809.909	2230.42
810.092	2195.35
810.276	2218.99
810.459	2231.39
810.642	2204.46
810.825	2123.66
811.008	2167.64
811.191	2083.17
811.374	2115.53
811.557	2109.91
811.74	2172.29
811.923	2075.03
812.106	2034.54
812.289	2010.32
812.472	2020.01
812.654	2019.23
812.837	2014.78
813.02	1924.1
813.203	1911.9
813.386	1818.71
813.569	1839.05
813.751	1796.04
813.934	1814.06
814.117	1776.47
814.3	1733.07
814.482	1692.58
814.665	1640.26
814.848	1626.51
815.03	1582.53
815.213	1538.55
815.396	1550.17
815.578	1550.95
815.761	1497.08
815.943	1550.75
816.126	1494.57
816.309	1429.66
816.491	1354.87
816.674	1322.52
816.856	1404.67
817.039	1402.34
817.221	1460.66
817.403	1392.46
817.586	1444.58
817.768	1443.61
817.951	1383.94
818.133	1334.14
818.315	1396.14
818.498	1441.87
818.68	1496.5
818.862	1435.47
819.045	1481.59
819.227	1435.67
819.409	1448.26
819.591	1464.34
819.774	1433.54
819.956	1428.69
820.138	1503.48
820.32	1440.12
820.502	1525.57
820.684	1606.75
820.866	1611.2
821.048	1660.8
821.231	1646.08
821.413	1640.26
821.595	1628.83
821.777	1660.22
821.959	1656.73
822.141	1696.26
822.323	1556.57
822.505	1506.58
822.686	1449.04
822.868	1391.88
823.05	1272.14
823.232	1267.69
823.414	1214.99
823.596	1283.77
823.778	1265.17
823.96	1305.08
824.141	1295.2
824.323	1335.5
824.505	1417.26
824.687	1453.49
824.868	1516.65
825.05	1604.81
825.232	1600.74
825.413	1624.18
825.595	1615.08
825.777	1527.5
825.958	1593.38
826.14	1563.35
826.321	1619.73
826.503	1580.98
826.685	1582.33
826.866	1628.83
827.048	1608.68
827.229	1573.03
827.411	1508.13
827.592	1496.7
827.773	1499.99
827.955	1463.18
828.136	1476.35
828.318	1400.79
828.499	1451.55
828.68	1391.49
828.862	1455.43
829.043	1445.55
829.224	1445.16
829.406	1404.28
829.587	1406.22
829.768	1423.46
829.949	1462.4
830.131	1412.42
830.312	1499.8
830.493	1423.07
830.674	1436.64
830.855	1417.07
831.036	1419.39
831.218	1504.06
831.399	1484.49
831.58	1450.97
831.761	1457.75
831.942	1448.26
832.123	1445.74
832.304	1387.04
832.485	1423.85
832.666	1445.16
832.847	1451.36
833.028	1436.83
833.209	1435.28
833.389	1406.41
833.57	1381.42
833.751	1380.84
833.932	1461.44
834.113	1449.81
834.294	1405.25
834.475	1472.09
834.655	1469.38
834.836	1510.07
835.017	1518.98
835.198	1470.35
835.378	1449.81
835.559	1502.7
835.74	1441.09
835.92	1471.7
836.101	1460.08
836.281	1507.74
836.462	1494.76
836.643	1526.73
836.823	1502.51
837.004	1506.58
837.184	1564.7
837.365	1509.48
837.545	1532.73
837.726	1488.75
837.906	1559.47
838.087	1505.8
838.267	1500.96
838.448	1439.54
838.628	1501.54
838.808	1499.99
838.989	1585.43
839.169	1494.57
839.349	1556.57
839.53	1544.75
839.71	1561.22
839.89	1487.59
840.07	1546.68
840.251	1525.37
840.431	1507.35
840.611	1549.01
840.791	1476.35
840.971	1523.63
841.151	1497.47
841.332	1501.73
841.512	1553.08
841.692	1449.42
841.872	1538.16
842.052	1512.78
842.232	1498.44
842.412	1432.18
842.592	1537.38
842.772	1528.28
842.952	1544.55
843.132	1475.77
843.312	1501.73
843.492	1466.09
843.672	1537.77
843.851	1410.67
844.031	1466.09
844.211	1472.48
844.391	1461.44
844.571	1450.2
844.751	1470.15
844.93	1492.82
845.11	1435.09
845.29	1493.02
845.47	1493.6
845.649	1464.54
845.829	1522.66
846.009	1469.19
846.188	1486.82
846.368	1475.19
846.547	1467.44
846.727	1506
846.907	1431.21
847.086	1474.61
847.266	1477.13
847.445	1441.48
847.625	1433.54
847.804	1412.61
847.984	1437.02
848.163	1413.19
848.343	1437.8
848.522	1457.56
848.701	1445.55
848.881	1375.41
849.06	1403.31
849.239	1440.51
849.419	1426.56
849.598	1353.32
849.777	1369.79
849.957	1345.19
850.136	1324.84
850.315	1280.67
850.494	1308.96
850.674	1309.73
850.853	1348.09
851.032	1328.33
851.211	1364.76
851.39	1333.76
851.569	1311.09
851.748	1302.37
851.927	1369.02
852.107	1324.46
852.286	1279.7
852.465	1313.41
852.644	1363.59
852.823	1346.35
853.002	1319.61
853.181	1310.7
853.359	1335.5
853.538	1272.73
853.717	1353.13
853.896	1239.01
854.075	1214.41
854.254	1195.23
854.433	1106.3
854.611	1154.15
854.79	1118.5
854.969	1160.35
855.148	1160.35
855.327	1153.76
855.505	1204.33
855.684	1177.01
855.863	1204.14
856.041	1170.62
856.22	1224.87
856.399	1197.75
856.577	1266.53
856.756	1292.49
856.934	1365.34
857.113	1355.07
857.291	1256.84
857.47	1245.21
857.648	1265.56
857.827	1269.24
858.005	1318.64
858.184	1275.63
858.362	1348.48
858.541	1284.16
858.719	1262.26
858.898	1268.66
859.076	1247.54
859.254	1281.64
859.433	1245.41
859.611	1214.99
859.789	1205.3
859.967	1316.51
860.146	1311.67
860.324	1208.6
860.502	1254.32
860.68	1218.28
860.859	1216.35
861.037	1197.75
861.215	1254.9
861.393	1219.25
861.571	1217.31
861.749	1189.8
861.927	1264.78
862.105	1233.2
862.283	1185.35
862.461	1188.64
862.639	1202.78
862.817	1207.63
862.995	1198.13
863.173	1189.03
863.351	1176.24
863.529	1185.93
863.707	1243.28
863.885	1185.73
864.063	1132.26
864.241	1205.88
864.418	1205.88
864.596	1173.14
864.774	1136.33
864.952	1144.08
865.129	1181.08
865.307	1138.07
865.485	1100.1
865.663	1187.48
865.84	1113.66
866.018	1103.39
866.196	990.44
866.373	1036.55
866.551	1018.34
866.728	960.99
866.906	1005.94
867.084	1043.14
867.261	1047.98
867.439	1062.9
867.616	1080.92
867.794	1083.05
867.971	1053.21
868.149	1083.43
868.326	1137.88
868.503	1104.36
868.681	1121.02
868.858	1067.93
869.035	1068.32
869.213	1129.16
869.39	1096.61
869.567	1122.96
869.745	1073.17
869.922	1060.96
870.099	1117.15
870.276	1111.53
870.454	1112.5
870.631	1091.77
870.808	1048.37
870.985	1091.38
871.162	1131.1
871.339	1073.55
871.517	1048.95
871.694	1031.51
871.871	1047.98
872.048	1065.22
872.225	1045.07
872.402	1071.23
872.579	1033.25
872.756	1045.07
872.933	1011.94
873.11	1084.4
873.287	1080.14
873.463	995.28
873.64	1014.85
873.817	1042.55
873.994	1063.87
874.171	1003.03
874.348	1050.3
874.524	952.07
874.701	1015.43
874.878	959.44
875.055	1008.65
875.231	1018.92
875.408	1034.61
875.585	998.38
875.762	1034.03
875.938	1009.62
876.115	993.34
876.291	1014.27
876.468	976.1
876.645	947.62
876.821	968.93
876.998	944.13
877.174	976.1
877.351	947.62
877.527	945.87
877.704	945.68
877.88	973.58
878.057	950.14
878.233	1002.25
878.409	955.56
878.586	981.33
878.762	956.72
878.938	954.98
879.115	889.88
879.291	935.99
879.467	885.04
879.644	944.13
879.82	965.25
879.996	890.27
880.172	913.91
880.349	917.59
880.525	937.16
880.701	889.49
880.877	865.66
881.053	913.32
881.229	894.14
881.405	930.37
881.581	895.5
881.757	906.16
881.933	945.29
882.109	911.58
882.285	924.56
882.461	867.21
882.637	884.26
882.813	885.81
882.989	885.62
883.165	970.29
883.341	900.15
883.517	920.88
883.693	921.85
883.869	947.81
884.044	855.78
884.22	939.09
884.396	936.38
884.572	918.56
884.747	938.32
884.923	929.6
885.099	917.01
885.275	921.27
885.45	891.04
885.626	904.22
885.801	855.59
885.977	910.22
886.153	835.83
886.328	889.69
886.504	898.99
886.679	904.22
886.855	878.06
887.03	922.04
887.206	910.42
887.381	917.01
887.557	910.42
887.732	901.12
887.908	923.21
888.083	941.22
888.258	854.81
888.434	870.89
888.609	886.78
888.784	935.8
888.96	861.59
889.135	854.62
889.31	888.52
889.485	889.49
889.661	885.81
889.836	947.04
890.011	891.62
890.186	877.09
890.361	863.92
890.537	923.79
890.712	905.77
890.887	873.41
891.062	882.91
891.237	942
891.412	863.14
891.587	904.61
891.762	908.48
891.937	911
892.112	842.41
892.287	908.09
892.462	836.21
892.637	802.31
892.812	789.52
892.987	807.34
893.161	780.61
893.336	818.19
893.511	812.19
893.686	829.04
893.861	813.35
894.035	811.03
894.21	811.03
894.385	748.83
894.56	787.58
894.734	758.33
894.909	719.58
895.084	723.84
895.258	746.7
895.433	732.56
895.608	736.63
895.782	656.42
895.957	667.65
896.131	672.5
896.306	638.4
896.48	625.8
896.655	612.82
896.829	549.47
897.004	582.6
897.178	598.1
897.353	557.6
897.527	601.59
897.701	606.43
897.876	529.51
898.05	626.19
898.224	609.53
898.399	619.22
898.573	601.97
898.747	487.47
898.921	545.98
899.096	428.76
899.27	457.63
899.444	461.31
899.618	498.12
899.792	516.53
899.967	494.44
900.141	580.08
900.315	470.22
900.489	510.52
900.663	530.87
900.837	511.11
901.011	451.24
901.185	565.94
901.359	503.55
901.533	523.12
901.707	503.36
901.881	500.64
902.055	462.86
902.229	485.53
902.403	507.23
902.576	508.97
902.75	524.09
902.924	579.5
903.098	543.85
903.272	602.55
903.446	652.73
903.619	622.12
903.793	630.45
903.967	624.25
904.14	683.54
904.314	668.43
904.488	658.93
904.661	660.29
904.835	675.6
905.009	678.5
905.182	709.89
905.356	667.27
905.529	659.52
905.703	646.34
905.876	605.65
906.05	598.1
906.223	547.34
906.397	539.97
906.57	521.96
906.744	502.58
906.917	528.35
907.09	482.82
907.264	491.54
907.437	473.32
907.61	447.36
907.784	459.57
907.957	515.76
908.13	443.1
908.304	487.86
908.477	424.11
908.65	457.63
908.823	401.44
908.996	498.12
909.17	405.71
909.343	440.39
909.516	443.1
909.689	400.86
909.862	437.09
910.035	464.22
910.208	380.91
910.381	430.89
910.554	508.78
910.727	432.64
910.9	434.96
911.073	417.33
911.246	507.04
911.419	497.16
911.592	456.08
911.765	420.04
911.938	420.24
912.11	410.94
912.283	455.69
912.456	501.03
912.629	468.29
912.802	412.88
912.974	366.76
913.147	361.92
913.32	322.2
913.493	339.06
913.665	383.62
913.838	399.12
914.01	389.43
914.183	397.76
914.356	383.81
914.528	409.97
914.701	431.67
914.873	417.53
915.046	352.81
915.218	344.48
915.391	320.26
915.563	312.71
915.736	379.74
915.908	392.53
916.081	372.19
916.253	408.03
916.425	385.75
916.598	404.93
916.77	404.93
916.942	344.87
917.115	312.51
917.287	363.47
917.459	341.96
917.632	310
917.804	284.61
917.976	377.03
918.148	382.46
918.32	353.59
918.493	408.42
918.665	411.71
918.837	407.64
919.009	421.01
919.181	446.2
919.353	393.31
919.525	416.75
919.697	401.83
919.869	406.09
920.041	443.49
920.213	498.32
920.385	452.98
920.557	400.09
920.729	416.56
920.901	429.73
921.073	437.67
921.244	382.07
921.416	445.62
921.588	412.29
921.76	419.66
921.932	460.54
922.103	420.24
922.275	396.21
922.447	431.28
922.619	356.88
922.79	384.78
922.962	377.23
923.134	405.51
923.305	333.05
923.477	349.13
923.648	343.9
923.82	350.49
923.991	306.31
924.163	309.41
924.335	329.56
924.506	324.53
924.677	393.11
924.849	329.95
925.02	355.53
925.192	361.34
925.363	358.43
925.535	333.05
925.706	302.63
925.877	360.37
926.049	327.05
926.22	335.18
926.391	330.53
926.562	378.58
926.734	290.62
926.905	372.77
927.076	275.9
927.247	311.55
927.419	261.75
927.59	276.48
927.761	279.77
927.932	260.59
928.103	284.23
928.274	236.18
928.445	221.45
928.616	239.28
928.787	228.04
928.958	286.55
929.129	250.32
929.3	204.79
929.471	187.16
929.642	172.24
929.813	122.06
929.984	236.95
930.155	140.85
930.326	187.35
930.496	147.44
930.667	92.8
930.838	139.3
931.009	112.18
931.18	110.05
931.35	119.74
931.521	105.2
931.692	97.84
931.863	62.19
932.033	84.09
932.204	69.94
932.374	85.06
932.545	57.54
932.716	140.08
932.886	106.56
933.057	59.48
933.227	29.06
933.398	122.06
933.568	48.82
933.739	14.34
933.909	29.26
934.08	80.6
934.25	-13.76
934.421	21.89
934.591	49.41
934.761	20.73
934.932	8.91
935.102	35.65
935.272	18.02
935.443	18.21
935.613	28.29
935.783	41.85
935.953	2.13
936.123	147.83
936.294	-7.36
936.464	37.39
936.634	18.21
936.804	-8.72
936.974	10.85
937.144	38.17
937.314	35.65
937.484	19.18
937.655	19.76
937.825	61.81
937.995	8.14
938.165	61.42
938.334	29.06
938.504	44.37
938.674	43.4
938.844	62
939.014	73.82
939.184	106.37
939.354	143.18
939.524	129.04
939.694	46.89
939.863	76.72
940.033	111.4
940.203	104.43
940.373	93.77
940.542	113.15
940.712	73.24
940.882	99.2
941.051	98.42
941.221	93.39
941.391	119.74
941.56	59.67
941.73	70.14
941.899	152.67
942.069	34.87
942.238	90.29
942.408	58.51
942.577	119.54
942.747	58.32
942.916	21.31
943.086	50.76
943.255	120.51
943.425	74.79
943.594	28.67
943.763	12.4
943.933	36.42
944.102	-14.14
944.271	36.81
944.441	55.02
944.61	52.89
944.779	21.51
944.948	115.28
945.117	11.82
945.287	66.07
945.456	9.49
945.625	10.66
945.794	65.29
945.963	54.44
946.132	63.74
946.301	13.56
946.47	86.02
946.639	0.19
946.808	44.95
946.977	57.74
947.146	116.83
947.315	60.64
947.484	68.01
947.653	27.71
947.822	29.84
947.991	36.62
948.16	114.5
948.329	88.15
948.498	62.39
948.666	73.62
948.835	59.09
949.004	33.52
949.173	2.91
949.341	49.79
949.51	65.68
949.679	95.13
949.847	91.25
950.016	152.29
950.185	72.46
950.353	11.82
950.522	47.47
950.69	99.78
950.859	17.63
951.028	87.57
951.196	44.56
951.365	31.97
951.533	48.05
951.701	63.36
951.87	83.12
952.038	-2.71
952.207	27.9
952.375	108.11
952.543	48.63
952.712	46.89
952.88	55.41
953.048	116.05
953.217	43.59
953.385	49.02
953.553	80.02
953.721	17.05
953.89	59.67
954.058	12.98
954.226	49.99
954.394	45.34
954.562	29.26
954.73	69.75
954.898	53.86
955.067	73.43
955.235	40.11
955.403	95.71
955.571	124.97
955.739	68.39
955.907	34.87
956.075	27.9
956.243	27.51
956.41	94.74
956.578	-0.97
956.746	17.63
956.914	31.39
957.082	68.2
957.25	65.68
957.418	42.62
957.585	77.5
957.753	102.49
957.921	46.31
958.089	57.54
958.256	66.84
958.424	78.47
958.592	68.78
958.759	24.61
958.927	59.29
959.095	59.87
959.262	57.16
959.43	53.67
959.597	35.07
959.765	41.07
959.932	3.49
960.1	66.26
960.267	21.31
960.435	30.22
960.602	103.85
960.77	17.82
960.937	40.88
961.104	67.62
961.272	9.11
961.439	42.82
961.606	85.25
961.774	53.86
961.941	32.74
962.108	59.87
962.275	67.62
962.443	98.62
962.61	54.25
962.777	133.1
962.944	85.83
963.111	93
963.278	68.78
963.446	51.15
963.613	74.79
963.78	75.56
963.947	97.45
964.114	72.66
964.281	119.54
964.448	122.64
964.615	54.64
964.782	82.15
964.949	108.5
965.116	88.54
965.282	106.95
965.449	66.26
965.616	64.52
965.783	96.49
965.95	63.94
966.117	35.84
966.283	59.29
966.45	95.9
966.617	69.17
966.784	109.47
966.95	97.45
967.117	110.82
967.284	57.16
967.45	67.81
967.617	109.66
967.784	79.05
967.95	141.05
968.117	89.7
968.283	130.59
968.45	187.55
968.616	103.85
968.783	130.59
968.949	120.32
969.116	113.73
969.282	102.49
969.449	130.39
969.615	80.41
969.781	59.87
969.948	87.77
970.114	66.26
970.28	143.18
970.447	101.14
970.613	141.63
970.779	92.61
970.945	89.32
971.112	89.12
971.278	80.02
971.444	86.02
971.61	97.07
971.776	89.12
971.942	99.78
972.108	111.79
972.275	84.86
972.441	128.45
972.607	132.14
972.773	67.81
972.939	115.09
973.105	63.74
973.271	67.23
973.437	81.57
973.602	57.54
973.768	99.2
973.934	124.58
974.1	99.2
974.266	32.55
974.432	79.82
974.598	85.64
974.763	119.74
974.929	67.04
975.095	111.21
975.261	60.45
975.426	42.62
975.592	40.3
975.758	140.08
975.923	56.77
976.089	42.04
976.255	106.95
976.42	102.1
976.586	103.46
976.751	106.56
976.917	156.16
977.082	104.62
977.248	36.62
977.413	36.42
977.579	45.53
977.744	75.56
977.91	26.16
978.075	61.22
978.24	92.42
978.406	90.48
978.571	76.53
978.736	52.89
978.902	85.83
979.067	26.93
979.232	17.63
979.397	99.2
979.563	129.42
979.728	30.61
979.893	84.47
980.058	61.03
980.223	120.51
980.388	86.61
980.554	91.06
980.719	82.73
980.884	67.81
981.049	122.64
981.214	57.74
981.379	101.14
981.544	60.45
981.709	96.87
981.874	56.96
982.039	84.28
982.204	95.71
982.368	62.19
982.533	36.23
982.698	81.96
982.863	134.27
983.028	80.6
983.193	88.74
983.357	81.76
983.522	60.64
983.687	79.05
983.852	70.33
984.016	81.76
984.181	80.6
984.346	65.49
984.51	91.84
984.675	77.89
984.839	109.66
985.004	80.41
985.168	111.21
985.333	78.47
985.498	70.72
985.662	90.67
985.827	104.82
985.991	96.49
986.155	72.27
986.32	82.15
986.484	132.72
986.649	92.22
986.813	32.55
986.977	97.65
987.142	82.92
987.306	41.66
987.47	57.35
987.634	52.31
987.799	102.49
987.963	80.21
988.127	99.78
988.291	156.35
988.455	81.18
988.62	33.32
988.784	95.13
988.948	75.95
989.112	53.67
989.276	95.52
989.44	104.43
989.604	64.71
989.768	46.5
989.932	165.07
990.096	41.07
990.26	36.42
990.424	27.71
990.588	51.15
990.752	132.33
990.915	65.49
991.079	65.68
991.243	73.43
991.407	91.64
991.571	75.76
991.734	68.59
991.898	86.61
992.062	155.77
992.226	60.06
992.389	50.96
992.553	31
992.717	41.46
992.88	73.82
993.044	63.94
993.207	74.4
993.371	90.67
993.535	76.72
993.698	59.09
993.862	114.89
994.025	113.54
994.189	62.97
994.352	74.79
994.515	90.29
994.679	93
994.842	51.73
995.006	88.35
995.169	52.51
995.332	29.84
995.496	73.43
995.659	19.76
995.822	49.79
995.985	61.81
996.149	115.28
996.312	69.94
996.475	95.13
996.638	33.13
996.801	93.19
996.964	129.04
997.128	66.07
997.291	41.07
997.454	68.97
997.617	12.59
997.78	112.18
997.943	60.45
998.106	120.32
998.269	35.26
998.432	49.99
998.595	58.71
998.758	35.26
998.92	42.62
999.083	5.04
999.246	56.57
999.409	21.7
999.572	0.19
999.735	60.06
999.897	45.53
1000.06	31.97
1000.223	46.69
1000.386	97.07
1000.548	88.35
1000.711	66.07
1000.874	67.04
1001.036	10.27
1001.199	90.48
1001.361	30.22
1001.524	52.12
1001.687	80.79
1001.849	38.36
1002.012	62.97
1002.174	52.89
1002.337	57.54
1002.499	49.79
1002.661	92.61
1002.824	22.67
1002.986	29.26
1003.149	76.72
1003.311	23.06
1003.473	96.87
1003.636	43.98
1003.798	38.75
1003.96	66.07
1004.123	41.07
1004.285	7.17
1004.447	46.5
1004.609	31.39
1004.771	97.07
1004.933	-5.23
1005.096	4.84
1005.258	13.76
1005.42	6.39
1005.582	82.34
1005.744	62.97
1005.906	-0.77
1006.068	55.22
1006.23	9.3
1006.392	19.18
1006.554	31.58
1006.716	87.77
1006.878	56.38
1007.04	32.55
1007.202	43.4
1007.363	54.25
1007.525	61.61
1007.687	55.02
1007.849	82.15
1008.011	14.34
1008.172	31.58
1008.334	32.74
1008.496	60.45
1008.658	-11.24
1008.819	30.03
1008.981	-9.49
1009.143	24.22
1009.304	32.74
1009.466	42.62
1009.627	71.11
1009.789	114.7
1009.95	49.6
1010.112	18.02
1010.273	40.69
1010.435	37.39
1010.596	20.92
1010.758	25.57
1010.919	37.97
1011.081	12.21
1011.242	33.13
1011.403	45.92
1011.565	29.64
1011.726	61.61
1011.887	28.29
1012.049	23.44
1012.21	51.54
1012.371	98.62
1012.532	-16.27
1012.693	35.65
1012.855	16.08
1013.016	27.12
1013.177	53.67
1013.338	29.84
1013.499	81.18
1013.66	55.22
1013.821	46.69
1013.982	44.56
1014.143	39.91
1014.304	13.37
1014.465	41.46
1014.626	73.62
1014.787	39.14
1014.948	122.45
1015.109	-14.92
1015.27	51.92
1015.431	22.47
1015.592	25.38
1015.752	59.09
1015.913	34.87
1016.074	55.02
1016.235	32.36
1016.395	31.97
1016.556	6.78
1016.717	50.76
1016.877	71.69
1017.038	3.1
1017.199	59.87
1017.359	25.19
1017.52	32.16
1017.681	11.62
1017.841	33.13
1018.002	14.53
1018.162	4.46
1018.323	76.72
1018.483	23.83
1018.644	14.72
1018.804	-27.71
1018.964	-1.74
1019.125	0.97
1019.285	25.19
1019.446	3.68
1019.606	-15.11
1019.766	-31.19
1019.926	37.97
1020.087	48.05
1020.247	-3.1
1020.407	36.42
1020.567	70.91
1020.728	24.02
1020.888	16.47
1021.048	6.39
1021.208	2.32
1021.368	-12.4
1021.528	63.94
1021.688	69.36
1021.848	43.79
1022.008	15.69
1022.168	-12.01
1022.328	27.12
1022.488	49.79
1022.648	12.4
1022.808	34.49
1022.968	56.38
1023.128	-5.04
1023.288	-13.17
1023.448	10.85
1023.608	61.81
1023.767	48.05
1023.927	9.49
1024.087	-2.52
1024.247	-17.63
1024.406	18.6
1024.566	-8.52
1024.726	-9.11
1024.885	13.95
1025.045	12.4
1025.205	7.94
1025.364	8.72
1025.524	24.02
1025.683	0.19
1025.843	14.53
1026.003	26.93
1026.162	68.39
1026.321	33.91
1026.481	39.33
1026.64	38.17
1026.8	47.86
1026.959	41.46
1027.119	24.8
1027.278	23.83
1027.437	-9.69
1027.597	16.08
1027.756	30.22
1027.915	34.49
1028.074	41.85
1028.234	-15.31
1028.393	24.61
1028.552	13.37
1028.711	-62.58
1028.87	33.32
1029.03	-17.24
1029.189	32.36
1029.348	-24.61
1029.507	6.59
1029.666	-0.58
1029.825	-18.79
1029.984	-0.58
1030.143	39.33
1030.302	-6.78
1030.461	-47.66
1030.62	7.75
1030.779	21.89
1030.938	-6.39
1031.097	-3.87
1031.255	35.26
1031.414	55.61
1031.573	42.24
1031.732	-36.81
1031.891	2.71
1032.049	74.01
1032.208	31.58
1032.367	-41.07
1032.525	3.29
1032.684	22.28
1032.843	0.77
1033.001	-37.59
1033.16	107.53
1033.319	55.99
1033.477	14.34
1033.636	4.84
1033.794	-37.39
1033.953	52.31
1034.111	22.86
1034.27	-24.61
1034.428	22.09
1034.587	-17.24
1034.745	10.07
1034.903	31.19
1035.062	19.57
1035.22	-16.47
1035.378	25.19
1035.537	-26.16
1035.695	31.77
1035.853	-2.91
1036.011	44.17
1036.17	25.77
1036.328	-43.21
1036.486	-26.35
1036.644	10.66
1036.802	-72.85
1036.96	-19.57
1037.119	7.94
1037.277	-16.47
1037.435	-41.66
1037.593	-20.92
1037.751	-5.23
1037.909	28.48
1038.067	28.48
