Data from gum_young_FLMT105791__74__17-39-32-043.txt Node

Date: Mon Mar 20 17:39:32 GMT 2023
User: antho
Spectrometer: FLMT10579
Trigger mode: 0
Integration Time (sec): 1.000000E-1
Scans to average: 10
Electric dark correction enabled: true
Nonlinearity correction enabled: false
Boxcar width: 0
XAxis mode: Wavelengths
Number of Pixels in Spectrum: 3648
>>>>>Begin Spectral Data<<<<<
345.248	-152.64
345.464	-152.64
345.681	-152.64
345.898	-157.68
346.114	-136.75
346.331	-30.77
346.548	23.48
346.764	-6.56
346.981	5.07
347.197	-16.24
347.414	13.21
347.631	-21.47
347.847	60.68
348.064	-21.28
348.28	37.62
348.497	-28.25
348.713	-15.47
348.93	12.63
349.146	40.14
349.363	7.59
349.579	21.15
349.796	-9.07
350.012	-12.56
350.229	13.98
350.445	-19.15
350.661	-35.42
350.878	7.98
351.094	18.44
351.311	-2.1
351.527	16.31
351.743	-18.76
351.96	9.53
352.176	35.68
352.392	16.11
352.609	32
352.825	-11.59
353.041	-9.07
353.257	-13.34
353.474	20.18
353.69	-0.16
353.906	-7.52
354.122	-24.96
354.339	37.23
354.555	4.68
354.771	-9.27
354.987	40.53
355.203	50.02
355.42	8.56
355.636	-14.89
355.852	-21.28
356.068	-11.98
356.284	-38.91
356.5	40.33
356.716	20.57
356.932	-10.04
357.148	25.61
357.364	7.01
357.58	45.76
357.796	56.61
358.012	58.54
358.228	6.23
358.444	-61.97
358.66	38.78
358.876	8.36
359.092	-8.3
359.308	4.88
359.524	33.16
359.74	-8.69
359.956	-22.05
360.172	-1.13
360.388	46.14
360.604	-6.94
360.819	65.91
361.035	1.97
361.251	11.27
361.467	-9.66
361.683	37.04
361.898	16.31
362.114	31.81
362.33	-2.68
362.546	32.97
362.762	-25.15
362.977	19.02
363.193	-14.31
363.409	38.78
363.624	-29.61
363.84	-26.51
364.056	6.81
364.271	27.54
364.487	17.47
364.703	-16.82
364.918	-19.92
365.134	-11.01
365.35	7.39
365.565	107.37
365.781	26.38
365.996	15.92
366.212	34.52
366.427	4.1
366.643	12.82
366.858	11.66
367.074	-8.69
367.289	54.67
367.505	90.32
367.72	-13.14
367.936	26.38
368.151	30.26
368.367	12.24
368.582	19.21
368.798	1
369.013	71.91
369.228	-5.2
369.444	13.21
369.659	61.45
369.874	39.75
370.09	70.36
370.305	-33.87
370.52	10.69
370.736	57.38
370.951	-2.29
371.166	64.55
371.381	50.79
371.597	13.98
371.812	-31.74
372.027	-4.62
372.242	20.57
372.458	29.29
372.673	-1.13
372.888	-8.49
373.103	17.66
373.318	72.3
373.533	39.75
373.749	51.18
373.964	-43.75
374.179	85.47
374.394	-15.85
374.609	65.91
374.824	-4.04
375.039	45.76
375.254	-10.04
375.469	34.33
375.684	29.29
375.899	58.93
376.114	22.12
376.329	44.21
376.544	39.36
376.759	38.01
376.974	-2.29
377.189	-1.71
377.404	-1.91
377.619	43.82
377.834	-41.43
378.049	-4.81
378.264	-27.29
378.478	25.8
378.693	33.16
378.908	50.41
379.123	3.91
379.338	68.62
379.553	49.24
379.767	14.37
379.982	36.07
380.197	49.24
380.412	38.98
380.626	57.38
380.841	95.55
381.056	55.25
381.271	62.23
381.485	4.68
381.7	0.81
381.915	41.49
382.129	29.87
382.344	46.53
382.559	17.66
382.773	37.04
382.988	-22.64
383.202	21.93
383.417	-19.73
383.632	83.15
383.846	13.01
384.061	30.84
384.275	19.79
384.49	34.91
384.704	47.31
384.919	31.03
385.133	-1.32
385.348	45.76
385.562	8.75
385.777	63.58
385.991	14.95
386.206	-8.3
386.42	21.54
386.634	42.85
386.849	49.63
387.063	50.41
387.277	6.04
387.492	13.79
387.706	-3.65
387.92	12.04
388.135	65.33
388.349	44.98
388.563	34.91
388.778	34.33
388.992	49.44
389.206	75.79
389.42	78.89
389.635	14.76
389.849	57.19
390.063	50.41
390.277	62.61
390.491	90.9
390.706	57.58
390.92	53.51
391.134	23.48
391.348	44.21
391.562	-11.01
391.776	26.19
391.99	3.91
392.205	66.49
392.419	24.64
392.633	25.03
392.847	61.64
393.061	8.36
393.275	77.14
393.489	24.44
393.703	27.74
393.917	76.17
394.131	0.03
394.345	42.46
394.559	89.16
394.773	42.08
394.986	33.94
395.2	48.47
395.414	74.24
395.628	9.91
395.842	32.58
396.056	31.23
396.27	-13.72
396.484	56.22
396.697	36.46
396.911	79.86
397.125	56.99
397.339	89.74
397.553	37.43
397.766	95.74
397.98	57.19
398.194	61.64
398.408	19.41
398.621	55.25
398.835	73.66
399.049	69.01
399.262	98.26
399.476	77.72
399.69	63.97
399.903	90.32
400.117	44.21
400.331	86.44
400.544	30.26
400.758	143.79
400.971	64.36
401.185	98.07
401.398	7.59
401.612	115.31
401.826	91.87
402.039	87.41
402.253	49.05
402.466	66.68
402.68	56.61
402.893	100.59
403.106	72.88
403.32	104.27
403.533	91.48
403.747	69.01
403.96	82.96
404.174	92.06
404.387	43.82
404.6	72.3
404.814	123.84
405.027	73.66
405.24	71.33
405.454	69.39
405.667	108.53
405.88	15.92
406.094	76.56
406.307	99.42
406.52	94.58
406.733	56.61
406.947	64.74
407.16	113.18
407.373	114.15
407.586	25.61
407.799	34.91
408.012	99.62
408.226	80.82
408.439	110.86
408.652	48.47
408.865	125
409.078	92.26
409.291	92.84
409.504	43.43
409.717	75.21
409.93	114.92
410.143	89.74
410.357	34.91
410.57	27.54
410.783	77.72
410.996	75.79
411.209	81.41
411.421	128.49
411.634	74.24
411.847	69.01
412.06	74.62
412.273	110.47
412.486	93.81
412.699	180.02
412.912	87.41
413.125	106.59
413.338	91.09
413.55	112.79
413.763	77.14
413.976	92.06
414.189	73.46
414.402	82.57
414.615	137.98
414.827	76.17
415.04	115.12
415.253	101.36
415.466	137.21
415.678	135.85
415.891	74.43
416.104	101.94
416.316	92.26
416.529	78.31
416.742	146.89
416.954	135.46
417.167	129.84
417.38	110.08
417.592	140.89
417.805	70.94
418.017	42.85
418.23	119.96
418.442	78.31
418.655	113.37
418.868	100.59
419.08	146.12
419.293	139.72
419.505	106.98
419.718	128.29
419.93	145.92
420.142	89.35
420.355	137.01
420.567	142.82
420.78	122.87
420.992	109.5
421.205	172.85
421.417	87.61
421.629	79.27
421.842	79.86
422.054	67.46
422.266	129.07
422.479	153.48
422.691	88.57
422.903	157.36
423.115	81.41
423.328	102.33
423.54	124.81
423.752	125.97
423.964	85.28
424.177	151.74
424.389	102.72
424.601	226.33
424.813	122.29
425.025	164.91
425.238	178.67
425.45	107.95
425.662	118.22
425.874	387.72
426.086	136.43
426.298	149.22
426.51	146.12
426.722	125.97
426.934	108.34
427.146	153.09
427.358	102.52
427.57	153.48
427.782	112.41
427.994	127.32
428.206	63.97
428.418	91.09
428.63	148.44
428.842	154.84
429.054	152.32
429.266	166.27
429.478	97.68
429.69	132.75
429.902	66.29
430.114	165.88
430.325	121.12
430.537	86.64
430.749	104.46
430.961	70.94
431.173	111.82
431.384	142.63
431.596	40.14
431.808	119.38
432.02	144.37
432.231	149.41
432.443	167.04
432.655	150.38
432.867	112.02
433.078	143.79
433.29	208.31
433.502	175.37
433.713	200.75
433.925	160.84
434.136	165.3
434.348	115.7
434.56	113.57
434.771	230.59
434.983	115.51
435.194	128.1
435.406	149.41
435.617	200.95
435.829	211.22
436.04	197.46
436.252	185.84
436.463	208.31
436.675	208.7
436.886	162.39
437.098	182.93
437.309	219.55
437.521	185.06
437.732	175.57
437.943	176.15
438.155	172.27
438.366	144.18
438.578	230.01
438.789	178.67
439	195.14
439.211	184.87
439.423	185.45
439.634	193.97
439.845	191.26
440.057	153.29
440.268	207.15
440.479	165.3
440.69	183.32
440.902	177.12
441.113	188.16
441.324	174.4
441.535	213.74
441.746	245.9
441.957	176.73
442.168	158.32
442.38	234.85
442.591	233.69
442.802	158.91
443.013	182.15
443.224	212.38
443.435	205.21
443.646	192.81
443.857	168.4
444.068	193.59
444.279	201.14
444.49	267.21
444.701	193
444.912	271.28
445.123	234.47
445.334	220.32
445.545	226.52
445.756	192.62
445.967	210.44
446.178	214.9
446.388	260.82
446.599	244.54
446.81	247.25
447.021	190.87
447.232	235.24
447.443	273.02
447.653	231.37
447.864	263.53
448.075	235.44
448.286	256.75
448.496	226.14
448.707	280.19
448.918	212.19
449.129	323.59
449.339	220.32
449.55	263.53
449.761	222.65
449.971	291.23
450.182	238.54
450.393	283.29
450.603	231.17
450.814	260.82
451.024	263.92
451.235	268.95
451.446	314.87
451.656	339.67
451.867	251.9
452.077	304.41
452.288	319.52
452.498	315.07
452.709	264.3
452.919	280.77
453.13	243.19
453.34	278.83
453.55	223.62
453.761	269.53
453.971	260.62
454.182	270.31
454.392	281.55
454.602	326.69
454.813	269.92
455.023	284.65
455.233	219.74
455.444	285.42
455.654	223.62
455.864	252.48
456.075	269.92
456.285	239.7
456.495	270.12
456.705	302.28
456.916	295.69
457.126	321.65
457.336	277.28
457.546	232.92
457.756	262.95
457.967	324.17
458.177	264.11
458.387	289.88
458.597	260.82
458.807	283.87
459.017	241.83
459.227	271.08
459.437	280.19
459.647	337.15
459.857	306.93
460.068	260.43
460.278	308.28
460.488	311
460.698	315.84
460.908	287.75
461.117	269.53
461.327	278.06
461.537	299.37
461.747	327.85
461.957	307.12
462.167	422.79
462.377	336.57
462.587	288.72
462.797	360.6
463.007	309.45
463.216	307.51
463.426	367.38
463.636	348.78
463.846	267.21
464.056	294.72
464.265	335.99
464.475	283.87
464.685	301.12
464.895	333.47
465.104	315.65
465.314	343.74
465.524	302.67
465.733	263.14
465.943	418.72
466.153	388.69
466.362	343.93
466.572	352.65
466.782	330.37
466.991	344.32
467.201	376.1
467.41	263.33
467.62	340.25
467.829	349.36
468.039	385.4
468.249	319.52
468.458	321.65
468.668	354.78
468.877	345.29
469.086	405.35
469.296	379.58
469.505	309.45
469.715	404.96
469.924	376.29
470.134	380.36
470.343	418.33
470.552	351.68
470.762	338.7
470.971	353.62
471.18	364.86
471.39	375.71
471.599	332.89
471.808	393.92
472.018	366.21
472.227	417.17
472.436	380.55
472.645	405.35
472.855	351.68
473.064	445.46
473.273	411.94
473.482	402.45
473.691	399.93
473.901	444.1
474.11	377.65
474.319	477.43
474.528	414.85
474.737	484.4
474.946	416.01
475.155	443.91
475.364	466.77
475.573	437.13
475.783	458.05
475.992	429.18
476.201	449.33
476.41	429.76
476.619	385.01
476.828	443.13
477.037	391.6
477.245	422.79
477.454	509.2
477.663	459.41
477.872	431.7
478.081	522.37
478.29	412.13
478.499	525.09
478.708	490.99
478.917	542.14
479.125	482.27
479.334	489.24
479.543	463.67
479.752	477.43
479.961	485.76
480.169	534.19
480.378	486.92
480.587	610.72
480.796	528.38
481.004	490.99
481.213	520.05
481.422	542.91
481.63	506.29
481.839	563.26
482.048	576.04
482.256	554.54
482.465	550.66
482.674	551.05
482.882	529.35
483.091	616.54
483.299	570.42
483.508	577.21
483.716	575.66
483.925	577.59
484.134	543.88
484.342	538.46
484.551	605.69
484.759	583.21
484.967	600.45
485.176	615.95
485.384	607.24
485.593	601.62
485.801	608.4
486.01	557.83
486.218	540.78
486.426	498.54
486.635	532.26
486.843	517.53
487.051	559.38
487.26	553.18
487.468	558.8
487.676	597.16
487.885	565.39
488.093	614.79
488.301	610.53
488.509	626.42
488.717	641.34
488.926	637.85
489.134	630.68
489.342	618.67
489.55	584.37
489.758	630.68
489.967	638.62
490.175	728.13
490.383	655.87
490.591	707.02
490.799	628.16
491.007	700.43
491.215	675.05
491.423	667.69
491.631	679.31
491.839	665.75
492.047	691.52
492.255	644.63
492.463	638.43
492.671	627.58
492.879	712.05
493.087	672.53
493.295	695.78
493.503	720.19
493.711	735.5
493.919	734.92
494.127	761.46
494.334	732.78
494.542	672.14
494.75	726.97
494.958	728.52
495.166	792.65
495.374	759.52
495.581	771.15
495.789	742.67
495.997	811.83
496.205	738.02
496.412	745.57
496.62	751.97
496.828	798.85
497.035	787.61
497.243	794.4
497.451	757.2
497.658	766.11
497.866	778.51
498.074	846.71
498.281	779.48
498.489	866.08
498.696	782.19
498.904	730.85
499.112	747.9
499.319	837.41
499.527	785.1
499.734	842.06
499.942	786.26
500.149	800.6
500.357	804.86
500.564	798.27
500.771	814.74
500.979	764.75
501.186	784.9
501.394	814.93
501.601	800.79
501.808	845.35
502.016	815.51
502.223	809.7
502.43	825.78
502.638	807.96
502.845	822.1
503.052	902.51
503.26	852.71
503.467	936.03
503.674	871.51
503.881	868.99
504.089	948.62
504.296	906.38
504.503	845.16
504.71	850.58
504.917	842.06
505.125	909.87
505.332	934.09
505.539	897.28
505.746	1005.77
505.953	963.54
506.16	991.63
506.367	1011.39
506.574	1044.52
506.781	997.83
506.988	968.19
507.195	1004.61
507.402	981.94
507.609	1015.66
507.816	956.56
508.023	991.24
508.23	985.04
508.437	959.08
508.644	1026.31
508.851	1062.15
509.058	1037.94
509.265	1070.29
509.472	1085.02
509.679	1152.05
509.885	1060.02
510.092	1038.32
510.299	1092.19
510.506	1093.54
510.713	1134.42
510.92	1118.92
511.126	1095.09
511.333	1138.1
511.54	1185.96
511.746	1195.45
511.953	1206.3
512.16	1222
512.367	1160.58
512.573	1174.92
512.78	1195.84
512.987	1237.88
513.193	1170.85
513.4	1152.44
513.606	1197.58
513.813	1205.33
514.02	1204.75
514.226	1258.81
514.433	1255.32
514.639	1240.21
514.846	1252.22
515.052	1240.6
515.259	1257.84
515.465	1280.7
515.672	1274.89
515.878	1384.74
516.085	1300.46
516.291	1366.34
516.497	1300.85
516.704	1289.61
516.91	1250.09
517.117	1212.89
517.323	1170.07
517.529	1203.4
517.736	1222
517.942	1245.44
518.148	1256.68
518.354	1360.53
518.561	1312.09
518.767	1317.51
518.973	1350.06
519.179	1370.41
519.386	1341.54
519.592	1362.08
519.798	1395.21
520.004	1501.38
520.21	1473.48
520.417	1492.47
520.623	1558.53
520.829	1574.42
521.035	1539.74
521.241	1546.52
521.447	1580.23
521.653	1697.65
521.859	1563.38
522.065	1645.91
522.271	1737.75
522.477	1643.2
522.683	1687.38
522.889	1643.2
523.095	1644.17
523.301	1680.98
523.507	1669.36
523.713	1688.93
523.919	1648.82
524.125	1758.87
524.331	1741.43
524.537	1828.81
524.742	1818.35
524.948	1839.08
525.154	1850.9
525.36	1912.9
525.566	1842.57
525.772	1854.97
525.977	1838.31
526.183	1896.62
526.389	1861.75
526.595	1839.27
526.8	1773.4
527.006	1728.26
527.212	1737.17
527.417	1696.48
527.623	1728.06
527.829	1784.25
528.034	1818.35
528.24	1885
528.446	1853.42
528.651	1972.77
528.857	1984.59
529.062	2016.36
529.268	1965.6
529.473	2033.99
529.679	2043.68
529.884	2098.7
530.09	2017.72
530.295	2050.46
530.501	2072.16
530.706	2074.87
530.912	2034.57
531.117	2094.63
531.323	2057.63
531.528	2170.58
531.733	2155.86
531.939	2133.38
532.144	2151.98
532.35	2124.86
532.555	2144.62
532.76	2118.85
532.966	2115.17
533.171	2100.83
533.376	2054.14
533.581	2064.8
533.787	2096.18
533.992	2127.18
534.197	2186.08
534.402	2124.47
534.607	2211.08
534.813	2246.53
535.018	2165.16
535.223	2208.94
535.428	2233.94
535.633	2245.95
535.838	2282.18
536.043	2264.94
536.249	2373.05
536.454	2277.92
536.659	2311.05
536.864	2290.12
537.069	2249.44
537.274	2264.36
537.479	2232
537.684	2279.66
537.889	2245.56
538.094	2393.59
538.299	2280.05
538.504	2380.22
538.708	2340.11
538.913	2384.67
539.118	2325.58
539.323	2357.55
539.528	2318.8
539.733	2315.12
539.938	2320.93
540.142	2299.62
540.347	2340.89
540.552	2269.2
540.757	2260.29
540.962	2286.25
541.166	2202.55
541.371	2197.9
541.576	2268.62
541.781	2208.56
541.985	2344.76
542.19	2325.39
542.395	2389.52
542.599	2432.33
542.804	2383.51
543.008	2447.64
543.213	2352.9
543.418	2330.04
543.622	2365.69
543.827	2332.36
544.031	2415.29
544.236	2399.79
544.44	2379.44
544.645	2448.42
544.849	2430.2
545.054	2468.95
545.258	2498.02
545.463	2477.28
545.667	2435.05
545.872	2475.73
546.076	2434.08
546.281	2413.54
546.485	2408.7
546.689	2467.4
546.894	2511
547.098	2459.46
547.302	2427.69
547.507	2449.77
547.711	2470.31
547.915	2546.65
548.119	2424.78
548.324	2446.28
548.528	2521.85
548.732	2428.85
548.936	2506.93
549.141	2502.28
549.345	2465.47
549.549	2483.48
549.753	2513.71
549.957	2560.01
550.161	2568.15
550.366	2564.28
550.57	2508.87
550.774	2534.05
550.978	2506.73
551.182	2529.6
551.386	2503.44
551.59	2490.07
551.794	2464.3
551.998	2543.55
552.202	2548.2
552.406	2507.12
552.61	2546.06
552.814	2502.47
553.018	2565.63
553.222	2516.23
553.426	2509.25
553.63	2608.84
553.833	2504.99
554.037	2472.05
554.241	2589.08
554.445	2552.85
554.649	2554.59
554.853	2510.8
555.056	2549.75
555.26	2580.75
555.464	2544.51
555.668	2567.76
555.871	2558.66
556.075	2574.93
556.279	2452.29
556.483	2473.6
556.686	2493.56
556.89	2511.19
557.094	2537.54
557.297	2436.21
557.501	2508.28
557.704	2398.24
557.908	2466.24
558.112	2431.75
558.315	2507.51
558.519	2440.86
558.722	2413.74
558.926	2437.57
559.129	2346.7
559.333	2316.09
559.536	2361.42
559.74	2332.17
559.943	2344.37
560.147	2318.22
560.35	2359.1
560.553	2356.58
560.757	2317.64
560.96	2427.49
561.164	2353.67
561.367	2437.76
561.57	2362.59
561.774	2367.24
561.977	2373.24
562.18	2329.46
562.384	2398.82
562.587	2334.11
562.79	2319.19
562.993	2329.84
563.197	2345.73
563.4	2362
563.603	2392.42
563.806	2391.26
564.009	2304.27
564.212	2337.59
564.416	2256.41
564.619	2298.84
564.822	2242.66
565.025	2349.22
565.228	2276.37
565.431	2268.23
565.634	2186.47
565.837	2221.93
566.04	2200.03
566.243	2225.03
566.446	2084.56
566.649	2217.08
566.852	2092.7
567.055	2166.13
567.258	2176.78
567.461	2223.09
567.664	2247.11
567.867	2132.61
568.07	2188.02
568.273	2174.46
568.475	2193.25
568.678	2141.91
568.881	2102.96
569.084	2084.75
569.287	2012.68
569.489	2029.15
569.692	2090.56
569.895	2049.1
570.098	2011.52
570.3	2020.62
570.503	1954.55
570.706	1957.46
570.909	1970.64
571.111	1905.73
571.314	1907.47
571.516	1926.46
571.719	1946.8
571.922	1900.5
572.124	1942.15
572.327	1957.27
572.529	1870.27
572.732	1894.69
572.935	1957.07
573.137	1984.78
573.34	1863.69
573.542	1930.92
573.745	1895.46
573.947	1932.66
574.15	1890.62
574.352	1867.76
574.554	1932.27
574.757	1836.95
574.959	1823.97
575.162	1833.07
575.364	1803.82
575.566	1903.02
575.769	1806.92
575.971	1829.78
576.173	1745.31
576.376	1810.41
576.578	1819.51
576.78	1846.06
576.982	1718.57
577.185	1774.56
577.387	1740.46
577.589	1764.1
577.791	1752.67
577.993	1804.01
578.196	1754.41
578.398	1781.73
578.6	1780.96
578.802	1659.86
579.004	1687.18
579.206	1683.89
579.408	1735.62
579.61	1722.45
579.812	1794.71
580.014	1727.48
580.216	1724.96
580.418	1770.88
580.62	1696.1
580.822	1663.93
581.024	1759.84
581.226	1795.29
581.428	1716.63
581.63	1810.79
581.832	1714.11
582.034	1821.06
582.236	1713.34
582.438	1786.77
582.64	1821.26
582.841	1793.36
583.043	1831.91
583.245	1789.09
583.447	1796.46
583.649	1737.36
583.85	1753.25
584.052	1790.64
584.254	1716.25
584.456	1770.11
584.657	1703.65
584.859	1742.01
585.061	1731.36
585.262	1708.69
585.464	1684.66
585.666	1736.39
585.867	1680.21
586.069	1724.96
586.27	1705.2
586.472	1691.25
586.674	1649.4
586.875	1648.63
587.077	1654.05
587.278	1681.95
587.48	1626.93
587.681	1763.13
587.883	1693.77
588.084	1625.18
588.285	1624.22
588.487	1595.35
588.688	1624.22
588.89	1510.29
589.091	1529.28
589.292	1463.41
589.494	1443.45
589.695	1430.27
589.896	1385.71
590.098	1348.51
590.299	1421.56
590.5	1374.86
590.702	1465.73
590.903	1451.01
591.104	1531.41
591.305	1498.86
591.507	1571.71
591.708	1538
591.909	1520.95
592.11	1556.02
592.311	1545.94
592.512	1477.35
592.714	1471.15
592.915	1485.3
593.116	1493.63
593.317	1517.46
593.518	1466.51
593.719	1498.47
593.92	1552.14
594.121	1535.48
594.322	1484.33
594.523	1500.41
594.724	1464.57
594.925	1477.94
595.126	1476.97
595.327	1510.49
595.528	1510.1
595.729	1475.42
595.929	1465.34
596.13	1510.1
596.331	1498.47
596.532	1492.47
596.733	1533.54
596.934	1538.19
597.135	1540.32
597.335	1532.38
597.536	1447.71
597.737	1499.05
597.938	1476.97
598.138	1509.9
598.339	1475.42
598.54	1489.56
598.74	1495.95
598.941	1473.87
599.142	1546.14
599.342	1488.98
599.543	1475.03
599.744	1469.61
599.944	1459.72
600.145	1484.14
600.345	1459.53
600.546	1572.87
600.746	1531.22
600.947	1571.71
601.147	1487.04
601.348	1525.79
601.548	1470.77
601.749	1517.85
601.949	1455.27
602.15	1445.58
602.35	1491.89
602.551	1481.23
602.751	1450.04
602.951	1477.35
603.152	1373.7
603.352	1501.19
603.552	1449.65
603.753	1497.31
603.953	1517.07
604.153	1480.45
604.354	1470.77
604.554	1442.87
604.754	1472.51
604.954	1445.77
605.155	1489.75
605.355	1475.8
605.555	1528.5
605.755	1512.04
605.955	1430.08
606.155	1493.24
606.356	1444.61
606.556	1497.31
606.756	1458.95
606.956	1407.02
607.156	1514.17
607.356	1450.23
607.556	1488.2
607.756	1452.36
607.956	1485.49
608.156	1439.96
608.356	1431.82
608.556	1473.48
608.756	1443.64
608.956	1394.43
609.156	1420.39
609.356	1372.34
609.556	1396.56
609.755	1432.79
609.955	1366.53
610.155	1455.27
610.355	1403.92
610.555	1389.97
610.755	1351.61
610.954	1304.92
611.154	1414.58
611.354	1423.69
611.554	1389.01
611.753	1356.07
611.953	1315.77
612.153	1402.57
612.352	1377.58
612.552	1315.38
612.752	1274.89
612.951	1364.4
613.151	1351.03
613.351	1267.33
613.55	1362.08
613.75	1323.71
613.949	1290.97
614.149	1327.98
614.348	1305.5
614.548	1274.7
614.747	1228.58
614.947	1292.91
615.146	1215.8
615.346	1307.24
615.545	1302.59
615.745	1299.3
615.944	1324.1
616.144	1290
616.343	1278.18
616.542	1268.69
616.742	1256.87
616.941	1226.45
617.14	1202.23
617.34	1234.98
617.539	1254.74
617.738	1223.55
617.938	1283.8
618.137	1208.05
618.336	1194.68
618.535	1276.44
618.734	1265.59
618.934	1242.73
619.133	1235.56
619.332	1252.22
619.531	1205.53
619.73	1235.36
619.929	1257.06
620.128	1232.85
620.328	1252.61
620.527	1180.53
620.726	1244.47
620.925	1214.05
621.124	1223.16
621.323	1230.13
621.522	1196.42
621.721	1197.97
621.92	1155.54
622.119	1227.23
622.318	1138.1
622.517	1196.03
622.715	1182.08
622.914	1127.25
623.113	1177.05
623.312	1112.92
623.511	1180.92
623.71	1158.45
623.909	1130.74
624.107	1202.62
624.306	1106.52
624.505	1118.15
624.704	1120.09
624.902	1149.53
625.101	1151.67
625.3	1123.18
625.499	1085.4
625.697	1091.99
625.896	1089.47
626.095	1143.92
626.293	1058.86
626.492	1118.54
626.69	1165.03
626.889	1056.92
627.088	1111.17
627.286	1103.23
627.485	1083.08
627.683	1052.66
627.882	1100.32
628.08	1019.53
628.279	1029.61
628.477	1076.88
628.676	1024.96
628.874	1069.71
629.073	1018.76
629.271	978.84
629.469	1059.25
629.668	1059.44
629.866	1059.64
630.065	1022.24
630.263	1075.33
630.461	1027.67
630.66	1034.84
630.858	1067.58
631.056	1079.79
631.254	1083.08
631.453	1028.83
631.651	1087.92
631.849	1064.67
632.047	1074.55
632.245	1058.86
632.444	1019.14
632.642	1076.3
632.84	1084.82
633.038	1052.08
633.236	1027.47
633.434	1042.78
633.632	1049.75
633.83	1028.44
634.028	1104.78
634.227	1039.87
634.425	1142.56
634.623	1050.92
634.821	1077.07
635.019	1044.14
635.216	1064.09
635.414	1118.54
635.612	1060.8
635.81	1033.48
636.008	1126.48
636.206	1074.36
636.404	1085.79
636.602	1029.61
636.8	1062.74
636.997	1098
637.195	1072.62
637.393	1065.64
637.591	1116.02
637.789	1047.24
637.986	1031.16
638.184	1023.21
638.382	1094.32
638.58	1110.01
638.777	1100.71
638.975	1033.87
639.173	1045.1
639.37	1059.05
639.568	1060.6
639.765	1070.29
639.963	1037.35
640.161	1066.03
640.358	1069.32
640.556	1019.14
640.753	1031.93
640.951	988.92
641.148	1027.67
641.346	979.04
641.543	987.37
641.741	982.14
641.938	963.92
642.136	985.24
642.333	954.43
642.531	1021.27
642.728	1010.04
642.925	957.34
643.123	950.56
643.32	985.04
643.517	968.19
643.715	957.72
643.912	966.06
644.109	954.04
644.306	967.99
644.504	932.34
644.701	982.14
644.898	963.34
645.095	926.53
645.293	931.76
645.49	942.03
645.687	898.44
645.884	947.07
646.081	829.08
646.278	881.97
646.475	876.74
646.672	880.23
646.87	902.12
647.067	835.08
647.264	856.98
647.461	818.23
647.658	833.34
647.855	829.66
648.052	866.28
648.249	749.06
648.446	819.39
648.642	795.75
648.839	770.37
649.036	798.08
649.233	760.68
649.43	756.81
649.627	756.81
649.824	766.88
650.021	751.97
650.217	794.98
650.414	763.2
650.611	786.84
650.808	805.44
651.004	800.6
651.201	806.8
651.398	835.66
651.595	797.88
651.791	759.72
651.988	824.43
652.185	744.99
652.381	842.45
652.578	724.45
652.775	780.64
652.971	788.2
653.168	758.36
653.364	816.1
653.561	758.55
653.757	782.38
653.954	787.23
654.15	724.26
654.347	849.23
654.543	776.38
654.74	726.39
654.936	734.33
655.133	739.37
655.329	777.54
655.525	743.83
655.722	766.88
655.918	721.55
656.115	753.13
656.311	652.96
656.507	626.8
656.704	613.63
656.9	622.74
657.096	645.6
657.292	642.5
657.489	694.23
657.685	686.87
657.881	656.25
658.077	687.06
658.273	720.19
658.47	744.6
658.666	692.29
658.862	742.47
659.058	687.64
659.254	754.29
659.45	712.44
659.646	704.88
659.842	721.74
660.038	770.37
660.234	667.88
660.43	723.1
660.626	750.61
660.822	705.08
661.018	748.28
661.214	681.64
661.41	676.79
661.606	712.44
661.802	738.79
661.998	725.23
662.194	680.67
662.39	710.12
662.586	692.48
662.781	719.61
662.977	714.77
663.173	709.34
663.369	695.97
663.564	693.65
663.76	698.88
663.956	667.88
664.152	735.11
664.347	626.42
664.543	664.39
664.739	700.04
664.934	620.02
665.13	597.55
665.326	699.07
665.521	666.91
665.717	627
665.912	624.09
666.108	577.98
666.304	621.96
666.499	634.75
666.695	574.69
666.89	634.17
667.086	654.7
667.281	626.61
667.477	682.6
667.672	658
667.867	615.95
668.063	656.45
668.258	610.53
668.454	637.85
668.649	661.1
668.844	626.61
669.04	652.38
669.235	653.54
669.43	623.32
669.626	593.87
669.821	591.74
670.016	620.41
670.211	614.4
670.407	593.87
670.602	603.36
670.797	603.94
670.992	615.18
671.187	573.33
671.382	619.83
671.578	572.36
671.773	618.09
671.968	534.58
672.163	577.98
672.358	599.68
672.553	579.53
672.748	559.38
672.943	641.34
673.138	598.9
673.333	609.37
673.528	584.96
673.723	579.53
673.918	589.41
674.113	545.82
674.308	640.37
674.503	594.45
674.698	620.99
674.892	586.7
675.087	621.19
675.282	594.06
675.477	565.58
675.672	603.75
675.867	590.38
676.061	591.93
676.256	566.55
676.451	591.16
676.646	599.29
676.84	561.12
677.035	541.36
677.23	559.38
677.424	611.5
677.619	597.94
677.814	620.22
678.008	616.54
678.203	544.27
678.397	565
678.592	561.9
678.787	602.59
678.981	574.69
679.176	599.68
679.37	584.37
679.565	551.63
679.759	572.56
679.954	592.9
680.148	640.75
680.342	620.41
680.537	624.67
680.731	562.67
680.926	604.14
681.12	583.21
681.314	580.69
681.509	564.22
681.703	592.51
681.897	606.46
682.092	553.37
682.286	578.56
682.48	652.38
682.674	627.19
682.869	574.69
683.063	604.72
683.257	664.97
683.451	574.11
683.645	609.56
683.839	583.41
684.034	575.85
684.228	615.76
684.422	570.81
684.616	583.41
684.81	625.84
685.004	603.17
685.198	587.86
685.392	671.95
685.586	578.76
685.78	623.12
685.974	650.64
686.168	618.67
686.362	685.51
686.556	559.19
686.75	568.68
686.944	511.33
687.138	539.81
687.331	461.54
687.525	502.81
687.719	424.53
687.913	496.22
688.107	491.96
688.301	486.53
688.494	544.85
688.688	490.02
688.882	478.78
689.076	486.34
689.269	506.68
689.463	620.22
689.657	542.52
689.85	535.55
690.044	577.4
690.238	564.61
690.431	567.32
690.625	590.57
690.818	605.69
691.012	610.72
691.205	676.4
691.399	621.57
691.593	664.39
691.786	721.16
691.98	724.84
692.173	762.04
692.366	766.11
692.56	762.62
692.753	823.65
692.947	737.05
693.14	821.91
693.333	831.98
693.527	779.67
693.72	806.41
693.914	819.2
694.107	812.8
694.3	852.33
694.493	826.95
694.687	904.06
694.88	862.98
695.073	958.31
695.266	947.46
695.46	919.75
695.653	995.12
695.846	985.24
696.039	936.03
696.232	998.02
696.425	1039.29
696.618	1048.2
696.812	1048.01
697.005	1140.04
697.198	1240.4
697.391	1175.3
697.584	1194.1
697.777	1263.65
697.97	1251.25
698.163	1262.49
698.356	1252.22
698.549	1332.43
698.742	1305.11
698.935	1257.26
699.127	1340.57
699.32	1290.78
699.513	1285.74
699.706	1311.12
699.899	1367.5
700.092	1332.82
700.285	1399.66
700.477	1350.26
700.67	1372.34
700.863	1376.99
701.056	1498.47
701.248	1445.77
701.441	1487.62
701.634	1448.68
701.826	1537.03
702.019	1439.96
702.212	1522.89
702.404	1539.35
702.597	1490.53
702.79	1509.9
702.982	1576.75
703.175	1620.92
703.367	1656.18
703.56	1670.52
703.752	1729.61
703.945	1713.15
704.137	1751.12
704.33	1757.13
704.522	1763.71
704.715	1790.06
704.907	1830.56
705.1	1842.37
705.292	1852.84
705.484	1842.37
705.677	1883.84
705.869	1894.3
706.061	1934.21
706.254	1972.38
706.446	1979.16
706.638	1952.62
706.831	1984.97
707.023	1987.3
707.215	2103.55
707.407	2075.65
707.599	2044.65
707.792	2123.89
707.984	2135.71
708.176	2177.75
708.368	2151.4
708.56	2185.89
708.752	2173.68
708.944	2154.31
709.136	2212.04
709.329	2190.93
709.521	2326.16
709.713	2275.98
709.905	2266.87
710.097	2357.55
710.289	2272.69
710.481	2322.09
710.672	2351.74
710.864	2389.52
711.056	2399.98
711.248	2435.43
711.44	2463.14
711.632	2430.01
711.824	2464.11
712.016	2504.22
712.207	2493.17
712.399	2489.88
712.591	2543.16
712.783	2536.38
712.975	2544.51
713.166	2531.73
713.358	2566.21
713.55	2588.69
713.741	2634.8
713.933	2626.86
714.125	2634.61
714.316	2582.3
714.508	2706.1
714.7	2644.49
714.891	2628.41
715.083	2674.33
715.274	2659.79
715.466	2702.03
715.657	2702.03
715.849	2609.61
716.04	2726.06
716.232	2623.37
716.423	2620.27
716.615	2535.6
716.806	2472.44
716.998	2427.49
717.189	2347.86
717.381	2241.11
717.572	2184.34
717.763	2237.43
717.955	2186.66
718.146	2153.53
718.337	2084.95
718.528	2046.97
718.72	1948.55
718.911	2036.51
719.102	1981.68
719.293	2021.98
719.485	1952.04
719.676	1974.32
719.867	1950.1
720.058	1967.54
720.249	1969.28
720.44	1984.78
720.632	2052.01
720.823	2108.97
721.014	2225.61
721.205	2288.77
721.396	2398.43
721.587	2474.96
721.778	2504.22
721.969	2541.22
722.16	2623.18
722.351	2688.66
722.542	2758.02
722.733	2780.5
722.924	2689.24
723.115	2724.89
723.305	2673.55
723.496	2722.76
723.687	2553.62
723.878	2617.56
724.069	2573.58
724.26	2579.58
724.45	2465.66
724.641	2507.32
724.832	2541.22
725.023	2492.59
725.213	2475.15
725.404	2469.53
725.595	2493.95
725.785	2424
725.976	2590.05
726.167	2517.78
726.357	2537.93
726.548	2628.41
726.739	2549.94
726.929	2615.23
727.12	2672.39
727.31	2646.04
727.501	2570.67
727.691	2599.15
727.882	2601.67
728.072	2672.78
728.263	2656.31
728.453	2748.53
728.644	2745.43
728.834	2707.46
729.024	2703.19
729.215	2701.06
729.405	2718.31
729.596	2786.12
729.786	2806.46
729.976	2846.18
730.167	2836.1
730.357	2808.79
730.547	2773.33
730.737	2837.27
730.928	2877.57
731.118	2909.92
731.308	2882.02
731.498	2869.82
731.688	2984.9
731.879	2988
732.069	3023.85
732.259	3080.03
732.449	3122.27
732.639	3166.64
732.829	3231.15
733.019	3256.15
733.209	3344.11
733.399	3351.67
733.589	3411.92
733.779	3502.21
733.969	3452.22
734.159	3597.14
734.349	3611.09
734.539	3672.32
734.729	3680.07
734.919	3666.89
735.109	3717.07
735.299	3597.34
735.488	3658.95
735.678	3655.65
735.868	3676.77
736.058	3667.47
736.248	3627.17
736.437	3631.44
736.627	3587.65
736.817	3743.03
737.007	3682.78
737.196	3692.66
737.386	3775.39
737.576	3692.08
737.765	3779.27
737.955	3763.38
738.144	3871.68
738.334	3835.06
738.524	3751.37
738.713	3794.38
738.903	3811.04
739.092	3895.51
739.282	3831
739.471	3876.72
739.661	3811.23
739.85	3929.03
740.04	3921.48
740.229	3951.7
740.419	3959.64
740.608	3959.06
740.797	3965.26
740.987	4048.19
741.176	4029.39
741.365	3937.36
741.555	3936.39
741.744	4014.86
741.933	3979.79
742.123	4024.94
742.312	4035.21
742.501	4097.4
742.69	4104.37
742.88	4020.48
743.069	4108.25
743.258	4086.55
743.447	4092.94
743.636	4132.85
743.825	4095.27
744.014	4117.94
744.204	4172.38
744.393	4092.94
744.582	4164.44
744.771	4220.62
744.96	4146.61
745.149	4169.28
745.338	4184.78
745.527	4230.7
745.716	4115.8
745.905	4110.38
746.094	4178.19
746.283	4161.92
746.471	4218.1
746.66	4217.72
746.849	4242.32
747.038	4240.77
747.227	4188.85
747.416	4157.46
747.604	4170.64
747.793	4177.8
747.982	4179.35
748.171	4237.09
748.359	4239.61
748.548	4186.52
748.737	4143.51
748.926	4152.62
749.114	4070.47
749.303	4175.87
749.491	4153
749.68	4098.95
749.869	4190.01
750.057	4147
750.246	4116.97
750.434	4116.77
750.623	4126.46
750.811	4052.06
751	4199.12
751.188	4105.73
751.377	4120.45
751.565	4135.76
751.754	4103.6
751.942	4056.13
752.131	4144.09
752.319	4074.34
752.507	4032.11
752.696	4131.69
752.884	4083.64
753.072	4049.16
753.261	4094.49
753.449	4098.75
753.637	4052.45
753.825	4139.83
754.014	4066.59
754.202	4080.16
754.39	4107.67
754.578	4127.24
754.766	4033.07
754.955	4017.38
755.143	4129.37
755.331	4066.59
755.519	4085.19
755.707	4023.97
755.895	4009.63
756.083	4069.5
756.271	3987.93
756.459	4029.78
756.647	4000.91
756.835	3992.78
757.023	4000.53
757.211	3943.56
757.399	3915.28
757.587	3975.34
757.775	3888.35
757.963	3981.93
758.151	3948.6
758.339	3864.32
758.526	3872.26
758.714	3878.27
758.902	3781.78
759.09	3667.28
759.278	3430.71
759.465	3137.77
759.653	2744.27
759.841	2434.66
760.028	2132.03
760.216	1846.64
760.404	1708.5
760.591	1381.84
760.779	1183.44
760.967	1020.5
761.154	815.51
761.342	853.3
761.529	850.97
761.717	907.54
761.905	894.18
762.092	958.69
762.28	895.14
762.467	904.06
762.655	810.67
762.842	822.88
763.029	822.68
763.217	845.55
763.404	833.92
763.592	873.44
763.779	845.16
763.966	855.04
764.154	930.6
764.341	977.87
764.528	990.86
764.716	1069.52
764.903	1133.65
765.09	1203.78
765.277	1253.77
765.465	1468.25
765.652	1513
765.839	1638.94
766.026	1760.61
766.213	1818.16
766.4	1961.14
766.588	2127.18
766.775	2171.94
766.962	2305.82
767.149	2408.7
767.336	2587.33
767.523	2501.89
767.71	2717.53
767.897	2833.78
768.084	2957.2
768.271	2995.17
768.458	3065.31
768.645	3069.57
768.832	3124.59
769.019	3129.83
769.206	3143.19
769.392	3304
769.579	3415.99
769.766	3348.76
769.953	3318.92
770.14	3400.1
770.327	3384.22
770.513	3443.89
770.7	3493.68
770.887	3446.41
771.073	3497.75
771.26	3481.48
771.447	3419.28
771.634	3409.21
771.82	3577.38
772.007	3445.25
772.193	3506.86
772.38	3538.05
772.567	3486.13
772.753	3459.97
772.94	3526.23
773.126	3531.46
773.313	3542.51
773.499	3488.26
773.686	3512.86
773.872	3440.79
774.059	3522.16
774.245	3468.88
774.432	3495.81
774.618	3419.86
774.804	3457.06
774.991	3421.41
775.177	3460.75
775.363	3405.91
775.55	3499.88
775.736	3402.81
775.922	3433.43
776.109	3430.52
776.295	3404.95
776.481	3433.04
776.667	3421.8
776.853	3380.92
777.04	3367.17
777.226	3387.51
777.412	3481.67
777.598	3330.55
777.784	3381.31
777.97	3362.9
778.156	3394.29
778.342	3340.04
778.528	3380.53
778.715	3289.47
778.901	3335.78
779.087	3355.35
779.272	3326.87
779.458	3287.15
779.644	3302.45
779.83	3267.58
780.016	3381.7
780.202	3283.66
780.388	3303.62
780.574	3248.01
780.76	3268.35
780.946	3310.78
781.131	3279.01
781.317	3213.33
781.503	3208.1
781.689	3229.6
781.874	3320.47
782.06	3198.22
782.246	3242.39
782.432	3224.57
782.617	3241.23
782.803	3238.9
782.989	3168.57
783.174	3152.3
783.36	3161.02
783.545	3125.76
783.731	3169.93
783.916	3025.98
784.102	3174.77
784.288	3133.89
784.473	3120.53
784.659	3089.91
784.844	3123.43
785.029	3122.27
785.215	3061.24
785.4	3068.6
785.586	3141.06
785.771	3016.1
785.956	3087.01
786.142	3058.33
786.327	3054.65
786.512	3043.61
786.698	3002.34
786.883	2949.64
787.068	2954.1
787.254	3024.62
787.439	2970.18
787.624	2939.76
787.809	2971.53
787.994	2936.27
788.18	3005.25
788.365	2853.15
788.55	2901.2
788.735	2866.72
788.92	2890.74
789.105	2877.37
789.29	2884.93
789.475	2848.31
789.66	2852.57
789.845	2845.99
790.03	2832.42
790.215	2887.45
790.4	2851.02
790.585	2856.64
790.77	2830.87
790.955	2789.99
791.14	2797.74
791.325	2851.02
791.51	2702.42
791.695	2836.88
791.879	2762.09
792.064	2764.61
792.249	2812.08
792.434	2778.95
792.618	2796.39
792.803	2816.54
792.988	2790.77
793.173	2770.81
793.357	2811.69
793.542	2736.32
793.727	2780.31
793.911	2783.99
794.096	2810.92
794.281	2811.69
794.465	2910.12
794.65	2804.14
794.834	2865.17
795.019	2879.31
795.203	2883.38
795.388	2870.2
795.572	2893.84
795.757	2820.6
795.941	2846.37
796.126	2789.41
796.31	2795.8
796.494	2816.92
796.679	2798.9
796.863	2740.59
797.048	2860.32
797.232	2802.39
797.416	2857.61
797.601	2852.19
797.785	2892.48
797.969	2862.26
798.153	2782.05
798.338	2889.19
798.522	2886.67
798.706	2873.5
798.89	2873.69
799.074	2968.05
799.258	2952.16
799.443	2885.7
799.627	2918.83
799.811	2925.23
799.995	2856.45
800.179	2844.44
800.363	2829.52
800.547	2885.32
800.731	2887.06
800.915	2809.56
801.099	2805.88
801.283	2876.79
801.467	2843.08
801.651	2827.97
801.835	2874.66
802.019	2865.17
802.202	2858.58
802.386	2754.54
802.57	2740.01
802.754	2804.72
802.938	2787.67
803.121	2777.98
803.305	2867.49
803.489	2817.12
803.673	2864
803.856	2828.55
804.04	2803.75
804.224	2841.14
804.407	2831.07
804.591	2787.86
804.775	2798.9
804.958	2830.49
805.142	2948.48
805.326	2832.81
805.509	2863.04
805.693	2893.45
805.876	2901.01
806.06	2885.7
806.243	2887.64
806.427	2867.1
806.61	2901.98
806.794	2823.32
806.977	2889.77
807.16	2898.49
807.344	2876.79
807.527	2873.3
807.71	2840.75
807.894	2892.1
808.077	2868.07
808.26	2836.49
808.444	2819.25
808.627	2865.55
808.81	2822.93
808.993	2752.99
809.177	2759.19
809.36	2768.49
809.543	2797.35
809.726	2710.17
809.909	2697.38
810.092	2671.23
810.276	2641.58
810.459	2660.76
810.642	2660.57
810.825	2597.02
811.008	2608.84
811.191	2534.25
811.374	2534.63
811.557	2522.04
811.74	2593.53
811.923	2467.79
812.106	2474.77
812.289	2410.64
812.472	2431.95
812.654	2443.38
812.837	2416.06
813.02	2365.69
813.203	2324.03
813.386	2179.49
813.569	2199.26
813.751	2135.32
813.934	2169.81
814.117	2096.18
814.3	2069.25
814.482	2000.86
814.665	2031.08
814.848	1988.27
815.03	1913.87
815.213	1872.79
815.396	1832.11
815.578	1838.31
815.761	1827.84
815.943	1864.85
816.126	1777.86
816.309	1770.11
816.491	1702.1
816.674	1632.16
816.856	1698.03
817.039	1655.02
817.221	1727.1
817.403	1702.1
817.586	1730.39
817.768	1712.76
817.951	1646.5
818.133	1637.58
818.315	1635.84
818.498	1707.33
818.68	1779.79
818.862	1729.81
819.045	1749.76
819.227	1724.58
819.409	1722.06
819.591	1741.82
819.774	1690.67
819.956	1730
820.138	1781.73
820.32	1779.41
820.502	1841.79
820.684	1903.79
820.866	1950.68
821.048	1976.06
821.231	1990.59
821.413	2017.91
821.595	1973.35
821.777	1961.53
821.959	1953.2
822.141	2032.63
822.323	1894.69
822.505	1830.56
822.686	1732.13
822.868	1682.34
823.05	1571.52
823.232	1513.39
823.414	1483.75
823.596	1513
823.778	1497.5
823.96	1557.18
824.141	1568.22
824.323	1601.93
824.505	1702.1
824.687	1737.94
824.868	1796.07
825.05	1893.52
825.232	1889.46
825.413	2000.86
825.595	1899.92
825.777	1867.76
825.958	1929.75
826.14	1909.99
826.321	1924.91
826.503	1912.51
826.685	1950.87
826.866	2018.88
827.048	1920.26
827.229	1894.69
827.411	1841.21
827.592	1816.22
827.773	1753.83
827.955	1742.4
828.136	1741.63
828.318	1696.68
828.499	1723.22
828.68	1719.73
828.862	1711.21
829.043	1755.77
829.224	1699.2
829.406	1673.43
829.587	1696.29
829.768	1715.86
829.949	1727.68
830.131	1733.68
830.312	1782.31
830.493	1755.19
830.674	1747.05
830.855	1730.39
831.036	1714.7
831.218	1770.88
831.399	1783.48
831.58	1766.81
831.761	1736.98
831.942	1758.09
832.123	1719.54
832.304	1685.83
832.485	1711.79
832.666	1714.89
832.847	1751.7
833.028	1762.74
833.209	1728.65
833.389	1762.16
833.57	1679.24
833.751	1693.77
833.932	1761.97
834.113	1737.75
834.294	1733.1
834.475	1751.12
834.655	1796.26
834.836	1805.37
835.017	1780.76
835.198	1723.8
835.378	1757.71
835.559	1835.79
835.74	1753.64
835.92	1749.38
836.101	1753.83
836.281	1809.63
836.462	1821.84
836.643	1816.99
836.823	1834.04
837.004	1838.89
837.184	1862.14
837.365	1835.98
837.545	1831.91
837.726	1803.04
837.906	1865.62
838.087	1822.42
838.267	1810.99
838.448	1801.88
838.628	1832.49
838.808	1817.58
838.989	1862.52
839.169	1813.12
839.349	1826.68
839.53	1840.63
839.71	1876.28
839.89	1818.35
840.07	1881.12
840.251	1802.46
840.431	1838.69
840.611	1808.47
840.791	1781.34
840.971	1846.44
841.151	1816.41
841.332	1788.32
841.512	1814.28
841.692	1745.11
841.872	1835.01
842.052	1778.83
842.232	1855.16
842.412	1744.34
842.592	1802.27
842.772	1810.79
842.952	1836.95
843.132	1815.06
843.312	1770.3
843.492	1773.01
843.672	1815.44
843.851	1738.91
844.031	1783.48
844.211	1759.45
844.391	1733.49
844.571	1792
844.751	1802.85
844.93	1777.86
845.11	1749.76
845.29	1800.72
845.47	1796.46
845.649	1751.12
845.829	1787.35
846.009	1754.41
846.188	1781.73
846.368	1777.47
846.547	1752.09
846.727	1816.8
846.907	1693.38
847.086	1790.64
847.266	1786.96
847.445	1751.89
847.625	1741.04
847.804	1732.13
847.984	1781.73
848.163	1713.34
848.343	1754.22
848.522	1741.43
848.701	1738.72
848.881	1699.39
849.06	1709.66
849.239	1704.04
849.419	1727.1
849.598	1642.04
849.777	1680.01
849.957	1643.2
850.136	1593.41
850.315	1559.5
850.494	1586.05
850.674	1576.17
850.853	1653.47
851.032	1596.7
851.211	1638.75
851.39	1626.35
851.569	1595.73
851.748	1576.94
851.927	1621.31
852.107	1590.5
852.286	1579.85
852.465	1552.72
852.644	1599.03
852.823	1610.27
853.002	1593.41
853.181	1605.62
853.359	1602.9
853.538	1521.92
853.717	1573.65
853.896	1524.24
854.075	1437.44
854.254	1421.75
854.433	1354.52
854.611	1351.42
854.79	1336.31
854.969	1412.64
855.148	1411.09
855.327	1360.91
855.505	1433.18
855.684	1404.51
855.863	1438.8
856.041	1435.12
856.22	1456.82
856.399	1437.25
856.577	1505.45
856.756	1539.74
856.934	1645.72
857.113	1612.4
857.291	1522.11
857.47	1493.24
857.648	1524.63
857.827	1544.59
858.005	1578.3
858.184	1486.85
858.362	1580.23
858.541	1516.69
858.719	1537.03
858.898	1518.62
859.076	1533.74
859.254	1571.9
859.433	1508.94
859.611	1465.15
859.789	1472.9
859.967	1562.8
860.146	1587.21
860.324	1478.71
860.502	1481.62
860.68	1460.5
860.859	1453.91
861.037	1485.3
861.215	1476.97
861.393	1467.28
861.571	1495.18
861.749	1453.52
861.927	1453.33
862.105	1473.09
862.283	1458.17
862.461	1417.49
862.639	1408.38
862.817	1414.39
862.995	1437.64
863.173	1460.89
863.351	1432.6
863.529	1448.49
863.707	1479.68
863.885	1467.47
864.063	1386.1
864.241	1415.94
864.418	1455.27
864.596	1424.85
864.774	1384.94
864.952	1392.88
865.129	1432.79
865.307	1377.77
865.485	1328.17
865.663	1398.69
865.84	1301.63
866.018	1309.38
866.196	1219.86
866.373	1228.97
866.551	1171.04
866.728	1151.67
866.906	1205.53
867.084	1224.32
867.261	1280.7
867.439	1248.54
867.616	1335.92
867.794	1295.43
867.971	1268.3
868.149	1300.27
868.326	1331.27
868.503	1319.84
868.681	1337.28
868.858	1286.9
869.035	1280.51
869.213	1336.69
869.39	1308.6
869.567	1358.59
869.745	1309.57
869.922	1347.93
870.099	1352.97
870.276	1322.36
870.454	1329.91
870.631	1332.63
870.808	1307.63
870.985	1336.31
871.162	1376.41
871.339	1317.13
871.517	1258.23
871.694	1269.08
871.871	1306.28
872.048	1254.35
872.225	1281.28
872.402	1281.48
872.579	1265.78
872.756	1309.96
872.933	1226.65
873.11	1244.86
873.287	1268.3
873.463	1232.46
873.64	1229.55
873.817	1267.72
873.994	1212.7
874.171	1190.8
874.348	1266.95
874.524	1175.88
874.701	1219.48
874.878	1169.3
875.055	1224.13
875.231	1195.26
875.408	1226.65
875.585	1150.89
875.762	1221.03
875.938	1224.13
876.115	1167.75
876.291	1162.52
876.468	1186.73
876.645	1145.47
876.821	1156.12
876.998	1159.42
877.174	1155.35
877.351	1163.68
877.527	1159.61
877.704	1170.07
877.88	1158.25
878.057	1139.65
878.233	1185.77
878.409	1131.52
878.586	1177.24
878.762	1123.77
878.938	1178.21
879.115	1084.05
879.291	1152.05
879.467	1078.82
879.644	1101.1
879.82	1170.85
879.996	1105.75
880.172	1053.63
880.349	1130.93
880.525	1141.01
880.701	1052.27
880.877	1085.21
881.053	1104.59
881.229	1097.22
881.405	1149.53
881.581	1091.6
881.757	1078.43
881.933	1111.95
882.109	1124.73
882.285	1090.44
882.461	1054.79
882.637	1087.73
882.813	1073.2
882.989	1092.57
883.165	1135
883.341	1092.19
883.517	1112.14
883.693	1105.75
883.869	1137.13
884.044	1045.69
884.22	1080.75
884.396	1146.24
884.572	1103.81
884.747	1137.33
884.923	1114.47
885.099	1135
885.275	1127.64
885.45	1068.94
885.626	1087.15
885.801	1057.12
885.977	1068.94
886.153	1040.45
886.328	1084.44
886.504	1044.52
886.679	1081.34
886.855	1044.91
887.03	1092.77
887.206	1117.95
887.381	1096.45
887.557	1124.73
887.732	1106.72
887.908	1086.76
888.083	1076.69
888.258	1073.59
888.434	1082.69
888.609	1086.18
888.784	1110.98
888.96	1099.16
889.135	1025.34
889.31	1048.01
889.485	1089.47
889.661	1062.15
889.836	1121.44
890.011	1078.24
890.186	1056.92
890.361	1072.62
890.537	1043.36
890.712	1067.58
890.887	1079.79
891.062	1086.37
891.237	1139.27
891.412	1048.79
891.587	1068.74
891.762	1073.39
891.937	1152.05
892.112	1007.32
892.287	1070.1
892.462	1007.32
892.637	962.76
892.812	973.22
892.987	979.23
893.161	982.52
893.336	980.39
893.511	985.43
893.686	949.59
893.861	982.72
894.035	982.14
894.21	976.52
894.385	919.56
894.56	950.75
894.734	897.66
894.909	857.95
895.084	887.01
895.258	833.92
895.433	862.4
895.608	835.08
895.782	793.81
895.957	813.19
896.131	790.71
896.306	760.1
896.48	754.1
896.655	765.33
896.829	690.74
897.004	680.47
897.178	683.77
897.353	680.09
897.527	721.55
897.701	707.98
897.876	646.18
898.05	726
898.224	703.33
898.399	743.25
898.573	681.83
898.747	591.74
898.921	620.99
899.096	564.42
899.27	550.47
899.444	582.05
899.618	580.31
899.792	598.71
899.967	637.27
900.141	666.14
900.315	590.38
900.489	577.59
900.663	614.6
900.837	612.27
901.011	591.54
901.185	677.57
901.359	600.65
901.533	596.97
901.707	614.02
901.881	588.83
902.055	560.74
902.229	588.06
902.403	651.41
902.576	575.46
902.75	610.14
902.924	690.55
903.098	687.64
903.272	696.94
903.446	759.52
903.619	736.08
903.793	765.92
903.967	763.59
904.14	789.16
904.314	792.85
904.488	754.48
904.661	777.15
904.835	757.58
905.009	812.8
905.182	843.61
905.356	814.93
905.529	795.17
905.703	704.69
905.876	732.2
906.05	730.46
906.223	712.05
906.397	654.51
906.57	628.94
906.744	622.35
906.917	612.47
907.09	604.14
907.264	603.75
907.437	580.5
907.61	566.55
907.784	569.46
907.957	551.44
908.13	542.33
908.304	558.99
908.477	534.39
908.65	530.9
908.823	478.01
908.996	586.12
909.17	521.6
909.343	528.38
909.516	545.04
909.689	545.82
909.862	494.09
910.035	525.86
910.208	485.76
910.381	500.68
910.554	592.32
910.727	530.71
910.9	494.09
911.073	521.6
911.246	545.04
911.419	597.94
911.592	521.02
911.765	526.64
911.938	486.53
912.11	522.37
912.283	522.76
912.456	572.94
912.629	506.88
912.802	507.84
912.974	459.6
913.147	407.29
913.32	372.03
913.493	424.53
913.665	442.74
913.838	426.47
914.01	461.93
914.183	478.2
914.356	450.11
914.528	485.95
914.701	545.62
914.873	482.27
915.046	443.71
915.218	431.31
915.391	385.01
915.563	381.52
915.736	443.91
915.908	444.29
916.081	446.04
916.253	416.59
916.425	455.73
916.598	466.38
916.77	424.14
916.942	405.74
917.115	369.12
917.287	431.51
917.459	397.41
917.632	393.15
917.804	352.85
917.976	431.12
918.148	422.79
918.32	449.14
918.493	459.6
918.665	478.98
918.837	455.34
919.009	496.41
919.181	510.36
919.353	485.37
919.525	482.27
919.697	499.9
919.869	471.42
920.041	578.37
920.213	584.18
920.385	512.49
920.557	509.78
920.729	526.64
920.901	493.7
921.073	459.21
921.244	481.49
921.416	488.66
921.588	506.49
921.76	474.33
921.932	540.01
922.103	509.01
922.275	496.22
922.447	501.84
922.619	422.01
922.79	491.38
922.962	487.11
923.134	482.66
923.305	419.11
923.477	415.81
923.648	415.43
923.82	440.61
923.991	394.7
924.163	392.95
924.335	440.61
924.506	357.11
924.677	443.13
924.849	374.55
925.02	416.01
925.192	426.66
925.363	413.49
925.535	442.74
925.706	398.96
925.877	446.62
926.049	379.97
926.22	413.3
926.391	391.21
926.562	433.06
926.734	440.61
926.905	429.96
927.076	383.07
927.247	383.26
927.419	347.42
927.59	326.88
927.761	329.98
927.932	326.3
928.103	343.35
928.274	298.4
928.445	276.12
928.616	278.06
928.787	272.05
928.958	292.01
929.129	282.71
929.3	281.35
929.471	190.87
929.642	197.85
929.813	162.78
929.984	251.13
930.155	158.91
930.326	218.19
930.496	153.67
930.667	102.33
930.838	162.39
931.009	120.16
931.18	183.7
931.35	142.24
931.521	166.85
931.692	107.17
931.863	56.8
932.033	135.46
932.204	122.67
932.374	119.96
932.545	65.13
932.716	136.82
932.886	107.76
933.057	30.64
933.227	46.14
933.398	105.04
933.568	30.64
933.739	20.76
933.909	51.76
934.08	72.88
934.25	26.96
934.421	31.81
934.591	62.81
934.761	10.69
934.932	-2.29
935.102	74.04
935.272	42.46
935.443	22.31
935.613	46.73
935.783	49.63
935.953	-0.36
936.123	159.29
936.294	-17.99
936.464	59.13
936.634	44.01
936.804	14.37
936.974	-2.68
937.144	44.98
937.314	36.46
937.484	29.68
937.655	9.91
937.825	54.28
937.995	24.06
938.165	46.34
938.334	21.34
938.504	45.37
938.674	52.73
938.844	50.02
939.014	110.08
939.184	85.86
939.354	135.07
939.524	104.46
939.694	73.46
939.863	69.59
940.033	131.97
940.203	133.91
940.373	97.49
940.542	128.1
940.712	60.68
940.882	111.44
941.051	114.34
941.221	111.82
941.391	124.61
941.56	79.08
941.73	71.53
941.899	189.9
942.069	67.07
942.238	115.89
942.408	85.09
942.577	100.78
942.747	92.64
942.916	46.73
943.086	25.41
943.255	102.52
943.425	96.13
943.594	55.44
943.763	24.44
943.933	13.98
944.102	1.58
944.271	58.93
944.441	89.54
944.61	33.36
944.779	46.73
944.948	134.49
945.117	22.89
945.287	48.08
945.456	29.48
945.625	26.19
945.794	63.97
945.963	33.16
946.132	64.94
946.301	40.72
946.47	97.68
946.639	6.62
946.808	45.95
946.977	109.11
947.146	113.76
947.315	44.4
947.484	80.44
947.653	50.02
947.822	46.53
947.991	27.54
948.16	131.78
948.329	102.33
948.498	62.61
948.666	48.47
948.835	85.67
949.004	5.26
949.173	15.92
949.341	55.64
949.51	73.66
949.679	50.6
949.847	110.86
950.016	122.48
950.185	122.67
950.353	65.33
950.522	52.93
950.69	108.34
950.859	41.69
951.028	96.52
951.196	84.12
951.365	42.46
951.533	52.93
951.701	84.7
951.87	83.73
952.038	25.99
952.207	57.19
952.375	112.79
952.543	44.59
952.712	77.92
952.88	52.34
953.048	100.97
953.217	67.26
953.385	84.31
953.553	133.14
953.721	33.36
953.89	53.51
954.058	25.03
954.226	40.14
954.394	69.78
954.562	-6.56
954.73	28.51
954.898	68.81
955.067	98.84
955.235	25.8
955.403	85.47
955.571	115.31
955.739	90.51
955.907	42.66
956.075	47.69
956.243	36.46
956.41	90.12
956.578	1.19
956.746	15.73
956.914	60.29
957.082	98.26
957.25	91.87
957.418	61.06
957.585	89.74
957.753	108.14
957.921	38.59
958.089	36.46
958.256	75.79
958.424	62.42
958.592	67.65
958.759	54.28
958.927	68.23
959.095	50.02
959.262	47.11
959.43	63.58
959.597	33.55
959.765	61.06
959.932	23.48
960.1	84.31
960.267	57.38
960.435	58.35
960.602	102.72
960.77	50.6
960.937	33.16
961.104	83.34
961.272	25.22
961.439	61.26
961.606	45.76
961.774	86.25
961.941	61.45
962.108	70.36
962.275	80.82
962.443	117.64
962.61	92.26
962.777	136.62
962.944	90.12
963.111	85.28
963.278	95.16
963.446	116.28
963.613	91.67
963.78	118.22
963.947	110.27
964.114	81.02
964.281	138.17
964.448	106.79
964.615	73.66
964.782	96.91
964.949	79.66
965.116	126.94
965.282	127.13
965.449	66.1
965.616	65.71
965.783	88.96
965.95	111.63
966.117	51.57
966.283	66.1
966.45	72.11
966.617	101.94
966.784	102.33
966.95	87.61
967.117	128.87
967.284	81.21
967.45	88.96
967.617	137.79
967.784	128.87
967.95	153.29
968.117	105.82
968.283	141.08
968.45	201.34
968.616	139.14
968.783	146.31
968.949	118.22
969.116	127.13
969.282	100.01
969.449	140.11
969.615	124.22
969.781	73.07
969.948	83.34
970.114	86.06
970.28	160.07
970.447	109.89
970.613	144.96
970.779	100.97
970.945	143.99
971.112	130.42
971.278	96.13
971.444	115.51
971.61	129.46
971.776	84.31
971.942	127.32
972.108	110.08
972.275	125.58
972.441	120.35
972.607	171.89
972.773	82.57
972.939	114.92
973.105	119.96
973.271	76.95
973.437	89.74
973.602	68.81
973.768	108.72
973.934	81.6
974.1	107.95
974.266	50.41
974.432	126.94
974.598	69.78
974.763	115.31
974.929	86.64
975.095	150.57
975.261	53.7
975.426	88.19
975.592	87.02
975.758	139.92
975.923	57.19
976.089	67.07
976.255	111.82
976.42	125.58
976.586	106.21
976.751	116.28
976.917	157.16
977.082	115.89
977.248	50.79
977.413	20.96
977.579	86.83
977.744	106.98
977.91	60.29
978.075	74.04
978.24	129.65
978.406	117.25
978.571	72.88
978.736	61.45
978.902	97.68
979.067	75.21
979.232	55.83
979.397	105.24
979.563	139.92
979.728	76.56
979.893	77.72
980.058	50.6
980.223	108.92
980.388	99.04
980.554	87.02
980.719	64.36
980.884	89.16
981.049	94
981.214	80.63
981.379	82.18
981.544	80.05
981.709	82.96
981.874	67.26
982.039	83.34
982.204	99.23
982.368	96.52
982.533	80.82
982.698	105.04
982.863	125
983.028	101.36
983.193	88.38
983.357	95.55
983.522	88.77
983.687	95.16
983.852	96.71
984.016	66.68
984.181	79.47
984.346	100.78
984.51	100.59
984.675	70.17
984.839	100.78
985.004	103.88
985.168	100.01
985.333	116.28
985.498	94.39
985.662	113.37
985.827	103.88
985.991	78.11
986.155	52.93
986.32	124.42
986.484	121.51
986.649	99.62
986.813	31.81
986.977	106.98
987.142	124.22
987.306	66.1
987.47	74.04
987.634	77.14
987.799	102.14
987.963	87.02
988.127	102.91
988.291	139.14
988.455	84.12
988.62	59.9
988.784	77.92
988.948	109.69
989.112	60.68
989.276	78.89
989.44	89.93
989.604	80.24
989.768	74.04
989.932	151.54
990.096	45.76
990.26	68.81
990.424	45.76
990.588	57.96
990.752	135.07
990.915	102.52
991.079	56.61
991.243	54.86
991.407	115.89
991.571	81.6
991.734	113.76
991.898	90.12
992.062	173.82
992.226	79.08
992.389	52.73
992.553	64.36
992.717	51.57
992.88	63.39
993.044	63.19
993.207	53.7
993.371	105.24
993.535	87.61
993.698	66.68
993.862	95.55
994.025	111.24
994.189	92.84
994.352	98.84
994.515	101.36
994.679	101.36
994.842	67.07
995.006	103.3
995.169	49.05
995.332	87.22
995.496	77.72
995.659	22.89
995.822	97.87
995.985	58.35
996.149	141.66
996.312	59.32
996.475	103.69
996.638	51.18
996.801	115.31
996.964	134.49
997.128	70.17
997.291	77.72
997.454	71.33
997.617	27.54
997.78	104.85
997.943	47.5
998.106	109.11
998.269	47.69
998.432	83.34
998.595	62.03
998.758	19.41
998.92	25.22
999.083	29.48
999.246	57.58
999.409	36.65
999.572	32.58
999.735	47.89
999.897	78.89
1000.06	55.44
1000.223	63
1000.386	101.36
1000.548	74.62
1000.711	79.47
1000.874	65.52
1001.036	34.52
1001.199	79.47
1001.361	23.28
1001.524	59.51
1001.687	94
1001.849	41.69
1002.012	70.36
1002.174	71.53
1002.337	76.76
1002.499	34.91
1002.661	114.34
1002.824	9.53
1002.986	38.59
1003.149	51.18
1003.311	31.03
1003.473	108.53
1003.636	48.47
1003.798	57.38
1003.96	69.39
1004.123	85.47
1004.285	44.79
1004.447	60.29
1004.609	50.21
1004.771	98.84
1004.933	17.08
1005.096	23.86
1005.258	16.89
1005.42	30.45
1005.582	70.17
1005.744	52.73
1005.906	11.85
1006.068	35.49
1006.23	3.71
1006.392	-2.49
1006.554	19.6
1006.716	75.21
1006.878	54.48
1007.04	24.64
1007.202	39.56
1007.363	53.51
1007.525	31.81
1007.687	50.6
1007.849	71.14
1008.011	-0.55
1008.172	23.67
1008.334	23.48
1008.496	40.91
1008.658	12.82
1008.819	15.34
1008.981	-3.65
1009.143	23.09
1009.304	46.73
1009.466	76.37
1009.627	98.65
1009.789	107.56
1009.95	55.06
1010.112	22.51
1010.273	52.93
1010.435	-14.69
1010.596	30.64
1010.758	29.09
1010.919	35.49
1011.081	4.1
1011.242	4.1
1011.403	36.65
1011.565	54.48
1011.726	67.65
1011.887	3.13
1012.049	23.67
1012.21	73.66
1012.371	84.12
1012.532	-13.53
1012.693	43.63
1012.855	22.51
1013.016	30.06
1013.177	74.43
1013.338	29.09
1013.499	69.78
1013.66	39.36
1013.821	39.17
1013.982	43.04
1014.143	20.18
1014.304	21.93
1014.465	53.31
1014.626	59.9
1014.787	42.85
1014.948	117.83
1015.109	-55.38
1015.27	88.77
1015.431	14.56
1015.592	-2.87
1015.752	76.56
1015.913	36.84
1016.074	40.72
1016.235	21.93
1016.395	34.52
1016.556	57.58
1016.717	49.44
1016.877	56.22
1017.038	19.21
1017.199	37.43
1017.359	53.51
1017.52	32.97
1017.681	21.54
1017.841	35.49
1018.002	45.56
1018.162	17.66
1018.323	72.49
1018.483	32.39
1018.644	31.61
1018.804	18.83
1018.964	-17.21
1019.125	2.16
1019.285	25.41
1019.446	2.16
1019.606	-12.17
1019.766	-30.58
1019.926	39.17
1020.087	15.73
1020.247	-11.59
1020.407	32.58
1020.567	65.91
1020.728	12.04
1020.888	-1.13
1021.048	-5.2
1021.208	18.24
1021.368	2.16
1021.528	71.91
1021.688	46.92
1021.848	30.84
1022.008	17.08
1022.168	20.96
1022.328	31.61
1022.488	33.36
1022.648	3.52
1022.808	3.52
1022.968	29.09
1023.128	2.74
1023.288	-4.81
1023.448	17.66
1023.608	37.62
1023.767	34.91
1023.927	3.91
1024.087	-13.34
1024.247	-27.87
1024.406	-13.53
1024.566	-6.36
1024.726	-9.66
1024.885	20.76
1025.045	37.23
1025.205	5.84
1025.364	-1.91
1025.524	27.35
1025.683	10.49
1025.843	28.71
1026.003	-3.46
1026.162	73.27
1026.321	26.19
1026.481	38.01
1026.64	6.62
1026.8	25.8
1026.959	12.63
1027.119	29.87
1027.278	26.19
1027.437	24.25
1027.597	23.48
1027.756	14.76
1027.915	24.44
1028.074	18.63
1028.234	-2.68
1028.393	28.13
1028.552	-9.46
1028.711	-72.04
1028.87	53.31
1029.03	-31.16
1029.189	29.48
1029.348	-29.42
1029.507	-16.44
1029.666	34.13
1029.825	-4.04
1029.984	-15.08
1030.143	38.01
1030.302	-6.17
1030.461	-14.89
1030.62	15.53
1030.779	42.27
1030.938	-0.36
1031.097	-10.24
1031.255	30.06
1031.414	53.7
1031.573	62.61
1031.732	-42.59
1031.891	-12.17
1032.049	42.08
1032.208	24.83
1032.367	-14.31
1032.525	8.56
1032.684	-6.17
1032.843	13.79
1033.001	-50.34
1033.16	118.61
1033.319	31.61
1033.477	22.31
1033.636	-22.44
1033.794	-24.96
1033.953	15.34
1034.111	23.28
1034.27	-6.56
1034.428	20.76
1034.587	-36.97
1034.745	5.26
1034.903	8.36
1035.062	44.98
1035.22	-4.04
1035.378	31.81
1035.537	-33.29
1035.695	55.06
1035.853	2.94
1036.011	29.68
1036.17	32.58
1036.328	-28.06
1036.486	-0.36
1036.644	6.23
1036.802	-70.49
1036.96	-39.3
1037.119	-0.36
1037.277	-22.44
1037.435	-18.18
1037.593	-20.89
1037.751	7.59
1037.909	20.96
1038.067	20.96
