Data from gum_young_FLMT105791__128__17-40-56-040.txt Node

Date: Mon Mar 20 17:40:56 GMT 2023
User: antho
Spectrometer: FLMT10579
Trigger mode: 0
Integration Time (sec): 1.000000E-1
Scans to average: 10
Electric dark correction enabled: true
Nonlinearity correction enabled: false
Boxcar width: 0
XAxis mode: Wavelengths
Number of Pixels in Spectrum: 3648
>>>>>Begin Spectral Data<<<<<
345.248	-138.17
345.464	-138.17
345.681	-138.17
345.898	-160.45
346.114	-142.44
346.331	-28.51
346.548	26.7
346.764	-13.01
346.981	-5.46
347.197	-21.93
347.414	18.95
347.631	-1.39
347.847	49.18
348.064	-12.24
348.28	47.82
348.497	-44.21
348.713	-15.92
348.93	43.37
349.146	27.09
349.363	-23.86
349.579	14.89
349.796	13.72
350.012	-19.21
350.229	45.69
350.445	-1.58
350.661	-23.48
350.878	17.99
351.094	23.22
351.311	-8.56
351.527	18.18
351.743	-19.6
351.96	19.92
352.176	42.79
352.392	28.06
352.609	40.46
352.825	-15.73
353.041	-19.79
353.257	-5.07
353.474	7.14
353.69	11.01
353.906	-10.49
354.122	-34.33
354.339	26.12
354.555	17.21
354.771	-16.69
354.987	62.94
355.203	45.11
355.42	-21.34
355.636	-18.83
355.852	-3.13
356.068	6.75
356.284	-30.06
356.5	74.17
356.716	31.94
356.932	28.06
357.148	20.89
357.364	3.07
357.58	44.14
357.796	61.39
358.012	33.49
358.228	7.72
358.444	-54.86
358.66	69.33
358.876	10.04
359.092	-8.94
359.308	15.27
359.524	30
359.74	-12.04
359.956	-6.23
360.172	17.02
360.388	11.21
360.604	8.69
360.819	70.69
361.035	8.88
361.251	12.56
361.467	-11.66
361.683	67.78
361.898	31.16
362.114	45.89
362.33	15.27
362.546	63.71
362.762	10.24
362.977	6.56
363.193	18.57
363.409	37.75
363.624	-20.18
363.84	-2.55
364.056	-13.4
364.271	23.02
364.487	47.24
364.703	3.26
364.918	-12.63
365.134	19.34
365.35	-1.39
365.565	103.62
365.781	1.52
365.996	10.82
366.212	67.59
366.427	34.07
366.643	12.76
366.858	12.95
367.074	-15.73
367.289	73.59
367.505	94.52
367.72	-30.45
367.936	-6.81
368.151	42.98
368.367	28.64
368.582	35.42
368.798	8.11
369.013	54.8
369.228	34.65
369.444	34.07
369.659	58.87
369.874	27.87
370.09	74.37
370.305	-53.12
370.52	4.62
370.736	54.02
370.951	24.38
371.166	44.14
371.381	51.12
371.597	53.83
371.812	-32.39
372.027	10.04
372.242	-3.71
372.458	85.22
372.673	14.89
372.888	15.08
373.103	49.76
373.318	113.5
373.533	35.62
373.749	40.46
373.964	-37.62
374.179	71.27
374.394	5.2
374.609	83.09
374.824	-9.33
375.039	55.77
375.254	3.84
375.469	28.45
375.684	57.32
375.899	58.48
376.114	9.85
376.329	44.14
376.544	40.46
376.759	50.34
376.974	24.57
377.189	21.86
377.404	4.81
377.619	79.6
377.834	-56.41
378.049	-31.23
378.264	-36.46
378.478	53.05
378.693	21.28
378.908	44.92
379.123	14.69
379.338	69.14
379.553	31.35
379.767	47.05
379.982	54.8
380.197	38.52
380.412	-1.58
380.626	44.14
380.841	102.65
381.056	60.42
381.271	78.05
381.485	18.37
381.7	-9.53
381.915	50.34
382.129	19.54
382.344	52.67
382.559	25.54
382.773	55.38
382.988	-34.71
383.202	33.87
383.417	11.01
383.632	103.43
383.846	39.88
384.061	29.61
384.275	14.69
384.49	58.67
384.704	41.43
384.919	38.52
385.133	24.96
385.348	51.7
385.562	6.75
385.777	64.68
385.991	33.49
386.206	6.36
386.42	-13.79
386.634	78.05
386.849	40.65
387.063	54.02
387.277	32.52
387.492	11.79
387.706	7.91
387.92	23.8
388.135	77.66
388.349	45.11
388.563	57.9
388.778	45.3
388.992	71.65
389.206	71.07
389.42	99.36
389.635	45.5
389.849	48.02
390.063	72.62
390.277	53.44
390.491	90.06
390.706	63.13
390.92	73.59
391.134	61.39
391.348	69.72
391.562	-10.3
391.776	24.77
391.99	48.6
392.205	68.36
392.419	40.27
392.633	38.52
392.847	93.35
393.061	39.88
393.275	92.97
393.489	42.4
393.703	42.4
393.917	85.6
394.131	1.71
394.345	59.06
394.559	93.94
394.773	9.66
394.986	79.21
395.2	61.39
395.414	70.69
395.628	47.63
395.842	59.25
396.056	59.25
396.27	7.91
396.484	80.76
396.697	86.57
396.911	70.1
397.125	68.17
397.339	81.73
397.553	53.25
397.766	115.44
397.98	100.52
398.194	90.45
398.408	52.47
398.621	70.1
398.835	61.97
399.049	73.98
399.262	113.31
399.476	95.49
399.69	98.39
399.903	149.93
400.117	81.54
400.331	105.56
400.544	86.19
400.758	179.96
400.971	92.77
401.185	111.76
401.398	50.15
401.612	153.61
401.826	129.2
402.039	115.25
402.253	62.94
402.466	117.77
402.68	74.56
402.893	91.42
403.106	97.42
403.32	97.81
403.533	108.27
403.747	73.4
403.96	107.11
404.174	129.58
404.387	81.73
404.6	101.3
404.814	137.14
405.027	103.62
405.24	82.7
405.454	103.43
405.667	141.02
405.88	44.53
406.094	112.34
406.307	115.83
406.52	116.99
406.733	60.03
406.947	33.68
407.16	176.08
407.373	116.6
407.586	92.39
407.799	86.19
408.012	136.75
408.226	124.55
408.439	132.1
408.652	65.45
408.865	149.93
409.078	129.2
409.291	131.33
409.504	78.44
409.717	134.23
409.93	121.64
410.143	118.93
410.357	55.19
410.57	54.41
410.783	96.45
410.996	112.73
411.209	109.63
411.421	166.59
411.634	126.29
411.847	98.97
412.06	123.97
412.273	131.52
412.486	125.9
412.699	193.33
412.912	123.19
413.125	158.65
413.338	134.04
413.55	159.81
413.763	126.48
413.976	145.67
414.189	104.01
414.402	108.85
414.615	202.24
414.827	108.27
415.04	141.4
415.253	156.71
415.466	186.35
415.678	182.67
415.891	156.32
416.104	142.18
416.316	126.68
416.529	147.02
416.742	161.94
416.954	181.12
417.167	151.67
417.38	125.13
417.592	155.93
417.805	95.87
418.017	89.09
418.23	166.78
418.442	122.03
418.655	131.33
418.868	165.04
419.08	168.72
419.293	192.55
419.505	145.28
419.718	155.74
419.93	184.61
420.142	155.16
420.355	203.21
420.567	182.48
420.78	204.56
420.992	156.71
421.205	195.26
421.417	115.05
421.629	165.23
421.842	121.25
422.054	122.42
422.266	195.26
422.479	183.25
422.691	134.04
422.903	177.05
423.115	136.17
423.328	169.69
423.54	171.05
423.752	145.08
423.964	175.12
424.177	195.65
424.389	134.23
424.601	235.76
424.813	181.51
425.025	209.41
425.238	200.5
425.45	162.91
425.662	164.27
425.874	440.16
426.086	153.03
426.298	197.2
426.51	165.04
426.722	184.03
426.934	158.26
427.146	204.95
427.358	151.48
427.57	223.94
427.782	171.82
427.994	157.29
428.206	135.4
428.418	124.35
428.63	199.91
428.842	218.71
429.054	172.02
429.266	228.78
429.478	157.87
429.69	165.04
429.902	155.35
430.114	199.53
430.325	187.32
430.537	141.98
430.749	166.01
430.961	122.03
431.173	153.03
431.384	168.14
431.596	101.3
431.808	158.07
432.02	194.88
432.231	239.63
432.443	221.42
432.655	198.36
432.867	164.85
433.078	224.13
433.29	264.63
433.502	240.21
433.713	240.21
433.925	234.21
434.136	247.96
434.348	171.24
434.56	138.5
434.771	297.37
434.983	178.8
435.194	193.91
435.406	210.18
435.617	239.63
435.829	287.29
436.04	238.86
436.252	241.96
436.463	275.09
436.675	260.75
436.886	242.93
437.098	249.71
437.309	305.31
437.521	225.1
437.732	254.55
437.943	217.35
438.155	220.65
438.366	200.11
438.578	303.57
438.789	247.19
439	236.34
439.211	217.35
439.423	248.93
439.634	255.91
439.845	246.41
440.057	238.66
440.268	273.93
440.479	224.71
440.69	261.14
440.902	218.13
441.113	265.98
441.324	255.13
441.535	272.96
441.746	318.68
441.957	261.53
442.168	253.78
442.38	288.07
442.591	307.25
442.802	248.55
443.013	265.98
443.224	309.38
443.435	255.91
443.646	262.11
443.857	249.32
444.068	272.96
444.279	249.32
444.49	346.78
444.701	278.77
444.912	371.38
445.123	304.93
445.334	296.01
445.545	308.41
445.756	283.81
445.967	252.42
446.178	296.21
446.388	308.8
446.599	293.49
446.81	322.17
447.021	289.43
447.232	331.66
447.443	343.48
447.653	295.63
447.864	337.67
448.075	327.79
448.286	356.08
448.496	333.21
448.707	375.45
448.918	315.39
449.129	422.14
449.339	315.39
449.55	340.19
449.761	287.88
449.971	398.89
450.182	325.27
450.393	371.38
450.603	322.56
450.814	381.07
451.024	371.77
451.235	387.46
451.446	403.74
451.656	430.09
451.867	346.97
452.077	380.87
452.288	423.89
452.498	437.26
452.709	363.63
452.919	395.6
453.13	324.88
453.34	385.14
453.55	309.19
453.761	388.82
453.971	373.51
454.182	410.71
454.392	383.39
454.602	444.23
454.813	393.08
455.023	419.43
455.233	352.98
455.444	381.26
455.654	316.55
455.864	358.21
456.075	372.54
456.285	352.39
456.495	374.48
456.705	406.06
456.916	435.51
457.126	444.04
457.336	401.99
457.546	344.06
457.756	394.82
457.967	427.96
458.177	387.46
458.387	400.25
458.597	336.31
458.807	359.18
459.017	393.27
459.227	367.51
459.437	377.58
459.647	406.84
459.857	445.78
460.068	379.91
460.278	458.57
460.488	443.84
460.698	457.4
460.908	397.34
461.117	361.5
461.327	400.44
461.537	427.18
461.747	429.51
461.957	418.66
462.167	487.82
462.377	432.8
462.587	442.87
462.797	448.69
463.007	441.71
463.216	489.18
463.426	501
463.636	451.79
463.846	387.27
464.056	416.72
464.265	472.71
464.475	393.66
464.685	420.79
464.895	467.48
465.104	437.45
465.314	470.39
465.524	452.17
465.733	413.62
465.943	507.2
466.153	509.14
466.362	489.57
466.572	478.52
466.782	452.37
466.991	448.88
467.201	503.52
467.41	425.05
467.62	461.47
467.829	457.79
468.039	476.97
468.249	476.97
468.458	480.46
468.668	481.04
468.877	497.9
469.086	520.95
469.296	538
469.505	465.93
469.715	539.75
469.924	483.95
470.134	536.45
470.343	520.95
470.552	504.49
470.762	459.15
470.971	480.07
471.18	506.04
471.39	507
471.599	482.79
471.808	553.89
472.018	485.69
472.227	570.55
472.436	578.88
472.645	537.81
472.855	542.46
473.064	596.13
473.273	555.44
473.482	582.76
473.691	579.47
473.901	550.21
474.11	541.1
474.319	646.89
474.528	569
474.737	632.75
474.946	583.73
475.155	588.18
475.364	619.77
475.573	626.74
475.783	615.7
475.992	576.75
476.201	630.42
476.41	582.18
476.619	577.33
476.828	598.84
477.037	574.43
477.245	601.17
477.454	643.4
477.663	612.02
477.872	627.9
478.081	685.83
478.29	621.9
478.499	717.8
478.708	671.3
478.917	728.46
479.125	629.84
479.334	685.64
479.543	642.82
479.752	670.53
479.961	695.33
480.169	720.32
480.378	681.18
480.587	791.62
480.796	725.94
481.004	686.41
481.213	738.73
481.422	736.79
481.63	735.82
481.839	749.19
482.048	804.02
482.256	753.64
482.465	764.88
482.674	759.26
482.882	769.34
483.091	849.36
483.299	775.54
483.508	779.22
483.716	789.29
483.925	781.93
484.134	781.54
484.342	759.46
484.551	821.84
484.759	809.44
484.967	819.32
485.176	842.96
485.384	818.16
485.593	835.6
485.801	823.97
486.01	793.94
486.218	736.01
486.426	715.67
486.635	721.29
486.843	730.01
487.051	743.38
487.26	763.53
487.468	776.31
487.676	803.24
487.885	802.08
488.093	839.86
488.301	843.16
488.509	864.66
488.717	904.38
488.926	896.24
489.134	848.97
489.342	869.89
489.55	844.12
489.758	872.8
489.967	893.72
490.175	956.69
490.383	915.62
490.591	992.92
490.799	911.35
491.007	985.56
491.215	980.91
491.423	951.46
491.631	955.34
491.839	939.64
492.047	971.22
492.255	891.4
492.463	898.37
492.671	900.5
492.879	948.55
493.087	961.54
493.295	973.94
493.503	955.53
493.711	1008.42
493.919	987.3
494.127	992.15
494.334	992.15
494.542	951.85
494.75	1037.48
494.958	1014.23
495.166	1076.04
495.374	1005.52
495.581	1030.51
495.789	1055.12
495.997	1074.68
496.205	1040.39
496.412	1025.47
496.62	1011.33
496.828	1089.6
497.035	1048.72
497.243	1087.47
497.451	1049.5
497.658	1074.88
497.866	1037.87
498.074	1134.94
498.281	1007.84
498.489	1140.56
498.696	1071.58
498.904	1058.22
499.112	1056.86
499.319	1153.15
499.527	1092.31
499.734	1160.32
499.942	1099.48
500.149	1065.96
500.357	1140.36
500.564	1090.18
500.771	1120.41
500.979	1081.66
501.186	1071.2
501.394	1146.95
501.601	1114.01
501.808	1144.43
502.016	1108.01
502.223	1094.06
502.43	1104.71
502.638	1140.17
502.845	1127.96
503.052	1202.36
503.26	1144.43
503.467	1219.03
503.674	1174.08
503.881	1172.33
504.089	1224.06
504.296	1222.51
504.503	1149.47
504.71	1182.21
504.917	1155.28
505.125	1236.08
505.332	1241.69
505.539	1270.37
505.746	1302.72
505.953	1296.33
506.16	1297.49
506.367	1351.55
506.574	1360.27
506.781	1358.33
506.988	1307.57
507.195	1320.16
507.402	1297.49
507.609	1320.16
507.816	1313.57
508.023	1318.61
508.23	1305.44
508.437	1265.14
508.644	1372.86
508.851	1417.03
509.058	1443
509.265	1387.2
509.472	1441.64
509.679	1495.5
509.885	1412.19
510.092	1445.71
510.299	1410.84
510.506	1436.8
510.713	1454.23
510.92	1446.48
511.126	1513.52
511.333	1527.86
511.54	1568.74
511.746	1555.95
511.953	1593.73
512.16	1614.08
512.367	1530.57
512.573	1576.49
512.78	1561.57
512.987	1561.96
513.193	1578.23
513.4	1485.62
513.606	1574.75
513.813	1607.29
514.02	1578.43
514.226	1667.16
514.433	1668.33
514.639	1605.94
514.846	1628.03
515.052	1628.03
515.259	1658.83
515.465	1678.98
515.672	1690.22
515.878	1770.82
516.085	1715.6
516.291	1803.17
516.497	1761.91
516.704	1734.01
516.91	1677.62
517.117	1611.75
517.323	1574.16
517.529	1575.91
517.736	1621.83
517.942	1646.04
518.148	1688.67
518.354	1720.06
518.561	1700.1
518.767	1724.12
518.973	1813.64
519.179	1823.13
519.386	1780.89
519.592	1836.3
519.798	1824.87
520.004	1945.38
520.21	1941.51
520.417	1976.19
520.623	2040.71
520.829	2048.46
521.035	2043.23
521.241	2066.28
521.447	2054.46
521.653	2197.64
521.859	2107.74
522.065	2132.93
522.271	2243.56
522.477	2172.84
522.683	2238.91
522.889	2204.62
523.095	2167.03
523.301	2230.97
523.507	2202.29
523.713	2175.56
523.919	2152.69
524.125	2282.12
524.331	2291.42
524.537	2337.14
524.742	2368.14
524.948	2428.98
525.154	2420.65
525.36	2474.89
525.566	2381.9
525.772	2479.54
525.977	2394.1
526.183	2420.06
526.389	2471.79
526.595	2388.68
526.8	2366.59
527.006	2263.32
527.212	2229.8
527.417	2267.39
527.623	2245.11
527.829	2320.87
528.034	2341.6
528.24	2385.38
528.446	2408.25
528.651	2503.57
528.857	2517.52
529.062	2598.89
529.268	2579.91
529.473	2595.02
529.679	2639.77
529.884	2689.37
530.09	2655.66
530.295	2643.84
530.501	2709.52
530.706	2653.34
530.912	2630.67
531.117	2695.38
531.323	2693.44
531.528	2785.28
531.733	2786.05
531.939	2705.45
532.144	2771.33
532.35	2708.94
532.555	2752.53
532.76	2670.97
532.966	2701.39
533.171	2701.58
533.376	2620.21
533.581	2626.79
533.787	2703.13
533.992	2748.85
534.197	2742.46
534.402	2758.73
534.607	2778.11
534.813	2840.11
535.018	2750.79
535.223	2806.2
535.428	2785.28
535.633	2860.26
535.838	2927.29
536.043	2959.65
536.249	3003.82
536.454	2928.26
536.659	2946.48
536.864	2916.25
537.069	2857.16
537.274	2906.18
537.479	2878.47
537.684	2894.36
537.889	2865.1
538.094	3014.87
538.299	2911.21
538.504	2976.31
538.708	2955.97
538.913	3002.86
539.118	2954.03
539.323	2972.83
539.528	2952.87
539.733	2925.74
539.938	2966.82
540.142	2966.43
540.347	2873.82
540.552	2901.91
540.757	2857.16
540.962	2921.09
541.166	2835.65
541.371	2855.8
541.576	2883.9
541.781	2834.1
541.985	2980.38
542.19	2964.3
542.395	3066.6
542.599	3044.51
542.804	2964.88
543.008	3063.5
543.213	3008.09
543.418	2955.19
543.622	3019.13
543.827	2979.99
544.031	3060.01
544.236	3035.6
544.44	3055.94
544.645	3134.41
544.849	3054.97
545.054	3090.82
545.258	3132.47
545.463	3166.18
545.667	3058.07
545.872	3121.82
546.076	3085.2
546.281	3122.4
546.485	3103.22
546.689	3104.77
546.894	3118.91
547.098	3095.08
547.302	3123.75
547.507	3142.16
547.711	3146.81
547.915	3161.15
548.119	3029.59
548.324	3055.17
548.528	3146.23
548.732	3089.27
548.936	3123.56
549.141	3221.21
549.345	3095.66
549.549	3138.29
549.753	3136.74
549.957	3232.83
550.161	3229.15
550.366	3185.37
550.57	3144.49
550.774	3154.95
550.978	3197.57
551.182	3215.59
551.386	3169.67
551.59	3191.76
551.794	3172
551.998	3211.13
552.202	3181.88
552.406	3118.33
552.61	3246.59
552.814	3253.18
553.018	3238.07
553.222	3147.2
553.426	3161.34
553.63	3264.03
553.833	3171.42
554.037	3085.2
554.241	3198.35
554.445	3187.11
554.649	3167.15
554.853	3121.04
555.056	3189.82
555.26	3246.98
555.464	3195.44
555.668	3196.99
555.871	3201.83
556.075	3239.81
556.279	3173.35
556.483	3120.85
556.686	3093.92
556.89	3138.09
557.094	3150.88
557.297	3025.52
557.501	3114.65
557.704	3062.14
557.908	3121.24
558.112	3063.5
558.315	3175.68
558.519	3087.33
558.722	3017.19
558.926	3016.03
559.129	2952.48
559.333	3014.09
559.536	2952.68
559.74	2943.38
559.943	2920.13
560.147	2925.36
560.35	2916.06
560.553	2946.67
560.757	2907.34
560.96	3038.7
561.164	2982.32
561.367	3044.51
561.57	2966.82
561.774	2977.67
561.977	2928.84
562.18	2920.9
562.384	2970.89
562.587	2931.75
562.79	2915.48
562.993	2887.77
563.197	2934.66
563.4	3006.92
563.603	2983.68
563.806	3001.5
564.009	2891.26
564.212	2952.48
564.416	2813.37
564.619	2892.81
564.822	2807.56
565.025	2899.78
565.228	2841.27
565.431	2845.15
565.634	2776.37
565.837	2788.38
566.04	2750.98
566.243	2748.85
566.446	2676.59
566.649	2740.13
566.852	2690.54
567.055	2734.71
567.258	2751.95
567.461	2760.67
567.664	2771.52
567.867	2695.38
568.07	2735.48
568.273	2753.7
568.475	2783.53
568.678	2715.34
568.881	2635.12
569.084	2641.9
569.287	2544.64
569.489	2596.18
569.692	2576.42
569.895	2619.82
570.098	2556.07
570.3	2515.39
570.503	2502.02
570.706	2513.64
570.909	2487.1
571.111	2427.23
571.314	2394.1
571.516	2441.96
571.719	2415.03
571.922	2417.16
572.124	2437.7
572.327	2453.97
572.529	2398.95
572.732	2416.77
572.935	2416.96
573.137	2507.06
573.34	2394.68
573.542	2444.48
573.745	2453.78
573.947	2428.2
574.15	2410.18
574.352	2364.07
574.554	2435.56
574.757	2320.09
574.959	2302.46
575.162	2344.12
575.364	2306.72
575.566	2359.81
575.769	2264.68
575.971	2309.24
576.173	2167.42
576.376	2239.1
576.578	2307.11
576.78	2290.64
576.982	2223.8
577.185	2249.37
577.387	2216.24
577.589	2237.75
577.791	2253.64
577.993	2268.75
578.196	2230.19
578.398	2211.98
578.6	2239.49
578.802	2132.93
579.004	2131.96
579.206	2160.83
579.408	2209.07
579.61	2136.61
579.812	2248.02
580.014	2205.97
580.216	2167.61
580.418	2175.94
580.62	2120.14
580.822	2145.52
581.024	2139.52
581.226	2226.9
581.428	2164.32
581.63	2265.65
581.832	2159.47
582.034	2251.31
582.236	2216.05
582.438	2242.2
582.64	2258.87
582.841	2327.07
583.043	2326.29
583.245	2238.14
583.447	2227.09
583.649	2229.22
583.85	2239.1
584.052	2272.62
584.254	2205.2
584.456	2256.35
584.657	2183.5
584.859	2204.42
585.061	2141.84
585.262	2122.66
585.464	2113.75
585.666	2187.96
585.867	2099.22
586.069	2175.17
586.27	2133.9
586.472	2133.71
586.674	2142.04
586.875	2124.41
587.077	2088.37
587.278	2154.24
587.48	2099.41
587.681	2210.82
587.883	2112.97
588.084	2036.83
588.285	2068.99
588.487	2045.36
588.688	2048.65
588.89	1962.82
589.091	1895.2
589.292	1895.98
589.494	1825.65
589.695	1809.18
589.896	1744.86
590.098	1735.94
590.299	1814.02
590.5	1790.77
590.702	1821.77
590.903	1841.34
591.104	1934.53
591.305	1923.68
591.507	1954.1
591.708	1933.76
591.909	1914.77
592.11	1983.55
592.311	1917.1
592.512	1889.2
592.714	1848.7
592.915	1896.56
593.116	1884.16
593.317	1927.37
593.518	1943.83
593.719	1946.35
593.92	1990.91
594.121	1947.9
594.322	1925.04
594.523	1903.53
594.724	1860.91
594.925	1873.7
595.126	1875.63
595.327	1882.61
595.528	1879.32
595.729	1874.28
595.929	1860.33
596.13	1862.65
596.331	1899.08
596.532	1901.4
596.733	1946.35
596.934	1940.15
597.135	1943.25
597.335	1926.2
597.536	1866.14
597.737	1873.89
597.938	1882.42
598.138	1945
598.339	1880.09
598.54	1908.18
598.74	1889
598.941	1908.18
599.142	1936.86
599.342	1911.67
599.543	1874.28
599.744	1877.77
599.944	1894.62
600.145	1905.08
600.345	1876.02
600.546	1983.16
600.746	1932.4
600.947	1971.15
601.147	1900.24
601.348	1904.89
601.548	1849.48
601.749	1870.02
601.949	1838.24
602.15	1842.89
602.35	1876.22
602.551	1896.95
602.751	1858.39
602.951	1874.86
603.152	1819.84
603.352	1884.93
603.552	1852.97
603.753	1925.62
603.953	1892.68
604.153	1902.37
604.354	1889.39
604.554	1896.56
604.754	1877.18
604.954	1874.08
605.155	1906.63
605.355	1859.36
605.555	1857.23
605.755	1897.14
605.955	1874.28
606.155	1868.47
606.356	1854.13
606.556	1886.68
606.756	1852.97
606.956	1819.84
607.156	1892.88
607.356	1835.34
607.556	1863.04
607.756	1842.31
607.956	1880.28
608.156	1858
608.356	1794.84
608.556	1886.1
608.756	1810.15
608.956	1807.24
609.156	1832.43
609.356	1810.54
609.556	1767.72
609.755	1825.45
609.955	1718.31
610.155	1779.92
610.355	1795.04
610.555	1724.32
610.755	1729.74
610.954	1701.84
611.154	1745.63
611.354	1786.51
611.554	1713.47
611.753	1740.4
611.953	1700.87
612.153	1764.04
612.352	1754.93
612.552	1696.42
612.752	1621.44
612.951	1670.84
613.151	1733.04
613.351	1716.57
613.55	1691.96
613.75	1731.29
613.949	1647.98
614.149	1656.51
614.348	1678.59
614.548	1641.59
614.747	1616.4
614.947	1649.34
615.146	1646.63
615.346	1653.99
615.545	1685.18
615.745	1655.93
615.944	1685.96
616.144	1630.74
616.343	1673.94
616.542	1636.16
616.742	1628.8
616.941	1635.78
617.14	1500.73
617.34	1591.02
617.539	1584.24
617.738	1560.6
617.938	1650.5
618.137	1595.48
618.336	1543.75
618.535	1624.15
618.734	1609.23
618.934	1617.18
619.133	1592.38
619.332	1646.24
619.531	1543.75
619.73	1589.47
619.929	1631.13
620.128	1597.99
620.328	1629.19
620.527	1580.75
620.726	1604.39
620.925	1591.99
621.124	1535.22
621.323	1573.39
621.522	1499.38
621.721	1536.19
621.92	1552.66
622.119	1559.83
622.318	1539.29
622.517	1560.41
622.715	1562.15
622.914	1513.13
623.113	1538.13
623.312	1475.35
623.511	1564.28
623.71	1503.25
623.909	1513.71
624.107	1562.15
624.306	1492.6
624.505	1446.87
624.704	1450.17
624.902	1474
625.101	1501.31
625.3	1474.77
625.499	1419.17
625.697	1460.05
625.896	1421.68
626.095	1456.75
626.293	1414.52
626.492	1391.46
626.69	1468.96
626.889	1424.01
627.088	1451.52
627.286	1426.92
627.485	1406.77
627.683	1398.44
627.882	1437.96
628.08	1327.52
628.279	1321.71
628.477	1388.55
628.676	1339.73
628.874	1364.14
629.073	1299.24
629.271	1296.91
629.469	1379.64
629.668	1342.44
629.866	1369.18
630.065	1352.52
630.263	1358.91
630.461	1325.59
630.66	1330.43
630.858	1395.72
631.056	1412.19
631.254	1409.87
631.453	1375.57
631.651	1416.84
631.849	1404.83
632.047	1398.82
632.245	1372.28
632.444	1379.25
632.642	1393.4
632.84	1431.95
633.038	1357.17
633.236	1372.67
633.434	1360.65
633.632	1380.03
633.83	1344.57
634.028	1402.89
634.227	1389.33
634.425	1450.75
634.623	1386.23
634.821	1370.34
635.019	1417.42
635.216	1408.12
635.414	1405.99
635.612	1333.72
635.81	1394.56
636.008	1467.8
636.206	1374.02
636.404	1399.99
636.602	1364.34
636.8	1377.9
636.997	1386.42
637.195	1413.16
637.393	1393.01
637.591	1423.43
637.789	1446.87
637.986	1377.51
638.184	1351.74
638.382	1429.82
638.58	1385.26
638.777	1447.26
638.975	1353.49
639.173	1403.86
639.37	1388.36
639.568	1359.1
639.765	1384.1
639.963	1363.17
640.161	1389.52
640.358	1365.69
640.556	1298.85
640.753	1310.47
640.951	1298.07
641.148	1337.6
641.346	1320.55
641.543	1333.72
641.741	1320.55
641.938	1287.42
642.136	1298.46
642.333	1276.76
642.531	1345.74
642.728	1365.89
642.925	1318.61
643.123	1294.01
643.32	1286.06
643.517	1288
643.715	1277.54
643.912	1278.89
644.109	1292.26
644.306	1286.84
644.504	1224.64
644.701	1286.26
644.898	1305.82
645.095	1222.51
645.293	1249.83
645.49	1281.02
645.687	1232.98
645.884	1260.49
646.081	1169.43
646.278	1214.57
646.475	1166.71
646.672	1165.16
646.87	1202.17
647.067	1169.81
647.264	1182.21
647.461	1154.89
647.658	1122.15
647.855	1180.66
648.052	1104.91
648.249	1078.17
648.446	1111.69
648.642	1133.39
648.839	1098.51
649.036	1089.02
649.233	1069.84
649.43	1033.61
649.627	1035.74
649.824	1089.6
650.021	1062.48
650.217	1071.97
650.414	1062.87
650.611	1108.4
650.808	1122.93
651.004	1122.93
651.201	1119.05
651.398	1151.6
651.595	1084.56
651.791	1060.93
651.988	1111.69
652.185	1090.76
652.381	1105.49
652.578	1023.92
652.775	1077.2
652.971	1091.35
653.168	1059.18
653.364	1097.93
653.561	990.4
653.757	1068.87
653.954	1070.42
654.15	1051.63
654.347	1101.03
654.543	1068.1
654.74	990.4
654.936	1018.11
655.133	1018.5
655.329	1029.15
655.525	1011.52
655.722	1010.94
655.918	1000.09
656.115	1022.18
656.311	916
656.507	874.54
656.704	835.02
656.9	871.64
657.096	876.87
657.292	868.15
657.489	957.85
657.685	949.91
657.881	936.74
658.077	936.15
658.273	940.8
658.47	1022.57
658.666	964.44
658.862	1017.53
659.058	959.4
659.254	1017.53
659.45	959.4
659.646	1004.35
659.842	981.49
660.038	1011.52
660.234	978.39
660.43	992.53
660.626	1007.07
660.822	1020.24
661.018	1017.53
661.214	964.25
661.41	930.34
661.606	1005.32
661.802	1000.67
661.998	964.25
662.194	918.33
662.39	969.87
662.586	1002.22
662.781	987.88
662.977	962.89
663.173	928.4
663.369	939.25
663.564	977.23
663.76	923.37
663.956	928.4
664.152	953.2
664.347	897.6
664.543	920.65
664.739	944.49
664.934	881.71
665.13	902.05
665.326	947.59
665.521	932.86
665.717	892.37
665.912	860.79
666.108	820.29
666.304	887.14
666.499	892.17
666.695	834.05
666.89	905.54
667.086	910.39
667.281	902.83
667.477	929.37
667.672	877.84
667.867	854.39
668.063	873.77
668.258	877.64
668.454	888.88
668.649	925.89
668.844	896.63
669.04	899.92
669.235	891.59
669.43	857.11
669.626	827.27
669.821	873.38
670.016	816.42
670.211	877.64
670.407	839.47
670.602	860.79
670.797	860.59
670.992	932.86
671.187	827.46
671.382	885.01
671.578	855.36
671.773	879.39
671.968	826.49
672.163	859.43
672.358	885.59
672.553	815.06
672.748	817.19
672.943	901.86
673.138	842.38
673.333	870.47
673.528	806.92
673.723	882.68
673.918	855.36
674.113	800.14
674.308	923.37
674.503	849.74
674.698	870.47
674.892	862.72
675.087	899.34
675.282	834.24
675.477	811.38
675.672	848.58
675.867	829.21
676.061	812.93
676.256	796.27
676.451	772.83
676.646	824.94
676.84	813.51
677.035	777.67
677.23	776.51
677.424	835.99
677.619	884.81
677.814	880.74
678.008	859.04
678.203	797.04
678.397	782.51
678.592	835.02
678.787	907.29
678.981	829.4
679.176	834.44
679.37	839.28
679.565	809.25
679.759	857.3
679.954	887.33
680.148	873.77
680.342	905.15
680.537	864.86
680.731	852.26
680.926	869.12
681.12	848.39
681.314	826.69
681.509	861.37
681.703	825.72
681.897	854.97
682.092	840.44
682.286	861.95
682.48	923.56
682.674	890.24
682.869	864.47
683.063	856.14
683.257	946.23
683.451	844.51
683.645	888.69
683.839	867.57
684.034	849.36
684.228	893.92
684.422	824.75
684.616	847.61
684.81	893.14
685.004	895.27
685.198	894.3
685.392	921.62
685.586	853.23
685.78	873.38
685.974	913.87
686.168	891.59
686.362	913.68
686.556	796.46
686.75	785.81
686.944	771.28
687.138	764.3
687.331	676.15
687.525	700.75
687.719	650.76
687.913	705.98
688.107	686.22
688.301	693.78
688.494	751.9
688.688	717.03
688.882	702.69
689.076	680.02
689.269	759.07
689.463	793.75
689.657	718.19
689.85	760.04
690.044	781.93
690.238	791.23
690.431	782.32
690.625	819.52
690.818	841.99
691.012	855.94
691.205	895.66
691.399	861.37
691.593	899.34
691.786	952.82
691.98	980.72
692.173	1030.7
692.366	997.96
692.56	1027.22
692.753	1070.42
692.947	970.45
693.14	1044.27
693.333	1055.7
693.527	1008.42
693.72	1069.06
693.914	1076.62
694.107	1073.91
694.3	1081.66
694.493	1090.57
694.687	1162.26
694.88	1134.55
695.073	1179.11
695.266	1177.56
695.46	1194.03
695.653	1240.34
695.846	1273.66
696.039	1233.56
696.232	1266.3
696.425	1316.67
696.618	1351.74
696.812	1368.99
697.005	1450.94
697.198	1511.97
697.391	1474.38
697.584	1534.06
697.777	1561.96
697.97	1525.53
698.163	1581.33
698.356	1547.23
698.549	1660.19
698.742	1616.21
698.935	1594.12
699.127	1635.78
699.32	1604.78
699.513	1621.44
699.706	1653.21
699.899	1691.77
700.092	1680.14
700.285	1692.54
700.477	1616.98
700.67	1724.32
700.863	1731.68
701.056	1819.64
701.248	1790.39
701.441	1811.7
701.634	1770.04
701.826	1862.07
702.019	1792.52
702.212	1893.27
702.404	1816.54
702.597	1837.85
702.79	1836.11
702.982	1897.92
703.175	1979.29
703.367	2015.71
703.56	2044.58
703.752	2109.29
703.945	2084.69
704.137	2082.94
704.33	2129.83
704.522	2147.66
704.715	2149.79
704.907	2225.74
705.1	2264.49
705.292	2252.86
705.484	2203.45
705.677	2284.44
705.869	2293.55
706.061	2363.3
706.254	2377.83
706.446	2335.01
706.638	2323.58
706.831	2428.4
707.023	2366.2
707.215	2501.63
707.407	2455.91
707.599	2508.8
707.792	2552.2
707.984	2515.78
708.176	2540.77
708.368	2539.22
708.56	2611.29
708.752	2580.87
708.944	2571.19
709.136	2601.41
709.329	2628.15
709.521	2741.88
709.713	2683.95
709.905	2731.22
710.097	2803.88
710.289	2738.97
710.481	2790.7
710.672	2786.05
710.864	2823.45
711.056	2892.03
711.248	2826.16
711.44	2873.82
711.632	2895.33
711.824	2921.68
712.016	2972.63
712.207	2993.17
712.399	2947.06
712.591	3009.06
712.783	2964.49
712.975	3027.66
713.166	2993.94
713.358	3009.44
713.55	3056.52
713.741	3092.75
713.933	3107.67
714.125	3039.47
714.316	3064.27
714.508	3156.89
714.7	3086.17
714.891	3094.11
715.083	3154.17
715.274	3084.62
715.466	3157.08
715.657	3214.23
715.849	3062.53
716.04	3143.13
716.232	3062.34
716.423	3084.23
716.615	2993.56
716.806	2903.46
716.998	2859.68
717.189	2715.92
717.381	2628.73
717.572	2612.46
717.763	2586.3
717.955	2560.14
718.146	2524.69
718.337	2453.2
718.528	2372.02
718.72	2298.2
718.911	2376.28
719.102	2308.27
719.293	2349.35
719.485	2321.06
719.676	2280.18
719.867	2247.44
720.058	2284.25
720.249	2292
720.44	2330.75
720.632	2382.67
720.823	2411.73
721.014	2578.74
721.205	2661.47
721.396	2727.35
721.587	2836.04
721.778	2890.29
721.969	2975.73
722.16	3050.71
722.351	3111.35
722.542	3236.52
722.733	3224.5
722.924	3129.18
723.115	3171.8
723.305	3060.59
723.496	3120.07
723.687	2947.44
723.878	2993.17
724.069	2960.43
724.26	2936.79
724.45	2911.79
724.641	2841.85
724.832	2899.59
725.023	2905.4
725.213	2855.8
725.404	2861.42
725.595	2839.72
725.785	2810.08
725.976	2914.51
726.167	2843.79
726.357	2894.55
726.548	2957.13
726.739	2915.86
726.929	3002.08
727.12	2982.51
727.31	3029.79
727.501	2941.44
727.691	2916.06
727.882	2980.58
728.072	3049.55
728.263	3044.9
728.453	3070.67
728.644	3146.42
728.834	3076.67
729.024	3047.22
729.215	3001.31
729.405	3032.11
729.596	3099.73
729.786	3146.23
729.976	3164.25
730.167	3134.8
730.357	3142.74
730.547	3139.45
730.737	3171.61
730.928	3220.82
731.118	3248.91
731.308	3193.12
731.498	3213.46
731.688	3305.49
731.879	3361.68
732.069	3392.09
732.259	3446.34
732.449	3518.61
732.639	3575.57
732.829	3633.5
733.019	3650.17
733.209	3748.4
733.399	3753.05
733.589	3817.95
733.779	3932.84
733.969	3844.69
734.159	3982.64
734.349	3983.22
734.539	4041.15
734.729	4046.57
734.919	4046.18
735.109	4145.19
735.299	4027.78
735.488	4073.89
735.678	4081.45
735.868	4060.52
736.058	4072.15
736.248	4059.75
736.437	4035.14
736.627	4022.55
736.817	4183.94
737.007	4119.42
737.196	4124.65
737.386	4094.23
737.576	4112.25
737.765	4222.49
737.955	4146.93
738.144	4279.26
738.334	4233.73
738.524	4193.43
738.713	4230.24
738.903	4251.17
739.092	4232.76
739.282	4255.24
739.471	4275
739.661	4273.06
739.85	4312.2
740.04	4297.47
740.229	4352.89
740.419	4360.83
740.608	4356.37
740.797	4316.66
740.987	4390.86
741.176	4389.7
741.365	4362.19
741.555	4327.7
741.744	4413.72
741.933	4414.5
742.123	4430.19
742.312	4458.87
742.501	4485.6
742.69	4511.18
742.88	4362.96
743.069	4556.9
743.258	4481.15
743.447	4518.73
743.636	4495.87
743.825	4497.23
744.014	4528.23
744.204	4554.97
744.393	4495.29
744.582	4580.73
744.771	4599.14
744.96	4517.57
745.149	4576.08
745.338	4536.37
745.527	4599.72
745.716	4537.92
745.905	4537.92
746.094	4668.89
746.283	4586.55
746.471	4610.57
746.66	4598.95
746.849	4603.01
747.038	4596.62
747.227	4542.57
747.416	4627.62
747.604	4514.67
747.793	4548.57
747.982	4536.95
748.171	4586.93
748.359	4643.51
748.548	4619.68
748.737	4585
748.926	4543.34
749.114	4405.59
749.303	4554.58
749.491	4552.25
749.68	4437.55
749.869	4545.08
750.057	4497.23
750.246	4504.78
750.434	4495.1
750.623	4498.58
750.811	4473.01
751	4508.27
751.188	4470.88
751.377	4473.78
751.565	4417.99
751.754	4413.34
751.942	4411.01
752.131	4469.33
752.319	4429.61
752.507	4412.37
752.696	4463.32
752.884	4477.85
753.072	4413.34
753.261	4437.75
753.449	4455.57
753.637	4428.25
753.825	4490.83
754.014	4419.15
754.202	4461.19
754.39	4484.63
754.578	4446.47
754.766	4410.62
754.955	4349.21
755.143	4437.55
755.331	4375.36
755.519	4416.24
755.707	4353.08
755.895	4353.66
756.083	4333.32
756.271	4275.39
756.459	4308.52
756.647	4358.31
756.835	4321.11
757.023	4330.02
757.211	4266.48
757.399	4273.64
757.587	4254.08
757.775	4194.4
757.963	4217.46
758.151	4217.84
758.339	4185.68
758.526	4178.32
758.714	4239.35
758.902	4074.28
759.09	3982.44
759.278	3713.71
759.465	3449.06
759.653	3007.7
759.841	2684.92
760.028	2321.45
760.216	2034.7
760.404	1879.51
760.591	1568.35
760.779	1315.71
760.967	1142.69
761.154	927.44
761.342	935.77
761.529	947.59
761.717	960.57
761.905	960.18
762.092	1055.89
762.28	969.29
762.467	950.3
762.655	883.46
762.842	900.7
763.029	904.19
763.217	931.7
763.404	903.8
763.592	911.16
763.779	878.22
763.966	947.39
764.154	1018.3
764.341	1011.72
764.528	1066.16
764.716	1123.51
764.903	1195.97
765.09	1310.28
765.277	1389.14
765.465	1494.34
765.652	1601.68
765.839	1714.05
766.026	1868.47
766.213	1936.08
766.4	2071.71
766.588	2282.12
766.775	2329.97
766.962	2459.78
767.149	2584.17
767.336	2740.52
767.523	2720.95
767.71	2926.33
767.897	3033.27
768.084	3163.67
768.271	3226.44
768.458	3229.54
768.645	3347.73
768.832	3337.26
769.019	3363.61
769.206	3451.38
769.392	3510.86
769.579	3576.54
769.766	3565.3
769.953	3614.32
770.14	3677.87
770.327	3657.14
770.513	3745.49
770.7	3764.28
770.887	3695.31
771.073	3742.97
771.26	3750.33
771.447	3741.81
771.634	3689.69
771.82	3743.55
772.007	3749.95
772.193	3773.58
772.38	3767.38
772.567	3744.91
772.753	3725.34
772.94	3811.75
773.126	3792.76
773.313	3784.43
773.499	3797.8
773.686	3830.16
773.872	3719.91
774.059	3745.88
774.245	3723.21
774.432	3736.58
774.618	3683.3
774.804	3711
774.991	3672.06
775.177	3727.47
775.363	3688.14
775.55	3738.51
775.736	3686.78
775.922	3686.01
776.109	3697.83
776.295	3702.67
776.481	3715.07
776.667	3700.93
776.853	3656.17
777.04	3639.9
777.226	3678.65
777.412	3703.06
777.598	3657.14
777.784	3637.57
777.97	3607.73
778.156	3667.99
778.342	3600.18
778.528	3587.78
778.715	3561.24
778.901	3517.45
779.087	3599.21
779.272	3518.03
779.458	3500.98
779.644	3539.15
779.83	3531.2
780.016	3613.55
780.202	3525.39
780.388	3478.12
780.574	3449.06
780.76	3511.83
780.946	3494.39
781.131	3490.13
781.317	3462.81
781.503	3478.51
781.689	3466.3
781.874	3599.02
782.06	3476.18
782.246	3473.47
782.432	3447.7
782.617	3472.89
782.803	3529.85
782.989	3431.81
783.174	3434.14
783.36	3362.06
783.545	3421.35
783.731	3402.17
783.916	3279.72
784.102	3374.46
784.288	3346.18
784.473	3387.83
784.659	3310.91
784.844	3382.41
785.029	3356.06
785.215	3295.61
785.4	3316.34
785.586	3365.74
785.771	3243.49
785.956	3327.58
786.142	3259.96
786.327	3248.14
786.512	3226.05
786.698	3222.95
786.883	3193.5
787.068	3237.48
787.254	3214.62
787.439	3197.96
787.624	3205.71
787.809	3163.67
787.994	3200.09
788.18	3237.1
788.365	3102.44
788.55	3107.67
788.735	3114.65
788.92	3103.6
789.105	3068.92
789.29	3093.53
789.475	3053.62
789.66	3022.81
789.845	2985.81
790.03	3012.35
790.215	3041.8
790.4	3056.91
790.585	3056.14
790.77	3017.19
790.955	2948.41
791.14	3009.44
791.325	3057.88
791.51	2895.91
791.695	2966.63
791.879	2986.97
792.064	2986.58
792.249	3006.92
792.434	2989.1
792.618	2987.74
792.803	3044.12
792.988	2960.43
793.173	2948.8
793.357	3028.04
793.542	2921.68
793.727	3023.2
793.911	3048
794.096	3020.68
794.281	3033.27
794.465	3075.7
794.65	3029.79
794.834	3049.74
795.019	3061.56
795.203	3094.69
795.388	3051.87
795.572	3083.45
795.757	3071.06
795.941	3036.37
796.126	3036.76
796.31	3007.7
796.494	3017.97
796.679	2983.68
796.863	2968.56
797.048	3037.15
797.232	2989.68
797.416	3043.54
797.601	3013.51
797.785	3097.6
797.969	3067.96
798.153	2997.82
798.338	3080.16
798.522	3074.54
798.706	3098.18
798.89	3147
799.074	3179.17
799.258	3145.45
799.443	3106.7
799.627	3134.6
799.811	3110.39
799.995	3058.07
800.179	3041.22
800.363	3045.09
800.547	3085
800.731	3078.61
800.915	2999.56
801.099	3037.34
801.283	3035.41
801.467	3030.76
801.651	2995.69
801.835	3039.28
802.019	3037.15
802.202	3036.18
802.386	2987.16
802.57	2955.39
802.754	3009.64
802.938	2968.37
803.121	3007.7
803.305	3023.97
803.489	2978.25
803.673	3028.24
803.856	3030.76
804.04	3007.12
804.224	3028.24
804.407	3009.44
804.591	2938.53
804.775	3023.78
804.958	2997.04
805.142	3091.4
805.326	3039.67
805.509	3036.57
805.693	3032.69
805.876	3052.65
806.06	3070.67
806.243	3099.73
806.427	3119.49
806.61	3115.04
806.794	3030.37
806.977	3086.94
807.16	3085.97
807.344	3123.56
807.527	3041.99
807.71	3016.61
807.894	3053.62
808.077	3053.62
808.26	2997.62
808.444	2948.03
808.627	3076.29
808.81	3019.13
808.993	2967.79
809.177	2922.26
809.36	2968.56
809.543	2930.98
809.726	2863.36
809.909	2869.95
810.092	2827.9
810.276	2837.2
810.459	2845.92
810.642	2830.03
810.825	2806.2
811.008	2781.02
811.191	2698.09
811.374	2707.97
811.557	2707
811.74	2788.38
811.923	2661.09
812.106	2675.23
812.289	2606.64
812.472	2597.92
812.654	2616.91
812.837	2540.58
813.02	2510.16
813.203	2485.55
813.386	2348.38
813.569	2394.3
813.751	2296.65
813.934	2316.22
814.117	2272.62
814.3	2219.73
814.482	2155.21
814.665	2130.61
814.848	2090.5
815.03	2018.62
815.213	2015.91
815.396	1993.05
815.578	1969.21
815.761	1928.14
815.943	2004.48
816.126	1850.25
816.309	1848.7
816.491	1814.22
816.674	1711.34
816.856	1794.26
817.039	1795.42
817.221	1846.77
817.403	1814.99
817.586	1837.85
817.768	1827.59
817.951	1754.16
818.133	1713.86
818.315	1766.75
818.498	1814.02
818.68	1857.81
818.862	1831.07
819.045	1872.92
819.227	1854.52
819.409	1817.9
819.591	1848.9
819.774	1825.65
819.956	1817.12
820.138	1902.18
820.32	1868.08
820.502	1996.34
820.684	2062.41
820.866	2053.11
821.048	2120.53
821.231	2137.97
821.413	2124.79
821.595	2092.63
821.777	2135.64
821.959	2107.94
822.141	2155.21
822.323	2034.31
822.505	1977.93
822.686	1852
822.868	1765.78
823.05	1689.83
823.232	1603.61
823.414	1524.37
823.596	1630.16
823.778	1619.5
823.96	1649.92
824.141	1667.16
824.323	1687.7
824.505	1785.35
824.687	1843.09
824.868	1884.16
825.05	1981.03
825.232	2053.3
825.413	2124.6
825.595	2081.2
825.777	1991.69
825.958	2090.69
826.14	2025.21
826.321	2066.67
826.503	2036.44
826.685	2079.07
826.866	2080.81
827.048	2070.16
827.229	1997.11
827.411	1966.11
827.592	1930.08
827.773	1943.25
827.955	1839.02
828.136	1882.22
828.318	1838.24
828.499	1892.3
828.68	1797.17
828.862	1854.52
829.043	1847.54
829.224	1844.64
829.406	1800.46
829.587	1815.19
829.768	1827.39
829.949	1831.46
830.131	1819.84
830.312	1876.41
830.493	1857.62
830.674	1847.93
830.855	1850.06
831.036	1860.72
831.218	1876.02
831.399	1918.07
831.58	1853.93
831.761	1885.13
831.942	1859.55
832.123	1856.26
832.304	1790.19
832.485	1813.64
832.666	1872.92
832.847	1864.98
833.028	1850.45
833.209	1864.78
833.389	1831.85
833.57	1790
833.751	1815.57
833.932	1871.95
834.113	1838.63
834.294	1854.71
834.475	1861.68
834.655	1921.36
834.836	1898.69
835.017	1921.55
835.198	1869.82
835.378	1889.58
835.559	1950.42
835.74	1888.81
835.92	1846.38
836.101	1878.15
836.281	1939.76
836.462	1923.3
836.643	1935.5
836.823	1945.58
837.004	1957.98
837.184	1977.74
837.365	1976
837.545	1969.99
837.726	1940.54
837.906	1992.27
838.087	1928.33
838.267	1954.88
838.448	1886.1
838.628	1955.85
838.808	1901.21
838.989	1941.12
839.169	1908.38
839.349	1974.45
839.53	1981.03
839.71	2010.68
839.89	1929.5
840.07	1980.26
840.251	1939.96
840.431	1950.42
840.611	1953.33
840.791	1911.87
840.971	1955.85
841.151	1919.62
841.332	1911.67
841.512	1958.36
841.692	1920.78
841.872	1955.26
842.052	1914.38
842.232	1961.46
842.412	1894.04
842.592	1883.58
842.772	1950.81
842.952	1970.76
843.132	1912.45
843.312	1891.33
843.492	1871.95
843.672	1957.59
843.851	1819.64
844.031	1909.54
844.211	1881.45
844.391	1864.98
844.571	1917.1
844.751	1907.02
844.93	1880.48
845.11	1856.84
845.29	1858.97
845.47	1912.06
845.649	1904.89
845.829	1933.76
846.009	1876.41
846.188	1950.23
846.368	1881.25
846.547	1909.73
846.727	1922.52
846.907	1863.82
847.086	1903.53
847.266	1912.06
847.445	1888.23
847.625	1861.3
847.804	1851.03
847.984	1853.74
848.163	1800.07
848.343	1837.85
848.522	1825.65
848.701	1853.74
848.881	1814.6
849.06	1831.07
849.239	1829.72
849.419	1845.02
849.598	1777.02
849.777	1776.63
849.957	1767.72
850.136	1670.07
850.315	1644.69
850.494	1707.27
850.674	1706.69
850.853	1721.99
851.032	1701.84
851.211	1758.81
851.39	1722.77
851.569	1655.73
851.748	1655.15
851.927	1751.83
852.107	1706.88
852.286	1679.76
852.465	1667.55
852.644	1733.81
852.823	1682.08
853.002	1717.34
853.181	1700.29
853.359	1698.16
853.538	1647.79
853.717	1709.98
853.896	1605.94
854.075	1534.83
854.254	1522.24
854.433	1436.8
854.611	1511.39
854.79	1441.64
854.969	1480.2
855.148	1535.41
855.327	1486.4
855.505	1504.61
855.684	1514.88
855.863	1549.17
856.041	1526.7
856.22	1593.15
856.399	1555.95
856.577	1671.04
856.756	1611.94
856.934	1724.51
857.113	1730.32
857.291	1663.29
857.47	1606.33
857.648	1628.99
857.827	1664.26
858.005	1646.63
858.184	1599.74
858.362	1713.66
858.541	1628.8
858.719	1619.69
858.898	1586.76
859.076	1588.69
859.254	1661.35
859.433	1594.51
859.611	1568.93
859.789	1576.68
859.967	1656.51
860.146	1644.88
860.324	1549.75
860.502	1562.15
860.68	1518.75
860.859	1553.43
861.037	1563.9
861.215	1578.43
861.393	1558.08
861.571	1584.24
861.749	1545.1
861.927	1587.53
862.105	1566.8
862.283	1533.48
862.461	1537.16
862.639	1521.46
862.817	1530.38
862.995	1563.31
863.173	1494.34
863.351	1520.11
863.529	1545.68
863.707	1561.38
863.885	1556.53
864.063	1465.08
864.241	1503.64
864.418	1583.08
864.596	1523.01
864.774	1440.87
864.952	1459.08
865.129	1514.3
865.307	1452.68
865.485	1417.62
865.663	1498.02
865.84	1414.32
866.018	1428.27
866.196	1304.66
866.373	1329.46
866.551	1320.55
866.728	1241.11
866.906	1257.19
867.084	1331.01
867.261	1335.85
867.439	1347.87
867.616	1382.55
867.794	1372.09
867.971	1391.07
868.149	1398.05
868.326	1435.83
868.503	1431.18
868.681	1392.24
868.858	1373.64
869.035	1356.78
869.213	1399.02
869.39	1343.02
869.567	1465.08
869.745	1353.87
869.922	1409.87
870.099	1385.26
870.276	1387.2
870.454	1412
870.631	1420.52
870.808	1380.42
870.985	1402.7
871.162	1418
871.339	1391.07
871.517	1311.64
871.694	1331.98
871.871	1374.6
872.048	1358.14
872.225	1390.49
872.402	1371.89
872.579	1342.25
872.756	1354.84
872.933	1339.92
873.11	1337.4
873.287	1340.7
873.463	1371.89
873.64	1319.97
873.817	1335.08
873.994	1293.04
874.171	1286.45
874.348	1329.65
874.524	1254.67
874.701	1316.09
874.878	1244.99
875.055	1331.2
875.231	1299.82
875.408	1313.57
875.585	1238.01
875.762	1291.68
875.938	1249.64
876.115	1254.29
876.291	1244.99
876.468	1272.5
876.645	1233.36
876.821	1240.14
876.998	1259.52
877.174	1272.31
877.351	1265.72
877.527	1244.99
877.704	1206.43
877.88	1239.37
878.057	1196.74
878.233	1245.37
878.409	1189.19
878.586	1250.22
878.762	1219.99
878.938	1205.66
879.115	1149.66
879.291	1190.35
879.467	1170.01
879.644	1183.76
879.82	1193.45
879.996	1182.6
880.172	1156.06
880.349	1148.11
880.525	1177.18
880.701	1153.34
880.877	1139.78
881.053	1155.67
881.229	1169.43
881.405	1208.76
881.581	1131.84
881.757	1132.61
881.933	1170.01
882.109	1184.34
882.285	1151.02
882.461	1083.79
882.637	1136.3
882.813	1121.96
882.989	1172.72
883.165	1185.51
883.341	1136.1
883.517	1199.26
883.693	1186.09
883.869	1179.31
884.044	1112.27
884.22	1183.76
884.396	1179.5
884.572	1190.35
884.747	1166.91
884.923	1172.72
885.099	1152.96
885.275	1198.1
885.45	1111.5
885.626	1130.68
885.801	1103.16
885.977	1124.28
886.153	1084.37
886.328	1169.23
886.504	1120.6
886.679	1136.88
886.855	1101.42
887.03	1162.06
887.206	1186.67
887.381	1167.68
887.557	1159.93
887.732	1167.29
887.908	1156.06
888.083	1151.21
888.258	1144.82
888.434	1115.76
888.609	1167.29
888.784	1154.51
888.96	1124.67
889.135	1135.13
889.31	1162.06
889.485	1136.68
889.661	1138.43
889.836	1198.49
890.011	1194.42
890.186	1130.48
890.361	1137.85
890.537	1138.23
890.712	1162.06
890.887	1164
891.062	1153.34
891.237	1218.25
891.412	1120.41
891.587	1123.7
891.762	1159.35
891.937	1191.32
892.112	1085.73
892.287	1113.24
892.462	1101.81
892.637	1049.3
892.812	1050.47
892.987	1038.07
893.161	1037.1
893.336	1053.18
893.511	1010.75
893.686	1024.12
893.861	1058.99
894.035	1054.15
894.21	1018.11
894.385	972.58
894.56	984.78
894.734	961.15
894.909	934.6
895.084	960.57
895.258	903.8
895.433	883.26
895.608	897.02
895.782	833.08
895.957	850.13
896.131	862.53
896.306	795.88
896.48	777.28
896.655	807.89
896.829	712.76
897.004	732.14
897.178	728.07
897.353	726.33
897.527	758.88
897.701	762.17
897.876	711.41
898.05	791.43
898.224	745.89
898.399	799.37
898.573	730.39
898.747	637.4
898.921	675.95
899.096	560.67
899.27	608.14
899.444	592.83
899.618	630.23
899.792	651.54
899.967	661.03
900.141	730.78
900.315	602.91
900.489	651.35
900.663	649.99
900.837	631.39
901.011	586.25
901.185	707.15
901.359	623.06
901.533	633.13
901.707	637.59
901.881	636.62
902.055	590.12
902.229	597.48
902.403	680.99
902.576	649.41
902.75	646.11
902.924	719.93
903.098	693.39
903.272	743.38
903.446	791.81
903.619	746.67
903.793	813.71
903.967	797.24
904.14	849.55
904.314	831.92
904.488	827.85
904.661	874.74
904.835	809.06
905.009	868.15
905.182	891.4
905.356	852.46
905.529	818.94
905.703	810.22
905.876	795.11
906.05	787.55
906.223	742.99
906.397	719.16
906.57	662.39
906.744	649.21
906.917	628.68
907.09	648.25
907.264	647.28
907.437	588.77
907.61	572.88
907.784	604.07
907.957	602.33
908.13	592.83
908.304	623.06
908.477	560.28
908.65	563
908.823	552.15
908.996	591.28
909.17	553.7
909.343	570.75
909.516	566.68
909.689	556.02
909.862	523.47
910.035	584.12
910.208	520.37
910.381	541.3
910.554	613.37
910.727	560.48
910.9	557.38
911.073	533.94
911.246	616.47
911.419	577.53
911.592	582.95
911.765	538.97
911.938	543.82
912.11	538.59
912.283	578.3
912.456	597.1
912.629	561.83
912.802	489.37
912.974	496.74
913.147	455.27
913.32	424.08
913.493	454.5
913.665	445.59
913.838	453.72
914.01	447.14
914.183	504.49
914.356	472.9
914.528	546.53
914.701	557.38
914.873	518.82
915.046	484.92
915.218	457.99
915.391	384.17
915.563	389.4
915.736	433.19
915.908	487.24
916.081	483.75
916.253	454.69
916.425	488.6
916.598	501.19
916.77	484.34
916.942	445.2
917.115	397.73
917.287	459.92
917.459	427.76
917.632	379.13
917.804	355.3
917.976	420.79
918.148	446.56
918.32	441.91
918.493	465.15
918.665	518.63
918.837	465.35
919.009	539.17
919.181	558.54
919.353	529.48
919.525	488.6
919.697	506.81
919.869	506.23
920.041	551.57
920.213	624.42
920.385	540.13
920.557	529.87
920.729	546.33
920.901	536.26
921.073	499.45
921.244	499.45
921.416	552.53
921.588	513.79
921.76	478.91
921.932	596.71
922.103	541.1
922.275	538.78
922.447	529.67
922.619	500.42
922.79	487.44
922.962	479.3
923.134	516.3
923.305	476
923.477	427.96
923.648	446.75
923.82	431.44
923.991	407.81
924.163	396.18
924.335	425.82
924.506	412.07
924.677	466.51
924.849	384.56
925.02	439
925.192	462.64
925.363	452.95
925.535	462.64
925.706	422.72
925.877	463.6
926.049	422.92
926.22	441.32
926.391	457.99
926.562	456.24
926.734	383.97
926.905	457.6
927.076	377.19
927.247	394.63
927.419	360.14
927.59	368.09
927.761	350.65
927.932	351.23
928.103	352.78
928.274	279.35
928.445	289.62
928.616	271.41
928.787	290.01
928.958	292.14
929.129	295.43
929.3	252.61
929.471	224.33
929.642	190.03
929.813	156.32
929.984	227.04
930.155	184.22
930.326	225.49
930.496	178.6
930.667	132.88
930.838	203.4
931.009	113.7
931.18	159.42
931.35	140.43
931.521	168.33
931.692	101.49
931.863	75.34
932.033	134.04
932.204	89.09
932.374	101.88
932.545	61.39
932.716	124.55
932.886	125.13
933.057	54.8
933.227	61.19
933.398	136.75
933.568	47.05
933.739	26.7
933.909	32.13
934.08	93.16
934.25	25.54
934.421	19.15
934.591	65.84
934.761	22.25
934.932	-2.55
935.102	47.44
935.272	37.55
935.443	53.64
935.613	29.03
935.783	57.12
935.953	3.84
936.123	162.52
936.294	31.55
936.464	25.74
936.634	3.46
936.804	2.29
936.974	9.07
937.144	18.18
937.314	35.62
937.484	42.98
937.655	15.85
937.825	72.82
937.995	14.31
938.165	63.32
938.334	51.7
938.504	50.54
938.674	33.29
938.844	76.5
939.014	91.22
939.184	78.24
939.354	140.05
939.524	125.32
939.694	80.76
939.863	61
940.033	124.74
940.203	117.96
940.373	107.5
940.542	113.7
940.712	110.79
940.882	129.39
941.051	133.65
941.221	149.73
941.391	132.49
941.56	99.94
941.73	90.64
941.899	171.43
942.069	95.1
942.238	129.97
942.408	62.16
942.577	94.52
942.747	79.02
942.916	42.59
943.086	59.64
943.255	122.42
943.425	92.39
943.594	70.88
943.763	-14.95
943.933	13.14
944.102	12.76
944.271	64.1
944.441	81.92
944.61	49.76
944.779	69.52
944.948	144.7
945.117	35.62
945.287	41.82
945.456	4.42
945.625	38.52
945.794	83.09
945.963	64.49
946.132	80.95
946.301	63.71
946.47	92
946.639	22.64
946.808	54.6
946.977	113.5
947.146	97.42
947.315	50.73
947.484	100.91
947.653	56.35
947.822	33.29
947.991	67.78
948.16	117.57
948.329	117.57
948.498	63.52
948.666	69.33
948.835	85.41
949.004	34.26
949.173	41.43
949.341	94.71
949.51	72.24
949.679	91.42
949.847	80.37
950.016	133.27
950.185	113.5
950.353	51.7
950.522	48.99
950.69	93.94
950.859	64.29
951.028	79.02
951.196	89.29
951.365	27.09
951.533	85.6
951.701	83.86
951.87	69.33
952.038	45.5
952.207	53.83
952.375	112.92
952.543	31.35
952.712	61.39
952.88	41.04
953.048	125.52
953.217	58.87
953.385	81.34
953.553	114.28
953.721	33.87
953.89	67.78
954.058	11.21
954.226	53.25
954.394	74.17
954.562	18.76
954.73	58.29
954.898	66.23
955.067	101.1
955.235	32.13
955.403	80.95
955.571	127.45
955.739	84.25
955.907	52.86
956.075	74.56
956.243	14.11
956.41	64.87
956.578	26.51
956.746	18.95
956.914	54.8
957.082	95.68
957.25	104.98
957.418	40.46
957.585	85.99
957.753	115.05
957.921	62.74
958.089	57.51
958.256	94.71
958.424	68.17
958.592	64.1
958.759	57.12
958.927	104.4
959.095	39.49
959.262	48.02
959.43	67.97
959.597	44.72
959.765	54.41
959.932	58.09
960.1	116.22
960.267	89.87
960.435	92
960.602	94.13
960.77	50.54
960.937	24.77
961.104	78.24
961.272	37.17
961.439	56.93
961.606	74.56
961.774	100.91
961.941	54.41
962.108	67.39
962.275	73.59
962.443	94.9
962.61	91.61
962.777	146.25
962.944	98.2
963.111	101.88
963.278	100.52
963.446	108.66
963.613	78.82
963.78	92.77
963.947	105.17
964.114	92
964.281	172.4
964.448	116.02
964.615	81.92
964.782	100.72
964.949	112.15
965.116	115.05
965.282	108.66
965.449	85.8
965.616	65.65
965.783	108.66
965.95	93.55
966.117	39.69
966.283	83.47
966.45	76.11
966.617	112.92
966.784	140.82
966.95	109.63
967.117	131.72
967.284	74.17
967.45	82.89
967.617	141.4
967.784	122.03
967.95	167.17
968.117	124.35
968.283	144.89
968.45	229.36
968.616	92.58
968.783	164.46
968.949	146.63
969.116	175.12
969.282	139.27
969.449	135.59
969.615	116.99
969.781	75.53
969.948	98.78
970.114	72.04
970.28	176.28
970.447	97.23
970.613	172.21
970.779	120.28
970.945	112.34
971.112	123.19
971.278	103.04
971.444	109.43
971.61	175.31
971.776	121.64
971.942	123.97
972.108	138.11
972.275	118.15
972.441	128.03
972.607	167.56
972.773	115.83
972.939	145.28
973.105	126.48
973.271	86.38
973.437	112.92
973.602	78.63
973.768	129.39
973.934	113.89
974.1	141.02
974.266	45.11
974.432	119.51
974.598	80.95
974.763	137.72
974.929	70.69
975.095	164.46
975.261	70.3
975.426	79.02
975.592	88.12
975.758	170.08
975.923	65.07
976.089	66.04
976.255	130.55
976.42	122.03
976.586	145.08
976.751	105.75
976.917	174.34
977.082	142.37
977.248	47.44
977.413	57.32
977.579	78.44
977.744	112.73
977.91	52.86
978.075	92
978.24	133.27
978.406	100.72
978.571	98.39
978.736	95.87
978.902	113.89
979.067	69.91
979.232	74.37
979.397	117.18
979.563	125.13
979.728	63.52
979.893	85.99
980.058	87.15
980.223	126.29
980.388	112.73
980.554	108.47
980.719	92.97
980.884	98.97
981.049	129
981.214	105.37
981.379	116.02
981.544	91.22
981.709	83.67
981.874	70.1
982.039	103.62
982.204	131.91
982.368	91.61
982.533	76.69
982.698	145.47
982.863	122.22
983.028	92.39
983.193	141.6
983.357	99.55
983.522	117.96
983.687	110.02
983.852	119.7
984.016	62.74
984.181	104.2
984.346	105.75
984.51	133.46
984.675	85.6
984.839	123.97
985.004	123.97
985.168	124.16
985.333	104.98
985.498	103.23
985.662	131.72
985.827	115.63
985.991	95.1
986.155	103.62
986.32	143.34
986.484	157.68
986.649	107.88
986.813	66.62
986.977	83.86
987.142	133.65
987.306	61.39
987.47	45.3
987.634	86.19
987.799	98.78
987.963	115.83
988.127	132.68
988.291	161.17
988.455	97.23
988.62	93.94
988.784	113.31
988.948	137.53
989.112	92.39
989.276	102.46
989.44	99.75
989.604	88.7
989.768	90.84
989.932	164.07
990.096	60.22
990.26	66.62
990.424	29.42
990.588	100.91
990.752	155.55
990.915	132.68
991.079	74.95
991.243	92
991.407	105.95
991.571	108.08
991.734	105.75
991.898	104.98
992.062	196.04
992.226	111.95
992.389	63.71
992.553	54.6
992.717	74.37
992.88	65.84
993.044	74.56
993.207	80.37
993.371	106.14
993.535	92.97
993.698	73.79
993.862	133.46
994.025	145.86
994.189	99.17
994.352	109.05
994.515	110.21
994.679	126.29
994.842	80.18
995.006	110.4
995.169	50.54
995.332	64.49
995.496	102.46
995.659	42.98
995.822	87.54
995.985	56.35
996.149	115.44
996.312	63.9
996.475	149.73
996.638	50.15
996.801	105.56
996.964	147.99
997.128	77.27
997.291	91.8
997.454	74.56
997.617	40.85
997.78	121.83
997.943	61.19
998.106	107.3
998.269	70.1
998.432	70.3
998.595	98.2
998.758	16.44
998.92	65.26
999.083	37.75
999.246	89.29
999.409	54.02
999.572	29.8
999.735	46.47
999.897	112.34
1000.06	67
1000.223	39.3
1000.386	82.7
1000.548	88.9
1000.711	92.19
1000.874	85.41
1001.036	29.61
1001.199	103.04
1001.361	54.8
1001.524	83.47
1001.687	97.04
1001.849	29.61
1002.012	79.6
1002.174	61
1002.337	90.06
1002.499	51.89
1002.661	130.17
1002.824	39.1
1002.986	56.15
1003.149	50.15
1003.311	29.61
1003.473	116.8
1003.636	46.85
1003.798	74.17
1003.96	71.85
1004.123	49.37
1004.285	51.31
1004.447	27.09
1004.609	46.08
1004.771	108.47
1004.933	21.28
1005.096	23.6
1005.258	-4.1
1005.42	51.12
1005.582	87.93
1005.744	79.02
1005.906	-6.62
1006.068	45.89
1006.23	16.82
1006.392	19.15
1006.554	36.39
1006.716	79.21
1006.878	72.62
1007.04	11.01
1007.202	33.87
1007.363	50.73
1007.525	56.54
1007.687	76.11
1007.849	87.93
1008.011	16.05
1008.172	11.01
1008.334	23.02
1008.496	63.9
1008.658	7.33
1008.819	25.74
1008.981	-7.01
1009.143	7.33
1009.304	38.14
1009.466	63.9
1009.627	68.36
1009.789	145.47
1009.95	63.71
1010.112	17.6
1010.273	61.58
1010.435	23.99
1010.596	50.54
1010.758	8.49
1010.919	39.69
1011.081	17.21
1011.242	43.75
1011.403	50.34
1011.565	26.51
1011.726	69.33
1011.887	20.7
1012.049	21.09
1012.21	72.62
1012.371	82.5
1012.532	-20.96
1012.693	58.09
1012.855	12.76
1013.016	42.2
1013.177	105.95
1013.338	29.8
1013.499	87.35
1013.66	82.12
1013.821	82.31
1013.982	43.56
1014.143	47.24
1014.304	26.7
1014.465	45.89
1014.626	52.28
1014.787	31.35
1014.948	85.8
1015.109	-13.21
1015.27	73.59
1015.431	31.94
1015.592	5.78
1015.752	82.7
1015.913	34.65
1016.074	36.2
1016.235	28.84
1016.395	23.22
1016.556	52.28
1016.717	24.96
1016.877	67
1017.038	14.89
1017.199	59.06
1017.359	57.51
1017.52	50.34
1017.681	22.83
1017.841	4.42
1018.002	20.5
1018.162	22.44
1018.323	71.65
1018.483	29.42
1018.644	22.05
1018.804	20.12
1018.964	-19.41
1019.125	13.92
1019.285	16.82
1019.446	-10.88
1019.606	1.71
1019.766	-32.19
1019.926	37.36
1020.087	33.1
1020.247	-17.08
1020.407	50.34
1020.567	69.52
1020.728	28.25
1020.888	27.67
1021.048	8.3
1021.208	28.45
1021.368	-6.23
1021.528	46.08
1021.688	44.92
1021.848	27.29
1022.008	47.24
1022.168	17.4
1022.328	28.64
1022.488	35.23
1022.648	19.73
1022.808	21.47
1022.968	46.85
1023.128	4.81
1023.288	14.89
1023.448	14.5
1023.608	19.73
1023.767	46.85
1023.927	21.86
1024.087	-10.11
1024.247	0.36
1024.406	6.36
1024.566	3.84
1024.726	-24.64
1024.885	16.82
1025.045	48.6
1025.205	36.59
1025.364	15.27
1025.524	36
1025.683	9.27
1025.843	10.62
1026.003	33.68
1026.162	51.89
1026.321	38.14
1026.481	28.25
1026.64	24.57
1026.8	31.35
1026.959	39.3
1027.119	46.27
1027.278	16.05
1027.437	-8.56
1027.597	15.47
1027.756	34.45
1027.915	32.52
1028.074	16.63
1028.234	-0.61
1028.393	7.72
1028.552	14.11
1028.711	-36.84
1028.87	70.88
1029.03	-33.94
1029.189	30
1029.348	-43.82
1029.507	-32.19
1029.666	10.43
1029.825	-9.33
1029.984	-7.78
1030.143	35.42
1030.302	12.17
1030.461	-42.08
1030.62	35.62
1030.779	28.84
1030.938	-11.08
1031.097	-22.31
1031.255	36.97
1031.414	34.45
1031.573	34.84
1031.732	-16.89
1031.891	11.21
1032.049	37.36
1032.208	43.95
1032.367	-29.87
1032.525	10.04
1032.684	10.24
1032.843	3.07
1033.001	-21.93
1033.16	165.23
1033.319	75.92
1033.477	55.77
1033.636	-22.7
1033.794	-18.44
1033.953	41.24
1034.111	24.19
1034.27	-6.62
1034.428	17.79
1034.587	-23.09
1034.745	32.9
1034.903	9.46
1035.062	34.26
1035.22	-16.69
1035.378	27.09
1035.537	-13.79
1035.695	37.94
1035.853	6.94
1036.011	44.72
1036.17	30.19
1036.328	-27.93
1036.486	30
1036.644	47.24
1036.802	-58.16
1036.96	-18.44
1037.119	-12.43
1037.277	7.52
1037.435	-23.09
1037.593	-22.51
1037.751	32.71
1037.909	25.35
1038.067	25.35
