Data from gum_young_FLMT105791__118__17-40-46-040.txt Node

Date: Mon Mar 20 17:40:46 GMT 2023
User: antho
Spectrometer: FLMT10579
Trigger mode: 0
Integration Time (sec): 1.000000E-1
Scans to average: 10
Electric dark correction enabled: true
Nonlinearity correction enabled: false
Boxcar width: 0
XAxis mode: Wavelengths
Number of Pixels in Spectrum: 3648
>>>>>Begin Spectral Data<<<<<
345.248	-166.67
345.464	-166.67
345.681	-166.67
345.898	-148.85
346.114	-146.72
346.331	-42.67
346.548	27.08
346.764	4.99
346.981	-11.09
347.197	-20.78
347.414	10.61
347.631	-14.19
347.847	54.39
348.064	12.74
348.28	25.72
348.497	-41.51
348.713	-5.28
348.93	26.69
349.146	31.14
349.363	6.73
349.579	15.45
349.796	-7.22
350.012	-1.99
350.229	44.71
350.445	16.03
350.661	3.44
350.878	-2.76
351.094	14.68
351.311	4.6
351.527	45.48
351.743	2.86
351.96	39.28
352.176	60.59
352.392	-12.45
352.609	34.44
352.825	-2.57
353.041	-6.64
353.257	4.02
353.474	5.18
353.69	11.77
353.906	40.44
354.122	-13.61
354.339	45.29
354.555	13.9
354.771	-5.67
354.987	46.64
355.203	60.79
355.42	-1.21
355.636	0.92
355.852	0.92
356.068	16.61
356.284	-21.17
356.5	40.83
356.716	44.32
356.932	4.21
357.148	13.32
357.364	18.36
357.58	59.63
357.796	58.46
358.012	40.83
358.228	63.89
358.444	-49.84
358.66	50.71
358.876	49.74
359.092	-23.1
359.308	51.29
359.524	33.86
359.74	14.1
359.956	8.48
360.172	27.66
360.388	54.59
360.604	-2.18
360.819	75.9
361.035	27.08
361.251	25.14
361.467	11.77
361.683	46.64
361.898	40.64
362.114	23.2
362.33	34.83
362.546	55.94
362.762	22.81
362.977	31.73
363.193	-4.12
363.409	50.13
363.624	4.8
363.84	6.54
364.056	-7.22
364.271	20.1
364.487	36.38
364.703	42.77
364.918	1.11
365.134	26.49
365.35	0.53
365.565	115.62
365.781	43.35
365.996	54.39
366.212	88.49
366.427	26.49
366.643	-5.86
366.858	7.51
367.074	-13.8
367.289	58.66
367.505	101.48
367.72	-6.64
367.936	-7.41
368.151	60.21
368.367	21.46
368.582	21.46
368.798	10.8
369.013	69.12
369.228	27.08
369.444	18.55
369.659	46.84
369.874	27.27
370.09	62.34
370.305	-11.87
370.52	7.51
370.736	65.44
370.951	24.75
371.166	59.43
371.381	85.01
371.597	64.28
371.812	6.93
372.027	-0.24
372.242	19.91
372.458	94.69
372.673	12.55
372.888	27.66
373.103	28.43
373.318	130.73
373.533	55.17
373.749	47.23
373.964	-42.09
374.179	68.54
374.394	12.16
374.609	56.33
374.824	-5.86
375.039	82.68
375.254	14.29
375.469	76.29
375.684	48.19
375.899	77.84
376.114	42.77
376.329	26.69
376.544	60.98
376.759	85.98
376.974	-12.25
377.189	9.06
377.404	27.08
377.619	75.9
377.834	-1.6
378.049	-11.29
378.264	14.29
378.478	18.75
378.693	10.41
378.908	45.09
379.123	28.43
379.338	70.86
379.553	25.91
379.767	35.21
379.982	39.67
380.197	71.25
380.412	32.5
380.626	70.86
380.841	88.11
381.056	42.77
381.271	100.51
381.485	12.55
381.7	4.02
381.915	39.48
382.129	17
382.344	49.74
382.559	14.87
382.773	65.44
382.988	16.61
383.202	45.48
383.417	-7.02
383.632	118.33
383.846	41.41
384.061	27.46
384.275	22.62
384.49	45.48
384.704	63.31
384.919	32.89
385.133	21.65
385.348	64.08
385.562	-12.25
385.777	38.12
385.991	41.22
386.206	23.2
386.42	21.65
386.634	62.53
386.849	41.99
387.063	65.44
387.277	5.18
387.492	13.51
387.706	24.56
387.92	33.66
388.135	62.73
388.349	45.48
388.563	60.21
388.778	52.65
388.992	58.08
389.206	50.91
389.42	103.61
389.635	43.93
389.849	73.38
390.063	71.64
390.277	57.11
390.491	102.44
390.706	65.83
390.92	89.66
391.134	39.28
391.348	76.29
391.562	5.18
391.776	63.5
391.99	45.29
392.205	65.24
392.419	52.84
392.633	35.79
392.847	94.11
393.061	22.81
393.275	102.83
393.489	38.31
393.703	59.82
393.917	66.6
394.131	31.14
394.345	45.87
394.559	103.03
394.773	51.68
394.986	60.79
395.2	48.78
395.414	93.73
395.628	58.08
395.842	60.79
396.056	17
396.27	27.46
396.484	54.78
396.697	70.86
396.911	121.62
397.125	77.26
397.339	99.34
397.553	45.48
397.766	107.87
397.98	119.69
398.194	103.41
398.408	64.47
398.621	82.29
398.835	103.22
399.049	66.21
399.262	104.58
399.476	119.69
399.69	124.14
399.903	123.17
400.117	62.14
400.331	89.08
400.544	61.56
400.758	153.4
400.971	111.55
401.185	122.21
401.398	66.99
401.612	135.19
401.826	101.86
402.039	114.07
402.253	74.54
402.466	93.73
402.68	87.72
402.893	86.17
403.106	95.66
403.32	81.13
403.533	121.82
403.747	91.59
403.96	119.88
404.174	148.17
404.387	43.16
404.6	86.75
404.814	137.32
405.027	94.69
405.24	93.34
405.454	81.91
405.667	129.76
405.88	47.42
406.094	111.16
406.307	136.74
406.52	128.02
406.733	76.48
406.947	81.91
407.16	165.8
407.373	132.47
407.586	70.86
407.799	70.48
408.012	154.95
408.226	146.42
408.439	167.54
408.652	87.14
408.865	108.84
409.078	156.11
409.291	111.74
409.504	90.24
409.717	149.52
409.93	149.91
410.143	103.03
410.357	86.17
410.57	73.38
410.783	108.26
410.996	122.01
411.209	115.42
411.421	131.89
411.634	133.44
411.847	102.44
412.06	126.47
412.273	121.82
412.486	151.07
412.699	191.76
412.912	121.62
413.125	164.06
413.338	141.39
413.55	158.05
413.763	133.83
413.976	154.76
414.189	99.93
414.402	131.7
414.615	184.59
414.827	97.21
415.04	173.36
415.253	169.09
415.466	178.39
415.678	195.06
415.891	131.12
416.104	140.61
416.316	149.33
416.529	120.27
416.742	168.51
416.954	187.89
417.167	156.69
417.38	139.64
417.592	182.27
417.805	117.94
418.017	92.95
418.23	159.21
418.442	136.74
418.655	145.46
418.868	147.97
419.08	176.07
419.293	187.11
419.505	154.95
419.718	150.88
419.93	184.4
420.142	140.03
420.355	187.89
420.567	185.17
420.78	171.42
420.992	156.89
421.205	218.11
421.417	132.47
421.629	120.66
421.842	137.12
422.054	146.23
422.266	209.39
422.479	192.92
422.691	155.92
422.903	192.73
423.115	151.27
423.328	165.99
423.54	158.44
423.752	169.09
423.964	145.46
424.177	150.69
424.389	180.14
424.601	266.16
424.813	196.99
425.025	210.55
425.238	220.82
425.45	157.66
425.662	172.39
425.874	455.65
426.086	173.36
426.298	182.66
426.51	190.6
426.722	196.22
426.934	156.5
427.146	215.4
427.358	160.76
427.57	218.5
427.782	180.72
427.994	181.3
428.206	165.99
428.418	147.97
428.63	198.74
428.842	223.92
429.054	195.06
429.266	229.54
429.478	151.27
429.69	190.02
429.902	138.29
430.114	169.87
430.325	191.57
430.537	150.3
430.749	178.01
430.961	117.94
431.173	144.87
431.384	165.02
431.596	111.74
431.808	157.27
432.02	211.33
432.231	208.04
432.443	236.9
432.655	235.55
432.867	181.49
433.078	220.63
433.29	248.72
433.502	221.02
433.713	240.78
433.925	224.89
434.136	243.88
434.348	170.84
434.56	154.37
434.771	290.18
434.983	163.47
435.194	193.31
435.406	234.39
435.617	269.65
435.829	275.85
436.04	242.72
436.252	252.6
436.463	267.71
436.675	264.03
436.886	235.35
437.098	246.2
437.309	320.99
437.521	236.52
437.732	282.44
437.943	247.56
438.155	257.64
438.366	201.45
438.578	300.45
438.789	242.14
439	271.39
439.211	232.45
439.423	253.95
439.634	261.12
439.845	270.23
440.057	249.89
440.268	306.46
440.479	264.22
440.69	268.68
440.902	255.31
441.113	266.55
441.324	233.22
441.535	298.13
441.746	326.03
441.957	237.87
442.168	261.12
442.38	295.03
442.591	308.2
442.802	269.84
443.013	254.15
443.224	301.23
443.435	278.17
443.646	296.58
443.857	286.5
444.068	262.48
444.279	271
444.49	329.9
444.701	264.03
444.912	390.16
445.123	349.28
445.334	319.44
445.545	306.85
445.756	282.44
445.967	264.03
446.178	302.78
446.388	319.05
446.599	313.82
446.81	343.08
447.021	290.57
447.232	357.03
447.443	362.07
447.653	278.37
447.864	352.96
448.075	319.05
448.286	342.69
448.496	339.4
448.707	356.64
448.918	313.82
449.129	406.82
449.339	308.01
449.55	374.85
449.761	321.96
449.971	358.38
450.182	328.93
450.393	376.01
450.603	340.56
450.814	396.16
451.024	349.28
451.235	425.61
451.446	428.52
451.656	411.28
451.867	339.2
452.077	384.73
452.288	440.34
452.498	423.68
452.709	352.96
452.919	365.36
453.13	345.98
453.34	387.06
453.55	305.49
453.761	402.56
453.971	391.51
454.182	365.94
454.392	363.81
454.602	446.35
454.813	407.79
455.023	394.61
455.233	344.82
455.444	384.54
455.654	309.56
455.864	364.78
456.075	348.5
456.285	354.12
456.495	396.36
456.705	399.07
456.916	458.36
457.126	440.15
457.336	428.52
457.546	354.7
457.756	384.15
457.967	420
458.177	399.65
458.387	392.87
458.597	378.34
458.807	390.16
459.017	390.93
459.227	364.39
459.437	419.61
459.647	436.85
459.857	423.1
460.068	380.47
460.278	441.89
460.488	440.73
460.698	465.33
460.908	404.11
461.117	393.84
461.327	394.23
461.537	431.62
461.747	421.55
461.957	436.27
462.167	505.44
462.377	457
462.587	452.16
462.797	456.03
463.007	462.43
463.216	447.31
463.426	500.4
463.636	467.27
463.846	407.98
464.056	394.42
464.265	469.01
464.475	419.03
464.685	426.2
464.895	465.72
465.104	442.28
465.314	444.8
465.524	441.5
465.733	427.75
465.943	525.59
466.153	520.36
466.362	496.91
466.572	481.8
466.782	472.11
466.991	448.09
467.201	531.59
467.41	432.59
467.62	483.93
467.829	439.95
468.039	500.79
468.249	426.39
468.458	472.11
468.668	510.86
468.877	520.16
469.086	525.59
469.296	512.99
469.505	469.01
469.715	564.92
469.924	495.94
470.134	527.53
470.343	537.21
470.552	521.33
470.762	506.6
470.971	440.34
471.18	506.79
471.39	488.39
471.599	466.49
471.808	531.79
472.018	503.69
472.227	553.87
472.436	583.32
472.645	515.71
472.855	515.9
473.064	587.39
473.273	541.67
473.482	578.09
473.691	569.57
473.901	586.04
474.11	506.41
474.319	625.95
474.528	581.58
474.737	628.86
474.946	577.51
475.155	592.24
475.364	631.57
475.573	618.01
475.783	610.45
475.992	632.73
476.201	626.34
476.41	596.89
476.619	545.74
476.828	625.95
477.037	600.57
477.245	600.18
477.454	652.88
477.663	610.06
477.872	612.97
478.081	719.72
478.29	620.33
478.499	689.89
478.708	684.27
478.917	714.3
479.125	644.55
479.334	655.2
479.543	685.04
479.752	660.82
479.961	698.99
480.169	715.07
480.378	683.49
480.587	796.25
480.796	705.39
481.004	694.34
481.213	732.12
481.422	723.02
481.63	737.93
481.839	777.07
482.048	810.01
482.256	779.4
482.465	767.19
482.674	773.58
482.882	782.88
483.091	803.03
483.299	784.43
483.508	773.97
483.716	800.13
483.925	812.14
484.134	742.58
484.342	779.59
484.551	782.3
484.759	795.28
484.967	796.83
485.176	825.31
485.384	847.4
485.593	816.01
485.801	824.73
486.01	748.4
486.218	733.67
486.426	707.52
486.635	748.78
486.843	693.57
487.051	759.25
487.26	732.7
487.468	775.33
487.676	808.46
487.885	783.47
488.093	829.58
488.301	873.95
488.509	846.43
488.717	856.7
488.926	868.33
489.134	846.63
489.342	833.45
489.55	842.56
489.758	880.34
489.967	871.23
490.175	963.84
490.383	903.39
490.591	993.68
490.799	905.72
491.007	970.43
491.215	947.38
491.423	925.87
491.631	946.02
491.839	925.87
492.047	976.05
492.255	900.88
492.463	862.51
492.671	939.24
492.879	983.41
493.087	953.77
493.295	953.19
493.503	1015.38
493.711	1002.98
493.919	1018.29
494.127	1032.82
494.334	1029.52
494.542	981.28
494.75	1016.74
494.958	1007.63
495.166	1051.61
495.374	1036.89
495.581	1069.44
495.789	1044.83
495.997	1135.31
496.205	1036.5
496.412	1044.06
496.62	1070.79
496.828	1078.15
497.035	1070.02
497.243	1076.02
497.451	1094.62
497.658	1093.27
497.866	1074.86
498.074	1126.59
498.281	1049.67
498.489	1164.37
498.696	1068.27
498.904	1069.63
499.112	1077.38
499.319	1164.18
499.527	1132.02
499.734	1168.44
499.942	1046.19
500.149	1109.54
500.357	1141.32
500.564	1079.9
500.771	1126.4
500.979	1093.07
501.186	1073.12
501.394	1111.09
501.601	1074.86
501.808	1115.74
502.016	1092.1
502.223	1092.69
502.43	1116.32
502.638	1120.39
502.845	1113.03
503.052	1167.47
503.26	1119.23
503.467	1214.94
503.674	1182.39
503.881	1193.24
504.089	1235.28
504.296	1164.76
504.503	1117.29
504.71	1164.37
504.917	1128.72
505.125	1228.31
505.332	1225.4
505.539	1239.35
505.746	1297.09
505.953	1302.9
506.16	1296.12
506.367	1349.21
506.574	1359.67
506.781	1386.41
506.988	1311.81
507.195	1337.19
507.402	1297.48
507.609	1379.82
507.816	1323.63
508.023	1339.13
508.23	1309.49
508.437	1298.06
508.644	1352.89
508.851	1416.05
509.058	1401.13
509.265	1403.84
509.472	1437.94
509.679	1488.12
509.885	1445.5
510.092	1430
510.299	1467.59
510.506	1473.21
510.713	1470.69
510.92	1481.54
511.126	1498.59
511.333	1544.5
511.54	1510.99
511.746	1575.5
511.953	1564.07
512.16	1583.06
512.367	1539.47
512.573	1513.31
512.78	1577.64
512.987	1579.38
513.193	1594.69
513.4	1511.57
513.606	1561.94
513.813	1588.1
514.02	1583.06
514.226	1667.53
514.433	1630.33
514.639	1547.41
514.846	1601.85
515.052	1611.35
515.259	1643.7
515.465	1694.08
515.672	1635.37
515.878	1752.78
516.085	1736.31
516.291	1758.21
516.497	1741.55
516.704	1723.53
516.91	1677.42
517.117	1570.47
517.323	1578.99
517.529	1582.09
517.736	1625.49
517.942	1610.96
518.148	1649.9
518.354	1699.5
518.561	1705.51
518.767	1734.57
518.973	1767.31
519.179	1812.65
519.386	1777.58
519.592	1808.78
519.798	1821.76
520.004	1965.32
520.21	1938.97
520.417	1990.32
520.623	2023.45
520.829	2015.7
521.035	2013.37
521.241	2048.63
521.447	2105.02
521.653	2181.35
521.859	2086.61
522.065	2133.5
522.271	2219.91
522.477	2187.16
522.683	2237.34
522.889	2190.07
523.095	2200.92
523.301	2162.75
523.507	2136.98
523.713	2227.85
523.919	2163.33
524.125	2290.43
524.331	2275.9
524.537	2397.96
524.742	2369.48
524.948	2396.22
525.154	2383.04
525.36	2459.38
525.566	2399.12
525.772	2460.93
525.977	2402.22
526.183	2453.76
526.389	2512.85
526.595	2398.35
526.8	2363.09
527.006	2227.46
527.212	2215.26
527.417	2205.18
527.623	2215.45
527.829	2316.97
528.034	2335.77
528.24	2401.06
528.446	2401.45
528.651	2518.67
528.857	2529.52
529.062	2536.68
529.268	2591.51
529.473	2605.66
529.679	2613.02
529.884	2663.98
530.09	2653.71
530.295	2652.35
530.501	2667.27
530.706	2703.5
530.912	2625.61
531.117	2716.29
531.323	2678.31
531.528	2762.59
531.733	2742.44
531.939	2715.71
532.144	2786.81
532.35	2758.33
532.555	2753.87
532.76	2700.4
532.966	2703.11
533.171	2701.56
533.376	2644.41
533.581	2659.33
533.787	2665.14
533.992	2757.56
534.197	2801.92
534.402	2784.87
534.607	2812
534.813	2847.07
535.018	2766.47
535.223	2811.03
535.428	2851.52
535.633	2923.4
535.838	2916.62
536.043	2951.69
536.249	3011.75
536.454	2950.92
536.659	2982.3
536.864	2948.4
537.069	2915.27
537.274	2876.71
537.479	2895.89
537.684	2896.86
537.889	2859.47
538.094	3018.53
538.299	2886.4
538.504	2999.55
538.708	2984.05
538.913	2998.77
539.118	2985.79
539.323	2981.92
539.528	2921.85
539.733	2912.94
539.938	2945.1
540.142	2958.86
540.347	2900.15
540.552	2888.14
540.757	2905.77
540.962	2878.84
541.166	2815.1
541.371	2821.49
541.576	2892.6
541.781	2814.91
541.985	2947.04
542.19	2876.52
542.395	3007.1
542.599	3047.79
542.804	3026.28
543.008	3040.81
543.213	2962.73
543.418	2941.81
543.622	2995.48
543.827	2947.82
544.031	3032.68
544.236	3063.87
544.44	3045.66
544.645	3159.78
544.849	3002.26
545.054	3096.81
545.258	3115.02
545.463	3139.04
545.667	3069.88
545.872	3076.08
546.076	3083.44
546.281	3102.43
546.485	3057.67
546.689	3155.9
546.894	3125.48
547.098	3097.97
547.302	3070.26
547.507	3118.89
547.711	3098.55
547.915	3151.44
548.119	3006.52
548.324	3088.86
548.528	3128.39
548.732	3092.74
548.936	3118.7
549.141	3106.11
549.345	3126.26
549.549	3120.83
549.753	3191.94
549.957	3213.06
550.161	3209.76
550.366	3186.51
550.57	3117.54
550.774	3152.22
550.978	3215.19
551.182	3230.49
551.386	3166.36
551.59	3189.81
551.794	3137.49
551.998	3197.17
552.202	3221.39
552.406	3138.46
552.61	3200.66
552.814	3217.71
553.018	3265.95
553.222	3164.81
553.426	3180.51
553.63	3253.55
553.833	3180.7
554.037	3136.14
554.241	3178.37
554.445	3195.62
554.649	3186.9
554.853	3132.84
555.056	3260.91
555.26	3269.44
555.464	3220.81
555.668	3167.91
555.871	3228.75
556.075	3251.22
556.279	3176.63
556.483	3145.83
556.686	3154.74
556.89	3165.98
557.094	3163.07
557.297	3055.15
557.501	3150.28
557.704	3043.14
557.908	3112.31
558.112	3068.13
558.315	3113.86
558.519	3085.38
558.722	3046.05
558.926	3049.73
559.129	2992.18
559.333	2962.15
559.536	2961.38
559.74	2925.15
559.943	2917.78
560.147	2949.17
560.35	2909.65
560.553	2983.47
560.757	2943.55
560.96	3022.02
561.164	2937.55
561.367	3035
561.57	3016.79
561.774	2971.65
561.977	2933.87
562.18	2924.57
562.384	2974.94
562.587	2906.55
562.79	2906.74
562.993	2921.85
563.197	2941.03
563.4	2962.93
563.603	2978.43
563.806	2983.08
564.009	2886.01
564.212	2916.62
564.416	2815.68
564.619	2878.84
564.822	2838.74
565.025	2893.95
565.228	2823.82
565.431	2859.27
565.634	2783.13
565.837	2768.99
566.04	2734.69
566.243	2732.95
566.446	2664.75
566.649	2736.44
566.852	2656.81
567.055	2721.52
567.258	2728.3
567.461	2787.59
567.664	2787.59
567.867	2725.98
568.07	2697.3
568.273	2729.66
568.475	2751.74
568.678	2661.46
568.881	2645.76
569.084	2642.47
569.287	2515.18
569.489	2570.59
569.692	2627.16
569.895	2594.23
570.098	2536.49
570.3	2511.11
570.503	2458.41
570.706	2505.3
570.909	2455.12
571.111	2399.12
571.314	2404.55
571.516	2435.94
571.719	2427.6
571.922	2396.41
572.124	2410.75
572.327	2448.92
572.529	2397.77
572.732	2396.02
572.935	2446.79
573.137	2493.67
573.34	2404.16
573.542	2417.92
573.745	2421.6
573.947	2432.64
574.15	2384.4
574.352	2365.22
574.554	2422.57
574.757	2313.87
574.959	2282.88
575.162	2288.69
575.364	2294.89
575.566	2403.58
575.769	2234.63
575.971	2270.09
576.173	2158.1
576.376	2265.24
576.578	2301.28
576.78	2298.18
576.982	2237.54
577.185	2233.08
577.387	2202.28
577.589	2206.15
577.791	2255.17
577.993	2239.09
578.196	2235.79
578.398	2244.51
578.6	2233.28
578.802	2136.4
579.004	2151.32
579.206	2138.15
579.408	2192.98
579.61	2129.43
579.812	2235.02
580.014	2144.54
580.216	2146.86
580.418	2187.36
580.62	2176.7
580.822	2144.35
581.024	2198.79
581.226	2252.26
581.428	2187.94
581.63	2292.37
581.832	2174.76
582.034	2198.6
582.236	2211.38
582.438	2204.02
582.64	2244.51
582.841	2277.06
583.043	2309.81
583.245	2231.73
583.447	2261.95
583.649	2214.68
583.85	2208.67
584.052	2268.15
584.254	2185.81
584.456	2252.84
584.657	2170.31
584.859	2222.23
585.061	2181.16
585.262	2156.94
585.464	2132.91
585.666	2175.73
585.867	2121.68
586.069	2178.64
586.27	2105.21
586.472	2147.64
586.674	2100.95
586.875	2099.59
587.077	2113.15
587.278	2137.56
587.48	2083.9
587.681	2203.63
587.883	2109.08
588.084	2061.62
588.285	2084.48
588.487	1997.87
588.688	2057.74
588.89	1942.07
589.091	1910.49
589.292	1895.57
589.494	1838.61
589.695	1809.74
589.896	1742.71
590.098	1717.71
590.299	1809.16
590.5	1799.09
590.702	1789.79
590.903	1856.44
591.104	1913.59
591.305	1915.92
591.507	1964.55
591.708	1922.12
591.909	1926.77
592.11	1962.8
592.311	1929.09
592.512	1909.72
592.714	1829.51
592.915	1873.49
593.116	1906.81
593.317	1900.03
593.518	1896.54
593.719	1926.77
593.92	1955.25
594.121	1971.14
594.322	1946.53
594.523	1925.02
594.724	1859.34
594.925	1913.98
595.126	1874.65
595.327	1865.74
595.528	1892.28
595.729	1893.06
595.929	1890.15
596.13	1896.35
596.331	1942.07
596.532	1939.56
596.733	1975.79
596.934	1951.37
597.135	1906.81
597.335	1970.94
597.536	1901.58
597.737	1936.65
597.938	1890.34
598.138	1953.89
598.339	1928.71
598.54	1943.04
598.74	1913.79
598.941	1894.41
599.142	1932.58
599.342	1914.95
599.543	1885.5
599.744	1909.72
599.944	1916.89
600.145	1896.93
600.345	1902.55
600.546	1974.82
600.746	1932.58
600.947	1975.98
601.147	1909.52
601.348	1938.2
601.548	1858.18
601.749	1903.91
601.949	1835.71
602.15	1863.8
602.35	1867.67
602.551	1871.16
602.751	1836.09
602.951	1863.41
603.152	1848.88
603.352	1879.88
603.552	1875.04
603.753	1932.77
603.953	1910.69
604.153	1901.77
604.354	1868.45
604.554	1884.14
604.754	1872.91
604.954	1846.17
605.155	1915.34
605.355	1854.31
605.555	1931.81
605.755	1931.03
605.955	1850.24
606.155	1879.49
606.356	1917.47
606.556	1911.66
606.756	1879.11
606.956	1813.62
607.156	1894.61
607.356	1839.78
607.556	1838.03
607.756	1866.12
607.956	1887.44
608.156	1845.01
608.356	1816.33
608.556	1887.05
608.756	1824.66
608.956	1776.03
609.156	1780.68
609.356	1805.87
609.556	1744.65
609.755	1801.03
609.955	1713.06
610.155	1760.53
610.355	1767.51
610.555	1719.26
610.755	1734.38
610.954	1680.32
611.154	1758.01
611.354	1781.65
611.554	1720.81
611.753	1730.7
611.953	1705.31
612.153	1749.3
612.352	1708.03
612.552	1689.04
612.752	1642.73
612.951	1714.23
613.151	1700.86
613.351	1714.61
613.55	1729.15
613.75	1711.32
613.949	1689.43
614.149	1663.66
614.348	1686.13
614.548	1635.18
614.747	1612.9
614.947	1647.58
615.146	1561.36
615.346	1686.71
615.545	1650.68
615.745	1674.7
615.944	1671.41
616.144	1616.38
616.343	1656.49
616.542	1652.03
616.742	1643.12
616.941	1587.13
617.14	1525.9
617.34	1616.97
617.539	1609.02
617.738	1592.36
617.938	1632.66
618.137	1585.19
618.336	1587.13
618.535	1609.6
618.734	1594.88
618.934	1582.09
619.133	1616.58
619.332	1607.08
619.531	1573.37
619.73	1567.56
619.929	1595.65
620.128	1622.2
620.328	1635.37
620.527	1588.87
620.726	1592.17
620.925	1566.98
621.124	1593.72
621.323	1583.25
621.522	1521.84
621.721	1572.6
621.92	1517.96
622.119	1551.67
622.318	1525.71
622.517	1501.3
622.715	1523.39
622.914	1452.86
623.113	1489.48
623.312	1416.63
623.511	1538.3
623.71	1507.5
623.909	1486.19
624.107	1541.6
624.306	1442.01
624.505	1462.74
624.704	1468.94
624.902	1472.24
625.101	1497.42
625.3	1459.45
625.499	1445.89
625.697	1430.19
625.896	1409.46
626.095	1446.27
626.293	1379.24
626.492	1388.34
626.69	1454.99
626.889	1402.68
627.088	1466.62
627.286	1419.34
627.485	1412.95
627.683	1405.59
627.882	1397.45
628.08	1330.41
628.279	1340.49
628.477	1436.97
628.676	1302.32
628.874	1377.69
629.073	1325.76
629.271	1320.15
629.469	1366.84
629.668	1349.79
629.866	1306.58
630.065	1320.34
630.263	1355.41
630.461	1328.67
630.66	1351.34
630.858	1367.23
631.056	1386.21
631.254	1413.73
631.453	1364.32
631.651	1377.11
631.849	1362.96
632.047	1386.99
632.245	1379.63
632.444	1377.11
632.642	1411.21
632.84	1381.37
633.038	1340.88
633.236	1346.11
633.434	1353.08
633.632	1336.42
633.83	1359.67
634.028	1391.06
634.227	1379.82
634.425	1463.52
634.623	1373.43
634.821	1400.74
635.019	1391.06
635.216	1409.46
635.414	1454.02
635.612	1385.24
635.81	1375.36
636.008	1432.71
636.206	1404.23
636.404	1412.95
636.602	1374.2
636.8	1380.79
636.997	1400.94
637.195	1427.29
637.393	1410.63
637.591	1429.03
637.789	1401.91
637.986	1377.69
638.184	1445.69
638.382	1427.48
638.58	1452.67
638.777	1485.22
638.975	1391.25
639.173	1375.94
639.37	1387.96
639.568	1398.42
639.765	1387.38
639.963	1337.97
640.161	1382.92
640.358	1373.62
640.556	1286.82
640.753	1318.6
640.951	1304.65
641.148	1323.83
641.346	1287.6
641.543	1330.61
641.741	1321.7
641.938	1293.21
642.136	1299.41
642.333	1278.68
642.531	1346.49
642.728	1340.68
642.925	1317.24
643.123	1281.78
643.32	1299.8
643.517	1299.22
643.715	1287.21
643.912	1285.46
644.109	1253.3
644.306	1258.53
644.504	1219.01
644.701	1275.39
644.898	1276.36
645.095	1242.65
645.293	1225.21
645.49	1241.68
645.687	1235.28
645.884	1240.32
646.081	1162.63
646.278	1202.93
646.475	1165.34
646.672	1188.01
646.87	1201.77
647.067	1182.39
647.264	1175.42
647.461	1101.21
647.658	1095.98
647.855	1164.57
648.052	1087.65
648.249	1015.19
648.446	1079.7
648.642	1076.41
648.839	1069.63
649.036	1081.45
649.233	1007.05
649.43	1026.81
649.627	1057.62
649.824	1038.24
650.021	1057.81
650.217	1054.71
650.414	1058.97
650.611	1069.63
650.808	1102.18
651.004	1111.09
651.201	1110.12
651.398	1124.46
651.595	1085.9
651.791	1072.73
651.988	1119.42
652.185	1054.32
652.381	1101.21
652.578	1029.72
652.775	1093.46
652.971	1091.52
653.168	1059.17
653.364	1109.93
653.561	995.81
653.757	1074.28
653.954	1097.92
654.15	1025.84
654.347	1124.85
654.543	1061.88
654.74	1026.23
654.936	1022.36
655.133	1039.41
655.329	1026.23
655.525	1013.44
655.722	1062.27
655.918	997.36
656.115	1000.27
656.311	911.34
656.507	898.74
656.704	870.07
656.9	907.27
657.096	884.99
657.292	891.96
657.489	936.14
657.685	920.44
657.881	923.35
658.077	937.3
658.273	960.55
658.47	1003.76
658.666	938.27
658.862	1031.46
659.058	985.35
659.254	1022.36
659.45	962.49
659.646	982.64
659.842	979.93
660.038	1023.71
660.234	948.73
660.43	995.04
660.626	1038.63
660.822	1035.53
661.018	1017.12
661.214	963.84
661.41	962.68
661.606	1018.48
661.802	1036.31
661.998	1008.02
662.194	926.45
662.39	981.09
662.586	965.78
662.781	979.73
662.977	980.12
663.173	1024.1
663.369	969.27
663.564	967.14
663.76	984.57
663.956	951.25
664.152	990.58
664.347	889.64
664.543	924.32
664.739	921.41
664.934	867.36
665.13	862.51
665.326	935.36
665.521	920.64
665.717	874.91
665.912	873.17
666.108	852.44
666.304	897.78
666.499	896.81
666.695	814.66
666.89	854.38
667.086	910.76
667.281	881.31
667.477	927.03
667.672	900.88
667.867	884.02
668.063	882.66
668.258	849.53
668.454	897.58
668.649	938.08
668.844	899.91
669.04	923.54
669.235	865.81
669.43	846.05
669.626	811.75
669.821	832.87
670.016	807.1
670.211	838.3
670.407	813.69
670.602	831.51
670.797	809.04
670.992	891.77
671.187	830.35
671.382	872.98
671.578	823.38
671.773	862.32
671.968	787.53
672.163	838.49
672.358	860
672.553	813.5
672.748	823.76
672.943	893.13
673.138	835.39
673.333	849.73
673.528	806.13
673.723	844.69
673.918	820.08
674.113	793.93
674.308	896.03
674.503	850.31
674.698	846.82
674.892	833.84
675.087	873.95
675.282	840.23
675.477	805.55
675.672	856.31
675.867	819.7
676.061	787.53
676.256	808.46
676.451	801.29
676.646	831.51
676.84	811.36
677.035	785.02
677.23	763.51
677.424	855.35
677.619	849.73
677.814	880.92
678.008	840.43
678.203	777.07
678.397	811.17
678.592	830.93
678.787	867.55
678.981	811.95
679.176	818.15
679.37	812.53
679.565	854.38
679.759	809.43
679.954	841.4
680.148	866
680.342	893.71
680.537	841.4
680.731	842.95
680.926	872.4
681.12	828.61
681.314	798.58
681.509	846.43
681.703	830.93
681.897	862.51
682.092	819.89
682.286	805.36
682.48	901.84
682.674	889.64
682.869	816.6
683.063	885.18
683.257	945.83
683.451	828.03
683.645	859.8
683.839	878.21
684.034	868.13
684.228	878.21
684.422	808.65
684.616	861.16
684.81	873.75
685.004	865.42
685.198	867.55
685.392	902.43
685.586	855.35
685.78	908.63
685.974	909.01
686.168	904.36
686.362	959.97
686.556	838.88
686.75	797.61
686.944	817.95
687.138	781.92
687.331	696.67
687.525	704.42
687.719	660.44
687.913	704.61
688.107	730.96
688.301	695.31
688.494	732.12
688.688	715.07
688.882	688.14
689.076	679.42
689.269	724.37
689.463	810.01
689.657	758.67
689.85	781.53
690.044	813.3
690.238	806.33
690.431	818.92
690.625	815.43
690.818	878.4
691.012	872.4
691.205	929.74
691.399	863.29
691.593	955.71
691.786	961.71
691.98	1011.89
692.173	1032.04
692.366	1002.59
692.56	1019.45
692.753	1079.9
692.947	996.97
693.14	1073.12
693.333	1081.06
693.527	1045.41
693.72	1094.04
693.914	1077.38
694.107	1073.12
694.3	1100.63
694.493	1097.34
694.687	1163.02
694.88	1104.12
695.073	1204.67
695.266	1192.66
695.46	1199.25
695.653	1264.35
695.846	1239.93
696.039	1239.35
696.232	1254.85
696.425	1296.51
696.618	1369.16
696.812	1389.31
697.005	1440.46
697.198	1527.65
697.391	1467.59
697.584	1489.87
697.777	1545.28
697.97	1565.04
698.163	1550.51
698.356	1557.49
698.549	1629.75
698.742	1596.23
698.935	1553.8
699.127	1615.42
699.32	1596.82
699.513	1639.25
699.706	1626.07
699.899	1699.11
700.092	1670.05
700.285	1702.41
700.477	1685.36
700.67	1730.11
700.863	1699.89
701.056	1848.3
701.248	1788.43
701.441	1843.65
701.634	1805.29
701.826	1897.32
702.019	1767.51
702.212	1873.68
702.404	1820.21
702.597	1832.22
702.79	1880.07
702.982	1902.55
703.175	1972.1
703.367	1973.46
703.56	2029.45
703.752	2104.63
703.945	2049.22
704.137	2088.55
704.33	2130.2
704.522	2149
704.715	2141.05
704.907	2170.7
705.1	2251.88
705.292	2243.74
705.484	2183.29
705.677	2287.33
705.869	2281.91
706.061	2343.13
706.254	2327.44
706.446	2332.09
706.638	2360.57
706.831	2427.99
707.023	2384.4
707.215	2479.72
707.407	2499.68
707.599	2458.6
707.792	2506.85
707.984	2509.37
708.176	2594.81
708.368	2496.38
708.56	2574.08
708.752	2618.83
708.944	2585.51
709.136	2650.22
709.329	2597.52
709.521	2751.55
709.713	2697.88
709.905	2731.21
710.097	2765.31
710.289	2706.41
710.481	2783.91
710.672	2831.57
710.864	2830.6
711.056	2875.35
711.248	2849.97
711.44	2893.57
711.632	2875.16
711.824	2892.4
712.016	2913.91
712.207	2954.98
712.399	2943.17
712.591	3034.42
712.783	3029
712.975	3014.66
713.166	2988.31
713.358	3021.05
713.55	3064.26
713.741	3088.48
713.933	3086.73
714.125	3082.08
714.316	3065.61
714.508	3157.26
714.7	3131.68
714.891	3102.62
715.083	3190.77
715.274	3103.78
715.466	3174.5
715.657	3186.51
715.849	3053.21
716.04	3126.06
716.232	3052.44
716.423	3065.03
716.615	3023.57
716.806	2920.88
716.998	2843.77
717.189	2710.67
717.381	2665.14
717.572	2570.4
717.763	2602.36
717.955	2555.28
718.146	2499.48
718.337	2483.02
718.528	2394.67
718.72	2329.18
718.911	2317.94
719.102	2273.19
719.293	2358.44
719.485	2330.73
719.676	2272.8
719.867	2245.48
720.058	2265.05
720.249	2266.02
720.44	2295.86
720.632	2376.65
720.823	2416.17
721.014	2556.83
721.205	2624.84
721.396	2743.61
721.587	2882.14
721.778	2917.98
721.969	2980.37
722.16	3082.28
722.351	3092.16
722.542	3216.16
722.733	3196.2
722.924	3117.54
723.115	3155.32
723.305	3097.39
723.496	3154.74
723.687	2902.67
723.878	2959.63
724.069	2960.22
724.26	2990.83
724.45	2867.99
724.641	2872.06
724.832	2911.58
725.023	2855.59
725.213	2892.79
725.404	2797.86
725.595	2846.1
725.785	2831.95
725.976	2889.3
726.167	2902.29
726.357	2886.98
726.548	2991.22
726.739	2915.27
726.929	3001.1
727.12	3014.08
727.31	3000.32
727.501	2948.4
727.691	2990.63
727.882	2980.17
728.072	3051.28
728.263	3066.58
728.453	3103.2
728.644	3102.43
728.834	3097.39
729.024	3014.85
729.215	3009.62
729.405	3067.94
729.596	3118.31
729.786	3166.75
729.976	3187.09
730.167	3187.48
730.357	3176.24
730.547	3251.03
730.737	3167.72
730.928	3198.52
731.118	3279.12
731.308	3227.78
731.498	3197.75
731.688	3320.78
731.879	3310.51
732.069	3402.93
732.259	3480.62
732.449	3496.7
732.639	3583.31
732.829	3621.86
733.019	3686.77
733.209	3742.37
733.399	3753.42
733.589	3815.22
733.779	3862.88
733.969	3906.86
734.159	3992.11
734.349	4028.54
734.539	4061.86
734.729	4081.43
734.919	4069.03
735.109	4129.29
735.299	4047.52
735.488	4083.37
735.678	4100.42
735.868	4077.36
736.058	4095.96
736.248	4052.95
736.437	4049.85
736.627	4031.64
736.817	4116.89
737.007	4118.05
737.196	4151.37
737.386	4177.34
737.576	4123.47
737.765	4212.21
737.955	4137.23
738.144	4322.45
738.334	4244.76
738.524	4186.25
738.713	4252.7
738.903	4191.67
739.092	4293.97
739.282	4220.54
739.471	4284.67
739.661	4227.9
739.85	4312.18
740.04	4271.3
740.229	4327.68
740.419	4361.4
740.608	4392.2
740.797	4349.96
740.987	4391.81
741.176	4399.56
741.365	4360.04
741.555	4341.83
741.744	4407.7
741.933	4393.75
742.123	4427.27
742.312	4433.86
742.501	4461.18
742.69	4490.04
742.88	4431.34
743.069	4516.2
743.258	4444.13
743.447	4501.47
743.636	4537.9
743.825	4463.69
744.014	4552.82
744.204	4544.68
744.393	4472.61
744.582	4614.62
744.771	4560.76
744.96	4524.14
745.149	4573.35
745.338	4490.62
745.527	4605.71
745.716	4566.57
745.905	4481.32
746.094	4586.34
746.283	4611.33
746.471	4572.58
746.66	4641.75
746.849	4580.52
747.038	4588.85
747.227	4573.16
747.416	4619.47
747.604	4544.49
747.793	4560.76
747.982	4604.74
748.171	4584.59
748.359	4553.59
748.548	4590.21
748.737	4565.22
748.926	4605.52
749.114	4430.95
749.303	4536.93
749.491	4497.99
749.68	4436.57
749.869	4534.61
750.057	4477.45
750.246	4460.79
750.434	4502.06
750.623	4426.88
750.811	4393.75
751	4527.24
751.188	4451.88
751.377	4518.91
751.565	4449.74
751.754	4454.39
751.942	4402.28
752.131	4441.41
752.319	4416.81
752.507	4383.87
752.696	4436.57
752.884	4475.13
753.072	4431.34
753.261	4413.9
753.449	4472.41
753.637	4394.72
753.825	4487.33
754.014	4409.64
754.202	4392.59
754.39	4433.86
754.578	4431.73
754.766	4371.08
754.955	4349.96
755.143	4428.24
755.331	4318.38
755.519	4406.93
755.707	4327.88
755.895	4328.85
756.083	4382.13
756.271	4280.8
756.459	4299.98
756.647	4386.97
756.835	4309.47
757.023	4290.87
757.211	4258.71
757.399	4299.01
757.587	4311.6
757.775	4248.63
757.963	4264.91
758.151	4241.85
758.339	4201.75
758.526	4212.4
758.714	4236.43
758.902	4103.71
759.09	3986.3
759.278	3736.17
759.465	3400.99
759.653	3018.92
759.841	2696.14
760.028	2333.83
760.216	1997.87
760.404	1859.34
760.591	1555.94
760.779	1304.06
760.967	1136.09
761.154	938.66
761.342	965.98
761.529	939.24
761.717	961.91
761.905	942.34
762.092	1053.94
762.28	1012.47
762.467	974.5
762.655	906.11
762.842	907.46
763.029	919.86
763.217	918.89
763.404	888.48
763.592	947.18
763.779	927.81
763.966	962.1
764.154	963.26
764.341	1064.79
764.528	1064.98
764.716	1147.9
764.903	1216.49
765.09	1274.23
765.277	1331.77
765.465	1532.3
765.652	1619.68
765.839	1723.14
766.026	1850.24
766.213	1975.01
766.4	2060.45
766.588	2254.01
766.775	2333.64
766.962	2444.65
767.149	2553.15
767.336	2755.81
767.523	2710.09
767.71	2893.57
767.897	3045.27
768.084	3100.29
768.271	3190
768.458	3261.69
768.645	3331.82
768.832	3328.72
769.019	3399.63
769.206	3425.4
769.392	3570.52
769.579	3597.45
769.766	3613.53
769.953	3612.17
770.14	3651.51
770.327	3675.34
770.513	3707.3
770.7	3779.96
770.887	3712.73
771.073	3709.24
771.26	3754.39
771.447	3761.55
771.634	3757.1
771.82	3834.79
772.007	3720.67
772.193	3750.12
772.38	3819.1
772.567	3761.17
772.753	3761.94
772.94	3777.25
773.126	3783.45
773.313	3780.54
773.499	3774.92
773.686	3802.24
773.872	3722.03
774.059	3803.4
774.245	3704.2
774.432	3775.89
774.618	3645.69
774.804	3691.42
774.991	3676.31
775.177	3720.29
775.363	3719.12
775.55	3739.27
775.736	3681.73
775.922	3696.45
776.109	3709.24
776.295	3665.65
776.481	3711.95
776.667	3683.28
776.853	3647.63
777.04	3642.79
777.226	3635.62
777.412	3735.01
777.598	3580.79
777.784	3634.84
777.97	3628.45
778.156	3648.41
778.342	3595.51
778.528	3566.45
778.715	3534.68
778.901	3510.65
779.087	3604.81
779.272	3556.18
779.458	3531.38
779.644	3572.84
779.83	3520.14
780.016	3628.64
780.202	3513.56
780.388	3521.31
780.574	3436.64
780.76	3458.34
780.946	3537.19
781.131	3514.72
781.317	3535.45
781.503	3451.95
781.689	3473.45
781.874	3571.88
782.06	3461.44
782.246	3511.62
782.432	3412.03
782.617	3500.96
782.803	3472.1
782.989	3475.78
783.174	3431.99
783.36	3322.52
783.545	3439.16
783.731	3404.28
783.916	3333.18
784.102	3414.17
784.288	3338.6
784.473	3335.12
784.659	3347.32
784.844	3375.61
785.029	3334.34
785.215	3289.59
785.4	3314.19
785.586	3381.23
785.771	3269.82
785.956	3318.84
786.142	3275.25
786.327	3245.41
786.512	3241.15
786.698	3251.42
786.883	3162.68
787.068	3195.81
787.254	3243.28
787.439	3200.27
787.624	3158.23
787.809	3138.85
787.994	3130.71
788.18	3204.72
788.365	3094.29
788.55	3096.81
788.735	3094.29
788.92	3101.26
789.105	3065.42
789.29	3119.67
789.475	3058.64
789.66	3053.02
789.845	3021.25
790.03	3011.95
790.215	3064.06
790.4	3056.12
790.585	3069.1
790.77	3029.96
790.955	2961.77
791.14	2979.01
791.325	3077.82
791.51	2910.03
791.695	3004.97
791.879	2998.19
792.064	2936.19
792.249	3039.85
792.434	3010.78
792.618	2964.48
792.803	3015.43
792.988	2980.95
793.173	3007.68
793.357	2993.93
793.542	2967
793.727	2990.25
793.911	3029
794.096	3001.29
794.281	3083.05
794.465	3096.03
794.65	3002.84
794.834	3103.39
795.019	3098.94
795.203	3099.33
795.388	3071.04
795.572	3119.48
795.757	3029.38
795.941	3033.45
796.126	3030.35
796.31	2968.93
796.494	2995.09
796.679	3015.05
796.863	2960.8
797.048	3053.8
797.232	3006.71
797.416	3033.06
797.601	3046.82
797.785	3072.4
797.969	3084.6
798.153	3036.16
798.338	3091.96
798.522	3092.54
798.706	3071.23
798.89	3106.3
799.074	3184.96
799.258	3148.34
799.443	3090.03
799.627	3066.97
799.811	3154.35
799.995	3058.83
800.179	3024.35
800.363	3056.9
800.547	3093.32
800.731	3089.64
800.915	3002.65
801.099	3022.6
801.283	3060.19
801.467	3030.35
801.651	3041.01
801.835	3047.79
802.019	3061.93
802.202	3088.48
802.386	2969.9
802.57	2977.27
802.754	3035.39
802.938	2991.8
803.121	2962.54
803.305	3080.14
803.489	3005.75
803.673	3026.86
803.856	3047.79
804.04	2993.15
804.224	3038.68
804.407	2978.43
804.591	2996.45
804.775	3018.34
804.958	3032.1
805.142	3095.06
805.326	3003.03
805.509	3045.08
805.693	3122.96
805.876	3086.73
806.06	3057.48
806.243	3110.95
806.427	3114.63
806.61	3119.09
806.794	3079.37
806.977	3137.69
807.16	3103.01
807.344	3116.38
807.527	3083.63
807.71	3060.77
807.894	3064.06
808.077	3091.58
808.26	3029.58
808.444	3018.53
808.627	3033.06
808.81	2968.35
808.993	2923.4
809.177	2931.15
809.36	2974.55
809.543	2990.44
809.726	2879.42
809.909	2880.59
810.092	2844.16
810.276	2848.04
810.459	2837.19
810.642	2849.97
810.825	2797.86
811.008	2802.12
811.191	2723.84
811.374	2689.74
811.557	2683.16
811.74	2759.69
811.923	2646.93
812.106	2654.48
812.289	2599.07
812.472	2588.61
812.654	2629.49
812.837	2580.66
813.02	2498.32
813.203	2505.1
813.386	2373.36
813.569	2344.29
813.751	2252.65
813.934	2308.45
814.117	2247.23
814.3	2182.71
814.482	2170.7
814.665	2135.82
814.848	2084.48
815.03	2003.88
815.213	1997.29
815.396	2003.69
815.578	1969.59
815.761	1943.82
815.943	1979.85
816.126	1924.25
816.309	1868.26
816.491	1761.7
816.674	1712.48
816.856	1801.22
817.039	1787.85
817.221	1857.99
817.403	1840.16
817.586	1801.61
817.768	1836.87
817.951	1730.7
818.133	1760.53
818.315	1759.76
818.498	1811.29
818.68	1852.37
818.862	1839.97
819.045	1870.97
819.227	1851.59
819.409	1872.13
819.591	1864.38
819.774	1836.29
819.956	1827.18
820.138	1956.41
820.32	1871.16
820.502	1963
820.684	2018.99
820.866	2060.65
821.048	2119.74
821.231	2134.85
821.413	2137.56
821.595	2088.74
821.777	2121.29
821.959	2118.96
822.141	2190.85
822.323	2025.39
822.505	1929.29
822.686	1866.12
822.868	1748.71
823.05	1657.65
823.232	1610.38
823.414	1527.84
823.596	1639.44
823.778	1626.46
823.96	1677.03
824.141	1671.8
824.323	1689.81
824.505	1794.63
824.687	1820.59
824.868	1894.8
825.05	1987.6
825.232	2025
825.413	2145.7
825.595	2070.72
825.777	2004.46
825.958	2045.15
826.14	2035.65
826.321	2096.88
826.503	2052.32
826.685	2069.95
826.866	2074.98
827.048	2092.81
827.229	2012.6
827.411	1975.4
827.592	1906.04
827.773	1948.08
827.955	1869.22
828.136	1872.91
828.318	1830.67
828.499	1851.98
828.68	1802.19
828.862	1813.04
829.043	1840.94
829.224	1819.04
829.406	1787.66
829.587	1812.84
829.768	1823.5
829.949	1820.98
830.131	1817.88
830.312	1877.56
830.493	1823.69
830.674	1853.92
830.855	1828.73
831.036	1862.06
831.218	1905.65
831.399	1943.24
831.58	1833.96
831.761	1853.53
831.942	1861.09
832.123	1834.54
832.304	1831.64
832.485	1816.72
832.666	1833.77
832.847	1876.39
833.028	1827.18
833.209	1846.56
833.389	1864.38
833.57	1784.56
833.751	1764.41
833.932	1858.37
834.113	1836.68
834.294	1813.62
834.475	1870.39
834.655	1890.92
834.836	1894.41
835.017	1918.82
835.198	1832.61
835.378	1879.11
835.559	1944.2
835.74	1864.77
835.92	1896.74
836.101	1889.57
836.281	1952.73
836.462	1920.57
836.643	1937.42
836.823	1929.09
837.004	1964.94
837.184	2021.12
837.365	1979.27
837.545	1964.55
837.726	1910.69
837.906	1996.9
838.087	1970.55
838.267	1948.27
838.448	1928.12
838.628	1938.2
838.808	1922.12
838.989	1964.94
839.169	1905.46
839.349	1979.47
839.53	1969
839.71	1993.22
839.89	1927.16
840.07	1965.71
840.251	1935.49
840.431	1996.9
840.611	1973.27
840.791	1895.57
840.971	1955.83
841.151	1949.44
841.332	1913.59
841.512	1957.19
841.692	1895.19
841.872	1946.14
842.052	1912.43
842.232	1964.55
842.412	1862.44
842.592	1954.67
842.772	1939.56
842.952	1962.61
843.132	1898.87
843.312	1906.81
843.492	1900.03
843.672	1954.67
843.851	1859.15
844.031	1871.74
844.211	1894.02
844.391	1832.41
844.571	1891.51
844.751	1898.67
844.93	1897.9
845.11	1836.87
845.29	1896.54
845.47	1932.19
845.649	1896.35
845.829	1942.46
846.009	1900.81
846.188	1906.04
846.368	1907.97
846.547	1877.75
846.727	1922.12
846.907	1842.29
847.086	1907.97
847.266	1890.34
847.445	1891.51
847.625	1898.67
847.804	1837.84
847.984	1861.09
848.163	1824.47
848.343	1819.24
848.522	1864.57
848.701	1896.74
848.881	1842.49
849.06	1852.56
849.239	1828.34
849.419	1823.31
849.598	1784.56
849.777	1772.54
849.957	1727.79
850.136	1668.89
850.315	1668.89
850.494	1670.25
850.674	1690.01
850.853	1774.87
851.032	1739.03
851.211	1751.81
851.39	1730.5
851.569	1672.38
851.748	1645.06
851.927	1740
852.107	1701.63
852.286	1676.25
852.465	1703.76
852.644	1727.98
852.823	1731.28
853.002	1692.14
853.181	1719.85
853.359	1705.51
853.538	1645.45
853.717	1721.2
853.896	1604.76
854.075	1516.8
854.254	1511.76
854.433	1464.1
854.611	1471.85
854.79	1412.56
854.969	1468.75
855.148	1506.72
855.327	1469.52
855.505	1494.91
855.684	1538.5
855.863	1555.16
856.041	1535.01
856.22	1618.32
856.399	1552.06
856.577	1665.4
856.756	1608.83
856.934	1752.98
857.113	1703.76
857.291	1617.55
857.47	1629.95
857.648	1659.78
857.827	1614.25
858.005	1672.77
858.184	1579.19
858.362	1687.49
858.541	1628.98
858.719	1634.79
858.898	1643.7
859.076	1610.77
859.254	1659.2
859.433	1633.43
859.611	1598.37
859.789	1585.97
859.967	1621.42
860.146	1647.19
860.324	1596.82
860.502	1572.6
860.68	1538.89
860.859	1552.06
861.037	1573.18
861.215	1578.41
861.393	1608.25
861.571	1562.14
861.749	1522.61
861.927	1577.25
862.105	1584.42
862.283	1547.22
862.461	1535.2
862.639	1531.14
862.817	1548.38
862.995	1570.47
863.173	1536.37
863.351	1550.9
863.529	1549.93
863.707	1566.2
863.885	1554.97
864.063	1485.99
864.241	1489.48
864.418	1553.42
864.596	1463.71
864.774	1466.04
864.952	1485.41
865.129	1537.53
865.307	1479.41
865.485	1433.49
865.663	1476.31
865.84	1395.32
866.018	1424.57
866.196	1282.36
866.373	1303.29
866.551	1263.38
866.728	1257.76
866.906	1257.76
867.084	1285.46
867.261	1372.26
867.439	1346.11
867.616	1370.52
867.794	1371.1
867.971	1399.19
868.149	1393.77
868.326	1454.22
868.503	1423.8
868.681	1387.38
868.858	1395.13
869.035	1368.78
869.213	1390.48
869.39	1367.03
869.567	1462.74
869.745	1363.16
869.922	1371.29
870.099	1386.21
870.276	1416.05
870.454	1441.04
870.631	1431.16
870.808	1392.8
870.985	1378.66
871.162	1432.71
871.339	1379.43
871.517	1359.48
871.694	1300.77
871.871	1372.84
872.048	1379.82
872.225	1344.75
872.402	1373.81
872.579	1321.11
872.756	1344.75
872.933	1313.56
873.11	1366.64
873.287	1366.84
873.463	1329.25
873.64	1299.03
873.817	1368.19
873.994	1300.58
874.171	1283.91
874.348	1322.47
874.524	1286.43
874.701	1267.45
874.878	1282.56
875.055	1320.92
875.231	1309.1
875.408	1316.08
875.585	1253.3
875.762	1294.57
875.938	1272.68
876.115	1249.43
876.291	1247.49
876.468	1262.6
876.645	1229.86
876.821	1233.93
876.998	1255.63
877.174	1267.83
877.351	1244
877.527	1203.7
877.704	1243.62
877.88	1252.72
878.057	1235.67
878.233	1277.91
878.409	1221.92
878.586	1244
878.762	1210.1
878.938	1200.41
879.115	1149.45
879.291	1201.38
879.467	1169.22
879.644	1187.82
879.82	1218.62
879.996	1197.7
880.172	1138.22
880.349	1204.67
880.525	1202.54
880.701	1136.47
880.877	1165.15
881.053	1186.85
881.229	1168.25
881.405	1203.9
881.581	1143.25
881.757	1181.23
881.933	1165.34
882.109	1218.43
882.285	1182.78
882.461	1161.47
882.637	1197.7
882.813	1131.63
882.989	1151.97
883.165	1185.88
883.341	1130.47
883.517	1186.07
883.693	1174.64
883.869	1162.24
884.044	1115.94
884.22	1166.31
884.396	1206.03
884.572	1153.33
884.747	1204.67
884.923	1151.78
885.099	1192.66
885.275	1194.21
885.45	1156.04
885.626	1151
885.801	1141.32
885.977	1106.64
886.153	1095.79
886.328	1163.21
886.504	1140.54
886.679	1146.55
886.855	1123.88
887.03	1161.47
887.206	1190.72
887.381	1163.21
887.557	1151.59
887.732	1180.65
887.908	1142.67
888.083	1161.47
888.258	1138.02
888.434	1137.05
888.609	1123.3
888.784	1182.97
888.96	1126.59
889.135	1154.69
889.31	1115.16
889.485	1166.12
889.661	1149.07
889.836	1139.77
890.011	1140.15
890.186	1139.38
890.361	1112.25
890.537	1153.14
890.712	1158.37
890.887	1127.95
891.062	1129.5
891.237	1197.12
891.412	1099.85
891.587	1138.02
891.762	1133.76
891.937	1171.15
892.112	1108.19
892.287	1128.92
892.462	1049.87
892.637	1072.15
892.812	1077.19
892.987	1058.59
893.161	1043.86
893.336	1020.22
893.511	1051.42
893.686	1061.49
893.861	1053.16
894.035	1039.99
894.21	1032.62
894.385	988.26
894.56	1003.56
894.734	947.57
894.909	916.38
895.084	926.84
895.258	927.03
895.433	914.83
895.608	905.72
895.782	850.11
895.957	848.18
896.131	844.88
896.306	822.6
896.48	811.75
896.655	800.32
896.829	747.62
897.004	754.02
897.178	757.89
897.353	718.95
897.527	788.7
897.701	768.74
897.876	706.94
898.05	792.96
898.224	786.37
898.399	769.9
898.573	725.92
898.747	635.25
898.921	644.35
899.096	597.47
899.27	611.03
899.444	588.36
899.618	647.26
899.792	681.55
899.967	662.18
900.141	709.07
900.315	618.01
900.489	657.14
900.663	673.22
900.837	621.49
901.011	588.75
901.185	681.55
901.359	646.1
901.533	694.73
901.707	668.77
901.881	659.47
902.055	602.7
902.229	625.95
902.403	697.44
902.576	636.99
902.75	641.64
902.924	763.12
903.098	734.83
903.272	759.25
903.446	806.13
903.619	762.93
903.793	806.91
903.967	803.81
904.14	827.64
904.314	836.55
904.488	821.25
904.661	835
904.835	816.98
905.009	885.96
905.182	868.13
905.356	847.21
905.529	839.26
905.703	793.73
905.876	773.58
906.05	764.28
906.223	759.05
906.397	692.21
906.57	662.76
906.744	648.42
906.917	666.64
907.09	670.51
907.264	640.48
907.437	622.85
907.61	607.16
907.784	602.51
907.957	620.33
908.13	566.66
908.304	590.49
908.477	559.11
908.65	599.6
908.823	544.77
908.996	596.89
909.17	573.83
909.343	562.4
909.516	558.33
909.689	556.39
909.862	533.34
910.035	530.24
910.208	528.88
910.381	526.56
910.554	626.72
910.727	538.57
910.9	535.47
911.073	538.38
911.246	589.72
911.419	625.17
911.592	592.43
911.765	538.38
911.938	529.85
912.11	573.83
912.283	568.79
912.456	616.07
912.629	585.84
912.802	519.78
912.974	505.05
913.147	435.69
913.32	412.83
913.493	448.28
913.665	448.67
913.838	465.53
914.01	485.48
914.183	489.16
914.356	471.14
914.528	543.61
914.701	553.29
914.873	518.03
915.046	496.72
915.218	432.98
915.391	382.99
915.563	406.63
915.736	451.77
915.908	442.86
916.081	495.75
916.253	485.68
916.425	475.79
916.598	472.89
916.77	508.54
916.942	444.99
917.115	405.66
917.287	486.06
917.459	427.16
917.632	387.83
917.804	363.81
917.976	434.14
918.148	465.14
918.32	458.74
918.493	477.93
918.665	549.03
918.837	500.21
919.009	554.26
919.181	549.22
919.353	514.74
919.525	511.25
919.697	498.08
919.869	496.72
920.041	589.14
920.213	602.89
920.385	540.89
920.557	535.86
920.729	558.52
920.901	550.39
921.073	535.47
921.244	508.73
921.416	573.83
921.588	507.76
921.76	507.57
921.932	586.42
922.103	502.53
922.275	552.13
922.447	565.89
922.619	471.92
922.79	529.27
922.962	507.76
923.134	505.44
923.305	503.69
923.477	465.72
923.648	416.31
923.82	447.9
923.991	411.66
924.163	391.32
924.335	441.5
924.506	421.35
924.677	482.96
924.849	448.67
925.02	452.74
925.192	478.31
925.363	466.69
925.535	440.15
925.706	435.69
925.877	481.03
926.049	434.72
926.22	453.71
926.391	445.57
926.562	456.81
926.734	410.7
926.905	443.83
927.076	380.08
927.247	395.78
927.419	362.65
927.59	367.68
927.761	380.66
927.932	344.24
928.103	340.37
928.274	294.83
928.445	312.85
928.616	306.27
928.787	310.72
928.958	318.08
929.129	306.27
929.3	286.89
929.471	247.95
929.642	196.8
929.813	170.45
929.984	253.95
930.155	169.87
930.326	232.45
930.496	186.34
930.667	130.73
930.838	158.05
931.009	152.04
931.18	160.18
931.35	161.92
931.521	158.05
931.692	111.36
931.863	86.17
932.033	124.53
932.204	148.36
932.374	137.51
932.545	81.71
932.716	155.14
932.886	125.89
933.057	39.67
933.227	66.99
933.398	145.46
933.568	52.46
933.739	35.41
933.909	37.73
934.08	82.1
934.25	-1.02
934.421	25.91
934.591	76.68
934.761	42.77
934.932	-19.42
935.102	40.64
935.272	28.04
935.443	35.99
935.613	24.94
935.783	67.57
935.953	16.03
936.123	159.02
936.294	12.55
936.464	27.27
936.634	65.05
936.804	-26.98
936.974	-9.54
937.144	51.29
937.314	47.61
937.484	42.38
937.655	43.74
937.825	87.72
937.995	-2.76
938.165	90.82
938.334	34.44
938.504	58.08
938.674	60.01
938.844	70.86
939.014	113.1
939.184	115.42
939.354	157.86
939.524	132.86
939.694	91.59
939.863	90.63
940.033	122.4
940.203	130.92
940.373	128.79
940.542	103.41
940.712	100.31
940.882	122.59
941.051	137.32
941.221	135.57
941.391	154.37
941.56	77.64
941.73	78.03
941.899	169.48
942.069	77.64
942.238	108.45
942.408	97.41
942.577	116.59
942.747	83.26
942.916	41.03
943.086	60.21
943.255	92.18
943.425	87.72
943.594	74.93
943.763	23.2
943.933	15.26
944.102	18.75
944.271	75.13
944.441	105.74
944.61	44.13
944.779	62.92
944.948	133.25
945.117	48.39
945.287	76.29
945.456	55.17
945.625	24.75
945.794	59.24
945.963	42.38
946.132	98.76
946.301	59.82
946.47	97.21
946.639	-3.34
946.808	25.72
946.977	83.26
947.146	124.14
947.315	63.11
947.484	91.01
947.653	62.73
947.822	53.43
947.991	39.48
948.16	145.84
948.329	88.88
948.498	69.89
948.666	95.66
948.835	94.89
949.004	43.93
949.173	40.44
949.341	75.9
949.51	84.81
949.679	116.2
949.847	65.83
950.016	143.13
950.185	131.51
950.353	66.79
950.522	74.74
950.69	134.02
950.859	62.73
951.028	114.07
951.196	97.21
951.365	70.67
951.533	56.91
951.701	98.38
951.87	96.63
952.038	35.02
952.207	61.37
952.375	134.99
952.543	44.71
952.712	58.85
952.88	63.69
953.048	140.22
953.217	66.41
953.385	78.81
953.553	97.99
953.721	35.79
953.89	70.67
954.058	72.22
954.226	43.16
954.394	85.78
954.562	44.32
954.73	71.06
954.898	48
955.067	100.12
955.235	59.04
955.403	100.31
955.571	122.4
955.739	84.62
955.907	52.07
956.075	71.64
956.243	72.41
956.41	80.36
956.578	28.63
956.746	39.67
956.914	51.68
957.082	82.49
957.25	109.22
957.418	38.31
957.585	76.29
957.753	127.63
957.921	40.64
958.089	73.96
958.256	89.85
958.424	77.45
958.592	97.41
958.759	50.33
958.927	95.28
959.095	87.53
959.262	82.68
959.43	88.3
959.597	47.42
959.765	68.15
959.932	38.89
960.1	125.11
960.267	87.91
960.435	77.26
960.602	112.32
960.77	63.5
960.937	48.97
961.104	93.53
961.272	44.51
961.439	56.33
961.606	79.78
961.774	105.35
961.941	62.53
962.108	105.35
962.275	78.81
962.443	126.27
962.61	106.13
962.777	155.53
962.944	112.91
963.111	115.81
963.278	86.17
963.446	107.48
963.613	89.66
963.78	86.56
963.947	114.26
964.114	106.9
964.281	186.72
964.448	113.49
964.615	92.95
964.782	109.03
964.949	118.14
965.116	102.25
965.282	149.33
965.449	77.45
965.616	55.75
965.783	109.22
965.95	112.91
966.117	68.34
966.283	92.18
966.45	94.5
966.617	90.04
966.784	148.75
966.95	128.6
967.117	133.64
967.284	77.26
967.45	53.81
967.617	158.63
967.784	145.07
967.95	172.19
968.117	108.06
968.283	153.79
968.45	222.57
968.616	137.12
968.783	181.69
968.949	119.3
969.116	145.65
969.282	125.11
969.449	116.01
969.615	136.93
969.781	133.83
969.948	107.68
970.114	105.54
970.28	137.9
970.447	122.4
970.613	161.15
970.779	126.08
970.945	157.47
971.112	121.62
971.278	134.61
971.444	126.27
971.61	188.47
971.776	132.67
971.942	162.12
972.108	137.12
972.275	142.16
972.441	139.45
972.607	192.34
972.773	87.53
972.939	144.1
973.105	138.48
973.271	83.84
973.437	100.12
973.602	87.33
973.768	140.22
973.934	89.27
974.1	125.89
974.266	36.57
974.432	138.87
974.598	102.44
974.763	115.04
974.929	97.6
975.095	184.59
975.261	82.68
975.426	73.58
975.592	96.63
975.758	162.12
975.923	61.37
976.089	66.41
976.255	143.91
976.42	106.13
976.586	140.22
976.751	124.34
976.917	167.54
977.082	136.16
977.248	92.95
977.413	42.38
977.579	74.35
977.744	108.64
977.91	45.09
978.075	85.98
978.24	113.68
978.406	83.46
978.571	119.49
978.736	105.35
978.902	110.97
979.067	52.26
979.232	62.73
979.397	99.54
979.563	133.83
979.728	98.76
979.893	96.05
980.058	75.71
980.223	127.24
980.388	127.24
980.554	116.01
980.719	75.71
980.884	133.64
981.049	163.09
981.214	81.91
981.379	111.74
981.544	64.66
981.709	91.4
981.874	80.16
982.039	115.04
982.204	117.56
982.368	121.04
982.533	105.35
982.698	121.04
982.863	145.26
983.028	106.32
983.193	114.07
983.357	104.58
983.522	120.46
983.687	73.96
983.852	74.54
984.016	88.88
984.181	122.01
984.346	128.6
984.51	105.93
984.675	113.29
984.839	127.05
985.004	110.97
985.168	130.92
985.333	104.77
985.498	121.82
985.662	117.36
985.827	116.39
985.991	88.11
986.155	93.73
986.32	137.51
986.484	164.44
986.649	128.41
986.813	74.74
986.977	137.9
987.142	134.61
987.306	59.43
987.47	93.14
987.634	72.61
987.799	89.85
987.963	114.46
988.127	134.02
988.291	150.11
988.455	119.3
988.62	114.26
988.784	103.22
988.948	112.13
989.112	92.95
989.276	109.61
989.44	87.53
989.604	70.48
989.768	95.66
989.932	168.71
990.096	79
990.26	66.79
990.424	65.05
990.588	119.88
990.752	169.67
990.915	143.13
991.079	96.24
991.243	92.56
991.407	108.64
991.571	112.71
991.734	102.06
991.898	108.64
992.062	164.83
992.226	89.85
992.389	80.55
992.553	40.06
992.717	79.39
992.88	68.73
993.044	107.09
993.207	96.83
993.371	130.15
993.535	95.47
993.698	92.56
993.862	105.54
994.025	129.18
994.189	98.57
994.352	110.19
994.515	99.73
994.679	135.96
994.842	96.83
995.006	132.86
995.169	79.19
995.332	59.82
995.496	125.5
995.659	33.08
995.822	87.72
995.985	87.33
996.149	146.04
996.312	101.86
996.475	141.97
996.638	80.94
996.801	123.17
996.964	147.39
997.128	95.66
997.291	91.01
997.454	106.71
997.617	76.29
997.78	117.17
997.943	58.46
998.106	120.46
998.269	69.12
998.432	94.69
998.595	57.88
998.758	64.86
998.92	45.48
999.083	53.81
999.246	86.75
999.409	22.04
999.572	29.59
999.735	60.59
999.897	81.52
1000.06	53.43
1000.223	44.51
1000.386	121.24
1000.548	90.24
1000.711	76.68
1000.874	87.14
1001.036	11.58
1001.199	105.74
1001.361	54.78
1001.524	67.96
1001.687	87.91
1001.849	51.88
1002.012	67.96
1002.174	67.96
1002.337	97.21
1002.499	77.06
1002.661	102.44
1002.824	54.78
1002.986	64.47
1003.149	54.39
1003.311	38.51
1003.473	145.84
1003.636	42.38
1003.798	57.49
1003.96	86.56
1004.123	51.88
1004.285	55.75
1004.447	33.66
1004.609	47.23
1004.771	94.11
1004.933	21.07
1005.096	43.54
1005.258	-3.92
1005.42	44.32
1005.582	103.8
1005.744	53.62
1005.906	29.79
1006.068	67.18
1006.23	59.24
1006.392	30.37
1006.554	51.68
1006.716	94.11
1006.878	95.28
1007.04	-3.92
1007.202	51.49
1007.363	54.59
1007.525	74.74
1007.687	76.09
1007.849	109.03
1008.011	30.76
1008.172	32.5
1008.334	59.24
1008.496	60.59
1008.658	5.57
1008.819	33.28
1008.981	14.68
1009.143	27.66
1009.304	57.11
1009.466	78.81
1009.627	79.19
1009.789	128.02
1009.95	81.52
1010.112	15.06
1010.273	78.61
1010.435	54.39
1010.596	53.62
1010.758	52.26
1010.919	17.39
1011.081	29.01
1011.242	70.28
1011.403	58.66
1011.565	35.41
1011.726	49.36
1011.887	34.24
1012.049	44.13
1012.21	62.92
1012.371	92.56
1012.532	0.92
1012.693	65.05
1012.855	39.28
1013.016	39.28
1013.177	49.94
1013.338	42.19
1013.499	106.13
1013.66	68.73
1013.821	91.21
1013.982	88.69
1014.143	36.96
1014.304	47.23
1014.465	60.21
1014.626	72.61
1014.787	28.04
1014.948	107.48
1015.109	-33.57
1015.27	59.63
1015.431	20.49
1015.592	24.17
1015.752	64.28
1015.913	46.64
1016.074	56.72
1016.235	41.22
1016.395	31.14
1016.556	42.96
1016.717	35.6
1016.877	81.91
1017.038	-0.24
1017.199	86.94
1017.359	36.18
1017.52	50.71
1017.681	5.76
1017.841	24.17
1018.002	29.21
1018.162	12.35
1018.323	91.21
1018.483	39.86
1018.644	28.63
1018.804	-9.93
1018.964	4.8
1019.125	30.56
1019.285	27.08
1019.446	-16.9
1019.606	14.29
1019.766	1.31
1019.926	49.16
1020.087	47.81
1020.247	-2.95
1020.407	66.21
1020.567	45.48
1020.728	29.98
1020.888	14.68
1021.048	63.31
1021.208	33.86
1021.368	10.41
1021.528	65.63
1021.688	54.2
1021.848	49.94
1022.008	19.91
1022.168	28.24
1022.328	41.03
1022.488	50.52
1022.648	22.81
1022.808	50.13
1022.968	51.49
1023.128	22.43
1023.288	9.06
1023.448	26.88
1023.608	23.01
1023.767	41.03
1023.927	8.48
1024.087	-9.74
1024.247	-0.05
1024.406	-10.12
1024.566	9.64
1024.726	-17.1
1024.885	13.9
1025.045	53.43
1025.205	18.75
1025.364	-1.6
1025.524	43.35
1025.683	17.39
1025.843	18.94
1026.003	35.21
1026.162	60.01
1026.321	62.92
1026.481	40.44
1026.64	34.05
1026.8	43.35
1026.959	8.67
1027.119	23.39
1027.278	20.3
1027.437	-6.05
1027.597	19.13
1027.756	8.09
1027.915	22.43
1028.074	26.3
1028.234	17.39
1028.393	50.33
1028.552	17.39
1028.711	-42.87
1028.87	61.18
1029.03	-7.8
1029.189	20.3
1029.348	-18.65
1029.507	-2.76
1029.666	5.38
1029.825	-18.84
1029.984	10.22
1030.143	30.18
1030.302	-3.73
1030.461	-5.09
1030.62	30.76
1030.779	44.32
1030.938	-28.72
1031.097	-7.02
1031.255	78.42
1031.414	40.44
1031.573	47.42
1031.732	-36.47
1031.891	27.46
1032.049	45.29
1032.208	24.56
1032.367	6.93
1032.525	-11.29
1032.684	22.04
1032.843	22.43
1033.001	-22.52
1033.16	132.67
1033.319	41.99
1033.477	29.21
1033.636	22.81
1033.794	-29.11
1033.953	50.52
1034.111	34.24
1034.27	4.99
1034.428	43.74
1034.587	-42.48
1034.745	35.99
1034.903	18.75
1035.062	35.79
1035.22	-9.93
1035.378	43.93
1035.537	-10.7
1035.695	51.68
1035.853	21.26
1036.011	46.06
1036.17	44.32
1036.328	-22.14
1036.486	25.53
1036.644	16.42
1036.802	-35.89
1036.96	-23.1
1037.119	-4.12
1037.277	15.65
1037.435	-20.97
1037.593	-20.78
1037.751	17.39
1037.909	30.76
1038.067	30.76
