Data from gum_young_FLMT105791__45__17-38-44-044.txt Node

Date: Mon Mar 20 17:38:44 GMT 2023
User: antho
Spectrometer: FLMT10579
Trigger mode: 0
Integration Time (sec): 1.000000E-1
Scans to average: 10
Electric dark correction enabled: true
Nonlinearity correction enabled: false
Boxcar width: 0
XAxis mode: Wavelengths
Number of Pixels in Spectrum: 3648
>>>>>Begin Spectral Data<<<<<
345.248	-141.6
345.464	-141.6
345.681	-141.6
345.898	-127.26
346.114	-129.2
346.331	-28.84
346.548	13.59
346.764	0.61
346.981	-25.74
347.197	3.33
347.414	6.62
347.631	-10.62
347.847	57.58
348.064	4.88
348.28	46.14
348.497	-51.31
348.713	-16.24
348.93	29.68
349.146	27.35
349.363	12.24
349.579	13.4
349.796	-5.78
350.012	-6.36
350.229	23.09
350.445	12.04
350.661	-16.63
350.878	3.71
351.094	1.19
351.311	40.91
351.527	20.57
351.743	-8.88
351.96	26.96
352.176	57.19
352.392	32.97
352.609	41.88
352.825	2.94
353.041	23.86
353.257	11.66
353.474	2.94
353.69	21.15
353.906	39.17
354.122	-8.69
354.339	58.54
354.555	31.61
354.771	18.24
354.987	42.66
355.203	60.09
355.42	-17.99
355.636	-2.29
355.852	-2.68
356.068	15.34
356.284	-19.54
356.5	52.34
356.716	13.98
356.932	35.49
357.148	19.02
357.364	-5.2
357.58	38.01
357.796	58.35
358.012	52.73
358.228	42.27
358.444	-60.8
358.66	51.57
358.876	13.59
359.092	-13.72
359.308	4.49
359.524	32.39
359.74	-13.53
359.956	-21.09
360.172	-6.36
360.388	38.78
360.604	-6.56
360.819	68.23
361.035	22.31
361.251	56.99
361.467	-23.8
361.683	34.52
361.898	33.36
362.114	47.89
362.33	36.65
362.546	52.15
362.762	2.55
362.977	-1.13
363.193	-31.55
363.409	70.56
363.624	-30.97
363.84	-26.12
364.056	6.81
364.271	25.8
364.487	18.44
364.703	-4.23
364.918	-12.76
365.134	-4.62
365.35	1
365.565	105.24
365.781	21.15
365.996	58.54
366.212	75.79
366.427	20.38
366.643	-2.29
366.858	18.24
367.074	4.1
367.289	73.07
367.505	115.89
367.72	-12.17
367.936	22.51
368.151	32.39
368.367	24.44
368.582	22.89
368.798	-5.59
369.013	69.98
369.228	47.31
369.444	35.88
369.659	66.88
369.874	23.09
370.09	63.39
370.305	-34.65
370.52	2.94
370.736	77.34
370.951	25.22
371.166	54.67
371.381	82.57
371.597	57.96
371.812	10.88
372.027	2.94
372.242	10.88
372.458	92.26
372.673	-0.55
372.888	11.46
373.103	58.74
373.318	94.19
373.533	63.97
373.749	17.66
373.964	-43.75
374.179	78.69
374.394	24.06
374.609	62.61
374.824	-3.46
375.039	64.74
375.254	21.34
375.469	48.47
375.684	45.56
375.899	69.59
376.114	42.08
376.329	50.6
376.544	50.02
376.759	57.19
376.974	0.61
377.189	41.11
377.404	15.53
377.619	45.18
377.834	-46.66
378.049	-10.62
378.264	-24.19
378.478	27.54
378.693	24.44
378.908	56.99
379.123	1
379.338	56.8
379.553	36.84
379.767	21.73
379.982	29.68
380.197	50.41
380.412	17.66
380.626	49.44
380.841	110.27
381.056	27.16
381.271	78.5
381.485	11.27
381.7	-14.31
381.915	42.66
382.129	14.18
382.344	55.06
382.559	36.65
382.773	42.85
382.988	-6.56
383.202	16.89
383.417	6.43
383.632	108.34
383.846	22.31
384.061	53.7
384.275	38.78
384.49	40.53
384.704	58.93
384.919	53.51
385.133	23.86
385.348	33.74
385.562	-12.56
385.777	67.26
385.991	29.87
386.206	33.55
386.42	9.33
386.634	65.33
386.849	44.4
387.063	53.51
387.277	-1.32
387.492	20.18
387.706	9.33
387.92	10.11
388.135	73.27
388.349	67.26
388.563	16.69
388.778	30.26
388.992	49.05
389.206	69.78
389.42	99.81
389.635	33.74
389.849	41.88
390.063	74.82
390.277	27.74
390.491	100.39
390.706	77.14
390.92	72.11
391.134	72.3
391.348	93.22
391.562	8.94
391.776	57.77
391.99	21.34
392.205	52.93
392.419	41.11
392.633	54.09
392.847	81.41
393.061	33.94
393.275	96.52
393.489	29.09
393.703	56.61
393.917	93.03
394.131	40.91
394.345	85.47
394.559	70.17
394.773	23.48
394.986	73.85
395.2	39.17
395.414	93.03
395.628	44.4
395.842	57.96
396.056	57.96
396.27	-8.49
396.484	56.03
396.697	78.89
396.911	76.95
397.125	53.89
397.339	69.59
397.553	52.93
397.766	88.96
397.98	76.17
398.194	102.72
398.408	59.9
398.621	86.83
398.835	97.87
399.049	73.85
399.262	117.83
399.476	117.06
399.69	100.78
399.903	187.19
400.117	88.96
400.331	116.67
400.544	52.54
400.758	211.02
400.971	84.7
401.185	126.36
401.398	67.84
401.612	152.12
401.826	133.14
402.039	118.22
402.253	81.41
402.466	124.61
402.68	90.32
402.893	128.1
403.106	106.98
403.32	98.65
403.533	116.47
403.747	104.66
403.96	109.31
404.174	127.32
404.387	102.14
404.6	115.51
404.814	159.49
405.027	91.09
405.24	125
405.454	83.34
405.667	144.76
405.88	69.98
406.094	134.3
406.307	130.62
406.52	131.59
406.733	86.44
406.947	81.6
407.16	184.09
407.373	157.74
407.586	129.65
407.799	107.56
408.012	146.31
408.226	138.37
408.439	173.24
408.652	92.06
408.865	129.84
409.078	136.24
409.291	170.53
409.504	110.86
409.717	157.16
409.93	120.74
410.143	142.44
410.357	68.04
410.57	84.89
410.783	133.14
410.996	151.74
411.209	130.62
411.421	193.59
411.634	144.37
411.847	111.82
412.06	144.18
412.273	128.68
412.486	166.85
412.699	238.54
412.912	149.41
413.125	172.27
413.338	153.09
413.55	183.32
413.763	161.42
413.976	195.14
414.189	138.76
414.402	142.24
414.615	204.44
414.827	129.65
415.04	177.5
415.253	179.25
415.466	218.97
415.678	192.62
415.891	178.28
416.104	166.65
416.316	140.69
416.529	167.24
416.742	183.51
416.954	221.49
417.167	172.08
417.38	162.59
417.592	202.11
417.805	162
418.017	125.77
418.23	171.89
418.442	156.97
418.655	174.6
418.868	194.17
419.08	220.32
419.293	194.94
419.505	214.12
419.718	172.47
419.93	210.05
420.142	165.69
420.355	218.19
420.567	226.91
420.78	197.27
420.992	191.45
421.205	241.64
421.417	153.67
421.629	197.46
421.842	145.54
422.054	155.42
422.266	207.34
422.479	212.38
422.691	164.72
422.903	226.72
423.115	200.75
423.328	173.63
423.54	211.41
423.752	180.8
423.964	177.31
424.177	203.27
424.389	183.51
424.601	313.52
424.813	221.68
425.025	227.88
425.238	252.1
425.45	182.74
425.662	177.5
425.874	481.69
426.086	215.67
426.298	227.69
426.51	222.45
426.722	229.24
426.934	212.96
427.146	230.01
427.358	168.98
427.57	263.14
427.782	222.07
427.994	189.52
428.206	199.01
428.418	177.31
428.63	243.57
428.842	247.25
429.054	206.57
429.266	225.75
429.478	183.12
429.69	204.82
429.902	161.04
430.114	218
430.325	206.18
430.537	172.27
430.749	186.8
430.961	123.84
431.173	212.77
431.384	224.78
431.596	118.22
431.808	200.56
432.02	236.21
432.231	277.67
432.443	278.45
432.655	253.84
432.867	202.5
433.078	247.83
433.29	321.46
433.502	284.65
433.713	271.47
433.925	268.18
434.136	276.12
434.348	202.89
434.56	171.3
434.771	330.57
434.983	200.95
435.194	251.9
435.406	229.24
435.617	312.55
435.829	324.95
436.04	301.89
436.252	304.8
436.463	349.75
436.675	347.03
436.886	302.86
437.098	303.44
437.309	352.85
437.521	307.7
437.732	330.95
437.943	297.05
438.155	288.72
438.366	260.43
438.578	341.61
438.789	291.04
439	304.99
439.211	265.85
439.423	293.95
439.634	315.07
439.845	315.45
440.057	320.3
440.268	348
440.479	285.03
440.69	321.46
440.902	297.63
441.113	315.07
441.324	310.61
441.535	342.58
441.746	379.58
441.957	300.34
442.168	355.56
442.38	360.4
442.591	385.2
442.802	338.7
443.013	329.4
443.224	370.48
443.435	345.29
443.646	349.55
443.857	327.27
444.068	324.17
444.279	343.74
444.49	432.09
444.701	356.14
444.912	470.84
445.123	371.83
445.334	403.03
445.545	384.43
445.756	348.97
445.967	346.45
446.178	392.56
446.388	400.51
446.599	379.97
446.81	375.32
447.021	359.43
447.232	404.96
447.443	443.13
447.653	350.71
447.864	430.15
448.075	396.44
448.286	436.35
448.496	411.36
448.707	451.27
448.918	406.13
449.129	490.41
449.339	380.75
449.55	405.35
449.761	406.71
449.971	461.15
450.182	428.6
450.393	444.88
450.603	418.53
450.814	466.19
451.024	506.1
451.235	486.14
451.446	506.68
451.656	498.74
451.867	425.31
452.077	468.13
452.288	499.32
452.498	504.16
452.709	437.71
452.919	432.09
453.13	425.69
453.34	478.01
453.55	353.04
453.761	474.71
453.971	440.61
454.182	462.7
454.392	469.68
454.602	524.89
454.813	504.94
455.023	487.31
455.233	440.23
455.444	482.46
455.654	412.33
455.864	478.01
456.075	436.93
456.285	457.66
456.495	490.99
456.705	473.36
456.916	542.72
457.126	526.83
457.336	490.02
457.546	458.63
457.756	466.77
457.967	536.71
458.177	490.21
458.387	494.28
458.597	480.72
458.807	477.81
459.017	482.46
459.227	484.21
459.437	458.05
459.647	531.87
459.857	523.73
460.068	481.69
460.278	552.41
460.488	543.49
460.698	563.64
460.908	516.95
461.117	491.57
461.327	506.88
461.537	529.54
461.747	514.04
461.957	548.72
462.167	620.8
462.377	566.16
462.587	550.08
462.797	559.38
463.007	537.49
463.216	557.83
463.426	614.21
463.636	576.04
463.846	522.76
464.056	499.9
464.265	602.78
464.475	547.17
464.685	552.21
464.895	558.02
465.104	545.24
465.314	547.76
465.524	540.39
465.733	515.01
465.943	632.62
466.153	629.9
466.362	609.95
466.572	571.59
466.782	583.02
466.991	569.84
467.201	656.64
467.41	527.22
467.62	607.24
467.829	570.81
468.039	594.26
468.249	593.09
468.458	580.69
468.668	599.87
468.877	622.74
469.086	642.11
469.296	649.86
469.505	592.71
469.715	676.6
469.924	656.64
470.134	648.12
470.343	647.92
470.552	623.51
470.762	605.69
470.971	596.77
471.18	622.15
471.39	643.27
471.599	578.37
471.808	675.24
472.018	650.64
472.227	701.98
472.436	705.47
472.645	687.06
472.855	688.8
473.064	737.24
473.273	692.29
473.482	713.22
473.691	731.82
473.901	704.88
474.11	669.43
474.319	783.93
474.528	702.75
474.737	759.91
474.946	756.42
475.155	740.73
475.364	763.2
475.573	742.86
475.783	761.27
475.992	767.66
476.201	762.82
476.41	738.98
476.619	743.63
476.828	745.96
477.037	714.57
477.245	755.65
477.454	791.3
477.663	768.82
477.872	800.4
478.081	832.76
478.29	784.32
478.499	889.14
478.708	842.45
478.917	907.74
479.125	839.54
479.334	858.14
479.543	832.37
479.752	869.96
479.961	846.51
480.169	919.56
480.378	855.62
480.587	977.49
480.796	899.6
481.004	912.39
481.213	957.92
481.422	942.23
481.63	932.73
481.839	964.89
482.048	1009.07
482.256	963.73
482.465	1004.22
482.674	981.56
482.882	974.58
483.091	1027.67
483.299	992.79
483.508	1019.34
483.716	984.27
483.925	1006.94
484.134	986.79
484.342	998.41
484.551	1029.99
484.759	1049.37
484.967	1037.35
485.176	1056.34
485.384	1068.94
485.593	1037.55
485.801	1034.45
486.01	991.63
486.218	930.99
486.426	892.43
486.635	905.03
486.843	902.89
487.051	932.93
487.26	955.59
487.468	976.52
487.676	1018.17
487.885	991.24
488.093	1029.02
488.301	1109.04
488.509	1084.82
488.717	1095.09
488.926	1121.25
489.134	1068.55
489.342	1077.46
489.55	1049.95
489.758	1100.52
489.967	1117.76
490.175	1230.13
490.383	1155.35
490.591	1233.62
490.799	1153.6
491.007	1188.67
491.215	1206.5
491.423	1212.31
491.631	1174.72
491.839	1205.72
492.047	1210.95
492.255	1134.23
492.463	1157.87
492.671	1155.35
492.879	1215.8
493.087	1197.58
493.295	1214.63
493.503	1230.52
493.711	1275.28
493.919	1284.77
494.127	1289.23
494.334	1306.47
494.542	1238.85
494.75	1295.04
494.958	1277.41
495.166	1350.45
495.374	1297.17
495.581	1316.35
495.789	1345.41
495.997	1406.06
496.205	1312.48
496.412	1318.68
496.62	1328.17
496.828	1349.09
497.035	1326.23
497.243	1400.63
497.451	1353.74
497.658	1409.16
497.866	1375.25
498.074	1419.81
498.281	1368.47
498.489	1426.4
498.696	1380.48
498.904	1356.84
499.112	1366.53
499.319	1441.12
499.527	1396.56
499.734	1454.3
499.942	1400.63
500.149	1423.88
500.357	1428.72
500.564	1373.7
500.771	1405.86
500.979	1364.01
501.186	1389.59
501.394	1434.34
501.601	1394.43
501.808	1411.67
502.016	1435.31
502.223	1413.22
502.43	1439.77
502.638	1413.81
502.845	1441.9
503.052	1522.5
503.26	1470.77
503.467	1524.05
503.674	1496.34
503.881	1505.64
504.089	1588.95
504.296	1523.47
504.503	1437.06
504.71	1505.25
504.917	1513.97
505.125	1554.47
505.332	1541.68
505.539	1593.41
505.746	1643.4
505.953	1640.88
506.16	1649.79
506.367	1709.66
506.574	1716.83
506.781	1728.45
506.988	1661.03
507.195	1655.6
507.402	1655.02
507.609	1724.19
507.816	1640.3
508.023	1677.11
508.23	1659.09
508.437	1615.11
508.644	1700.55
508.851	1723.22
509.058	1781.34
509.265	1758.87
509.472	1777.66
509.679	1882.87
509.885	1804.98
510.092	1789.48
510.299	1814.86
510.506	1796.46
510.713	1821.84
510.92	1815.44
511.126	1864.66
511.333	1874.73
511.54	1881.9
511.746	1935.57
511.953	1953.59
512.16	1971.99
512.367	1938.86
512.573	1944.87
512.78	1933.24
512.987	1906.12
513.193	1914.06
513.4	1862.91
513.606	1933.24
513.813	1988.85
514.02	1941.19
514.226	2000.28
514.433	2016.17
514.639	1972.19
514.846	2015.2
515.052	1943.7
515.259	2014.42
515.465	2062.86
515.672	2008.8
515.878	2127.96
516.085	2092.7
516.291	2121.56
516.497	2066.35
516.704	2040
516.91	1974.12
517.117	1918.32
517.323	1826.68
517.529	1905.15
517.736	1902.82
517.942	1968.31
518.148	2001.44
518.354	2020.43
518.561	2028.57
518.767	2073.13
518.973	2081.07
519.179	2137.84
519.386	2108.2
519.592	2146.75
519.798	2104.9
520.004	2273.85
520.21	2237.81
520.417	2298.65
520.623	2334.3
520.829	2333.14
521.035	2345.54
521.241	2357.94
521.447	2396.1
521.653	2519.52
521.859	2413.54
522.065	2455.2
522.271	2524.95
522.477	2521.65
522.683	2510.03
522.889	2498.4
523.095	2515.07
523.301	2474.96
523.507	2457.72
523.713	2516.81
523.919	2462.75
524.125	2634.03
524.331	2559.82
524.537	2717.34
524.742	2661.34
524.948	2746.98
525.154	2731.48
525.36	2834.55
525.566	2717.92
525.772	2798.9
525.977	2670.45
526.183	2763.64
526.389	2795.61
526.595	2663.48
526.8	2640.81
527.006	2551.68
527.212	2477.87
527.417	2514.29
527.623	2564.47
527.829	2600.7
528.034	2627.24
528.24	2726.25
528.446	2734.39
528.651	2865.94
528.857	2846.57
529.062	2917.48
529.268	2920.77
529.473	2929.1
529.679	2959.52
529.884	2997.69
530.09	3007.76
530.295	2938.02
530.501	2979.28
530.706	3005.44
530.912	2980.45
531.117	3033.34
531.323	3031.79
531.528	3109.48
531.733	3132.92
531.939	3068.02
532.144	3094.56
532.35	3029.85
532.555	3080.42
532.76	3042.45
532.966	3013.58
533.171	2950.42
533.376	2959.52
533.581	2954.87
533.787	2999.05
533.992	3081.78
534.197	3089.33
534.402	3065.69
534.607	3068.99
534.813	3204.42
535.018	3094.37
535.223	3116.65
535.428	3137.77
535.633	3206.74
535.838	3242.97
536.043	3224.37
536.249	3339.46
536.454	3253.63
536.659	3293.54
536.864	3246.85
537.069	3218.17
537.274	3230.38
537.479	3186.79
537.684	3200.16
537.889	3163.92
538.094	3321.83
538.299	3297.03
538.504	3314.08
538.708	3283.66
538.913	3341.4
539.118	3316.6
539.323	3312.72
539.528	3260.41
539.733	3279.79
539.938	3256.15
540.142	3293.35
540.347	3242.2
540.552	3231.93
540.757	3177.68
540.962	3162.18
541.166	3159.08
541.371	3127.5
541.576	3196.28
541.781	3150.75
541.985	3280.17
542.19	3248.2
542.395	3312.92
542.599	3372.98
542.804	3248.79
543.008	3380.34
543.213	3344.69
543.418	3282.69
543.622	3366.39
543.827	3306.91
544.031	3371.23
544.236	3351.47
544.44	3398.36
544.645	3450.28
544.849	3363.1
545.054	3434.98
545.258	3441.95
545.463	3448.54
545.667	3352.25
545.872	3458.23
546.076	3424.71
546.281	3379.57
546.485	3394.48
546.689	3446.02
546.894	3442.73
547.098	3397.78
547.302	3429.94
547.507	3433.62
547.711	3458.42
547.915	3468.69
548.119	3391
548.324	3381.12
548.528	3480.7
548.732	3419.09
548.936	3484.38
549.141	3505.31
549.345	3425.87
549.549	3467.53
549.753	3525.26
549.957	3519.06
550.161	3549.29
550.366	3536.69
550.57	3484.96
550.774	3454.35
550.978	3526.81
551.182	3484.38
551.386	3453.77
551.59	3466.36
551.794	3480.31
551.998	3498.53
552.202	3488.06
552.406	3471.6
552.61	3530.49
552.814	3485.74
553.018	3491.36
553.222	3496.2
553.426	3467.14
553.63	3539.6
553.833	3513.64
554.037	3431.49
554.241	3512.09
554.445	3532.24
554.649	3504.14
554.853	3487.68
555.056	3532.82
555.26	3564.21
555.464	3523.71
555.668	3534.56
555.871	3534.95
556.075	3532.43
556.279	3523.71
556.483	3508.21
556.686	3449.51
556.89	3457.84
557.094	3448.54
557.297	3378.6
557.501	3476.63
557.704	3367.55
557.908	3422.77
558.112	3366
558.315	3442.92
558.519	3377.43
558.722	3349.53
558.926	3380.15
559.129	3257.89
559.333	3298
559.536	3278.82
559.74	3235.61
559.943	3215.85
560.147	3218.75
560.35	3208.29
560.553	3264.09
560.757	3237.55
560.96	3337.91
561.164	3295.29
561.367	3385.18
561.57	3303.81
561.774	3263.9
561.977	3264.48
562.18	3223.99
562.384	3323.57
562.587	3223.4
562.79	3230.38
562.993	3216.24
563.197	3267.97
563.4	3301.49
563.603	3282.69
563.806	3334.81
564.009	3217.98
564.212	3245.49
564.416	3179.04
564.619	3196.86
564.822	3107.16
565.025	3213.72
565.228	3147.46
565.431	3173.03
565.634	3062.21
565.837	3092.63
566.04	3084.49
566.243	3045.74
566.446	2963.78
566.649	3105.41
566.852	3036.05
567.055	3032.95
567.258	3036.63
567.461	3123.63
567.664	3123.24
567.867	3012.22
568.07	3029.66
568.273	3040.9
568.475	3104.83
568.678	3001.18
568.881	2954.29
569.084	2965.33
569.287	2848.89
569.489	2864.2
569.692	2938.6
569.895	2908.18
570.098	2854.32
570.3	2869.23
570.503	2760.74
570.706	2801.81
570.909	2818.47
571.111	2723.73
571.314	2721.02
571.516	2741.36
571.719	2754.92
571.922	2719.08
572.124	2742.33
572.327	2762.48
572.529	2716.56
572.732	2686.73
572.935	2760.54
573.137	2792.9
573.34	2688.66
573.542	2765.19
573.745	2771.39
573.947	2751.82
574.15	2710.94
574.352	2733.81
574.554	2796
574.757	2655.53
574.959	2638.29
575.162	2689.44
575.364	2641.19
575.566	2725.47
575.769	2623.95
575.971	2642.36
576.173	2505.38
576.376	2595.47
576.578	2675.49
576.78	2653.01
576.982	2521.65
577.185	2602.64
577.387	2556.72
577.589	2576.1
577.791	2603.61
577.993	2599.73
578.196	2626.66
578.398	2564.47
578.6	2564.08
578.802	2507.12
579.004	2502.47
579.206	2516.42
579.408	2541.41
579.61	2523.01
579.812	2574.93
580.014	2543.93
580.216	2517.2
580.418	2559.43
580.62	2512.55
580.822	2543.74
581.024	2576.68
581.226	2611.74
581.428	2520.1
581.63	2627.24
581.832	2547.61
582.034	2641
582.236	2576.68
582.438	2611.36
582.64	2625.5
582.841	2643.91
583.043	2734.19
583.245	2607.68
583.447	2641.19
583.649	2612.91
583.85	2635.19
584.052	2622.98
584.254	2543.55
584.456	2627.05
584.657	2583.85
584.859	2611.36
585.061	2564.86
585.262	2554.2
585.464	2498.02
585.666	2585.01
585.867	2498.21
586.069	2580.16
586.27	2511.19
586.472	2563.31
586.674	2506.54
586.875	2482.9
587.077	2509.06
587.278	2525.14
587.48	2454.03
587.681	2554.4
587.883	2491.62
588.084	2403.27
588.285	2442.41
588.487	2408.31
588.688	2419.55
588.89	2309.5
589.091	2223.48
589.292	2220.76
589.494	2155.47
589.695	2154.7
589.896	2066.73
590.098	2077
590.299	2135.71
590.5	2156.83
590.702	2195.77
590.903	2208.36
591.104	2292.84
591.305	2300.2
591.507	2290.12
591.708	2313.76
591.909	2299.62
592.11	2322.67
592.311	2292.64
592.512	2254.09
592.714	2214.18
592.915	2227.35
593.116	2242.46
593.317	2287.41
593.518	2295.16
593.719	2297.49
593.92	2340.69
594.121	2332.56
594.322	2287.61
594.523	2303.49
594.724	2202.94
594.925	2225.99
595.126	2227.16
595.327	2289.93
595.528	2251.38
595.729	2276.76
595.929	2241.69
596.13	2247.5
596.331	2290.32
596.532	2263.39
596.733	2320.93
596.934	2321.71
597.135	2304.07
597.335	2295.36
597.536	2243.24
597.737	2305.24
597.938	2248.28
598.138	2323.45
598.339	2268.62
598.54	2320.16
598.74	2215.92
598.941	2280.82
599.142	2368.2
599.342	2310.27
599.543	2293.61
599.744	2282.57
599.944	2293.81
600.145	2288.19
600.345	2300.39
600.546	2326.94
600.746	2308.34
600.947	2372.66
601.147	2268.62
601.348	2338.56
601.548	2259.12
601.749	2290.12
601.949	2222.89
602.15	2223.09
602.35	2212.82
602.551	2274.62
602.751	2186.47
602.951	2250.41
603.152	2181.43
603.352	2325.58
603.552	2291.67
603.753	2306.21
603.953	2268.04
604.153	2260.29
604.354	2298.84
604.554	2263.39
604.754	2280.44
604.954	2222.51
605.155	2261.45
605.355	2281.79
605.555	2313.18
605.755	2351.35
605.955	2292.45
606.155	2274.04
606.356	2244.98
606.556	2295.55
606.756	2276.76
606.956	2243.82
607.156	2339.14
607.356	2229.29
607.556	2282.18
607.756	2254.48
607.956	2285.67
608.156	2243.24
608.356	2169.03
608.556	2257.57
608.756	2237.81
608.956	2192.09
609.156	2216.5
609.356	2181.63
609.556	2157.99
609.755	2246.14
609.955	2131.64
610.155	2198.68
610.355	2165.93
610.555	2131.64
610.755	2141.52
610.954	2084.36
611.154	2141.33
611.354	2176.98
611.554	2105.1
611.753	2158.18
611.953	2071.19
612.153	2132.61
612.352	2178.33
612.552	2085.72
612.752	2084.95
612.951	2128.35
613.151	2106.06
613.351	2071.77
613.55	2090.56
613.75	2108.39
613.949	2056.47
614.149	2077.2
614.348	2040.58
614.548	2009.19
614.747	1981.68
614.947	2024.3
615.146	1993.11
615.346	2066.73
615.545	2085.53
615.745	2041.16
615.944	2058.6
616.144	2003.18
616.343	2007.64
616.542	1989.82
616.742	1986.72
616.941	1936.54
617.14	1916.97
617.34	1975.48
617.539	1968.31
617.738	1971.22
617.938	2043.1
618.137	2005.32
618.336	1949.71
618.535	2045.03
618.734	1995.63
618.934	1940.6
619.133	2019.07
619.332	2031.67
619.531	1966.76
619.73	1971.02
619.929	2014.23
620.128	2027.02
620.328	2036.32
620.527	1985.36
620.726	1993.89
620.925	1965.99
621.124	2008.22
621.323	1973.35
621.522	1915.8
621.721	1942.15
621.92	1901.08
622.119	1980.9
622.318	1893.14
622.517	1904.37
622.715	1921.42
622.914	1825.13
623.113	1887.13
623.312	1836.95
623.511	1887.13
623.71	1882.87
623.909	1825.32
624.107	1971.6
624.306	1851.48
624.505	1840.05
624.704	1829.97
624.902	1808.66
625.101	1883.84
625.3	1820.67
625.499	1825.91
625.697	1826.68
625.896	1838.89
626.095	1863.3
626.293	1761.78
626.492	1808.86
626.69	1840.44
626.889	1802.85
627.088	1874.54
627.286	1812.15
627.485	1750.15
627.683	1731.75
627.882	1767.39
628.08	1670.13
628.279	1702.68
628.477	1761.58
628.676	1692.22
628.874	1708.88
629.073	1719.54
629.271	1664.13
629.469	1733.68
629.668	1715.08
629.866	1709.08
630.065	1658.31
630.263	1732.13
630.461	1686.21
630.66	1713.73
630.858	1729.23
631.056	1751.51
631.254	1797.23
631.453	1697.45
631.651	1756.54
631.849	1716.63
632.047	1729.61
632.245	1718.76
632.444	1737.75
632.642	1763.52
632.84	1785.61
633.038	1737.17
633.236	1717.8
633.434	1756.35
633.632	1738.91
633.83	1708.11
634.028	1772.24
634.227	1782.12
634.425	1819.13
634.623	1785.22
634.821	1796.07
635.019	1756.16
635.216	1771.08
635.414	1820.29
635.612	1791.61
635.81	1770.88
636.008	1855.74
636.206	1764.29
636.404	1770.88
636.602	1770.69
636.8	1742.4
636.997	1759.84
637.195	1814.48
637.393	1745.89
637.591	1821.64
637.789	1776.89
637.986	1761
638.184	1748.02
638.382	1803.82
638.58	1779.6
638.777	1844.31
638.975	1755.58
639.173	1787.54
639.37	1750.93
639.568	1749.76
639.765	1711.4
639.963	1730.39
640.161	1745.89
640.358	1754.03
640.556	1688.93
640.753	1678.27
640.951	1623.44
641.148	1675.75
641.346	1714.89
641.543	1675.17
641.741	1676.72
641.938	1635.45
642.136	1667.03
642.333	1604.65
642.531	1694.55
642.728	1708.3
642.925	1649.21
643.123	1632.74
643.32	1653.66
643.517	1623.44
643.715	1651.53
643.912	1623.25
644.109	1612.98
644.306	1591.86
644.504	1597.28
644.701	1630.22
644.898	1643.4
645.095	1583.53
645.293	1555.05
645.49	1629.45
645.687	1591.28
645.884	1597.48
646.081	1484.33
646.278	1489.17
646.475	1492.27
646.672	1497.31
646.87	1507.58
647.067	1503.7
647.264	1480.65
647.461	1441.71
647.658	1403.15
647.855	1479.68
648.052	1419.62
648.249	1368.47
648.446	1433.76
648.642	1395.4
648.839	1388.42
649.036	1378.16
649.233	1366.34
649.43	1384.36
649.627	1367.11
649.824	1384.55
650.021	1358.59
650.217	1385.91
650.414	1409.54
650.611	1425.04
650.808	1466.12
651.004	1444.03
651.201	1440.54
651.398	1466.89
651.595	1394.24
651.791	1381.06
651.988	1402.96
652.185	1359.17
652.381	1427.17
652.578	1332.04
652.775	1368.86
652.971	1376.22
653.168	1343.67
653.364	1428.14
653.561	1334.18
653.757	1376.61
653.954	1388.23
654.15	1336.89
654.347	1437.06
654.543	1321.19
654.74	1320.42
654.936	1322.74
655.133	1300.08
655.329	1336.89
655.525	1328.75
655.722	1319.45
655.918	1259.2
656.115	1257.26
656.311	1171.43
656.507	1131.71
656.704	1109.43
656.9	1115.24
657.096	1146.63
657.292	1137.13
657.489	1206.69
657.685	1251.25
657.881	1217.73
658.077	1252.8
658.273	1221.41
658.47	1310.54
658.666	1266.75
658.862	1302.79
659.058	1292.91
659.254	1328.36
659.45	1270.05
659.646	1299.49
659.842	1252.22
660.038	1300.46
660.234	1241.76
660.43	1273.15
660.626	1348.51
660.822	1286.13
661.018	1323.91
661.214	1272.95
661.41	1235.17
661.606	1255.71
661.802	1293.49
661.998	1230.71
662.194	1219.09
662.39	1231.88
662.586	1295.04
662.781	1287.87
662.977	1310.54
663.173	1269.46
663.369	1260.75
663.564	1271.79
663.76	1266.17
663.956	1226.45
664.152	1258.03
664.347	1204.56
664.543	1260.94
664.739	1221.8
664.934	1186.93
665.13	1197.97
665.326	1202.43
665.521	1194.29
665.717	1183.63
665.912	1168.33
666.108	1109.82
666.304	1169.3
666.499	1170.07
666.695	1097.8
666.89	1161.74
667.086	1201.46
667.281	1179.57
667.477	1221.03
667.672	1149.73
667.867	1163.29
668.063	1175.88
668.258	1117.37
668.454	1163.1
668.649	1209.4
668.844	1156.32
669.04	1167.75
669.235	1157.67
669.43	1133.65
669.626	1110.59
669.821	1150.12
670.016	1107.88
670.211	1096.25
670.407	1077.65
670.602	1123.38
670.797	1094.51
670.992	1150.5
671.187	1104.2
671.382	1111.75
671.578	1091.22
671.773	1105.94
671.968	1037.16
672.163	1062.54
672.358	1116.99
672.553	1066.61
672.748	1072.42
672.943	1128.22
673.138	1110.01
673.333	1130.35
673.528	1060.02
673.723	1114.66
673.918	1113.89
674.113	1041.42
674.308	1161.16
674.503	1105.55
674.698	1118.34
674.892	1078.82
675.087	1099.94
675.282	1066.8
675.477	1065.06
675.672	1092.96
675.867	1059.05
676.061	1057.7
676.256	1004.61
676.451	1064.48
676.646	1099.16
676.84	1044.72
677.035	1030.96
677.23	1053.63
677.424	1082.69
677.619	1100.71
677.814	1084.63
678.008	1097.8
678.203	1010.42
678.397	1040.45
678.592	1077.65
678.787	1102.65
678.981	1008.1
679.176	1059.64
679.37	1034.84
679.565	1028.83
679.759	1052.27
679.954	1087.34
680.148	1105.17
680.342	1120.67
680.537	1053.63
680.731	1077.27
680.926	1063.32
681.12	1074.36
681.314	1062.35
681.509	1034.45
681.703	1066.42
681.897	1066.03
682.092	1052.47
682.286	1042.78
682.48	1093.93
682.674	1099.74
682.869	1040.07
683.063	1073.39
683.257	1137.13
683.451	1053.82
683.645	1069.52
683.839	1095.67
684.034	1067.58
684.228	1115.44
684.422	1027.67
684.616	1056.15
684.81	1110.98
685.004	1081.14
685.198	1104.78
685.392	1089.47
685.586	1088.7
685.78	1115.82
685.974	1147.6
686.168	1122.41
686.362	1146.43
686.556	1045.49
686.75	981.94
686.944	935.83
687.138	930.79
687.331	818.81
687.525	840.31
687.719	805.83
687.913	862.98
688.107	867.63
688.301	859.3
688.494	932.15
688.688	881.39
688.882	878.68
689.076	865.89
689.269	914.52
689.463	980.97
689.657	899.21
689.85	949.2
690.044	979.42
690.238	966.44
690.431	980.39
690.625	1035.03
690.818	1080.17
691.012	1085.99
691.205	1135.97
691.399	1099.74
691.593	1127.25
691.786	1204.17
691.98	1224.71
692.173	1247.76
692.366	1257.65
692.56	1280.31
692.753	1321.97
692.947	1270.43
693.14	1331.08
693.333	1320.23
693.527	1294.46
693.72	1345.03
693.914	1353.16
694.107	1312.28
694.3	1369.44
694.493	1340.96
694.687	1438.99
694.88	1370.79
695.073	1457.98
695.266	1460.69
695.46	1440.16
695.653	1523.08
695.846	1545.55
696.039	1466.7
696.232	1507.97
696.425	1615.5
696.618	1636.03
696.812	1635.45
697.005	1763.33
697.198	1796.07
697.391	1729.42
697.584	1798.59
697.777	1870.86
697.97	1856.91
698.163	1855.36
698.356	1861.94
698.549	1939.83
698.742	1865.24
698.935	1855.74
699.127	1903.21
699.32	1852.64
699.513	1891.78
699.706	1918.52
699.899	1924.33
700.092	1935.57
700.285	1965.99
700.477	1913.09
700.67	1964.82
700.863	1982.45
701.056	2059.57
701.248	2019.07
701.441	2088.63
701.634	2011.32
701.826	2140.16
702.019	2053.37
702.212	2122.34
702.404	2025.66
702.597	2080.1
702.79	2123.5
702.982	2148.11
703.175	2197.51
703.367	2177.94
703.56	2217.08
703.752	2317.64
703.945	2290.71
704.137	2288.19
704.33	2338.56
704.522	2387.97
704.715	2402.11
704.907	2438.34
705.1	2462.75
705.292	2470.31
705.484	2423.81
705.677	2484.65
705.869	2515.07
706.061	2513.13
706.254	2592.76
706.446	2540.25
706.638	2542.58
706.831	2638.48
707.023	2590.05
707.215	2690.79
707.407	2705.91
707.599	2696.02
707.792	2693.89
707.984	2732.26
708.176	2732.26
708.368	2728.57
708.56	2784.95
708.752	2777.98
708.944	2757.06
709.136	2818.09
709.329	2769.84
709.521	2903.92
709.713	2897.52
709.905	2918.45
710.097	2963.78
710.289	2886.67
710.481	2908.57
710.672	2945.38
710.864	2975.21
711.056	3042.64
711.248	3012.22
711.44	2991.68
711.632	2982.58
711.824	3085.07
712.016	3046.51
712.207	3105.41
712.399	3083.52
712.591	3168.38
712.783	3139.51
712.975	3161.99
713.166	3100.57
713.358	3157.92
713.55	3198.8
713.741	3187.17
713.933	3209.65
714.125	3198.22
714.316	3156.37
714.508	3197.25
714.7	3218.75
714.891	3210.62
715.083	3245.88
715.274	3175.94
715.466	3242.78
715.657	3226.12
715.849	3175.94
716.04	3198.8
716.232	3135.83
716.423	3132.54
716.615	3067.44
716.806	2940.15
716.998	2877.18
717.189	2780.5
717.381	2686.92
717.572	2631.7
717.763	2641.58
717.955	2624.73
718.146	2536.38
718.337	2504.22
718.528	2460.43
718.72	2328.87
718.911	2392.81
719.102	2337.79
719.293	2402.69
719.485	2313.57
719.676	2347.47
719.867	2264.55
720.058	2273.46
720.249	2276.76
720.44	2322.29
720.632	2436.6
720.823	2474.96
721.014	2627.24
721.205	2649.33
721.396	2762.29
721.587	2921.55
721.778	2937.43
721.969	2991.3
722.16	3075.77
722.351	3148.42
722.542	3211.78
722.733	3245.3
722.924	3161.02
723.115	3185.04
723.305	3156.76
723.496	3118.01
723.687	2962.23
723.878	2978.31
724.069	2985.48
724.26	2977.73
724.45	2896.75
724.641	2900.43
724.832	2946.93
725.023	2878.92
725.213	2884.15
725.404	2849.67
725.595	2873.11
725.785	2832.42
725.976	2915.73
726.167	2891.9
726.357	2907.02
726.548	3013.77
726.739	2972.5
726.929	3051.74
727.12	3033.92
727.31	3007.76
727.501	2951
727.691	2972.5
727.882	2962.81
728.072	3070.73
728.263	3049.61
728.453	3087.59
728.644	3131.96
728.834	3123.43
729.024	3043.99
729.215	3029.08
729.405	3086.04
729.596	3130.21
729.786	3136.8
729.976	3199.38
730.167	3190.08
730.357	3137.77
730.547	3178.46
730.737	3219.34
730.928	3263.51
731.118	3284.63
731.308	3225.92
731.498	3262.74
731.688	3378.6
731.879	3346.63
732.069	3458.42
732.259	3508.02
732.449	3521.97
732.639	3588.62
732.829	3627.76
733.019	3703.51
733.209	3762.8
733.399	3780.62
733.589	3840.68
733.779	3935.23
733.969	3900.55
734.159	4056.91
734.349	4047.99
734.539	4058.46
734.729	4066.79
734.919	4041.41
735.109	4122.39
735.299	4057.1
735.488	4064.46
735.678	4126.46
735.868	4079.77
736.058	4062.72
736.248	4056.71
736.437	4081.9
736.627	4039.47
736.817	4171.02
737.007	4100.5
737.196	4202.99
737.386	4146.42
737.576	4143.7
737.765	4194.66
737.955	4144.29
738.144	4336.29
738.334	4276.42
738.524	4157.85
738.713	4264.6
738.903	4239.8
739.092	4272.16
739.282	4253.17
739.471	4291.15
739.661	4266.15
739.85	4346.75
740.04	4374.26
740.229	4397.51
740.419	4374.46
740.608	4363.03
740.797	4402.36
740.987	4431.03
741.176	4447.31
741.365	4435.68
741.555	4357.99
741.744	4458.74
741.933	4403.71
742.123	4468.42
742.312	4457.38
742.501	4459.71
742.69	4537.98
742.88	4433.36
743.069	4553.67
743.258	4489.16
743.447	4561.81
743.636	4547.86
743.825	4494.77
744.014	4589.71
744.204	4612.96
744.393	4501.94
744.582	4599.79
744.771	4597.65
744.96	4519.57
745.149	4615.09
745.338	4568.79
745.527	4601.53
745.716	4621.87
745.905	4555.22
746.094	4645.9
746.283	4607.34
746.471	4568.4
746.66	4627.68
746.849	4645.9
747.038	4658.1
747.227	4563.75
747.416	4622.45
747.604	4635.82
747.793	4610.44
747.982	4618
748.171	4658.88
748.359	4644.54
748.548	4606.76
748.737	4602.69
748.926	4630.4
749.114	4451.76
749.303	4540.11
749.491	4573.05
749.68	4523.06
749.869	4592.81
750.057	4569.75
750.246	4539.34
750.434	4521.9
750.623	4532.17
750.811	4451.18
751	4544.37
751.188	4516.09
751.377	4477.92
751.565	4561.04
751.754	4471.14
751.942	4450.21
752.131	4556.39
752.319	4450.6
752.507	4427.54
752.696	4512.02
752.884	4527.13
753.072	4485.86
753.261	4490.32
753.449	4458.35
753.637	4403.13
753.825	4530.62
754.014	4460.87
754.202	4463
754.39	4527.13
754.578	4476.76
754.766	4441.49
754.955	4386.28
755.143	4466.68
755.331	4424.64
755.519	4419.79
755.707	4455.06
755.895	4390.34
756.083	4371.16
756.271	4341.13
756.459	4388.02
756.647	4438.2
756.835	4374.65
757.023	4340.94
757.211	4314.2
757.399	4328.35
757.587	4331.64
757.775	4251.43
757.963	4295.41
758.151	4301.41
758.339	4262.28
758.526	4238.45
758.714	4250.07
758.902	4110.38
759.09	3946.08
759.278	3738.58
759.465	3424.51
759.653	2938.6
759.841	2664.83
760.028	2269.78
760.216	2035.35
760.404	1841.02
760.591	1513.97
760.779	1267.14
760.967	1106.91
761.154	937.58
761.342	937.38
761.529	955.4
761.717	999.38
761.905	972.26
762.092	1060.99
762.28	978.07
762.467	992.41
762.655	893.98
762.842	905.41
763.029	938.16
763.217	945.33
763.404	946.29
763.592	964.89
763.779	914.52
763.966	979.23
764.154	1048.59
764.341	1080.37
764.528	1094.32
764.716	1168.13
764.903	1277.41
765.09	1347.93
765.277	1384.74
765.465	1614.72
765.652	1667.81
765.839	1779.6
766.026	1929.37
766.213	1994.27
766.4	2128.15
766.588	2346.31
766.775	2404.05
766.962	2556.14
767.149	2660.57
767.336	2809.95
767.523	2765.77
767.71	2950.03
767.897	3058.72
768.084	3196.86
768.271	3279.4
768.458	3331.32
768.645	3463.46
768.832	3415.99
769.019	3476.05
769.206	3472.56
769.392	3553.36
769.579	3686.46
769.766	3626.01
769.953	3634.34
770.14	3720.37
770.327	3680.26
770.513	3746.52
770.7	3830.03
770.887	3751.56
771.073	3796.51
771.26	3779.65
771.447	3743.03
771.634	3753.69
771.82	3886.6
772.007	3785.47
772.193	3837.58
772.38	3844.36
772.567	3796.12
772.753	3776.17
772.94	3875.56
773.126	3846.88
773.313	3818.98
773.499	3790.31
773.686	3883.89
773.872	3766.48
774.059	3844.75
774.245	3805.42
774.432	3849.4
774.618	3720.56
774.804	3799.03
774.991	3728.89
775.177	3784.69
775.363	3775.78
775.55	3793.22
775.736	3681.81
775.922	3790.89
776.109	3732.57
776.295	3713.2
776.481	3746.33
776.667	3747.3
776.853	3723.66
777.04	3688.01
777.226	3734.7
777.412	3775.2
777.598	3677.74
777.784	3699.64
777.97	3646.16
778.156	3716.69
778.342	3672.51
778.528	3678.9
778.715	3625.62
778.901	3634.54
779.087	3649.07
779.272	3589.2
779.458	3561.11
779.644	3603.73
779.83	3582.22
780.016	3674.64
780.202	3599.66
780.388	3628.53
780.574	3514.61
780.76	3576.22
780.946	3586.29
781.131	3602.76
781.317	3550.84
781.503	3484.77
781.689	3554.33
781.874	3589.97
782.06	3480.51
782.246	3572.92
782.432	3527.78
782.617	3526.43
782.803	3541.34
782.989	3470.43
783.174	3481.28
783.36	3453.77
783.545	3445.44
783.731	3434.78
783.916	3336.36
784.102	3413.86
784.288	3397
784.473	3400.49
784.659	3368.52
784.844	3406.69
785.029	3386.35
785.215	3378.4
785.4	3336.55
785.586	3433.62
785.771	3313.11
785.956	3381.31
786.142	3302.26
786.327	3358.06
786.512	3287.34
786.698	3304
786.883	3231.54
787.068	3246.85
787.254	3299.35
787.439	3217.01
787.624	3255.18
787.809	3217.01
787.994	3232.51
788.18	3252.47
788.365	3194.34
788.55	3167.99
788.735	3193.76
788.92	3142.61
789.105	3141.26
789.29	3150.17
789.475	3065.5
789.66	3129.05
789.845	3088.94
790.03	3128.47
790.215	3058.53
790.4	3146.1
790.585	3111.03
790.77	3086.62
790.955	3030.82
791.14	3076.54
791.325	3134.09
791.51	2971.15
791.695	3037.02
791.879	3076.93
792.064	2957
792.249	3081
792.434	3064.53
792.618	3023.07
792.803	3076.16
792.988	2998.27
793.173	2990.33
793.357	3072.28
793.542	2993.04
793.727	3067.63
793.911	3089.14
794.096	3056.39
794.281	3101.93
794.465	3143.19
794.65	3046.9
794.834	3098.63
795.019	3154.43
795.203	3158.11
795.388	3124.98
795.572	3147.65
795.757	3124.79
795.941	3088.17
796.126	3063.37
796.31	2994.01
796.494	3045.35
796.679	3063.37
796.863	3015.32
797.048	3110.84
797.232	3077.71
797.416	3096.11
797.601	3075.38
797.785	3146.68
797.969	3130.41
798.153	3074.61
798.338	3116.46
798.522	3140.87
798.706	3167.99
798.89	3183.88
799.074	3237.94
799.258	3215.85
799.443	3129.44
799.627	3142.03
799.811	3198.8
799.995	3086.43
800.179	3126.14
800.363	3094.37
800.547	3205.58
800.731	3136.02
800.915	3041.48
801.099	3046.13
801.283	3087.98
801.467	3123.43
801.651	3132.73
801.835	3164.7
802.019	3155.59
802.202	3107.35
802.386	3050
802.57	3042.64
802.754	3068.99
802.938	3012.41
803.121	3072.28
803.305	3102.12
803.489	3049.42
803.673	3090.88
803.856	3063.56
804.04	3029.46
804.224	3078.29
804.407	3040.9
804.591	3036.25
804.775	3038.18
804.958	3050.97
805.142	3143.97
805.326	3081.39
805.509	3140.48
805.693	3120.33
805.876	3170.51
806.06	3115.1
806.243	3179.23
806.427	3175.55
806.61	3168.77
806.794	3094.95
806.977	3163.15
807.16	3100.96
807.344	3128.08
807.527	3145.91
807.71	3125.18
807.894	3115.68
808.077	3133.89
808.26	3112.19
808.444	3060.66
808.627	3130.41
808.81	3080.42
808.993	3006.99
809.177	3020.55
809.36	3033.53
809.543	3000.79
809.726	2931.04
809.909	2934.53
810.092	2923.87
810.276	2893.45
810.459	2920.97
810.642	2895.58
810.825	2837.85
811.008	2867.49
811.191	2749.69
811.374	2789.41
811.557	2790.96
811.74	2822.74
811.923	2735.36
812.106	2738.84
812.289	2637.9
812.472	2622.59
812.654	2653.98
812.837	2551.68
813.02	2546.45
813.203	2539.86
813.386	2398.24
813.569	2381.96
813.751	2307.56
813.934	2381.38
814.117	2281.79
814.3	2267.26
814.482	2199.06
814.665	2194.41
814.848	2110.52
815.03	2090.56
815.213	2062.86
815.396	2074.68
815.578	2021.78
815.761	1981.49
815.943	2017.52
816.126	1936.54
816.309	1900.69
816.491	1839.47
816.674	1791.81
816.856	1881.12
817.039	1855.16
817.221	1922.59
817.403	1856.52
817.586	1830.36
817.768	1825.71
817.951	1773.4
818.133	1750.93
818.315	1825.52
818.498	1887.71
818.68	1923.75
818.862	1925.3
819.045	1908.83
819.227	1911.35
819.409	1882.29
819.591	1944.67
819.774	1898.76
819.956	1853.61
820.138	1976.25
820.32	1950.49
820.502	2048.52
820.684	2135.32
820.866	2112.85
821.048	2182.21
821.231	2158.57
821.413	2181.82
821.595	2154.5
821.777	2190.93
821.959	2150.43
822.141	2214.18
822.323	2050.46
822.505	1981.29
822.686	1878.22
822.868	1824.94
823.05	1706.36
823.232	1676.33
823.414	1600.77
823.596	1690.86
823.778	1661.41
823.96	1726.32
824.141	1732.33
824.323	1746.66
824.505	1832.11
824.687	1902.44
824.868	1978.97
825.05	2069.25
825.232	2133.19
825.413	2188.21
825.595	2110.13
825.777	2026.05
825.958	2090.95
826.14	2075.45
826.321	2142.3
826.503	2099.67
826.685	2132.41
826.866	2144.81
827.048	2109.36
827.229	2089.79
827.411	1971.8
827.592	1982.07
827.773	1948.55
827.955	1894.11
828.136	1887.52
828.318	1892.56
828.499	1903.79
828.68	1885.97
828.862	1905.92
829.043	1883.64
829.224	1843.54
829.406	1844.12
829.587	1843.92
829.768	1855.16
829.949	1901.86
830.131	1885.39
830.312	1915.8
830.493	1925.3
830.674	1897.21
830.855	1886.94
831.036	1882.48
831.218	1958.43
831.399	1954.75
831.58	1868.34
831.761	1925.3
831.942	1917.94
832.123	1897.59
832.304	1869.89
832.485	1866.21
832.666	1915.8
832.847	1910.96
833.028	1872.79
833.209	1876.09
833.389	1887.32
833.57	1856.71
833.751	1863.88
833.932	1891.78
834.113	1877.83
834.294	1885.77
834.475	1895.07
834.655	1967.92
834.836	1958.62
835.017	1953.97
835.198	1897.98
835.378	1953
835.559	1990.4
835.74	1926.07
835.92	1936.34
836.101	1922.2
836.281	1937.89
836.462	1984.97
836.643	1970.83
836.823	2018.49
837.004	1991.37
837.184	2033.41
837.365	2003.38
837.545	2009.38
837.726	1995.05
837.906	2056.27
838.087	1981.1
838.267	1969.09
838.448	1962.11
838.628	2002.41
838.808	1975.09
838.989	2020.04
839.169	1971.8
839.349	2036.9
839.53	2049.49
839.71	2027.6
839.89	1954.55
840.07	2057.63
840.251	1998.53
840.431	2020.23
840.611	1978
840.791	1969.28
840.971	2010.16
841.151	1982.65
841.332	1926.27
841.512	1993.5
841.692	1940.22
841.872	1981.49
842.052	1971.6
842.232	2005.32
842.412	1908.83
842.592	1961.14
842.772	2000.47
842.952	1993.5
843.132	1920.45
843.312	1949.32
843.492	1961.14
843.672	2014.62
843.851	1887.71
844.031	1909.6
844.211	1949.9
844.391	1914.06
844.571	1934.99
844.751	1957.07
844.93	1913.48
845.11	1918.9
845.29	1930.53
845.47	1928.98
845.649	1934.99
845.829	1961.34
846.009	1897.4
846.188	1969.67
846.368	1962.5
846.547	1970.83
846.727	1933.44
846.907	1903.21
847.086	1887.52
847.266	1928.98
847.445	1918.32
847.625	1929.75
847.804	1889.84
847.984	1916.97
848.163	1897.98
848.343	1873.18
848.522	1906.31
848.701	1903.6
848.881	1903.99
849.06	1909.41
849.239	1892.75
849.419	1837.14
849.598	1800.91
849.777	1804.01
849.957	1765.65
850.136	1700.55
850.315	1724
850.494	1693.19
850.674	1718.76
850.853	1759.64
851.032	1746.47
851.211	1763.71
851.39	1753.83
851.569	1692.61
851.748	1694.16
851.927	1772.63
852.107	1737.56
852.286	1694.16
852.465	1707.91
852.644	1788.51
852.823	1766.04
853.002	1741.04
853.181	1749.96
853.359	1735.43
853.538	1704.62
853.717	1743.76
853.896	1617.63
854.075	1548.46
854.254	1540.52
854.433	1469.8
854.611	1515.52
854.79	1451.97
854.969	1549.43
855.148	1539.16
855.327	1492.66
855.505	1550.4
855.684	1546.33
855.863	1605.62
856.041	1540.32
856.22	1599.22
856.399	1581.01
856.577	1667.61
856.756	1654.05
856.934	1761.39
857.113	1772.24
857.291	1691.45
857.47	1631.77
857.648	1684.08
857.827	1690.67
858.005	1723.61
858.184	1666.06
858.362	1729.23
858.541	1685.25
858.719	1630.8
858.898	1649.4
859.076	1652.31
859.254	1661.22
859.433	1634.68
859.611	1642.04
859.789	1583.53
859.967	1689.9
860.146	1691.64
860.324	1624.99
860.502	1636.23
860.68	1559.5
860.859	1609.1
861.037	1572.87
861.215	1633.9
861.393	1641.27
861.571	1611.82
861.749	1581.78
861.927	1584.5
862.105	1624.22
862.283	1579.27
862.461	1585.66
862.639	1557.37
862.817	1567.06
862.995	1598.06
863.173	1533.93
863.351	1533.74
863.529	1547.49
863.707	1580.43
863.885	1632.74
864.063	1504.67
864.241	1525.99
864.418	1600.19
864.596	1524.44
864.774	1483.75
864.952	1556.4
865.129	1549.62
865.307	1505.45
865.485	1452.17
865.663	1539.74
865.84	1461.86
866.018	1438.02
866.196	1351.03
866.373	1356.26
866.551	1288.65
866.728	1279.73
866.906	1341.15
867.084	1355.29
867.261	1394.24
867.439	1371.18
867.616	1424.85
867.794	1398.31
867.971	1423.49
868.149	1429.69
868.326	1465.54
868.503	1458.56
868.681	1412.06
868.858	1411.29
869.035	1372.54
869.213	1448.1
869.39	1427.56
869.567	1472.7
869.745	1428.92
869.922	1432.79
870.099	1461.27
870.276	1422.33
870.454	1437.83
870.631	1448.1
870.808	1398.11
870.985	1453.91
871.162	1445.58
871.339	1414.19
871.517	1361.11
871.694	1345.22
871.871	1395.79
872.048	1383.58
872.225	1411.09
872.402	1383.97
872.579	1399.47
872.756	1372.54
872.933	1352
873.11	1383
873.287	1357.81
873.463	1354.13
873.64	1339.79
873.817	1357.62
873.994	1321.19
874.171	1320.23
874.348	1356.26
874.524	1294.26
874.701	1307.63
874.878	1252.61
875.055	1349.09
875.231	1301.82
875.408	1302.59
875.585	1260.94
875.762	1299.49
875.938	1298.91
876.115	1297.36
876.291	1252.22
876.468	1271.01
876.645	1248.73
876.821	1270.43
876.998	1246.02
877.174	1300.85
877.351	1270.82
877.527	1244.47
877.704	1243.31
877.88	1276.05
878.057	1265.4
878.233	1290.2
878.409	1236.72
878.586	1249.12
878.762	1279.35
878.938	1208.43
879.115	1175.3
879.291	1240.01
879.467	1201.85
879.644	1249.7
879.82	1232.85
879.996	1198.94
880.172	1167.55
880.349	1217.15
880.525	1187.12
880.701	1173.37
880.877	1184.02
881.053	1185.96
881.229	1184.22
881.405	1216.38
881.581	1183.63
881.757	1197.2
881.933	1204.75
882.109	1212.11
882.285	1207.27
882.461	1144.3
882.637	1169.1
882.813	1150.12
882.989	1181.7
883.165	1211.92
883.341	1155.15
883.517	1181.89
883.693	1201.07
883.869	1226.65
884.044	1157.87
884.22	1191.77
884.396	1216.57
884.572	1190.8
884.747	1217.73
884.923	1210.95
885.099	1199.33
885.275	1220.06
885.45	1149.34
885.626	1193.32
885.801	1166
885.977	1139.07
886.153	1100.9
886.328	1188.87
886.504	1160.97
886.679	1191.77
886.855	1155.73
887.03	1199.13
887.206	1203.98
887.381	1187.51
887.557	1193.13
887.732	1199.52
887.908	1191.97
888.083	1217.15
888.258	1174.14
888.434	1168.33
888.609	1188.48
888.784	1225.87
888.96	1166.39
889.135	1156.32
889.31	1143.92
889.485	1193.32
889.661	1202.62
889.836	1197.58
890.011	1180.53
890.186	1159.42
890.361	1155.73
890.537	1193.32
890.712	1135.97
890.887	1175.88
891.062	1176.27
891.237	1229.55
891.412	1132.87
891.587	1185.18
891.762	1192.55
891.937	1211.73
892.112	1119.31
892.287	1145.47
892.462	1098.97
892.637	1084.82
892.812	1067.19
892.987	1102.07
893.161	1060.8
893.336	1077.46
893.511	1070.87
893.686	1067.77
893.861	1062.15
894.035	1058.47
894.21	1055.18
894.385	974.97
894.56	1036.39
894.734	973.42
894.909	962.96
895.084	938.35
895.258	912.58
895.433	938.93
895.608	919.75
895.782	906.58
895.957	876.93
896.131	898.05
896.306	802.15
896.48	805.63
896.655	805.63
896.829	755.65
897.004	742.47
897.178	763.2
897.353	729.88
897.527	799.82
897.701	758.94
897.876	718.45
898.05	811.25
898.224	794.4
898.399	777.73
898.573	761.07
898.747	654.9
898.921	641.34
899.096	612.66
899.27	633.2
899.444	613.82
899.618	648.12
899.792	687.06
899.967	682.8
900.141	708.18
900.315	636.3
900.489	656.25
900.663	657.22
900.837	642.89
901.011	611.3
901.185	718.64
901.359	671.56
901.533	682.8
901.707	691.13
901.881	679.89
902.055	616.73
902.229	649.47
902.403	710.89
902.576	665.36
902.75	690.93
902.924	787.03
903.098	720
903.272	774.63
903.446	781.8
903.619	795.56
903.793	852.13
903.967	809.9
904.14	882.74
904.314	839.93
904.488	841.48
904.661	867.24
904.835	870.73
905.009	887.59
905.182	937.77
905.356	872.86
905.529	862.21
905.703	826.36
905.876	820.94
906.05	786.06
906.223	772.31
906.397	692.29
906.57	729.68
906.744	669.04
906.917	672.72
907.09	673.5
907.264	647.73
907.437	612.27
907.61	606.85
907.784	603.17
907.957	624.67
908.13	562.09
908.304	634.55
908.477	596.39
908.65	590.77
908.823	545.24
908.996	621.57
909.17	579.14
909.343	575.66
909.516	597.74
909.689	566.94
909.862	582.24
910.035	543.49
910.208	560.35
910.381	537.68
910.554	653.54
910.727	602.39
910.9	594.45
911.073	563.06
911.246	645.99
911.419	622.74
911.592	608.4
911.765	578.95
911.938	529.54
912.11	593.67
912.283	562.67
912.456	625.84
912.629	605.49
912.802	552.6
912.974	475.88
913.147	462.12
913.32	429.57
913.493	478.01
913.665	476.26
913.838	502.61
914.01	506.88
914.183	504.55
914.356	518.11
914.528	558.61
914.701	586.51
914.873	543.11
915.046	479.94
915.218	434.03
915.391	378.61
915.563	416.98
915.736	453.21
915.908	520.05
916.081	480.14
916.253	487.69
916.425	531.87
916.598	517.34
916.77	478.59
916.942	474.33
917.115	420.27
917.287	496.22
917.459	402.83
917.632	413.3
917.804	379.58
917.976	455.34
918.148	470.45
918.32	451.66
918.493	524.89
918.665	551.24
918.837	520.82
919.009	554.73
919.181	557.83
919.353	523.73
919.525	530.32
919.697	539.81
919.869	537.49
920.041	592.9
920.213	657.03
920.385	602.59
920.557	541.94
920.729	555.51
920.901	558.99
921.073	548.14
921.244	527.61
921.416	557.25
921.588	542.91
921.76	512.49
921.932	572.56
922.103	550.27
922.275	522.96
922.447	531.09
922.619	476.84
922.79	530.12
922.962	514.62
923.134	538.07
923.305	467.74
923.477	464.83
923.648	428.41
923.82	493.12
923.991	395.47
924.163	403.41
924.335	445.84
924.506	418.14
924.677	464.06
924.849	456.89
925.02	459.21
925.192	481.88
925.363	454.37
925.535	471.23
925.706	417.17
925.877	506.88
926.049	396.83
926.22	452.24
926.391	460.57
926.562	472.97
926.734	449.72
926.905	468.13
927.076	391.01
927.247	424.14
927.419	357.3
927.59	376.87
927.761	368.93
927.932	346.26
928.103	360.01
928.274	311.38
928.445	308.67
928.616	325.33
928.787	306.54
928.958	302.67
929.129	333.86
929.3	302.67
929.471	251.9
929.642	185.84
929.813	186.42
929.984	250.16
930.155	179.64
930.326	233.89
930.496	183.51
930.667	136.62
930.838	192.42
931.009	168.98
931.18	181.77
931.35	146.31
931.521	149.8
931.692	96.71
931.863	55.25
932.033	125.77
932.204	144.18
932.374	95.16
932.545	73.85
932.716	132.75
932.886	125.97
933.057	36.84
933.227	62.81
933.398	136.82
933.568	67.07
933.739	39.36
933.909	20.18
934.08	102.14
934.25	7.01
934.421	32.19
934.591	84.51
934.761	58.74
934.932	25.41
935.102	43.43
935.272	42.08
935.443	58.74
935.613	52.73
935.783	59.32
935.953	20.76
936.123	166.65
936.294	17.08
936.464	33.16
936.634	41.69
936.804	5.65
936.974	0.61
937.144	44.21
937.314	48.86
937.484	25.03
937.655	-14.69
937.825	70.36
937.995	11.08
938.165	56.61
938.334	32
938.504	79.27
938.674	20.76
938.844	69.39
939.014	101.94
939.184	107.37
939.354	130.62
939.524	145.92
939.694	84.89
939.863	95.74
940.033	150.77
940.203	140.69
940.373	104.07
940.542	140.11
940.712	80.63
940.882	121.12
941.051	139.72
941.221	114.34
941.391	132.56
941.56	90.9
941.73	82.96
941.899	182.15
942.069	90.71
942.238	110.47
942.408	67.65
942.577	141.27
942.747	85.47
942.916	46.73
943.086	69.78
943.255	104.46
943.425	82.96
943.594	86.44
943.763	7.2
943.933	45.76
944.102	-2.87
944.271	49.44
944.441	77.14
944.61	45.37
944.779	60.87
944.948	144.96
945.117	48.28
945.287	49.24
945.456	15.14
945.625	40.72
945.794	58.74
945.963	46.53
946.132	98.26
946.301	35.1
946.47	84.7
946.639	10.11
946.808	38.98
946.977	113.96
947.146	90.9
947.315	47.69
947.484	81.02
947.653	59.71
947.822	43.63
947.991	37.23
948.16	136.82
948.329	117.64
948.498	74.24
948.666	97.29
948.835	99.04
949.004	20.18
949.173	26.38
949.341	49.83
949.51	82.76
949.679	96.13
949.847	110.66
950.016	165.1
950.185	103.69
950.353	47.5
950.522	69.78
950.69	127.32
950.859	44.79
951.028	116.47
951.196	77.14
951.365	55.25
951.533	66.1
951.701	82.57
951.87	99.23
952.038	50.02
952.207	69.98
952.375	118.61
952.543	56.99
952.712	52.93
952.88	68.23
953.048	120.16
953.217	80.05
953.385	59.71
953.553	109.69
953.721	36.65
953.89	55.25
954.058	34.13
954.226	37.23
954.394	85.67
954.562	29.87
954.73	88.57
954.898	53.31
955.067	97.29
955.235	60.48
955.403	101.56
955.571	128.1
955.739	63.78
955.907	50.6
956.075	50.79
956.243	44.59
956.41	61.64
956.578	14.76
956.746	23.67
956.914	57.77
957.082	103.88
957.25	113.96
957.418	59.32
957.585	116.09
957.753	151.54
957.921	66.49
958.089	87.41
958.256	94.19
958.424	91.29
958.592	75.01
958.759	68.62
958.927	83.54
959.095	69.98
959.262	34.33
959.43	78.89
959.597	61.84
959.765	63.39
959.932	61.84
960.1	124.61
960.267	70.94
960.435	59.32
960.602	106.98
960.77	60.87
960.937	40.72
961.104	81.41
961.272	38.59
961.439	37.62
961.606	104.85
961.774	108.14
961.941	82.57
962.108	98.84
962.275	69.39
962.443	112.79
962.61	119.38
962.777	139.14
962.944	103.69
963.111	104.27
963.278	101.94
963.446	106.21
963.613	80.24
963.78	90.71
963.947	111.82
964.114	100.2
964.281	185.06
964.448	111.24
964.615	79.86
964.782	116.28
964.949	126.94
965.116	115.12
965.282	106.4
965.449	101.36
965.616	52.34
965.783	126.16
965.95	103.11
966.117	68.62
966.283	82.96
966.45	77.53
966.617	116.47
966.784	136.43
966.95	125.58
967.117	120.35
967.284	91.09
967.45	79.86
967.617	146.31
967.784	119.57
967.95	198.62
968.117	112.99
968.283	134.69
968.45	201.34
968.616	132.75
968.783	160.84
968.949	157.55
969.116	133.33
969.282	107.37
969.449	127.13
969.615	111.05
969.781	70.94
969.948	122.29
970.114	98.46
970.28	195.52
970.447	109.69
970.613	169.75
970.779	130.62
970.945	117.83
971.112	147.28
971.278	133.72
971.444	139.34
971.61	145.92
971.776	112.41
971.942	126.36
972.108	166.27
972.275	118.99
972.441	141.27
972.607	201.53
972.773	100.59
972.939	104.27
973.105	136.62
973.271	90.9
973.437	97.29
973.602	103.69
973.768	135.07
973.934	113.37
974.1	139.34
974.266	62.42
974.432	127.71
974.598	89.93
974.763	142.63
974.929	94.19
975.095	153.67
975.261	97.87
975.426	70.94
975.592	104.85
975.758	165.69
975.923	48.08
976.089	78.11
976.255	115.12
976.42	120.35
976.586	131.2
976.751	126.16
976.917	206.18
977.082	122.09
977.248	81.41
977.413	77.14
977.579	93.22
977.744	105.82
977.91	70.75
978.075	75.98
978.24	136.24
978.406	98.07
978.571	77.34
978.736	80.82
978.902	113.76
979.067	86.83
979.232	52.34
979.397	100.01
979.563	145.34
979.728	56.61
979.893	99.81
980.058	84.31
980.223	138.76
980.388	106.79
980.554	104.46
980.719	113.37
980.884	109.11
981.049	125.97
981.214	97.87
981.379	124.81
981.544	98.65
981.709	110.27
981.874	78.89
982.039	103.3
982.204	134.3
982.368	87.99
982.533	81.21
982.698	110.66
982.863	116.47
983.028	85.86
983.193	118.22
983.357	101.17
983.522	98.26
983.687	99.04
983.852	99.23
984.016	100.01
984.181	122.48
984.346	95.55
984.51	108.14
984.675	103.69
984.839	98.84
985.004	95.55
985.168	118.02
985.333	94.97
985.498	88.57
985.662	84.51
985.827	145.73
985.991	94
986.155	76.37
986.32	139.92
986.484	125.39
986.649	112.41
986.813	62.61
986.977	125.77
987.142	132.17
987.306	64.16
987.47	84.89
987.634	89.35
987.799	103.69
987.963	123.84
988.127	114.73
988.291	164.52
988.455	119.57
988.62	86.64
988.784	129.07
988.948	107.37
989.112	77.14
989.276	105.24
989.44	88.38
989.604	92.26
989.768	91.09
989.932	173.63
990.096	70.17
990.26	84.12
990.424	58.35
990.588	65.13
990.752	144.57
990.915	117.06
991.079	71.53
991.243	57.19
991.407	110.47
991.571	72.69
991.734	115.7
991.898	103.88
992.062	163.17
992.226	104.46
992.389	92.84
992.553	46.73
992.717	75.79
992.88	81.99
993.044	84.89
993.207	89.54
993.371	82.76
993.535	97.29
993.698	70.94
993.862	112.02
994.025	104.46
994.189	112.41
994.352	90.32
994.515	120.35
994.679	113.37
994.842	99.81
995.006	118.22
995.169	56.61
995.332	50.79
995.496	110.86
995.659	52.93
995.822	80.24
995.985	80.44
996.149	110.27
996.312	92.64
996.475	132.56
996.638	39.75
996.801	126.94
996.964	130.23
997.128	70.56
997.291	67.84
997.454	93.22
997.617	41.69
997.78	118.22
997.943	48.08
998.106	101.17
998.269	49.44
998.432	76.95
998.595	62.23
998.758	30.06
998.92	59.9
999.083	29.87
999.246	66.49
999.409	20.96
999.572	23.86
999.735	62.42
999.897	62.81
1000.06	70.75
1000.223	68.62
1000.386	107.95
1000.548	83.73
1000.711	83.54
1000.874	75.4
1001.036	35.49
1001.199	108.72
1001.361	57.77
1001.524	61.45
1001.687	80.44
1001.849	50.6
1002.012	56.03
1002.174	72.3
1002.337	79.86
1002.499	67.07
1002.661	127.71
1002.824	32.97
1002.986	50.21
1003.149	71.91
1003.311	56.8
1003.473	122.09
1003.636	55.83
1003.798	86.06
1003.96	72.3
1004.123	68.81
1004.285	41.69
1004.447	46.14
1004.609	71.14
1004.771	123.26
1004.933	2.55
1005.096	33.74
1005.258	23.67
1005.42	33.94
1005.582	80.63
1005.744	62.81
1005.906	21.54
1006.068	57.19
1006.23	-3.46
1006.392	3.13
1006.554	45.95
1006.716	63.19
1006.878	72.69
1007.04	20.76
1007.202	27.74
1007.363	72.69
1007.525	68.81
1007.687	79.27
1007.849	88.19
1008.011	3.33
1008.172	15.14
1008.334	42.08
1008.496	59.9
1008.658	-23.02
1008.819	43.43
1008.981	19.79
1009.143	37.23
1009.304	45.37
1009.466	75.59
1009.627	85.09
1009.789	158.52
1009.95	50.21
1010.112	15.14
1010.273	65.91
1010.435	47.89
1010.596	24.83
1010.758	30.45
1010.919	35.68
1011.081	31.81
1011.242	19.79
1011.403	52.34
1011.565	31.42
1011.726	44.01
1011.887	7.78
1012.049	59.71
1012.21	72.3
1012.371	69.59
1012.532	-7.52
1012.693	43.24
1012.855	13.21
1013.016	18.63
1013.177	68.43
1013.338	64.74
1013.499	81.21
1013.66	78.89
1013.821	51.57
1013.982	-2.68
1014.143	48.47
1014.304	20.38
1014.465	73.46
1014.626	49.63
1014.787	33.55
1014.948	108.14
1015.109	-17.4
1015.27	50.6
1015.431	32.58
1015.592	16.69
1015.752	81.02
1015.913	48.66
1016.074	47.89
1016.235	24.83
1016.395	50.99
1016.556	42.46
1016.717	47.31
1016.877	81.02
1017.038	6.43
1017.199	62.42
1017.359	31.42
1017.52	30.84
1017.681	32
1017.841	48.28
1018.002	23.48
1018.162	17.47
1018.323	89.54
1018.483	39.36
1018.644	17.47
1018.804	25.22
1018.964	4.68
1019.125	38.01
1019.285	32.78
1019.446	-11.4
1019.606	-16.05
1019.766	-9.66
1019.926	68.23
1020.087	33.74
1020.247	-4.62
1020.407	32.78
1020.567	67.84
1020.728	31.03
1020.888	17.86
1021.048	20.57
1021.208	7.2
1021.368	36.65
1021.528	60.48
1021.688	54.09
1021.848	56.8
1022.008	1.19
1022.168	39.56
1022.328	18.63
1022.488	48.66
1022.648	20.57
1022.808	16.5
1022.968	35.88
1023.128	10.3
1023.288	6.04
1023.448	21.93
1023.608	49.83
1023.767	5.46
1023.927	2.55
1024.087	-21.67
1024.247	-24.38
1024.406	29.29
1024.566	1.19
1024.726	1
1024.885	13.01
1025.045	45.76
1025.205	8.17
1025.364	44.21
1025.524	29.09
1025.683	44.01
1025.843	38.2
1026.003	32.78
1026.162	84.12
1026.321	45.56
1026.481	39.17
1026.64	-6.75
1026.8	70.56
1026.959	34.52
1027.119	25.61
1027.278	18.83
1027.437	-5.78
1027.597	32.39
1027.756	34.13
1027.915	42.66
1028.074	19.79
1028.234	1
1028.393	50.41
1028.552	7.01
1028.711	-69.14
1028.87	45.56
1029.03	-22.44
1029.189	-14.11
1029.348	-26.12
1029.507	-15.27
1029.666	4.88
1029.825	-9.66
1029.984	0.23
1030.143	43.24
1030.302	-7.52
1030.461	-21.28
1030.62	24.64
1030.779	35.49
1030.938	7.39
1031.097	-11.79
1031.255	21.54
1031.414	60.09
1031.573	47.11
1031.732	-18.37
1031.891	32.58
1032.049	67.84
1032.208	63.58
1032.367	-11.01
1032.525	27.16
1032.684	22.12
1032.843	28.71
1033.001	-23.41
1033.16	117.06
1033.319	62.61
1033.477	15.92
1033.636	-17.4
1033.794	-37.36
1033.953	22.7
1034.111	30.26
1034.27	-14.69
1034.428	19.41
1034.587	20.18
1034.745	38.78
1034.903	38.39
1035.062	46.53
1035.22	7.78
1035.378	27.93
1035.537	-12.56
1035.695	31.61
1035.853	-3.65
1036.011	48.86
1036.17	26.77
1036.328	-61
1036.486	13.4
1036.644	25.22
1036.802	-69.91
1036.96	-3.65
1037.119	24.83
1037.277	-43.37
1037.435	-26.12
1037.593	-31.35
1037.751	13.79
1037.909	34.33
1038.067	34.33
