Data from gum_young_FLMT105791__33__17-38-32-045.txt Node

Date: Mon Mar 20 17:38:32 GMT 2023
User: antho
Spectrometer: FLMT10579
Trigger mode: 0
Integration Time (sec): 1.000000E-1
Scans to average: 10
Electric dark correction enabled: true
Nonlinearity correction enabled: false
Boxcar width: 0
XAxis mode: Wavelengths
Number of Pixels in Spectrum: 3648
>>>>>Begin Spectral Data<<<<<
345.248	-150.09
345.464	-150.09
345.681	-150.09
345.898	-129.55
346.114	-131.49
346.331	-38.1
346.548	34.36
346.764	3.55
346.981	-3.62
347.197	-9.24
347.414	22.54
347.631	-28.61
347.847	30.48
348.064	-12.72
348.28	35.71
348.497	-42.37
348.713	8.01
348.93	45.6
349.146	28.35
349.363	17.7
349.579	21.38
349.796	0.06
350.012	-6.33
350.229	28.93
350.445	4.33
350.661	-9.43
350.878	8.78
351.094	41.91
351.311	18.28
351.527	43.27
351.743	-9.24
351.96	22.73
352.176	25.25
352.392	16.15
352.609	34.75
352.825	10.91
353.041	0.84
353.257	22.54
353.474	0.26
353.69	3.36
353.906	17.7
354.122	-4.2
354.339	42.88
354.555	16.34
354.771	19.44
354.987	33.58
355.203	41.14
355.42	-25.51
355.636	14.4
355.852	-18.15
356.068	23.9
356.284	-20.86
356.5	67.88
356.716	9.95
356.932	28.93
357.148	44.82
357.364	24.09
357.58	59.35
357.796	42.11
358.012	58
358.228	42.88
358.444	-54.77
358.66	39.01
358.876	35.91
359.092	-23.96
359.308	9.56
359.524	20.99
359.74	-4.97
359.956	-16.99
360.172	15.95
360.388	32.03
360.604	19.44
360.819	92.87
361.035	20.21
361.251	41.53
361.467	4.71
361.683	46.37
361.898	26.22
362.114	27
362.33	18.47
362.546	58.58
362.762	15.37
362.977	14.98
363.193	-25.51
363.409	54.7
363.624	-34.81
363.84	6.85
364.056	-2.65
364.271	23.51
364.487	17.89
364.703	-5.94
364.918	-12.34
365.134	7.23
365.35	24.86
365.565	80.47
365.781	15.37
365.996	32.61
366.212	61.09
366.427	30.48
366.643	-5.55
366.858	-12.53
367.074	-25.51
367.289	47.15
367.505	122.9
367.72	-8.46
367.936	3.55
368.151	56.06
368.367	32.42
368.582	11.5
368.798	3.55
369.013	66.91
369.228	14.21
369.444	13.05
369.659	39.4
369.874	20.02
370.09	70.01
370.305	-10.98
370.52	-3.42
370.736	46.18
370.951	14.01
371.166	75.63
371.381	82.79
371.597	54.7
371.812	-7.1
372.027	7.43
372.242	-2.84
372.458	71.75
372.673	15.76
372.888	29.71
373.103	31.26
373.318	84.73
373.533	47.92
373.749	41.91
373.964	-15.05
374.179	75.82
374.394	10.91
374.609	70.2
374.824	2.39
375.039	70.2
375.254	-9.82
375.469	56.83
375.684	19.63
375.899	62.06
376.114	26.22
376.329	30.68
376.544	59.54
376.759	45.21
376.974	-7.88
377.189	-17.57
377.404	17.7
377.619	68.65
377.834	-34.23
378.049	-14.27
378.264	-16.6
378.478	30.87
378.693	9.56
378.908	37.65
379.123	22.54
379.338	48.5
379.553	38.23
379.767	41.91
379.982	39.01
380.197	37.85
380.412	25.45
380.626	49.47
380.841	86.86
381.056	49.47
381.271	78.14
381.485	0.06
381.7	7.23
381.915	27.96
382.129	8.59
382.344	30.87
382.559	-4.2
382.773	52.57
382.988	-22.41
383.202	35.33
383.417	6.85
383.632	92.68
383.846	-4.78
384.061	30.87
384.275	30.48
384.49	43.46
384.704	70.39
384.919	43.46
385.133	9.95
385.348	59.74
385.562	-1.68
385.777	49.66
385.991	29.13
386.206	35.71
386.42	23.31
386.634	51.41
386.849	31.45
387.063	50.05
387.277	-16.99
387.492	14.21
387.706	6.85
387.92	10.91
388.135	28.74
388.349	24.09
388.563	28.55
388.778	22.15
388.992	47.53
389.206	42.5
389.42	77.95
389.635	19.25
389.849	51.41
390.063	65.74
390.277	42.5
390.491	99.07
390.706	44.63
390.92	36.3
391.134	16.73
391.348	71.56
391.562	-15.82
391.776	24.86
391.99	22.73
392.205	36.3
392.419	27
392.633	18.66
392.847	72.72
393.061	6.85
393.275	90.54
393.489	55.09
393.703	32.42
393.917	72.14
394.131	26.03
394.345	51.6
394.559	55.48
394.773	31.65
394.986	82.6
395.2	47.34
395.414	83.57
395.628	10.91
395.842	47.92
396.056	22.35
396.27	3.75
396.484	52.38
396.697	50.44
396.911	77.37
397.125	46.37
397.339	63.81
397.553	27.58
397.766	98.1
397.98	85.51
398.194	103.33
398.408	41.53
398.621	83.96
398.835	75.24
399.049	59.93
399.262	107.79
399.476	71.56
399.69	82.99
399.903	124.84
400.117	55.09
400.331	96.55
400.544	37.46
400.758	152.74
400.971	55.28
401.185	103.33
401.398	23.12
401.612	88.8
401.826	96.36
402.039	71.56
402.253	36.3
402.466	77.37
402.68	72.91
402.893	56.83
403.106	72.91
403.32	69.81
403.533	54.51
403.747	66.13
403.96	96.74
404.174	106.82
404.387	42.88
404.6	66.33
404.814	104.49
405.027	98.88
405.24	71.56
405.454	53.15
405.667	119.99
405.88	29.9
406.094	59.16
406.307	102.94
406.52	93.06
406.733	55.09
406.947	45.6
407.16	129.88
407.373	113.79
407.586	67.49
407.799	42.11
408.012	96.94
408.226	88.41
408.439	136.66
408.652	39.01
408.865	87.25
409.078	126
409.291	114.57
409.504	56.64
409.717	113.02
409.93	102.17
410.143	125.03
410.357	33.97
410.57	47.92
410.783	73.88
410.996	98.88
411.209	69.81
411.421	116.12
411.634	102.36
411.847	61.68
412.06	92.09
412.273	68.84
412.486	111.86
412.699	188.58
412.912	81.05
413.125	124.06
413.338	114.18
413.55	137.24
413.763	85.51
413.976	112.44
414.189	77.18
414.402	108.37
414.615	138.01
414.827	85.51
415.04	124.06
415.253	101.59
415.466	127.94
415.678	155.64
415.891	99.07
416.104	98.1
416.316	113.21
416.529	87.64
416.742	126.78
416.954	147.89
417.167	74.66
417.38	79.5
417.592	145.96
417.805	89.38
418.017	81.05
418.23	130.65
418.442	100.23
418.655	116.51
418.868	117.48
419.08	141.5
419.293	167.46
419.505	134.72
419.718	136.66
419.93	159.32
420.142	113.41
420.355	138.21
420.567	159.52
420.78	126.78
420.992	119.61
421.205	169.98
421.417	78.34
421.629	101.01
421.842	78.92
422.054	96.94
422.266	135.3
422.479	157
422.691	89.58
422.903	153.32
423.115	103.91
423.328	116.89
423.54	143.83
423.752	120.38
423.964	107.21
424.177	144.79
424.389	128.13
424.601	237.99
424.813	121.74
425.025	157.77
425.238	163.78
425.45	123.48
425.662	117.09
425.874	379.81
426.086	124.84
426.298	157.39
426.51	174.44
426.722	140.73
426.934	118.06
427.146	147.89
427.358	108.18
427.57	158.36
427.782	108.95
427.994	137.04
428.206	116.51
428.418	83.18
428.63	183.35
428.842	165.72
429.054	176.37
429.266	131.23
429.478	101.01
429.69	162.62
429.902	94.42
430.114	169.59
430.325	139.18
430.537	119.99
430.749	120.77
430.961	73.3
431.173	104.3
431.384	134.91
431.596	75.43
431.808	140.53
432.02	176.76
432.231	148.09
432.443	176.96
432.655	153.71
432.867	111.28
433.078	149.83
433.29	211.44
433.502	189.94
433.713	200.98
433.925	174.24
434.136	174.82
434.348	114.96
434.56	99.26
434.771	244.57
434.983	106.04
435.194	141.11
435.406	147.31
435.617	200.4
435.829	201.76
436.04	178.89
436.252	214.54
436.463	218.81
436.675	186.45
436.886	171.53
437.098	186.84
437.309	209.12
437.521	173.27
437.732	195.75
437.943	180.64
438.155	174.05
438.366	144.21
438.578	250
438.789	155.45
439	196.91
439.211	195.17
439.423	218.22
439.634	198.85
439.845	189.16
440.057	185.67
440.268	204.08
440.479	161.84
440.69	209.12
440.902	180.83
441.113	165.52
441.324	185.09
441.535	193.81
441.746	222.29
441.957	173.08
442.168	211.83
442.38	221.32
442.591	227.33
442.802	178.31
443.013	193.81
443.224	223.65
443.435	218.22
443.646	210.47
443.857	192.07
444.068	179.47
444.279	190.71
444.49	290.49
444.701	201.17
444.912	293.2
445.123	241.28
445.334	255.62
445.545	240.7
445.756	218.42
445.967	212.8
446.178	236.24
446.388	261.04
446.599	260.07
446.81	256.78
447.021	232.76
447.232	263.56
447.443	271.12
447.653	194.2
447.864	264.53
448.075	227.14
448.286	267.82
448.496	257.55
448.707	287.59
448.918	217.06
449.129	328.27
449.339	230.24
449.55	279.25
449.761	235.66
449.971	309.09
450.182	240.5
450.393	264.34
450.603	273.05
450.814	304.44
451.024	263.17
451.235	311.22
451.446	334.47
451.656	315.1
451.867	255.42
452.077	266.66
452.288	301.34
452.498	344.35
452.709	276.15
452.919	317.42
453.13	242.25
453.34	315.87
453.55	241.47
453.761	312.19
453.971	302.7
454.182	316.07
454.392	277.51
454.602	362.57
454.813	290.69
455.023	318.97
455.233	274.41
455.444	307.74
455.654	253.1
455.864	299.4
456.075	297.85
456.285	279.45
456.495	304.25
456.705	336.8
456.916	358.69
457.126	361.4
457.336	334.28
457.546	256.78
457.756	279.64
457.967	343.58
458.177	296.11
458.387	289.72
458.597	272.86
458.807	301.73
459.017	291.27
459.227	315.29
459.437	309.87
459.647	343
459.857	330.79
460.068	299.21
460.278	358.11
460.488	320.72
460.698	390.08
460.908	341.45
461.117	293.59
461.327	302.12
461.537	319.55
461.747	320.33
461.957	335.44
462.167	398.8
462.377	332.15
462.587	339.12
462.797	350.94
463.007	339.9
463.216	344.35
463.426	388.14
463.636	396.47
463.846	288.17
464.056	284.49
464.265	366.05
464.475	333.7
464.685	334.67
464.895	375.93
465.104	361.6
465.314	364.5
465.524	353.07
465.733	330.21
465.943	415.07
466.153	386.59
466.362	397.25
466.572	357.33
466.782	351.72
466.991	366.44
467.201	421.08
467.41	321.1
467.62	375.55
467.829	349
468.039	379.42
468.249	338.35
468.458	361.98
468.668	384.65
468.877	401.7
469.086	401.7
469.296	391.63
469.505	385.04
469.715	430.18
469.924	403.06
470.134	427.47
470.343	439.48
470.552	391.24
470.762	393.18
470.971	370.12
471.18	410.81
471.39	380.58
471.599	359.85
471.808	440.06
472.018	379.81
472.227	430.76
472.436	442.2
472.645	378.84
472.855	415.46
473.064	493.15
473.273	444.71
473.482	434.25
473.691	461.38
473.901	446.85
474.11	419.72
474.319	534.61
474.528	443.55
474.737	493.54
474.946	463.9
475.155	469.9
475.364	460.6
475.573	430.57
475.783	474.55
475.992	464.86
476.201	517.56
476.41	450.91
476.619	457.31
476.828	461.18
477.037	463.31
477.245	474.16
477.454	502.84
477.663	466.41
477.872	488.7
478.081	556.31
478.29	471.65
478.499	562.9
478.708	486.18
478.917	590.99
479.125	506.71
479.334	531.9
479.543	517.18
479.752	530.16
479.961	541.39
480.169	541.39
480.378	530.54
480.587	647.96
480.796	576.85
481.004	566.97
481.213	574.91
481.422	593.12
481.63	566.97
481.839	596.61
482.048	602.04
482.256	565.03
482.465	609.01
482.674	603.78
482.882	586.15
483.091	630.71
483.299	576.66
483.508	632.46
483.716	598.36
483.925	617.34
484.134	609.79
484.342	597
484.551	654.74
484.759	634.2
484.967	647.18
485.176	640.21
485.384	648.92
485.593	673.14
485.801	640.4
486.01	633.23
486.218	590.99
486.426	508.46
486.635	555.34
486.843	565.42
487.051	587.89
487.26	595.45
487.468	629.55
487.676	627.42
487.885	597.19
488.093	638.85
488.301	685.74
488.509	651.06
488.717	687.67
488.926	674.89
489.134	676.44
489.342	684.38
489.55	665.59
489.758	690.77
489.967	682.83
490.175	783.19
490.383	678.76
490.591	786.48
490.799	664.23
491.007	758.2
491.215	720.03
491.423	747.15
491.631	736.69
491.839	713.25
492.047	748.12
492.255	695.23
492.463	668.69
492.671	693.29
492.879	785.71
493.087	735.14
493.295	737.08
493.503	794.82
493.711	812.45
493.919	820.2
494.127	786.68
494.334	839.77
494.542	776.99
494.75	798.88
494.958	821.55
495.166	822.91
495.374	839.38
495.581	855.65
495.789	807.8
495.997	876.58
496.205	795.4
496.412	819.42
496.62	821.36
496.828	839.77
497.035	825.04
497.243	848.87
497.451	820.2
497.658	863.98
497.866	851
498.074	909.71
498.281	863.21
498.489	918.62
498.696	860.69
498.904	842.28
499.112	836.86
499.319	936.06
499.527	869.21
499.734	936.06
499.942	853.91
500.149	892.46
500.357	899.44
500.564	886.65
500.771	882.97
500.979	880.06
501.186	866.31
501.394	913.2
501.601	887.23
501.808	910.29
502.016	891.11
502.223	871.35
502.43	919.78
502.638	936.64
502.845	885.88
503.052	1013.56
503.26	932.96
503.467	1014.53
503.674	948.65
503.881	953.11
504.089	1010.84
504.296	969.19
504.503	916.49
504.71	948.65
504.917	940.71
505.125	982.17
505.332	965.89
505.539	995.15
505.746	1064.32
505.953	1059.09
506.16	1025.96
506.367	1111.98
506.574	1119.92
506.781	1114.89
506.988	1032.54
507.195	1107.33
507.402	1063.93
507.609	1144.72
507.816	1039.13
508.023	1078.46
508.23	1071.29
508.437	1082.72
508.644	1108.1
508.851	1132.71
509.058	1149.57
509.265	1132.9
509.472	1156.15
509.679	1274.73
509.885	1188.32
510.092	1175.92
510.299	1183.09
510.506	1197.62
510.713	1189.87
510.92	1189.29
511.126	1248.18
511.333	1269.3
511.54	1264.85
511.746	1300.3
511.953	1307.66
512.16	1323.55
512.367	1316.38
512.573	1273.18
512.78	1267.75
512.987	1298.36
513.193	1319.29
513.4	1224.74
513.606	1265.82
513.813	1303.6
514.02	1286.35
514.226	1334.21
514.433	1326.85
514.639	1280.73
514.846	1339.83
515.052	1302.43
515.259	1335.76
515.465	1312.51
515.672	1366.18
515.878	1476.42
516.085	1405.89
516.291	1450.26
516.497	1325.68
516.704	1377.03
516.91	1325.49
517.117	1272.6
517.323	1228.03
517.529	1313.48
517.736	1278.8
517.942	1327.23
518.148	1302.82
518.354	1363.08
518.561	1378.38
518.767	1367.34
518.973	1416.74
519.179	1446.39
519.386	1417.33
519.592	1432.63
519.798	1451.62
520.004	1525.44
520.21	1485.91
520.417	1571.35
520.623	1591.5
520.829	1590.34
521.035	1574.45
521.241	1601.77
521.447	1659.32
521.653	1721.7
521.859	1649.82
522.065	1666.68
522.271	1760.45
522.477	1690.7
522.683	1757.93
522.889	1709.88
523.095	1717.05
523.301	1704.46
523.507	1725.77
523.713	1721.12
523.919	1719.76
524.125	1785.25
524.331	1778.86
524.537	1858.1
524.742	1850.54
524.948	1860.43
525.154	1863.33
525.36	1985.39
525.566	1852.68
525.772	1938.89
525.977	1837.18
526.183	1903.82
526.389	1902.66
526.595	1832.53
526.8	1822.45
527.006	1742.43
527.212	1719.57
527.417	1719.57
527.623	1738.36
527.829	1797.26
528.034	1841.83
528.24	1837.37
528.446	1889.29
528.651	1993.14
528.857	1986.75
529.062	2053.4
529.268	1981.9
529.473	2018.72
529.679	2057.47
529.884	2109.2
530.09	2027.82
530.295	2082.85
530.501	2109.39
530.706	2057.66
530.912	2079.94
531.117	2090.98
531.323	2103.77
531.528	2140.78
531.733	2158.99
531.939	2132.64
532.144	2149.69
532.35	2126.05
532.555	2152.02
532.76	2107.84
532.966	2141.17
533.171	2106.68
533.376	2094.28
533.581	2049.72
533.787	2130.12
533.992	2180.3
534.197	2157.83
534.402	2158.21
534.607	2161.31
534.813	2240.36
535.018	2189.21
535.223	2190.96
535.428	2205.49
535.633	2275.63
535.838	2279.31
536.043	2301.01
536.249	2334.52
536.454	2255.09
536.659	2273.88
536.864	2252.57
537.069	2190.96
537.274	2205.68
537.479	2220.8
537.684	2246.37
537.889	2194.06
538.094	2318.06
538.299	2256.64
538.504	2320.38
538.708	2292.87
538.913	2334.14
539.118	2301.78
539.323	2301.78
539.528	2317.28
539.733	2307.01
539.938	2308.76
540.142	2299.46
540.347	2263.81
540.552	2247.34
540.757	2227.77
540.962	2206.65
541.166	2246.76
541.371	2195.03
541.576	2249.66
541.781	2177.4
541.985	2310.31
542.19	2269.23
542.395	2367.27
542.599	2383.93
542.804	2324.84
543.008	2388.97
543.213	2299.07
543.418	2302.56
543.622	2350.99
543.827	2275.82
544.031	2374.44
544.236	2385.67
544.44	2359.52
544.645	2438.18
544.849	2372.5
545.054	2444.96
545.258	2471.5
545.463	2452.71
545.667	2369.01
545.872	2413.96
546.076	2421.13
546.281	2412.22
546.485	2375.99
546.689	2403.11
546.894	2429.65
547.098	2425.39
547.302	2384.51
547.507	2388.19
547.711	2447.48
547.915	2434.11
548.119	2368.82
548.324	2390.52
548.528	2433.72
548.732	2416.29
548.936	2446.7
549.141	2417.45
549.345	2444.38
549.549	2467.05
549.753	2430.82
549.957	2525.37
550.161	2486.62
550.366	2491.46
550.57	2459.69
550.774	2431.79
550.978	2431.2
551.182	2479.84
551.386	2401.37
551.59	2463.56
551.794	2471.12
551.998	2488.55
552.202	2450.58
552.406	2456.78
552.61	2486.23
552.814	2505.6
553.018	2524.2
553.222	2446.12
553.426	2433.14
553.63	2500.18
553.833	2444.19
554.037	2408.92
554.241	2471.31
554.445	2493.2
554.649	2432.56
554.853	2464.34
555.056	2520.52
555.26	2512
555.464	2475.19
555.668	2499.02
555.871	2493.01
556.075	2517.42
556.279	2469.76
556.483	2384.71
556.686	2437.21
556.89	2428.49
557.094	2437.79
557.297	2331.62
557.501	2469.95
557.704	2347.31
557.908	2429.65
558.112	2346.73
558.315	2421.13
558.519	2352.35
558.722	2369.4
558.926	2366.3
559.129	2318.83
559.333	2287.83
559.536	2300.43
559.74	2284.34
559.943	2262.64
560.147	2289.58
560.35	2321.16
560.553	2310.69
560.757	2288.41
560.96	2370.95
561.164	2313.79
561.367	2332.97
561.57	2329.29
561.774	2284.15
561.977	2284.34
562.18	2323.68
562.384	2358.74
562.587	2284.73
562.79	2290.74
562.993	2255.09
563.197	2313.99
563.4	2341.11
563.603	2334.91
563.806	2367.07
564.009	2235.91
564.212	2290.54
564.416	2236.68
564.619	2270.01
564.822	2227.77
565.025	2309.53
565.228	2209.56
565.431	2245.4
565.634	2154.92
565.837	2159.18
566.04	2165.96
566.243	2143.1
566.446	2065.99
566.649	2167.51
566.852	2090.4
567.055	2131.67
567.258	2131.67
567.461	2210.53
567.664	2218.66
567.867	2114.23
568.07	2193.67
568.273	2137.87
568.475	2161.7
568.678	2093.89
568.881	2045.07
569.084	2059.99
569.287	2001.09
569.489	2022.01
569.692	2088.66
569.895	2060.57
570.098	1984.81
570.3	1985.97
570.503	1936.76
570.706	1952.07
570.909	1950.91
571.111	1889.49
571.314	1895.3
571.516	1918.36
571.719	1945.87
571.922	1936.37
572.124	1893.17
572.327	1913.12
572.529	1886.19
572.732	1852.87
572.935	1901.31
573.137	1996.63
573.34	1890.07
573.542	1964.86
573.745	1912.93
573.947	1937.34
574.15	1874.76
574.352	1901.31
574.554	1940.25
574.757	1841.44
574.959	1831.94
575.162	1831.56
575.364	1852.09
575.566	1937.15
575.769	1836.21
575.971	1864.3
576.173	1718.41
576.376	1832.53
576.578	1881.35
576.78	1885.03
576.982	1747.08
577.185	1756.58
577.387	1752.9
577.589	1751.15
577.791	1782.15
577.993	1785.64
578.196	1765.1
578.398	1782.93
578.6	1799.78
578.802	1723.64
579.004	1728.87
579.206	1735.65
579.408	1760.84
579.61	1713.76
579.812	1785.45
580.014	1740.88
580.216	1752.7
580.418	1743.6
580.62	1732.75
580.822	1721.12
581.024	1770.91
581.226	1807.73
581.428	1747.47
581.63	1878.64
581.832	1748.05
582.034	1832.33
582.236	1761.61
582.438	1816.83
582.64	1832.91
582.841	1841.44
583.043	1917.97
583.245	1775.56
583.447	1811.79
583.649	1799.01
583.85	1804.63
584.052	1855
584.254	1762.58
584.456	1820.32
584.657	1737.78
584.859	1801.91
585.061	1778.66
585.262	1752.12
585.464	1724.22
585.666	1768.78
585.867	1724.41
586.069	1790.68
586.27	1747.66
586.472	1739.91
586.674	1724.8
586.875	1699.03
587.077	1687.41
587.278	1715.89
587.48	1703.49
587.681	1807.34
587.883	1742.05
588.084	1643.43
588.285	1661.25
588.487	1621.92
588.688	1681.79
588.89	1597.51
589.091	1544.81
589.292	1518.07
589.494	1514.2
589.695	1488.04
589.896	1437.86
590.098	1432.44
590.299	1473.12
590.5	1441.35
590.702	1492.89
590.903	1523.69
591.104	1585.3
591.305	1591.7
591.507	1606.42
591.708	1584.92
591.909	1534.35
592.11	1622.7
592.311	1601
592.512	1524.08
592.714	1505.48
592.915	1552.37
593.116	1541.52
593.317	1557.6
593.518	1566.7
593.719	1530.09
593.92	1575.62
594.121	1601.77
594.322	1621.73
594.523	1556.63
594.724	1468.09
594.925	1546.17
595.126	1519.43
595.327	1525.05
595.528	1551.01
595.729	1546.55
595.929	1551.01
596.13	1544.62
596.331	1574.45
596.532	1581.43
596.733	1617.27
596.934	1576.97
597.135	1580.07
597.335	1580.46
597.536	1539.19
597.737	1587.05
597.938	1517.11
598.138	1545.2
598.339	1578.91
598.54	1537.45
598.74	1570.39
598.941	1554.3
599.142	1609.33
599.342	1592.28
599.543	1509.74
599.744	1550.82
599.944	1545.59
600.145	1546.94
600.345	1529.89
600.546	1634.32
600.746	1612.04
600.947	1647.5
601.147	1578.52
601.348	1564.19
601.548	1541.71
601.749	1555.85
601.949	1511.49
602.15	1496.96
602.35	1525.82
602.551	1573.1
602.751	1500.06
602.951	1528.92
603.152	1520.21
603.352	1579.3
603.552	1561.09
603.753	1558.37
603.953	1589.57
604.153	1554.3
604.354	1574.65
604.554	1549.27
604.754	1579.49
604.954	1496.96
605.155	1524.86
605.355	1503.35
605.555	1579.49
605.755	1616.11
605.955	1553.53
606.155	1578.14
606.356	1553.92
606.556	1563.02
606.756	1556.44
606.956	1479.52
607.156	1571.35
607.356	1489.98
607.556	1541.32
607.756	1529.7
607.956	1579.49
608.156	1547.52
608.356	1499.86
608.556	1558.76
608.756	1527.57
608.956	1499.67
609.156	1520.98
609.356	1471.57
609.556	1463.63
609.755	1497.15
609.955	1460.92
610.155	1478.94
610.355	1495.21
610.555	1464.99
610.755	1434.38
610.954	1407.64
611.154	1478.74
611.354	1479.91
611.554	1431.28
611.753	1459.95
611.953	1395.24
612.153	1438.64
612.352	1461.69
612.552	1398.92
612.752	1353.2
612.951	1458.01
613.151	1438.25
613.351	1370.44
613.55	1412.29
613.75	1463.44
613.949	1401.24
614.149	1424.3
614.348	1394.08
614.548	1347.58
614.747	1345.83
614.947	1396.79
615.146	1307.47
615.346	1411.71
615.545	1388.65
615.745	1380.51
615.944	1416.74
616.144	1363.85
616.343	1356.88
616.542	1369.47
616.742	1334.01
616.941	1330.53
617.14	1301.08
617.34	1343.7
617.539	1313.09
617.738	1281.32
617.938	1387.68
618.137	1338.47
618.336	1289.84
618.535	1343.9
618.734	1316.38
618.934	1328.2
619.133	1334.01
619.332	1360.95
619.531	1299.91
619.73	1295.07
619.929	1376.06
620.128	1345.25
620.328	1341.96
620.527	1324.52
620.726	1293.91
620.925	1317.55
621.124	1300.88
621.323	1340.02
621.522	1287.13
621.721	1301.66
621.92	1297.4
622.119	1327.23
622.318	1256.13
622.517	1289.45
622.715	1303.98
622.914	1213.7
623.113	1295.07
623.312	1228.81
623.511	1301.46
623.71	1251.67
623.909	1249.35
624.107	1310.38
624.306	1231.13
624.505	1218.73
624.704	1233.07
624.902	1213.7
625.101	1273.18
625.3	1244.31
625.499	1205.56
625.697	1180.37
625.896	1202.27
626.095	1249.35
626.293	1185.41
626.492	1220.48
626.69	1225.52
626.889	1206.14
627.088	1248.96
627.286	1199.17
627.485	1179.02
627.683	1158.67
627.882	1182.12
628.08	1093.96
628.279	1184.64
628.477	1195.1
628.676	1114.89
628.874	1154.41
629.073	1144.53
629.271	1104.04
629.469	1175.92
629.668	1158.29
629.866	1105.59
630.065	1168.55
630.263	1136.39
630.461	1125.74
630.66	1162.94
630.858	1192
631.056	1184.83
631.254	1173.59
631.453	1139.88
631.651	1171.46
631.849	1146.66
632.047	1151.31
632.245	1136.97
632.444	1173.59
632.642	1175.72
632.84	1208.08
633.038	1137.75
633.236	1144.72
633.434	1161.97
633.632	1154.41
633.83	1151.89
634.028	1198
634.227	1160.22
634.425	1207.5
634.623	1138.72
634.821	1159.84
635.019	1175.92
635.216	1140.27
635.414	1211.18
635.612	1175.14
635.81	1154.99
636.008	1206.14
636.206	1139.49
636.404	1172.04
636.602	1136.97
636.8	1161.19
636.997	1173.4
637.195	1187.15
637.393	1169.72
637.591	1211.37
637.789	1175.34
637.986	1171.07
638.184	1164.29
638.382	1196.65
638.58	1177.66
638.777	1221.64
638.975	1159.06
639.173	1183.47
639.37	1164.68
639.568	1159.06
639.765	1194.13
639.963	1117.6
640.161	1140.46
640.358	1172.62
640.556	1109.85
640.753	1082.72
640.951	1051.14
641.148	1099
641.346	1099.19
641.543	1080.98
641.741	1124.96
641.938	1074.97
642.136	1095.71
642.333	1073.23
642.531	1127.87
642.728	1125.35
642.925	1085.44
643.123	1081.95
643.32	1064.12
643.517	1030.8
643.715	1079.24
643.912	1045.91
644.109	1103.46
644.306	1067.81
644.504	1019.95
644.701	1031.38
644.898	1091.25
645.095	990.89
645.293	1046.49
645.49	1067.22
645.687	1024.79
645.884	1050.95
646.081	948.26
646.278	975.58
646.475	953.3
646.672	967.83
646.87	1007.36
647.067	994.96
647.264	987.59
647.461	939.54
647.658	926.95
647.855	974.61
648.052	900.6
648.249	866.5
648.446	932.57
648.642	904.28
648.839	883.55
649.036	903.7
649.233	857.4
649.43	867.28
649.627	864.56
649.824	886.26
650.021	890.33
650.217	870.96
650.414	878.13
650.611	902.54
650.808	928.11
651.004	884.13
651.201	895.18
651.398	951.94
651.595	899.05
651.791	856.43
651.988	900.02
652.185	915.13
652.381	893.82
652.578	814.97
652.775	889.95
652.971	891.88
653.168	898.66
653.364	925.21
653.561	855.65
653.757	875.8
653.954	887.43
654.15	862.43
654.347	952.72
654.543	883.75
654.74	833.57
654.936	815.55
655.133	851.2
655.329	878.32
655.525	831.63
655.722	870.18
655.918	794.23
656.115	831.24
656.311	727
656.507	726.81
656.704	693.87
656.9	756.65
657.096	755.29
657.292	754.9
657.489	781.25
657.685	814.58
657.881	738.05
658.077	785.13
658.273	810.51
658.47	857.78
658.666	813.22
658.862	844.22
659.058	793.46
659.254	819.23
659.45	817.29
659.646	825.62
659.842	781.06
660.038	883.94
660.234	782.42
660.43	824.65
660.626	844.22
660.822	844.42
661.018	861.66
661.214	799.27
661.41	759.36
661.606	824.85
661.802	831.05
661.998	812.25
662.194	777.18
662.39	824.27
662.586	825.23
662.781	799.08
662.977	835.31
663.173	815.35
663.369	796.75
663.564	811.28
663.76	806.63
663.956	751.8
664.152	812.45
664.347	722.35
664.543	760.91
664.739	797.72
664.934	727.59
665.13	708.79
665.326	766.72
665.521	779.32
665.717	699.69
665.912	739.02
666.108	668.88
666.304	735.34
666.499	727.78
666.695	676.44
666.89	733.01
667.086	731.85
667.281	755.49
667.477	767.5
667.672	739.02
667.867	738.24
668.063	745.02
668.258	714.6
668.454	722.74
668.649	748.12
668.844	721
669.04	736.69
669.235	710.15
669.43	684.57
669.626	665.39
669.821	694.65
670.016	650.09
670.211	672.17
670.407	659.58
670.602	693.68
670.797	685.93
670.992	735.34
671.187	650.28
671.382	712.47
671.578	676.63
671.773	710.34
671.968	655.9
672.163	688.84
672.358	680.89
672.553	646.02
672.748	668.11
672.943	737.47
673.138	647.76
673.333	703.75
673.528	658.81
673.723	696
673.918	677.4
674.113	634.39
674.308	731.65
674.503	688.45
674.698	654.35
674.892	650.47
675.087	684.57
675.282	672.17
675.477	638.66
675.672	670.62
675.867	648.15
676.061	621.61
676.256	626.26
676.451	631.1
676.646	647.18
676.84	632.65
677.035	595.84
677.23	595.64
677.424	660.55
677.619	643.69
677.814	699.49
678.008	668.69
678.203	614.63
678.397	642.92
678.592	635.56
678.787	703.56
678.981	608.62
679.176	636.14
679.37	627.03
679.565	638.66
679.759	618.31
679.954	631.68
680.148	677.4
680.342	692.9
680.537	643.5
680.731	608.43
680.926	659.19
681.12	663.26
681.314	602.23
681.509	631.29
681.703	647.96
681.897	683.41
682.092	639.43
682.286	618.12
682.48	696
682.674	661.52
682.869	620.25
683.063	674.89
683.257	716.74
683.451	626.06
683.645	658.61
683.839	683.02
684.034	651.83
684.228	723.52
684.422	647.96
684.616	664.42
684.81	690.77
685.004	663.84
685.198	675.08
685.392	698.72
685.586	674.3
685.78	697.94
685.974	710.54
686.168	708.99
686.362	737.08
686.556	647.57
686.75	634.59
686.944	607.66
687.138	619.47
687.331	541.59
687.525	552.44
687.719	487.92
687.913	582.86
688.107	590.61
688.301	582.28
688.494	612.11
688.688	570.26
688.882	537.33
689.076	562.9
689.269	602.23
689.463	646.99
689.657	661.32
689.85	627.03
690.044	673.14
690.238	634.97
690.431	686.12
690.625	662.68
690.818	709.76
691.012	725.84
691.205	738.63
691.399	737.66
691.593	776.6
691.786	801.98
691.98	816.71
692.173	875.61
692.366	869.8
692.56	859.33
692.753	944.97
692.947	831.82
693.14	935.09
693.333	928.5
693.527	870.18
693.72	897.5
693.914	925.01
694.107	926.95
694.3	960.86
694.493	932.38
694.687	1007.36
694.88	935.48
695.073	1033.12
695.266	1043.01
695.46	1041.26
695.653	1063.35
695.846	1085.82
696.039	995.34
696.232	1096.67
696.425	1149.18
696.618	1139.69
696.812	1159.84
697.005	1214.08
697.198	1304.37
697.391	1255.74
697.584	1277.05
697.777	1315.61
697.97	1321.03
698.163	1344.67
698.356	1316.19
698.549	1392.53
698.742	1347.77
698.935	1346.03
699.127	1390.59
699.32	1341.18
699.513	1334.98
699.706	1368.31
699.899	1381.87
700.092	1395.24
700.285	1412.68
700.477	1318.71
700.67	1448.71
700.863	1448.71
701.056	1507.81
701.248	1505.67
701.441	1517.49
701.634	1464.6
701.826	1555.27
702.019	1462.86
702.212	1587.44
702.404	1513.04
702.597	1508.39
702.79	1547.14
702.982	1578.72
703.175	1628.7
703.367	1614.75
703.56	1622.89
703.752	1716.47
703.945	1687.41
704.137	1705.04
704.33	1732.75
704.522	1742.43
704.715	1746.89
704.907	1775.18
705.1	1814.31
705.292	1808.5
705.484	1805.01
705.677	1837.37
705.869	1838.53
706.061	1918.16
706.254	1891.81
706.446	1874.38
706.638	1865.08
706.831	1955.94
707.023	1881.35
707.215	2009.03
707.407	2005.54
707.599	1911.77
707.792	2030.54
707.984	2031.5
708.176	2040.42
708.368	2038.67
708.56	2092.92
708.752	2031.31
708.944	2010.77
709.136	2077.62
709.329	2072.19
709.521	2176.23
709.713	2124.7
709.905	2170.23
710.097	2212.08
710.289	2183.6
710.481	2189.6
710.672	2246.18
710.864	2239.78
711.056	2273.69
711.248	2244.43
711.44	2264.39
711.632	2281.63
711.824	2301.98
712.016	2326
712.207	2337.04
712.399	2301.78
712.591	2369.59
712.783	2386.45
712.975	2375.99
713.166	2349.83
713.358	2363.59
713.55	2415.51
713.741	2459.49
713.933	2415.12
714.125	2398.66
714.316	2354.29
714.508	2485.07
714.7	2485.45
714.891	2462.2
715.083	2500.57
715.274	2415.32
715.466	2476.74
715.657	2424.81
715.849	2392.26
716.04	2422.87
716.232	2381.99
716.423	2405.63
716.615	2317.48
716.806	2250.83
716.998	2207.04
717.189	2125.28
717.381	2046.81
717.572	2025.5
717.763	2055.72
717.955	2018.91
718.146	1945.67
718.337	1959.04
718.528	1878.06
718.72	1801.72
718.911	1868.18
719.102	1807.14
719.293	1851.51
719.485	1832.91
719.676	1814.51
719.867	1775.37
720.058	1767.62
720.249	1755.41
720.44	1818.38
720.632	1870.69
720.823	1908.86
721.014	2015.23
721.205	2087.3
721.396	2146.01
721.587	2279.11
721.778	2267.1
721.969	2324.84
722.16	2374.63
722.351	2361.46
722.542	2487.2
722.733	2517.42
722.924	2482.55
723.115	2449.61
723.305	2408.73
723.496	2413.19
723.687	2285.51
723.878	2346.73
724.069	2322.51
724.26	2336.85
724.45	2301.2
724.641	2257.61
724.832	2294.42
725.023	2251.02
725.213	2307.98
725.404	2228.55
725.595	2218.47
725.785	2198.71
725.976	2318.83
726.167	2248.89
726.357	2258.19
726.548	2384.51
726.739	2268.07
726.929	2359.32
727.12	2403.5
727.31	2377.34
727.501	2345.76
727.691	2340.92
727.882	2355.45
728.072	2385.87
728.263	2421.13
728.453	2467.44
728.644	2485.26
728.834	2452.71
729.024	2369.4
729.215	2380.25
729.405	2446.7
729.596	2512.97
729.786	2520.33
729.976	2549.39
730.167	2567.99
730.357	2473.64
730.547	2493.4
730.737	2558.88
730.928	2558.88
731.118	2619.91
731.308	2552.88
731.498	2600.15
731.688	2678.81
731.879	2670.48
732.069	2724.73
732.259	2767.36
732.449	2829.94
732.639	2857.84
732.829	2922.74
733.019	2930.1
733.209	2966.33
733.399	2978.35
733.589	3094.79
733.779	3127.73
733.969	3109.13
734.159	3204.26
734.349	3190.69
734.539	3247.07
734.729	3216.07
734.919	3263.35
735.109	3289.89
735.299	3216.07
735.488	3297.45
735.678	3257.15
735.868	3260.83
736.058	3285.44
736.248	3280.4
736.437	3206.77
736.627	3201.35
736.817	3380.76
737.007	3273.62
737.196	3340.07
737.386	3334.07
737.576	3279.62
737.765	3389.09
737.955	3343.56
738.144	3451.67
738.334	3395.87
738.524	3321.47
738.713	3411.57
738.903	3416.02
739.092	3413.31
739.282	3432.68
739.471	3454.19
739.661	3446.44
739.85	3510.18
740.04	3463.68
740.229	3506.5
740.419	3506.5
740.608	3536.15
740.797	3503.01
740.987	3606.09
741.176	3581.87
741.365	3541.76
741.555	3519.87
741.744	3597.76
741.933	3547.77
742.123	3630.69
742.312	3597.56
742.501	3612.87
742.69	3606.09
742.88	3566.37
743.069	3698.31
743.258	3660.72
743.447	3728.73
743.636	3654.72
743.825	3670.61
744.014	3674.29
744.204	3708.58
744.393	3624.3
744.582	3734.54
744.771	3738.61
744.96	3703.35
745.149	3747.91
745.338	3731.25
745.527	3787.05
745.716	3671.38
745.905	3687.85
746.094	3737.25
746.283	3755.66
746.471	3687.27
746.66	3781.62
746.849	3767.09
747.038	3800.8
747.227	3717.49
747.416	3767.29
747.604	3721.56
747.793	3726.02
747.982	3727.18
748.171	3748.49
748.359	3733.57
748.548	3750.43
748.737	3738.8
748.926	3754.3
749.114	3696.37
749.303	3732.99
749.491	3708.77
749.68	3651.04
749.869	3753.53
750.057	3679.32
750.246	3688.04
750.434	3703.54
750.623	3701.61
750.811	3690.37
751	3742.29
751.188	3678.16
751.377	3698.89
751.565	3695.79
751.754	3653.56
751.942	3661.11
752.131	3701.99
752.319	3629.53
752.507	3620.62
752.696	3674.67
752.884	3670.02
753.072	3644.26
753.261	3668.67
753.449	3663.82
753.637	3600.08
753.825	3728.54
754.014	3664.21
754.202	3669.64
754.39	3725.63
754.578	3698.31
754.766	3609.38
754.955	3586.71
755.143	3687.46
755.331	3588.07
755.519	3639.41
755.707	3600.66
755.895	3590.39
756.083	3574.12
756.271	3575.48
756.459	3625.08
756.647	3590.01
756.835	3554.36
757.023	3572.57
757.211	3530.53
757.399	3572.18
757.587	3542.54
757.775	3501.85
757.963	3558.23
758.151	3524.33
758.339	3483.83
758.526	3479.18
758.714	3450.32
758.902	3397.42
759.09	3259.47
759.278	3008.18
759.465	2793.9
759.653	2456.78
759.841	2171.58
760.028	1883.68
760.216	1645.17
760.404	1482.23
760.591	1255.74
760.779	1043.97
760.967	909.71
761.154	774.47
761.342	789.2
761.529	778.54
761.717	842.67
761.905	829.69
762.092	872.7
762.28	839.77
762.467	801.6
762.655	733.98
762.842	768.85
763.029	775.44
763.217	785.13
763.404	760.33
763.592	796.95
763.779	765.56
763.966	804.5
764.154	836.67
764.341	923.27
764.528	926.56
764.716	998.83
764.903	1048.04
765.09	1105.01
765.277	1176.11
765.465	1322.39
765.652	1369.66
765.839	1475.64
766.026	1612.24
766.213	1644.59
766.4	1766.85
766.588	1933.47
766.775	1951.49
766.962	2126.25
767.149	2176.43
767.336	2336.66
767.523	2298.68
767.71	2444.57
767.897	2563.53
768.084	2640.84
768.271	2649.95
768.458	2683.85
768.645	2810.17
768.832	2774.33
769.019	2828
769.206	2860.74
769.392	2922.35
769.579	3018.65
769.766	2978.73
769.953	2961.3
770.14	3080.26
770.327	2990.94
770.513	3055.65
770.7	3153.11
770.887	3058.56
771.073	3093.63
771.26	3071.35
771.447	3078.71
771.634	3076.38
771.82	3153.11
772.007	3053.33
772.193	3134.12
772.38	3146.13
772.567	3101.76
772.753	3094.6
772.94	3169.77
773.126	3158.53
773.313	3161.05
773.499	3140.71
773.686	3168.61
773.872	3140.51
774.059	3119.59
774.245	3097.7
774.432	3116.1
774.618	3009.15
774.804	3138.38
774.991	3080.45
775.177	3110.48
775.363	3123.66
775.55	3139.16
775.736	3047.9
775.922	3061.66
776.109	3090.14
776.295	3081.03
776.481	3100.8
776.667	3070.18
776.853	3071.35
777.04	3052.36
777.226	3064.56
777.412	3093.24
777.598	3025.62
777.784	3045.77
777.97	3027.17
778.156	3030.08
778.342	3058.17
778.528	3003.15
778.715	2973.31
778.901	2983.77
779.087	2985.32
779.272	2949.87
779.458	2978.73
779.644	2989
779.83	2980.48
780.016	3043.83
780.202	2955.68
780.388	2927.78
780.574	2883.02
780.76	2922.35
780.946	2941.54
781.131	2927.97
781.317	2895.23
781.503	2882.44
781.689	2911.31
781.874	2989.39
782.06	2899.88
782.246	2877.02
782.432	2868.3
782.617	2912.47
782.803	2956.45
782.989	2839.24
783.174	2819.47
783.36	2815.02
783.545	2828.77
783.731	2847.57
783.916	2773.75
784.102	2815.6
784.288	2810.56
784.473	2778.79
784.659	2800.1
784.844	2824.12
785.029	2799.91
785.215	2788.09
785.4	2741.59
785.586	2839.04
785.771	2725.7
785.956	2766
786.142	2740.81
786.327	2712.33
786.512	2741.78
786.698	2715.04
786.883	2665.25
787.068	2680.36
787.254	2679.59
787.439	2663.31
787.624	2653.24
787.809	2629.8
787.994	2619.72
788.18	2700.51
788.365	2586.78
788.55	2579.62
788.735	2599.38
788.92	2599.76
789.105	2602.67
789.29	2625.73
789.475	2567.99
789.66	2564.12
789.845	2513.35
790.03	2526.14
790.215	2588.33
790.4	2543.38
790.585	2548.03
790.77	2540.67
790.955	2488.75
791.14	2525.17
791.325	2575.16
791.51	2427.72
791.695	2500.18
791.879	2508.12
792.064	2457.75
792.249	2574.97
792.434	2496.69
792.618	2495.34
792.803	2543.19
792.988	2462.4
793.173	2494.95
793.357	2537.77
793.542	2471.89
793.727	2488.75
793.911	2565.67
794.096	2499.79
794.281	2573.22
794.465	2604.22
794.65	2535.25
794.834	2580
795.019	2547.45
795.203	2618.75
795.388	2576.13
795.572	2611.2
795.757	2550.36
795.941	2544.35
796.126	2548.03
796.31	2478.48
796.494	2558.5
796.679	2495.53
796.863	2482.35
797.048	2603.45
797.232	2514.13
797.416	2545.9
797.601	2537.18
797.785	2621.85
797.969	2573.8
798.153	2558.69
798.338	2602.86
798.522	2589.88
798.706	2599.96
798.89	2593.37
799.074	2664.28
799.258	2622.05
799.443	2550.17
799.627	2574
799.811	2608.87
799.995	2543.97
800.179	2564.5
800.363	2566.63
800.547	2615.46
800.731	2601.51
800.915	2526.53
801.099	2543.19
801.283	2549
801.467	2580.39
801.651	2513.74
801.835	2581.55
802.019	2570.32
802.202	2568.96
802.386	2500.95
802.57	2513.93
802.754	2512
802.938	2538.73
803.121	2495.53
803.305	2574.58
803.489	2490.69
803.673	2546.68
803.856	2553.65
804.04	2524.2
804.224	2586.01
804.407	2524.98
804.591	2502.7
804.775	2561.21
804.958	2546.48
805.142	2592.21
805.326	2561.6
805.509	2565.67
805.693	2596.28
805.876	2591.24
806.06	2564.89
806.243	2588.33
806.427	2594.73
806.61	2598.41
806.794	2556.37
806.977	2613.13
807.16	2576.32
807.344	2575.93
807.527	2588.92
807.71	2547.84
807.894	2578.07
808.077	2534.47
808.26	2538.35
808.444	2484.68
808.627	2592.21
808.81	2514.52
808.993	2452.71
809.177	2446.32
809.36	2492.04
809.543	2507.35
809.726	2398.46
809.909	2401.95
810.092	2399.82
810.276	2434.11
810.459	2382.38
810.642	2398.46
810.825	2332.59
811.008	2348.86
811.191	2240.17
811.374	2272.14
811.557	2297.33
811.74	2341.11
811.923	2226.03
812.106	2248.5
812.289	2185.34
812.472	2221.57
812.654	2201.42
812.837	2134.58
813.02	2121.79
813.203	2090.79
813.386	1933.66
813.569	1968.92
813.751	1929.98
813.934	1971.83
814.117	1912.16
814.3	1853.45
814.482	1838.53
814.665	1795.91
814.848	1751.54
815.03	1716.08
815.213	1704.07
815.396	1669
815.578	1677.53
815.761	1617.27
815.943	1682.95
816.126	1593.05
816.309	1566.7
816.491	1551.01
816.674	1500.25
816.856	1529.89
817.039	1540.94
817.221	1594.41
817.403	1543.26
817.586	1546.36
817.768	1544.62
817.951	1485.52
818.133	1458.01
818.315	1499.47
818.498	1557.02
818.68	1619.79
818.862	1531.06
819.045	1582.59
819.227	1550.82
819.409	1577.55
819.591	1587.82
819.774	1571.35
819.956	1548.88
820.138	1638.78
820.32	1616.11
820.502	1676.95
820.684	1734.68
820.866	1734.88
821.048	1789.51
821.231	1844.15
821.413	1821.48
821.595	1772.85
821.777	1783.51
821.959	1778.66
822.141	1827.49
822.323	1695.16
822.505	1624.64
822.686	1580.85
822.868	1525.44
823.05	1403.18
823.232	1364.43
823.414	1296.62
823.596	1402.21
823.778	1349.71
823.96	1406.28
824.141	1417.71
824.323	1419.26
824.505	1535.9
824.687	1575.81
824.868	1618.44
825.05	1739.33
825.232	1748.63
825.413	1790.1
825.595	1760.06
825.777	1719.57
825.958	1727.71
826.14	1723.64
826.321	1749.6
826.503	1742.43
826.685	1778.86
826.866	1779.44
827.048	1752.9
827.229	1681.98
827.411	1661.45
827.592	1619.6
827.773	1589.18
827.955	1560.89
828.136	1557.79
828.318	1571.16
828.499	1605.65
828.68	1557.02
828.862	1501.99
829.043	1564.77
829.224	1533.38
829.406	1517.88
829.587	1537.45
829.768	1548.1
829.949	1598.09
830.131	1555.47
830.312	1565.35
830.493	1559.73
830.674	1552.56
830.855	1585.3
831.036	1537.64
831.218	1601.97
831.399	1620.37
831.58	1586.08
831.761	1596.74
831.942	1551.79
832.123	1578.91
832.304	1490.95
832.485	1539.77
832.666	1541.13
832.847	1575.04
833.028	1568.45
833.209	1570.58
833.389	1557.02
833.57	1501.8
833.751	1541.52
833.932	1579.49
834.113	1542.87
834.294	1552.56
834.475	1606.62
834.655	1621.54
834.836	1619.6
835.017	1626.38
835.198	1554.11
835.378	1572.71
835.559	1648.47
835.74	1585.5
835.92	1588.79
836.101	1611.07
836.281	1658.54
836.462	1646.14
836.643	1645.17
836.823	1673.27
837.004	1657.38
837.184	1659.7
837.365	1639.75
837.545	1683.73
837.726	1608.94
837.906	1670.94
838.087	1663.19
838.267	1624.25
838.448	1614.75
838.628	1648.08
838.808	1641.1
838.989	1731.39
839.169	1632.19
839.349	1652.34
839.53	1672.88
839.71	1653.89
839.89	1645.56
840.07	1675.01
840.251	1644.01
840.431	1650.02
840.611	1642.27
840.791	1639.94
840.971	1659.7
841.151	1634.71
841.332	1649.43
841.512	1660.09
841.692	1592.28
841.872	1650.98
842.052	1635.29
842.232	1638.58
842.412	1585.69
842.592	1607.39
842.772	1635.1
842.952	1644.98
843.132	1631.03
843.312	1594.6
843.492	1576.39
843.672	1635.29
843.851	1537.45
844.031	1619.99
844.211	1601.77
844.391	1578.14
844.571	1608.75
844.751	1619.99
844.93	1607.39
845.11	1578.14
845.29	1593.64
845.47	1613.98
845.649	1597.12
845.829	1612.04
846.009	1589.18
846.188	1622.7
846.368	1587.05
846.547	1574.84
846.727	1631.8
846.907	1563.6
847.086	1596.54
847.266	1638.58
847.445	1598.09
847.625	1583.75
847.804	1520.79
847.984	1571.55
848.163	1552.17
848.343	1551.59
848.522	1537.26
848.701	1529.12
848.881	1509.16
849.06	1550.04
849.239	1518.66
849.419	1536.87
849.598	1485.33
849.777	1466.54
849.957	1453.17
850.136	1429.92
850.315	1426.63
850.494	1426.43
850.674	1428.18
850.853	1472.35
851.032	1462.86
851.211	1484.75
851.39	1444.64
851.569	1424.88
851.748	1420.62
851.927	1517.3
852.107	1468.86
852.286	1408.8
852.465	1408.03
852.644	1475.06
852.823	1434.38
853.002	1438.44
853.181	1440.38
853.359	1466.54
853.538	1388.84
853.717	1423.91
853.896	1361.72
854.075	1303.6
854.254	1245.08
854.433	1197.03
854.611	1260.39
854.79	1226.87
854.969	1293.91
855.148	1276.47
855.327	1240.63
855.505	1279.18
855.684	1285.96
855.863	1321.61
856.041	1292.16
856.22	1335.56
856.399	1279.18
856.577	1382.26
856.756	1377.22
856.934	1475.45
857.113	1483.2
857.291	1384.97
857.47	1326.46
857.648	1369.66
857.827	1389.04
858.005	1411.71
858.184	1372.76
858.362	1450.84
858.541	1374.7
858.719	1376.06
858.898	1357.46
859.076	1352.23
859.254	1429.34
859.433	1385.74
859.611	1316.19
859.789	1317.55
859.967	1396.79
860.146	1393.49
860.324	1298.75
860.502	1343.7
860.68	1308.44
860.859	1301.85
861.037	1345.25
861.215	1340.02
861.393	1308.83
861.571	1340.41
861.749	1328.2
861.927	1336.92
862.105	1336.15
862.283	1301.85
862.461	1311.93
862.639	1257.29
862.817	1303.98
862.995	1313.67
863.173	1320.45
863.351	1304.76
863.529	1293.52
863.707	1335.56
863.885	1292.94
864.063	1258.07
864.241	1283.25
864.418	1344.28
864.596	1255.74
864.774	1247.8
864.952	1241.21
865.129	1312.31
865.307	1254.77
865.485	1201.1
865.663	1312.7
865.84	1173.2
866.018	1188.51
866.196	1102.1
866.373	1101.13
866.551	1113.92
866.728	1049.98
866.906	1093.38
867.084	1117.99
867.261	1165.65
867.439	1147.05
867.616	1188.12
867.794	1156.15
867.971	1186.77
868.149	1174.56
868.326	1210.4
868.503	1181.54
868.681	1199.94
868.858	1157.12
869.035	1142.01
869.213	1191.61
869.39	1175.53
869.567	1229.58
869.745	1163.52
869.922	1192.19
870.099	1225.13
870.276	1228.42
870.454	1171.27
870.631	1198
870.808	1178.82
870.985	1222.8
871.162	1205.37
871.339	1184.05
871.517	1097.84
871.694	1165.84
871.871	1149.18
872.048	1146.66
872.225	1116.05
872.402	1145.69
872.579	1105.01
872.756	1174.75
872.933	1101.32
873.11	1104.62
873.287	1136.39
873.463	1153.25
873.64	1091.44
873.817	1161
873.994	1088.73
874.171	1107.33
874.348	1129.61
874.524	1065.67
874.701	1102.87
874.878	1064.9
875.055	1108.69
875.231	1047.66
875.408	1092.61
875.585	1068
875.762	1069.16
875.938	1074.59
876.115	1053.86
876.291	1072.65
876.468	1075.17
876.645	1013.56
876.821	1056.96
876.998	1045.52
877.174	1068
877.351	1044.75
877.527	1014.53
877.704	1061.61
877.88	1030.99
878.057	1040.1
878.233	1084.27
878.409	1032.16
878.586	1030.61
878.762	1025.76
878.938	1007.55
879.115	975.58
879.291	1053.08
879.467	1000.58
879.644	996.51
879.82	1002.32
879.996	988.37
880.172	961.83
880.349	993.41
880.525	1007.16
880.701	933.34
880.877	932.57
881.053	989.14
881.229	970.16
881.405	1049.4
881.581	973.26
881.757	971.32
881.933	1000.96
882.109	997.67
882.285	1006
882.461	949.23
882.637	969.58
882.813	946.91
882.989	955.63
883.165	979.07
883.341	935.86
883.517	1020.72
883.693	1028.86
883.869	1027.89
884.044	963.18
884.22	969.58
884.396	992.24
884.572	1009.29
884.747	1021.11
884.923	999.99
885.099	1027.7
885.275	1012.39
885.45	987.4
885.626	971.9
885.801	933.15
885.977	966.86
886.153	943.03
886.328	971.71
886.504	962.79
886.679	971.71
886.855	974.03
887.03	985.66
887.206	996.12
887.381	996.7
887.557	971.71
887.732	979.84
887.908	995.73
888.083	972.29
888.258	994.38
888.434	947.88
888.609	963.38
888.784	1011.81
888.96	991.86
889.135	969.77
889.31	968.61
889.485	975.39
889.661	960.47
889.836	1005.61
890.011	986.82
890.186	970.93
890.361	943.03
890.537	989.73
890.712	971.9
890.887	1017.63
891.062	993.21
891.237	1037.19
891.412	945.55
891.587	981.2
891.762	965.12
891.937	981.01
892.112	945.74
892.287	928.31
892.462	911.45
892.637	907.19
892.812	859.72
892.987	882.58
893.161	889.17
893.336	859.72
893.511	881.61
893.686	894.98
893.861	875.61
894.035	868.05
894.21	878.71
894.385	850.03
894.56	879.48
894.734	795.4
894.909	785.9
895.084	777.18
895.258	776.22
895.433	778.93
895.608	766.53
895.782	701.24
895.957	743.86
896.131	712.28
896.306	679.92
896.48	687.29
896.655	669.66
896.829	615.99
897.004	603.97
897.178	638.27
897.353	611.72
897.527	641.76
897.701	625.87
897.876	625.87
898.05	656.09
898.224	645.24
898.399	679.92
898.573	656.87
898.747	548.18
898.921	598.36
899.096	492.38
899.27	507.29
899.444	516.79
899.618	551.28
899.792	563.68
899.967	568.91
900.141	571.62
900.315	522.79
900.489	527.06
900.663	584.41
900.837	532.48
901.011	520.08
901.185	600.29
901.359	537.71
901.533	545.27
901.707	560.58
901.881	551.08
902.055	513.88
902.229	533.84
902.403	580.92
902.576	549.34
902.75	562.13
902.924	659
903.098	572.98
903.272	646.6
903.446	640.21
903.619	671.79
903.793	716.74
903.967	672.17
904.14	733.79
904.314	723.52
904.488	677.02
904.661	718.87
904.835	696
905.009	736.69
905.182	772.92
905.356	739.4
905.529	699.69
905.703	693.87
905.876	687.87
906.05	659.97
906.223	606.49
906.397	567.16
906.57	575.49
906.744	562.9
906.917	548.76
907.09	561.54
907.264	572.2
907.437	482.11
907.61	489.47
907.784	505.94
907.957	527.44
908.13	479.98
908.304	528.41
908.477	491.99
908.65	501.48
908.823	448.01
908.996	524.54
909.17	488.7
909.343	441.23
909.516	500.71
909.689	484.82
909.862	452.85
910.035	466.03
910.208	442
910.381	444.91
910.554	556.31
910.727	464.86
910.9	469.71
911.073	479.4
911.246	548.37
911.419	514.27
911.592	535.19
911.765	465.06
911.938	467.58
912.11	496.06
912.283	528.03
912.456	540.81
912.629	488.11
912.802	469.32
912.974	432.51
913.147	400.93
913.32	364.12
913.493	364.7
913.665	416.23
913.838	414.1
914.01	428.83
914.183	414.88
914.356	419.33
914.528	479.78
914.701	466.61
914.873	473
915.046	408.29
915.218	377.1
915.391	306.19
915.563	353.85
915.736	382.72
915.908	422.82
916.081	435.41
916.253	395.7
916.425	403.64
916.598	412.16
916.77	427.66
916.942	377.48
917.115	310.25
917.287	392.21
917.459	400.54
917.632	321.68
917.804	297.85
917.976	396.67
918.148	373.8
918.32	362.57
918.493	411.39
918.665	477.65
918.837	409.45
919.009	473.58
919.181	473.78
919.353	444.71
919.525	431.15
919.697	423.6
919.869	435.03
920.041	486.95
920.213	565.23
920.385	456.15
920.557	436.58
920.729	459.44
920.901	504.97
921.073	468.74
921.244	428.44
921.416	483.46
921.588	435.03
921.76	434.83
921.932	503.23
922.103	447.23
922.275	450.33
922.447	467
922.619	388.33
922.79	433.09
922.962	419.33
923.134	430.96
923.305	398.99
923.477	368.38
923.648	343.38
923.82	397.63
923.991	369.54
924.163	351.33
924.335	387.56
924.506	380.58
924.677	404.22
924.849	380.2
925.02	390.27
925.192	431.93
925.363	357.33
925.535	398.22
925.706	381.36
925.877	425.73
926.049	365.47
926.22	376.52
926.391	391.82
926.562	376.52
926.734	377.1
926.905	402.28
927.076	343.77
927.247	340.87
927.419	319.75
927.59	290.1
927.761	316.65
927.932	292.04
928.103	322.46
928.274	240.5
928.445	272.67
928.616	253.49
928.787	277.51
928.958	305.6
929.129	256.97
929.3	265.69
929.471	237.4
929.642	181.61
929.813	116.89
929.984	222.68
930.155	185.87
930.326	223.46
930.496	156.42
930.667	122.51
930.838	171.53
931.009	116.51
931.18	157.77
931.35	131.62
931.521	145.57
931.692	83.57
931.863	53.73
932.033	107.98
932.204	108.18
932.374	91.9
932.545	89.38
932.716	128.33
932.886	107.01
933.057	38.23
933.227	37.26
933.398	152.93
933.568	43.85
933.739	33.39
933.909	45.79
934.08	107.4
934.25	11.69
934.421	28.93
934.591	67.88
934.761	31.06
934.932	11.3
935.102	45.01
935.272	33
935.443	36.3
935.613	37.26
935.783	62.84
935.953	18.47
936.123	141.69
936.294	-1.1
936.464	18.28
936.634	24.86
936.804	-0.32
936.974	0.84
937.144	69.62
937.314	53.73
937.484	19.44
937.655	17.7
937.825	76.4
937.995	24.09
938.165	69.62
938.334	38.43
938.504	78.73
938.674	40.17
938.844	52.76
939.014	117.09
939.184	78.92
939.354	118.64
939.524	101.59
939.694	64.39
939.863	77.37
940.033	139.95
940.203	109.14
940.373	115.34
940.542	106.63
940.712	70.59
940.882	108.37
941.051	124.64
941.221	110.5
941.391	125.61
941.56	67.68
941.73	59.35
941.899	161.65
942.069	66.33
942.238	120.19
942.408	91.13
942.577	92.29
942.747	81.83
942.916	41.91
943.086	47.34
943.255	100.43
943.425	54.12
943.594	45.98
943.763	22.93
943.933	55.67
944.102	10.14
944.271	54.7
944.441	71.94
944.61	28.74
944.779	46.76
944.948	131.43
945.117	35.91
945.287	39.59
945.456	6.65
945.625	30.68
945.794	56.45
945.963	18.28
946.132	64
946.301	36.88
946.47	88.8
946.639	-8.85
946.808	35.71
946.977	63.23
947.146	119.99
947.315	42.11
947.484	111.66
947.653	45.4
947.822	61.48
947.991	45.4
948.16	115.15
948.329	107.79
948.498	43.66
948.666	58
948.835	78.92
949.004	25.45
949.173	5.88
949.341	56.45
949.51	70.01
949.679	84.54
949.847	88.41
950.016	159.52
950.185	101.98
950.353	67.49
950.522	57.8
950.69	117.48
950.859	54.51
951.028	72.33
951.196	79.5
951.365	47.92
951.533	83.76
951.701	80.28
951.87	100.43
952.038	37.46
952.207	75.43
952.375	95.97
952.543	71.56
952.712	27.19
952.88	66.52
953.048	131.04
953.217	60.51
953.385	64
953.553	106.04
953.721	45.01
953.89	35.33
954.058	17.11
954.226	44.82
954.394	88.03
954.562	25.06
954.73	68.07
954.898	57.8
955.067	98.49
955.235	48.31
955.403	105.08
955.571	106.43
955.739	67.68
955.907	37.85
956.075	50.63
956.243	59.35
956.41	73.49
956.578	36.1
956.746	11.11
956.914	50.05
957.082	66.13
957.25	86.28
957.418	35.33
957.585	60.13
957.753	78.53
957.921	34.75
958.089	40.75
958.256	84.73
958.424	74.85
958.592	68.65
958.759	55.28
958.927	84.93
959.095	48.5
959.262	81.63
959.43	74.46
959.597	23.51
959.765	67.88
959.932	61.48
960.1	104.69
960.267	51.41
960.435	55.67
960.602	97.91
960.77	58
960.937	22.15
961.104	74.08
961.272	27
961.439	36.49
961.606	61.48
961.774	101.2
961.941	46.18
962.108	96.74
962.275	71.75
962.443	97.71
962.61	92.29
962.777	138.4
962.944	88.41
963.111	74.46
963.278	95.58
963.446	94.42
963.613	70.39
963.78	90.93
963.947	97.13
964.114	96.94
964.281	142.86
964.448	101.98
964.615	64.97
964.782	69.62
964.949	117.09
965.116	120.19
965.282	131.62
965.449	83.57
965.616	53.15
965.783	99.26
965.95	92.68
966.117	74.85
966.283	90.54
966.45	88.41
966.617	110.11
966.784	97.33
966.95	108.76
967.117	113.79
967.284	52.18
967.45	64.39
967.617	129.88
967.784	115.73
967.95	145.38
968.117	95.97
968.283	108.37
968.45	150.8
968.616	119.03
968.783	169.59
968.949	82.99
969.116	131.62
969.282	120.58
969.449	124.26
969.615	112.63
969.781	96.55
969.948	74.66
970.114	58.96
970.28	158.16
970.447	107.98
970.613	123.87
970.779	101.39
970.945	127.36
971.112	135.11
971.278	108.37
971.444	102.75
971.61	141.5
971.776	113.79
971.942	119.41
972.108	97.71
972.275	92.87
972.441	101.2
972.607	164.75
972.773	87.06
972.939	141.69
973.105	83.96
973.271	59.35
973.437	78.73
973.602	57.03
973.768	102.56
973.934	79.89
974.1	115.93
974.266	46.37
974.432	92.09
974.598	100.81
974.763	143.44
974.929	82.99
975.095	143.24
975.261	48.31
975.426	53.54
975.592	123.68
975.758	162.81
975.923	37.65
976.089	81.05
976.255	113.6
976.42	112.44
976.586	114.18
976.751	85.89
976.917	156.81
977.082	121.16
977.248	38.23
977.413	33.58
977.579	81.83
977.744	113.21
977.91	47.34
978.075	76.59
978.24	108.56
978.406	79.69
978.571	45.98
978.736	70.78
978.902	89.38
979.067	54.7
979.232	9.56
979.397	99.46
979.563	131.04
979.728	50.83
979.893	89.96
980.058	69.81
980.223	98.29
980.388	111.08
980.554	98.29
980.719	52.38
980.884	90.35
981.049	131.43
981.214	63.03
981.379	114.18
981.544	70.39
981.709	94.42
981.874	60.51
982.039	79.31
982.204	87.64
982.368	75.04
982.533	62.84
982.698	98.29
982.863	130.26
983.028	73.3
983.193	85.31
983.357	79.69
983.522	85.89
983.687	78.73
983.852	85.12
984.016	93.26
984.181	94.03
984.346	120.38
984.51	80.86
984.675	73.49
984.839	101.39
985.004	106.43
985.168	98.29
985.333	86.86
985.498	75.04
985.662	107.4
985.827	112.24
985.991	82.79
986.155	78.14
986.32	88.99
986.484	135.11
986.649	91.9
986.813	47.15
986.977	85.89
987.142	81.24
987.306	36.1
987.47	45.79
987.634	77.95
987.799	91.32
987.963	75.24
988.127	126
988.291	115.15
988.455	105.85
988.62	72.53
988.784	97.33
988.948	115.34
989.112	67.88
989.276	87.06
989.44	72.33
989.604	72.91
989.768	52.57
989.932	148.86
990.096	70.59
990.26	57.22
990.424	56.64
990.588	83.38
990.752	136.66
990.915	123.09
991.079	69.23
991.243	40.17
991.407	115.73
991.571	108.95
991.734	93.06
991.898	118.06
992.062	155.84
992.226	62.84
992.389	65.94
992.553	10.33
992.717	70.59
992.88	74.66
993.044	55.48
993.207	88.8
993.371	105.46
993.535	82.02
993.698	81.44
993.862	108.18
994.025	122.13
994.189	69.81
994.352	63.23
994.515	94.03
994.679	94.42
994.842	61.68
995.006	110.89
995.169	27
995.332	68.07
995.496	82.99
995.659	61.68
995.822	89.19
995.985	116.51
996.149	101.39
996.312	43.85
996.475	123.09
996.638	87.83
996.801	117.09
996.964	130.84
997.128	80.86
997.291	70.2
997.454	71.36
997.617	42.11
997.78	92.68
997.943	51.21
998.106	99.07
998.269	58
998.432	77.95
998.595	58.38
998.758	41.91
998.92	37.85
999.083	18.28
999.246	56.45
999.409	36.68
999.572	-6.33
999.735	54.51
999.897	95
1000.06	66.33
1000.223	39.2
1000.386	89.58
1000.548	93.45
1000.711	89.96
1000.874	84.93
1001.036	7.62
1001.199	115.15
1001.361	51.21
1001.524	62.45
1001.687	108.56
1001.849	28.16
1002.012	95.39
1002.174	57.03
1002.337	86.67
1002.499	58.38
1002.661	100.62
1002.824	15.76
1002.986	44.63
1003.149	28.93
1003.311	39.2
1003.473	116.89
1003.636	45.98
1003.798	59.16
1003.96	66.33
1004.123	69.04
1004.285	48.11
1004.447	39.2
1004.609	49.08
1004.771	102.75
1004.933	31.84
1005.096	35.52
1005.258	23.31
1005.42	46.37
1005.582	94.61
1005.744	46.18
1005.906	6.65
1006.068	64.19
1006.23	37.07
1006.392	16.34
1006.554	19.63
1006.716	77.18
1006.878	87.06
1007.04	-10.59
1007.202	38.04
1007.363	40.17
1007.525	53.35
1007.687	52.18
1007.849	73.88
1008.011	2
1008.172	23.12
1008.334	54.31
1008.496	57.03
1008.658	21.38
1008.819	21.38
1008.981	14.98
1009.143	32.03
1009.304	40.36
1009.466	66.52
1009.627	68.84
1009.789	118.44
1009.95	51.99
1010.112	39.98
1010.273	56.45
1010.435	2.2
1010.596	16.73
1010.758	9.75
1010.919	24.48
1011.081	9.36
1011.242	23.12
1011.403	78.73
1011.565	65.36
1011.726	70.2
1011.887	5.3
1012.049	33.78
1012.21	51.8
1012.371	95.39
1012.532	-13.69
1012.693	43.27
1012.855	40.36
1013.016	2.78
1013.177	54.7
1013.338	40.56
1013.499	100.23
1013.66	73.88
1013.821	74.85
1013.982	27
1014.143	28.35
1014.304	28.93
1014.465	61.48
1014.626	54.31
1014.787	42.88
1014.948	120.19
1015.109	-22.99
1015.27	68.46
1015.431	2.2
1015.592	13.43
1015.752	76.59
1015.913	57.22
1016.074	33.2
1016.235	31.84
1016.395	25.25
1016.556	40.56
1016.717	36.3
1016.877	47.53
1017.038	28.16
1017.199	49.08
1017.359	51.41
1017.52	38.81
1017.681	14.98
1017.841	6.46
1018.002	52.76
1018.162	34.16
1018.323	48.5
1018.483	6.46
1018.644	10.72
1018.804	-7.69
1018.964	5.3
1019.125	14.79
1019.285	36.1
1019.446	7.81
1019.606	6.26
1019.766	-33.45
1019.926	61.09
1020.087	47.73
1020.247	-9.82
1020.407	52.96
1020.567	57.03
1020.728	35.71
1020.888	16.73
1021.048	19.63
1021.208	6.65
1021.368	8.59
1021.528	68.26
1021.688	61.09
1021.848	51.02
1022.008	43.27
1022.168	27.77
1022.328	48.89
1022.488	44.24
1022.648	12.66
1022.808	15.56
1022.968	23.12
1023.128	-7.3
1023.288	11.88
1023.448	40.95
1023.608	61.68
1023.767	71.75
1023.927	19.05
1024.087	-12.34
1024.247	10.72
1024.406	4.91
1024.566	-8.27
1024.726	20.99
1024.885	37.26
1025.045	54.9
1025.205	13.05
1025.364	4.91
1025.524	43.27
1025.683	26.03
1025.843	20.02
1026.003	21.96
1026.162	65.16
1026.321	31.45
1026.481	30.1
1026.64	-0.9
1026.8	16.15
1026.959	5.1
1027.119	21.76
1027.278	27
1027.437	8.4
1027.597	23.31
1027.756	40.95
1027.915	25.45
1028.074	44.05
1028.234	13.43
1028.393	25.45
1028.552	-9.24
1028.711	-59.8
1028.87	40.56
1029.03	-18.54
1029.189	33.97
1029.348	-28.22
1029.507	-7.3
1029.666	22.93
1029.825	-36.55
1029.984	9.36
1030.143	20.8
1030.302	16.15
1030.461	-52.05
1030.62	3.36
1030.779	15.95
1030.938	-4.78
1031.097	7.04
1031.255	39.2
1031.414	103.91
1031.573	45.6
1031.732	-34.81
1031.891	-10.79
1032.049	52.57
1032.208	36.1
1032.367	-13.89
1032.525	-20.86
1032.684	-16.6
1032.843	16.15
1033.001	-39.07
1033.16	133.17
1033.319	48.31
1033.477	32.23
1033.636	-9.43
1033.794	-15.05
1033.953	37.85
1034.111	37.65
1034.27	-12.53
1034.428	55.86
1034.587	-9.04
1034.745	27.19
1034.903	-11.75
1035.062	21.18
1035.22	-7.69
1035.378	39.2
1035.537	-15.44
1035.695	41.14
1035.853	27.19
1036.011	21.18
1036.17	26.41
1036.328	-38.88
1036.486	28.74
1036.644	18.86
1036.802	-46.82
1036.96	10.14
1037.119	-1.87
1037.277	-2.84
1037.435	-17.95
1037.593	-3.23
1037.751	4.52
1037.909	30.48
1038.067	30.48
