Data from gum_young_FLMT105791__86__17-39-44-042.txt Node

Date: Mon Mar 20 17:39:44 GMT 2023
User: antho
Spectrometer: FLMT10579
Trigger mode: 0
Integration Time (sec): 1.000000E-1
Scans to average: 10
Electric dark correction enabled: true
Nonlinearity correction enabled: false
Boxcar width: 0
XAxis mode: Wavelengths
Number of Pixels in Spectrum: 3648
>>>>>Begin Spectral Data<<<<<
345.248	-180.3
345.464	-180.3
345.681	-180.3
345.898	-154.14
346.114	-128.76
346.331	-39.06
346.548	8.8
346.764	-17.36
346.981	3.18
347.197	-21.81
347.414	17.71
347.631	2.41
347.847	59.75
348.064	-8.44
348.28	30.11
348.497	-37.51
348.713	2.21
348.93	8.99
349.146	12.48
349.363	-22.78
349.579	24.3
349.796	-5.15
350.012	-10.19
350.229	-0.69
350.445	27.79
350.661	-22.98
350.878	-23.17
351.094	8.02
351.311	12.67
351.527	23.91
351.743	-33.63
351.96	26.43
352.176	47.55
352.392	24.88
352.609	55.3
352.825	-27.24
353.041	-23.75
353.257	-8.83
353.474	-0.5
353.69	18.49
353.906	25.66
354.122	-4.38
354.339	54.14
354.555	-6.31
354.771	-22.59
354.987	51.04
355.203	66.34
355.42	-13.87
355.636	-15.42
355.852	-16.19
356.068	-9.99
356.284	-16
356.5	37.47
356.716	15.77
356.932	29.14
357.148	31.47
357.364	-0.89
357.58	40.38
357.796	52.59
358.012	43.29
358.228	14.03
358.444	-34.79
358.66	57.43
358.876	26.82
359.092	-11.54
359.308	6.86
359.524	36.12
359.74	13.64
359.956	-7.86
360.172	5.31
360.388	40.96
360.604	-12.32
360.819	66.34
361.035	20.42
361.251	14.61
361.467	6.47
361.683	40.96
361.898	25.85
362.114	37.67
362.33	19.46
362.546	40.19
362.762	17.52
362.977	9.38
363.193	-29.56
363.409	28.56
363.624	-16.58
363.84	-18.13
364.056	-35.76
364.271	37.67
364.487	19.84
364.703	-7.28
364.918	-22.2
365.134	-11.35
365.35	3.76
365.565	81.26
365.781	3.57
365.996	27.79
366.212	49.87
366.427	24.49
366.643	-13.48
366.858	-12.51
367.074	-16.39
367.289	39.99
367.505	95.4
367.72	-13.87
367.936	-2.24
368.151	40.96
368.367	30.69
368.582	2.6
368.798	2.41
369.013	55.49
369.228	22.17
369.444	-12.13
369.659	49.87
369.874	23.14
370.09	32.82
370.305	-68.89
370.52	6.47
370.736	63.63
370.951	10.54
371.166	50.46
371.381	91.72
371.597	34.18
371.812	-11.74
372.027	-11.16
372.242	18.1
372.458	97.92
372.673	-1.47
372.888	-16
373.103	34.57
373.318	112.65
373.533	47.55
373.749	37.67
373.964	-41.96
374.179	44.06
374.394	-2.44
374.609	60.34
374.824	-30.14
375.039	80.87
375.254	-4.18
375.469	66.15
375.684	27.59
375.899	37.09
376.114	10.74
376.329	42.32
376.544	59.56
376.759	20.04
376.974	-24.53
377.189	16.74
377.404	12.09
377.619	60.92
377.834	-28.4
378.049	-44.29
378.264	-27.43
378.478	26.43
378.693	-8.83
378.908	34.96
379.123	-27.63
379.338	38.44
379.553	22.75
379.767	28.37
379.982	47.94
380.197	51.04
380.412	29.34
380.626	16.55
380.841	67.12
381.056	66.34
381.271	67.12
381.485	-4.18
381.7	-34.6
381.915	32.82
382.129	-8.25
382.344	45.22
382.559	9.96
382.773	90.17
382.988	-13.87
383.202	17.32
383.417	-4.38
383.632	95.4
383.846	26.24
384.061	15.97
384.275	13.45
384.49	39.8
384.704	44.84
384.919	49.68
385.133	25.07
385.348	49.68
385.562	-9.8
385.777	40.96
385.991	23.91
386.206	19.07
386.42	-22.98
386.634	52.97
386.849	37.86
387.063	21.01
387.277	-1.86
387.492	16.36
387.706	-13.68
387.92	-3.79
388.135	57.43
388.349	21.78
388.563	5.51
388.778	15.77
388.992	45.22
389.206	31.47
389.42	82.81
389.635	30.89
389.849	57.04
390.063	83.97
390.277	44.84
390.491	84.17
390.706	23.14
390.92	37.09
391.134	25.66
391.348	60.14
391.562	-6.31
391.776	34.37
391.99	-5.54
392.205	44.45
392.419	6.47
392.633	33.79
392.847	84.55
393.061	1.05
393.275	107.42
393.489	32.05
393.703	33.6
393.917	60.92
394.131	24.88
394.345	32.24
394.559	70.99
394.773	8.61
394.986	48.13
395.2	44.26
395.414	55.88
395.628	16.74
395.842	40.38
396.056	18.49
396.27	-9.22
396.484	33.21
396.697	21.59
396.911	47.36
397.125	62.85
397.339	59.17
397.553	36.31
397.766	85.72
397.98	46.58
398.194	51.81
398.408	18.29
398.621	50.07
398.835	56.46
399.049	50.65
399.262	85.33
399.476	69.83
399.69	79.13
399.903	143.45
400.117	55.88
400.331	60.92
400.544	7.83
400.758	141.71
400.971	67.5
401.185	74.29
401.398	22.17
401.612	91.92
401.826	76.61
402.039	86.88
402.253	27.01
402.466	51.23
402.68	63.82
402.893	60.53
403.106	31.08
403.32	48.91
403.533	89.2
403.747	42.9
403.96	56.27
404.174	105.29
404.387	22.36
404.6	61.3
404.814	88.43
405.027	54.72
405.24	68.67
405.454	56.46
405.667	85.72
405.88	34.37
406.094	61.11
406.307	101.99
406.52	71.77
406.733	39.99
406.947	49.49
407.16	121.95
407.373	100.25
407.586	68.86
407.799	30.31
408.012	89.4
408.226	68.28
408.439	114.59
408.652	20.62
408.865	92.89
409.078	96.18
409.291	70.6
409.504	47.16
409.717	67.7
409.93	95.02
410.143	59.95
410.357	27.98
410.57	55.3
410.783	58.59
410.996	70.6
411.209	85.52
411.421	114.59
411.634	83.97
411.847	44.06
412.06	62.66
412.273	62.47
412.486	72.74
412.699	163.99
412.912	75.06
413.125	78.94
413.338	77.39
413.55	117.3
413.763	62.27
413.976	96.57
414.189	48.13
414.402	53.75
414.615	134.54
414.827	29.53
415.04	135.12
415.253	101.41
415.466	127.37
415.678	148.88
415.891	96.57
416.104	102.57
416.316	68.09
416.529	73.7
416.742	100.83
416.954	87.85
417.167	84.55
417.38	83.2
417.592	140.16
417.805	42.32
418.017	47.55
418.23	111.29
418.442	53.55
418.655	91.34
418.868	73.12
419.08	111.68
419.293	107.42
419.505	72.15
419.718	100.83
419.93	119.62
420.142	82.81
420.355	126.6
420.567	118.85
420.78	109.74
420.992	92.5
421.205	149.27
421.417	49.49
421.629	64.02
421.842	69.05
422.054	45.22
422.266	125.63
422.479	118.65
422.691	87.27
422.903	124.66
423.115	100.44
423.328	104.32
423.54	110.32
423.752	88.43
423.964	52.2
424.177	84.75
424.389	87.65
424.601	166.12
424.813	104.12
425.025	144.81
425.238	142.68
425.45	83.97
425.662	79.52
425.874	366.07
426.086	80.87
426.298	100.25
426.51	94.63
426.722	100.44
426.934	96.18
427.146	141.52
427.358	93.66
427.57	126.6
427.782	94.63
427.994	79.13
428.206	82.23
428.418	64.79
428.63	120.79
428.842	148.49
429.054	100.05
429.266	145.39
429.478	84.17
429.69	99.47
429.902	38.64
430.114	124.47
430.325	103.35
430.537	74.29
430.749	75.64
430.961	46
431.173	92.5
431.384	138.22
431.596	39.8
431.808	92.3
432.02	101.41
432.231	124.27
432.443	103.54
432.655	124.66
432.867	91.72
433.078	109.35
433.29	185.5
433.502	148.1
433.713	170.97
433.925	109.55
434.136	174.07
434.348	85.14
434.56	51.81
434.771	202.74
434.983	64.4
435.194	95.02
435.406	109.74
435.617	158.18
435.829	157.4
436.04	133.19
436.252	154.3
436.463	168.83
436.675	141.13
436.886	137.64
437.098	177.17
437.309	182.2
437.521	124.08
437.732	141.13
437.943	150.04
438.155	125.05
438.366	96.18
438.578	177.94
438.789	142.29
439	144.81
439.211	123.3
439.423	147.33
439.634	136.67
439.845	160.7
440.057	171.74
440.268	179.88
440.479	130.28
440.69	134.35
440.902	121.75
441.113	128.15
441.324	101.41
441.535	139.19
441.746	195.96
441.957	101.22
442.168	136.48
442.38	171.74
442.591	176.78
442.802	118.85
443.013	139.97
443.224	160.89
443.435	128.15
443.646	163.41
443.857	134.54
444.068	142.68
444.279	107.03
444.49	212.62
444.701	155.47
444.912	232.38
445.123	165.35
445.334	171.55
445.545	159.34
445.756	150.62
445.967	125.63
446.178	186.47
446.388	212.04
446.599	176.97
446.81	172.52
447.021	152.95
447.232	176.78
447.443	219.21
447.653	130.28
447.864	210.49
448.075	166.32
448.286	202.55
448.496	184.14
448.707	223.08
448.918	176.97
449.129	256.8
449.339	176
449.55	187.05
449.761	180.27
449.971	256.8
450.182	184.33
450.393	211.27
450.603	176.2
450.814	198.09
451.024	209.52
451.235	210.68
451.446	246.91
451.656	263.77
451.867	176.2
452.077	216.11
452.288	247.88
452.498	255.44
452.709	195.57
452.919	198.67
453.13	163.6
453.34	235.1
453.55	166.32
453.761	235.48
453.971	238.58
454.182	221.34
454.392	209.91
454.602	253.7
454.813	235.68
455.023	235.29
455.233	174.45
455.444	208.36
455.654	155.66
455.864	204.68
456.075	184.92
456.285	183.75
456.495	204.29
456.705	221.15
456.916	252.34
457.126	265.32
457.336	196.54
457.546	157.79
457.756	190.34
457.967	253.11
458.177	208.36
458.387	236.26
458.597	181.04
458.807	225.99
459.017	212.82
459.227	201.97
459.437	217.85
459.647	252.92
459.857	258.73
460.068	220.76
460.278	264.16
460.488	250.4
460.698	275.4
460.908	209.91
461.117	178.33
461.327	194.8
461.537	214.37
461.747	236.65
461.957	253.31
462.167	348.83
462.377	257.96
462.587	248.46
462.797	264.16
463.007	243.62
463.216	257.38
463.426	248.27
463.636	284.31
463.846	203.9
464.056	200.42
464.265	261.83
464.475	206.42
464.685	230.06
464.895	265.51
465.104	239.36
465.314	259.7
465.524	240.33
465.733	213.2
465.943	326.35
466.153	298.65
466.362	275.4
466.572	265.9
466.782	235.68
466.991	236.84
467.201	301.75
467.41	211.85
467.62	287.99
467.829	227.54
468.039	269.39
468.249	243.43
468.458	247.3
468.668	279.27
468.877	269
469.086	307.95
469.296	272.68
469.505	218.82
469.715	322.86
469.924	274.23
470.134	300.39
470.343	301.75
470.552	276.36
470.762	261.45
470.971	262.61
471.18	297.68
471.39	268.81
471.599	254.47
471.808	300.97
472.018	221.15
472.227	310.08
472.436	313.76
472.645	271.52
472.855	272.88
473.064	355.03
473.273	300.97
473.482	334.1
473.691	349.79
473.901	292.64
474.11	297.1
474.319	393.97
474.528	316.66
474.737	339.33
474.946	321.51
475.155	311.82
475.364	369.17
475.573	320.15
475.783	327.51
475.992	331.39
476.201	364.71
476.41	332.36
476.619	288.38
476.828	312.6
477.037	282.18
477.245	335.26
477.454	367.81
477.663	324.61
477.872	297.29
478.081	401.52
478.29	309.5
478.499	409.08
478.708	367.23
478.917	431.36
479.125	353.09
479.334	367.81
479.543	334.1
479.752	379.63
479.961	389.13
480.169	397.84
480.378	340.11
480.587	485.81
480.796	399.59
481.004	396.68
481.213	387.96
481.422	388.16
481.63	396.68
481.839	435.62
482.048	438.92
482.256	407.92
482.465	418.96
482.674	426.71
482.882	437.17
483.091	472.63
483.299	420.32
483.508	454.03
483.716	421.87
483.925	429.62
484.134	411.6
484.342	421.09
484.551	439.89
484.759	442.41
484.967	449.57
485.176	461.78
485.384	411.79
485.593	468.95
485.801	430.01
486.01	450.16
486.218	429.42
486.426	380.21
486.635	408.11
486.843	394.94
487.051	420.51
487.26	410.24
487.468	415.28
487.676	488.52
487.885	427.29
488.093	438.14
488.301	456.94
488.509	481.35
488.717	500.92
488.926	465.85
489.134	439.69
489.342	471.47
489.55	459.46
489.758	465.27
489.967	460.81
490.175	554.2
490.383	459.26
490.591	536.76
490.799	441.05
491.007	528.04
491.215	510.99
491.423	500.34
491.631	492.59
491.839	490.84
492.047	532.69
492.255	502.85
492.463	453.84
492.671	494.14
492.879	540.44
493.087	531.92
493.295	523.97
493.503	536.37
493.711	553.23
493.919	564.66
494.127	552.84
494.334	594.5
494.542	535.79
494.75	535.02
494.958	535.79
495.166	578.22
495.374	551.1
495.581	584.23
495.789	542.77
495.997	621.23
496.205	578.03
496.412	532.89
496.62	592.37
496.828	580.74
497.035	594.69
497.243	607.09
497.451	581.32
497.658	596.24
497.866	568.54
498.074	638.87
498.281	549.94
498.489	664.25
498.696	614.07
498.904	552.45
499.112	580.74
499.319	661.53
499.527	604.38
499.734	654.75
499.942	590.43
500.149	597.21
500.357	649.72
500.564	597.6
500.771	642.55
500.979	567.57
501.186	613.68
501.394	610
501.601	608.64
501.808	649.91
502.016	642.74
502.223	616.58
502.43	641.97
502.638	638.87
502.845	601.67
503.052	692.92
503.26	630.92
503.467	716.36
503.674	659.79
503.881	697.38
504.089	747.56
504.296	703.77
504.503	636.93
504.71	673.35
504.917	658.43
505.125	684.98
505.332	691.76
505.539	720.82
505.746	764.03
505.953	759.18
506.16	746.78
506.367	791.54
506.574	790.38
506.781	797.35
506.988	700.09
507.195	747.17
507.402	750.46
507.609	791.93
507.816	750.08
508.023	740.2
508.23	767.9
508.437	735.35
508.644	785.73
508.851	809.36
509.058	795.61
509.265	810.14
509.472	810.72
509.679	930.84
509.885	836.1
510.092	816.92
510.299	842.49
510.506	830.48
510.713	867.68
510.92	867.29
511.126	894.61
511.333	901.59
511.54	909.14
511.746	980.64
511.953	951.77
512.16	979.67
512.367	913.6
512.573	902.36
512.78	937.82
512.987	920.77
513.193	949.64
513.4	875.04
513.606	941.11
513.813	962.23
514.02	964.36
514.226	1019.58
514.433	978.89
514.639	926.97
514.846	990.52
515.052	974.82
515.259	1010.67
515.465	991.29
515.672	1024.81
515.878	1112
516.085	1033.92
516.291	1085.84
516.497	1048.06
516.704	1025.78
516.91	1027.72
517.117	944.99
517.323	928.13
517.529	944.6
517.736	975.79
517.942	1021.52
518.148	975.6
518.354	1034.5
518.561	1015.51
518.767	1028.3
518.973	1081.19
519.179	1083.71
519.386	1059.1
519.592	1036.05
519.798	1076.93
520.004	1192.4
520.21	1124.2
520.417	1204.22
520.623	1207.9
520.829	1243.74
521.035	1253.63
521.241	1231.15
521.447	1244.71
521.653	1374.91
521.859	1255.95
522.065	1307.29
522.271	1371.23
522.477	1328.02
522.683	1343.91
522.889	1328.61
523.095	1374.72
523.301	1310.97
523.507	1311.94
523.713	1322.99
523.919	1320.86
524.125	1411.92
524.331	1369.29
524.537	1480.7
524.742	1432.07
524.948	1466.94
525.154	1443.89
525.36	1549.86
525.566	1458.03
525.772	1529.13
525.977	1447.95
526.183	1478.37
526.389	1524.1
526.595	1466.55
526.8	1444.47
527.006	1365.22
527.212	1373.17
527.417	1357.86
527.623	1354.96
527.829	1446.6
528.034	1452.8
528.24	1471.2
528.446	1448.73
528.651	1564.4
528.857	1561.88
529.062	1620.78
529.268	1576.8
529.473	1614
529.679	1614.38
529.884	1673.67
530.09	1655.07
530.295	1653.91
530.501	1680.64
530.706	1685.88
530.912	1653.52
531.117	1684.91
531.323	1665.34
531.528	1731.41
531.733	1717.07
531.939	1683.16
532.144	1725.01
532.35	1655.65
532.555	1738.38
532.76	1737.22
532.966	1737.8
533.171	1705.06
533.376	1646.16
533.581	1620.58
533.787	1690.33
533.992	1754.07
534.197	1759.5
534.402	1715.13
534.607	1734.89
534.813	1798.83
535.018	1749.23
535.223	1762.6
535.428	1755.04
535.633	1825.95
535.838	1844.55
536.043	1834.87
536.249	1925.54
536.454	1875.17
536.659	1845.52
536.864	1820.34
537.069	1868
537.274	1828.86
537.479	1834.48
537.684	1873.62
537.889	1781.78
538.094	1909.07
538.299	1867.03
538.504	1914.88
538.708	1861.8
538.913	1891.83
539.118	1858.31
539.323	1874.2
539.528	1820.53
539.733	1873.04
539.938	1852.3
540.142	1867.03
540.347	1838.94
540.552	1835.64
540.757	1826.73
540.962	1842.62
541.166	1789.34
541.371	1802.9
541.576	1843.59
541.781	1737.22
541.985	1881.17
542.19	1826.92
542.395	1932.32
542.599	1969.91
542.804	1896.48
543.008	1923.41
543.213	1891.05
543.418	1882.14
543.622	1937.94
543.827	1860.83
544.031	1963.52
544.236	1976.3
544.44	1951.31
544.645	1993.74
544.849	1964.68
545.054	2002.26
545.258	2040.63
545.463	2017.18
545.667	1956.35
545.872	1995.48
546.076	2002.07
546.281	1981.92
546.485	1980.95
546.689	1990.25
546.894	2034.62
547.098	2012.34
547.302	1930
547.507	1985.99
547.711	2004.78
547.915	2056.51
548.119	1950.92
548.324	1984.05
548.528	2032.1
548.732	1979.4
548.936	2040.05
549.141	2034.81
549.345	1978.24
549.549	2030.75
549.753	2027.45
549.957	2116.38
550.161	2115.61
550.366	2058.26
550.57	2023.96
550.774	2037.53
550.978	2024.16
551.182	2079.18
551.386	2004.2
551.59	2027.45
551.794	2059.42
551.998	2089.64
552.202	2012.92
552.406	2038.5
552.61	2078.02
552.814	2066.39
553.018	2104.18
553.222	2000.91
553.426	2021.83
553.63	2140.99
553.833	2044.11
554.037	1987.54
554.241	2033.26
554.445	2059.81
554.649	2052.25
554.853	2021.83
555.056	2064.07
555.26	2088.48
555.464	2076.66
555.668	2067.17
555.871	2075.5
556.075	2096.23
556.279	2041.4
556.483	1986.96
556.686	2000.91
556.89	1970.49
557.094	2060
557.297	1973.98
557.501	2024.16
557.704	1974.75
557.908	2015.83
558.112	1938.33
558.315	2054
558.519	1999.75
558.722	1964.68
558.926	1932.32
559.129	1914.3
559.333	1916.43
559.536	1900.74
559.74	1942.78
559.943	1896.67
560.147	1887.18
560.35	1902.48
560.553	1919.92
560.757	1847.46
560.96	1923.8
561.164	1925.15
561.367	1995.68
561.57	1908.3
561.774	1949.76
561.977	1904.42
562.18	1902.68
562.384	1999.16
562.587	1893.18
562.79	1876.52
562.993	1891.25
563.197	1892.22
563.4	1951.12
563.603	1936.58
563.806	1968.36
564.009	1863.35
564.212	1904.42
564.416	1839.13
564.619	1853.47
564.822	1842.62
565.025	1890.67
565.228	1838.94
565.431	1875.55
565.634	1757.95
565.837	1806.77
566.04	1787.59
566.243	1804.06
566.446	1715.71
566.649	1779.65
566.852	1754.07
567.055	1779.07
567.258	1781.59
567.461	1816.85
567.664	1812.2
567.867	1703.7
568.07	1755.82
568.273	1749.81
568.475	1805.22
568.678	1711.26
568.881	1726.17
569.084	1687.43
569.287	1593.65
569.489	1659.72
569.692	1699.83
569.895	1731.41
570.098	1625.43
570.3	1648.48
570.503	1542.7
570.706	1598.5
570.909	1603.15
571.111	1570.01
571.314	1540.37
571.516	1535.92
571.719	1567.11
571.922	1533.4
572.124	1526.62
572.327	1554.71
572.529	1488.64
572.732	1494.65
572.935	1545.8
573.137	1639.96
573.34	1513.25
573.542	1514.8
573.745	1578.15
573.947	1545.21
574.15	1545.02
574.352	1496.39
574.554	1583.58
574.757	1479.73
574.959	1475.66
575.162	1496
575.364	1458.61
575.566	1566.14
575.769	1419.86
575.971	1477.4
576.173	1353.02
576.376	1466.75
576.578	1470.62
576.78	1507.43
576.982	1378.98
577.185	1439.43
577.387	1433.04
577.589	1409.98
577.791	1418.7
577.993	1464.03
578.196	1419.28
578.398	1411.53
578.6	1433.81
578.802	1331.9
579.004	1340.81
579.206	1366.58
579.408	1412.69
579.61	1379.17
579.812	1420.05
580.014	1370.45
580.216	1368.52
580.418	1380.92
580.62	1369.49
580.822	1352.44
581.024	1388.67
581.226	1418.5
581.428	1377.04
581.63	1447.95
581.832	1377.62
582.034	1438.07
582.236	1419.67
582.438	1448.92
582.64	1477.98
582.841	1429.74
583.043	1494.26
583.245	1411.14
583.447	1408.82
583.649	1386.73
583.85	1438.27
584.052	1445.82
584.254	1390.8
584.456	1469.85
584.657	1337.13
584.859	1404.36
585.061	1378.59
585.262	1372
585.464	1331.9
585.666	1420.44
585.867	1358.44
586.069	1431.49
586.27	1387.12
586.472	1358.06
586.674	1356.7
586.875	1328.8
587.077	1357.86
587.278	1348.95
587.48	1359.41
587.681	1428.19
587.883	1343.14
588.084	1280.94
588.285	1319.89
588.487	1289.86
588.688	1311.94
588.89	1237.54
589.091	1203.83
589.292	1211.39
589.494	1186.01
589.695	1167.21
589.896	1099.02
590.098	1102.11
590.299	1152.88
590.5	1104.83
590.702	1167.6
590.903	1164.5
591.104	1253.24
591.305	1201.51
591.507	1246.07
591.708	1236.96
591.909	1205.96
592.11	1268.54
592.311	1267.19
592.512	1213.91
592.714	1163.53
592.915	1175.16
593.116	1215.65
593.317	1251.49
593.518	1176.13
593.719	1200.34
593.92	1250.14
594.121	1241.81
594.322	1191.24
594.523	1182.52
594.724	1181.16
594.925	1201.7
595.126	1216.04
595.327	1188.91
595.528	1184.26
595.729	1196.47
595.929	1192.59
596.13	1207.13
596.331	1232.51
596.532	1224.56
596.733	1255.18
596.934	1220.88
597.135	1211.39
597.335	1230.57
597.536	1172.83
597.737	1213.33
597.938	1198.02
598.138	1237.54
598.339	1202.67
598.54	1214.29
598.74	1179.81
598.941	1202.67
599.142	1230.57
599.342	1236.96
599.543	1149.2
599.744	1205.96
599.944	1200.54
600.145	1206.93
600.345	1203.06
600.546	1271.84
600.746	1255.18
600.947	1273.19
601.147	1191.24
601.348	1247.43
601.548	1184.65
601.749	1193.37
601.949	1169.93
602.15	1217.98
602.35	1178.84
602.551	1239.29
602.751	1156.56
602.951	1181.55
603.152	1125.36
603.352	1204.03
603.552	1177.29
603.753	1218.17
603.953	1229.6
604.153	1173.61
604.354	1181.94
604.554	1226.5
604.754	1195.69
604.954	1174.19
605.155	1187.94
605.355	1210.61
605.555	1226.89
605.755	1236.19
605.955	1180.2
606.155	1197.24
606.356	1168.38
606.556	1206.74
606.756	1203.83
606.956	1149
607.156	1203.06
607.356	1181.55
607.556	1186.98
607.756	1173.22
607.956	1207.51
608.156	1185.23
608.356	1128.08
608.556	1214.29
608.756	1139.9
608.956	1115.68
609.156	1136.21
609.356	1097.47
609.556	1118.97
609.755	1139.12
609.955	1082.35
610.155	1121.3
610.355	1128.66
610.555	1108.9
610.755	1112.58
610.954	1075.18
611.154	1113.74
611.354	1135.83
611.554	1097.27
611.753	1084.87
611.953	1004.47
612.153	1102.89
612.352	1102.11
612.552	1058.13
612.752	1006.99
612.951	1094.17
613.151	1080.03
613.351	1053.68
613.55	1056.2
613.75	1104.25
613.949	1025.2
614.149	1053.1
614.348	1058.33
614.548	1030.82
614.747	1033.53
614.947	1024.03
615.146	978.31
615.346	1053.68
615.545	1025.97
615.745	1023.84
615.944	1057.94
616.144	1013.57
616.343	1048.25
616.542	1017.06
616.742	980.25
616.941	994.97
617.14	929.87
617.34	1010.86
617.539	974.05
617.738	980.25
617.938	1072.67
618.137	999.24
618.336	937.24
618.535	1014.15
618.734	978.31
618.934	1006.99
619.133	996.14
619.332	989.16
619.531	965.52
619.73	971.53
619.929	1000.98
620.128	1013.57
620.328	1028.1
620.527	957.58
620.726	964.55
620.925	991.49
621.124	938.2
621.323	977.15
621.522	917.67
621.721	914.18
621.92	924.64
622.119	980.44
622.318	932.2
622.517	968.04
622.715	925.8
622.914	880.47
623.113	954.09
623.312	906.04
623.511	974.05
623.71	906.82
623.909	913.02
624.107	963.97
624.306	860.51
624.505	900.23
624.704	919.99
624.902	883.57
625.101	921.35
625.3	908.95
625.499	885.89
625.697	888.8
625.896	895.39
626.095	907.21
626.293	868.26
626.492	856.83
626.69	904.3
626.889	881.24
627.088	903.72
627.286	841.52
627.485	863.81
627.683	846.76
627.882	864
628.08	799.87
628.279	842.88
628.477	879.31
628.676	796.96
628.874	885.51
629.073	808.2
629.271	795.8
629.469	829.9
629.668	871.75
629.866	804.52
630.065	832.03
630.263	875.43
630.461	810.33
630.66	828.93
630.858	857.41
631.056	879.5
631.254	888.8
631.453	818.08
631.651	883.18
631.849	841.72
632.047	847.14
632.245	853.73
632.444	856.44
632.642	854.12
632.84	866.71
633.038	857.02
633.236	820.41
633.434	846.95
633.632	793.28
633.83	829.51
634.028	875.04
634.227	865.55
634.425	912.05
634.623	853.54
634.821	876.21
635.019	854.89
635.216	854.7
635.414	862.84
635.612	849.66
635.81	818.66
636.008	907.79
636.206	858.19
636.404	845.59
636.602	834.36
636.8	843.27
636.997	863.81
637.195	854.7
637.393	838.04
637.591	909.14
637.789	856.44
637.986	827.58
638.184	849.66
638.382	880.66
638.58	857.41
638.777	895.97
638.975	850.05
639.173	797.35
639.37	833.78
639.568	833.58
639.765	822.54
639.963	822.93
640.161	877.37
640.358	857.61
640.556	792.51
640.753	758.99
640.951	783.4
641.148	823.7
641.346	790.18
641.543	821.76
641.741	811.69
641.938	769.26
642.136	766.35
642.333	759.57
642.531	786.89
642.728	838.04
642.925	777.01
643.123	763.25
643.32	776.62
643.517	741.36
643.715	779.91
643.912	756.28
644.109	785.14
644.306	745.62
644.504	680.91
644.701	734.96
644.898	730.7
645.095	719.08
645.293	747.75
645.49	733.8
645.687	733.8
645.884	727.8
646.081	685.17
646.278	685.17
646.475	687.88
646.672	685.75
646.87	721.4
647.067	692.53
647.264	694.47
647.461	648.36
647.658	628.79
647.855	697.57
648.052	625.88
648.249	587.72
648.446	668.9
648.642	657.85
648.839	616.78
649.036	605.15
649.233	593.14
649.43	578.8
649.627	580.16
649.824	618.52
650.021	581.32
650.217	572.6
650.414	618.72
650.611	648.94
650.808	638.28
651.004	639.25
651.201	628.4
651.398	679.75
651.595	636.93
651.791	605.54
651.988	621.04
652.185	615.42
652.381	628.21
652.578	592.95
652.775	631.31
652.971	623.37
653.168	589.85
653.364	656.69
653.561	587.13
653.757	589.07
653.954	608.25
654.15	601.67
654.347	643.13
654.543	634.22
654.74	563.3
654.936	561.37
655.133	566.4
655.329	586.75
655.525	606.51
655.722	585.97
655.918	561.17
656.115	616.97
656.311	487.74
656.507	490.07
656.704	478.06
656.9	514.09
657.096	516.61
657.292	510.6
657.489	559.24
657.685	571.05
657.881	540.83
658.077	529.4
658.273	506.92
658.47	607.87
658.666	531.92
658.862	574.35
659.058	510.02
659.254	582.1
659.45	522.04
659.646	562.92
659.842	547.8
660.038	594.69
660.234	520.87
660.43	572.02
660.626	602.05
660.822	580.35
661.018	576.48
661.214	562.72
661.41	502.47
661.606	552.26
661.802	570.28
661.998	533.85
662.194	501.89
662.39	561.17
662.586	549.35
662.781	554.2
662.977	532.69
663.173	556.91
663.369	527.65
663.564	557.88
663.76	554.97
663.956	528.82
664.152	553.23
664.347	478.44
664.543	533.08
664.739	493.17
664.934	470.11
665.13	445.89
665.326	529.2
665.521	517.58
665.717	489.87
665.912	469.53
666.108	438.14
666.304	475.15
666.499	473.6
666.695	414.12
666.89	464.69
667.086	528.24
667.281	508.28
667.477	524.17
667.672	465.27
667.867	462.75
668.063	477.86
668.258	449.19
668.454	473.99
668.649	563.3
668.844	467.79
669.04	499.17
669.235	473.79
669.43	463.52
669.626	418.96
669.821	455.97
670.016	414.51
670.211	463.52
670.407	424.39
670.602	438.34
670.797	454.03
670.992	494.14
671.187	431.36
671.382	468.56
671.578	424
671.773	474.18
671.968	424.58
672.163	447.44
672.358	483.09
672.553	438.53
672.748	425.16
672.943	534.63
673.138	446.86
673.333	456.55
673.528	393
673.723	449.96
673.918	450.35
674.113	418.96
674.308	522.23
674.503	447.25
674.698	486.97
674.892	455.58
675.087	493.94
675.282	463.52
675.477	426.71
675.672	467.21
675.867	428.65
676.061	440.47
676.256	392.03
676.451	445.89
676.646	423.61
676.84	406.95
677.035	394.36
677.23	401.52
677.424	460.23
677.619	478.64
677.814	464.49
678.008	456.55
678.203	420.9
678.397	415.47
678.592	440.86
678.787	477.86
678.981	428.84
679.176	449.96
679.37	451.71
679.565	412.18
679.759	424.97
679.954	465.85
680.148	482.12
680.342	481.16
680.537	491.81
680.731	435.82
680.926	462.56
681.12	440.08
681.314	403.85
681.509	444.92
681.703	415.67
681.897	467.98
682.092	413.34
682.286	431.17
682.48	481.35
682.674	483.09
682.869	457.13
683.063	443.37
683.257	518.74
683.451	412.18
683.645	449.38
683.839	437.56
684.034	471.08
684.228	518.35
684.422	419.93
684.616	448.8
684.81	489.1
685.004	483.87
685.198	476.7
685.392	497.04
685.586	423.03
685.78	482.32
685.974	515.45
686.168	492
686.362	539.28
686.556	445.7
686.75	437.37
686.944	444.54
687.138	462.36
687.331	369.75
687.525	394.55
687.719	350.76
687.913	395.52
688.107	403.27
688.301	384.09
688.494	433.3
688.688	376.14
688.882	366.07
689.076	384.67
689.269	446.09
689.463	473.21
689.657	431.56
689.85	436.01
690.044	467.98
690.238	473.02
690.431	457.32
690.625	447.64
690.818	529.4
691.012	489.1
691.205	530.37
691.399	502.66
691.593	542.38
691.786	595.27
691.98	603.02
692.173	632.67
692.366	640.8
692.56	628.6
692.753	681.1
692.947	605.73
693.14	671.41
693.333	665.6
693.527	636.93
693.72	655.92
693.914	660.76
694.107	681.3
694.3	704.74
694.493	661.92
694.687	767.32
694.88	700.86
695.073	765.58
695.266	797.93
695.46	753.56
695.653	833.58
695.846	815.18
696.039	789.21
696.232	826.22
696.425	885.12
696.618	885.31
696.812	912.24
697.005	959.13
697.198	1027.91
697.391	981.02
697.584	999.04
697.777	1020.16
697.97	1088.55
698.163	1067.05
698.356	1030.62
698.549	1130.01
698.742	1093.2
698.935	1046.7
699.127	1069.18
699.32	1091.07
699.513	1056
699.706	1127.3
699.899	1109.28
700.092	1108.9
700.285	1151.33
700.477	1113.35
700.67	1152.3
700.863	1190.46
701.056	1236.58
701.248	1213.33
701.441	1246.65
701.634	1199.57
701.826	1330.35
702.019	1227.66
702.212	1295.28
702.404	1246.07
702.597	1261.76
702.79	1303.22
702.982	1311.17
703.175	1384.02
703.367	1390.41
703.56	1388.67
703.752	1479.92
703.945	1459.38
704.137	1467.91
704.33	1459.97
704.522	1529.91
704.715	1542.11
704.907	1512.47
705.1	1548.12
705.292	1570.98
705.484	1556.84
705.677	1602.76
705.869	1623.1
706.061	1641.12
706.254	1679.09
706.446	1584.93
706.638	1635.89
706.831	1738.38
707.023	1661.46
707.215	1791.86
707.407	1723.07
707.599	1748.07
707.792	1795.73
707.984	1805.61
708.176	1820.14
708.368	1816.85
708.56	1824.6
708.752	1824.02
708.944	1816.46
709.136	1922.63
709.329	1895.32
709.521	2008.66
709.713	1954.8
709.905	1960.8
710.097	2019.9
710.289	1961.77
710.481	1969.33
710.672	1979.6
710.864	1993.93
711.056	2061.94
711.248	2039.27
711.44	2050.12
711.632	2021.45
711.824	2100.11
712.016	2155.71
712.207	2113.09
712.399	2154.16
712.591	2173.73
712.783	2149.51
712.975	2177.41
713.166	2149.51
713.358	2182.45
713.55	2190.97
713.741	2183.22
713.933	2269.64
714.125	2209.57
714.316	2213.84
714.508	2282.04
714.7	2247.94
714.891	2301.41
715.083	2333.57
715.274	2265.37
715.466	2309.94
715.657	2323.11
715.849	2250.45
716.04	2240.19
716.232	2215.58
716.423	2218.68
716.615	2175.28
716.806	2108.24
716.998	2094.49
717.189	1976.69
717.381	1958.28
717.572	1897.25
717.763	1922.83
717.955	1878.65
718.146	1822.85
718.337	1769.77
718.528	1739.93
718.72	1692.27
718.911	1743.03
719.102	1679.87
719.293	1754.27
719.485	1718.23
719.676	1682.97
719.867	1656.62
720.058	1690.91
720.249	1660.88
720.44	1689.75
720.632	1735.28
720.823	1812.97
721.014	1873.62
721.205	1968.36
721.396	1997.03
721.587	2128.59
721.778	2208.41
721.969	2195.62
722.16	2241.93
722.351	2268.47
722.542	2394.41
722.733	2413.01
722.924	2268.47
723.115	2375.81
723.305	2264.6
723.496	2309.94
723.687	2206.86
723.878	2229.34
724.069	2235.92
724.26	2219.07
724.45	2131.69
724.641	2143.51
724.832	2182.26
725.023	2154.74
725.213	2145.06
725.404	2159.39
725.595	2103.01
725.785	2143.31
725.976	2191.94
726.167	2157.07
726.357	2179.93
726.548	2266.54
726.739	2241.35
726.929	2276.03
727.12	2263.82
727.31	2317.3
727.501	2241.74
727.691	2220.04
727.882	2254.14
728.072	2328.92
728.263	2332.02
728.453	2340.74
728.644	2355.27
728.834	2334.15
729.024	2277.77
729.215	2278.74
729.405	2355.27
729.596	2408.75
729.786	2383.75
729.976	2449.24
730.167	2426.96
730.357	2422.89
730.547	2391.89
730.737	2456.99
730.928	2471.33
731.118	2495.16
731.308	2447.88
731.498	2515.31
731.688	2566.65
731.879	2561.03
732.069	2650.16
732.259	2662.17
732.449	2707.12
732.639	2769.7
732.829	2756.33
733.019	2828.6
733.209	2894.08
733.399	2913.07
733.589	2997.54
733.779	2983.01
733.969	3002
734.159	3104.49
734.349	3108.17
734.539	3139.95
734.729	3133.36
734.919	3176.95
735.109	3200.01
735.299	3157.19
735.488	3152.54
735.678	3169.98
735.868	3161.84
736.058	3155.45
736.248	3143.44
736.437	3128.9
736.627	3116.31
736.817	3259.1
737.007	3133.36
737.196	3212.22
737.386	3243.8
737.576	3171.53
737.765	3232.17
737.955	3221.52
738.144	3361.01
738.334	3307.35
738.524	3277.51
738.713	3279.06
738.903	3299.79
739.092	3352.88
739.282	3348.42
739.471	3350.16
739.661	3324.4
739.85	3363.34
740.04	3365.47
740.229	3429.21
740.419	3422.24
740.608	3401.89
740.797	3418.56
740.987	3477.26
741.176	3476.49
741.365	3454.4
741.555	3434.64
741.744	3504.77
741.933	3427.66
742.123	3495.47
742.312	3499.16
742.501	3530.54
742.69	3512.14
742.88	3448.98
743.069	3542.36
743.258	3529.57
743.447	3592.54
743.636	3561.15
743.825	3561.35
744.014	3583.44
744.204	3609.01
744.393	3573.75
744.582	3626.25
744.771	3627.8
744.96	3602.04
745.149	3617.34
745.338	3617.92
745.527	3604.36
745.716	3593.7
745.905	3585.18
746.094	3621.6
746.283	3645.24
746.471	3650.08
746.66	3687.67
746.849	3652.22
747.038	3683.41
747.227	3668.68
747.416	3642.53
747.604	3617.54
747.793	3598.16
747.982	3619.67
748.171	3631.87
748.359	3620.64
748.548	3637.49
748.737	3651.63
748.926	3638.07
749.114	3509.62
749.303	3628.58
749.491	3622.19
749.68	3578.98
749.869	3637.88
750.057	3602.42
750.246	3546.24
750.434	3553.02
750.623	3610.95
750.811	3571.42
751	3643.69
751.188	3586.73
751.377	3562.32
751.565	3567.35
751.754	3552.24
751.942	3500.71
752.131	3603.78
752.319	3527.44
752.507	3507.29
752.696	3560.38
752.884	3557.28
753.072	3515.04
753.261	3544.88
753.449	3541.97
753.637	3489.86
753.825	3596.8
754.014	3518.53
754.202	3564.64
754.39	3610.95
754.578	3605.33
754.766	3477.07
754.955	3494.51
755.143	3569.68
755.331	3539.26
755.519	3522.6
755.707	3508.46
755.895	3464.28
756.083	3472.81
756.271	3464.67
756.459	3456.53
756.647	3539.07
756.835	3430.96
757.023	3441.81
757.211	3420.11
757.399	3413.91
757.587	3448.59
757.775	3373.99
757.963	3421.66
758.151	3408.68
758.339	3335.63
758.526	3342.41
758.714	3394.92
758.902	3241.86
759.09	3180.83
759.278	2952.79
759.465	2691.81
759.653	2367.87
759.841	2166.17
760.028	1864.12
760.216	1569.24
760.404	1470.62
760.591	1233.09
760.779	1018.8
760.967	898.29
761.154	711.52
761.342	732.06
761.529	734.38
761.717	782.24
761.905	770.42
762.092	816.53
762.28	773.52
762.467	766.93
762.655	710.94
762.842	717.53
763.029	730.51
763.217	731.67
763.404	710.75
763.592	781.08
763.779	703.77
763.966	737.48
764.154	805.68
764.341	861.87
764.528	850.24
764.716	936.85
764.903	989.16
765.09	1029.65
765.277	1102.11
765.465	1241.61
765.652	1321.82
765.839	1408.82
766.026	1507.82
766.213	1564.4
766.4	1681.61
766.588	1880.98
766.775	1868.39
766.962	1968.75
767.149	2087.13
767.336	2234.18
767.523	2226.82
767.71	2339.58
767.897	2444.78
768.084	2560.64
768.271	2572.46
768.458	2642.02
768.645	2727.27
768.832	2669.72
769.019	2742.57
769.206	2742.77
769.392	2857.66
769.579	2956.86
769.766	2920.63
769.953	2876.65
770.14	2933.8
770.327	2943.1
770.513	2987.66
770.7	3022.15
770.887	2999.09
771.073	2991.54
771.26	3044.24
771.447	3022.92
771.634	2982.63
771.82	3085.89
772.007	2989.02
772.193	3059.16
772.38	3015.56
772.567	3045.01
772.753	3044.24
772.94	3082.21
773.126	3049.08
773.313	3055.47
773.499	3074.46
773.686	3092.29
773.872	2996.96
774.059	3039.59
774.245	3028.54
774.432	3023.31
774.618	2942.91
774.804	3001.61
774.991	2950.66
775.177	3022.15
775.363	2995.8
775.55	2974.68
775.736	2974.49
775.922	3002.58
776.109	2956.47
776.295	2965.77
776.481	2995.22
776.667	2985.14
776.853	2984.37
777.04	2988.44
777.226	2938.26
777.412	3001.61
777.598	2935.74
777.784	2936.32
777.97	2915.59
778.156	2943.88
778.342	2944.07
778.528	2939.23
778.715	2844.1
778.901	2912.68
779.087	2874.71
779.272	2891.37
779.458	2842.35
779.644	2891.95
779.83	2845.45
780.016	2961.12
780.202	2886.53
780.388	2858.82
780.574	2794.69
780.76	2829.95
780.946	2895.05
781.131	2844.48
781.317	2814.45
781.503	2804.18
781.689	2803.6
781.874	2933.8
782.06	2766.4
782.246	2813.68
782.432	2802.05
782.617	2807.09
782.803	2900.28
782.989	2757.1
783.174	2781.32
783.36	2720.29
783.545	2755.36
783.731	2746.45
783.916	2657.71
784.102	2735.21
784.288	2700.92
784.473	2705.76
784.659	2676.31
784.844	2737.34
785.029	2692.2
785.215	2681.74
785.4	2611.79
785.586	2720.49
785.771	2619.35
785.956	2704.79
786.142	2622.84
786.327	2677.28
786.512	2629.23
786.698	2623.81
786.883	2544.56
787.068	2601.72
787.254	2627.1
787.439	2605.4
787.624	2577.11
787.809	2573.04
787.994	2555.8
788.18	2614.12
788.365	2488.76
788.55	2493.61
788.735	2502.13
788.92	2527.32
789.105	2472.3
789.29	2560.64
789.475	2455.25
789.66	2447.5
789.845	2463.38
790.03	2423.47
790.215	2460.28
790.4	2510.46
790.585	2470.75
790.77	2431.41
790.955	2385.69
791.14	2461.83
791.325	2481.79
791.51	2354.11
791.695	2472.1
791.879	2456.99
792.064	2344.81
792.249	2513.56
792.434	2428.7
792.618	2397.32
792.803	2433.55
792.988	2401.97
793.173	2419.98
793.357	2465.71
793.542	2385.11
793.727	2447.5
793.911	2487.02
794.096	2421.15
794.281	2493.22
794.465	2520.54
794.65	2408.75
794.834	2500.39
795.019	2528.48
795.203	2490.51
795.388	2506.78
795.572	2498.84
795.757	2470.94
795.941	2453.7
796.126	2476.56
796.31	2432.77
796.494	2444.01
796.679	2394.99
796.863	2399.25
797.048	2499.03
797.232	2473.26
797.416	2459.12
797.601	2425.21
797.785	2522.67
797.969	2488.18
798.153	2459.12
798.338	2505.23
798.522	2495.74
798.706	2507.94
798.89	2492.64
799.074	2575.95
799.258	2561.42
799.443	2501.55
799.627	2484.5
799.811	2514.73
799.995	2455.63
800.179	2469
800.363	2473.65
800.547	2512.21
800.731	2510.08
800.915	2427.93
801.099	2425.8
801.283	2452.15
801.467	2432.19
801.651	2441.49
801.835	2486.05
802.019	2484.7
802.202	2475.59
802.386	2408.75
802.57	2377.17
802.754	2402.55
802.938	2434.13
803.121	2429.67
803.305	2487.8
803.489	2438.2
803.673	2484.7
803.856	2462.03
804.04	2424.83
804.224	2480.43
804.407	2435.87
804.591	2422.7
804.775	2435.1
804.958	2428.12
805.142	2518.41
805.326	2475.98
805.509	2441.68
805.693	2498.84
805.876	2491.48
806.06	2526.74
806.243	2525.38
806.427	2535.65
806.61	2548.05
806.794	2482.56
806.977	2495.74
807.16	2471.71
807.344	2484.31
807.527	2457.76
807.71	2472.3
807.894	2482.56
808.077	2503.1
808.26	2459.9
808.444	2429.86
808.627	2495.35
808.81	2407.97
808.993	2388.6
809.177	2383.17
809.36	2395.38
809.543	2401
809.726	2313.62
809.909	2357.98
810.092	2286.88
810.276	2343.07
810.459	2304.12
810.642	2291.72
810.825	2269.44
811.008	2289.4
811.191	2173.15
811.374	2178.77
811.557	2208.02
811.74	2275.25
811.923	2185.74
812.106	2145.64
812.289	2105.73
812.472	2113.86
812.654	2115.41
812.837	2090.23
813.02	2023.77
813.203	2004.78
813.386	1918.76
813.569	1901.52
813.751	1817.24
813.934	1904.81
814.117	1836.22
814.3	1824.79
814.482	1737.99
814.665	1713.39
814.848	1708.54
815.03	1635.69
815.213	1659.72
815.396	1646.16
815.578	1581.45
815.761	1585.13
815.943	1665.53
816.126	1539.6
816.309	1517.7
816.491	1506.85
816.674	1432.26
816.856	1467.13
817.039	1451.83
817.221	1504.53
817.403	1498.72
817.586	1489.8
817.768	1497.36
817.951	1397.39
818.133	1397.19
818.315	1464.23
818.498	1482.05
818.68	1536.5
818.862	1543.08
819.045	1569.05
819.227	1545.99
819.409	1489.61
819.591	1518.28
819.774	1508.02
819.956	1476.43
820.138	1555.48
820.32	1567.5
820.502	1604.5
820.684	1649.64
820.866	1671.93
821.048	1733.73
821.231	1739.35
821.413	1712.61
821.595	1691.88
821.777	1711.45
821.959	1690.53
822.141	1742.64
822.323	1608.76
822.505	1588.23
822.686	1502.2
822.868	1475.85
823.05	1329.38
823.232	1320.47
823.414	1227.66
823.596	1347.4
823.778	1330.35
823.96	1357.09
824.141	1358.64
824.323	1386.34
824.505	1486.32
824.687	1499.3
824.868	1563.04
825.05	1645.58
825.232	1676.19
825.413	1746.52
825.595	1663.59
825.777	1591.13
825.958	1671.73
826.14	1658.94
826.321	1705.06
826.503	1683.74
826.685	1687.81
826.866	1660.49
827.048	1686.46
827.229	1652.74
827.411	1597.53
827.592	1564.2
827.773	1597.14
827.955	1507.05
828.136	1525.65
828.318	1513.83
828.499	1512.28
828.68	1475.66
828.862	1499.3
829.043	1517.9
829.224	1480.5
829.406	1481.28
829.587	1468.1
829.768	1504.53
829.949	1493.48
830.131	1466.36
830.312	1580.67
830.493	1520.61
830.674	1514.99
830.855	1493.87
831.036	1483.41
831.218	1538.63
831.399	1579.7
831.58	1551.8
831.761	1515.77
831.942	1536.69
832.123	1517.32
832.304	1469.07
832.485	1488.25
832.666	1504.72
832.847	1518.09
833.028	1518.09
833.209	1518.48
833.389	1482.83
833.57	1462.68
833.751	1455.9
833.932	1547.93
834.113	1496
834.294	1487.87
834.475	1555.87
834.655	1536.69
834.836	1566.33
835.017	1551.61
835.198	1515.96
835.378	1527
835.559	1578.54
835.74	1512.86
835.92	1536.5
836.101	1525.65
836.281	1562.65
836.462	1601.21
836.643	1573.11
836.823	1583.19
837.004	1610.51
837.184	1619.23
837.365	1629.11
837.545	1598.5
837.726	1591.71
837.906	1627.17
838.087	1569.05
838.267	1564.98
838.448	1545.99
838.628	1579.51
838.808	1577.76
838.989	1612.83
839.169	1546.38
839.349	1609.93
839.53	1623.88
839.71	1592.68
839.89	1550.64
840.07	1673.86
840.251	1553.35
840.431	1633.37
840.611	1587.84
840.791	1559.75
840.971	1600.05
841.151	1578.35
841.332	1559.55
841.512	1638.79
841.692	1508.21
841.872	1551.22
842.052	1575.63
842.232	1595.78
842.412	1535.92
842.592	1572.15
842.772	1584.16
842.952	1569.63
843.132	1563.43
843.312	1552.38
843.492	1516.15
843.672	1581.64
843.851	1491.93
844.031	1549.67
844.211	1514.99
844.391	1502.98
844.571	1570.21
844.751	1535.53
844.93	1552.38
845.11	1552.96
845.29	1550.25
845.47	1548.9
845.649	1524.87
845.829	1596.75
846.009	1533.4
846.188	1552.38
846.368	1548.7
846.547	1536.5
846.727	1581.83
846.907	1539.21
847.086	1532.82
847.266	1555.1
847.445	1539.98
847.625	1512.86
847.804	1490.77
847.984	1528.17
848.163	1477.6
848.343	1483.99
848.522	1514.8
848.701	1522.93
848.881	1477.02
849.06	1488.64
849.239	1484.57
849.419	1500.46
849.598	1444.47
849.777	1442.72
849.957	1402.81
850.136	1390.41
850.315	1348.95
850.494	1374.91
850.674	1333.06
850.853	1444.47
851.032	1401.07
851.211	1401.65
851.39	1410.56
851.569	1352.63
851.748	1355.92
851.927	1404.94
852.107	1415.21
852.286	1344.88
852.465	1379.37
852.644	1420.64
852.823	1404.36
853.002	1378.98
853.181	1404.36
853.359	1430.13
853.538	1335.39
853.717	1400.87
853.896	1289.27
854.075	1213.13
854.254	1216.43
854.433	1143.19
854.611	1215.65
854.79	1167.02
854.969	1214.68
855.148	1224.18
855.327	1228.63
855.505	1263.31
855.684	1206.35
855.863	1297.99
856.041	1205.77
856.22	1287.53
856.399	1250.53
856.577	1366
856.756	1342.17
856.934	1412.11
857.113	1405.14
857.291	1346.04
857.47	1339.07
857.648	1331.9
857.827	1345.66
858.005	1372.78
858.184	1305.94
858.362	1383.44
858.541	1322.41
858.719	1350.69
858.898	1272.81
859.076	1304.39
859.254	1379.56
859.433	1317.37
859.611	1302.84
859.789	1267.58
859.967	1334.42
860.146	1359.99
860.324	1275.91
860.502	1299.16
860.68	1229.6
860.859	1237.35
861.037	1271.84
861.215	1281.14
861.393	1262.34
861.571	1259.83
861.749	1255.18
861.927	1294.31
862.105	1260.6
862.283	1282.49
862.461	1216.04
862.639	1234.44
862.817	1250.33
862.995	1278.23
863.173	1257.31
863.351	1249.75
863.529	1279.59
863.707	1293.54
863.885	1267.96
864.063	1213.52
864.241	1230.18
864.418	1267.96
864.596	1200.34
864.774	1201.12
864.952	1191.43
865.129	1249.36
865.307	1192.21
865.485	1140.09
865.663	1230.76
865.84	1150.75
866.018	1155.59
866.196	1030.62
866.373	1037.02
866.551	1003.89
866.728	997.88
866.906	1062.78
867.084	1066.08
867.261	1067.82
867.439	1117.42
867.616	1160.82
867.794	1109.86
867.971	1112
868.149	1138.35
868.326	1187.75
868.503	1136.6
868.681	1146.68
868.858	1120.52
869.035	1095.72
869.213	1159.85
869.39	1111.61
869.567	1185.04
869.745	1110.64
869.922	1141.25
870.099	1165.86
870.276	1151.52
870.454	1166.25
870.631	1148.03
870.808	1105.41
870.985	1148.03
871.162	1196.86
871.339	1140.09
871.517	1062.78
871.694	1103.86
871.871	1113.35
872.048	1082.35
872.225	1068.79
872.402	1124.78
872.579	1072.08
872.756	1114.32
872.933	1061.62
873.11	1093.98
873.287	1077.32
873.463	1087.2
873.64	1040.89
873.817	1108.9
873.994	1060.07
874.171	1066.66
874.348	1098.05
874.524	1034.69
874.701	1078.87
874.878	1022.68
875.055	1065.69
875.231	1047.28
875.408	1078.09
875.585	988.97
875.762	1035.85
875.938	1022.1
876.115	1013.96
876.291	1010.86
876.468	1011.25
876.645	964.75
876.821	1019.58
876.998	997.3
877.174	991.87
877.351	1012.6
877.527	978.89
877.704	1017.45
877.88	1019.97
878.057	963.97
878.233	1076.15
878.409	988.39
878.586	1018.22
878.762	974.44
878.938	997.88
879.115	927.94
879.291	989.74
879.467	935.1
879.644	919.8
879.82	1017.06
879.996	963.97
880.172	936.85
880.349	929.68
880.525	987.42
880.701	924.45
880.877	918.44
881.053	966.88
881.229	925.42
881.405	980.64
881.581	935.88
881.757	942.85
881.933	951.19
882.109	975.6
882.285	939.56
882.461	899.07
882.637	948.86
882.813	914.76
882.989	930.84
883.165	982.57
883.341	935.49
883.517	983.54
883.693	922.9
883.869	972.11
884.044	935.88
884.22	959.32
884.396	974.82
884.572	959.52
884.747	962.23
884.923	983.93
885.099	951.96
885.275	949.25
885.45	922.32
885.626	921.16
885.801	907.59
885.977	922.12
886.153	866.71
886.328	938.01
886.504	905.66
886.679	938.59
886.855	904.88
887.03	934.72
887.206	969.4
887.381	924.64
887.557	986.25
887.732	955.45
887.908	950.6
888.083	975.79
888.258	910.31
888.434	914.57
888.609	936.46
888.784	966.69
888.96	936.85
889.135	903.91
889.31	915.73
889.485	945.37
889.661	941.11
889.836	920.57
890.011	970.56
890.186	922.51
890.361	912.44
890.537	929.87
890.712	919.02
890.887	929.29
891.062	930.26
891.237	1009.12
891.412	903.72
891.587	919.99
891.762	963
891.937	976.95
892.112	885.31
892.287	911.08
892.462	894.61
892.637	824.48
892.812	820.99
892.987	839.39
893.161	838.42
893.336	842.88
893.511	845.59
893.686	871.36
893.861	856.83
894.035	836.68
894.21	813.82
894.385	813.43
894.56	837.07
894.734	743.88
894.909	749.88
895.084	735.74
895.258	752.21
895.433	764.8
895.608	731.28
895.782	657.27
895.957	693.89
896.131	716.56
896.306	641.97
896.48	661.15
896.655	641.58
896.829	582.68
897.004	593.72
897.178	635.77
897.353	591.01
897.527	640.22
897.701	610.77
897.876	579.38
898.05	682.26
898.224	594.88
898.399	649.52
898.573	582.29
898.747	515.45
898.921	570.67
899.096	466.43
899.27	481.93
899.444	467.59
899.618	489.49
899.792	522.04
899.967	543.35
900.141	576.09
900.315	496.65
900.489	496.27
900.663	547.22
900.837	539.09
901.011	471.27
901.185	571.05
901.359	519.71
901.533	525.33
901.707	529.4
901.881	530.37
902.055	483.67
902.229	511.96
902.403	576.67
902.576	521.65
902.75	504.02
902.924	609.61
903.098	551.68
903.272	613.87
903.446	663.28
903.619	643.13
903.793	655.14
903.967	636.93
904.14	692.73
904.314	678.39
904.488	666.38
904.661	705.9
904.835	657.85
905.009	704.35
905.182	737.87
905.356	686.91
905.529	645.45
905.703	610.58
905.876	658.63
906.05	618.91
906.223	579.58
906.397	558.46
906.57	541.99
906.744	530.56
906.917	496.65
907.09	522.23
907.264	528.43
907.437	484.45
907.61	417.61
907.784	464.3
907.957	500.72
908.13	442.6
908.304	534.44
908.477	442.6
908.65	464.69
908.823	435.62
908.996	511.38
909.17	444.15
909.343	420.12
909.516	462.56
909.689	456.94
909.862	428.07
910.035	435.24
910.208	399.78
910.381	431.17
910.554	520.68
910.727	474.57
910.9	425.94
911.073	424.58
911.246	525.33
911.419	504.99
911.592	474.96
911.765	443.37
911.938	419.54
912.11	445.7
912.283	477.86
912.456	515.45
912.629	458.87
912.802	454.42
912.974	374.4
913.147	366.65
913.32	308.91
913.493	353.09
913.665	383.51
913.838	400.17
914.01	390.87
914.183	404.62
914.356	369.94
914.528	429.42
914.701	452.48
914.873	429.81
915.046	393.78
915.218	347.66
915.391	298.84
915.563	309.11
915.736	395.52
915.908	413.34
916.081	415.09
916.253	376.14
916.425	379.83
916.598	400.56
916.77	362.39
916.942	379.83
917.115	301.75
917.287	374.79
917.459	339.72
917.632	309.88
917.804	292.83
917.976	356.77
918.148	347.66
918.32	385.44
918.493	393.97
918.665	454.81
918.837	383.31
919.009	431.94
919.181	422.45
919.353	449.38
919.525	375.76
919.697	441.24
919.869	416.83
920.041	449.57
920.213	516.8
920.385	447.44
920.557	434.66
920.729	428.65
920.901	437.56
921.073	398.81
921.244	397.46
921.416	455.39
921.588	425.36
921.76	416.25
921.932	504.79
922.103	423.22
922.275	418.19
922.447	428.46
922.619	363.74
922.79	400.75
922.962	394.74
923.134	421.48
923.305	368.98
923.477	351.34
923.648	366.26
923.82	374.59
923.991	316.66
924.163	311.63
924.335	343.59
924.506	330.42
924.677	372.27
924.849	353.28
925.02	349.79
925.192	374.01
925.363	323.44
925.535	332.74
925.706	328.48
925.877	376.53
926.049	354.25
926.22	319.76
926.391	353.28
926.562	381.76
926.734	331.78
926.905	380.21
927.076	297.68
927.247	348.83
927.419	280.82
927.59	295.16
927.761	285.86
927.932	267.45
928.103	270.55
928.274	244.78
928.445	236.26
928.616	244.98
928.787	225.22
928.958	252.15
929.129	245.36
929.3	245.36
929.471	201.38
929.642	163.6
929.813	130.47
929.984	214.95
930.155	142.68
930.326	192.67
930.496	157.02
930.667	112.26
930.838	147.72
931.009	135.7
931.18	127.37
931.35	139.77
931.521	121.56
931.692	92.11
931.863	48.71
932.033	120.98
932.204	100.25
932.374	94.63
932.545	57.62
932.716	124.08
932.886	91.53
933.057	36.89
933.227	31.86
933.398	99.28
933.568	62.66
933.739	23.72
933.909	13.64
934.08	75.45
934.25	4.92
934.421	12.67
934.591	60.53
934.761	23.33
934.932	6.67
935.102	-1.66
935.272	29.72
935.443	12.09
935.613	20.23
935.783	49.87
935.953	-22.39
936.123	181.62
936.294	-9.41
936.464	32.44
936.634	41.54
936.804	17.32
936.974	-23.17
937.144	62.08
937.314	15.77
937.484	22.17
937.655	3.57
937.825	66.73
937.995	11.9
938.165	79.32
938.334	44.45
938.504	46.39
938.674	20.81
938.844	32.05
939.014	66.54
939.184	71.77
939.354	108.39
939.524	78.74
939.694	76.8
939.863	73.51
940.033	136.48
940.203	114.59
940.373	99.47
940.542	95.02
940.712	59.95
940.882	107.42
941.051	127.57
941.221	93.85
941.391	114.78
941.56	83.59
941.73	66.15
941.899	166.12
942.069	76.61
942.238	92.69
942.408	61.69
942.577	101.99
942.747	60.14
942.916	39.02
943.086	49.68
943.255	103.74
943.425	80.29
943.594	31.47
943.763	-6.51
943.933	28.56
944.102	-14.26
944.271	53.94
944.441	61.3
944.61	47.55
944.779	64.4
944.948	117.3
945.117	29.14
945.287	56.85
945.456	6.09
945.625	16.55
945.794	77.58
945.963	21.2
946.132	65.76
946.301	36.7
946.47	68.28
946.639	8.8
946.808	30.69
946.977	68.86
947.146	104.51
947.315	28.37
947.484	90.56
947.653	54.14
947.822	18.68
947.991	16.36
948.16	108
948.329	83.2
948.498	62.85
948.666	50.26
948.835	89.4
949.004	11.51
949.173	10.16
949.341	27.79
949.51	56.07
949.679	93.85
949.847	52.39
950.016	105.29
950.185	107.61
950.353	22.56
950.522	48.71
950.69	84.75
950.859	34.18
951.028	88.82
951.196	81.07
951.365	48.13
951.533	39.22
951.701	85.52
951.87	75.25
952.038	4.92
952.207	55.1
952.375	94.63
952.543	39.99
952.712	40.96
952.88	23.14
953.048	90.75
953.217	55.49
953.385	43.87
953.553	102.96
953.721	15.19
953.89	59.17
954.058	11.32
954.226	31.08
954.394	57.43
954.562	11.32
954.73	53.75
954.898	33.99
955.067	57.43
955.235	49.29
955.403	85.52
955.571	107.8
955.739	73.12
955.907	22.75
956.075	53.55
956.243	15
956.41	78.94
956.578	28.17
956.746	-2.63
956.914	20.42
957.082	98.7
957.25	71.57
957.418	19.07
957.585	89.01
957.753	67.31
957.921	42.32
958.089	42.51
958.256	77.58
958.424	64.6
958.592	66.92
958.759	52
958.927	98.31
959.095	33.41
959.262	39.22
959.43	56.07
959.597	32.24
959.765	57.82
959.932	8.99
960.1	73.7
960.267	54.91
960.435	49.49
960.602	93.47
960.77	60.92
960.937	1.05
961.104	68.86
961.272	15.58
961.439	50.07
961.606	57.04
961.774	92.3
961.941	40.19
962.108	61.11
962.275	67.5
962.443	101.99
962.61	66.73
962.777	142.48
962.944	74.48
963.111	66.73
963.278	72.93
963.446	55.49
963.613	74.67
963.78	61.69
963.947	64.99
964.114	70.8
964.281	130.67
964.448	82.42
964.615	60.14
964.782	59.95
964.949	103.15
965.116	120.4
965.282	111.87
965.449	66.34
965.616	35.54
965.783	105.29
965.95	73.7
966.117	37.09
966.283	54.14
966.45	102.96
966.617	89.2
966.784	115.17
966.95	107.22
967.117	99.67
967.284	47.16
967.45	65.57
967.617	106.84
967.784	94.63
967.95	131.44
968.117	72.15
968.283	120.4
968.45	168.83
968.616	115.36
968.783	134.74
968.949	100.44
969.116	130.28
969.282	99.28
969.449	112.84
969.615	77.97
969.781	72.93
969.948	85.33
970.114	36.31
970.28	154.88
970.447	100.25
970.613	150.04
970.779	88.43
970.945	103.74
971.112	106.84
971.278	93.66
971.444	114.2
971.61	134.15
971.776	50.65
971.942	104.9
972.108	103.35
972.275	104.9
972.441	124.85
972.607	142.48
972.773	83.59
972.939	99.09
973.105	79.52
973.271	70.22
973.437	85.33
973.602	80.29
973.768	93.66
973.934	76.22
974.1	116.91
974.266	23.91
974.432	71.57
974.598	62.08
974.763	132.8
974.929	56.07
975.095	131.83
975.261	33.21
975.426	60.53
975.592	53.17
975.758	122.34
975.923	30.69
976.089	63.82
976.255	96.95
976.42	58.98
976.586	100.25
976.751	89.79
976.917	158.37
977.082	109.55
977.248	67.12
977.413	46.77
977.579	80.1
977.744	85.91
977.91	57.04
978.075	55.88
978.24	110.32
978.406	45.42
978.571	71.38
978.736	39.61
978.902	116.33
979.067	38.25
979.232	24.49
979.397	72.54
979.563	127.95
979.728	47.16
979.893	51.81
980.058	49.68
980.223	134.15
980.388	99.09
980.554	79.32
980.719	81.07
980.884	99.09
981.049	111.29
981.214	57.82
981.379	85.14
981.544	68.86
981.709	60.34
981.874	65.95
982.039	66.34
982.204	74.48
982.368	72.74
982.533	88.04
982.698	87.07
982.863	114.39
983.028	79.13
983.193	109.55
983.357	76.22
983.522	93.66
983.687	49.68
983.852	80.1
984.016	67.12
984.181	69.25
984.346	100.83
984.51	103.54
984.675	58.79
984.839	94.63
985.004	106.25
985.168	92.11
985.333	128.54
985.498	64.6
985.662	95.21
985.827	101.41
985.991	56.46
986.155	49.68
986.32	102.96
986.484	120.4
986.649	103.15
986.813	31.86
986.977	80.49
987.142	98.31
987.306	36.7
987.47	53.17
987.634	48.71
987.799	89.01
987.963	79.32
988.127	124.08
988.291	135.32
988.455	79.13
988.62	65.95
988.784	89.2
988.948	108.39
989.112	58.4
989.276	71.38
989.44	77.19
989.604	55.1
989.768	56.85
989.932	158.95
990.096	48.91
990.26	45.81
990.424	45.61
990.588	74.48
990.752	114.97
990.915	88.62
991.079	72.74
991.243	76.03
991.407	82.23
991.571	55.3
991.734	109.16
991.898	106.84
992.062	151.4
992.226	57.43
992.389	48.91
992.553	21.59
992.717	52.97
992.88	53.17
993.044	65.76
993.207	55.3
993.371	90.56
993.535	100.83
993.698	80.68
993.862	104.9
994.025	114.2
994.189	81.45
994.352	73.12
994.515	83
994.679	82.42
994.842	58.4
995.006	102.19
995.169	37.67
995.332	63.05
995.496	75.84
995.659	26.04
995.822	44.84
995.985	56.85
996.149	105.87
996.312	75.45
996.475	133.38
996.638	38.83
996.801	118.27
996.964	106.45
997.128	75.84
997.291	51.04
997.454	75.25
997.617	25.85
997.78	107.8
997.943	38.44
998.106	107.22
998.269	38.64
998.432	49.29
998.595	58.01
998.758	44.84
998.92	35.34
999.083	-7.67
999.246	45.03
999.409	22.56
999.572	2.41
999.735	50.84
999.897	86.1
1000.06	66.15
1000.223	31.86
1000.386	63.05
1000.548	78.16
1000.711	56.46
1000.874	73.12
1001.036	11.51
1001.199	66.73
1001.361	27.79
1001.524	64.4
1001.687	92.3
1001.849	24.69
1002.012	99.28
1002.174	44.26
1002.337	84.55
1002.499	57.82
1002.661	61.11
1002.824	27.4
1002.986	38.06
1003.149	26.43
1003.311	29.14
1003.473	103.93
1003.636	38.25
1003.798	67.5
1003.96	56.46
1004.123	61.69
1004.285	11.12
1004.447	52.78
1004.609	14.03
1004.771	111.1
1004.933	22.17
1005.096	31.27
1005.258	-0.31
1005.42	2.79
1005.582	68.67
1005.744	44.26
1005.906	10.35
1006.068	45.81
1006.23	-9.8
1006.392	-7.09
1006.554	38.06
1006.716	63.05
1006.878	57.62
1007.04	8.99
1007.202	34.37
1007.363	41.54
1007.525	40.96
1007.687	38.64
1007.849	74.29
1008.011	-4.76
1008.172	2.79
1008.334	19.46
1008.496	83.78
1008.658	-2.05
1008.819	16.16
1008.981	-8.44
1009.143	23.52
1009.304	29.53
1009.466	61.11
1009.627	72.93
1009.789	116.52
1009.95	55.1
1010.112	27.21
1010.273	67.89
1010.435	54.33
1010.596	32.24
1010.758	50.46
1010.919	1.44
1011.081	0.66
1011.242	35.34
1011.403	49.1
1011.565	43.87
1011.726	42.51
1011.887	-11.35
1012.049	14.61
1012.21	44.84
1012.371	71.57
1012.532	-23.56
1012.693	12.87
1012.855	15.77
1013.016	21.97
1013.177	83.2
1013.338	20.42
1013.499	72.74
1013.66	52.39
1013.821	58.4
1013.982	56.65
1014.143	21.01
1014.304	26.04
1014.465	52.97
1014.626	47.94
1014.787	-0.69
1014.948	94.24
1015.109	-18.71
1015.27	67.7
1015.431	-4.57
1015.592	27.79
1015.752	72.93
1015.913	3.96
1016.074	31.66
1016.235	24.69
1016.395	13.64
1016.556	18.49
1016.717	14.61
1016.877	77.58
1017.038	5.89
1017.199	36.7
1017.359	42.32
1017.52	49.1
1017.681	17.91
1017.841	55.3
1018.002	15.77
1018.162	2.6
1018.323	79.9
1018.483	14.22
1018.644	12.48
1018.804	-17.55
1018.964	3.18
1019.125	10.93
1019.285	35.54
1019.446	8.61
1019.606	-11.54
1019.766	-10.58
1019.926	55.88
1020.087	-4.96
1020.247	5.12
1020.407	32.63
1020.567	48.71
1020.728	27.98
1020.888	-6.89
1021.048	-7.09
1021.208	-12.13
1021.368	-3.99
1021.528	66.73
1021.688	44.06
1021.848	64.6
1022.008	23.72
1022.168	9.19
1022.328	6.86
1022.488	38.64
1022.648	12.09
1022.808	33.02
1022.968	52.39
1023.128	-6.89
1023.288	8.61
1023.448	5.12
1023.608	37.28
1023.767	45.61
1023.927	-11.16
1024.087	-27.24
1024.247	-17.74
1024.406	5.51
1024.566	-6.51
1024.726	-19.88
1024.885	36.31
1025.045	45.61
1025.205	17.13
1025.364	4.73
1025.524	30.31
1025.683	2.79
1025.843	35.73
1026.003	6.09
1026.162	90.17
1026.321	42.12
1026.481	25.46
1026.64	-0.69
1026.8	30.31
1026.959	14.03
1027.119	6.28
1027.278	3.76
1027.437	18.68
1027.597	3.76
1027.756	31.66
1027.915	24.88
1028.074	9.96
1028.234	-1.28
1028.393	15.77
1028.552	-11.35
1028.711	-52.04
1028.87	12.29
1029.03	-22.2
1029.189	-4.57
1029.348	-45.64
1029.507	-21.81
1029.666	-8.64
1029.825	3.76
1029.984	-30.92
1030.143	41.74
1030.302	-11.35
1030.461	-48.16
1030.62	-7.67
1030.779	42.12
1030.938	-17.36
1031.097	5.31
1031.255	40.38
1031.414	53.17
1031.573	34.18
1031.732	-37.89
1031.891	9.57
1032.049	58.2
1032.208	21.39
1032.367	5.51
1032.525	6.67
1032.684	-7.09
1032.843	43.29
1033.001	-28.21
1033.16	137.45
1033.319	44.45
1033.477	30.11
1033.636	-20.07
1033.794	-42.16
1033.953	25.85
1034.111	24.3
1034.27	-4.96
1034.428	5.7
1034.587	-23.36
1034.745	20.04
1034.903	-3.79
1035.062	42.51
1035.22	-34.79
1035.378	39.02
1035.537	-31.31
1035.695	7.44
1035.853	-0.5
1036.011	22.56
1036.17	4.15
1036.328	-51.26
1036.486	32.63
1036.644	-5.34
1036.802	-94.86
1036.96	-7.86
1037.119	-2.44
1037.277	-17.16
1037.435	-34.79
1037.593	-32.66
1037.751	4.34
1037.909	18.68
1038.067	18.68
