Data from gum_young_FLMT105791__36__17-38-35-044.txt Node

Date: Mon Mar 20 17:38:35 GMT 2023
User: antho
Spectrometer: FLMT10579
Trigger mode: 0
Integration Time (sec): 1.000000E-1
Scans to average: 10
Electric dark correction enabled: true
Nonlinearity correction enabled: false
Boxcar width: 0
XAxis mode: Wavelengths
Number of Pixels in Spectrum: 3648
>>>>>Begin Spectral Data<<<<<
345.248	-169.45
345.464	-169.45
345.681	-169.45
345.898	-132.05
346.114	-131.86
346.331	-44.29
346.548	30.11
346.764	7.83
346.981	-17.16
347.197	-4.96
347.414	15.58
347.631	-14.45
347.847	47.16
348.064	15
348.28	8.61
348.497	-35.76
348.713	-7.67
348.93	43.67
349.146	31.66
349.363	-4.96
349.579	3.57
349.796	5.89
350.012	-3.41
350.229	53.17
350.445	9.77
350.661	6.86
350.878	8.8
351.094	37.67
351.311	41.35
351.527	11.51
351.743	6.28
351.96	27.79
352.176	36.51
352.392	32.63
352.609	46.39
352.825	1.05
353.041	8.8
353.257	-5.34
353.474	-0.89
353.69	12.29
353.906	-4.96
354.122	-24.72
354.339	58.01
354.555	16.55
354.771	-15.42
354.987	36.12
355.203	36.12
355.42	16.94
355.636	-6.31
355.852	-55.33
356.068	3.57
356.284	-22.78
356.5	50.84
356.716	30.69
356.932	-14.84
357.148	28.76
357.364	19.84
357.58	46
357.796	46.77
358.012	42.9
358.228	34.57
358.444	-20.07
358.66	42.71
358.876	10.74
359.092	-25.49
359.308	1.44
359.524	71.77
359.74	-2.44
359.956	-11.74
360.172	27.79
360.388	58.4
360.604	-5.73
360.819	83.97
361.035	1.44
361.251	46.58
361.467	-3.41
361.683	48.32
361.898	27.98
362.114	54.72
362.33	5.89
362.546	51.42
362.762	13.06
362.977	6.09
363.193	-22.98
363.409	26.62
363.624	-20.65
363.84	2.41
364.056	-28.4
364.271	35.54
364.487	13.45
364.703	0.08
364.918	-3.99
365.134	2.79
365.35	6.47
365.565	86.1
365.781	32.63
365.996	28.76
366.212	59.95
366.427	26.04
366.643	19.84
366.858	1.63
367.074	-15.61
367.289	64.6
367.505	106.45
367.72	7.25
367.936	-1.86
368.151	50.46
368.367	5.51
368.582	36.31
368.798	8.99
369.013	63.24
369.228	25.07
369.444	23.14
369.659	38.44
369.874	39.41
370.09	65.37
370.305	-16.39
370.52	15.19
370.736	61.89
370.951	21.2
371.166	62.47
371.381	55.88
371.597	30.5
371.812	-15.23
372.027	-22.98
372.242	36.7
372.458	85.72
372.673	36.31
372.888	28.17
373.103	14.22
373.318	86.69
373.533	37.67
373.749	47.36
373.964	-24.72
374.179	41.35
374.394	27.59
374.609	50.46
374.824	-4.57
375.039	31.66
375.254	-5.93
375.469	44.64
375.684	42.32
375.899	64.79
376.114	14.22
376.329	37.28
376.544	44.84
376.759	58.01
376.974	17.91
377.189	35.15
377.404	21.78
377.619	56.65
377.834	-17.55
378.049	4.34
378.264	-11.35
378.478	21.97
378.693	-6.7
378.908	33.6
379.123	26.04
379.338	46.19
379.553	32.44
379.767	18.87
379.982	39.02
380.197	33.02
380.412	32.82
380.626	30.5
380.841	106.06
381.056	52.39
381.271	82.81
381.485	5.12
381.7	-22.78
381.915	31.47
382.129	10.35
382.344	19.84
382.559	20.62
382.773	52.39
382.988	-20.65
383.202	28.76
383.417	12.29
383.632	103.54
383.846	33.6
384.061	36.31
384.275	22.94
384.49	33.6
384.704	54.91
384.919	49.1
385.133	27.21
385.348	36.51
385.562	-8.64
385.777	78.55
385.991	24.11
386.206	13.45
386.42	12.87
386.634	54.52
386.849	35.15
387.063	14.81
387.277	39.22
387.492	15
387.706	-2.44
387.92	13.26
388.135	45.22
388.349	29.72
388.563	22.36
388.778	43.87
388.992	55.1
389.206	30.31
389.42	88.82
389.635	38.25
389.849	44.84
390.063	83.97
390.277	67.12
390.491	90.95
390.706	44.26
390.92	46.97
391.134	23.14
391.348	39.8
391.562	-27.82
391.776	34.57
391.99	22.36
392.205	79.13
392.419	18.1
392.633	40.38
392.847	58.2
393.061	19.46
393.275	95.6
393.489	50.65
393.703	38.64
393.917	62.66
394.131	34.18
394.345	55.3
394.559	48.32
394.773	30.11
394.986	66.92
395.2	23.33
395.414	63.44
395.628	-9.99
395.842	47.36
396.056	11.9
396.27	-10.38
396.484	50.26
396.697	41.54
396.911	63.24
397.125	67.7
397.339	61.5
397.553	57.04
397.766	108
397.98	70.41
398.194	66.92
398.408	42.51
398.621	76.03
398.835	70.8
399.049	69.83
399.262	115.17
399.476	70.8
399.69	74.48
399.903	139.77
400.117	45.03
400.331	93.27
400.544	29.14
400.758	158.95
400.971	65.57
401.185	106.84
401.398	22.75
401.612	104.7
401.826	64.02
402.039	105.67
402.253	61.3
402.466	106.25
402.68	64.79
402.893	87.07
403.106	92.69
403.32	68.47
403.533	80.68
403.747	54.14
403.96	83
404.174	90.75
404.387	38.44
404.6	86.69
404.814	90.56
405.027	47.55
405.24	115.75
405.454	59.37
405.667	107.61
405.88	27.01
406.094	86.69
406.307	128.34
406.52	78.94
406.733	57.43
406.947	31.86
407.16	108.58
407.373	100.64
407.586	50.26
407.799	45.03
408.012	120.01
408.226	53.75
408.439	106.45
408.652	41.35
408.865	75.25
409.078	129.7
409.291	112.26
409.504	64.21
409.717	124.27
409.93	105.09
410.143	112.65
410.357	39.99
410.57	34.96
410.783	80.49
410.996	96.37
411.209	71.77
411.421	134.74
411.634	90.75
411.847	64.99
412.06	107.22
412.273	98.31
412.486	91.92
412.699	178.33
412.912	78.35
413.125	117.69
413.338	110.13
413.55	120.79
413.763	101.22
413.976	96.95
414.189	81.26
414.402	102.38
414.615	135.9
414.827	100.05
415.04	150.62
415.253	124.08
415.466	139.58
415.678	170.38
415.891	114
416.104	96.18
416.316	95.6
416.529	94.44
416.742	110.52
416.954	121.95
417.167	111.49
417.38	105.29
417.592	154.5
417.805	61.11
418.017	70.6
418.23	152.56
418.442	97.54
418.655	81.07
418.868	134.54
419.08	152.75
419.293	130.09
419.505	122.72
419.718	117.3
419.93	155.66
420.142	98.5
420.355	138.8
420.567	155.85
420.78	126.02
420.992	129.89
421.205	186.66
421.417	62.85
421.629	112.45
421.842	70.99
422.054	108.39
422.266	121.75
422.479	163.99
422.691	115.36
422.903	130.28
423.115	117.1
423.328	113.23
423.54	132.02
423.752	130.47
423.964	94.05
424.177	118.07
424.389	123.89
424.601	212.04
424.813	119.62
425.025	185.88
425.238	144.81
425.45	128.73
425.662	122.53
425.874	378.86
426.086	133.38
426.298	149.27
426.51	136.29
426.722	119.62
426.934	109.35
427.146	158.18
427.358	101.22
427.57	165.93
427.782	100.05
427.994	130.86
428.206	133.57
428.418	77.77
428.63	175.81
428.842	192.67
429.054	153.53
429.266	156.43
429.478	138.03
429.69	130.67
429.902	94.82
430.114	185.5
430.325	125.05
430.537	139.19
430.749	119.82
430.961	88.04
431.173	118.27
431.384	138.61
431.596	52.39
431.808	124.27
432.02	144.03
432.231	184.14
432.443	178.72
432.655	159.92
432.867	114.97
433.078	165.35
433.29	203.52
433.502	171.16
433.713	187.82
433.925	153.53
434.136	192.28
434.348	135.32
434.56	98.12
434.771	238.97
434.983	125.44
435.194	125.82
435.406	145.2
435.617	177.75
435.829	213.98
436.04	194.41
436.252	186.85
436.463	221.53
436.675	187.63
436.886	176
437.098	204.87
437.309	232.19
437.521	155.27
437.732	171.16
437.943	186.66
438.155	170.19
438.366	146.55
438.578	198.48
438.789	188.98
439	201
439.211	190.34
439.423	179.68
439.634	184.33
439.845	211.85
440.057	180.27
440.268	197.32
440.479	171.16
440.69	184.53
440.902	180.85
441.113	175.03
441.324	202.93
441.535	193.83
441.746	252.34
441.957	173.68
442.168	192.47
442.38	227.15
442.591	220.37
442.802	180.07
443.013	185.88
443.224	206.03
443.435	211.07
443.646	180.85
443.857	220.57
444.068	209.72
444.279	201.19
444.49	278.5
444.701	233.93
444.912	299.81
445.123	248.46
445.334	278.69
445.545	253.31
445.756	217.85
445.967	223.47
446.178	233.55
446.388	271.13
446.599	254.47
446.81	242.85
447.021	208.55
447.232	263.77
447.443	269
447.653	204.48
447.864	288.38
448.075	239.16
448.286	239.16
448.496	236.26
448.707	270.75
448.918	231.22
449.129	329.64
449.339	224.63
449.55	232.77
449.761	263
449.971	307.95
450.182	225.99
450.393	272.1
450.603	251.37
450.814	291.09
451.024	259.12
451.235	301.94
451.446	330.61
451.656	328.48
451.867	261.64
452.077	292.83
452.288	302.52
452.498	315.69
452.709	261.25
452.919	304.46
453.13	247.5
453.34	304.46
453.55	243.62
453.761	296.13
453.971	294.96
454.182	305.43
454.392	292.64
454.602	350.76
454.813	328.48
455.023	324.99
455.233	246.14
455.444	275.98
455.654	245.95
455.864	275.78
456.075	297.29
456.285	277.91
456.495	288.38
456.705	283.92
456.916	324.41
457.126	363.74
457.336	299.81
457.546	238
457.756	272.1
457.967	329.26
458.177	299.61
458.387	299.81
458.597	257.96
458.807	297.1
459.017	287.99
459.227	310.46
459.437	309.88
459.647	323.83
459.857	321.31
460.068	281.6
460.278	337.2
460.488	300.58
460.698	361.61
460.908	295.16
461.117	302.52
461.327	299.42
461.537	317.05
461.747	333.91
461.957	324.8
462.167	420.51
462.377	358.71
462.587	339.53
462.797	349.21
463.007	355.61
463.216	340.3
463.426	383.12
463.636	358.32
463.846	301.75
464.056	294.58
464.265	369.94
464.475	331
464.685	351.54
464.895	373.82
465.104	338.56
465.314	368.01
465.524	336.62
465.733	317.05
465.943	429.62
466.153	400.94
466.362	394.94
466.572	345.92
466.782	339.53
466.991	354.64
467.201	382.15
467.41	285.66
467.62	378.28
467.829	339.14
468.039	396.29
468.249	342.24
468.458	367.62
468.668	379.63
468.877	384.09
469.086	393.58
469.296	409.27
469.505	373.24
469.715	433.49
469.924	381.57
470.134	420.9
470.343	408.69
470.552	380.6
470.762	368.59
470.971	325.19
471.18	382.54
471.39	385.83
471.599	346.11
471.808	405.98
472.018	355.41
472.227	443.76
472.436	415.47
472.645	416.83
472.855	386.41
473.064	470.31
473.273	424.77
473.482	418.57
473.691	456.16
473.901	444.73
474.11	403.85
474.319	521.26
474.528	447.06
474.737	465.85
474.946	452.67
475.155	443.96
475.364	479.41
475.573	478.06
475.783	464.3
475.992	484.26
476.201	489.87
476.41	445.51
476.619	439.69
476.828	449.19
477.037	455.97
477.245	455.58
477.454	507.7
477.663	480.38
477.872	467.59
478.081	549.94
478.29	442.41
478.499	521.45
478.708	494.91
478.917	549.94
479.125	507.31
479.334	524.75
479.543	492.97
479.752	554.2
479.961	516.61
480.169	552.07
480.378	519.52
480.587	635.38
480.796	564.08
481.004	549.74
481.213	575.12
481.422	556.14
481.63	544.51
481.839	616.2
482.048	606.51
482.256	582.1
482.465	604.96
482.674	608.83
482.882	622.4
483.091	637.9
483.299	596.05
483.508	652.43
483.716	586.94
483.925	612.32
484.134	568.15
484.342	582.1
484.551	624.33
484.759	598.57
484.967	645.84
485.176	653.98
485.384	654.56
485.593	665.41
485.801	615.23
486.01	595.08
486.218	589.65
486.426	521.26
486.635	547.61
486.843	546.45
487.051	587.52
487.26	582.48
487.468	615.42
487.676	623.56
487.885	613.1
488.093	635.38
488.301	657.47
488.509	665.41
488.717	676.45
488.926	659.79
489.134	648.75
489.342	661.34
489.55	615.62
489.758	683.81
489.967	643.9
490.175	774.88
490.383	673.16
490.591	757.05
490.799	667.93
491.007	740.39
491.215	703.96
491.423	673.35
491.631	738.26
491.839	740.58
492.047	731.67
492.255	690.21
492.463	690.6
492.671	678.78
492.879	731.86
493.087	720.82
493.295	807.62
493.503	744.46
493.711	776.62
493.919	813.43
494.127	781.66
494.334	795.41
494.542	767.32
494.75	782.43
494.958	761.7
495.166	818.08
495.374	814.98
495.581	784.95
495.789	806.07
495.997	868.07
496.205	824.48
496.412	811.69
496.62	808.59
496.828	843.66
497.035	814.59
497.243	856.25
497.451	832.61
497.658	864.97
497.866	819.05
498.074	870.59
498.281	809.17
498.489	891.71
498.696	837.07
498.904	822.93
499.112	828.93
499.319	911.47
499.527	838.62
499.734	918.83
499.942	846.76
500.149	863.81
500.357	882.41
500.564	865.74
500.771	888.61
500.979	818.28
501.186	860.9
501.394	881.44
501.601	840.75
501.808	894.81
502.016	899.65
502.223	894.42
502.43	929.68
502.638	884.73
502.845	884.73
503.052	1003.11
503.26	944.6
503.467	994.2
503.674	907.59
503.881	934.72
504.089	1007.76
504.296	981.99
504.503	895.97
504.71	945.57
504.917	922.32
505.125	1007.95
505.332	992.07
505.539	989.55
505.746	1087.58
505.953	1032.17
506.16	1021.13
506.367	1062.78
506.574	1128.08
506.781	1074.02
506.988	1022.68
507.195	1053.1
507.402	1064.92
507.609	1098.82
507.816	1022.87
508.023	1033.72
508.23	1059.68
508.437	1040.31
508.644	1126.53
508.851	1145.9
509.058	1135.83
509.265	1113.93
509.472	1128.08
509.679	1230.38
509.885	1148.61
510.092	1159.66
510.299	1133.31
510.506	1128.27
510.713	1151.91
510.92	1181.94
511.126	1189.49
511.333	1256.53
511.54	1245.68
511.746	1288.31
511.953	1279.78
512.16	1303.81
512.367	1230.38
512.573	1247.23
512.78	1278.81
512.987	1268.35
513.193	1254.21
513.4	1211.58
513.606	1254.59
513.813	1301.48
514.02	1297.02
514.226	1347.4
514.433	1354.96
514.639	1281.33
514.846	1325.51
515.052	1261.96
515.259	1331.9
515.465	1311.56
515.672	1343.52
515.878	1410.17
516.085	1399.9
516.291	1407.85
516.497	1342.36
516.704	1318.34
516.91	1313.49
517.117	1273.39
517.323	1219.72
517.529	1274.16
517.736	1280.75
517.942	1297.61
518.148	1312.72
518.354	1380.72
518.561	1349.14
518.767	1372.39
518.973	1417.54
519.179	1456.09
519.386	1436.33
519.592	1444.66
519.798	1444.47
520.004	1533.01
520.21	1514.6
520.417	1532.23
520.623	1591.91
520.829	1566.72
521.035	1591.52
521.241	1591.33
521.447	1626.98
521.653	1727.53
521.859	1628.14
522.065	1659.14
522.271	1750.39
522.477	1703.89
522.683	1739.35
522.889	1724.04
523.095	1706.61
523.301	1693.04
523.507	1655.84
523.713	1689.56
523.919	1683.74
524.125	1789.92
524.331	1758.92
524.537	1892.02
524.742	1833.51
524.948	1826.92
525.154	1858.5
525.36	1951.7
525.566	1838.74
525.772	1905.2
525.977	1826.54
526.183	1879.43
526.389	1903.07
526.595	1834.48
526.8	1842.62
527.006	1740.12
527.212	1696.92
527.417	1676.77
527.623	1748.84
527.829	1813.75
528.034	1847.27
528.24	1837.19
528.446	1856.57
528.651	1934.45
528.857	1939.49
529.062	1992
529.268	2009.82
529.473	2000.91
529.679	2016.41
529.884	2085.58
530.09	2062.13
530.295	2047.8
530.501	2042.56
530.706	2063.49
530.912	2017.96
531.117	2069.88
531.323	2075.11
531.528	2117.16
531.733	2127.04
531.939	2095.65
532.144	2086.54
532.35	2080.73
532.555	2135.56
532.76	2082.48
532.966	2101.66
533.171	2051.48
533.376	2034.81
533.581	2065.62
533.787	2066.78
533.992	2112.12
534.197	2112.7
534.402	2138.08
534.607	2122
534.813	2219.26
535.018	2139.83
535.223	2164.04
535.428	2189.04
535.633	2245.42
535.838	2217.71
536.043	2218.1
536.249	2308.97
536.454	2226.62
536.659	2295.6
536.864	2257.82
537.069	2219.65
537.274	2217.52
537.479	2230.89
537.684	2243.67
537.889	2208.8
538.094	2299.86
538.299	2236.5
538.504	2288.82
538.708	2274.09
538.913	2306.84
539.118	2300.44
539.323	2299.47
539.528	2255.1
539.733	2263.63
539.938	2313.04
540.142	2259.75
540.347	2248.13
540.552	2210.35
540.757	2180.51
540.962	2219.65
541.166	2197.17
541.371	2208.41
541.576	2180.9
541.781	2189.62
541.985	2275.25
542.19	2244.84
542.395	2353.92
542.599	2376.58
542.804	2332.6
543.008	2347.72
543.213	2275.25
543.418	2278.35
543.622	2334.35
543.827	2264.4
544.031	2343.07
544.236	2356.43
544.44	2362.25
544.645	2453.31
544.849	2368.06
545.054	2407.2
545.258	2405.45
545.463	2425.99
545.667	2341.32
545.872	2418.82
546.076	2361.08
546.281	2388.02
546.485	2353.92
546.689	2426.18
546.894	2406.81
547.098	2399.25
547.302	2362.44
547.507	2379.68
547.711	2406.62
547.915	2439.36
548.119	2331.05
548.324	2359.92
548.528	2428.9
548.732	2397.9
548.936	2425.21
549.141	2448.08
549.345	2422.31
549.549	2391.31
549.753	2392.28
549.957	2482.95
550.161	2499.42
550.366	2452.73
550.57	2375.62
550.774	2458.93
550.978	2443.04
551.182	2454.86
551.386	2439.55
551.59	2445.56
551.794	2412.04
551.998	2460.28
552.202	2424.63
552.406	2411.26
552.61	2458.93
552.814	2460.09
553.018	2516.86
553.222	2421.73
553.426	2403.13
553.63	2486.05
553.833	2425.8
554.037	2396.15
554.241	2457.18
554.445	2471.71
554.649	2473.85
554.853	2426.57
555.056	2504.46
555.26	2495.35
555.464	2472.68
555.668	2478.69
555.871	2457.18
556.075	2471.33
556.279	2433.35
556.483	2406.23
556.686	2442.46
556.89	2413.78
557.094	2416.69
557.297	2339.19
557.501	2410.88
557.704	2318.85
557.908	2403.32
558.112	2358.18
558.315	2444.2
558.519	2364.57
558.722	2327.95
558.926	2291.53
559.129	2267.5
559.333	2249.49
559.536	2300.44
559.74	2235.34
559.943	2262.27
560.147	2270.22
560.35	2275.25
560.553	2254.33
560.757	2233.6
560.96	2317.88
561.164	2265.18
561.367	2344.23
561.57	2308.77
561.774	2279.52
561.977	2232.24
562.18	2242.7
562.384	2351.98
562.587	2267.31
562.79	2255.1
562.993	2235.92
563.197	2308.39
563.4	2288.62
563.603	2322.53
563.806	2298.5
564.009	2230.89
564.212	2271.19
564.416	2198.72
564.619	2219.65
564.822	2170.82
565.025	2268.28
565.228	2188.46
565.431	2197.56
565.634	2132.46
565.837	2141.57
566.04	2136.14
566.243	2127.81
566.446	2050.7
566.649	2163.66
566.852	2066.59
567.055	2082.67
567.258	2139.83
567.461	2166.76
567.664	2153.77
567.867	2072.21
568.07	2159.39
568.273	2103.59
568.475	2140.6
568.678	2094.68
568.881	2032.68
569.084	2045.28
569.287	1985.99
569.489	2037.72
569.692	2014.86
569.895	2022.03
570.098	1972.23
570.3	1951.5
570.503	1906.75
570.706	1930.97
570.909	1941.62
571.111	1880.59
571.314	1879.82
571.516	1909.85
571.719	1917.6
571.922	1899.77
572.124	1884.66
572.327	1891.25
572.529	1872.84
572.732	1904.03
572.935	1890.86
573.137	1974.36
573.34	1843.39
573.542	1951.12
573.745	1896.67
573.947	1905.78
574.15	1874.2
574.352	1870.9
574.554	1919.73
574.757	1887.76
574.959	1821.5
575.162	1831.96
575.364	1828.86
575.566	1904.81
575.769	1777.13
575.971	1811.23
576.173	1697.89
576.376	1759.5
576.578	1825.95
576.78	1869.74
576.982	1759.89
577.185	1784.11
577.387	1753.88
577.589	1764.73
577.791	1808.32
577.993	1792.82
578.196	1775.39
578.398	1755.82
578.6	1786.62
578.802	1722.69
579.004	1712.81
579.206	1705.06
579.408	1782.36
579.61	1713
579.812	1765.51
580.014	1694.59
580.216	1697.5
580.418	1725.4
580.62	1684.13
580.822	1720.36
581.024	1682.19
581.226	1761.44
581.428	1723.66
581.63	1814.33
581.832	1764.34
582.034	1787.79
582.236	1750.97
582.438	1806.77
582.64	1802.9
582.841	1821.5
583.043	1871.68
583.245	1814.33
583.447	1787.98
583.649	1785.07
583.85	1753.88
584.052	1817.24
584.254	1772.48
584.456	1802.12
584.657	1732.57
584.859	1764.54
585.061	1739.16
585.262	1748.84
585.464	1714.55
585.666	1761.82
585.867	1721.91
586.069	1768.99
586.27	1736.64
586.472	1700.99
586.674	1678.9
586.875	1676.96
587.077	1701.96
587.278	1742.26
587.48	1700.21
587.681	1807.55
587.883	1692.46
588.084	1659.53
588.285	1639.57
588.487	1614.58
588.688	1643.64
588.89	1537.46
589.091	1504.53
589.292	1533.59
589.494	1510.34
589.695	1498.52
589.896	1397
590.098	1415.4
590.299	1476.24
590.5	1429.35
590.702	1479.92
590.903	1521.77
591.104	1554.51
591.305	1557.03
591.507	1588.23
591.708	1556.45
591.909	1501.62
592.11	1602.56
592.311	1595.2
592.512	1549.67
592.714	1473.92
592.915	1546.96
593.116	1565.17
593.317	1564.2
593.518	1565.56
593.719	1561.3
593.92	1580.28
594.121	1563.04
594.322	1528.55
594.523	1542.7
594.724	1476.24
594.925	1500.65
595.126	1545.99
595.327	1527
595.528	1547.35
595.729	1579.51
595.929	1520.42
596.13	1531.07
596.331	1553.55
596.532	1553.93
596.733	1602.76
596.934	1583.38
597.135	1570.21
597.335	1558.78
597.536	1508.6
597.737	1554.71
597.938	1529.52
598.138	1547.35
598.339	1542.11
598.54	1547.15
598.74	1497.17
598.941	1529.91
599.142	1551.22
599.342	1543.86
599.543	1504.14
599.744	1550.83
599.944	1549.09
600.145	1553.74
600.345	1538.05
600.546	1621.75
600.746	1590.75
600.947	1594.43
601.147	1546.96
601.348	1588.42
601.548	1531.46
601.749	1543.66
601.949	1506.66
602.15	1524.1
602.35	1497.17
602.551	1567.5
602.751	1485.15
602.951	1531.65
603.152	1478.18
603.352	1554.13
603.552	1508.02
603.753	1583.96
603.953	1527.39
604.153	1538.05
604.354	1575.44
604.554	1533.4
604.754	1549.28
604.954	1516.93
605.155	1529.72
605.355	1523.13
605.555	1548.51
605.755	1582.61
605.955	1534.75
606.155	1557.23
606.356	1545.41
606.556	1528.36
606.756	1538.43
606.956	1502.78
607.156	1584.74
607.356	1495.81
607.556	1538.63
607.756	1486.51
607.956	1556.26
608.156	1547.35
608.356	1512.47
608.556	1538.63
608.756	1505.11
608.956	1466.55
609.156	1511.7
609.356	1473.72
609.556	1461.52
609.755	1474.69
609.955	1468.1
610.155	1457.25
610.355	1530.68
610.555	1444.85
610.755	1422.96
610.954	1432.45
611.154	1442.53
611.354	1503.95
611.554	1423.54
611.753	1454.73
611.953	1408.43
612.153	1464.62
612.352	1438.46
612.552	1392.54
612.752	1365.61
612.951	1412.3
613.151	1424.51
613.351	1385.57
613.55	1382.85
613.75	1395.84
613.949	1388.47
614.149	1392.54
614.348	1408.43
614.548	1337.71
614.747	1330.93
614.947	1379.95
615.146	1294.12
615.346	1388.28
615.545	1402.81
615.745	1370.26
615.944	1381.5
616.144	1348.76
616.343	1380.92
616.542	1310.59
616.742	1301.67
616.941	1333.06
617.14	1255.76
617.34	1332.87
617.539	1322.41
617.738	1307.68
617.938	1398.94
618.137	1269.13
618.336	1298.77
618.535	1320.66
618.734	1333.26
618.934	1357.09
619.133	1338.49
619.332	1364.64
619.531	1285.98
619.73	1297.02
619.929	1341.2
620.128	1359.22
620.328	1358.83
620.527	1298.38
620.726	1315.04
620.925	1299.35
621.124	1311.17
621.323	1317.76
621.522	1259.24
621.721	1291.02
621.92	1253.43
622.119	1318.34
622.318	1242.58
622.517	1284.43
622.715	1270.29
622.914	1227.66
623.113	1265.06
623.312	1208.48
623.511	1229.6
623.71	1238.51
623.909	1209.26
624.107	1280.36
624.306	1208.09
624.505	1230.76
624.704	1225.92
624.902	1206.54
625.101	1239.68
625.3	1217.39
625.499	1205.19
625.697	1199.76
625.896	1189.88
626.095	1218.36
626.293	1170.31
626.492	1192.59
626.69	1173.03
626.889	1177.29
627.088	1230.38
627.286	1191.82
627.485	1163.73
627.683	1152.68
627.882	1188.91
628.08	1127.5
628.279	1121.88
628.477	1174.58
628.676	1120.13
628.874	1147.26
629.073	1105.02
629.271	1085.07
629.469	1143.58
629.668	1145.51
629.866	1117.42
630.065	1141.25
630.263	1178.45
630.461	1122.26
630.66	1160.63
630.858	1141.64
631.056	1156.36
631.254	1183.1
631.453	1136.02
631.651	1180.2
631.849	1157.53
632.047	1127.5
632.245	1146.87
632.444	1158.5
632.642	1155.01
632.84	1202.09
633.038	1132.73
633.236	1123.23
633.434	1116.65
633.632	1119.75
633.83	1127.88
634.028	1184.07
634.227	1162.76
634.425	1220.3
634.623	1149.78
634.821	1170.9
635.019	1181.94
635.216	1107.15
635.414	1200.54
635.612	1175.35
635.81	1153.07
636.008	1204.22
636.206	1153.65
636.404	1158.3
636.602	1126.14
636.8	1175.16
636.997	1186.59
637.195	1193.76
637.393	1139.51
637.591	1236.19
637.789	1155.01
637.986	1128.66
638.184	1165.28
638.382	1199.76
638.58	1189.69
638.777	1198.41
638.975	1126.72
639.173	1124.2
639.37	1180
639.568	1171.09
639.765	1146.48
639.963	1139.31
640.161	1145.32
640.358	1158.88
640.556	1090.88
640.753	1068.98
640.951	1106.57
641.148	1124.78
641.346	1097.47
641.543	1087.58
641.741	1109.09
641.938	1063.75
642.136	1041.28
642.333	1050.19
642.531	1078.87
642.728	1141.83
642.925	1061.23
643.123	1061.23
643.32	1069.37
643.517	1031.59
643.715	1067.82
643.912	1059.3
644.109	1033.72
644.306	1047.09
644.504	1037.98
644.701	1050.97
644.898	1064.92
645.095	1018.42
645.293	998.65
645.49	1054.65
645.687	1037.6
645.884	1059.1
646.081	956.61
646.278	992.45
646.475	966.69
646.672	988.58
646.87	978.12
647.067	970.95
647.264	976.37
647.461	918.25
647.658	887.44
647.855	936.85
648.052	911.86
648.249	875.04
648.446	898.49
648.642	907.4
648.839	884.73
649.036	882.6
649.233	873.88
649.43	884.15
649.627	831.64
649.824	860.9
650.021	879.89
650.217	885.51
650.414	860.32
650.611	908.95
650.808	901.59
651.004	892.29
651.201	907.98
651.398	941.69
651.595	884.15
651.791	859.74
651.988	891.9
652.185	865.74
652.381	900.42
652.578	857.61
652.775	876.59
652.971	877.56
653.168	897.91
653.364	923.09
653.561	853.92
653.757	855.86
653.954	870.2
654.15	838.04
654.347	928.52
654.543	875.43
654.74	803.55
654.936	813.43
655.133	864
655.329	872.52
655.525	818.28
655.722	881.44
655.918	813.43
656.115	803.55
656.311	719.08
656.507	715.98
656.704	704.93
656.9	728.76
657.096	730.12
657.292	725.47
657.489	797.16
657.685	793.28
657.881	786.31
658.077	788.44
658.273	796.19
658.47	816.14
658.666	789.21
658.862	830.68
659.058	770.03
659.254	843.27
659.45	779.14
659.646	807.23
659.842	794.64
660.038	876.59
660.234	792.31
660.43	801.42
660.626	816.53
660.822	845.79
661.018	864.39
661.214	804.91
661.41	760.54
661.606	810.33
661.802	804.33
661.998	793.28
662.194	780.49
662.39	826.03
662.586	792.7
662.781	808.78
662.977	808.01
663.173	794.83
663.369	807.62
663.564	785.34
663.76	795.99
663.956	754.14
664.152	810.91
664.347	710.55
664.543	742.33
664.739	753.95
664.934	706.1
665.13	706.87
665.326	796.96
665.521	750.27
665.717	718.11
665.912	725.28
666.108	654.37
666.304	715.59
666.499	741.36
666.695	669.67
666.89	712.88
667.086	761.89
667.281	727.99
667.477	774.49
667.672	717.72
667.867	707.06
668.063	738.26
668.258	681.68
668.454	694.86
668.649	801.61
668.844	686.91
669.04	720.43
669.235	713.65
669.43	688.85
669.626	655.33
669.821	693.31
670.016	637.51
670.211	684.4
670.407	662.12
670.602	684.2
670.797	665.99
670.992	707.45
671.187	653.01
671.382	675.48
671.578	643.9
671.773	684.78
671.968	606.12
672.163	659.6
672.358	687.69
672.553	650.68
672.748	651.27
672.943	711.33
673.138	655.92
673.333	702.22
673.528	629.37
673.723	659.21
673.918	639.45
674.113	631.12
674.308	715.2
674.503	670.83
674.698	658.63
674.892	667.54
675.087	685.75
675.282	667.73
675.477	638.48
675.672	641.97
675.867	623.56
676.061	601.86
676.256	635.57
676.451	626.47
676.646	659.4
676.84	613.1
677.035	579.19
677.23	629.37
677.424	670.25
677.619	648.55
677.814	681.88
678.008	684.98
678.203	583.65
678.397	611.74
678.592	638.48
678.787	679.36
678.981	622.01
679.176	654.17
679.37	619.49
679.565	617.17
679.759	616.58
679.954	630.92
680.148	704.16
680.342	673.35
680.537	654.75
680.731	635.77
680.926	655.92
681.12	660.76
681.314	618.13
681.509	630.34
681.703	643.52
681.897	681.68
682.092	654.37
682.286	623.56
682.48	714.43
682.674	661.15
682.869	633.63
683.063	625.11
683.257	697.76
683.451	623.75
683.645	669.86
683.839	640.42
684.034	647.58
684.228	681.49
684.422	617.94
684.616	643.9
684.81	657.47
685.004	681.88
685.198	663.86
685.392	699.31
685.586	665.21
685.78	687.88
685.974	695.83
686.168	694.86
686.362	732.06
686.556	643.13
686.75	603.22
686.944	622.59
687.138	619.3
687.331	529.59
687.525	556.72
687.719	501.69
687.913	572.99
688.107	570.09
688.301	531.53
688.494	590.23
688.688	580.93
688.882	538.5
689.076	553.04
689.269	592.56
689.463	653.98
689.657	622.01
689.85	636.35
690.044	670.83
690.238	661.15
690.431	659.79
690.625	654.17
690.818	701.06
691.012	739.61
691.205	752.79
691.399	715.98
691.593	774.68
691.786	827.38
691.98	821.38
692.173	838.62
692.366	834.94
692.56	841.33
692.753	903.52
692.947	842.88
693.14	908.37
693.333	912.24
693.527	844.04
693.72	917.28
693.914	885.12
694.107	916.89
694.3	915.92
694.493	899.84
694.687	968.24
694.88	909.53
695.073	1024.23
695.266	1016.48
695.46	1015.51
695.653	1062.01
695.846	1070.15
696.039	982.19
696.232	1039.73
696.425	1124.59
696.618	1132.53
696.812	1129.82
697.005	1212.36
697.198	1266.22
697.391	1224.56
697.584	1258.86
697.777	1313.69
697.97	1279.59
698.163	1309.81
698.356	1325.31
698.549	1387.89
698.742	1362.51
698.935	1311.17
699.127	1346.82
699.32	1292.37
699.513	1330.16
699.706	1348.76
699.899	1369.29
700.092	1352.63
700.285	1382.27
700.477	1326.28
700.67	1430.13
700.863	1431.1
701.056	1538.24
701.248	1471.98
701.441	1519.83
701.634	1474.69
701.826	1562.46
702.019	1467.33
702.212	1568.27
702.404	1477.02
702.597	1474.5
702.79	1537.08
702.982	1568.66
703.175	1597.91
703.367	1579.9
703.56	1627.56
703.752	1714.74
703.945	1679.48
704.137	1713.77
704.33	1698.86
704.522	1711.06
704.715	1731.02
704.907	1763.96
705.1	1770.54
705.292	1814.72
705.484	1790.69
705.677	1827.12
705.869	1859.67
706.061	1864.9
706.254	1919.92
706.446	1857.92
706.638	1863.35
706.831	1954.8
707.023	1870.71
707.215	2006.33
707.407	2000.91
707.599	1956.73
707.792	2016.21
707.984	2000.52
708.176	2051.09
708.368	2010.98
708.56	2077.44
708.752	2036.17
708.944	2036.17
709.136	2084.41
709.329	2062.13
709.521	2163.85
709.713	2120.45
709.905	2125.1
710.097	2201.44
710.289	2124.13
710.481	2173.34
710.672	2195.04
710.864	2208.02
711.056	2252.59
711.248	2242.12
711.44	2262.66
711.632	2225.07
711.824	2302.19
712.016	2312.45
712.207	2303.35
712.399	2315.55
712.591	2383.37
712.783	2335.32
712.975	2379.49
713.166	2324.27
713.358	2335.51
713.55	2420.76
713.741	2417.46
713.933	2440.91
714.125	2391.89
714.316	2401
714.508	2434.13
714.7	2435.68
714.891	2434.51
715.083	2486.44
715.274	2427.54
715.466	2436.06
715.657	2473.46
715.849	2361.08
716.04	2437.42
716.232	2342.29
716.423	2385.11
716.615	2308.97
716.806	2245.61
716.998	2225.27
717.189	2115.8
717.381	2033.85
717.572	2044.7
717.763	2015.25
717.955	1964.87
718.146	1937.55
718.337	1891.63
718.528	1874.59
718.72	1819.95
718.911	1855.79
719.102	1793.21
719.293	1863.15
719.485	1806.58
719.676	1798.06
719.867	1779.26
720.058	1740.12
720.249	1757.17
720.44	1793.21
720.632	1863.54
720.823	1893.96
721.014	2036.17
721.205	2035.01
721.396	2095.07
721.587	2219.84
721.778	2251.04
721.969	2303.54
722.16	2358.37
722.351	2404.29
722.542	2453.31
722.733	2524.61
722.924	2391.89
723.115	2435.68
723.305	2411.46
723.496	2443.43
723.687	2275.06
723.878	2324.08
724.069	2311.29
724.26	2316.33
724.45	2245.03
724.641	2228.95
724.832	2257.82
725.023	2255.69
725.213	2235.54
725.404	2222.94
725.595	2217.32
725.785	2246
725.976	2266.34
726.167	2266.54
726.357	2239.99
726.548	2350.04
726.739	2250.45
726.929	2366.12
727.12	2347.52
727.31	2376
727.501	2328.92
727.691	2349.07
727.882	2324.47
728.072	2382.98
728.263	2413.4
728.453	2417.08
728.644	2456.41
728.834	2408.17
729.024	2397.9
729.215	2370.97
729.405	2423.86
729.596	2490.12
729.786	2523.83
729.976	2532.36
730.167	2568.78
730.357	2479.66
730.547	2512.01
730.737	2541.27
730.928	2602.69
731.118	2623.22
731.308	2559.68
731.498	2571.11
731.688	2645.12
731.879	2675.34
732.069	2711.77
732.259	2763.5
732.449	2808.64
732.639	2860.18
732.829	2870.06
733.019	2885.56
733.209	3001.42
733.399	2971.58
733.589	3067.68
733.779	3085.31
733.969	3074.66
734.159	3130.26
734.349	3208.92
734.539	3234.5
734.729	3189.74
734.919	3212.8
735.109	3268.4
735.299	3236.05
735.488	3217.25
735.678	3291.26
735.868	3265.3
736.058	3288.55
736.248	3265.88
736.437	3220.74
736.627	3233.72
736.817	3290.3
737.007	3279.06
737.196	3307.15
737.386	3350.55
737.576	3287.2
737.765	3358.5
737.955	3291.26
738.144	3422.82
738.334	3405.58
738.524	3331.37
738.713	3380
738.903	3377.29
739.092	3432.51
739.282	3391.24
739.471	3448.59
739.661	3409.84
739.85	3459.24
740.04	3450.53
740.229	3520.08
740.419	3557.09
740.608	3502.26
740.797	3497.8
740.987	3578.2
741.176	3501.29
741.365	3512.91
741.555	3496.25
741.744	3579.37
741.933	3534.61
742.123	3587.12
742.312	3619.28
742.501	3631.49
742.69	3648.53
742.88	3535.77
743.069	3670.43
743.258	3591.38
743.447	3640.2
743.636	3654.93
743.825	3663.26
744.014	3662.1
744.204	3721.58
744.393	3603.59
744.582	3715.96
744.771	3689.61
744.96	3686.51
745.149	3726.81
745.338	3654.35
745.527	3751.8
745.716	3654.35
745.905	3679.53
746.094	3733.98
746.283	3757.03
746.471	3690.58
746.66	3806.83
746.849	3707.05
747.038	3741.15
747.227	3694.65
747.416	3727.2
747.604	3748.9
747.793	3711.12
747.982	3719.45
748.171	3715.57
748.359	3739.01
748.548	3728.55
748.737	3711.89
748.926	3718.67
749.114	3639.04
749.303	3747.93
749.491	3690.19
749.68	3661.32
749.869	3720.03
750.057	3678.57
750.246	3657.25
750.434	3680.5
750.623	3680.7
750.811	3651.44
751	3659.19
751.188	3682.25
751.377	3696.2
751.565	3630.52
751.754	3604.17
751.942	3611.34
752.131	3643.3
752.319	3602.23
752.507	3542.94
752.696	3629.55
752.884	3695.42
753.072	3608.62
753.261	3607.65
753.449	3629.35
753.637	3629.94
753.825	3725.65
754.014	3584.79
754.202	3598.35
754.39	3680.7
754.578	3682.05
754.766	3551.66
754.955	3587.89
755.143	3635.55
755.331	3595.64
755.519	3599.32
755.707	3536.36
755.895	3574.14
756.083	3575.1
756.271	3522.02
756.459	3543.72
756.647	3568.71
756.835	3499.35
757.023	3522.99
757.211	3529.96
757.399	3528.41
757.587	3508.26
757.775	3467.38
757.963	3503.61
758.151	3488.31
758.339	3431.54
758.526	3432.51
758.714	3456.53
758.902	3289.71
759.09	3224.62
759.278	3002.78
759.465	2754.59
759.653	2404.68
759.841	2223.14
760.028	1852.11
760.216	1663.79
760.404	1526.81
760.591	1233.67
760.779	1027.52
760.967	918.25
761.154	755.5
761.342	773.52
761.529	806.07
761.717	844.04
761.905	804.71
762.092	854.51
762.28	826.41
762.467	792.31
762.655	761.7
762.842	739.03
763.029	797.16
763.217	755.5
763.404	794.06
763.592	786.31
763.779	740.97
763.966	815.37
764.154	818.08
764.341	919.61
764.528	893.64
764.716	984.32
764.903	1025
765.09	1110.45
765.277	1195.89
765.465	1321.63
765.652	1361.93
765.839	1457.64
766.026	1613.41
766.213	1644.61
766.4	1738.19
766.588	1943.37
766.775	1927.28
766.962	2078.41
767.149	2165.59
767.336	2298.7
767.523	2267.7
767.71	2418.43
767.897	2553.86
768.084	2579.63
768.271	2652.09
768.458	2709.44
768.645	2806.32
768.832	2753.23
769.019	2836.15
769.206	2829.37
769.392	2907.84
769.579	3035.52
769.766	2977.2
769.953	2952.98
770.14	3010.91
770.327	3024.28
770.513	3066.71
770.7	3111.08
770.887	3042.49
771.073	3102.75
771.26	3088.22
771.447	3080.86
771.634	3063.03
771.82	3168.82
772.007	3011.11
772.193	3107.79
772.38	3126
772.567	3082.79
772.753	3128.71
772.94	3134.91
773.126	3117.09
773.313	3110.69
773.499	3118.64
773.686	3113.4
773.872	3079.69
774.059	3119.99
774.245	3068.07
774.432	3117.67
774.618	3024.67
774.804	3116.89
774.991	3017.11
775.177	3085.7
775.363	3044.24
775.55	3082.6
775.736	2979.33
775.922	3052.37
776.109	3035.32
776.295	3054.89
776.481	3106.04
776.667	3076.01
776.853	3048.89
777.04	3027.19
777.226	3053.34
777.412	3083.18
777.598	3017.5
777.784	3040.17
777.97	2984.56
778.156	2994.44
778.342	3008.2
778.528	2996.19
778.715	2926.05
778.901	2941.94
779.087	2972.74
779.272	2933.61
779.458	2937.48
779.644	2984.56
779.83	2920.43
780.016	2994.64
780.202	2940.39
780.388	2893.89
780.574	2875.87
780.76	2899.31
780.946	2913.07
781.131	2930.9
781.317	2918.11
781.503	2842.55
781.689	2873.74
781.874	2981.46
782.06	2863.47
782.246	2905.71
782.432	2849.13
782.617	2927.21
782.803	2890.21
782.989	2820.65
783.174	2842.93
783.36	2782.87
783.545	2809.61
783.731	2791.01
783.916	2773.77
784.102	2810.38
784.288	2802.83
784.473	2780.93
784.659	2782.1
784.844	2799.34
785.029	2748
785.215	2724.94
785.4	2738.31
785.586	2810.19
785.771	2690.65
785.956	2747.22
786.142	2739.28
786.327	2722.42
786.512	2686.39
786.698	2698.79
786.883	2636.59
787.068	2687.16
787.254	2691.81
787.439	2670.69
787.624	2620.9
787.809	2621.09
787.994	2629.81
788.18	2683.09
788.365	2577.89
788.55	2603.07
788.735	2588.93
788.92	2617.61
789.105	2587.38
789.29	2582.54
789.475	2539.14
789.66	2533.33
789.845	2522.48
790.03	2474.62
790.215	2553.28
790.4	2525.77
790.585	2601.33
790.77	2504.26
790.955	2452.73
791.14	2511.04
791.325	2554.83
791.51	2388.98
791.695	2504.07
791.879	2487.6
792.064	2406.23
792.249	2538.75
792.434	2474.81
792.618	2471.13
792.803	2521.51
792.988	2472.1
793.173	2523.25
793.357	2514.34
793.542	2425.21
793.727	2500.78
793.911	2489.73
794.096	2487.99
794.281	2501.16
794.465	2605.4
794.65	2500.97
794.834	2546.89
795.019	2585.64
795.203	2592.81
795.388	2552.31
795.572	2593.39
795.757	2558.32
795.941	2557.74
796.126	2548.83
796.31	2457.76
796.494	2529.64
796.679	2470.55
796.863	2455.44
797.048	2537.01
797.232	2524.8
797.416	2527.9
797.601	2526.54
797.785	2604.82
797.969	2582.54
798.153	2504.84
798.338	2567.23
798.522	2579.05
798.706	2591.45
798.89	2595.13
799.074	2669.92
799.258	2614.89
799.443	2576.53
799.627	2562.19
799.811	2613.34
799.995	2536.62
800.179	2547.47
800.363	2532.16
800.547	2586.02
800.731	2565.29
800.915	2432.77
801.099	2513.76
801.283	2508.72
801.467	2528.48
801.651	2492.83
801.835	2574.79
802.019	2526.16
802.202	2535.46
802.386	2513.37
802.57	2526.16
802.754	2485.66
802.938	2438.97
803.121	2460.48
803.305	2543.4
803.489	2518.02
803.673	2541.66
803.856	2535.84
804.04	2492.83
804.224	2519.96
804.407	2510.46
804.591	2472.88
804.775	2482.37
804.958	2526.74
805.142	2631.75
805.326	2516.08
805.509	2503.68
805.693	2592.42
805.876	2579.83
806.06	2554.83
806.243	2590.09
806.427	2601.52
806.61	2582.34
806.794	2531.78
806.977	2582.34
807.16	2560.06
807.344	2590.09
807.527	2535.84
807.71	2551.15
807.894	2532.94
808.077	2583.89
808.26	2494.38
808.444	2459.7
808.627	2551.93
808.81	2518.02
808.993	2454.86
809.177	2468.03
809.36	2471.52
809.543	2490.7
809.726	2364.38
809.909	2358.95
810.092	2397.51
810.276	2394.41
810.459	2400.61
810.642	2343.65
810.825	2338.8
811.008	2369.42
811.191	2275.25
811.374	2264.02
811.557	2274.29
811.74	2314.2
811.923	2203.57
812.106	2192.52
812.289	2210.93
812.472	2172.76
812.654	2159.78
812.837	2142.15
813.02	2084.99
813.203	2067.17
813.386	1960.8
813.569	1944.33
813.751	1900.16
813.934	1926.9
814.117	1882.34
814.3	1837.39
814.482	1805.61
814.665	1813.94
814.848	1753.69
815.03	1667.28
815.213	1704.09
815.396	1707.77
815.578	1665.73
815.761	1620
815.943	1681.81
816.126	1582.61
816.309	1584.74
816.491	1533.2
816.674	1435.55
816.856	1506.47
817.039	1498.72
817.221	1581.06
817.403	1537.27
817.586	1532.23
817.768	1540.76
817.951	1482.83
818.133	1484.18
818.315	1492.32
818.498	1538.05
818.68	1609.15
818.862	1524.87
819.045	1603.92
819.227	1599.46
819.409	1574.66
819.591	1564.4
819.774	1562.46
819.956	1545.41
820.138	1644.8
820.32	1597.33
820.502	1677.35
820.684	1732.37
820.866	1734.12
821.048	1766.28
821.231	1801.35
821.413	1789.72
821.595	1745.16
821.777	1769.77
821.959	1752.14
822.141	1786.04
822.323	1691.88
822.505	1621.16
822.686	1560.71
822.868	1505.88
823.05	1376.85
823.232	1362.12
823.414	1327.44
823.596	1384.99
823.778	1372.39
823.96	1390.6
824.141	1411.14
824.323	1420.25
824.505	1510.34
824.687	1556.65
824.868	1611.28
825.05	1700.21
825.232	1739.16
825.413	1787.01
825.595	1741.29
825.777	1678.9
825.958	1718.62
826.14	1700.6
826.321	1731.79
826.503	1711.64
826.685	1757.17
826.866	1762.79
827.048	1748.26
827.229	1667.28
827.411	1621.94
827.592	1588.03
827.773	1599.08
827.955	1561.3
828.136	1532.43
828.318	1557.61
828.499	1564.78
828.68	1509.57
828.862	1550.83
829.043	1547.73
829.224	1521.38
829.406	1494.84
829.587	1516.73
829.768	1554.13
829.949	1543.28
830.131	1567.5
830.312	1601.4
830.493	1569.43
830.674	1534.95
830.855	1546.57
831.036	1546.38
831.218	1586.1
831.399	1621.16
831.58	1567.3
831.761	1524.48
831.942	1558.39
832.123	1538.24
832.304	1506.27
832.485	1520.22
832.666	1532.62
832.847	1597.53
833.028	1550.83
833.209	1531.27
833.389	1536.3
833.57	1500.07
833.751	1517.7
833.932	1552.77
834.113	1517.51
834.294	1515.18
834.475	1552.58
834.655	1569.43
834.836	1620
835.017	1589
835.198	1551.22
835.378	1578.93
835.559	1600.05
835.74	1581.45
835.92	1576.8
836.101	1566.33
836.281	1612.45
836.462	1581.25
836.643	1613.03
836.823	1647.13
837.004	1638.79
837.184	1693.63
837.365	1639.57
837.545	1629.49
837.726	1636.86
837.906	1667.28
838.087	1634.14
838.267	1647.13
838.448	1599.08
838.628	1639.18
838.808	1618.84
838.989	1669.79
839.169	1598.11
839.349	1675.61
839.53	1661.46
839.71	1655.84
839.89	1633.56
840.07	1686.07
840.251	1617.48
840.431	1635.11
840.611	1613.41
840.791	1588.23
840.971	1682.78
841.151	1609.73
841.332	1590.55
841.512	1692.66
841.692	1532.04
841.872	1632.4
842.052	1614
842.232	1648.68
842.412	1562.46
842.592	1630.27
842.772	1623.68
842.952	1623.49
843.132	1564.4
843.312	1603.73
843.492	1570.01
843.672	1662.82
843.851	1574.28
844.031	1599.85
844.211	1562.46
844.391	1576.41
844.571	1621.94
844.751	1607.99
844.93	1598.5
845.11	1547.93
845.29	1550.83
845.47	1613.41
845.649	1597.53
845.829	1616.71
846.009	1570.6
846.188	1601.98
846.368	1566.91
846.547	1594.23
846.727	1577.76
846.907	1520.03
847.086	1577.57
847.266	1594.04
847.445	1580.67
847.625	1575.63
847.804	1519.06
847.984	1553.16
848.163	1534.56
848.343	1534.37
848.522	1538.05
848.701	1566.91
848.881	1542.31
849.06	1549.67
849.239	1507.24
849.419	1547.93
849.598	1445.82
849.777	1466.75
849.957	1461.52
850.136	1414.63
850.315	1364.64
850.494	1397.77
850.674	1408.04
850.853	1484.57
851.032	1416.76
851.211	1442.34
851.39	1413.08
851.569	1405.52
851.748	1413.47
851.927	1475.27
852.107	1410.95
852.286	1429.74
852.465	1404.75
852.644	1448.34
852.823	1449.89
853.002	1405.14
853.181	1427.61
853.359	1419.28
853.538	1395.06
853.717	1411.92
853.896	1317.17
854.075	1289.47
854.254	1235.61
854.433	1179.03
854.611	1264.09
854.79	1163.53
854.969	1269.9
855.148	1256.14
855.327	1230.18
855.505	1300.12
855.684	1260.79
855.863	1324.73
856.041	1288.89
856.22	1324.15
856.399	1310.2
856.577	1357.67
856.756	1358.25
856.934	1457.06
857.113	1430.9
857.291	1368.32
857.47	1348.17
857.648	1361.54
857.827	1399.52
858.005	1418.89
858.184	1338.87
858.362	1446.02
858.541	1363.87
858.719	1367.16
858.898	1367.35
859.076	1314.27
859.254	1399.32
859.433	1354.76
859.611	1351.66
859.789	1320.66
859.967	1359.41
860.146	1411.14
860.324	1315.04
860.502	1345.66
860.68	1267.58
860.859	1309.81
861.037	1314.07
861.215	1301.67
861.393	1319.89
861.571	1314.46
861.749	1330.54
861.927	1282.11
862.105	1311.56
862.283	1318.34
862.461	1306.32
862.639	1273.39
862.817	1276.87
862.995	1283.46
863.173	1291.99
863.351	1299.16
863.529	1339.84
863.707	1324.54
863.885	1295.09
864.063	1208.87
864.241	1262.73
864.418	1306.91
864.596	1278.23
864.774	1215.84
864.952	1270.09
865.129	1269.9
865.307	1240.84
865.485	1225.73
865.663	1245.29
865.84	1182.13
866.018	1196.86
866.196	1039.53
866.373	1120.52
866.551	1054.26
866.728	1054.84
866.906	1096.69
867.084	1115.29
867.261	1131.76
867.439	1148.03
867.616	1183.49
867.794	1143.38
867.971	1142.03
868.149	1161.6
868.326	1215.46
868.503	1212.55
868.681	1175.35
868.858	1123.81
869.035	1124.4
869.213	1185.62
869.39	1175.16
869.567	1224.37
869.745	1134.47
869.922	1202.67
870.099	1201.31
870.276	1198.6
870.454	1176.9
870.631	1189.11
870.808	1129.43
870.985	1184.46
871.162	1191.43
871.339	1175.93
871.517	1126.53
871.694	1102.5
871.871	1143.38
872.048	1130.98
872.225	1135.83
872.402	1149
872.579	1089.91
872.756	1147.26
872.933	1078.67
873.11	1123.23
873.287	1146.48
873.463	1107.93
873.64	1116.06
873.817	1104.83
873.994	1124.78
874.171	1063.17
874.348	1095.72
874.524	1046.51
874.701	1085.65
874.878	1051.93
875.055	1109.86
875.231	1104.83
875.408	1111.61
875.585	1029.07
875.762	1061.43
875.938	1057.75
876.115	1047.87
876.291	1048.06
876.468	1073.83
876.645	1013.57
876.821	1056.2
876.998	1052.52
877.174	1074.99
877.351	1036.82
877.527	1034.5
877.704	1031.4
877.88	1038.76
878.057	1029.46
878.233	1089.13
878.409	1018.8
878.586	1063.37
878.762	1014.15
878.938	1026.36
879.115	963.59
879.291	1012.99
879.467	970.56
879.644	978.5
879.82	1022.29
879.996	982.96
880.172	946.15
880.349	988.77
880.525	994.59
880.701	958.35
880.877	969.59
881.053	978.7
881.229	976.18
881.405	1031.01
881.581	946.92
881.757	999.43
881.933	989.35
882.109	996.72
882.285	969.79
882.461	906.24
882.637	975.99
882.813	953.51
882.989	962.04
883.165	1016.09
883.341	953.7
883.517	991.1
883.693	984.7
883.869	979.67
884.044	947.31
884.22	1001.17
884.396	1004.47
884.572	1003.11
884.747	1012.02
884.923	1025.39
885.099	973.85
885.275	998.07
885.45	977.34
885.626	952.15
885.801	945.76
885.977	946.15
886.153	889.96
886.328	974.05
886.504	946.92
886.679	964.94
886.855	941.69
887.03	963.2
887.206	994.2
887.381	964.17
887.557	1010.28
887.732	975.02
887.908	980.83
888.083	988.39
888.258	969.98
888.434	940.92
888.609	966.88
888.784	1008.34
888.96	958.55
889.135	930.07
889.31	936.27
889.485	960.68
889.661	959.9
889.836	992.26
890.011	998.07
890.186	964.17
890.361	906.43
890.537	924.84
890.712	960.1
890.887	963
891.062	962.81
891.237	1019.19
891.412	926.39
891.587	948.86
891.762	969.2
891.937	1000.79
892.112	908.76
892.287	959.13
892.462	926.39
892.637	860.32
892.812	887.64
892.987	885.12
893.161	877.37
893.336	870.59
893.511	882.41
893.686	875.24
893.861	851.6
894.035	877.76
894.21	861.29
894.385	819.63
894.56	864
894.734	778.17
894.909	782.82
895.084	769.84
895.258	784.95
895.433	791.34
895.608	746.78
895.782	728.96
895.957	707.84
896.131	717.72
896.306	661.15
896.48	663.86
896.655	663.28
896.829	609.8
897.004	610
897.178	623.17
897.353	603.8
897.527	671.41
897.701	622.4
897.876	582.87
898.05	642.93
898.224	640.42
898.399	641.97
898.573	626.08
898.747	568.92
898.921	554.59
899.096	501.69
899.27	489.1
899.444	510.99
899.618	527.65
899.792	545.87
899.967	555.36
900.141	565.82
900.315	516.42
900.489	522.62
900.663	542.38
900.837	561.17
901.011	508.28
901.185	602.05
901.359	566.02
901.533	598.37
901.707	558.85
901.881	549.74
902.055	494.33
902.229	538.5
902.403	581.13
902.576	538.89
902.75	562.14
902.924	641.77
903.098	601.86
903.272	653.2
903.446	688.66
903.619	661.34
903.793	688.08
903.967	680.71
904.14	734.38
904.314	716.75
904.488	687.69
904.661	707.45
904.835	689.82
905.009	741.75
905.182	751.63
905.356	711.71
905.529	705.9
905.703	669.67
905.876	664.44
906.05	623.37
906.223	621.23
906.397	592.17
906.57	566.6
906.744	550.13
906.917	545.09
907.09	544.12
907.264	539.47
907.437	526.1
907.61	485.61
907.784	492
907.957	503.63
908.13	501.89
908.304	508.47
908.477	461.39
908.65	502.08
908.823	472.63
908.996	515.84
909.17	482.71
909.343	499.75
909.516	470.69
909.689	462.36
909.862	433.3
910.035	499.17
910.208	448.99
910.381	429.62
910.554	527.27
910.727	469.14
910.9	430.97
911.073	457.91
911.246	544.51
911.419	513.12
911.592	500.53
911.765	473.21
911.938	448.41
912.11	471.08
912.283	472.82
912.456	536.18
912.629	479.61
912.802	459.07
912.974	408.11
913.147	386.03
913.32	344.76
913.493	384.67
913.665	423.81
913.838	401.33
914.01	409.08
914.183	432.33
914.356	399.39
914.528	471.66
914.701	474.57
914.873	449.19
915.046	437.76
915.218	377.11
915.391	325.96
915.563	352.31
915.736	395.33
915.908	413.15
916.081	427.1
916.253	387.77
916.425	408.89
916.598	410.63
916.77	417.22
916.942	354.06
917.115	332.55
917.287	376.92
917.459	386.61
917.632	346.5
917.804	298.45
917.976	364.33
918.148	378.28
918.32	418.38
918.493	413.15
918.665	460.62
918.837	397.07
919.009	479.61
919.181	443.37
919.353	456.36
919.525	471.66
919.697	428.65
919.869	413.15
920.041	488.52
920.213	557.69
920.385	471.08
920.557	444.15
920.729	466.82
920.901	438.14
921.073	445.31
921.244	425.94
921.416	482.9
921.588	459.84
921.76	432.72
921.932	508.47
922.103	430.01
922.275	461.97
922.447	452.09
922.619	358.9
922.79	433.88
922.962	410.24
923.134	429.81
923.305	390.48
923.477	364.33
923.648	370.72
923.82	377.69
923.991	335.26
924.163	343.21
924.335	411.79
924.506	358.71
924.677	398.04
924.849	351.54
925.02	376.92
925.192	385.83
925.363	367.23
925.535	397.07
925.706	380.6
925.877	426.71
926.049	335.07
926.22	374.98
926.391	372.66
926.562	393.19
926.734	330.61
926.905	407.34
927.076	301.94
927.247	345.53
927.419	312.98
927.59	287.21
927.761	313.95
927.932	296.51
928.103	280.63
928.274	259.12
928.445	270.36
928.616	264.16
928.787	241.49
928.958	326.93
929.129	276.17
929.3	222.5
929.471	229.28
929.642	163.8
929.813	164.77
929.984	241.3
930.155	156.82
930.326	201.58
930.496	160.31
930.667	132.8
930.838	164.18
931.009	129.31
931.18	111.1
931.35	134.93
931.521	161.47
931.692	83.59
931.863	48.52
932.033	131.64
932.204	86.69
932.374	116.14
932.545	81.65
932.716	124.08
932.886	124.08
933.057	41.16
933.227	44.64
933.398	144.23
933.568	38.44
933.739	13.64
933.909	55.88
934.08	85.72
934.25	7.44
934.421	28.76
934.591	69.25
934.761	30.69
934.932	9.38
935.102	36.31
935.272	26.04
935.443	53.17
935.613	36.12
935.783	54.72
935.953	33.79
936.123	164.18
936.294	21.78
936.464	28.56
936.634	46
936.804	-13.68
936.974	6.28
937.144	59.37
937.314	45.81
937.484	30.31
937.655	-1.47
937.825	54.72
937.995	47.74
938.165	64.02
938.334	46.77
938.504	52
938.674	40.77
938.844	28.76
939.014	89.2
939.184	96.57
939.354	122.34
939.524	141.52
939.694	69.44
939.863	86.69
940.033	146.55
940.203	123.11
940.373	95.4
940.542	97.54
940.712	55.69
940.882	103.74
941.051	117.3
941.221	108.58
941.391	107.8
941.56	75.25
941.73	65.95
941.899	181.04
942.069	79.71
942.238	87.65
942.408	79.52
942.577	112.26
942.747	69.83
942.916	18.68
943.086	84.36
943.255	131.44
943.425	89.2
943.594	44.64
943.763	13.26
943.933	18.87
944.102	-7.48
944.271	59.56
944.441	50.46
944.61	61.89
944.779	57.82
944.948	144.03
945.117	40.57
945.287	71.96
945.456	-6.51
945.625	29.53
945.794	91.34
945.963	36.89
946.132	64.79
946.301	54.72
946.47	87.65
946.639	28.76
946.808	64.02
946.977	85.72
947.146	104.32
947.315	53.75
947.484	77.19
947.653	79.32
947.822	53.36
947.991	17.32
948.16	122.72
948.329	104.32
948.498	70.8
948.666	38.64
948.835	77.58
949.004	38.64
949.173	43.67
949.341	52.59
949.51	67.5
949.679	114.39
949.847	76.8
950.016	146.36
950.185	107.03
950.353	39.22
950.522	55.88
950.69	101.6
950.859	58.2
951.028	95.21
951.196	69.83
951.365	32.05
951.533	50.46
951.701	90.17
951.87	70.99
952.038	11.9
952.207	57.04
952.375	118.27
952.543	45.81
952.712	55.1
952.88	61.69
953.048	109.16
953.217	72.74
953.385	52.97
953.553	100.25
953.721	35.92
953.89	76.8
954.058	16.74
954.226	25.85
954.394	69.83
954.562	6.67
954.73	63.05
954.898	57.04
955.067	92.89
955.235	64.21
955.403	98.7
955.571	133.19
955.739	77.39
955.907	37.86
956.075	58.98
956.243	27.4
956.41	89.2
956.578	6.67
956.746	17.32
956.914	60.34
957.082	100.25
957.25	81.45
957.418	50.07
957.585	77.77
957.753	106.06
957.921	30.31
958.089	45.42
958.256	76.03
958.424	60.14
958.592	57.04
958.759	48.71
958.927	89.59
959.095	34.76
959.262	55.88
959.43	74.87
959.597	29.92
959.765	66.92
959.932	21.01
960.1	82.42
960.267	67.5
960.435	87.27
960.602	94.82
960.77	55.69
960.937	15.39
961.104	70.02
961.272	22.56
961.439	51.42
961.606	72.93
961.774	92.5
961.941	52.2
962.108	87.65
962.275	65.57
962.443	79.32
962.61	73.7
962.777	144.81
962.944	89.4
963.111	99.67
963.278	104.9
963.446	84.36
963.613	53.94
963.78	113.42
963.947	116.52
964.114	101.99
964.281	127.95
964.448	80.1
964.615	69.25
964.782	69.83
964.949	104.51
965.116	100.83
965.282	125.44
965.449	76.22
965.616	89.2
965.783	113.23
965.95	95.6
966.117	20.62
966.283	95.4
966.45	89.01
966.617	94.63
966.784	134.93
966.95	120.2
967.117	150.82
967.284	81.84
967.45	83.78
967.617	124.47
967.784	103.54
967.95	168.83
968.117	91.92
968.283	137.06
968.45	184.92
968.616	109.74
968.783	127.76
968.949	108
969.116	160.12
969.282	108.19
969.449	121.56
969.615	95.02
969.781	69.44
969.948	82.62
970.114	66.73
970.28	163.99
970.447	58.59
970.613	153.72
970.779	106.64
970.945	116.33
971.112	107.03
971.278	104.32
971.444	119.04
971.61	150.23
971.776	107.03
971.942	108.39
972.108	149.85
972.275	88.82
972.441	112.45
972.607	118.46
972.773	92.3
972.939	111.49
973.105	108.97
973.271	77.97
973.437	84.17
973.602	97.54
973.768	100.83
973.934	99.67
974.1	110.52
974.266	36.7
974.432	88.43
974.598	87.65
974.763	120.01
974.929	84.17
975.095	147.33
975.261	86.3
975.426	62.85
975.592	77
975.758	150.04
975.923	50.46
976.089	54.14
976.255	123.3
976.42	94.24
976.586	110.71
976.751	113.42
976.917	170.58
977.082	123.11
977.248	35.15
977.413	37.28
977.579	77.58
977.744	105.29
977.91	67.7
978.075	47.36
978.24	113.62
978.406	79.13
978.571	91.92
978.736	60.14
978.902	114.39
979.067	56.65
979.232	36.7
979.397	80.1
979.563	136.48
979.728	36.12
979.893	69.05
980.058	68.28
980.223	97.73
980.388	53.36
980.554	88.43
980.719	113.23
980.884	110.13
981.049	131.44
981.214	86.3
981.379	116.33
981.544	52.59
981.709	95.79
981.874	64.99
982.039	97.54
982.204	115.94
982.368	89.98
982.533	57.04
982.698	109.74
982.863	120.4
983.028	99.86
983.193	83.39
983.357	82.42
983.522	93.66
983.687	71.38
983.852	87.65
984.016	61.89
984.181	100.05
984.346	75.64
984.51	144.81
984.675	87.27
984.839	121.17
985.004	100.05
985.168	117.69
985.333	106.84
985.498	80.1
985.662	131.05
985.827	107.42
985.991	105.29
986.155	75.06
986.32	115.94
986.484	135.12
986.649	85.52
986.813	35.34
986.977	70.22
987.142	98.89
987.306	54.72
987.47	78.94
987.634	96.18
987.799	102.38
987.963	81.84
988.127	122.14
988.291	144.23
988.455	83.97
988.62	95.6
988.784	86.69
988.948	111.29
989.112	81.65
989.276	61.89
989.44	74.67
989.604	64.02
989.768	87.46
989.932	165.93
990.096	58.2
990.26	34.57
990.424	50.46
990.588	83.97
990.752	115.36
990.915	100.05
991.079	69.25
991.243	64.02
991.407	89.98
991.571	79.71
991.734	93.08
991.898	86.49
992.062	163.41
992.226	70.8
992.389	76.22
992.553	33.99
992.717	70.6
992.88	69.05
993.044	101.8
993.207	93.27
993.371	79.52
993.535	136.67
993.698	67.5
993.862	106.84
994.025	108.97
994.189	88.24
994.352	100.25
994.515	98.89
994.679	97.73
994.842	63.05
995.006	102.38
995.169	36.51
995.332	29.92
995.496	92.3
995.659	29.92
995.822	54.14
995.985	79.71
996.149	120.2
996.312	73.51
996.475	123.5
996.638	67.12
996.801	135.9
996.964	110.9
997.128	67.89
997.291	51.81
997.454	88.62
997.617	37.47
997.78	98.7
997.943	35.34
998.106	88.82
998.269	52.2
998.432	73.32
998.595	64.79
998.758	27.59
998.92	22.36
999.083	37.28
999.246	73.32
999.409	31.27
999.572	21.97
999.735	48.13
999.897	65.95
1000.06	46.58
1000.223	44.26
1000.386	96.57
1000.548	92.5
1000.711	59.75
1000.874	88.04
1001.036	7.64
1001.199	84.75
1001.361	57.04
1001.524	82.42
1001.687	80.1
1001.849	63.63
1002.012	55.49
1002.174	77.58
1002.337	100.64
1002.499	58.4
1002.661	68.28
1002.824	10.16
1002.986	24.11
1003.149	56.85
1003.311	27.21
1003.473	126.6
1003.636	55.3
1003.798	57.04
1003.96	68.28
1004.123	62.27
1004.285	44.26
1004.447	57.04
1004.609	43.48
1004.771	122.72
1004.933	7.06
1005.096	46.19
1005.258	-10.38
1005.42	51.23
1005.582	96.76
1005.744	38.25
1005.906	33.6
1006.068	40.57
1006.23	23.33
1006.392	-1.28
1006.554	33.99
1006.716	77.77
1006.878	83.78
1007.04	13.06
1007.202	46.58
1007.363	35.34
1007.525	64.21
1007.687	69.83
1007.849	51.62
1008.011	17.13
1008.172	28.17
1008.334	36.31
1008.496	85.72
1008.658	-1.47
1008.819	15.77
1008.981	18.29
1009.143	33.6
1009.304	30.89
1009.466	57.62
1009.627	89.2
1009.789	147.13
1009.95	39.99
1010.112	41.16
1010.273	55.69
1010.435	21.59
1010.596	41.54
1010.758	25.85
1010.919	40.77
1011.081	33.79
1011.242	3.57
1011.403	38.83
1011.565	40.96
1011.726	61.11
1011.887	15.77
1012.049	15.19
1012.21	63.82
1012.371	93.47
1012.532	-13.48
1012.693	46.39
1012.855	35.34
1013.016	30.11
1013.177	72.35
1013.338	34.96
1013.499	95.21
1013.66	65.57
1013.821	60.53
1013.982	65.37
1014.143	51.23
1014.304	42.71
1014.465	54.91
1014.626	61.69
1014.787	5.31
1014.948	112.07
1015.109	-3.6
1015.27	68.47
1015.431	44.45
1015.592	-2.44
1015.752	93.85
1015.913	60.34
1016.074	33.79
1016.235	48.91
1016.395	51.23
1016.556	34.37
1016.717	33.02
1016.877	57.82
1017.038	28.76
1017.199	49.49
1017.359	33.41
1017.52	26.04
1017.681	41.16
1017.841	33.41
1018.002	31.47
1018.162	34.96
1018.323	80.1
1018.483	30.5
1018.644	17.32
1018.804	-11.16
1018.964	4.15
1019.125	26.04
1019.285	60.34
1019.446	-1.86
1019.606	-2.05
1019.766	-10.77
1019.926	59.17
1020.087	41.74
1020.247	-27.04
1020.407	43.09
1020.567	34.76
1020.728	49.87
1020.888	15.97
1021.048	4.34
1021.208	4.92
1021.368	2.79
1021.528	57.43
1021.688	73.32
1021.848	57.62
1022.008	28.95
1022.168	5.7
1022.328	49.49
1022.488	27.98
1022.648	26.24
1022.808	21.2
1022.968	19.26
1023.128	-6.7
1023.288	1.05
1023.448	33.21
1023.608	47.36
1023.767	54.72
1023.927	-2.44
1024.087	-0.31
1024.247	-22.2
1024.406	0.08
1024.566	-3.6
1024.726	-28.21
1024.885	15.58
1025.045	34.18
1025.205	15.39
1025.364	27.01
1025.524	26.24
1025.683	4.54
1025.843	22.56
1026.003	30.5
1026.162	86.1
1026.321	18.68
1026.481	43.29
1026.64	17.13
1026.8	12.48
1026.959	54.72
1027.119	15.39
1027.278	-2.83
1027.437	19.46
1027.597	43.87
1027.756	15.39
1027.915	51.42
1028.074	46.77
1028.234	14.22
1028.393	31.86
1028.552	30.5
1028.711	-53.59
1028.87	51.42
1029.03	-11.35
1029.189	27.59
1029.348	-42.35
1029.507	10.93
1029.666	-7.48
1029.825	-3.79
1029.984	-9.61
1030.143	35.34
1030.302	16.74
1030.461	-46.61
1030.62	18.87
1030.779	39.02
1030.938	20.62
1031.097	-10.58
1031.255	30.31
1031.414	48.71
1031.573	42.51
1031.732	-27.82
1031.891	11.51
1032.049	50.84
1032.208	24.49
1032.367	2.6
1032.525	5.89
1032.684	9.57
1032.843	27.59
1033.001	-22.59
1033.16	152.17
1033.319	40.57
1033.477	35.34
1033.636	-0.5
1033.794	-34.79
1033.953	21.59
1034.111	27.4
1034.27	-5.54
1034.428	44.45
1034.587	10.16
1034.745	45.22
1034.903	2.21
1035.062	12.48
1035.22	-16.19
1035.378	40.77
1035.537	-7.48
1035.695	37.67
1035.853	-16.58
1036.011	43.48
1036.17	19.65
1036.328	-55.52
1036.486	42.51
1036.644	12.48
1036.802	-47
1036.96	-12.9
1037.119	36.51
1037.277	8.8
1037.435	-43.9
1037.593	7.83
1037.751	3.76
1037.909	38.83
1038.067	38.83
