Data from gum_young_FLMT105791__26__17-38-25-045.txt Node

Date: Mon Mar 20 17:38:25 GMT 2023
User: antho
Spectrometer: FLMT10579
Trigger mode: 0
Integration Time (sec): 1.000000E-1
Scans to average: 10
Electric dark correction enabled: true
Nonlinearity correction enabled: false
Boxcar width: 0
XAxis mode: Wavelengths
Number of Pixels in Spectrum: 3648
>>>>>Begin Spectral Data<<<<<
345.248	-120.82
345.464	-120.82
345.681	-120.82
345.898	-148.52
346.114	-151.04
346.331	-54.36
346.548	28.56
346.764	-1.28
346.981	-15.23
347.197	-27.82
347.414	45.22
347.631	-30.92
347.847	45.42
348.064	18.29
348.28	33.02
348.497	-39.83
348.713	-1.08
348.93	35.34
349.146	43.67
349.363	19.84
349.579	12.29
349.796	-18.52
350.012	-23.94
350.229	39.02
350.445	8.61
350.661	24.11
350.878	26.24
351.094	-2.44
351.311	39.22
351.527	30.5
351.743	-24.72
351.96	40.57
352.176	47.36
352.392	11.12
352.609	47.36
352.825	-14.84
353.041	37.28
353.257	13.26
353.474	2.02
353.69	24.11
353.906	15
354.122	-20.84
354.339	49.1
354.555	30.89
354.771	-9.99
354.987	68.28
355.203	49.29
355.42	14.03
355.636	-6.51
355.852	0.66
356.068	26.43
356.284	-16.19
356.5	68.86
356.716	32.44
356.932	27.4
357.148	45.22
357.364	-0.5
357.58	55.69
357.796	45.61
358.012	50.84
358.228	14.61
358.444	-63.86
358.66	40.57
358.876	30.69
359.092	-19.49
359.308	29.53
359.524	5.89
359.74	12.67
359.956	13.06
360.172	22.56
360.388	49.68
360.604	7.25
360.819	73.32
361.035	18.68
361.251	31.86
361.467	16.16
361.683	43.67
361.898	26.82
362.114	45.81
362.33	35.34
362.546	26.82
362.762	24.3
362.977	2.79
363.193	-11.35
363.409	42.9
363.624	-7.48
363.84	16.94
364.056	-0.11
364.271	26.43
364.487	33.41
364.703	-6.7
364.918	-18.13
365.134	-17.55
365.35	7.06
365.565	100.05
365.781	7.06
365.996	45.22
366.212	78.94
366.427	26.24
366.643	17.52
366.858	-5.93
367.074	8.41
367.289	70.22
367.505	102.96
367.72	-17.36
367.936	6.47
368.151	55.49
368.367	24.69
368.582	45.81
368.798	-0.31
369.013	61.5
369.228	17.71
369.444	20.62
369.659	60.14
369.874	26.62
370.09	54.52
370.305	-23.56
370.52	0.27
370.736	58.01
370.951	14.22
371.166	65.37
371.381	99.47
371.597	24.88
371.812	3.18
372.027	-2.63
372.242	3.57
372.458	83.2
372.673	4.54
372.888	43.29
373.103	42.51
373.318	102.19
373.533	15.97
373.749	44.26
373.964	-7.48
374.179	45.42
374.394	11.51
374.609	66.34
374.824	-0.89
375.039	67.5
375.254	9.38
375.469	66.34
375.684	23.14
375.899	54.33
376.114	33.79
376.329	35.92
376.544	74.29
376.759	80.1
376.974	12.09
377.189	12.29
377.404	-6.31
377.619	69.25
377.834	-43.32
378.049	-19.68
378.264	-38.09
378.478	23.91
378.693	-1.86
378.908	31.47
379.123	-2.44
379.338	49.1
379.553	9.96
379.767	51.04
379.982	40.77
380.197	61.11
380.412	18.49
380.626	31.08
380.841	90.37
381.056	55.49
381.271	104.51
381.485	7.64
381.7	21.97
381.915	11.71
382.129	45.03
382.344	43.29
382.559	23.52
382.773	69.25
382.988	-16.58
383.202	11.51
383.417	-3.41
383.632	129.31
383.846	12.09
384.061	30.89
384.275	23.52
384.49	35.34
384.704	56.85
384.919	44.26
385.133	27.98
385.348	48.91
385.562	-2.44
385.777	70.8
385.991	47.16
386.206	10.74
386.42	31.27
386.634	56.07
386.849	32.05
387.063	28.76
387.277	21.2
387.492	-15.23
387.706	11.9
387.92	-3.02
388.135	56.07
388.349	19.65
388.563	36.7
388.778	22.36
388.992	62.85
389.206	79.9
389.42	90.75
389.635	52.2
389.849	39.99
390.063	60.34
390.277	47.16
390.491	97.92
390.706	64.21
390.92	72.54
391.134	46.97
391.348	80.29
391.562	0.86
391.776	34.37
391.99	12.48
392.205	68.28
392.419	11.12
392.633	26.24
392.847	60.53
393.061	24.11
393.275	87.07
393.489	27.59
393.703	53.36
393.917	101.8
394.131	22.75
394.345	78.16
394.559	66.73
394.773	25.85
394.986	62.85
395.2	64.99
395.414	67.5
395.628	2.21
395.842	47.55
396.056	43.67
396.27	14.42
396.484	62.66
396.697	47.74
396.911	99.28
397.125	80.29
397.339	89.79
397.553	47.74
397.766	111.49
397.98	82.62
398.194	74.87
398.408	18.49
398.621	72.15
398.835	56.46
399.049	48.91
399.262	99.09
399.476	98.5
399.69	80.49
399.903	136.67
400.117	60.72
400.331	87.85
400.544	58.2
400.758	169.22
400.971	63.82
401.185	96.57
401.398	18.87
401.612	107.03
401.826	74.29
402.039	77.77
402.253	46.19
402.466	90.17
402.68	78.94
402.893	83.78
403.106	60.53
403.32	92.3
403.533	103.74
403.747	68.47
403.96	58.4
404.174	103.35
404.387	46.39
404.6	68.67
404.814	116.91
405.027	92.3
405.24	57.24
405.454	58.2
405.667	89.2
405.88	36.51
406.094	91.14
406.307	90.95
406.52	70.02
406.733	48.13
406.947	38.44
407.16	114.78
407.373	98.89
407.586	54.33
407.799	62.27
408.012	104.9
408.226	45.22
408.439	139.77
408.652	50.65
408.865	109.35
409.078	128.73
409.291	95.99
409.504	38.44
409.717	100.64
409.93	81.65
410.143	81.26
410.357	41.54
410.57	36.31
410.783	75.64
410.996	101.8
411.209	90.95
411.421	146.17
411.634	101.8
411.847	54.52
412.06	85.72
412.273	114.78
412.486	73.9
412.699	143.65
412.912	106.06
413.125	123.3
413.338	100.83
413.55	110.71
413.763	105.29
413.976	124.85
414.189	63.63
414.402	94.82
414.615	151.2
414.827	58.79
415.04	131.25
415.253	103.54
415.466	109.55
415.678	128.15
415.891	107.42
416.104	101.22
416.316	115.17
416.529	90.75
416.742	110.52
416.954	157.98
417.167	116.72
417.38	99.86
417.592	133.57
417.805	84.36
418.017	83.59
418.23	110.52
418.442	69.64
418.655	81.45
418.868	133.57
419.08	157.4
419.293	136.09
419.505	130.86
419.718	116.72
419.93	135.32
420.142	103.93
420.355	156.24
420.567	161.67
420.78	127.37
420.992	112.26
421.205	172.52
421.417	86.49
421.629	119.24
421.842	81.84
422.054	79.71
422.266	168.25
422.479	175.81
422.691	90.75
422.903	127.37
423.115	96.18
423.328	118.07
423.54	129.7
423.752	88.24
423.964	93.47
424.177	130.28
424.389	129.12
424.601	200.42
424.813	111.49
425.025	161.28
425.238	158.57
425.45	107.61
425.662	92.89
425.874	388.74
426.086	120.79
426.298	161.67
426.51	169.03
426.722	135.9
426.934	130.86
427.146	152.17
427.358	100.25
427.57	157.98
427.782	116.14
427.994	103.74
428.206	89.98
428.418	95.6
428.63	149.85
428.842	151.4
429.054	147.91
429.266	162.44
429.478	86.3
429.69	141.13
429.902	98.89
430.114	167.48
430.325	156.43
430.537	116.72
430.749	98.5
430.961	65.37
431.173	116.33
431.384	159.34
431.596	67.31
431.808	122.72
432.02	157.4
432.231	170.19
432.443	186.85
432.655	158.18
432.867	119.24
433.078	151.59
433.29	196.93
433.502	173.87
433.713	188.4
433.925	171.93
434.136	157.79
434.348	108.77
434.56	122.53
434.771	236.26
434.983	102.19
435.194	138.8
435.406	151.59
435.617	186.85
435.829	227.54
436.04	199.25
436.252	203.13
436.463	213.4
436.675	167.48
436.886	190.53
437.098	188.21
437.309	217.85
437.521	166.51
437.732	196.54
437.943	188.79
438.155	178.33
438.366	122.92
438.578	216.88
438.789	198.67
439	199.83
439.211	157.6
439.423	190.15
439.634	212.43
439.845	202.74
440.057	164.18
440.268	236.26
440.479	157.4
440.69	189.18
440.902	171.74
441.113	173.48
441.324	171.74
441.535	215.33
441.746	237.61
441.957	147.33
442.168	169.42
442.38	222.31
442.591	212.04
442.802	173.1
443.013	204.29
443.224	207.2
443.435	185.11
443.646	197.9
443.857	193.44
444.068	189.18
444.279	188.21
444.49	264.93
444.701	218.63
444.912	266.1
445.123	200.03
445.334	244.78
445.545	225.41
445.756	223.47
445.967	172.9
446.178	219.21
446.388	254.08
446.599	238.78
446.81	211.07
447.021	197.12
447.232	238.78
447.443	269.2
447.653	215.72
447.864	258.73
448.075	240.71
448.286	265.32
448.496	249.43
448.707	268.81
448.918	232.58
449.129	312.6
449.339	224.44
449.55	257.38
449.761	241.3
449.971	296.32
450.182	234.13
450.393	276.56
450.603	231.61
450.814	285.66
451.024	280.24
451.235	273.65
451.446	290.7
451.656	293.8
451.867	268.23
452.077	260.09
452.288	311.24
452.498	331.58
452.709	262.61
452.919	264.35
453.13	228.31
453.34	315.31
453.55	228.9
453.761	310.46
453.971	296.32
454.182	297.68
454.392	286.83
454.602	328.48
454.813	290.7
455.023	288.38
455.233	265.9
455.444	290.7
455.654	242.07
455.864	288.57
456.075	285.66
456.285	310.85
456.495	274.81
456.705	300
456.916	338.36
457.126	349.02
457.336	324.22
457.546	236.45
457.756	267.65
457.967	337.2
458.177	283.15
458.387	292.25
458.597	270.55
458.807	307.95
459.017	276.36
459.227	264.35
459.437	271.33
459.647	321.31
459.857	313.37
460.068	278.69
460.278	327.71
460.488	299.42
460.698	356.19
460.908	305.23
461.117	260.67
461.327	292.64
461.537	321.7
461.747	342.43
461.957	304.85
462.167	417.41
462.377	331
462.587	326.54
462.797	342.82
463.007	319.18
463.216	341.46
463.426	400.36
463.636	350.38
463.846	265.13
464.056	274.23
464.265	358.13
464.475	286.63
464.685	324.8
464.895	370.72
465.104	325.96
465.314	345.73
465.524	317.44
465.733	336.81
465.943	387.19
466.153	392.42
466.362	383.31
466.572	358.71
466.782	345.34
466.991	327.71
467.201	418.19
467.41	303.68
467.62	360.64
467.829	328.09
468.039	337.78
468.249	346.31
468.458	333.33
468.668	376.53
468.877	356.19
469.086	403.27
469.296	390.87
469.505	328.48
469.715	425.36
469.924	389.13
470.134	413.34
470.343	410.44
470.552	369.75
470.762	357.16
470.971	326.74
471.18	362.97
471.39	381.57
471.599	342.04
471.808	399.78
472.018	367.23
472.227	418.19
472.436	406.76
472.645	394.16
472.855	372.08
473.064	442.02
473.273	404.24
473.482	414.51
473.691	442.79
473.901	440.27
474.11	408.69
474.319	477.09
474.528	419.16
474.737	469.34
474.946	429.23
475.155	446.86
475.364	475.54
475.573	468.17
475.783	483.48
475.992	458.87
476.201	486.58
476.41	441.82
476.619	394.55
476.828	481.54
477.037	421.67
477.245	457.13
477.454	487.94
477.663	445.7
477.872	456.16
478.081	504.4
478.29	416.25
478.499	560.79
478.708	451.51
478.917	574.54
479.125	469.14
479.334	523.78
479.543	490.07
479.752	494.33
479.961	508.86
480.169	542.38
480.378	507.5
480.587	639.06
480.796	535.79
481.004	501.3
481.213	552.26
481.422	533.27
481.63	547.22
481.839	545.09
482.048	601.67
482.256	550.71
482.465	581.9
482.674	562.14
482.882	561.17
483.091	630.53
483.299	603.99
483.508	610.58
483.716	600.5
483.925	598.18
484.134	565.44
484.342	557.3
484.551	609.8
484.759	623.95
484.967	602.63
485.176	649.52
485.384	643.71
485.593	616.58
485.801	595.66
486.01	591.98
486.218	574.93
486.426	514.87
486.635	539.28
486.843	530.17
487.051	562.34
487.26	569.7
487.468	562.34
487.676	634.22
487.885	574.35
488.093	625.3
488.301	640.42
488.509	598.76
488.717	628.02
488.926	614.45
489.134	622.78
489.342	616.2
489.55	605.73
489.758	663.28
489.967	633.63
490.175	753.37
490.383	648.75
490.591	763.64
490.799	648.17
491.007	726.05
491.215	694.47
491.423	685.75
491.631	691.56
491.839	715.98
492.047	730.51
492.255	686.53
492.463	644.87
492.671	664.44
492.879	689.43
493.087	706.1
493.295	726.25
493.503	731.28
493.711	784.37
493.919	773.33
494.127	748.14
494.334	769.84
494.542	706.48
494.75	764.99
494.958	747.36
495.166	777.59
495.374	788.83
495.581	797.74
495.789	790.76
495.997	808.39
496.205	782.04
496.412	759.38
496.62	830.68
496.828	791.34
497.035	800.45
497.243	818.66
497.451	795.41
497.658	793.67
497.866	814.01
498.074	868.84
498.281	768.48
498.489	877.17
498.696	847.34
498.904	818.66
499.112	828.35
499.319	876.01
499.527	803.36
499.734	900.42
499.942	821.38
500.149	813.82
500.357	887.06
500.564	827.96
500.771	881.44
500.979	822.73
501.186	817.11
501.394	851.02
501.601	858.77
501.808	900.62
502.016	841.52
502.223	840.36
502.43	865.36
502.638	892.67
502.845	862.64
503.052	950.99
503.26	898.87
503.467	972.11
503.674	909.92
503.881	915.34
504.089	1001.95
504.296	947.12
504.503	879.69
504.71	932.39
504.917	906.62
505.125	951.77
505.332	943.82
505.539	992.45
505.746	1026.55
505.953	1006.99
506.16	1016.09
506.367	1046.51
506.574	1076.73
506.781	1099.6
506.988	981.22
507.195	1009.5
507.402	1049.22
507.609	1093.98
507.816	1017.25
508.023	1041.86
508.23	1037.02
508.437	1001.56
508.644	1074.99
508.851	1100.18
509.058	1119.94
509.265	1119.75
509.472	1138.73
509.679	1195.89
509.885	1126.33
510.092	1125.17
510.299	1121.1
510.506	1108.31
510.713	1161.4
510.92	1169.35
511.126	1212.16
511.333	1211.58
511.54	1182.13
511.746	1272.81
511.953	1256.73
512.16	1275.71
512.367	1235.8
512.573	1200.15
512.78	1249.36
512.987	1242.58
513.193	1232.89
513.4	1158.69
513.606	1211.97
513.813	1276.29
514.02	1218.17
514.226	1283.85
514.433	1304
514.639	1248.98
514.846	1261.76
515.052	1306.13
515.259	1279.78
515.465	1300.32
515.672	1305.94
515.878	1400.29
516.085	1350.89
516.291	1363.09
516.497	1327.44
516.704	1323.57
516.91	1256.92
517.117	1208.68
517.323	1209.06
517.529	1205.38
517.736	1252.66
517.942	1302.06
518.148	1281.91
518.354	1328.41
518.561	1315.04
518.767	1349.53
518.973	1382.85
519.179	1381.3
519.386	1367.55
519.592	1393.7
519.798	1421.22
520.004	1499.49
520.21	1447.57
520.417	1538.43
520.623	1571.18
520.829	1531.27
521.035	1581.06
521.241	1555.29
521.447	1601.21
521.653	1654.1
521.859	1607.99
522.065	1603.15
522.271	1688.59
522.477	1668.24
522.683	1716.87
522.889	1668.44
523.095	1656.81
523.301	1630.85
523.507	1653.33
523.713	1727.53
523.919	1628.91
524.125	1749.62
524.331	1730.24
524.537	1804.84
524.742	1822.47
524.948	1840.49
525.154	1836.42
525.36	1896.09
525.566	1828.28
525.772	1848.43
525.977	1792.82
526.183	1887.76
526.389	1885.24
526.595	1770.93
526.8	1785.27
527.006	1733.15
527.212	1689.75
527.417	1684.52
527.623	1685.49
527.829	1769.38
528.034	1833.7
528.24	1842.81
528.446	1781.78
528.651	1936.58
528.857	1923.6
529.062	1998.39
529.268	1993.35
529.473	1971.46
529.679	1979.6
529.884	2068.14
530.09	2006.33
530.295	2000.71
530.501	2000.13
530.706	2014.86
530.912	1991.41
531.117	2015.63
531.323	2059.03
531.528	2100.49
531.733	2095.46
531.939	2082.86
532.144	2082.09
532.35	2065.23
532.555	2106.89
532.76	2088.68
532.966	2035.59
533.171	2030.36
533.376	2013.7
533.581	1984.05
533.787	2034.23
533.992	2104.76
534.197	2098.94
534.402	2098.36
534.607	2151.06
534.813	2212.87
535.018	2091.58
535.223	2134.79
535.428	2111.54
535.633	2200.27
535.838	2187.1
536.043	2208.99
536.249	2278.94
536.454	2205.12
536.659	2195.43
536.864	2167.72
537.069	2170.82
537.274	2176.64
537.479	2202.02
537.684	2183.03
537.889	2170.63
538.094	2255.3
538.299	2217.71
538.504	2232.44
538.708	2212.48
538.913	2269.44
539.118	2243.87
539.323	2234.37
539.528	2193.49
539.733	2254.14
539.938	2246.97
540.142	2234.96
540.347	2230.5
540.552	2231.08
540.757	2151.06
540.962	2204.34
541.166	2166.17
541.371	2181.29
541.576	2195.04
541.781	2107.86
541.985	2248.52
542.19	2235.34
542.395	2317.1
542.599	2319.04
542.804	2294.63
543.008	2324.08
543.213	2249.68
543.418	2260.53
543.622	2280.68
543.827	2226.43
544.031	2318.07
544.236	2333.38
544.44	2315.55
544.645	2388.98
544.849	2322.34
545.054	2347.52
545.258	2417.46
545.463	2407.39
545.667	2275.64
545.872	2352.56
546.076	2347.13
546.281	2339.58
546.485	2307.8
546.689	2355.66
546.894	2368.45
547.098	2373.48
547.302	2325.05
547.507	2368.83
547.711	2365.73
547.915	2394.8
548.119	2305.67
548.324	2335.51
548.528	2386.08
548.732	2344.03
548.936	2378.13
549.141	2370
549.345	2379.49
549.549	2368.64
549.753	2389.18
549.957	2446.91
550.161	2454.28
550.366	2420.95
550.57	2357.79
550.774	2376.2
550.978	2416.3
551.182	2417.66
551.386	2353.53
551.59	2390.73
551.794	2377.36
551.998	2415.33
552.202	2408.36
552.406	2346.36
552.61	2460.28
552.814	2453.31
553.018	2510.46
553.222	2374.65
553.426	2350.62
553.63	2447.69
553.833	2422.11
554.037	2334.93
554.241	2401.19
554.445	2434.71
554.649	2383.56
554.853	2399.45
555.056	2438.97
555.26	2458.15
555.464	2398.67
555.668	2425.21
555.871	2440.71
556.075	2433.55
556.279	2418.43
556.483	2343.45
556.686	2373.68
556.89	2376.2
557.094	2435.87
557.297	2304.51
557.501	2359.73
557.704	2313.81
557.908	2378.52
558.112	2297.15
558.315	2396.54
558.519	2340.35
558.722	2335.9
558.926	2300.05
559.129	2205.51
559.333	2250.84
559.536	2239.8
559.74	2269.83
559.943	2195.24
560.147	2217.13
560.35	2206.09
560.553	2243.67
560.757	2216.74
560.96	2297.92
561.164	2243.87
561.367	2350.23
561.57	2218.68
561.774	2282.23
561.977	2222.94
562.18	2228.56
562.384	2312.65
562.587	2204.73
562.79	2255.1
562.993	2236.5
563.197	2227.01
563.4	2278.55
563.603	2279.71
563.806	2311.29
564.009	2188.84
564.212	2211.51
564.416	2139.63
564.619	2202.41
564.822	2132.66
565.025	2186.71
565.228	2189.42
565.431	2168.11
565.634	2093.13
565.837	2098.56
566.04	2072.21
566.243	2117.35
566.446	2012.15
566.649	2152.03
566.852	2035.78
567.055	2065.04
567.258	2108.24
567.461	2152.42
567.664	2146.99
567.867	2071.04
568.07	2100.88
568.273	2094.68
568.475	2117.54
568.678	2041.4
568.881	2023.19
569.084	1999.94
569.287	1942.78
569.489	1928.83
569.692	2000.52
569.895	2010.6
570.098	1926.9
570.3	1917.6
570.503	1892.8
570.706	1876.52
570.909	1882.14
571.111	1817.82
571.314	1820.34
571.516	1855.99
571.719	1890.67
571.922	1877.49
572.124	1871.49
572.327	1906.94
572.529	1828.28
572.732	1846.1
572.935	1880.98
573.137	1920.7
573.34	1804.06
573.542	1900.16
573.745	1896.67
573.947	1877.3
574.15	1821.5
574.352	1796.89
574.554	1885.63
574.757	1817.43
574.959	1762.79
575.162	1777.13
575.364	1754.85
575.566	1851.72
575.769	1758.92
575.971	1777.32
576.173	1706.22
576.376	1770.35
576.578	1786.43
576.78	1823.63
576.982	1696.53
577.185	1766.09
577.387	1712.81
577.589	1737.41
577.791	1739.35
577.993	1771.9
578.196	1744.19
578.398	1723.66
578.6	1753.49
578.802	1714.16
579.004	1708.35
579.206	1707.19
579.408	1728.31
579.61	1672.51
579.812	1716.1
580.014	1698.28
580.216	1706.22
580.418	1716.29
580.62	1678.9
580.822	1654.49
581.024	1715.71
581.226	1737.61
581.428	1700.99
581.63	1794.76
581.832	1661.66
582.034	1764.15
582.236	1741.87
582.438	1771.12
582.64	1805.61
582.841	1769.57
583.043	1835.06
583.245	1755.24
583.447	1750.2
583.649	1754.46
583.85	1778.1
584.052	1756.79
584.254	1700.02
584.456	1773.45
584.657	1704.28
584.859	1773.06
585.061	1699.24
585.262	1708.74
585.464	1705.25
585.666	1728.89
585.867	1669.02
586.069	1734.89
586.27	1687.23
586.472	1693.04
586.674	1663.4
586.875	1686.26
587.077	1671.73
587.278	1653.33
587.48	1650.81
587.681	1726.37
587.883	1676.77
588.084	1608.57
588.285	1612.45
588.487	1633.37
588.688	1640.15
588.89	1558.58
589.091	1494.07
589.292	1475.85
589.494	1442.14
589.695	1445.63
589.896	1390.41
590.098	1368.52
590.299	1472.75
590.5	1419.28
590.702	1446.02
590.903	1474.5
591.104	1564.98
591.305	1498.72
591.507	1550.06
591.708	1522.55
591.909	1518.09
592.11	1564.78
592.311	1583.19
592.512	1515.57
592.714	1453.96
592.915	1472.17
593.116	1511.89
593.317	1532.23
593.518	1514.22
593.719	1510.92
593.92	1562.65
594.121	1572.92
594.322	1519.25
594.523	1515.18
594.724	1482.25
594.925	1507.24
595.126	1508.21
595.327	1506.85
595.528	1521
595.729	1512.47
595.929	1493.48
596.13	1502.98
596.331	1541.15
596.532	1528.75
596.733	1579.7
596.934	1549.86
597.135	1535.72
597.335	1527
597.536	1494.84
597.737	1518.67
597.938	1504.53
598.138	1551.8
598.339	1547.93
598.54	1539.01
598.74	1491.35
598.941	1504.53
599.142	1552.38
599.342	1529.52
599.543	1500.46
599.744	1500.65
599.944	1493.29
600.145	1516.35
600.345	1524.29
600.546	1536.3
600.746	1521.38
600.947	1601.6
601.147	1507.43
601.348	1534.75
601.548	1487.67
601.749	1542.7
601.949	1478.37
602.15	1477.21
602.35	1451.63
602.551	1508.21
602.751	1458.8
602.951	1481.86
603.152	1414.05
603.352	1506.27
603.552	1504.14
603.753	1532.04
603.953	1534.75
604.153	1499.49
604.354	1523.9
604.554	1497.75
604.754	1521.38
604.954	1469.07
605.155	1504.72
605.355	1503.37
605.555	1558.78
605.755	1550.64
605.955	1510.15
606.155	1520.22
606.356	1517.7
606.556	1527.97
606.756	1542.7
606.956	1448.54
607.156	1564.98
607.356	1465.2
607.556	1472.17
607.756	1527
607.956	1497.94
608.156	1495.62
608.356	1440.98
608.556	1481.86
608.756	1457.45
608.956	1445.24
609.156	1468.88
609.356	1428.58
609.556	1388.09
609.755	1445.24
609.955	1413.47
610.155	1430.52
610.355	1457.25
610.555	1434.78
610.755	1395.84
610.954	1377.24
611.154	1406.69
611.354	1468.88
611.554	1384.4
611.753	1410.95
611.953	1372.2
612.153	1440.01
612.352	1414.63
612.552	1380.53
612.752	1335
612.951	1401.07
613.151	1405.72
613.351	1338.1
613.55	1392.93
613.75	1376.65
613.949	1330.16
614.149	1364.06
614.348	1359.8
614.548	1329.38
614.747	1305.16
614.947	1326.47
615.146	1259.24
615.346	1351.47
615.545	1354.96
615.745	1350.31
615.944	1354.57
616.144	1337.32
616.343	1349.14
616.542	1277.84
616.742	1273.58
616.941	1290.63
617.14	1258.66
617.34	1269.9
617.539	1300.9
617.738	1248.98
617.938	1362.51
618.137	1305.55
618.336	1226.69
618.535	1316.98
618.734	1297.61
618.934	1330.35
619.133	1279.59
619.332	1312.52
619.531	1278.04
619.73	1277.07
619.929	1301.48
620.128	1296.64
620.328	1335.77
620.527	1260.02
620.726	1290.82
620.925	1291.99
621.124	1269.32
621.323	1284.62
621.522	1234.06
621.721	1273.97
621.92	1216.62
622.119	1262.54
622.318	1238.51
622.517	1258.28
622.715	1162.76
622.914	1213.13
623.113	1224.76
623.312	1172.45
623.511	1226.31
623.71	1202.28
623.909	1201.31
624.107	1289.47
624.306	1170.12
624.505	1206.74
624.704	1196.47
624.902	1176.13
625.101	1237.35
625.3	1188.14
625.499	1159.08
625.697	1196.28
625.896	1178.26
626.095	1186.59
626.293	1160.43
626.492	1166.63
626.69	1205.77
626.889	1172.83
627.088	1208.87
627.286	1164.31
627.485	1153.85
627.683	1133.89
627.882	1159.08
628.08	1099.79
628.279	1097.66
628.477	1193.56
628.676	1099.4
628.874	1148.23
629.073	1088.17
629.271	1090.3
629.469	1130.01
629.668	1088.75
629.866	1097.47
630.065	1086.23
630.263	1154.62
630.461	1087
630.66	1091.85
630.858	1111.41
631.056	1154.23
631.254	1157.14
631.453	1102.11
631.651	1157.14
631.849	1122.26
632.047	1148.81
632.245	1127.11
632.444	1120.91
632.642	1148.03
632.84	1169.15
633.038	1096.3
633.236	1060.07
633.434	1119.94
633.632	1084.87
633.83	1085.45
634.028	1137.96
634.227	1143.38
634.425	1188.14
634.623	1100.18
634.821	1138.93
635.019	1135.25
635.216	1139.9
635.414	1160.82
635.612	1151.52
635.81	1128.08
636.008	1201.12
636.206	1138.93
636.404	1129.82
636.602	1100.76
636.8	1108.9
636.997	1152.1
637.195	1182.13
637.393	1156.95
637.591	1161.4
637.789	1133.5
637.986	1117.03
638.184	1132.15
638.382	1191.82
638.58	1158.3
638.777	1191.24
638.975	1109.67
639.173	1148.42
639.37	1134.08
639.568	1126.33
639.765	1144.55
639.963	1100.18
640.161	1104.25
640.358	1161.79
640.556	1078.28
640.753	1063.17
640.951	1043.22
641.148	1089.52
641.346	1062.01
641.543	1059.49
641.741	1050.97
641.938	1065.3
642.136	1039.15
642.333	1006.4
642.531	1093.78
642.728	1096.5
642.925	1056.2
643.123	1034.88
643.32	1045.15
643.517	1024.81
643.715	1027.91
643.912	1030.04
644.109	1042.44
644.306	1034.5
644.504	966.49
644.701	1025.97
644.898	1028.3
645.095	995.55
645.293	1007.57
645.49	990.9
645.687	1010.67
645.884	1022.29
646.081	909.72
646.278	913.99
646.475	933.36
646.672	948.67
646.87	962.04
647.067	951.38
647.264	946.15
647.461	890.16
647.658	872.91
647.855	926.58
648.052	861.87
648.249	848.31
648.446	896.55
648.642	870.78
648.839	843.27
649.036	880.66
649.233	833.97
649.43	847.92
649.627	814.79
649.824	870.59
650.021	832.03
650.217	830.48
650.414	837.65
650.611	869.42
650.808	902.75
651.004	882.99
651.201	900.23
651.398	938.4
651.595	855.86
651.791	855.09
651.988	894.22
652.185	820.99
652.381	864.97
652.578	822.93
652.775	881.05
652.971	875.43
653.168	843.66
653.364	888.22
653.561	797.54
653.757	843.66
653.954	857.22
654.15	820.21
654.347	906.82
654.543	846.95
654.74	799.87
654.936	808.2
655.133	838.42
655.329	834.74
655.525	805.88
655.722	806.46
655.918	740.97
656.115	784.18
656.311	726.63
656.507	702.22
656.704	667.15
656.9	685.17
657.096	737.1
657.292	675.48
657.489	753.56
657.685	741.55
657.881	725.08
658.077	744.07
658.273	738.26
658.47	814.79
658.666	774.29
658.862	784.95
659.058	745.81
659.254	831.06
659.45	789.79
659.646	766.93
659.842	774.29
660.038	826.03
660.234	741.75
660.43	788.63
660.626	833.97
660.822	798.71
661.018	818.86
661.214	792.12
661.41	757.63
661.606	784.56
661.802	811.69
661.998	792.31
662.194	736.71
662.39	776.04
662.586	787.66
662.781	814.79
662.977	781.27
663.173	773.33
663.369	758.79
663.564	781.08
663.76	774.1
663.956	754.34
664.152	798.9
664.347	708.61
664.543	722.76
664.739	716.95
664.934	701.64
665.13	678.2
665.326	768.09
665.521	716.56
665.717	690.21
665.912	686.91
666.108	603.6
666.304	683.81
666.499	719.46
666.695	639.83
666.89	685.17
667.086	719.85
667.281	707.06
667.477	756.86
667.672	721.01
667.867	691.95
668.063	687.5
668.258	674.9
668.454	692.15
668.649	739.81
668.844	692.34
669.04	695.83
669.235	650.3
669.43	640.22
669.626	642.93
669.821	647.78
670.016	637.12
670.211	664.05
670.407	588.88
670.602	669.09
670.797	609.22
670.992	668.31
671.187	602.05
671.382	652.62
671.578	615.23
671.773	662.7
671.968	586.36
672.163	650.3
672.358	678.2
672.553	629.76
672.748	630.34
672.943	687.5
673.138	646.81
673.333	655.53
673.528	609.61
673.723	625.69
673.918	609.42
674.113	585.39
674.308	694.86
674.503	643.13
674.698	644.87
674.892	651.27
675.087	634.22
675.282	631.31
675.477	609.61
675.672	676.65
675.867	603.8
676.061	577.64
676.256	586.75
676.451	594.69
676.646	600.7
676.84	604.57
677.035	577.64
677.23	569.31
677.424	628.98
677.619	629.37
677.814	679.75
678.008	641.58
678.203	554.97
678.397	586.55
678.592	611.74
678.787	653.78
678.981	621.43
679.176	627.24
679.37	618.13
679.565	588.68
679.759	604.38
679.954	614.84
680.148	677.03
680.342	672.96
680.537	643.32
680.731	618.33
680.926	662.89
681.12	636.73
681.314	604.18
681.509	627.43
681.703	626.27
681.897	654.75
682.092	632.08
682.286	627.24
682.48	698.73
682.674	659.02
682.869	643.71
683.063	637.9
683.257	669.28
683.451	613.1
683.645	639.06
683.839	644.29
684.034	629.37
684.228	648.55
684.422	590.62
684.616	623.56
684.81	659.79
685.004	644.68
685.198	674.71
685.392	677.42
685.586	648.17
685.78	707.06
685.974	658.43
686.168	678
686.362	727.02
686.556	596.24
686.75	597.02
686.944	603.6
687.138	597.4
687.331	538.31
687.525	530.37
687.719	465.85
687.913	548.39
688.107	564.08
688.301	542.57
688.494	574.54
688.688	567.57
688.882	531.72
689.076	532.11
689.269	578.03
689.463	637.51
689.657	612.13
689.85	609.61
690.044	606.32
690.238	606.51
690.431	652.23
690.625	641.58
690.818	711.33
691.012	684.78
691.205	751.24
691.399	732.06
691.593	726.44
691.786	814.98
691.98	791.15
692.173	816.14
692.366	797.54
692.56	838.62
692.753	853.92
692.947	835.91
693.14	881.63
693.333	896.55
693.527	839.78
693.72	926.19
693.914	870.97
694.107	873.69
694.3	930.26
694.493	922.12
694.687	943.24
694.88	883.96
695.073	1004.66
695.266	984.7
695.46	969.59
695.653	1027.52
695.846	1037.98
696.039	965.14
696.232	1029.07
696.425	1130.98
696.618	1118.78
696.812	1120.91
697.005	1207.32
697.198	1237.35
697.391	1180.39
697.584	1230.38
697.777	1260.21
697.97	1260.99
698.163	1264.86
698.356	1265.44
698.549	1366.97
698.742	1296.25
698.935	1297.99
699.127	1311.56
699.32	1290.44
699.513	1320.27
699.706	1319.89
699.899	1381.89
700.092	1310.39
700.285	1379.75
700.477	1311.75
700.67	1371.42
700.863	1406.49
701.056	1479.92
701.248	1421.02
701.441	1446.99
701.634	1439.82
701.826	1508.79
702.019	1417.54
702.212	1508.21
702.404	1441.56
702.597	1463.07
702.79	1525.07
702.982	1510.92
703.175	1559.75
703.367	1558.58
703.56	1591.91
703.752	1637.83
703.945	1614.58
704.137	1669.41
704.33	1680.84
704.522	1692.85
704.715	1724.43
704.907	1717.65
705.1	1746.52
705.292	1732.57
705.484	1720.17
705.677	1801.74
705.869	1773.06
706.061	1842.04
706.254	1844.94
706.446	1792.05
706.638	1834.67
706.831	1874.97
707.023	1845.52
707.215	1958.87
707.407	1925.35
707.599	1909.07
707.792	1942.98
707.984	1960.61
708.176	2001.68
708.368	2008.85
708.56	1997.61
708.752	1979.4
708.944	1995.68
709.136	2049.54
709.329	2011.76
709.521	2119.68
709.713	2078.79
709.905	2126.46
710.097	2161.72
710.289	2129.17
710.481	2112.89
710.672	2115.41
710.864	2116.19
711.056	2216.36
711.248	2183.22
711.44	2191.56
711.632	2195.62
711.824	2236.7
712.016	2263.82
712.207	2271.96
712.399	2265.76
712.591	2297.15
712.783	2320.2
712.975	2293.47
713.166	2249.49
713.358	2285.91
713.55	2363.22
713.741	2332.41
713.933	2362.44
714.125	2349.07
714.316	2331.83
714.508	2402.93
714.7	2412.23
714.891	2398.87
715.083	2416.69
715.274	2368.83
715.466	2379.68
715.657	2428.31
715.849	2322.92
716.04	2365.73
716.232	2312.07
716.423	2360.31
716.615	2277.77
716.806	2204.54
716.998	2193.11
717.189	2076.86
717.381	1987.93
717.572	1952.86
717.763	1976.69
717.955	1963.13
718.146	1935.03
718.337	1887.76
718.528	1844.36
718.72	1744
718.911	1802.32
719.102	1759.69
719.293	1800.19
719.485	1783.33
719.676	1741.29
719.867	1707.77
720.058	1763.37
720.249	1717.46
720.44	1762.79
720.632	1839.71
720.823	1860.05
721.014	1982.7
721.205	2019.12
721.396	2090.42
721.587	2217.71
721.778	2212.67
721.969	2260.53
722.16	2363.41
722.351	2355.66
722.542	2476.75
722.733	2476.36
722.924	2370.77
723.115	2403.13
723.305	2386.08
723.496	2370.38
723.687	2262.66
723.878	2272.93
724.069	2261.3
724.26	2290.75
724.45	2183.42
724.641	2181.67
724.832	2196.79
725.023	2201.82
725.213	2165.98
725.404	2168.89
725.595	2173.73
725.785	2160.94
725.976	2220.62
726.167	2248.71
726.357	2243.29
726.548	2341.71
726.739	2243.29
726.929	2291.14
727.12	2348.3
727.31	2335.51
727.501	2280.1
727.691	2307.22
727.882	2317.49
728.072	2342.48
728.263	2384.14
728.453	2417.46
728.644	2419.6
728.834	2396.15
729.024	2345.78
729.215	2374.84
729.405	2380.65
729.596	2450.6
729.786	2483.34
729.976	2473.85
730.167	2500.78
730.357	2462.41
730.547	2443.04
730.737	2496.13
730.928	2519.57
731.118	2568.98
731.308	2483.92
731.498	2541.27
731.688	2598.81
731.879	2634.66
732.069	2688.71
732.259	2709.83
732.449	2737.15
732.639	2820.65
732.829	2857.46
733.019	2877.61
733.209	2938.84
733.399	2963.44
733.589	2997.35
733.779	3038.23
733.969	3032.61
734.159	3154.48
734.349	3166.49
734.539	3168.24
734.729	3148.28
734.919	3191.87
735.109	3257.55
735.299	3181.02
735.488	3227.72
735.678	3227.91
735.868	3216.28
736.058	3203.5
736.248	3208.34
736.437	3145.18
736.627	3156.8
736.817	3287.78
737.007	3214.73
737.196	3258.33
737.386	3269.37
737.576	3172.3
737.765	3288.75
737.955	3292.04
738.144	3379.23
738.334	3362.95
738.524	3274.02
738.713	3339.9
738.903	3285.65
739.092	3367.6
739.282	3347.06
739.471	3404.8
739.661	3324.59
739.85	3415.26
740.04	3398.79
740.229	3464.09
740.419	3491.99
740.608	3473.77
740.797	3424.56
740.987	3487.53
741.176	3493.54
741.365	3486.37
741.555	3443.94
741.744	3496.64
741.933	3484.24
742.123	3469.12
742.312	3527.83
742.501	3571.04
742.69	3558.64
742.88	3499.74
743.069	3608.24
743.258	3552.82
743.447	3590.02
743.636	3579.95
743.825	3552.63
744.014	3582.08
744.204	3607.85
744.393	3542.56
744.582	3656.48
744.771	3679.15
744.96	3621.22
745.149	3659.77
745.338	3622.38
745.527	3708.21
745.716	3662.1
745.905	3632.07
746.094	3643.88
746.283	3687.87
746.471	3657.83
746.66	3743.66
746.849	3699.88
747.038	3687.28
747.227	3639.82
747.416	3721.96
747.604	3649.5
747.793	3673.14
747.982	3658.61
748.171	3698.52
748.359	3672.37
748.548	3715.38
748.737	3682.05
748.926	3633.23
749.114	3574.72
749.303	3654.73
749.491	3640.01
749.68	3582.27
749.869	3685.15
750.057	3628.19
750.246	3610.75
750.434	3637.3
750.623	3650.08
750.811	3646.98
751	3634.78
751.188	3626.25
751.377	3643.69
751.565	3638.65
751.754	3563.29
751.942	3584.02
752.131	3625.67
752.319	3569.87
752.507	3541.01
752.696	3613.27
752.884	3571.04
753.072	3576.27
753.261	3553.4
753.449	3605.91
753.637	3531.51
753.825	3627.61
754.014	3585.76
754.202	3578.01
754.39	3606.3
754.578	3590.8
754.766	3496.25
754.955	3529.19
755.143	3614.44
755.331	3529.96
755.519	3548.17
755.707	3520.47
755.895	3482.69
756.083	3477.84
756.271	3479.2
756.459	3504.19
756.647	3512.33
756.835	3444.52
757.023	3487.53
757.211	3416.62
757.399	3456.73
757.587	3455.37
757.775	3423.01
757.963	3440.06
758.151	3438.32
758.339	3412.36
758.526	3398.41
758.714	3407.71
758.902	3303.47
759.09	3162.42
759.278	2992.7
759.465	2733.47
759.653	2367.67
759.841	2156.68
760.028	1861.22
760.216	1608.38
760.404	1462.29
760.591	1235.22
760.779	1025.39
760.967	898.49
761.154	727.8
761.342	787.08
761.529	776.43
761.717	819.24
761.905	819.05
762.092	860.71
762.28	792.89
762.467	808.98
762.655	702.8
762.842	737.87
763.029	737.1
763.217	745.23
763.404	774.68
763.592	773.91
763.779	729.73
763.966	818.66
764.154	870.78
764.341	868.26
764.528	890.93
764.716	983.35
764.903	1031.4
765.09	1087.78
765.277	1125.56
765.465	1291.6
765.652	1326.86
765.839	1442.72
766.026	1553.74
766.213	1633.95
766.4	1708.54
766.588	1892.22
766.775	1948.21
766.962	2066.98
767.149	2156.29
767.336	2249.29
767.523	2238.64
767.71	2419.6
767.897	2495.55
768.084	2567.43
768.271	2617.99
768.458	2675.54
768.645	2752.65
768.832	2752.26
769.019	2789.65
769.206	2794.3
769.392	2878
769.579	2980.49
769.766	2931.86
769.953	2940.97
770.14	2997.16
770.327	2963.44
770.513	3000.45
770.7	3065.74
770.887	2969.45
771.073	3057.02
771.26	3048.69
771.447	3042.69
771.634	3019.44
771.82	3150.99
772.007	3031.26
772.193	3096.74
772.38	3113.99
772.567	3082.02
772.753	3037.65
772.94	3087.06
773.126	3100.62
773.313	3054.12
773.499	3063.42
773.686	3094.03
773.872	3020.99
774.059	3063.81
774.245	3019.83
774.432	3051.02
774.618	2975.84
774.804	3041.91
774.991	2967.32
775.177	3045.79
775.363	3033
775.55	3066.32
775.736	2942.71
775.922	3036.49
776.109	3015.76
776.295	2998.32
776.481	3033.19
776.667	3041.14
776.853	2985.92
777.04	2973.91
777.226	2972.16
777.412	3058.77
777.598	2939.61
777.784	2974.49
777.97	2928.57
778.156	2954.73
778.342	2937.48
778.528	2960.34
778.715	2877.23
778.901	2898.54
779.087	2898.93
779.272	2896.8
779.458	2868.31
779.644	2909.2
779.83	2925.66
780.016	2965.58
780.202	2918.88
780.388	2858.05
780.574	2798.37
780.76	2874.71
780.946	2878.78
781.131	2855.91
781.317	2865.21
781.503	2779.97
781.689	2828.6
781.874	2914.81
782.06	2804.38
782.246	2839.25
782.432	2849.52
782.617	2826.85
782.803	2878
782.989	2802.25
783.174	2837.9
783.36	2790.62
783.545	2788.49
783.731	2794.5
783.916	2720.1
784.102	2796.24
784.288	2743.15
784.473	2761.95
784.659	2730.95
784.844	2792.75
785.029	2734.44
785.215	2704.21
785.4	2712.74
785.586	2764.85
785.771	2602.3
785.956	2741.99
786.142	2700.14
786.327	2676.7
786.512	2677.09
786.698	2677.67
786.883	2593.58
787.068	2615.67
787.254	2651.12
787.439	2623.22
787.624	2603.46
787.809	2574.98
787.994	2604.04
788.18	2654.03
788.365	2570.53
788.55	2535.46
788.735	2586.02
788.92	2598.62
789.105	2540.49
789.29	2551.34
789.475	2503.49
789.66	2510.85
789.845	2476.56
790.03	2470.94
790.215	2511.04
790.4	2473.07
790.585	2519.76
790.77	2462.61
790.955	2412.81
791.14	2444.59
791.325	2537.98
791.51	2397.32
791.695	2443.04
791.879	2433.74
792.064	2424.44
792.249	2520.54
792.434	2462.41
792.618	2454.08
792.803	2435.68
792.988	2443.43
793.173	2468.42
793.357	2481.4
793.542	2421.73
793.727	2453.11
793.911	2495.55
794.096	2464.93
794.281	2516.66
794.465	2573.82
794.65	2473.46
794.834	2529.26
795.019	2544.18
795.203	2551.73
795.388	2536.43
795.572	2566.84
795.757	2509.49
795.941	2479.27
796.126	2496.71
796.31	2424.25
796.494	2449.43
796.679	2474.04
796.863	2406.03
797.048	2507.56
797.232	2503.29
797.416	2501.74
797.601	2521.51
797.785	2573.63
797.969	2542.63
798.153	2470.94
798.338	2507.94
798.522	2534.68
798.706	2563.74
798.89	2520.54
799.074	2619.35
799.258	2585.44
799.443	2537.98
799.627	2529.45
799.811	2586.61
799.995	2545.34
800.179	2506.39
800.363	2500.97
800.547	2528.09
800.731	2508.14
800.915	2473.46
801.099	2483.15
801.283	2514.73
801.467	2504.07
801.651	2461.83
801.835	2511.24
802.019	2499.61
802.202	2507.36
802.386	2451.56
802.57	2469.39
802.754	2480.24
802.938	2417.08
803.121	2429.48
803.305	2507.17
803.489	2496.71
803.673	2528.87
803.856	2466.1
804.04	2455.63
804.224	2517.83
804.407	2473.07
804.591	2453.5
804.775	2491.48
804.958	2457.18
805.142	2611.02
805.326	2453.31
805.509	2527.71
805.693	2545.92
805.876	2495.16
806.06	2529.06
806.243	2561.23
806.427	2586.61
806.61	2589.71
806.794	2511.43
806.977	2556.38
807.16	2544.37
807.344	2529.06
807.527	2510.85
807.71	2521.31
807.894	2490.51
808.077	2535.84
808.26	2470.94
808.444	2477.33
808.627	2508.53
808.81	2446.72
808.993	2420.37
809.177	2420.95
809.36	2427.93
809.543	2402.16
809.726	2345.2
809.909	2350.23
810.092	2349.27
810.276	2369.42
810.459	2316.14
810.642	2312.07
810.825	2305.87
811.008	2326.98
811.191	2213.06
811.374	2220.62
811.557	2220.23
811.74	2286.1
811.923	2200.08
812.106	2169.86
812.289	2159.97
812.472	2140.99
812.654	2159.78
812.837	2121.03
813.02	2064.65
813.203	2060.39
813.386	1924.18
813.569	1895.32
813.751	1889.7
813.934	1936.58
814.117	1910.62
814.3	1896.67
814.482	1788.37
814.665	1770.16
814.848	1691.11
815.03	1666.69
815.213	1674.64
815.396	1647.32
815.578	1639.76
815.761	1604.5
815.943	1657.39
816.126	1542.7
816.309	1576.99
816.491	1498.72
816.674	1458.61
816.856	1500.65
817.039	1508.21
817.221	1556.06
817.403	1513.25
817.586	1513.25
817.768	1523.9
817.951	1461.32
818.133	1435.94
818.315	1513.25
818.498	1524.29
818.68	1547.15
818.862	1530.88
819.045	1550.06
819.227	1538.63
819.409	1504.72
819.591	1568.08
819.774	1531.46
819.956	1513.63
820.138	1592.88
820.32	1580.28
820.502	1668.44
820.684	1743.42
820.866	1708.54
821.048	1764.54
821.231	1757.95
821.413	1752.14
821.595	1744.97
821.777	1764.34
821.959	1753.11
822.141	1815.3
822.323	1655.65
822.505	1574.28
822.686	1555.87
822.868	1496.78
823.05	1399.9
823.232	1335.77
823.414	1291.41
823.596	1364.25
823.778	1358.83
823.96	1377.62
824.141	1355.15
824.323	1428.77
824.505	1485.54
824.687	1560.71
824.868	1567.5
825.05	1653.13
825.232	1714.94
825.413	1752.52
825.595	1726.17
825.777	1653.33
825.958	1695.95
826.14	1683.94
826.321	1691.3
826.503	1706.03
826.685	1735.47
826.866	1742.26
827.048	1758.53
827.229	1653.91
827.411	1620.97
827.592	1569.05
827.773	1582.8
827.955	1531.27
828.136	1568.85
828.318	1501.82
828.499	1564.98
828.68	1473.92
828.862	1588.81
829.043	1550.64
829.224	1548.12
829.406	1454.93
829.587	1503.37
829.768	1486.9
829.949	1531.07
830.131	1522.93
830.312	1575.25
830.493	1523.32
830.674	1553.55
830.855	1515.38
831.036	1525.45
831.218	1563.04
831.399	1576.02
831.58	1549.67
831.761	1542.11
831.942	1529.72
832.123	1567.69
832.304	1491.55
832.485	1519.45
832.666	1524.1
832.847	1547.93
833.028	1527.58
833.209	1492.13
833.389	1533.59
833.57	1474.11
833.751	1504.72
833.932	1556.45
834.113	1516.15
834.294	1502.78
834.475	1568.27
834.655	1557.42
834.836	1610.7
835.017	1579.7
835.198	1528.55
835.378	1564.2
835.559	1621.55
835.74	1539.98
835.92	1556.84
836.101	1540.56
836.281	1607.6
836.462	1600.63
836.643	1587.06
836.823	1611.86
837.004	1624.07
837.184	1630.08
837.365	1615.16
837.545	1671.34
837.726	1578.15
837.906	1686.84
838.087	1623.1
838.267	1601.98
838.448	1573.5
838.628	1606.05
838.808	1601.01
838.989	1638.6
839.169	1588.23
839.349	1593.85
839.53	1657.78
839.71	1620.78
839.89	1600.05
840.07	1663.98
840.251	1607.99
840.431	1662.04
840.611	1639.18
840.791	1550.06
840.971	1609.93
841.151	1590.75
841.332	1563.81
841.512	1660.11
841.692	1546.57
841.872	1641.51
842.052	1592.49
842.232	1651
842.412	1539.01
842.592	1593.07
842.772	1615.74
842.952	1627.56
843.132	1573.7
843.312	1565.75
843.492	1566.91
843.672	1624.07
843.851	1510.15
844.031	1588.81
844.211	1581.06
844.391	1534.56
844.571	1563.62
844.751	1575.05
844.93	1565.75
845.11	1514.02
845.29	1583.19
845.47	1577.76
845.649	1534.95
845.829	1586.29
846.009	1560.71
846.188	1597.91
846.368	1585.51
846.547	1550.25
846.727	1590.75
846.907	1527.39
847.086	1530.68
847.266	1607.8
847.445	1595.2
847.625	1517.12
847.804	1537.08
847.984	1524.29
848.163	1505.5
848.343	1502.78
848.522	1541.92
848.701	1524.68
848.881	1513.05
849.06	1527.58
849.239	1529.91
849.419	1528.36
849.598	1440.01
849.777	1450.08
849.957	1435.75
850.136	1397.19
850.315	1388.47
850.494	1359.41
850.674	1411.14
850.853	1446.99
851.032	1388.28
851.211	1446.6
851.39	1430.71
851.569	1374.14
851.748	1381.3
851.927	1423.35
852.107	1403.2
852.286	1399.9
852.465	1312.33
852.644	1448.73
852.823	1445.24
853.002	1416.76
853.181	1411.92
853.359	1409.98
853.538	1371.81
853.717	1410.56
853.896	1318.34
854.075	1260.79
854.254	1227.66
854.433	1178.06
854.611	1278.42
854.79	1194.73
854.969	1234.44
855.148	1272.81
855.327	1211.39
855.505	1250.33
855.684	1241.03
855.863	1295.09
856.041	1255.18
856.22	1306.71
856.399	1270.87
856.577	1376.65
856.756	1341.2
856.934	1476.63
857.113	1412.5
857.291	1343.91
857.47	1359.41
857.648	1370.45
857.827	1338.68
858.005	1383.24
858.184	1343.14
858.362	1437.69
858.541	1337.52
858.719	1297.41
858.898	1332.87
859.076	1335.58
859.254	1377.62
859.433	1334.61
859.611	1310.59
859.789	1255.18
859.967	1377.43
860.146	1396.8
860.324	1284.04
860.502	1307.68
860.68	1293.54
860.859	1270.29
861.037	1327.06
861.215	1325.31
861.393	1282.49
861.571	1304.97
861.749	1283.27
861.927	1271.26
862.105	1305.36
862.283	1291.02
862.461	1252.08
862.639	1245.88
862.817	1277.07
862.995	1271.84
863.173	1269.9
863.351	1293.34
863.529	1285.59
863.707	1285.01
863.885	1299.16
864.063	1235.99
864.241	1242.19
864.418	1287.72
864.596	1252.66
864.774	1227.86
864.952	1189.3
865.129	1269.13
865.307	1202.67
865.485	1173.41
865.663	1269.32
865.84	1192.01
866.018	1195.11
866.196	1057.55
866.373	1083.71
866.551	1053.87
866.728	1026.94
866.906	1074.6
867.084	1053.29
867.261	1110.64
867.439	1125.95
867.616	1112.19
867.794	1137.38
867.971	1090.1
868.149	1152.3
868.326	1197.24
868.503	1151.71
868.681	1165.28
868.858	1149.39
869.035	1114.32
869.213	1155.2
869.39	1142.41
869.567	1220.49
869.745	1108.51
869.922	1143.96
870.099	1170.9
870.276	1194.92
870.454	1171.28
870.631	1147.06
870.808	1165.08
870.985	1151.13
871.162	1216.43
871.339	1161.21
871.517	1099.4
871.694	1128.08
871.871	1137.57
872.048	1132.15
872.225	1125.56
872.402	1167.99
872.579	1073.25
872.756	1140.67
872.933	1060.07
873.11	1112.96
873.287	1129.24
873.463	1066.08
873.64	1076.73
873.817	1113.35
873.994	1071.12
874.171	1073.83
874.348	1119.36
874.524	1067.05
874.701	1088.55
874.878	1030.43
875.055	1089.72
875.231	1056.39
875.408	1088.36
875.585	1016.48
875.762	1069.18
875.938	1037.98
876.115	1035.66
876.291	1029.85
876.468	1056.78
876.645	971.14
876.821	1014.73
876.998	1058.13
877.174	1050
877.351	1039.15
877.527	1002.72
877.704	1020.35
877.88	1025.39
878.057	1004.66
878.233	1049.22
878.409	979.86
878.586	988.19
878.762	1027.13
878.938	1022.48
879.115	955.25
879.291	991.87
879.467	946.73
879.644	990.52
879.82	1043.99
879.996	984.9
880.172	952.35
880.349	1005.05
880.525	1020.55
880.701	966.1
880.877	961.26
881.053	976.37
881.229	959.13
881.405	1012.99
881.581	926.39
881.757	967.85
881.933	964.94
882.109	969.4
882.285	969.79
882.461	925.22
882.637	969.59
882.813	925.8
882.989	966.1
883.165	1002.14
883.341	929.49
883.517	983.15
883.693	978.31
883.869	985.29
884.044	943.82
884.22	968.24
884.396	969.59
884.572	955.45
884.747	1000.2
884.923	977.34
885.099	969.59
885.275	1017.45
885.45	944.79
885.626	958.16
885.801	929.68
885.977	940.14
886.153	901.01
886.328	951.57
886.504	899.65
886.679	958.94
886.855	922.51
887.03	941.69
887.206	993.42
887.381	987.03
887.557	975.6
887.732	975.4
887.908	965.52
888.083	985.48
888.258	934.91
888.434	949.83
888.609	959.71
888.784	970.75
888.96	935.3
889.135	940.34
889.31	942.08
889.485	936.46
889.661	934.91
889.836	982.77
890.011	958.94
890.186	960.1
890.361	926.39
890.537	967.85
890.712	974.24
890.887	940.34
891.062	986.64
891.237	1003.11
891.412	925.61
891.587	943.44
891.762	969.79
891.937	995.36
892.112	892.67
892.287	922.9
892.462	877.95
892.637	881.44
892.812	853.92
892.987	840.17
893.161	878.92
893.336	867.29
893.511	863.81
893.686	849.86
893.861	852.57
894.035	859.93
894.21	851.99
894.385	830.48
894.56	838.81
894.734	770.81
894.909	748.53
895.084	783.79
895.258	773.52
895.433	794.64
895.608	763.83
895.782	711.52
895.957	746.4
896.131	728.18
896.306	675.1
896.48	665.41
896.655	657.27
896.829	585.78
897.004	597.79
897.178	621.43
897.353	603.02
897.527	667.73
897.701	617.36
897.876	596.05
898.05	659.02
898.224	658.05
898.399	667.93
898.573	596.24
898.747	507.12
898.921	529.79
899.096	468.56
899.27	531.34
899.444	493.55
899.618	549.94
899.792	547.03
899.967	533.27
900.141	604.18
900.315	522.42
900.489	531.34
900.663	559.04
900.837	506.73
901.011	491.23
901.185	567.57
901.359	533.85
901.533	541.22
901.707	552.65
901.881	545.09
902.055	486.39
902.229	520.68
902.403	601.86
902.576	550.9
902.75	563.3
902.924	662.89
903.098	590.04
903.272	632.28
903.446	653.78
903.619	654.37
903.793	700.09
903.967	678.58
904.14	726.83
904.314	699.9
904.488	684.98
904.661	711.71
904.835	667.93
905.009	695.63
905.182	770.03
905.356	714.62
905.529	695.05
905.703	663.86
905.876	678.78
906.05	620.27
906.223	620.65
906.397	580.35
906.57	549.16
906.744	562.14
906.917	537.15
907.09	523.59
907.264	554.78
907.437	517
907.61	475.54
907.784	503.05
907.957	508.47
908.13	458.68
908.304	511.77
908.477	454.22
908.65	474.96
908.823	448.99
908.996	534.63
909.17	462.94
909.343	470.31
909.516	459.26
909.689	481.16
909.862	431.75
910.035	459.84
910.208	447.64
910.381	433.11
910.554	508.47
910.727	500.92
910.9	431.75
911.073	425.94
911.246	509.25
911.419	487.55
911.592	516.42
911.765	479.41
911.938	454.03
912.11	464.88
912.283	487.16
912.456	486
912.629	475.15
912.802	427.68
912.974	394.16
913.147	391.45
913.32	326.16
913.493	379.44
913.665	382.73
913.838	433.88
914.01	423.03
914.183	424.19
914.356	393.19
914.528	452.09
914.701	478.06
914.873	448.41
915.046	399.01
915.218	353.09
915.391	311.05
915.563	348.44
915.736	405.98
915.908	420.51
916.081	408.5
916.253	413.34
916.425	405.98
916.598	424.19
916.77	422.06
916.942	355.41
917.115	336.81
917.287	389.13
917.459	360.26
917.632	327.9
917.804	331.19
917.976	373.24
918.148	378.28
918.32	401.52
918.493	411.21
918.665	456.74
918.837	408.11
919.009	478.06
919.181	469.53
919.353	429.23
919.525	439.69
919.697	389.71
919.869	420.12
920.041	475.54
920.213	533.47
920.385	496.27
920.557	448.99
920.729	461.01
920.901	451.71
921.073	447.64
921.244	408.69
921.416	479.02
921.588	422.26
921.76	453.64
921.932	489.49
922.103	461.78
922.275	441.44
922.447	455.97
922.619	395.71
922.79	426.91
922.962	375.95
923.134	450.54
923.305	373.24
923.477	362.78
923.648	363.36
923.82	378.08
923.991	355.8
924.163	337.78
924.335	359.48
924.506	330.23
924.677	394.55
924.849	357.54
925.02	395.71
925.192	394.74
925.363	371.49
925.535	368.59
925.706	346.89
925.877	408.11
926.049	368.78
926.22	365.29
926.391	374.98
926.562	399.39
926.734	339.72
926.905	409.86
927.076	341.27
927.247	332.55
927.419	305.81
927.59	291.28
927.761	312.4
927.932	291.86
928.103	311.63
928.274	260.86
928.445	243.23
928.616	279.46
928.787	243.43
928.958	302.52
929.129	238
929.3	255.05
929.471	213.4
929.642	172.71
929.813	161.08
929.984	221.15
930.155	154.5
930.326	202.35
930.496	173.68
930.667	120.98
930.838	176.39
931.009	108
931.18	134.35
931.35	119.82
931.521	127.95
931.692	95.02
931.863	71.96
932.033	110.13
932.204	91.72
932.374	103.54
932.545	76.42
932.716	111.29
932.886	139.97
933.057	43.09
933.227	48.52
933.398	121.95
933.568	29.72
933.739	35.34
933.909	29.14
934.08	89.79
934.25	41.35
934.421	21.97
934.591	62.85
934.761	52.97
934.932	-11.35
935.102	29.53
935.272	28.56
935.443	47.16
935.613	46.39
935.783	55.49
935.953	16.55
936.123	163.8
936.294	19.84
936.464	16.16
936.634	22.94
936.804	30.31
936.974	-18.91
937.144	50.65
937.314	38.64
937.484	21.39
937.655	37.09
937.825	84.94
937.995	5.7
938.165	55.69
938.334	9.57
938.504	60.53
938.674	51.62
938.844	50.07
939.014	78.35
939.184	109.74
939.354	138.22
939.524	133.57
939.694	95.4
939.863	76.42
940.033	120.59
940.203	135.32
940.373	88.62
940.542	124.08
940.712	89.4
940.882	118.07
941.051	109.94
941.221	80.29
941.391	114.39
941.56	79.32
941.73	59.56
941.899	172.52
942.069	64.6
942.238	103.35
942.408	73.9
942.577	109.55
942.747	77.58
942.916	39.99
943.086	50.26
943.255	122.72
943.425	79.13
943.594	59.95
943.763	26.24
943.933	44.26
944.102	15
944.271	46.58
944.441	56.85
944.61	43.09
944.779	82.04
944.948	154.11
945.117	25.07
945.287	66.34
945.456	26.24
945.625	31.86
945.794	77.19
945.963	24.49
946.132	80.87
946.301	69.05
946.47	80.87
946.639	27.01
946.808	36.89
946.977	72.74
947.146	77.58
947.315	61.69
947.484	67.12
947.653	51.23
947.822	22.56
947.991	15
948.16	124.27
948.329	101.8
948.498	43.29
948.666	32.63
948.835	90.17
949.004	25.07
949.173	27.21
949.341	70.41
949.51	77.19
949.679	59.17
949.847	79.32
950.016	144.23
950.185	136.29
950.353	50.84
950.522	45.03
950.69	118.65
950.859	47.94
951.028	100.44
951.196	70.8
951.365	42.71
951.533	36.89
951.701	100.64
951.87	76.61
952.038	26.24
952.207	76.8
952.375	93.27
952.543	57.04
952.712	76.8
952.88	39.99
953.048	101.22
953.217	94.05
953.385	66.92
953.553	81.07
953.721	16.36
953.89	53.17
954.058	40.57
954.226	39.99
954.394	63.44
954.562	27.4
954.73	52.78
954.898	36.31
955.067	84.75
955.235	43.48
955.403	107.42
955.571	137.06
955.739	58.4
955.907	46.77
956.075	65.57
956.243	29.72
956.41	69.44
956.578	43.29
956.746	22.17
956.914	60.72
957.082	103.74
957.25	65.95
957.418	62.27
957.585	83.97
957.753	107.61
957.921	41.54
958.089	66.54
958.256	65.18
958.424	98.12
958.592	60.14
958.759	43.09
958.927	68.28
959.095	59.95
959.262	65.95
959.43	88.24
959.597	52.97
959.765	32.82
959.932	39.22
960.1	86.69
960.267	69.64
960.435	92.89
960.602	82.04
960.77	41.93
960.937	47.74
961.104	78.74
961.272	45.03
961.439	54.91
961.606	69.25
961.774	102.77
961.941	62.27
962.108	78.35
962.275	66.15
962.443	101.99
962.61	79.52
962.777	122.34
962.944	97.73
963.111	104.51
963.278	79.52
963.446	109.16
963.613	69.64
963.78	91.92
963.947	84.17
964.114	77.77
964.281	152.37
964.448	99.86
964.615	59.56
964.782	52.59
964.949	129.89
965.116	83.2
965.282	159.15
965.449	86.88
965.616	48.52
965.783	106.06
965.95	77.77
966.117	51.04
966.283	81.45
966.45	76.8
966.617	84.94
966.784	107.61
966.95	107.61
967.117	111.1
967.284	67.89
967.45	62.47
967.617	128.54
967.784	97.73
967.95	156.24
968.117	61.5
968.283	112.84
968.45	177.36
968.616	111.49
968.783	127.95
968.949	107.8
969.116	119.43
969.282	100.25
969.449	114.39
969.615	101.02
969.781	53.36
969.948	78.94
970.114	85.91
970.28	143.65
970.447	101.41
970.613	135.12
970.779	99.86
970.945	132.8
971.112	101.8
971.278	127.57
971.444	105.87
971.61	136.87
971.776	100.83
971.942	108.58
972.108	130.47
972.275	88.82
972.441	114.78
972.607	167.28
972.773	54.91
972.939	130.09
973.105	95.79
973.271	53.36
973.437	86.49
973.602	80.87
973.768	96.95
973.934	109.35
974.1	100.83
974.266	45.42
974.432	114
974.598	69.83
974.763	105.87
974.929	61.11
975.095	144.81
975.261	59.95
975.426	48.91
975.592	121.37
975.758	170
975.923	64.02
976.089	62.08
976.255	99.28
976.42	78.55
976.586	91.34
976.751	113.04
976.917	146.17
977.082	103.74
977.248	53.36
977.413	38.25
977.579	88.04
977.744	103.35
977.91	66.34
978.075	68.28
978.24	106.64
978.406	68.67
978.571	88.24
978.736	50.65
978.902	105.29
979.067	63.44
979.232	35.54
979.397	93.08
979.563	148.49
979.728	36.12
979.893	92.11
980.058	69.25
980.223	107.22
980.388	82.42
980.554	86.69
980.719	69.83
980.884	85.33
981.049	108.77
981.214	72.35
981.379	103.15
981.544	71.57
981.709	72.93
981.874	82.81
982.039	57.43
982.204	118.07
982.368	73.51
982.533	49.49
982.698	124.85
982.863	127.95
983.028	78.16
983.193	84.75
983.357	111.87
983.522	71.96
983.687	78.94
983.852	75.06
984.016	76.03
984.181	93.47
984.346	92.89
984.51	105.29
984.675	101.99
984.839	87.46
985.004	105.87
985.168	126.4
985.333	113.04
985.498	90.17
985.662	94.05
985.827	94.05
985.991	84.94
986.155	74.29
986.32	118.46
986.484	127.37
986.649	93.08
986.813	38.64
986.977	104.12
987.142	116.33
987.306	57.43
987.47	52.39
987.634	82.04
987.799	105.29
987.963	96.18
988.127	111.87
988.291	126.02
988.455	99.28
988.62	109.94
988.784	115.94
988.948	113.62
989.112	46.39
989.276	77.77
989.44	110.52
989.604	72.35
989.768	67.89
989.932	150.43
990.096	48.32
990.26	72.74
990.424	47.36
990.588	92.3
990.752	131.44
990.915	104.9
991.079	64.21
991.243	64.21
991.407	90.17
991.571	59.37
991.734	86.1
991.898	98.7
992.062	147.33
992.226	58.98
992.389	65.18
992.553	35.73
992.717	57.43
992.88	54.14
993.044	86.88
993.207	81.84
993.371	119.62
993.535	106.25
993.698	90.37
993.862	117.3
994.025	97.73
994.189	101.02
994.352	104.9
994.515	109.16
994.679	125.44
994.842	45.61
995.006	132.22
995.169	67.7
995.332	44.45
995.496	119.82
995.659	41.16
995.822	71.38
995.985	68.86
996.149	116.72
996.312	68.67
996.475	145.2
996.638	70.6
996.801	117.88
996.964	133.77
997.128	67.5
997.291	85.72
997.454	89.2
997.617	17.91
997.78	85.52
997.943	76.42
998.106	96.37
998.269	56.27
998.432	58.2
998.595	76.61
998.758	10.54
998.92	35.73
999.083	29.92
999.246	55.69
999.409	26.62
999.572	33.99
999.735	48.52
999.897	72.54
1000.06	38.83
1000.223	57.04
1000.386	102.77
1000.548	98.7
1000.711	94.24
1000.874	56.27
1001.036	45.03
1001.199	84.55
1001.361	40.96
1001.524	64.4
1001.687	92.5
1001.849	45.22
1002.012	85.72
1002.174	75.64
1002.337	80.29
1002.499	49.29
1002.661	118.85
1002.824	31.27
1002.986	36.7
1003.149	58.01
1003.311	37.47
1003.473	109.94
1003.636	27.01
1003.798	52.78
1003.96	79.9
1004.123	65.76
1004.285	55.49
1004.447	38.06
1004.609	50.26
1004.771	98.12
1004.933	-22.59
1005.096	24.11
1005.258	29.34
1005.42	23.72
1005.582	69.44
1005.744	56.07
1005.906	14.61
1006.068	43.48
1006.23	21.97
1006.392	-1.66
1006.554	23.52
1006.716	62.85
1006.878	71.38
1007.04	7.44
1007.202	22.94
1007.363	52.97
1007.525	60.34
1007.687	56.27
1007.849	110.52
1008.011	27.21
1008.172	33.02
1008.334	38.83
1008.496	53.36
1008.658	1.82
1008.819	21.59
1008.981	17.32
1009.143	22.17
1009.304	38.44
1009.466	74.29
1009.627	90.37
1009.789	140.74
1009.95	69.44
1010.112	37.86
1010.273	52.2
1010.435	53.36
1010.596	34.37
1010.758	36.51
1010.919	29.72
1011.081	3.37
1011.242	64.79
1011.403	68.09
1011.565	35.54
1011.726	43.09
1011.887	0.86
1012.049	6.86
1012.21	86.69
1012.371	108.39
1012.532	-16.97
1012.693	34.37
1012.855	28.56
1013.016	42.32
1013.177	56.65
1013.338	57.04
1013.499	108.39
1013.66	52.97
1013.821	53.75
1013.982	47.94
1014.143	48.13
1014.304	26.24
1014.465	39.61
1014.626	69.44
1014.787	45.42
1014.948	108.58
1015.109	-28.59
1015.27	79.13
1015.431	24.3
1015.592	15.58
1015.752	70.8
1015.913	58.01
1016.074	36.31
1016.235	36.89
1016.395	37.28
1016.556	34.57
1016.717	26.62
1016.877	77
1017.038	23.14
1017.199	44.06
1017.359	17.71
1017.52	45.42
1017.681	29.34
1017.841	44.26
1018.002	18.87
1018.162	30.69
1018.323	78.16
1018.483	15.58
1018.644	27.21
1018.804	9.77
1018.964	3.76
1019.125	-10.38
1019.285	32.82
1019.446	-1.08
1019.606	1.82
1019.766	-21.81
1019.926	51.04
1020.087	37.47
1020.247	-19.1
1020.407	51.42
1020.567	53.36
1020.728	11.32
1020.888	-4.57
1021.048	13.45
1021.208	11.71
1021.368	0.27
1021.528	58.4
1021.688	58.79
1021.848	70.41
1022.008	50.65
1022.168	43.87
1022.328	46.77
1022.488	62.66
1022.648	14.03
1022.808	31.27
1022.968	14.61
1023.128	-9.8
1023.288	6.28
1023.448	11.51
1023.608	56.65
1023.767	55.1
1023.927	6.28
1024.087	24.11
1024.247	3.37
1024.406	23.14
1024.566	-13.48
1024.726	-6.89
1024.885	24.3
1025.045	56.65
1025.205	22.75
1025.364	46.58
1025.524	26.04
1025.683	26.62
1025.843	20.62
1026.003	-3.41
1026.162	62.85
1026.321	41.54
1026.481	33.02
1026.64	3.76
1026.8	33.99
1026.959	24.11
1027.119	32.82
1027.278	-10.38
1027.437	3.37
1027.597	33.41
1027.756	24.3
1027.915	42.51
1028.074	13.64
1028.234	-9.8
1028.393	24.49
1028.552	16.36
1028.711	-59.79
1028.87	47.94
1029.03	-2.63
1029.189	7.44
1029.348	-11.93
1029.507	-1.47
1029.666	-9.8
1029.825	-0.69
1029.984	-12.71
1030.143	-3.99
1030.302	-13.29
1030.461	-34.02
1030.62	36.51
1030.779	44.84
1030.938	-14.06
1031.097	-10.19
1031.255	28.56
1031.414	64.79
1031.573	64.79
1031.732	-3.41
1031.891	0.66
1032.049	61.69
1032.208	57.82
1032.367	23.91
1032.525	37.67
1032.684	40.96
1032.843	-0.11
1033.001	-23.17
1033.16	136.29
1033.319	64.02
1033.477	24.11
1033.636	-6.51
1033.794	-28.4
1033.953	41.16
1034.111	40.57
1034.27	-1.86
1034.428	23.52
1034.587	26.24
1034.745	46.19
1034.903	-3.21
1035.062	23.91
1035.22	-31.11
1035.378	35.15
1035.537	-16.19
1035.695	51.62
1035.853	8.99
1036.011	31.47
1036.17	23.14
1036.328	-46.81
1036.486	24.88
1036.644	24.49
1036.802	-33.83
1036.96	3.57
1037.119	26.24
1037.277	-4.38
1037.435	-13.48
1037.593	-21.04
1037.751	0.66
1037.909	42.51
1038.067	42.51
