Data from gum_young_FLMT105791__136__17-41-04-040.txt Node

Date: Mon Mar 20 17:41:04 GMT 2023
User: antho
Spectrometer: FLMT10579
Trigger mode: 0
Integration Time (sec): 1.000000E-1
Scans to average: 10
Electric dark correction enabled: true
Nonlinearity correction enabled: false
Boxcar width: 0
XAxis mode: Wavelengths
Number of Pixels in Spectrum: 3648
>>>>>Begin Spectral Data<<<<<
345.248	-162.8
345.464	-162.8
345.681	-162.8
345.898	-136.64
346.114	-136.83
346.331	-18.45
346.548	19.71
346.764	-16.13
346.981	-18.45
347.197	-10.12
347.414	5.38
347.631	-19.42
347.847	44.32
348.064	7.9
348.28	25.91
348.497	-29.69
348.713	9.06
348.93	3.44
349.146	10.8
349.363	-9.15
349.579	56.53
349.796	-16.9
350.012	-13.42
350.229	23.2
350.445	-7.22
350.661	-7.99
350.878	-0.05
351.094	-1.6
351.311	3.44
351.527	23.2
351.743	-30.85
351.96	43.54
352.176	37.93
352.392	20.1
352.609	22.81
352.825	-8.19
353.041	-2.18
353.257	8.67
353.474	9.83
353.69	28.04
353.906	8.48
354.122	-20.78
354.339	26.49
354.555	-12.45
354.771	-14.58
354.987	58.27
355.203	39.67
355.42	-0.24
355.636	5.96
355.852	-24.85
356.068	3.83
356.284	-19.62
356.5	27.08
356.716	10.8
356.932	0.15
357.148	15.84
357.364	3.44
357.58	48.97
357.796	54.59
358.012	34.44
358.228	-2.37
358.444	-40.15
358.66	53.81
358.876	18.36
359.092	-26.98
359.308	10.61
359.524	21.46
359.74	-14.58
359.956	15.45
360.172	9.45
360.388	42.77
360.604	-3.54
360.819	66.99
361.035	17.58
361.251	17.2
361.467	24.56
361.683	31.92
361.898	17.97
362.114	38.89
362.33	23.78
362.546	27.66
362.762	9.45
362.977	12.74
363.193	-26.4
363.409	29.98
363.624	-33.37
363.84	-6.83
364.056	-21.75
364.271	26.49
364.487	10.61
364.703	15.84
364.918	8.67
365.134	1.31
365.35	7.9
365.565	103.8
365.781	12.16
365.996	17.78
366.212	72.03
366.427	16.03
366.643	6.73
366.858	-1.4
367.074	-42.48
367.289	68.34
367.505	59.43
367.72	-34.92
367.936	1.5
368.151	45.48
368.367	29.21
368.582	29.79
368.798	8.48
369.013	62.34
369.228	-1.4
369.444	24.94
369.659	79.97
369.874	30.76
370.09	57.69
370.305	-36.09
370.52	-10.7
370.736	42.96
370.951	2.86
371.166	44.32
371.381	79.39
371.597	5.76
371.812	-2.57
372.027	7.12
372.242	2.08
372.458	63.89
372.673	-10.51
372.888	27.66
373.103	45.29
373.318	89.27
373.533	47.23
373.749	37.93
373.964	-5.09
374.179	58.08
374.394	-8.19
374.609	75.32
374.824	-3.92
375.039	37.54
375.254	-4.89
375.469	67.18
375.684	17.39
375.899	56.72
376.114	47.81
376.329	36.38
376.544	56.33
376.759	56.14
376.974	17.39
377.189	10.03
377.404	14.68
377.619	51.29
377.834	-28.92
378.049	-24.07
378.264	-19.04
378.478	21.46
378.693	-7.02
378.908	37.73
379.123	9.83
379.338	59.24
379.553	50.91
379.767	44.32
379.982	21.46
380.197	55.75
380.412	6.73
380.626	33.47
380.841	98.57
381.056	55.56
381.271	69.89
381.485	15.06
381.7	-9.54
381.915	35.6
382.129	-1.79
382.344	23.59
382.559	-9.74
382.773	54.78
382.988	-22.14
383.202	32.69
383.417	-9.93
383.632	91.01
383.846	10.22
384.061	27.66
384.275	18.75
384.49	31.14
384.704	50.33
384.919	32.11
385.133	9.06
385.348	38.51
385.562	8.09
385.777	76.48
385.991	33.47
386.206	7.31
386.42	15.65
386.634	69.31
386.849	47.23
387.063	44.9
387.277	-2.57
387.492	-13.42
387.706	-6.44
387.92	3.05
388.135	62.92
388.349	67.57
388.563	57.11
388.778	15.26
388.992	63.89
389.206	72.99
389.42	93.73
389.635	26.69
389.849	52.84
390.063	87.53
390.277	35.79
390.491	86.56
390.706	51.29
390.92	49.74
391.134	48.97
391.348	62.73
391.562	-19.23
391.776	15.84
391.99	16.23
392.205	47.61
392.419	30.18
392.633	35.99
392.847	111.36
393.061	3.25
393.275	80.55
393.489	16.42
393.703	36.76
393.917	81.13
394.131	31.73
394.345	44.32
394.559	66.41
394.773	23.78
394.986	69.31
395.2	28.43
395.414	91.4
395.628	15.26
395.842	48.58
396.056	49.55
396.27	-4.5
396.484	44.13
396.697	42.77
396.911	75.9
397.125	74.93
397.339	66.79
397.553	60.01
397.766	125.11
397.98	76.48
398.194	86.56
398.408	29.4
398.621	76.68
398.835	96.83
399.049	60.4
399.262	92.37
399.476	91.01
399.69	86.75
399.903	124.92
400.117	50.71
400.331	97.99
400.544	67.18
400.758	159.79
400.971	89.66
401.185	103.41
401.398	68.54
401.612	116.2
401.826	115.81
402.039	99.34
402.253	60.98
402.466	101.86
402.68	72.99
402.893	92.56
403.106	79.19
403.32	70.86
403.533	91.79
403.747	51.68
403.96	111.55
404.174	122.59
404.387	29.59
404.6	88.11
404.814	107.48
405.027	76.48
405.24	93.53
405.454	111.16
405.667	123.56
405.88	49.55
406.094	94.11
406.307	148.36
406.52	100.51
406.733	69.7
406.947	66.21
407.16	144.68
407.373	120.27
407.586	67.38
407.799	79
408.012	127.44
408.226	110.19
408.439	132.67
408.652	91.59
408.865	99.93
409.078	130.73
409.291	149.52
409.504	67.18
409.717	120.27
409.93	121.04
410.143	123.17
410.357	47.61
410.57	73.96
410.783	102.44
410.996	117.17
411.209	93.73
411.421	140.81
411.634	122.98
411.847	106.71
412.06	112.71
412.273	110.97
412.486	120.85
412.699	191.76
412.912	107.68
413.125	139.45
413.338	97.21
413.55	154.56
413.763	122.21
413.976	122.79
414.189	90.63
414.402	110.19
414.615	183.62
414.827	87.14
415.04	162.7
415.253	126.27
415.466	186.34
415.678	184.79
415.891	137.32
416.104	142.36
416.316	123.76
416.529	105.35
416.742	157.66
416.954	172.58
417.167	151.46
417.38	109.42
417.592	182.85
417.805	108.64
418.017	91.21
418.23	158.63
418.442	125.11
418.655	125.69
418.868	145.46
419.08	193.12
419.293	184.21
419.505	153.21
419.718	150.69
419.93	181.49
420.142	126.86
420.355	168.32
420.567	171.22
420.78	166.19
420.992	161.92
421.205	187.89
421.417	125.11
421.629	141.58
421.842	122.59
422.054	104.19
422.266	184.79
422.479	186.34
422.691	134.99
422.903	187.5
423.115	111.94
423.328	144.29
423.54	173.36
423.752	168.12
423.964	126.86
424.177	183.43
424.389	146.04
424.601	229.54
424.813	188.86
425.025	193.31
425.238	184.01
425.45	130.54
425.662	127.44
425.874	426.78
426.086	144.29
426.298	187.5
426.51	142.16
426.722	143.52
426.934	138.29
427.146	174.71
427.358	135.96
427.57	191.18
427.782	165.99
427.994	176.07
428.206	152.24
428.418	109.42
428.63	184.98
428.842	215.2
429.054	164.44
429.266	202.03
429.478	125.31
429.69	157.86
429.902	122.4
430.114	198.35
430.325	169.09
430.537	125.5
430.749	136.35
430.961	106.32
431.173	134.41
431.384	157.86
431.596	86.56
431.808	152.43
432.02	187.11
432.231	207.26
432.443	235.16
432.655	189.44
432.867	166.19
433.078	195.06
433.29	257.44
433.502	211.52
433.713	216.37
433.925	217.92
434.136	214.82
434.348	178.39
434.56	130.15
434.771	283.6
434.983	156.69
435.194	173.36
435.406	198.93
435.617	244.65
435.829	237.68
436.04	226.64
436.252	205.52
436.463	262.29
436.675	275.85
436.886	213.46
437.098	254.15
437.309	286.12
437.521	219.08
437.732	244.85
437.943	230.51
438.155	234.19
438.366	145.84
438.578	267.52
438.789	232.84
439	243.49
439.211	221.21
439.423	223.54
439.634	248.92
439.845	232.84
440.057	234.77
440.268	260.93
440.479	242.72
440.69	240.2
440.902	259.38
441.113	263.45
441.324	214.43
441.535	270.42
441.746	302
441.957	254.92
442.168	235.94
442.38	276.82
442.591	308.4
442.802	231.87
443.013	234
443.224	280.89
443.435	261.9
443.646	248.92
443.857	269.26
444.068	254.34
444.279	251.24
444.49	306.65
444.701	292.7
444.912	368.27
445.123	265
445.334	298.52
445.545	291.15
445.756	280.5
445.967	263.45
446.178	264.61
446.388	299.87
446.599	330.1
446.81	288.83
447.021	262.87
447.232	295.42
447.443	333.58
447.653	259.57
447.864	331.84
448.075	268.1
448.286	313.43
448.496	328.35
448.707	323.9
448.918	300.45
449.129	393.65
449.339	300.84
449.55	336.49
449.761	314.98
449.971	328.35
450.182	300.07
450.393	347.34
450.603	302.97
450.814	360.71
451.024	333.78
451.235	357.8
451.446	382.41
451.656	355.28
451.867	329.71
452.077	330.87
452.288	388.22
452.498	386.48
452.709	318.28
452.919	351.99
453.13	310.14
453.34	365.55
453.55	292.51
453.761	353.35
453.971	333.58
454.182	346.18
454.392	341.14
454.602	406.63
454.813	375.24
455.023	394.42
455.233	312.27
455.444	374.66
455.654	317.5
455.864	371.17
456.075	360.52
456.285	339.4
456.495	343.66
456.705	368.27
456.916	416.7
457.126	430.07
457.336	380.08
457.546	320.8
457.756	348.89
457.967	398.49
458.177	363.42
458.387	396.36
458.597	347.15
458.807	370.4
459.017	337.46
459.227	345.21
459.437	370.2
459.647	423.48
459.857	390.16
460.068	351.8
460.278	442.47
460.488	381.83
460.698	456.42
460.908	402.56
461.117	345.79
461.327	384.15
461.537	400.23
461.747	408.95
461.957	376.6
462.167	526.94
462.377	428.52
462.587	393.65
462.797	436.85
463.007	426.2
463.216	417.28
463.426	440.73
463.636	461.65
463.846	380.28
464.056	401.01
464.265	460.49
464.475	374.85
464.685	420
464.895	416.31
465.104	417.67
465.314	449.64
465.524	405.08
465.733	388.8
465.943	495.17
466.153	483.74
466.362	481.03
466.572	445.18
466.782	435.69
466.991	443.25
467.201	489.55
467.41	395.2
467.62	427.16
467.829	446.15
468.039	455.45
468.249	426.97
468.458	434.33
468.668	468.04
468.877	491.1
469.086	492.65
469.296	497.69
469.505	435.3
469.715	521.52
469.924	478.51
470.134	505.05
470.343	510.67
470.552	466.88
470.762	481.8
470.971	449.25
471.18	460.1
471.39	487.61
471.599	451
471.808	494.39
472.018	459.91
472.227	550.97
472.436	570.92
472.645	497.88
472.855	464.17
473.064	543.22
473.273	517.26
473.482	522.68
473.691	548.64
473.901	565.31
474.11	532.56
474.319	593.21
474.528	551.36
474.737	599.6
474.946	572.86
475.155	570.15
475.364	618.97
475.573	560.27
475.783	583.91
475.992	565.11
476.201	587.39
476.41	562.59
476.619	557.56
476.828	551.55
477.037	561.43
477.245	576.74
477.454	582.94
477.663	561.04
477.872	598.82
478.081	669.35
478.29	563.95
478.499	673.61
478.708	643.97
478.917	683.69
479.125	593.4
479.334	660.82
479.543	638.93
479.752	651.33
479.961	636.41
480.169	688.53
480.378	647.07
480.587	760.02
480.796	679.81
481.004	686.79
481.213	700.93
481.422	690.08
481.63	689.89
481.839	700.54
482.048	775.91
482.256	717.79
482.465	721.66
482.674	730.57
482.882	748.98
483.091	781.33
483.299	755.18
483.508	757.31
483.716	722.82
483.925	763.7
484.134	719.92
484.342	720.69
484.551	796.45
484.759	745.68
484.967	794.51
485.176	798.38
485.384	779.59
485.593	806.72
485.801	781.14
486.01	743.55
486.218	737.16
486.426	659.27
486.635	686.59
486.843	711.59
487.051	692.4
487.26	727.86
487.468	742.39
487.676	775.52
487.885	797.42
488.093	779.2
488.301	813.88
488.509	837.13
488.717	842.75
488.926	801.29
489.134	797.8
489.342	831.51
489.55	797.42
489.758	832.48
489.967	819.11
490.175	918.7
490.383	831.9
490.591	941.76
490.799	874.53
491.007	935.36
491.215	877.82
491.423	853.8
491.631	893.13
491.839	881.5
492.047	924.13
492.255	858.64
492.463	818.73
492.671	831.71
492.879	930.52
493.087	869.49
493.295	899.13
493.503	924.13
493.711	938.08
493.919	952.22
494.127	963.07
494.334	982.64
494.542	930.52
494.75	943.69
494.958	952.8
495.166	986.12
495.374	968.49
495.581	990.97
495.789	994.46
495.997	1046.57
496.205	965.39
496.412	1001.62
496.62	977.6
496.828	1027.78
497.035	1001.04
497.243	1031.46
497.451	1020.61
497.658	1063.82
497.866	993.29
498.074	1083.39
498.281	999.11
498.489	1090.55
498.696	1026.42
498.904	1028.56
499.112	1004.14
499.319	1102.57
499.527	1038.24
499.734	1124.07
499.942	1013.44
500.149	1039.6
500.357	1028.75
500.564	1039.21
500.771	1086.29
500.979	1026.04
501.186	1023.13
501.394	1069.24
501.601	1046.96
501.808	1095.2
502.016	1051.61
502.223	1044.44
502.43	1084.55
502.638	1104.5
502.845	1075.05
503.052	1137.05
503.26	1100.63
503.467	1195.57
503.674	1144.42
503.881	1129.89
504.089	1207.19
504.296	1176.77
504.503	1081.25
504.71	1129.5
504.917	1101.02
505.125	1153.14
505.332	1172.51
505.539	1168.44
505.746	1265.51
505.953	1245.94
506.16	1224.24
506.367	1270.35
506.574	1310.85
506.781	1322.86
506.988	1242.26
507.195	1300.77
507.402	1276.16
507.609	1291.86
507.816	1221.92
508.023	1273.45
508.23	1219.2
508.437	1212.81
508.644	1306
508.851	1340.29
509.058	1331.38
509.265	1333.71
509.472	1374.78
509.679	1437.17
509.885	1350.18
510.092	1394.35
510.299	1362.58
510.506	1381.37
510.713	1372.65
510.92	1391.44
511.126	1424.77
511.333	1449.57
511.54	1442.21
511.746	1476.89
511.953	1530.55
512.16	1526.49
512.367	1465.07
512.573	1473.79
512.78	1524.35
512.987	1508.08
513.193	1533.85
513.4	1423.61
513.606	1507.11
513.813	1552.25
514.02	1501.3
514.226	1610.96
514.433	1585.58
514.639	1510.4
514.846	1532.88
515.052	1557.29
515.259	1554.39
515.465	1602.24
515.672	1592.75
515.878	1697.18
516.085	1639.25
516.291	1658.43
516.497	1647
516.704	1619.29
516.91	1560
517.117	1496.07
517.323	1499.17
517.529	1484.25
517.736	1531.14
517.942	1559.81
518.148	1593.33
518.354	1646.8
518.561	1623.55
518.767	1611.73
518.973	1645.06
519.179	1672.38
519.386	1723.91
519.592	1716.36
519.798	1713.45
520.004	1832.61
520.21	1780.1
520.417	1848.69
520.623	1942.46
520.829	1919.6
521.035	1907.2
521.241	1933.55
521.447	1936.46
521.653	2089.32
521.859	1921.73
522.065	2014.15
522.271	2075.76
522.477	2025.39
522.683	2078.47
522.889	2049.8
523.095	2069.95
523.301	2051.35
523.507	2047.86
523.713	2074.79
523.919	2034.3
524.125	2163.53
524.331	2169.34
524.537	2256.33
524.742	2224.56
524.948	2244.51
525.154	2259.82
525.36	2399.9
525.566	2267.38
525.772	2324.34
525.977	2271.44
526.183	2298.37
526.389	2337.32
526.595	2251.68
526.8	2229.79
527.006	2116.45
527.212	2096.49
527.417	2103.08
527.623	2115.48
527.829	2197.24
528.034	2211.58
528.24	2259.04
528.446	2285.2
528.651	2362.12
528.857	2394.86
529.062	2485.53
529.268	2444.27
529.473	2506.46
529.679	2496
529.884	2579.5
530.09	2517.7
530.295	2526.03
530.501	2515.95
530.706	2508.4
530.912	2501.62
531.117	2583.96
531.323	2555.67
531.528	2609.92
531.733	2594.23
531.939	2577.37
532.144	2604.69
532.35	2612.25
532.555	2598.3
532.76	2586.09
532.966	2595.97
533.171	2561.68
533.376	2501.23
533.581	2482.05
533.787	2563.42
533.992	2586.28
534.197	2595.97
534.402	2650.22
534.607	2650.61
534.813	2697.69
535.018	2629.68
535.223	2638.6
535.428	2691.68
535.633	2760.07
535.838	2784.68
536.043	2808.51
536.249	2872.45
536.454	2726.94
536.659	2829.44
536.864	2782.16
537.069	2764.14
537.274	2750.19
537.479	2752.52
537.684	2760.07
537.889	2740.12
538.094	2843.97
538.299	2779.84
538.504	2846.87
538.708	2780.42
538.913	2843.58
539.118	2866.05
539.323	2868.19
539.528	2804.44
539.733	2805.61
539.938	2806.57
540.142	2850.75
540.347	2785.46
540.552	2750.39
540.757	2719.97
540.962	2756.01
541.166	2728.11
541.371	2703.31
541.576	2754.46
541.781	2667.46
541.985	2808.12
542.19	2765.5
542.395	2890.08
542.599	2910.62
542.804	2846.68
543.008	2893.37
543.213	2833.89
543.418	2791.46
543.622	2913.52
543.827	2807.35
544.031	2902.09
544.236	2882.72
544.44	2894.73
544.645	3010.78
544.849	2919.92
545.054	2929.22
545.258	3023.57
545.463	2992.38
545.667	2908.48
545.872	2952.08
546.076	2960.6
546.281	2928.25
546.485	2919.72
546.689	2953.43
546.894	2948.4
547.098	2955.37
547.302	2926.31
547.507	2989.86
547.711	2974.17
547.915	3022.02
548.119	2921.85
548.324	2911.2
548.528	2984.82
548.732	2961.18
548.936	3007.3
549.141	3032.48
549.345	2998.58
549.549	3013.3
549.753	2999.35
549.957	3120.25
550.161	3097.19
550.366	3060.77
550.57	3001.68
550.774	2981.92
550.978	3016.6
551.182	3056.12
551.386	2996.64
551.59	3024.15
551.794	3019.89
551.998	3071.04
552.202	3002.65
552.406	3012.91
552.61	3097.19
552.814	3101.07
553.018	3084.99
553.222	3046.05
553.426	3000.13
553.63	3072.98
553.833	3018.15
554.037	2972.81
554.241	3047.21
554.445	3082.66
554.649	3073.17
554.853	2993.35
555.056	3105.53
555.26	3093.71
555.464	3016.01
555.668	3049.15
555.871	3088.09
556.075	3109.59
556.279	2987.53
556.483	2956.34
556.686	2994.9
556.89	3013.3
557.094	3012.33
557.297	2897.05
557.501	2973.78
557.704	2884.65
557.908	3001.87
558.112	2914.49
558.315	3000.9
558.519	2927.08
558.722	2875.55
558.926	2891.82
559.129	2832.34
559.333	2776.16
559.536	2781.97
559.74	2809.09
559.943	2777.9
560.147	2832.92
560.35	2783.32
560.553	2814.71
560.757	2768.41
560.96	2890.47
561.164	2828.47
561.367	2830.6
561.57	2842.22
561.774	2855.79
561.977	2795.14
562.18	2749.61
562.384	2879.42
562.587	2783.13
562.79	2785.07
562.993	2760.27
563.197	2801.15
563.4	2830.21
563.603	2814.71
563.806	2872.84
564.009	2793.4
564.212	2809.48
564.416	2694.59
564.619	2760.07
564.822	2665.91
565.025	2742.83
565.228	2751.94
565.431	2714.35
565.634	2603.14
565.837	2642.28
566.04	2638.01
566.243	2587.64
566.446	2543.08
566.649	2651.77
566.852	2547.92
567.055	2568.46
567.258	2595.78
567.461	2682.58
567.664	2601.59
567.867	2539.59
568.07	2609.34
568.273	2552.18
568.475	2614.96
568.678	2521.38
568.881	2533.97
569.084	2487.86
569.287	2430.7
569.489	2442.33
569.692	2477.01
569.895	2482.82
570.098	2409.39
570.3	2413.07
570.503	2365.41
570.706	2364.64
570.909	2345.65
571.111	2297.79
571.314	2255.94
571.516	2331.89
571.719	2296.24
571.922	2276.09
572.124	2285.01
572.327	2324.72
572.529	2256.14
572.732	2292.37
572.935	2292.76
573.137	2376.65
573.34	2275.51
573.542	2331.31
573.745	2280.94
573.947	2306.71
574.15	2268.15
574.352	2251.29
574.554	2298.37
574.757	2244.9
574.959	2169.73
575.162	2212.93
575.364	2179.03
575.566	2243.93
575.769	2122.65
575.971	2185.81
576.173	2075.57
576.376	2144.15
576.578	2149.58
576.78	2169.15
576.982	2053.67
577.185	2140.28
577.387	2069.56
577.589	2094.17
577.791	2158.68
577.993	2151.32
578.196	2095.72
578.398	2112.57
578.6	2075.57
578.802	2057.16
579.004	2042.82
579.206	2030.23
579.408	2064.52
579.61	2046.31
579.812	2124
580.014	2028.1
580.216	2032.55
580.418	2081.96
580.62	2045.53
580.822	2033.13
581.024	2094.75
581.226	2116.83
581.428	2041.66
581.63	2153.84
581.832	2045.73
582.034	2140.47
582.236	2066.07
582.438	2124
582.64	2129.81
582.841	2149.19
583.043	2166.82
583.245	2061.42
583.447	2149.96
583.649	2132.14
583.85	2107.34
584.052	2118.58
584.254	2093
584.456	2158.1
584.657	2025
584.859	2125.36
585.061	2066.65
585.262	2064.52
585.464	1973.27
585.666	2089.13
585.867	2001.94
586.069	2073.05
586.27	2036.62
586.472	2022.48
586.674	1993.22
586.875	1998.07
587.077	1998.26
587.278	1987.41
587.48	1969.97
587.681	2092.03
587.883	2027.52
588.084	1915.34
588.285	1962.22
588.487	1918.63
588.688	1922.89
588.89	1836.48
589.091	1781.26
589.292	1811.88
589.494	1762.86
589.695	1733.8
589.896	1627.82
590.098	1633.05
590.299	1706.48
590.5	1709.58
590.702	1729.34
590.903	1778.74
591.104	1825.63
591.305	1812.26
591.507	1848.69
591.708	1804.71
591.909	1802.19
592.11	1868.64
592.311	1840.16
592.512	1798.89
592.714	1767.9
592.915	1786.11
593.116	1817.69
593.317	1774.29
593.518	1836.29
593.719	1810.71
593.92	1839.19
594.121	1884.34
594.322	1789.98
594.523	1824.47
594.724	1735.15
594.925	1769.83
595.126	1782.81
595.327	1805.29
595.528	1797.54
595.729	1800.83
595.929	1778.16
596.13	1792.69
596.331	1784.94
596.532	1801.8
596.733	1871.55
596.934	1863.8
597.135	1829.51
597.335	1838.23
597.536	1782.04
597.737	1797.15
597.938	1757.63
598.138	1845.01
598.339	1792.5
598.54	1829.51
598.74	1791.34
598.941	1788.04
599.142	1838.81
599.342	1840.74
599.543	1759.18
599.744	1817.49
599.944	1801.03
600.145	1807.61
600.345	1788.43
600.546	1838.61
600.746	1845.78
600.947	1870.58
601.147	1783.2
601.348	1811.1
601.548	1784.36
601.749	1797.73
601.949	1758.21
602.15	1769.25
602.35	1752.01
602.551	1790.56
602.751	1729.53
602.951	1774.29
603.152	1737.86
603.352	1787.46
603.552	1780.68
603.753	1824.28
603.953	1799.09
604.153	1828.34
604.354	1825.83
604.554	1776.81
604.754	1799.67
604.954	1736.51
605.155	1826.6
605.355	1806.64
605.555	1828.34
605.755	1832.03
605.955	1808.39
606.155	1804.51
606.356	1759.56
606.556	1804.71
606.756	1739.61
606.956	1737.86
607.156	1821.95
607.356	1757.24
607.556	1805.87
607.756	1761.11
607.956	1816.53
608.156	1756.66
608.356	1719.85
608.556	1758.21
608.756	1709.38
608.956	1714.61
609.156	1747.36
609.356	1722.36
609.556	1672.38
609.755	1729.92
609.955	1665.98
610.155	1685.36
610.355	1691.36
610.555	1641.77
610.755	1685.75
610.954	1620.45
611.154	1651.45
611.354	1672.96
611.554	1653
611.753	1669.67
611.953	1592.55
612.153	1691.95
612.352	1659.78
612.552	1614.06
612.752	1596.82
612.951	1616.58
613.151	1622.2
613.351	1592.94
613.55	1592.36
613.75	1628.59
613.949	1609.02
614.149	1590.81
614.348	1553.42
614.548	1556.9
614.747	1494.13
614.947	1558.84
615.146	1527.65
615.346	1600.5
615.545	1604.37
615.745	1588.49
615.944	1564.85
616.144	1548.19
616.343	1558.84
616.542	1511.57
616.742	1532.49
616.941	1516.22
617.14	1453.44
617.34	1506.92
617.539	1503.24
617.738	1497.42
617.938	1546.05
618.137	1509.24
618.336	1497.62
618.535	1501.3
618.734	1544.31
618.934	1513.12
619.133	1537.53
619.332	1558.26
619.531	1453.06
619.73	1499.94
619.929	1530.55
620.128	1535.01
620.328	1538.11
620.527	1470.69
620.726	1494.52
620.925	1538.69
621.124	1495.29
621.323	1491.61
621.522	1411.79
621.721	1418.76
621.92	1439.11
622.119	1497.62
622.318	1432.32
622.517	1461.58
622.715	1426.71
622.914	1398.03
623.113	1438.72
623.312	1401.33
623.511	1496.07
623.71	1400.55
623.909	1401.71
624.107	1462.94
624.306	1376.72
624.505	1384.47
624.704	1392.61
624.902	1347.27
625.101	1391.44
625.3	1368.58
625.499	1369.36
625.697	1379.43
625.896	1351.14
626.095	1376.33
626.293	1317.05
626.492	1320.15
626.69	1363.35
626.889	1334.68
627.088	1369.94
627.286	1329.06
627.485	1350.56
627.683	1288.76
627.882	1333.51
628.08	1242.26
628.279	1280.43
628.477	1313.95
628.676	1241.87
628.874	1305.03
629.073	1278.68
629.271	1244.78
629.469	1282.75
629.668	1273.45
629.866	1263.38
630.065	1252.14
630.263	1316.85
630.461	1245.55
630.66	1256.79
630.858	1286.24
631.056	1300.38
631.254	1337.58
631.453	1281.78
631.651	1314.33
631.849	1264.15
632.047	1293.02
632.245	1296.12
632.444	1301.16
632.642	1305.03
632.84	1317.82
633.038	1300.58
633.236	1277.52
633.434	1268.41
633.632	1306.2
633.83	1269.77
634.028	1376.72
634.227	1311.04
634.425	1379.24
634.623	1284.69
634.821	1318.4
635.019	1308.71
635.216	1305.61
635.414	1302.32
635.612	1296.9
635.81	1279.07
636.008	1344.36
636.206	1318.6
636.404	1328.86
636.602	1274.23
636.8	1311.23
636.997	1318.4
637.195	1314.91
637.393	1312.4
637.591	1374.98
637.789	1327.9
637.986	1308.13
638.184	1280.43
638.382	1358.12
638.58	1322.47
638.777	1387.57
638.975	1314.72
639.173	1258.34
639.37	1311.43
639.568	1299.41
639.765	1308.52
639.963	1286.05
640.161	1304.65
640.358	1296.12
640.556	1259.11
640.753	1222.5
640.951	1202.15
641.148	1253.3
641.346	1210.68
641.543	1231.99
641.741	1255.24
641.938	1185.88
642.136	1235.67
642.333	1159.92
642.531	1265.7
642.728	1256.79
642.925	1216.1
643.123	1211.65
643.32	1219.98
643.517	1207.38
643.715	1208.55
643.912	1208.93
644.109	1194.98
644.306	1165.53
644.504	1157.4
644.701	1200.99
644.898	1190.72
645.095	1125.43
645.293	1192.66
645.49	1168.05
645.687	1162.05
645.884	1216.1
646.081	1087.07
646.278	1102.95
646.475	1090.36
646.672	1117.68
646.87	1113.03
647.067	1105.47
647.264	1093.65
647.461	1032.62
647.658	1044.44
647.855	1102.37
648.052	1043.67
648.249	957.45
648.446	1030.88
648.642	1039.02
648.839	1011.51
649.036	995.42
649.233	987.09
649.43	1006.27
649.627	971.79
649.824	997.36
650.021	977.21
650.217	987.67
650.414	992.13
650.611	1013.25
650.808	1024.1
651.004	1010.73
651.201	1035.92
651.398	1059.17
651.595	1030.11
651.791	981.48
651.988	1011.7
652.185	990.39
652.381	1034.17
652.578	953.96
652.775	994.65
652.971	1002.98
653.168	979.54
653.364	1032.24
653.561	962.29
653.757	979.54
653.954	997.56
654.15	949.31
654.347	1035.14
654.543	1000.66
654.74	943.89
654.936	958.42
655.133	969.27
655.329	955.71
655.525	971.4
655.722	986.9
655.918	929.74
656.115	946.6
656.311	862.51
656.507	831.9
656.704	810.78
656.9	825.12
657.096	858.83
657.292	824.54
657.489	913.08
657.685	885.96
657.881	849.15
658.077	878.21
658.273	901.65
658.47	961.71
658.666	898.16
658.862	909.21
659.058	884.8
659.254	953.38
659.45	886.35
659.646	934.2
659.842	879.95
660.038	926.84
660.234	880.53
660.43	939.04
660.626	964.62
660.822	943.89
661.018	945.44
661.214	933.04
661.41	884.21
661.606	943.89
661.802	941.76
661.998	910.76
662.194	864.45
662.39	928.19
662.586	920.25
662.781	916.38
662.977	929.55
663.173	916.38
663.369	889.25
663.564	899.33
663.76	927.03
663.956	857.09
664.152	922.19
664.347	852.05
664.543	897.78
664.739	873.36
664.934	842.36
665.13	811.36
665.326	895.45
665.521	874.14
665.717	828.22
665.912	821.63
666.108	803.23
666.304	822.6
666.499	833.65
666.695	792.57
666.89	819.5
667.086	855.73
667.281	846.24
667.477	894.87
667.672	864.65
667.867	823.96
668.063	841.98
668.258	811.95
668.454	811.56
668.649	863.29
668.844	813.88
669.04	854.18
669.235	809.62
669.43	775.13
669.626	774.75
669.821	799.93
670.016	763.32
670.211	809.81
670.407	777.46
670.602	803.62
670.797	775.13
670.992	828.41
671.187	750.72
671.382	847.98
671.578	780.37
671.773	790.05
671.968	756.53
672.163	747.82
672.358	829.58
672.553	746.85
672.748	757.7
672.943	822.02
673.138	785.98
673.333	782.88
673.528	738.52
673.723	779.78
673.918	753.43
674.113	740.65
674.308	840.04
674.503	790.44
674.698	820.47
674.892	759.63
675.087	797.8
675.282	775.33
675.477	772.62
675.672	789.08
675.867	747.62
676.061	762.54
676.256	705.77
676.451	763.51
676.646	776.68
676.84	727.86
677.035	731.15
677.23	705.97
677.424	773.97
677.619	800.71
677.814	790.44
678.008	825.9
678.203	717.01
678.397	740.84
678.592	752.85
678.787	791.22
678.981	770.48
679.176	773.78
679.37	753.82
679.565	731.93
679.759	769.13
679.954	807.88
680.148	793.93
680.342	826.28
680.537	792.57
680.731	753.05
680.926	787.73
681.12	795.28
681.314	774.94
681.509	803.62
681.703	792.18
681.897	768.35
682.092	761.96
682.286	760.41
682.48	794.51
682.674	822.8
682.869	746.65
683.063	784.63
683.257	830.74
683.451	786.37
683.645	787.73
683.839	810.59
684.034	777.07
684.228	828.41
684.422	769.71
684.616	791.99
684.81	834.23
685.004	816.4
685.198	809.81
685.392	833.26
685.586	787.73
685.78	787.92
685.974	825.51
686.168	805.36
686.362	898.94
686.556	774.75
686.75	711.39
686.944	740.65
687.138	727.28
687.331	645.9
687.525	638.15
687.719	572.67
687.913	637.19
688.107	651.14
688.301	639.12
688.494	687.56
688.688	649
688.882	636.6
689.076	634.09
689.269	647.07
689.463	750.33
689.657	694.34
689.85	688.34
690.044	731.93
690.238	730.57
690.431	748.59
690.625	747.82
690.818	802.26
691.012	789.67
691.205	828.41
691.399	816.79
691.593	850.31
691.786	902.43
691.98	910.76
692.173	948.54
692.366	929.16
692.56	964.04
692.753	1007.24
692.947	938.85
693.14	1000.46
693.333	996.78
693.527	1014.61
693.72	1024.1
693.914	979.93
694.107	992.32
694.3	1043.09
694.493	1058.97
694.687	1074.47
694.88	1054.52
695.073	1112.64
695.266	1118.45
695.46	1130.47
695.653	1182.58
695.846	1189.56
696.039	1156.43
696.232	1196.92
696.425	1272.1
696.618	1280.04
696.812	1293.8
697.005	1383.31
697.198	1450.15
697.391	1385.83
697.584	1403.26
697.777	1495.68
697.97	1442.01
698.163	1483.67
698.356	1471.66
698.549	1583.84
698.742	1526.1
698.935	1492
699.127	1563.1
699.32	1510.4
699.513	1527.84
699.706	1540.44
699.899	1590.23
700.092	1576.28
700.285	1589.26
700.477	1541.6
700.67	1628.01
700.863	1648.55
701.056	1743.1
701.248	1734.96
701.441	1752.78
701.634	1687.49
701.826	1797.54
702.019	1712.29
702.212	1771.38
702.404	1701.44
702.597	1780.29
702.79	1791.53
702.982	1844.04
703.175	1860.31
703.367	1881.24
703.56	1927.35
703.752	1996.32
703.945	1973.85
704.137	2001.55
704.33	2022.87
704.522	2036.82
704.715	2051.73
704.907	2103.27
705.1	2129.81
705.292	2135.63
705.484	2107.73
705.677	2172.44
705.869	2181.93
706.061	2259.43
706.254	2255.17
706.446	2208.28
706.638	2254.98
706.831	2309.81
707.023	2294.11
707.215	2370.06
707.407	2419.47
707.599	2363.67
707.792	2438.65
707.984	2427.41
708.176	2491.73
708.368	2406.68
708.56	2481.47
708.752	2518.67
708.944	2483.79
709.136	2555.48
709.329	2560.32
709.521	2668.63
709.713	2630.65
709.905	2654.09
710.097	2699.63
710.289	2642.28
710.481	2661.65
710.672	2690.13
710.864	2706.21
711.056	2779.64
711.248	2746.51
711.44	2784.68
711.632	2792.82
711.824	2825.56
712.016	2847.84
712.207	2829.82
712.399	2849.97
712.591	2914.68
712.783	2920.5
712.975	2918.56
713.166	2888.14
713.358	2942.39
713.55	2982.11
713.741	2942.39
713.933	2994.31
714.125	2959.83
714.316	2947.04
714.508	3017.18
714.7	3019.31
714.891	3018.15
715.083	3044.69
715.274	2957.7
715.466	3037.91
715.657	3047.98
715.849	3008.65
716.04	3004
716.232	2937.35
716.423	2982.11
716.615	2876.9
716.806	2808.9
716.998	2714.93
717.189	2657.58
717.381	2559.74
717.572	2493.48
717.763	2498.71
717.955	2470.03
718.146	2429.35
718.337	2328.41
718.528	2314.65
718.72	2221.26
718.911	2304.38
719.102	2233.47
719.293	2281.33
719.485	2227.46
719.676	2181.74
719.867	2143.96
720.058	2185.81
720.249	2179.61
720.44	2205.18
720.632	2303.22
720.823	2313.87
721.014	2461.7
721.205	2519.44
721.396	2641.31
721.587	2764.92
721.778	2800.37
721.969	2894.73
722.16	2913.52
722.351	2962.73
722.542	3103.01
722.733	3121.03
722.924	2983.85
723.115	3045.85
723.305	3026.67
723.496	3017.95
723.687	2848.81
723.878	2885.62
724.069	2877.49
724.26	2858.5
724.45	2760.85
724.641	2778.48
724.832	2800.57
725.023	2796.5
725.213	2759.49
725.404	2723.84
725.595	2744.38
725.785	2694.2
725.976	2800.57
726.167	2774.99
726.357	2789.91
726.548	2914.49
726.739	2839.9
726.929	2884.85
727.12	2921.27
727.31	2935.22
727.501	2834.09
727.691	2865.28
727.882	2906.55
728.072	2948.98
728.263	2934.45
728.453	3016.01
728.644	3007.1
728.834	3011.56
729.024	2948.01
729.215	2911.78
729.405	2983.85
729.596	3043.91
729.786	3029.77
729.976	3098.36
730.167	3069.88
730.357	3052.44
730.547	3043.91
730.737	3082.28
730.928	3147.18
731.118	3174.5
731.308	3124.71
731.498	3134.59
731.688	3249.67
731.879	3238.63
732.069	3285.71
732.259	3372.32
732.449	3383.94
732.639	3475.78
732.829	3496.12
733.019	3509.3
733.209	3644.34
733.399	3632.13
733.589	3739.27
733.779	3802.43
733.969	3778.02
734.159	3846.61
734.349	3893.3
734.539	3915.2
734.729	3917.13
734.919	3953.36
735.109	4047.72
735.299	3941.74
735.488	3960.53
735.678	3983.78
735.868	3962.66
736.058	3940.96
736.248	3925.08
736.437	3887.68
736.627	3911.9
736.817	4068.26
737.007	3996.18
737.196	4023.69
737.386	4006.45
737.576	4016.91
737.765	4111.27
737.955	4086.27
738.144	4146.53
738.334	4119.99
738.524	4070.58
738.713	4131.22
738.903	4107.59
739.092	4152.92
739.282	4114.56
739.471	4108.17
739.661	4158.15
739.85	4221.9
740.04	4153.7
740.229	4246.12
740.419	4248.83
740.608	4268.2
740.797	4190.9
740.987	4304.24
741.176	4319.16
741.365	4282.54
741.555	4215.12
741.744	4300.37
741.933	4284.28
742.123	4287
742.312	4336.4
742.501	4357.33
742.69	4394.91
742.88	4285.25
743.069	4391.23
743.258	4357.33
743.447	4416.03
743.636	4407.7
743.825	4380.58
744.014	4398.98
744.204	4446.45
744.393	4346.67
744.582	4472.8
744.771	4473.19
744.96	4413.9
745.149	4497.02
745.338	4401.5
745.527	4459.63
745.716	4452.07
745.905	4391.43
746.094	4557.27
746.283	4484.42
746.471	4466.41
746.66	4483.26
746.849	4496.05
747.038	4547.78
747.227	4433.66
747.416	4498.18
747.604	4446.84
747.793	4467.38
747.982	4455.56
748.171	4522.59
748.359	4472.22
748.548	4510
748.737	4480.55
748.926	4471.06
749.114	4355
749.303	4455.75
749.491	4436.57
749.68	4362.56
749.869	4497.02
750.057	4414.48
750.246	4392.78
750.434	4360.81
750.623	4389.49
750.811	4393.17
751	4440.44
751.188	4383.1
751.377	4398.21
751.565	4376.7
751.754	4322.06
751.942	4350.55
752.131	4356.75
752.319	4305.4
752.507	4279.44
752.696	4367.79
752.884	4348.03
753.072	4293.97
753.261	4319.16
753.449	4324.2
753.637	4279.63
753.825	4374.38
754.014	4324.39
754.202	4340.86
754.39	4322.26
754.578	4371.66
754.766	4268.98
754.955	4264.52
755.143	4376.7
755.331	4252.7
755.519	4335.43
755.707	4289.52
755.895	4267.04
756.083	4271.88
756.271	4228.29
756.459	4218.8
756.647	4210.85
756.835	4209.3
757.023	4225.38
757.211	4179.85
757.399	4168.23
757.587	4187.99
757.775	4138.2
757.963	4175.59
758.151	4156.6
758.339	4102.55
758.526	4125.61
758.714	4166.87
758.902	4006.64
759.09	3886.71
759.278	3621.67
759.465	3386.85
759.653	2923.02
759.841	2614.18
760.028	2261.18
760.216	1976.75
760.404	1820.98
760.591	1548.77
760.779	1270.16
760.967	1098.69
761.154	923.16
761.342	944.86
761.529	861.93
761.717	946.6
761.905	940.4
762.092	990.97
762.28	937.11
762.467	918.89
762.655	872.4
762.842	888.09
763.029	895.84
763.217	866.39
763.404	916.18
763.592	909.79
763.779	870.46
763.966	921.61
764.154	934.78
764.341	1008.02
764.528	1052.19
764.716	1112.06
764.903	1170.96
765.09	1232.38
765.277	1282.95
765.465	1464.68
765.652	1540.44
765.839	1691.75
766.026	1822.34
766.213	1875.23
766.4	2023.84
766.588	2233.08
766.775	2231.73
766.962	2428.77
767.149	2515.95
767.336	2645.76
767.523	2665.14
767.71	2855.2
767.897	2959.63
768.084	3062.13
768.271	3120.83
768.458	3210.15
768.645	3263.62
768.832	3266.14
769.019	3333.57
769.206	3372.9
769.392	3464.73
769.579	3526.34
769.766	3506.58
769.953	3535.64
770.14	3582.92
770.327	3601.52
770.513	3653.83
770.7	3703.43
770.887	3652.28
771.073	3651.51
771.26	3693.74
771.447	3667.97
771.634	3639.49
771.82	3781.9
772.007	3638.72
772.193	3672.62
772.38	3713.31
772.567	3645.5
772.753	3618.96
772.94	3722.8
773.126	3724.55
773.313	3718.15
773.499	3701.69
773.686	3753.61
773.872	3623.99
774.059	3728.23
774.245	3609.27
774.432	3634.46
774.618	3592.61
774.804	3660.03
774.991	3639.11
775.177	3654.22
775.363	3609.66
775.55	3685.41
775.736	3544.56
775.922	3612.17
776.109	3626.9
776.295	3617.99
776.481	3625.16
776.667	3612.17
776.853	3602.49
777.04	3548.24
777.226	3588.73
777.412	3685.99
777.598	3554.83
777.784	3574.39
777.97	3524.79
778.156	3564.9
778.342	3554.83
778.528	3537.97
778.715	3478.3
778.901	3547.66
779.087	3532.93
779.272	3508.13
779.458	3485.27
779.644	3520.34
779.83	3447.68
780.016	3523.05
780.202	3447.3
780.388	3444
780.574	3415.72
780.76	3437.61
780.946	3455.82
781.131	3431.21
781.317	3438.19
781.503	3370.38
781.689	3378.71
781.874	3518.59
782.06	3411.65
782.246	3421.33
782.432	3386.65
782.617	3371.35
782.803	3386.27
782.989	3325.04
783.174	3369.41
783.36	3283
783.545	3357.01
783.731	3348.68
783.916	3232.62
784.102	3322.72
784.288	3282.03
784.473	3295.2
784.659	3255.49
784.844	3272.54
785.029	3254.13
785.215	3238.05
785.4	3201.04
785.586	3341.7
785.771	3203.76
785.956	3267.69
786.142	3191.36
786.327	3193.1
786.512	3202.21
786.698	3165.2
786.883	3097.97
787.068	3176.44
787.254	3161.33
787.439	3129.74
787.624	3098.36
787.809	3100.29
787.994	3089.64
788.18	3187.48
788.365	3058.25
788.55	3066.97
788.735	3047.6
788.92	3042.56
789.105	3036.16
789.29	3028.03
789.475	2976.3
789.66	2969.52
789.845	2981.33
790.03	2942.39
790.215	2998.19
790.4	2980.95
790.585	2981.53
790.77	2957.7
790.955	2880.97
791.14	2927.86
791.325	3029.58
791.51	2874.19
791.695	2918.95
791.879	2903.84
792.064	2921.66
792.249	3045.85
792.434	2903.06
792.618	2951.11
792.803	2957.12
792.988	2933.28
793.173	2931.73
793.357	2950.33
793.542	2938.13
793.727	2967.58
793.911	2983.66
794.096	2956.53
794.281	2961.38
794.465	3043.91
794.65	2945.49
794.834	3005.75
795.019	3053.99
795.203	3042.95
795.388	3010.4
795.572	3044.11
795.757	3034.61
795.941	3008.85
796.126	2990.25
796.31	2902.29
796.494	2935.42
796.679	2938.9
796.863	2900.15
797.048	3028.03
797.232	2954.4
797.416	2963.51
797.601	2938.71
797.785	3042.95
797.969	3016.79
798.153	2967
798.338	3010.2
798.522	3018.92
798.706	3027.83
798.89	3046.82
799.074	3128
799.258	3070.85
799.443	3042.75
799.627	3059.22
799.811	3045.66
799.995	2999.35
800.179	2964.09
800.363	2979.4
800.547	3046.05
800.731	3027.83
800.915	2968.55
801.099	2966.8
801.283	3007.1
801.467	2980.95
801.651	2960.02
801.835	3003.03
802.019	2997.22
802.202	2995.48
802.386	2918.56
802.57	2910.03
802.754	2939.29
802.938	2910.03
803.121	2919.33
803.305	3006.33
803.489	2981.72
803.673	2985.21
803.856	2940.45
804.04	2918.37
804.224	2953.43
804.407	2948.2
804.591	2917.4
804.775	2953.43
804.958	2972.23
805.142	3025.51
805.326	2962.73
805.509	2986.57
805.693	2985.6
805.876	2985.21
806.06	3011.75
806.243	3030.55
806.427	3007.88
806.61	3050.89
806.794	3005.55
806.977	3023.38
807.16	3028.41
807.344	3018.73
807.527	3036.55
807.71	2955.57
807.894	2974.17
808.077	3025.12
808.26	2981.92
808.444	2924.95
808.627	3004.2
808.81	2914.49
808.993	2890.47
809.177	2866.05
809.36	2876.9
809.543	2900.15
809.726	2826.92
809.909	2819.55
810.092	2812.97
810.276	2819.55
810.459	2763.95
810.642	2787.78
810.825	2719.78
811.008	2744.77
811.191	2659.91
811.374	2653.71
811.557	2670.76
811.74	2702.92
811.923	2604.5
812.106	2570.2
812.289	2564.58
812.472	2558.38
812.654	2585.9
812.837	2531.65
813.02	2456.86
813.203	2436.13
813.386	2296.44
813.569	2303.02
813.751	2215.84
813.934	2281.33
814.117	2210.03
814.3	2148.03
814.482	2136.98
814.665	2093
814.848	2045.92
815.03	2000.59
815.213	1986.05
815.396	1949.82
815.578	1944.98
815.761	1874.07
815.943	1947.3
816.126	1849.85
816.309	1789.21
816.491	1772.54
816.674	1705.7
816.856	1738.06
817.039	1757.82
817.221	1836.68
817.403	1758.98
817.586	1796.57
817.768	1783.2
817.951	1705.12
818.133	1686.13
818.315	1724.11
818.498	1803.35
818.68	1837.26
818.862	1803.74
819.045	1826.41
819.227	1810.52
819.409	1800.83
819.591	1824.28
819.774	1791.53
819.956	1772.74
820.138	1885.89
820.32	1832.22
820.502	1957.77
820.684	1993.42
820.866	2011.63
821.048	2080.99
821.231	2057.74
821.413	2051.93
821.595	2051.15
821.777	2060.84
821.959	2058.9
822.141	2122.45
822.323	1973.07
822.505	1949.82
822.686	1812.46
822.868	1764.99
823.05	1630.14
823.232	1613.28
823.414	1523.97
823.596	1574.34
823.778	1563.3
823.96	1620.45
824.141	1613.67
824.323	1669.08
824.505	1758.4
824.687	1814.59
824.868	1843.84
825.05	1984.89
825.232	2005.43
825.413	2074.79
825.595	1999.23
825.777	1960.48
825.958	1987.6
826.14	2035.27
826.321	2032.75
826.503	2010.66
826.685	2055.03
826.866	2088.74
827.048	2054.25
827.229	1991.48
827.411	1925.99
827.592	1881.82
827.773	1874.46
827.955	1819.82
828.136	1846.75
828.318	1786.11
828.499	1813.62
828.68	1789.4
828.862	1800.44
829.043	1791.34
829.224	1777
829.406	1755.11
829.587	1776.42
829.768	1788.82
829.949	1809.36
830.131	1799.67
830.312	1883.95
830.493	1820.4
830.674	1862.44
830.855	1778.55
831.036	1805.68
831.218	1855.86
831.399	1917.47
831.58	1818.66
831.761	1831.44
831.942	1818.66
832.123	1833.96
832.304	1743.48
832.485	1784.56
832.666	1811.29
832.847	1848.49
833.028	1816.14
833.209	1843.07
833.389	1797.73
833.57	1740.58
833.751	1749.88
833.932	1825.63
834.113	1815.94
834.294	1838.61
834.475	1798.31
834.655	1858.96
834.836	1875.62
835.017	1852.76
835.198	1807.81
835.378	1854.11
835.559	1881.24
835.74	1866.32
835.92	1824.86
836.101	1822.34
836.281	1885.31
836.462	1866.71
836.643	1921.54
836.823	1908.56
837.004	1916.5
837.184	1925.22
837.365	1935.29
837.545	1919.02
837.726	1915.72
837.906	1944.21
838.087	1913.01
838.267	1907.01
838.448	1878.14
838.628	1914.76
838.808	1904.87
838.989	1939.36
839.169	1893.06
839.349	1939.36
839.53	1921.54
839.71	1975.2
839.89	1918.82
840.07	1996.9
840.251	1916.31
840.431	1948.85
840.611	1931.03
840.791	1866.71
840.971	1940.14
841.151	1876.59
841.332	1861.28
841.512	1975.01
841.692	1860.31
841.872	1869.03
842.052	1920.76
842.232	1890.15
842.412	1850.63
842.592	1884.34
842.772	1881.62
842.952	1918.63
843.132	1879.11
843.312	1868.26
843.492	1867.87
843.672	1903.13
843.851	1814.39
844.031	1858.37
844.211	1863.22
844.391	1835.9
844.571	1854.69
844.751	1858.96
844.93	1835.9
845.11	1857.6
845.29	1860.12
845.47	1877.17
845.649	1873.68
845.829	1902.36
846.009	1881.43
846.188	1897.32
846.368	1857.99
846.547	1863.99
846.727	1886.86
846.907	1814.59
847.086	1852.18
847.266	1882.01
847.445	1835.71
847.625	1824.86
847.804	1803.93
847.984	1866.12
848.163	1795.02
848.343	1835.51
848.522	1827.38
848.701	1825.24
848.881	1759.76
849.06	1799.48
849.239	1816.72
849.419	1794.44
849.598	1728.95
849.777	1717.52
849.957	1667.53
850.136	1643.9
850.315	1669.67
850.494	1656.68
850.674	1644.67
850.853	1705.51
851.032	1673.93
851.211	1725.85
851.39	1682.84
851.569	1604.95
851.748	1647.19
851.927	1706.48
852.107	1691.17
852.286	1647.97
852.465	1600.5
852.644	1686.91
852.823	1680.13
853.002	1669.47
853.181	1690.01
853.359	1692.53
853.538	1569.11
853.717	1653.58
853.896	1578.99
854.075	1497.23
854.254	1491.42
854.433	1405.2
854.611	1426.51
854.79	1407.33
854.969	1472.04
855.148	1460.42
855.327	1405.78
855.505	1478.82
855.684	1469.52
855.863	1504.79
856.041	1506.14
856.22	1508.66
856.399	1513.12
856.577	1597.4
856.756	1586.16
856.934	1682.26
857.113	1690.4
857.291	1629.17
857.47	1592.36
857.648	1566.4
857.827	1616.38
858.005	1650.68
858.184	1555.35
858.362	1649.52
858.541	1587.9
858.719	1598.17
858.898	1589.45
859.076	1592.94
859.254	1643.9
859.433	1606.89
859.611	1573.95
859.789	1549.54
859.967	1611.15
860.146	1642.73
860.324	1529.78
860.502	1567.75
860.68	1470.3
860.859	1507.69
861.037	1560.2
861.215	1549.35
861.393	1542.37
861.571	1513.31
861.749	1506.34
861.927	1546.44
862.105	1520.09
862.283	1517.77
862.461	1487.35
862.639	1494.52
862.817	1504.79
862.995	1508.66
863.173	1491.22
863.351	1482.7
863.529	1559.04
863.707	1536.37
863.885	1516.8
864.063	1441.43
864.241	1478.82
864.418	1538.11
864.596	1460.61
864.774	1434.26
864.952	1486.38
865.129	1498.97
865.307	1448.79
865.485	1398.61
865.663	1467.2
865.84	1359.67
866.018	1406.94
866.196	1287.98
866.373	1297.67
866.551	1258.73
866.728	1196.92
866.906	1245.55
867.084	1287.21
867.261	1287.79
867.439	1324.99
867.616	1351.92
867.794	1346.69
867.971	1360.44
868.149	1358.51
868.326	1390.48
868.503	1377.88
868.681	1377.3
868.858	1354.24
869.035	1347.85
869.213	1360.06
869.39	1392.22
869.567	1413.73
869.745	1354.44
869.922	1367.03
870.099	1360.44
870.276	1399.39
870.454	1381.76
870.631	1332.74
870.808	1334.09
870.985	1376.33
871.162	1406.17
871.339	1383.5
871.517	1299.03
871.694	1346.69
871.871	1346.11
872.048	1309.1
872.225	1326.54
872.402	1347.08
872.579	1287.98
872.756	1338.36
872.933	1256.98
873.11	1298.06
873.287	1321.89
873.463	1273.06
873.64	1267.45
873.817	1313.36
873.994	1287.98
874.171	1284.69
874.348	1302.13
874.524	1236.45
874.701	1261.25
874.878	1217.27
875.055	1281.01
875.231	1258.15
875.408	1263.57
875.585	1176
875.762	1267.83
875.938	1261.05
876.115	1231.6
876.291	1225.98
876.468	1249.23
876.645	1187.62
876.821	1191.11
876.998	1230.83
877.174	1229.47
877.351	1218.23
877.527	1184.72
877.704	1243.62
877.88	1202.73
878.057	1171.73
878.233	1244.39
878.409	1192.85
878.586	1243.81
878.762	1189.75
878.938	1198.67
879.115	1144.42
879.291	1184.91
879.467	1123.1
879.644	1194.79
879.82	1224.43
879.996	1152.75
880.172	1096.37
880.349	1148.87
880.525	1176.77
880.701	1112.25
880.877	1102.76
881.053	1160.3
881.229	1121.94
881.405	1189.37
881.581	1091.52
881.757	1147.52
881.933	1186.07
882.109	1156.43
882.285	1158.56
882.461	1097.14
882.637	1154.1
882.813	1086.29
882.989	1151.59
883.165	1186.07
883.341	1100.24
883.517	1146.35
883.693	1137.44
883.869	1139.57
884.044	1097.92
884.22	1155.27
884.396	1141.32
884.572	1144.42
884.747	1163.4
884.923	1168.63
885.099	1168.05
885.275	1206.22
885.45	1140.74
885.626	1123.88
885.801	1108.19
885.977	1083.77
886.153	1057.04
886.328	1114.77
886.504	1083.19
886.679	1108.19
886.855	1081.84
887.03	1131.82
887.206	1133.95
887.381	1120.2
887.557	1145.39
887.732	1136.86
887.908	1154.49
888.083	1138.99
888.258	1108.57
888.434	1091.72
888.609	1095.98
888.784	1157.4
888.96	1073.12
889.135	1129.5
889.31	1104.89
889.485	1126.98
889.661	1110.32
889.836	1111.48
890.011	1140.35
890.186	1120
890.361	1074.86
890.537	1104.5
890.712	1142.87
890.887	1127.95
891.062	1125.24
891.237	1174.64
891.412	1089
891.587	1148.49
891.762	1138.41
891.937	1109.35
892.112	1087.07
892.287	1087.84
892.462	1064.59
892.637	1031.27
892.812	1046.38
892.987	1039.99
893.161	1035.72
893.336	1002.21
893.511	995.81
893.686	1040.96
893.861	998.91
894.035	1018.09
894.21	1014.8
894.385	963.26
894.56	986.32
894.734	931.29
894.909	927.23
895.084	927.42
895.258	906.3
895.433	892.55
895.608	870.26
895.782	864.06
895.957	850.5
896.131	825.7
896.306	782.69
896.48	779.78
896.655	794.51
896.829	695.5
897.004	702.87
897.178	705.77
897.353	713.52
897.527	732.7
897.701	733.48
897.876	698.6
898.05	774.17
898.224	772.42
898.399	778.62
898.573	721.85
898.747	604.25
898.921	621.69
899.096	546.32
899.27	579.26
899.444	592.43
899.618	629.44
899.792	632.34
899.967	648.04
900.141	675.94
900.315	599.41
900.489	614.91
900.663	599.99
900.837	607.16
901.011	566.66
901.185	682.33
901.359	610.45
901.533	673.8
901.707	652.1
901.881	630.99
902.055	538.96
902.229	611.03
902.403	671.29
902.576	637.19
902.75	628.27
902.924	707.71
903.098	667.6
903.272	724.95
903.446	786.95
903.619	755.37
903.793	800.52
903.967	758.08
904.14	840.62
904.314	813.69
904.488	768.16
904.661	804.97
904.835	795.87
905.009	827.64
905.182	858.25
905.356	833.06
905.529	784.82
905.703	765.06
905.876	769.32
906.05	732.9
906.223	766.61
906.397	659.08
906.57	679.23
906.744	649.59
906.917	639.7
907.09	648.23
907.264	623.04
907.437	579.26
907.61	550.39
907.784	591.27
907.957	593.01
908.13	557.75
908.304	617.81
908.477	538.38
908.65	580.22
908.823	537.02
908.996	589.33
909.17	555.81
909.343	552.91
909.516	563.37
909.689	535.47
909.862	517.45
910.035	524.04
910.208	517.64
910.381	517.26
910.554	607.74
910.727	563.17
910.9	537.6
911.073	549.03
911.246	623.24
911.419	589.72
911.592	585.26
911.765	529.27
911.938	525.2
912.11	516.48
912.283	538.76
912.456	594.95
912.629	564.14
912.802	516.48
912.974	499.63
913.147	447.31
913.32	408.18
913.493	421.16
913.665	456.81
913.838	447.12
914.01	451.58
914.183	473.08
914.356	467.08
914.528	519.58
914.701	551.74
914.873	519.19
915.046	446.54
915.218	434.33
915.391	360.71
915.563	403.72
915.736	429.3
915.908	468.82
916.081	478.89
916.253	437.63
916.425	454.68
916.598	502.92
916.77	469.4
916.942	421.16
917.115	387.06
917.287	471.14
917.459	410.7
917.632	379.7
917.804	357.61
917.976	439.56
918.148	441.31
918.32	448.28
918.493	485.68
918.665	495.56
918.837	488.19
919.009	529.08
919.181	524.81
919.353	506.02
919.525	488.78
919.697	519.39
919.869	497.69
920.041	525.39
920.213	616.07
920.385	564.72
920.557	498.85
920.729	531.98
920.901	519
921.073	497.88
921.244	494.98
921.416	531.79
921.588	490.33
921.76	483.54
921.932	548.84
922.103	519
922.275	523.26
922.447	536.83
922.619	462.81
922.79	496.53
922.962	498.27
923.134	520.16
923.305	465.14
923.477	415.54
923.648	405.27
923.82	445.18
923.991	393.26
924.163	415.93
924.335	423.48
924.506	406.24
924.677	474.83
924.849	407.21
925.02	421.55
925.192	458.55
925.363	428.52
925.535	448.67
925.706	409.73
925.877	454.29
926.049	409.15
926.22	395.39
926.391	409.73
926.562	445.76
926.734	396.36
926.905	449.64
927.076	374.85
927.247	394.42
927.419	369.62
927.59	361.48
927.761	349.47
927.932	341.72
928.103	331.45
928.274	307.23
928.445	295.8
928.616	274.1
928.787	300.26
928.958	324.87
929.129	281.08
929.3	275.27
929.471	235.35
929.642	205.71
929.813	159.41
929.984	234.58
930.155	153.98
930.326	213.07
930.496	183.62
930.667	127.24
930.838	162.89
931.009	156.31
931.18	141.77
931.35	147.2
931.521	140.42
931.692	103.61
931.863	62.34
932.033	132.67
932.204	122.01
932.374	116.01
932.545	82.29
932.716	119.49
932.886	114.07
933.057	18.16
933.227	33.08
933.398	127.05
933.568	55.94
933.739	22.23
933.909	20.49
934.08	71.25
934.25	13.9
934.421	20.3
934.591	35.99
934.761	11.96
934.932	0.34
935.102	60.4
935.272	52.84
935.443	46.06
935.613	43.93
935.783	47.03
935.953	19.33
936.123	153.01
936.294	16.42
936.464	46.06
936.634	26.11
936.804	13.9
936.974	-6.44
937.144	37.54
937.314	16.23
937.484	24.17
937.655	7.12
937.825	61.95
937.995	16.23
938.165	68.93
938.334	41.99
938.504	57.11
938.674	37.93
938.844	30.37
939.014	99.93
939.184	97.41
939.354	142.94
939.524	137.32
939.694	93.53
939.863	68.54
940.033	152.82
940.203	124.92
940.373	100.31
940.542	100.31
940.712	61.95
940.882	93.73
941.051	114.84
941.221	107.87
941.391	134.8
941.56	72.99
941.73	51.49
941.899	175.87
942.069	96.44
942.238	88.3
942.408	76.09
942.577	107.09
942.747	53.43
942.916	57.69
943.086	54.59
943.255	117.75
943.425	85.78
943.594	42.77
943.763	4.02
943.933	19.52
944.102	-4.89
944.271	59.63
944.441	95.66
944.61	53.23
944.779	69.31
944.948	117.36
945.117	34.63
945.287	59.04
945.456	-3.54
945.625	8.67
945.794	73.19
945.963	61.76
946.132	65.83
946.301	49.55
946.47	88.49
946.639	17
946.808	53.81
946.977	72.22
947.146	99.54
947.315	30.18
947.484	68.93
947.653	49.36
947.822	36.18
947.991	25.53
948.16	111.55
948.329	76.48
948.498	75.71
948.666	48.58
948.835	93.92
949.004	32.11
949.173	39.67
949.341	40.83
949.51	56.53
949.679	61.56
949.847	89.85
950.016	138.09
950.185	119.11
950.353	48.58
950.522	61.37
950.69	97.41
950.859	59.43
951.028	110.19
951.196	78.61
951.365	27.46
951.533	57.3
951.701	90.82
951.87	67.76
952.038	15.65
952.207	46.06
952.375	113.49
952.543	37.73
952.712	65.05
952.88	37.73
953.048	108.64
953.217	49.36
953.385	73.19
953.553	124.72
953.721	53.04
953.89	79.78
954.058	14.68
954.226	29.98
954.394	52.84
954.562	19.52
954.73	89.66
954.898	38.31
955.067	125.89
955.235	51.49
955.403	84.04
955.571	119.49
955.739	74.74
955.907	41.8
956.075	66.79
956.243	55.17
956.41	60.98
956.578	35.6
956.746	19.52
956.914	41.8
957.082	115.04
957.25	84.43
957.418	56.14
957.585	64.86
957.753	94.31
957.921	57.3
958.089	48
958.256	58.46
958.424	86.17
958.592	41.8
958.759	27.46
958.927	65.44
959.095	50.91
959.262	71.64
959.43	59.43
959.597	68.34
959.765	60.59
959.932	37.54
960.1	112.71
960.267	57.3
960.435	74.93
960.602	97.6
960.77	66.02
960.937	37.93
961.104	76.87
961.272	19.33
961.439	51.49
961.606	66.02
961.774	93.34
961.941	49.55
962.108	73.19
962.275	90.82
962.443	89.66
962.61	75.51
962.777	124.72
962.944	98.96
963.111	68.93
963.278	92.76
963.446	101.48
963.613	89.46
963.78	83.65
963.947	92.56
964.114	96.83
964.281	143.91
964.448	86.36
964.615	56.53
964.782	73.96
964.949	121.62
965.116	128.02
965.282	105.16
965.449	60.98
965.616	38.12
965.783	99.54
965.95	84.04
966.117	48
966.283	57.11
966.45	105.74
966.617	95.47
966.784	127.63
966.95	109.23
967.117	99.15
967.284	58.27
967.45	86.36
967.617	162.51
967.784	142.36
967.95	146.04
968.117	105.93
968.283	146.62
968.45	184.01
968.616	122.21
968.783	148.75
968.949	124.72
969.116	152.24
969.282	133.44
969.449	123.17
969.615	118.91
969.781	87.91
969.948	93.73
970.114	90.82
970.28	151.46
970.447	135.77
970.613	129.18
970.779	122.4
970.945	147.39
971.112	142.36
971.278	114.26
971.444	110.58
971.61	132.67
971.776	100.51
971.942	124.14
972.108	152.43
972.275	87.72
972.441	125.5
972.607	172.58
972.773	89.08
972.939	125.5
973.105	101.28
973.271	49.74
973.437	95.66
973.602	63.31
973.768	147.59
973.934	101.67
974.1	110.39
974.266	36.96
974.432	105.93
974.598	93.92
974.763	136.93
974.929	76.87
975.095	152.82
975.261	76.09
975.426	58.46
975.592	95.86
975.758	133.83
975.923	57.88
976.089	68.15
976.255	123.76
976.42	83.65
976.586	97.02
976.751	112.91
976.917	187.5
977.082	107.87
977.248	51.68
977.413	25.91
977.579	86.36
977.744	87.53
977.91	56.53
978.075	66.41
978.24	106.13
978.406	90.82
978.571	64.86
978.736	54.39
978.902	120.27
979.067	60.4
979.232	38.12
979.397	111.36
979.563	147.97
979.728	65.83
979.893	77.64
980.058	69.31
980.223	134.41
980.388	97.02
980.554	86.56
980.719	68.73
980.884	80.36
981.049	131.12
981.214	95.66
981.379	104.96
981.544	88.88
981.709	84.81
981.874	80.74
982.039	100.7
982.204	118.72
982.368	85.98
982.533	67.96
982.698	119.69
982.863	118.72
983.028	90.04
983.193	119.88
983.357	99.93
983.522	91.59
983.687	76.09
983.852	87.72
984.016	95.86
984.181	72.8
984.346	119.69
984.51	121.43
984.675	98.18
984.839	96.83
985.004	73.96
985.168	121.04
985.333	105.54
985.498	77.84
985.662	108.06
985.827	119.3
985.991	102.64
986.155	94.5
986.32	122.79
986.484	143.32
986.649	121.82
986.813	60.01
986.977	104.19
987.142	106.32
987.306	48.19
987.47	62.34
987.634	138.48
987.799	113.49
987.963	108.84
988.127	131.89
988.291	147.97
988.455	95.08
988.62	75.13
988.784	102.44
988.948	146.42
989.112	63.31
989.276	108.06
989.44	94.89
989.604	44.32
989.768	79.58
989.932	176.46
990.096	58.66
990.26	68.93
990.424	48.58
990.588	95.86
990.752	149.33
990.915	146.04
991.079	73.77
991.243	74.93
991.407	139.84
991.571	82.68
991.734	106.71
991.898	113.29
992.062	151.07
992.226	83.26
992.389	75.51
992.553	59.63
992.717	72.41
992.88	69.31
993.044	83.07
993.207	66.02
993.371	116.2
993.535	125.11
993.698	85.39
993.862	126.27
994.025	112.13
994.189	81.52
994.352	83.65
994.515	93.73
994.679	122.98
994.842	76.09
995.006	121.04
995.169	63.31
995.332	83.07
995.496	123.95
995.659	41.41
995.822	92.95
995.985	72.41
996.149	113.68
996.312	58.66
996.475	133.83
996.638	79
996.801	102.64
996.964	111.74
997.128	84.81
997.291	67.18
997.454	110.58
997.617	33.66
997.78	119.49
997.943	81.52
998.106	97.6
998.269	54.01
998.432	83.26
998.595	72.8
998.758	30.37
998.92	40.44
999.083	-6.25
999.246	87.53
999.409	17
999.572	18.36
999.735	61.56
999.897	103.03
1000.06	41.8
1000.223	56.14
1000.386	72.03
1000.548	77.64
1000.711	77.26
1000.874	79.78
1001.036	16.42
1001.199	73.38
1001.361	35.79
1001.524	87.33
1001.687	115.23
1001.849	33.47
1002.012	61.18
1002.174	76.87
1002.337	90.82
1002.499	72.41
1002.661	105.16
1002.824	47.61
1002.986	40.64
1003.149	49.16
1003.311	32.31
1003.473	103.61
1003.636	31.73
1003.798	59.82
1003.96	62.14
1004.123	53.04
1004.285	57.69
1004.447	64.08
1004.609	59.43
1004.771	97.79
1004.933	23.2
1005.096	31.53
1005.258	6.35
1005.42	24.17
1005.582	74.35
1005.744	49.36
1005.906	26.11
1006.068	38.12
1006.23	19.13
1006.392	-1.99
1006.554	-7.99
1006.716	72.03
1006.878	53.81
1007.04	2.66
1007.202	41.22
1007.363	60.98
1007.525	45.87
1007.687	38.89
1007.849	97.21
1008.011	-28.92
1008.172	6.54
1008.334	17.78
1008.496	56.91
1008.658	1.31
1008.819	36.18
1008.981	5.76
1009.143	4.6
1009.304	16.42
1009.466	59.43
1009.627	102.25
1009.789	136.93
1009.95	55.75
1010.112	15.65
1010.273	48.39
1010.435	21.07
1010.596	47.61
1010.758	25.91
1010.919	32.11
1011.081	8.48
1011.242	40.83
1011.403	41.03
1011.565	39.28
1011.726	46.45
1011.887	-17.29
1012.049	25.53
1012.21	63.5
1012.371	94.5
1012.532	-29.69
1012.693	19.33
1012.855	35.79
1013.016	49.55
1013.177	89.66
1013.338	35.79
1013.499	93.73
1013.66	47.61
1013.821	60.01
1013.982	44.13
1014.143	35.21
1014.304	24.17
1014.465	78.61
1014.626	67.18
1014.787	23.59
1014.948	119.11
1015.109	-20.2
1015.27	77.45
1015.431	17.39
1015.592	-2.37
1015.752	61.37
1015.913	53.04
1016.074	53.04
1016.235	31.53
1016.395	38.31
1016.556	30.95
1016.717	25.14
1016.877	58.66
1017.038	14.1
1017.199	25.14
1017.359	36.76
1017.52	45.48
1017.681	1.31
1017.841	31.34
1018.002	23.01
1018.162	17.39
1018.323	79.39
1018.483	27.85
1018.644	17
1018.804	-7.99
1018.964	-3.92
1019.125	-13.42
1019.285	39.86
1019.446	29.98
1019.606	-1.4
1019.766	-0.63
1019.926	29.21
1020.087	29.98
1020.247	-15.16
1020.407	58.85
1020.567	57.69
1020.728	35.41
1020.888	-0.82
1021.048	5.18
1021.208	-0.44
1021.368	-11.09
1021.528	66.79
1021.688	57.69
1021.848	27.66
1022.008	27.08
1022.168	24.56
1022.328	22.04
1022.488	50.52
1022.648	15.06
1022.808	35.6
1022.968	11.19
1023.128	0.53
1023.288	-4.31
1023.448	34.63
1023.608	39.67
1023.767	59.24
1023.927	8.48
1024.087	-9.35
1024.247	-23.69
1024.406	-3.34
1024.566	-22.52
1024.726	2.28
1024.885	4.21
1025.045	40.44
1025.205	20.68
1025.364	-2.57
1025.524	7.31
1025.683	10.41
1025.843	17
1026.003	23.2
1026.162	66.21
1026.321	51.29
1026.481	53.43
1026.64	3.05
1026.8	29.59
1026.959	-5.86
1027.119	23.39
1027.278	4.41
1027.437	14.29
1027.597	5.38
1027.756	34.24
1027.915	20.1
1028.074	19.13
1028.234	-16.13
1028.393	9.25
1028.552	9.64
1028.711	-32.21
1028.87	54.98
1029.03	-40.74
1029.189	14.29
1029.348	-58.95
1029.507	-12.64
1029.666	-10.32
1029.825	-13.61
1029.984	7.9
1030.143	16.81
1030.302	19.91
1030.461	-42.09
1030.62	14.68
1030.779	34.63
1030.938	-15.35
1031.097	8.09
1031.255	28.43
1031.414	45.48
1031.573	41.03
1031.732	-38.99
1031.891	-4.5
1032.049	37.54
1032.208	13.13
1032.367	8.67
1032.525	-9.93
1032.684	2.86
1032.843	12.93
1033.001	-54.3
1033.16	142.94
1033.319	36.18
1033.477	-4.5
1033.636	-19.23
1033.794	-17.49
1033.953	38.12
1034.111	9.64
1034.27	-0.63
1034.428	21.07
1034.587	-11.87
1034.745	26.49
1034.903	14.1
1035.062	17.97
1035.22	-12.64
1035.378	-4.12
1035.537	-21.17
1035.695	16.23
1035.853	4.02
1036.011	47.23
1036.17	8.86
1036.328	-40.54
1036.486	10.8
1036.644	30.56
1036.802	-94.4
1036.96	-1.21
1037.119	-2.37
1037.277	10.8
1037.435	-32.02
1037.593	-36.09
1037.751	6.54
1037.909	35.41
1038.067	35.41
