Data from gum_young_FLMT105791__147__17-41-15-039.txt Node

Date: Mon Mar 20 17:41:15 GMT 2023
User: antho
Spectrometer: FLMT10579
Trigger mode: 0
Integration Time (sec): 1.000000E-1
Scans to average: 10
Electric dark correction enabled: true
Nonlinearity correction enabled: false
Boxcar width: 0
XAxis mode: Wavelengths
Number of Pixels in Spectrum: 3648
>>>>>Begin Spectral Data<<<<<
345.248	-131.12
345.464	-131.12
345.681	-131.12
345.898	-151.85
346.114	-162.51
346.331	-43.93
346.548	39.77
346.764	2.57
346.981	7.02
347.197	-15.26
347.414	25.62
347.631	-31.92
347.847	39.96
348.064	-0.73
348.28	33.95
348.497	-53.04
348.713	-4.02
348.93	19.81
349.146	3.92
349.363	11.29
349.579	-19.91
349.796	-5.96
350.012	34.54
350.229	46.16
350.445	-2.28
350.661	-27.66
350.878	18.07
351.094	33.18
351.311	36.47
351.527	33.57
351.743	1.6
351.96	35.89
352.176	49.26
352.392	31.44
352.609	36.47
352.825	21.17
353.041	42.09
353.257	-9.06
353.474	27.95
353.69	37.25
353.906	18.07
354.122	-31.34
354.339	38.8
354.555	8.96
354.771	9.93
354.987	59.72
355.203	64.76
355.42	-21.26
355.636	10.51
355.852	3.15
356.068	9.35
356.284	-28.04
356.5	64.37
356.716	23.69
356.932	19.81
357.148	49.07
357.364	15.55
357.58	35.31
357.796	62.82
358.012	46.94
358.228	38.8
358.444	-42.19
358.66	51
358.876	3.73
359.092	-8.28
359.308	2.37
359.524	24.46
359.74	7.99
359.956	23.1
360.172	28.34
360.388	37.44
360.604	-36.18
360.819	96.73
361.035	47.32
361.251	47.13
361.467	-18.75
361.683	46.16
361.898	22.14
362.114	45.97
362.33	18.45
362.546	56.24
362.762	25.43
362.977	13.8
363.193	-17.97
363.409	45.39
363.624	-17
363.84	-29.01
364.056	-13.13
364.271	43.84
364.487	16.52
364.703	3.92
364.918	4.89
365.134	1.4
365.35	20.39
365.565	120.56
365.781	18.65
365.996	49.45
366.212	82
366.427	34.34
366.643	4.7
366.858	9.15
367.074	15.16
367.289	70.38
367.505	105.64
367.72	-17.97
367.936	18.65
368.151	71.35
368.367	43.84
368.582	40.35
368.798	1.79
369.013	47.13
369.228	36.09
369.444	27.75
369.659	74.06
369.874	50.62
370.09	79.1
370.305	-17
370.52	3.54
370.736	81.23
370.951	8.57
371.166	40.74
371.381	93.82
371.597	45.19
371.812	-12.35
372.027	-0.34
372.242	52.94
372.458	87.62
372.673	0.05
372.888	51.97
373.103	45.77
373.318	104.48
373.533	54.69
373.749	50.42
373.964	-16.81
374.179	52.17
374.394	-11.96
374.609	62.05
374.824	-3.44
375.039	81.23
375.254	19.04
375.469	65.53
375.684	69.22
375.899	71.15
376.114	37.64
376.329	29.5
376.544	61.08
376.759	38.6
376.974	-1.31
377.189	29.3
377.404	8.77
377.619	76.38
377.834	-5.18
378.049	-13.13
378.264	3.73
378.478	31.63
378.693	2.18
378.908	60.89
379.123	9.54
379.338	48.49
379.553	39.96
379.767	42.29
379.982	60.69
380.197	60.3
380.412	22.72
380.626	52.36
380.841	109.52
381.056	42.67
381.271	68.05
381.485	2.37
381.7	3.54
381.915	63.79
382.129	16.52
382.344	72.12
382.559	27.75
382.773	49.26
382.988	3.15
383.202	68.05
383.417	-13.9
383.632	98.08
383.846	47.13
384.061	20.2
384.275	20.39
384.49	46.16
384.704	63.99
384.919	37.64
385.133	25.24
385.348	61.66
385.562	20.39
385.777	67.47
385.991	38.02
386.206	32.21
386.42	18.07
386.634	78.9
386.849	53.14
387.063	43.64
387.277	28.14
387.492	28.72
387.706	10.7
387.92	45.58
388.135	76.58
388.349	67.67
388.563	60.3
388.778	37.44
388.992	56.24
389.206	45.77
389.42	114.94
389.635	55.46
389.849	65.73
390.063	69.99
390.277	40.35
390.491	109.13
390.706	68.83
390.92	92.66
391.134	54.69
391.348	99.63
391.562	4.12
391.776	45.58
391.99	25.04
392.205	87.04
392.419	21.55
392.633	52.94
392.847	108.93
393.061	18.84
393.275	115.72
393.489	30.85
393.703	44.22
393.917	78.71
394.131	25.04
394.345	69.99
394.559	79.87
394.773	56.43
394.986	75.03
395.2	53.33
395.414	88.59
395.628	38.6
395.842	73.67
396.056	69.02
396.27	17.1
396.484	69.02
396.697	60.5
396.911	94.4
397.125	56.82
397.339	105.25
397.553	41.51
397.766	102.15
397.98	95.95
398.194	93.82
398.408	70.96
398.621	96.92
398.835	109.9
399.049	76
399.262	129.67
399.476	117.65
399.69	112.62
399.903	158.53
400.117	77.74
400.331	104.48
400.544	50.42
400.758	174.03
400.971	117.85
401.185	124.24
401.398	82.78
401.612	127.92
401.826	102.73
402.039	96.53
402.253	100.02
402.466	140.52
402.68	77.74
402.893	107.58
403.106	106.22
403.32	94.6
403.533	105.45
403.747	100.99
403.96	134.12
404.174	134.7
404.387	78.71
404.6	96.53
404.814	149.04
405.027	133.93
405.24	126.57
405.454	98.08
405.667	153.11
405.88	74.45
406.094	112.42
406.307	138.19
406.52	112.42
406.733	80.65
406.947	53.33
407.16	172.1
407.373	149.62
407.586	113.58
407.799	80.65
408.012	130.25
408.226	109.71
408.439	165.9
408.652	72.7
408.865	127.15
409.078	157.76
409.291	135.48
409.504	97.5
409.717	150.01
409.93	120.95
410.143	112.81
410.357	71.73
410.57	87.62
410.783	107.19
410.996	109.71
411.209	141.68
411.421	182.36
411.634	128.12
411.847	111.07
412.06	131.99
412.273	130.63
412.486	132.38
412.699	245.53
412.912	156.79
413.125	152.91
413.338	131.41
413.55	164.54
413.763	140.52
413.976	138.97
414.189	127.92
414.402	132.77
414.615	194.18
414.827	93.43
415.04	207.16
415.253	182.75
415.466	181.78
415.678	248.63
415.891	143.03
416.104	159.11
416.316	166.28
416.529	142.45
416.742	189.34
416.954	183.72
417.167	140.13
417.38	144.39
417.592	181.4
417.805	123.85
418.017	111.26
418.23	206
418.442	152.14
418.655	144.2
418.868	177.52
419.08	188.18
419.293	206.58
419.505	201.74
419.718	193.6
419.93	200
420.142	168.03
420.355	201.35
420.567	203.87
420.78	179.46
420.992	181.78
421.205	223.63
421.417	138.58
421.629	165.31
421.842	122.69
422.054	137.8
422.266	199.41
422.479	216.85
422.691	138.38
422.903	217.82
423.115	166.48
423.328	163.38
423.54	183.33
423.752	180.04
423.964	139.74
424.177	193.41
424.389	179.65
424.601	290.09
424.813	218.01
425.025	204.06
425.238	206
425.45	167.45
425.662	158.53
425.874	466.79
426.086	200
426.298	206.2
426.51	219.37
426.722	190.11
426.934	199.8
427.146	196.31
427.358	152.33
427.57	222.86
427.782	185.46
427.994	180.23
428.206	173.84
428.418	147.1
428.63	211.81
428.842	245.14
429.054	193.21
429.266	223.83
429.478	188.37
429.69	176.16
429.902	150.98
430.114	205.81
430.325	196.9
430.537	178.1
430.749	165.31
430.961	131.6
431.173	145.36
431.384	195.35
431.596	96.53
431.808	160.47
432.02	213.17
432.231	239.13
432.443	268
432.655	218.01
432.867	181.78
433.078	237.78
433.29	253.86
433.502	279.63
433.713	207.94
433.925	234.29
434.136	270.52
434.348	170.74
434.56	169.58
434.771	302.88
434.983	199.61
435.194	199.8
435.406	219.37
435.617	256.96
435.829	273.62
436.04	260.06
436.252	258.89
436.463	297.06
436.675	289.7
436.886	255.6
437.098	273.23
437.309	304.23
437.521	256.76
437.732	253.28
437.943	243.78
438.155	256.57
438.366	225.76
438.578	319.73
438.789	278.66
439	269.55
439.211	244.36
439.423	250.37
439.634	272.07
439.845	265.29
440.057	263.54
440.268	290.86
440.479	248.82
440.69	274.59
440.902	239.71
441.113	228.67
441.324	264.32
441.535	321.28
441.746	329.42
441.957	267.81
442.168	277.3
442.38	307.33
442.591	328.45
442.802	261.22
443.013	265.68
443.224	297.45
443.435	290.09
443.646	303.26
443.857	286.79
444.068	272.65
444.279	264.71
444.49	371.46
444.701	294.74
444.912	419.7
445.123	341.43
445.334	337.17
445.545	309.46
445.756	302.88
445.967	294.16
446.178	301.91
446.388	340.85
446.599	316.83
446.81	368.56
447.021	295.13
447.232	349.57
447.443	381.34
447.653	315.86
447.864	364.1
448.075	319.34
448.286	384.64
448.496	358.09
448.707	366.04
448.918	308.49
449.129	431.72
449.339	312.18
449.55	336.59
449.761	352.28
449.971	400.33
450.182	328.26
450.393	374.37
450.603	357.51
450.814	401.11
451.024	384.25
451.235	394.52
451.446	417.96
451.656	438.89
451.867	362.74
452.077	381.92
452.288	405.37
452.498	412.34
452.709	359.84
452.919	391.81
453.13	347.24
453.34	420.87
453.55	322.44
453.761	410.6
453.971	355.96
454.182	379.41
454.392	385.41
454.602	464.27
454.813	406.14
455.023	427.65
455.233	344.92
455.444	410.21
455.654	329.81
455.864	385.61
456.075	387.54
456.285	376.11
456.495	412.54
456.705	401.69
456.916	410.02
457.126	462.52
457.336	414.09
457.546	351.31
457.756	376.89
457.967	443.34
458.177	381.15
458.387	418.54
458.597	373.59
458.807	395.87
459.017	399.36
459.227	411.57
459.437	408.66
459.647	453.61
459.857	403.24
460.068	399.17
460.278	469.3
460.488	443.54
460.698	482.48
460.908	415.83
461.117	385.22
461.327	385.61
461.537	435.98
461.747	459.81
461.957	432.3
462.167	544.87
462.377	483.84
462.587	449.54
462.797	467.95
463.007	452.25
463.216	476.86
463.426	490.42
463.636	486.35
463.846	423.77
464.056	453.61
464.265	465.24
464.475	440.24
464.685	463.49
464.895	458.84
465.104	452.84
465.314	504.76
465.524	454
465.733	463.1
465.943	533.43
466.153	499.72
466.362	499.14
466.572	469.3
466.782	454.39
466.991	473.37
467.201	511.54
467.41	411.18
467.62	491.78
467.829	473.57
468.039	504.76
468.249	469.11
468.458	491.97
468.668	495.46
468.877	512.32
469.086	558.82
469.296	516.97
469.505	468.92
469.715	541.38
469.924	529.37
470.134	537.5
470.343	544.09
470.552	499.72
470.762	484.22
470.971	497.4
471.18	518.52
471.39	530.72
471.599	492.17
471.808	574.12
472.018	496.82
472.227	582.07
472.436	583.42
472.645	516.19
472.855	536.73
473.064	602.6
473.273	578
473.482	563.85
473.691	585.17
473.901	594.46
474.11	562.11
474.319	636.9
474.528	554.75
474.737	634.18
474.946	605.12
475.155	581.29
475.364	618.49
475.573	605.7
475.783	609.58
475.992	631.08
476.201	635.93
476.41	608.03
476.619	571.99
476.828	620.23
477.037	574.9
477.245	618.3
477.454	674.48
477.663	601.05
477.872	646
478.081	715.94
478.29	658.21
478.499	732.8
478.708	663.05
478.917	730.48
479.125	666.54
479.334	700.83
479.543	670.22
479.752	706.45
479.961	722.73
480.169	704.51
480.378	701.99
480.587	815.72
480.796	741.13
481.004	700.06
481.213	734.74
481.422	768.45
481.63	724.66
481.839	761.86
482.048	815.14
482.256	742.49
482.465	780.46
482.674	801.58
482.882	807.97
483.091	841.49
483.299	782.79
483.508	844.01
483.716	823.67
483.925	826.19
484.134	783.56
484.342	780.66
484.551	832.77
484.759	846.34
484.967	845.56
485.176	861.25
485.384	861.06
485.593	868.23
485.801	849.24
486.01	822.31
486.218	775.81
486.426	726.79
486.635	749.46
486.843	731.06
487.051	759.73
487.26	733.77
487.468	783.37
487.676	822.7
487.885	823.47
488.093	847.31
488.301	864.35
488.509	872.49
488.717	889.54
488.926	899.23
489.134	868.62
489.342	874.04
489.55	899.04
489.758	885.09
489.967	910.85
490.175	1027.3
490.383	920.93
490.591	1002.69
490.799	897.49
491.007	993.78
491.215	944.95
491.423	942.05
491.631	959.29
491.839	958.71
492.047	998.04
492.255	931.97
492.463	898.65
492.671	898.84
492.879	992.42
493.087	965.3
493.295	979.05
493.503	993
493.711	1031.36
493.919	1021.29
494.127	1022.65
494.334	1046.28
494.542	977.12
494.75	1046.86
494.958	1012.96
495.166	1049.19
495.374	1047.25
495.581	1062.36
495.789	1079.8
495.997	1125.53
496.205	1037.18
496.412	1039.7
496.62	1041.25
496.828	1094.33
497.035	1065.08
497.243	1094.14
497.451	1077.86
497.658	1096.46
497.866	1100.73
498.074	1131.53
498.281	1093.95
498.489	1173.19
498.696	1107.51
498.904	1071.86
499.112	1094.53
499.319	1160.21
499.527	1147.61
499.734	1210
499.942	1081.35
500.149	1131.53
500.357	1174.35
500.564	1145.68
500.771	1169.31
500.979	1120.29
501.186	1094.72
501.394	1141.99
501.601	1127.66
501.808	1148.58
502.016	1135.41
502.223	1138.31
502.43	1146.45
502.638	1137.34
502.845	1134.24
503.052	1222.4
503.26	1193.73
503.467	1268.12
503.674	1220.85
503.881	1215.42
504.089	1276.07
504.296	1251.07
504.503	1180.36
504.71	1193.53
504.917	1182.1
505.125	1263.47
505.332	1218.72
505.539	1259.02
505.746	1321.02
505.953	1312.49
506.16	1346.79
506.367	1362.67
506.574	1398.71
506.781	1389.6
506.988	1325.67
507.195	1382.43
507.402	1366.35
507.609	1382.82
507.816	1339.62
508.023	1340.78
508.23	1339.04
508.437	1306.1
508.644	1389.6
508.851	1434.36
509.058	1431.45
509.265	1402.2
509.472	1465.75
509.679	1543.83
509.885	1501.78
510.092	1461.29
510.299	1461.29
510.506	1470.4
510.713	1480.28
510.92	1501.59
511.126	1517.09
511.333	1543.05
511.54	1579.86
511.746	1577.34
511.953	1622.29
512.16	1607.76
512.367	1617.84
512.573	1591.29
512.78	1607.57
512.987	1593.43
513.193	1621.91
513.4	1522.71
513.606	1590.33
513.813	1612.8
514.02	1629.66
514.226	1654.46
514.433	1694.37
514.639	1570.18
514.846	1698.24
515.052	1617.64
515.259	1706.77
515.465	1719.94
515.672	1690.69
515.878	1807.52
516.085	1731.57
516.291	1823.6
516.497	1792.21
516.704	1719.56
516.91	1730.99
517.117	1623.84
517.323	1597.69
517.529	1634.31
517.736	1638.18
517.942	1656.78
518.148	1692.82
518.354	1689.14
518.561	1731.18
518.767	1734.47
518.973	1774.77
519.179	1800.74
519.386	1780
519.592	1816.43
519.798	1825.15
520.004	1933.45
520.21	1933.65
520.417	1972.2
520.623	2025.29
520.829	2014.44
521.035	1992.93
521.241	2048.93
521.447	2031.49
521.653	2173.89
521.859	2057.64
522.065	2115.77
522.271	2176.8
522.477	2219.23
522.683	2243.45
522.889	2196.37
523.095	2161.69
523.301	2193.27
523.507	2153.16
523.713	2233.18
523.919	2171.95
524.125	2262.24
524.331	2266.7
524.537	2398.06
524.742	2335.48
524.948	2368.41
525.154	2407.75
525.36	2491.25
525.566	2399.8
525.772	2474.39
525.977	2370.55
526.183	2393.02
526.389	2519.54
526.595	2338.19
526.8	2373.84
527.006	2262.82
527.212	2238.99
527.417	2201.79
527.623	2209.15
527.829	2303.7
528.034	2354.46
528.24	2376.94
528.446	2389.92
528.651	2502.1
528.857	2512.17
529.062	2594.71
529.268	2560.81
529.473	2585.8
529.679	2611.57
529.884	2683.25
530.09	2620.09
530.295	2665.04
530.501	2667.17
530.706	2622.61
530.912	2643.15
531.117	2655.94
531.323	2721.81
531.528	2713.28
531.733	2723.17
531.939	2722.39
532.144	2757.85
532.35	2772.77
532.555	2778.96
532.76	2697.98
532.966	2739.63
533.171	2697.59
533.376	2637.92
533.581	2643.54
533.787	2647.41
533.992	2763.47
534.197	2727.23
534.402	2754.17
534.607	2784.97
534.813	2869.25
535.018	2770.63
535.223	2820.23
535.428	2810.55
535.633	2852.59
535.838	2926.21
536.043	2955.27
536.249	2996.54
536.454	2949.27
536.659	2954.89
536.864	2916.14
537.069	2886.3
537.274	2911.68
537.479	2883.01
537.684	2912.65
537.889	2870.41
538.094	2997.9
538.299	2939.97
538.504	2990.54
538.708	2985.5
538.913	3026.38
539.118	3010.49
539.323	3004.29
539.528	2934.93
539.733	2895.99
539.938	2955.86
540.142	2936.87
540.347	2950.43
540.552	2932.61
540.757	2839.61
540.962	2897.73
541.166	2822.36
541.371	2849.68
541.576	2917.49
541.781	2848.91
541.985	2926.02
542.19	2941.71
542.395	3028.32
542.599	3023.67
542.804	2984.53
543.008	3057.57
543.213	3009.91
543.418	2947.14
543.622	3052.73
543.827	2998.48
544.031	3035.87
544.236	3079.08
544.44	3080.82
544.645	3123.83
544.849	3048.08
545.054	3116.09
545.258	3139.72
545.463	3109.89
545.667	3032.58
545.872	3106.79
546.076	3142.05
546.281	3118.6
546.485	3101.75
546.689	3127.52
546.894	3143.98
547.098	3147.86
547.302	3051.95
547.507	3115.12
547.711	3079.08
547.915	3175.18
548.119	3085.67
548.324	3089.54
548.528	3132.36
548.732	3115.7
548.936	3156.58
549.141	3145.53
549.345	3137.4
549.549	3148.63
549.753	3165.68
549.957	3234.08
550.161	3217.03
550.366	3191.65
550.57	3163.36
550.774	3149.8
550.978	3171.11
551.182	3155.8
551.386	3156.97
551.59	3142.82
551.794	3173.82
551.998	3201.92
552.202	3209.67
552.406	3131.2
552.61	3200.56
552.814	3206.37
553.018	3242.99
553.222	3172.47
553.426	3175.76
553.63	3220.32
553.833	3192.03
554.037	3141.85
554.241	3222.65
554.445	3190.29
554.649	3180.6
554.853	3121.51
555.056	3198.04
555.26	3199.98
555.464	3178.47
555.668	3185.25
555.871	3195.72
556.075	3223.42
556.279	3165.49
556.483	3113.76
556.686	3141.85
556.89	3118.02
557.094	3156.58
557.297	3069.78
557.501	3141.08
557.704	3034.13
557.908	3135.85
558.112	3072.49
558.315	3159.29
558.519	3063.19
558.722	3062.22
558.926	3019.02
559.129	2922.73
559.333	2925.83
559.536	2930.48
559.74	2944.43
559.943	2937.84
560.147	2924.28
560.35	2957.6
560.553	2966.51
560.757	2934.35
560.96	3023.67
561.164	2959.34
561.367	3039.94
561.57	2973.68
561.774	2984.34
561.977	2946.56
562.18	2920.79
562.384	3022.51
562.587	2939.39
562.79	2947.91
562.993	2929.89
563.197	2977.94
563.4	2994.8
563.603	2996.54
563.806	3014.95
564.009	2896.18
564.212	2964.19
564.416	2864.6
564.619	2880.1
564.822	2828.56
565.025	2918.08
565.228	2844.45
565.431	2823.72
565.634	2774.12
565.837	2806.28
566.04	2727.43
566.243	2752.81
566.446	2653.42
566.649	2733.05
566.852	2666.79
567.055	2751.65
567.258	2719.29
567.461	2802.6
567.664	2800.47
567.867	2742.93
568.07	2748.74
568.273	2757.85
568.475	2790.01
568.678	2666.4
568.881	2651.87
569.084	2654
569.287	2546.47
569.489	2559.64
569.692	2602.27
569.895	2594.71
570.098	2552.09
570.3	2564.87
570.503	2454.05
570.706	2485.63
570.909	2471.88
571.111	2414.53
571.314	2410.85
571.516	2423.83
571.719	2418.4
571.922	2430.03
572.124	2406.97
572.327	2408.13
572.529	2375.97
572.732	2384.88
572.935	2447.85
573.137	2511.4
573.34	2398.64
573.542	2460.44
573.745	2405.23
573.947	2431.77
574.15	2401.74
574.352	2363.38
574.554	2432.74
574.757	2333.54
574.959	2294.6
575.162	2329.28
575.364	2272.9
575.566	2362.8
575.769	2256.23
575.971	2298.47
576.173	2184.55
576.376	2245.97
576.578	2280.45
576.78	2264.18
576.982	2173.5
577.185	2226.4
577.387	2162.27
577.589	2215.35
577.791	2266.89
577.993	2250.23
578.196	2227.95
578.398	2238.99
578.6	2216.9
578.802	2154.32
579.004	2146.77
579.206	2136.11
579.408	2194.43
579.61	2180.67
579.812	2189
580.014	2135.34
580.216	2108.02
580.418	2183.77
580.62	2153.16
580.822	2141.73
581.024	2182.42
581.226	2223.1
581.428	2212.45
581.63	2222.72
581.832	2173.7
582.034	2235.7
582.236	2211.48
582.438	2279.87
582.64	2252.55
582.841	2285.3
583.043	2310.48
583.245	2234.15
583.447	2243.06
583.649	2228.92
583.85	2242.87
584.052	2277.35
584.254	2170.79
584.456	2223.1
584.657	2151.81
584.859	2197.53
585.061	2188.04
585.262	2186.49
585.464	2137.47
585.666	2173.89
585.867	2143.67
586.069	2207.8
586.27	2151.42
586.472	2160.14
586.674	2119.45
586.875	2112.09
587.077	2101.82
587.278	2131.27
587.48	2133.01
587.681	2207.6
587.883	2144.25
588.084	2022.38
588.285	2044.86
588.487	1990.61
588.688	2023.35
588.89	1953.6
589.091	1901.29
589.292	1857.5
589.494	1841.42
589.695	1756.95
589.896	1748.23
590.098	1744.94
590.299	1806.94
590.5	1759.27
590.702	1813.72
590.903	1881.72
591.104	1901.68
591.305	1908.85
591.507	1987.9
591.708	1903.42
591.909	1885.02
592.11	1977.63
592.311	1939.85
592.512	1911.95
592.714	1889.67
592.915	1881.33
593.116	1870.48
593.317	1949.53
593.518	1966.58
593.719	1927.64
593.92	1940.23
594.121	1943.33
594.322	1919.5
594.523	1949.73
594.724	1861.77
594.925	1894.9
595.126	1872.03
595.327	1887.34
595.528	1913.88
595.729	1912.72
595.929	1905.16
596.13	1939.07
596.331	1931.71
596.532	1913.11
596.733	1972.98
596.934	1963.1
597.135	1952.05
597.335	1921.44
597.536	1862.15
597.737	1914.66
597.938	1907.49
598.138	1941.78
598.339	1876.49
598.54	1917.95
598.74	1904.39
598.941	1892.18
599.142	1956.51
599.342	1930.55
599.543	1898.77
599.744	1937.71
599.944	1900.9
600.145	1921.05
600.345	1912.14
600.546	1967.94
600.746	1935.78
600.947	1979.37
601.147	1894.51
601.348	1949.73
601.548	1866.22
601.749	1891.99
601.949	1866.61
602.15	1847.62
602.35	1844.72
602.551	1891.8
602.751	1852.27
602.951	1875.72
603.152	1800.74
603.352	1897.61
603.552	1890.63
603.753	1900.32
603.953	1928.8
604.153	1926.28
604.354	1882.11
604.554	1861.96
604.754	1918.73
604.954	1867.97
605.155	1882.69
605.355	1870.48
605.555	1896.83
605.755	1931.13
605.955	1865.25
606.155	1889.08
606.356	1875.52
606.556	1924.93
606.756	1876.1
606.956	1819.53
607.156	1913.69
607.356	1840.07
607.556	1852.85
607.756	1879.59
607.956	1866.22
608.156	1842
608.356	1784.85
608.556	1857.12
608.756	1805.58
608.956	1808.87
609.156	1836
609.356	1787.95
609.556	1767.02
609.755	1849.95
609.955	1771.67
610.155	1784.65
610.355	1784.07
610.555	1771.48
610.755	1764.31
610.954	1719.56
611.154	1735.64
611.354	1813.91
611.554	1709.48
611.753	1734.28
611.953	1704.44
612.153	1774.19
612.352	1733.31
612.552	1690.88
612.752	1685.26
612.951	1737.19
613.151	1728.85
613.351	1695.92
613.55	1698.05
613.75	1684.1
613.949	1683.13
614.149	1677.32
614.348	1705.61
614.548	1665.11
614.747	1648.64
614.947	1646.12
615.146	1614.35
615.346	1725.95
615.545	1693.4
615.745	1656.39
615.944	1677.32
616.144	1662.01
616.343	1668.6
616.542	1628.88
616.742	1591.88
616.941	1618.42
617.14	1552.74
617.34	1575.79
617.539	1596.72
617.738	1587.61
617.938	1648.64
618.137	1606.21
618.336	1570.76
618.535	1606.6
618.734	1610.86
618.934	1641.86
619.133	1609.89
619.332	1628.3
619.531	1549.45
619.73	1609.7
619.929	1629.66
620.128	1612.8
620.328	1620.16
620.527	1565.33
620.726	1563.98
620.925	1614.93
621.124	1615.71
621.323	1580.64
621.522	1505.85
621.721	1536.08
621.92	1536.66
622.119	1586.64
622.318	1513.02
622.517	1531.43
622.715	1560.49
622.914	1480.66
623.113	1525.42
623.312	1476.79
623.511	1505.08
623.71	1512.25
623.909	1481.44
624.107	1548.09
624.306	1448.12
624.505	1465.55
624.704	1489.38
624.902	1455.67
625.101	1532.4
625.3	1505.85
625.499	1457.61
625.697	1453.35
625.896	1424.09
626.095	1464.78
626.293	1412.47
626.492	1412.47
626.69	1477.56
626.889	1445.4
627.088	1452.77
627.286	1445.02
627.485	1400.07
627.683	1411.5
627.882	1407.62
628.08	1344.85
628.279	1347.56
628.477	1423.12
628.676	1358.22
628.874	1386.31
629.073	1323.34
629.271	1348.53
629.469	1377.98
629.668	1349.3
629.866	1343.69
630.065	1352.99
630.263	1382.05
630.461	1331.48
630.66	1351.63
630.858	1377.78
631.056	1431.26
631.254	1417.7
631.453	1337.1
631.651	1406.85
631.849	1366.55
632.047	1407.43
632.245	1393.09
632.444	1391.93
632.642	1389.8
632.84	1393.67
633.038	1369.45
633.236	1333.61
633.434	1405.49
633.632	1332.84
633.83	1343.1
634.028	1445.6
634.227	1409.37
634.425	1434.17
634.623	1358.22
634.821	1441.14
635.019	1442.3
635.216	1389.02
635.414	1432.23
635.612	1384.95
635.81	1395.61
636.008	1447.92
636.206	1397.55
636.404	1406.27
636.602	1341.55
636.8	1378.37
636.997	1407.04
637.195	1407.04
637.393	1404.52
637.591	1431.26
637.789	1384.18
637.986	1383.79
638.184	1388.05
638.382	1381.85
638.58	1410.14
638.777	1417.7
638.975	1349.69
639.173	1387.47
639.37	1382.43
639.568	1363.25
639.765	1394.06
639.963	1349.5
640.161	1388.25
640.358	1394.25
640.556	1289.63
640.753	1325.67
640.951	1304.74
641.148	1364.03
641.346	1294.86
641.543	1337.1
641.741	1350.47
641.938	1292.73
642.136	1335.94
642.333	1294.28
642.531	1357.05
642.728	1340.59
642.925	1336.32
643.123	1275.29
643.32	1280.52
643.517	1271.81
643.715	1278.2
643.912	1251.07
644.109	1315.4
644.306	1276.26
644.504	1233.06
644.701	1235.77
644.898	1274.52
645.095	1249.72
645.293	1226.66
645.49	1266.96
645.687	1249.33
645.884	1279.56
646.081	1178.61
646.278	1211.36
646.475	1201.86
646.672	1161.56
646.87	1187.53
647.067	1184.43
647.264	1173.38
647.461	1135.21
647.658	1113.51
647.855	1171.83
648.052	1107.9
648.249	1037.18
648.446	1130.76
648.642	1086.78
648.839	1086.97
649.036	1078.45
649.233	1073.41
649.43	1074.38
649.627	1026.91
649.824	1067.6
650.021	1033.3
650.217	1025.75
650.414	1068.95
650.611	1074.38
650.808	1106.35
651.004	1088.33
651.201	1090.46
651.398	1118.94
651.595	1066.43
651.791	1034.46
651.988	1094.14
652.185	1047.64
652.381	1085.81
652.578	1017.8
652.775	1037.95
652.971	1073.8
653.168	1078.45
653.364	1121.65
653.561	1033.5
653.757	1062.56
653.954	1070.89
654.15	1049.96
654.347	1145.68
654.543	1047.64
654.74	987.77
654.936	1009.28
655.133	1048.41
655.329	1019.35
655.525	1023.03
655.722	1054.03
655.918	971.88
656.115	976.15
656.311	902.72
656.507	876.95
656.704	835.87
656.9	893.8
657.096	883.73
657.292	884.12
657.489	973.05
657.685	937.2
657.881	931.78
658.077	978.28
658.273	959.29
658.47	1055.58
658.666	992.81
658.862	996.1
659.058	1029.23
659.254	1002.3
659.45	983.7
659.646	1007.15
659.842	964.13
660.038	1007.53
660.234	988.93
660.43	981.77
660.626	1047.83
660.822	1033.3
661.018	1002.3
661.214	1005.02
661.41	937.79
661.606	997.85
661.802	1030.01
661.998	1002.69
662.194	941.85
662.39	1015.67
662.586	991.07
662.781	1015.28
662.977	1004.05
663.173	998.04
663.369	999.98
663.564	1005.21
663.76	1039.11
663.956	949.6
664.152	1019.16
664.347	916.86
664.543	945.34
664.739	976.15
664.934	905.43
665.13	904.46
665.326	939.14
665.521	946.7
665.717	900.97
665.912	886.25
666.108	844.79
666.304	911.82
666.499	892.45
666.695	849.63
666.89	917.05
667.086	929.65
667.281	918.22
667.477	963.94
667.672	932.75
667.867	890.7
668.063	890.7
668.258	834.52
668.454	881.79
668.649	964.91
668.844	900.78
669.04	912.79
669.235	859.9
669.43	859.12
669.626	816.89
669.821	848.27
670.016	830.64
670.211	862.61
670.407	825.61
670.602	873.65
670.797	854.28
670.992	911.05
671.187	845.56
671.382	911.63
671.578	843.43
671.773	886.05
671.968	810.49
672.163	835.29
672.358	853.12
672.553	833.16
672.748	855.44
672.943	905.24
673.138	866.29
673.333	884.12
673.528	806.62
673.723	856.41
673.918	844.79
674.113	823.67
674.308	932.36
674.503	848.08
674.698	862.22
674.892	840.72
675.087	833.16
675.282	882.76
675.477	833.16
675.672	846.14
675.867	837.81
676.061	787.05
676.256	783.37
676.451	802.36
676.646	830.26
676.84	815.34
677.035	787.63
677.23	808.36
677.424	882.76
677.619	849.63
677.814	869.59
678.008	879.66
678.203	802.55
678.397	801.19
678.592	838.78
678.787	894
678.981	830.84
679.176	828.12
679.37	818.44
679.565	814.76
679.759	836.65
679.954	830.06
680.148	879.85
680.342	892.25
680.537	828.71
680.731	796.35
680.926	857.96
681.12	846.72
681.314	829.09
681.509	812.62
681.703	843.43
681.897	840.33
682.092	829.09
682.286	810.11
682.48	890.9
682.674	850.99
682.869	831.61
683.063	848.86
683.257	883.54
683.451	858.35
683.645	878.3
683.839	841.3
684.034	855.44
684.228	884.89
684.422	809.33
684.616	848.27
684.81	863
685.004	851.37
685.198	857.96
685.392	880.05
685.586	819.6
685.78	861.64
685.974	910.66
686.168	908.53
686.362	919.96
686.556	828.71
686.75	789.76
686.944	785.5
687.138	762.25
687.331	645.23
687.525	671
687.719	614.42
687.913	688.43
688.107	693.86
688.301	689.01
688.494	746.94
688.688	691.73
688.882	688.24
689.076	707.23
689.269	728.93
689.463	780.66
689.657	736.09
689.85	740.36
690.044	773.87
690.238	794.61
690.431	791.7
690.625	800.22
690.818	840.91
691.012	876.95
691.205	897.68
691.399	869.59
691.593	919.38
691.786	943.21
691.98	989.32
692.173	1021.1
692.366	999.2
692.56	1018
692.753	1060.04
692.947	960.26
693.14	1071.66
693.333	1062.56
693.527	1018.19
693.72	1083.48
693.914	1117.97
694.107	1081.93
694.3	1112.93
694.493	1089.88
694.687	1199.34
694.88	1115.45
695.073	1213.68
695.266	1171.64
695.46	1192.76
695.653	1215.81
695.846	1268.71
696.039	1223.37
696.232	1240.22
696.425	1322.95
696.618	1320.24
696.812	1352.21
697.005	1438.43
697.198	1526.39
697.391	1491.13
697.584	1529.88
697.777	1565.14
697.97	1548.09
698.163	1535.88
698.356	1560.49
698.549	1650.58
698.742	1606.99
698.935	1526.97
699.127	1603.11
699.32	1594.59
699.513	1598.46
699.706	1617.45
699.899	1675.96
700.092	1614.35
700.285	1668.79
700.477	1599.04
700.67	1690.49
700.863	1728.47
701.056	1783.49
701.248	1779.62
701.441	1786.2
701.634	1805.39
701.826	1876.49
702.019	1792.4
702.212	1855.95
702.404	1820.11
702.597	1835.8
702.79	1856.92
702.982	1884.43
703.175	1956.12
703.367	1986.35
703.56	2025.68
703.752	2090.97
703.945	2051.64
704.137	2100.85
704.33	2113.25
704.522	2116.16
704.715	2164.2
704.907	2172.73
705.1	2229.89
705.292	2213.22
705.484	2215.94
705.677	2284.13
705.869	2297.5
706.061	2337.22
706.254	2340.71
706.446	2365.7
706.638	2305.25
706.831	2388.37
707.023	2388.56
707.215	2515.47
707.407	2490.48
707.599	2479.04
707.792	2553.64
707.984	2526.71
708.176	2560.22
708.368	2548.79
708.56	2590.45
708.752	2586.19
708.944	2572.24
709.136	2623.39
709.329	2620.67
709.521	2735.37
709.713	2669.11
709.905	2719.29
710.097	2772.57
710.289	2754.94
710.481	2733.24
710.672	2786.33
710.864	2830.7
711.056	2832.44
711.248	2846.78
711.44	2875.64
711.632	2866.34
711.824	2869.06
712.016	2931.83
712.207	2974.46
712.399	2947.72
712.591	3020.96
712.783	3007.78
712.975	2996.74
713.166	2976.39
713.358	3024.25
713.55	3042.46
713.741	3092.84
713.933	3066.87
714.125	3065.13
714.316	3046.34
714.508	3137.98
714.7	3123.06
714.891	3141.08
715.083	3177.89
715.274	3069.2
715.466	3118.41
715.657	3191.65
715.849	3098.45
716.04	3145.34
716.232	3025.41
716.423	3081.99
716.615	2997.9
716.806	2914.98
716.998	2859.18
717.189	2728.4
717.381	2650.7
717.572	2604.4
717.763	2635.59
717.955	2545.5
718.146	2491.83
718.337	2449.01
718.528	2415.11
718.72	2297.89
718.911	2359.11
719.102	2299.83
719.293	2378.68
719.485	2303.9
719.676	2276.19
719.867	2200.24
720.058	2247.52
720.249	2271.54
720.44	2293.82
720.632	2356.4
720.823	2426.54
721.014	2578.63
721.205	2618.15
721.396	2709.02
721.587	2833.21
721.778	2924.47
721.969	2972.13
722.16	3042.27
722.351	3071.33
722.542	3184.87
722.733	3183.7
722.924	3102.33
723.115	3166.07
723.305	3086.44
723.496	3112.79
723.687	2987.63
723.878	2977.75
724.069	2926.79
724.26	2978.33
724.45	2838.25
724.641	2843.48
724.832	2871.96
725.023	2849.49
725.213	2832.83
725.404	2804.73
725.595	2802.99
725.785	2808.03
725.976	2896.57
726.167	2858.4
726.357	2880.29
726.548	2976.97
726.739	2844.84
726.929	2971.55
727.12	2966.51
727.31	3032.19
727.501	2951.01
727.691	2924.28
727.882	2945.78
728.072	3042.65
728.263	3026.57
728.453	3105.24
728.644	3112.99
728.834	3038.97
729.024	3015.92
729.215	3014.56
729.405	3020.96
729.596	3141.08
729.786	3146.31
729.976	3135.07
730.167	3144.37
730.357	3150.96
730.547	3156.58
730.737	3188.74
730.928	3228.46
731.118	3282.9
731.308	3221.48
731.498	3187.19
731.688	3312.93
731.879	3333.08
732.069	3405.54
732.259	3456.5
732.449	3474.9
732.639	3566.93
732.829	3614.98
733.019	3644.24
733.209	3770.76
733.399	3765.14
733.589	3848.26
733.779	3831.4
733.969	3853.87
734.159	3978.07
734.349	3989.3
734.539	4056.15
734.729	4057.89
734.919	4083.08
735.109	4151.86
735.299	4030.96
735.488	4107.49
735.678	4111.36
735.868	4093.54
736.058	4062.35
736.248	4051.3
736.437	4043.17
736.627	4024.76
736.817	4167.55
737.007	4061.57
737.196	4154.96
737.386	4122.41
737.576	4095.48
737.765	4171.81
737.955	4151.28
738.144	4280.89
738.334	4240.59
738.524	4158.64
738.713	4203.39
738.903	4201.07
739.092	4231.29
739.282	4273.14
739.471	4292.32
739.661	4261.13
739.85	4325.65
740.04	4241.18
740.229	4370.21
740.419	4365.37
740.608	4391.72
740.797	4394.43
740.987	4421.55
741.176	4399.27
741.365	4329.33
741.555	4330.69
741.744	4420.97
741.933	4386.1
742.123	4437.25
742.312	4462.82
742.501	4459.33
742.69	4500.6
742.88	4387.84
743.069	4519.2
743.258	4545.75
743.447	4553.3
743.636	4574.03
743.825	4534.31
744.014	4547.68
744.204	4535.48
744.393	4487.62
744.582	4555.05
744.771	4606.97
744.96	4541.1
745.149	4592.44
745.338	4539.16
745.527	4617.24
745.716	4559.31
745.905	4520.37
746.094	4606.58
746.283	4605.61
746.471	4574.61
746.66	4645.14
746.849	4602.32
747.038	4625.18
747.227	4538.38
747.416	4613.94
747.604	4546.33
747.793	4585.66
747.982	4564.35
748.171	4610.46
748.359	4563.57
748.548	4612.39
748.737	4561.05
748.926	4605.42
749.114	4471.15
749.303	4571.32
749.491	4525.79
749.68	4446.55
749.869	4528.7
750.057	4529.47
750.246	4505.83
750.434	4481.42
750.623	4505.64
750.811	4513.58
751	4552.33
751.188	4541.87
751.377	4457.4
751.565	4457.59
751.754	4470.96
751.942	4442.09
752.131	4495.95
752.319	4458.17
752.507	4420.78
752.696	4453.33
752.884	4466.7
753.072	4456.43
753.261	4469.41
753.449	4490.33
753.637	4418.65
753.825	4531.41
754.014	4426.2
754.202	4409.35
754.39	4475.8
754.578	4471.54
754.766	4370.99
754.955	4328.94
755.143	4472.32
755.331	4373.7
755.519	4377.38
755.707	4384.94
755.895	4358
756.083	4344.64
756.271	4314.99
756.459	4375.44
756.647	4377.77
756.835	4335.92
757.023	4319.64
757.211	4337.47
757.399	4292.71
757.587	4262.68
757.775	4234.98
757.963	4270.43
758.151	4273.34
758.339	4184.02
758.526	4197
758.714	4225.09
758.902	4058.86
759.09	4012.36
759.278	3711.66
759.465	3426.08
759.653	2999.06
759.841	2695.46
760.028	2311.45
760.216	2014.63
760.404	1824.37
760.591	1531.62
760.779	1286.92
760.967	1117.39
761.154	984.48
761.342	954.25
761.529	953.67
761.717	968.2
761.905	974.98
762.092	1043.57
762.28	953.28
762.467	954.45
762.655	875.79
762.842	916.09
763.029	903.88
763.217	919.57
763.404	894.97
763.592	936.82
763.779	886.05
763.966	944.37
764.154	956
764.341	1058.3
764.528	1092.2
764.716	1141.61
764.903	1195.66
765.09	1267.93
765.277	1347.95
765.465	1544.6
765.652	1622.88
765.839	1707.54
766.026	1868.93
766.213	1978.01
766.4	2072.76
766.588	2312.42
766.775	2329.47
766.962	2463.16
767.149	2588.12
767.336	2797.95
767.523	2752.81
767.71	2923.5
767.897	3069.78
768.084	3176.34
768.271	3221.29
768.458	3288.33
768.645	3407.67
768.832	3410.97
769.019	3395.66
769.206	3489.44
769.392	3562.67
769.579	3647.15
769.766	3647.34
769.953	3654.7
770.14	3705.08
770.327	3672.33
770.513	3766.88
770.7	3792.84
770.887	3722.13
771.073	3790.13
771.26	3787.42
771.447	3746.15
771.634	3740.14
771.82	3867.24
772.007	3707.6
772.193	3760.49
772.38	3834.69
772.567	3788
772.753	3788
772.94	3835.08
773.126	3801.18
773.313	3777.15
773.499	3811.06
773.686	3811.64
773.872	3784.71
774.059	3795.17
774.245	3760.29
774.432	3778.51
774.618	3687.83
774.804	3715.73
774.991	3683.18
775.177	3717.09
775.363	3702.75
775.55	3758.94
775.736	3678.34
775.922	3688.41
776.109	3691.71
776.295	3736.27
776.481	3753.13
776.667	3757.58
776.853	3683.38
777.04	3690.35
777.226	3680.66
777.412	3735.3
777.598	3673.69
777.784	3685.7
777.97	3628.55
778.156	3643.08
778.342	3645.98
778.528	3622.93
778.715	3586.5
778.901	3557.44
779.087	3626.03
779.272	3564.61
779.458	3564.61
779.644	3613.82
779.83	3595.8
780.016	3653.54
780.202	3570.42
780.388	3605.68
780.574	3462.89
780.76	3541.17
780.946	3593.67
781.131	3526.44
781.317	3523.15
781.503	3462.12
781.689	3518.3
781.874	3657.03
782.06	3453.01
782.246	3503.58
782.432	3525.47
782.617	3499.9
782.803	3526.05
782.989	3459.6
783.174	3424.92
783.36	3391.01
783.545	3430.15
783.731	3464.25
783.916	3344.9
784.102	3398.76
784.288	3390.04
784.473	3406.9
784.659	3358.66
784.844	3435.19
785.029	3365.63
785.215	3380.74
785.4	3283.68
785.586	3432.47
785.771	3276.12
785.956	3342.58
786.142	3308.09
786.327	3298.6
786.512	3276.31
786.698	3272.63
786.883	3188.55
787.068	3184.28
787.254	3258.88
787.439	3203.85
787.624	3193.97
787.809	3165.49
787.994	3193.97
788.18	3248.22
788.365	3139.92
788.55	3138.95
788.735	3120.93
788.92	3132.94
789.105	3076.37
789.29	3106.4
789.475	3058.35
789.66	3068.23
789.845	3053.31
790.03	3042.46
790.215	3083.92
790.4	3064.16
790.585	3082.76
790.77	3062.03
790.955	2972.32
791.14	3041.1
791.325	3094.19
791.51	2938.03
791.695	3011.07
791.879	3001.39
792.064	2962.83
792.249	3079.27
792.434	3020.37
792.618	3033.94
792.803	3074.43
792.988	2990.54
793.173	3021.34
793.357	3061.25
793.542	2979.49
793.727	3028.9
793.911	3062.22
794.096	3057.96
794.281	3118.22
794.465	3156.77
794.65	3043.62
794.834	3084.12
795.019	3089.35
795.203	3125.97
795.388	3116.47
795.572	3126.35
795.757	3122.87
795.941	3093.8
796.126	3076.56
796.31	2997.12
796.494	3032.39
796.679	3041.49
796.863	2980.27
797.048	3110.27
797.232	3060.48
797.416	3101.36
797.601	3024.83
797.785	3125.97
797.969	3119.77
798.153	3032.19
798.338	3086.05
798.522	3148.25
798.706	3162.2
798.89	3169.56
799.074	3210.63
799.258	3182.15
799.443	3088.38
799.627	3161.23
799.811	3147.86
799.995	3110.85
800.179	3045.37
800.363	3115.89
800.547	3123.25
800.731	3124.42
800.915	3060.87
801.099	3049.44
801.283	3071.14
801.467	3075.59
801.651	3072.49
801.835	3122.29
802.019	3068.62
802.202	3077.72
802.386	3057.19
802.57	3001.58
802.754	3019.79
802.938	3022.12
803.121	3042.46
803.305	3074.43
803.489	3072.88
803.673	3062.03
803.856	3067.07
804.04	3007.97
804.224	3074.24
804.407	3044.98
804.591	2994.8
804.775	3020.37
804.958	3056.41
805.142	3139.92
805.326	3085.67
805.509	3062.22
805.693	3105.04
805.876	3104.85
806.06	3084.7
806.243	3128.29
806.427	3140.88
806.61	3157.55
806.794	3131
806.977	3123.64
807.16	3118.22
807.344	3107.95
807.527	3107.56
807.71	3088.77
807.894	3075.4
808.077	3108.92
808.26	3099.23
808.444	3071.52
808.627	3157.16
808.81	3025.8
808.993	2969.42
809.177	2989.96
809.36	2962.83
809.543	2976.97
809.726	2951.79
809.909	2924.86
810.092	2903.74
810.276	2889.01
810.459	2851.81
810.642	2874.29
810.825	2799.5
811.008	2833.02
811.191	2743.51
811.374	2759.01
811.557	2748.93
811.74	2839.8
811.923	2667.37
812.106	2678.8
812.289	2643.73
812.472	2618.15
812.654	2657.87
812.837	2569.91
813.02	2512.18
813.203	2511.4
813.386	2378.49
813.569	2395.93
813.751	2304.48
813.934	2329.08
814.117	2268.25
814.3	2236.86
814.482	2169.63
814.665	2117.12
814.848	2069.08
815.03	2063.84
815.213	2039.82
815.396	2012.31
815.578	2006.3
815.761	1964.26
815.943	1973.95
816.126	1928.8
816.309	1898.97
816.491	1829.6
816.674	1749.78
816.856	1791.05
817.039	1811.59
817.221	1859.83
817.403	1823.79
817.586	1852.85
817.768	1836.19
817.951	1752.3
818.133	1743
818.315	1770.12
818.498	1830.18
818.68	1879.59
818.862	1854.02
819.045	1882.3
819.227	1857.7
819.409	1861.57
819.591	1864.67
819.774	1848.2
819.956	1839.68
820.138	1890.05
820.32	1929.38
820.502	2015.02
820.684	2079.15
820.866	2080.89
821.048	2143.28
821.231	2165.56
821.413	2186.29
821.595	2127.39
821.777	2136.89
821.959	2123.52
822.141	2202.18
822.323	2030.91
822.505	2001.65
822.686	1875.13
822.868	1794.92
823.05	1674.8
823.232	1641.09
823.414	1529.88
823.596	1670.92
823.778	1638.76
823.96	1658.14
824.141	1683.32
824.323	1706.19
824.505	1781.75
824.687	1864.87
824.868	1936.16
825.05	2003.98
825.232	2069.85
825.413	2118.67
825.595	2107.05
825.777	2026.84
825.958	2036.91
826.14	2047.76
826.321	2107.63
826.503	2023.16
826.685	2090.77
826.866	2175.25
827.048	2113.06
827.229	2046.21
827.411	1982.66
827.592	1983.83
827.773	1899.74
827.955	1873.39
828.136	1898.58
828.318	1866.42
828.499	1884.63
828.68	1822.82
828.862	1849.56
829.043	1882.88
829.224	1834.25
829.406	1808.68
829.587	1804.42
829.768	1875.33
829.949	1849.37
830.131	1820.69
830.312	1883.66
830.493	1833.67
830.674	1908.26
830.855	1823.6
831.036	1856.34
831.218	1924.54
831.399	1978.01
831.58	1884.82
831.761	1873.78
831.942	1891.6
832.123	1905.55
832.304	1811
832.485	1862.15
832.666	1883.27
832.847	1906.91
833.028	1880.56
833.209	1878.23
833.389	1837.16
833.57	1776.71
833.751	1820.69
833.932	1849.37
834.113	1850.92
834.294	1820.88
834.475	1908.85
834.655	1933.84
834.836	1943.14
835.017	1915.82
835.198	1892.77
835.378	1879.4
835.559	1948.37
835.74	1908.65
835.92	1922.6
836.101	1895.28
836.281	1964.45
836.462	1929.96
836.643	1996.42
836.823	1997.58
837.004	1987.9
837.184	2001.26
837.365	1997
837.545	1957.09
837.726	1969.68
837.906	2005.33
838.087	1941.78
838.267	1983.25
838.448	1944.11
838.628	1952.05
838.808	1966.2
838.989	1990.03
839.169	1954.38
839.349	1976.27
839.53	2021.41
839.71	2052.03
839.89	1936.36
840.07	2036.14
840.251	1981.11
840.431	2001.26
840.611	1966
840.791	1962.71
840.971	1981.31
841.151	1950.31
841.332	1954.57
841.512	2012.69
841.692	1914.66
841.872	1965.03
842.052	1956.9
842.232	1992.35
842.412	1927.25
842.592	1958.06
842.772	1982.66
842.952	1983.63
843.132	1941.2
843.312	1938.88
843.492	1922.99
843.672	1979.95
843.851	1873.78
844.031	1923.76
844.211	1954.38
844.391	1875.13
844.571	1919.5
844.751	1916.98
844.93	1918.53
845.11	1882.88
845.29	1919.89
845.47	1954.76
845.649	1913.69
845.829	1926.86
846.009	1905.16
846.188	1929.77
846.368	1908.07
846.547	1925.31
846.727	1919.89
846.907	1880.56
847.086	1936.36
847.266	1972.59
847.445	1901.1
847.625	1888.12
847.804	1863.7
847.984	1876.1
848.163	1826.89
848.343	1848.4
848.522	1852.47
848.701	1882.88
848.881	1833.48
849.06	1893.73
849.239	1833.67
849.419	1891.8
849.598	1796.47
849.777	1767.22
849.957	1748.23
850.136	1706.57
850.315	1659.3
850.494	1698.63
850.674	1661.62
850.853	1783.1
851.032	1715.1
851.211	1744.35
851.39	1754.82
851.569	1706.19
851.748	1649.81
851.927	1737.57
852.107	1739.32
852.286	1657.75
852.465	1660.27
852.644	1757.34
852.823	1728.66
853.002	1720.14
853.181	1752.49
853.359	1731.76
853.538	1642.83
853.717	1724.79
853.896	1625.59
854.075	1555.64
854.254	1507.01
854.433	1455.28
854.611	1498.3
854.79	1460.9
854.969	1508.18
855.148	1511.66
855.327	1495.2
855.505	1579.28
855.684	1560.29
855.863	1552.74
856.041	1551.96
856.22	1594.59
856.399	1532.59
856.577	1684.49
856.756	1640.89
856.934	1716.65
857.113	1761.21
857.291	1693.59
857.47	1629.08
857.648	1663.17
857.827	1678.09
858.005	1682.36
858.184	1616.87
858.362	1721.69
858.541	1599.82
858.719	1643.22
858.898	1639.92
859.076	1633.73
859.254	1695.34
859.433	1586.84
859.611	1587.23
859.789	1566.69
859.967	1689.91
860.146	1692.24
860.324	1543.63
860.502	1614.93
860.68	1544.6
860.859	1571.92
861.037	1582.38
861.215	1577.73
861.393	1598.66
861.571	1588.97
861.749	1562.62
861.927	1622.49
862.105	1562.81
862.283	1543.05
862.461	1561.46
862.639	1494.42
862.817	1554.09
862.995	1570.18
863.173	1518.64
863.351	1558.36
863.529	1568.82
863.707	1571.53
863.885	1555.26
864.063	1472.72
864.241	1482.6
864.418	1549.64
864.596	1505.66
864.774	1506.43
864.952	1502.56
865.129	1547.7
865.307	1493.26
865.485	1439.4
865.663	1501.4
865.84	1439.59
866.018	1435.33
866.196	1318.69
866.373	1334.97
866.551	1307.84
866.728	1246.23
866.906	1310.55
867.084	1322.18
867.261	1365
867.439	1404.72
867.616	1424.09
867.794	1382.82
867.971	1397.16
868.149	1389.6
868.326	1422.15
868.503	1413.82
868.681	1420.22
868.858	1391.93
869.035	1356.28
869.213	1435.91
869.39	1387.47
869.567	1474.08
869.745	1378.75
869.922	1389.22
870.099	1438.43
870.276	1458
870.454	1436.3
870.631	1405.3
870.808	1360.35
870.985	1426.61
871.162	1496.55
871.339	1399.48
871.517	1377.01
871.694	1341.36
871.871	1385.34
872.048	1360.35
872.225	1367.13
872.402	1382.43
872.579	1323.54
872.756	1391.35
872.933	1324.89
873.11	1360.93
873.287	1376.04
873.463	1330.12
873.64	1326.05
873.817	1366.35
873.994	1350.66
874.171	1311.33
874.348	1360.54
874.524	1293.89
874.701	1322.76
874.878	1265.8
875.055	1317.14
875.231	1312.3
875.408	1346.79
875.585	1250.88
875.762	1298.54
875.938	1308.81
876.115	1278.78
876.291	1266.77
876.468	1227.44
876.645	1223.37
876.821	1253.98
876.998	1243.52
877.174	1284.59
877.351	1274.52
877.527	1232.86
877.704	1274.71
877.88	1245.65
878.057	1253.01
878.233	1312.69
878.409	1250.88
878.586	1290.4
878.762	1237.32
878.938	1246.81
879.115	1162.34
879.291	1206.12
879.467	1118.55
879.644	1199.73
879.82	1254.17
879.996	1178.23
880.172	1170.09
880.349	1204.57
880.525	1217.36
880.701	1168.15
880.877	1162.92
881.053	1173.19
881.229	1172.03
881.405	1209.81
881.581	1147.81
881.757	1175.32
881.933	1187.53
882.109	1194.5
882.285	1176.87
882.461	1134.24
882.637	1198.96
882.813	1140.06
882.989	1150.52
883.165	1212.91
883.341	1163.11
883.517	1225.31
883.693	1180.16
883.869	1193.34
884.044	1141.61
884.22	1180.55
884.396	1246.81
884.572	1209.61
884.747	1201.28
884.923	1207.29
885.099	1214.26
885.275	1192.18
885.45	1172.99
885.626	1173.77
885.801	1161.37
885.977	1173.38
886.153	1130.95
886.328	1172.61
886.504	1094.72
886.679	1172.03
886.855	1129.4
887.03	1171.25
887.206	1193.92
887.381	1176.68
887.557	1169.89
887.732	1176.68
887.908	1190.63
888.083	1189.46
888.258	1183.65
888.434	1178.81
888.609	1200.51
888.784	1191.01
888.96	1140.64
889.135	1146.64
889.31	1133.86
889.485	1159.82
889.661	1148.58
889.836	1201.09
890.011	1192.76
890.186	1160.79
890.361	1143.74
890.537	1166.99
890.712	1155.94
890.887	1202.06
891.062	1145.48
891.237	1193.34
891.412	1125.72
891.587	1167.96
891.762	1181.71
891.937	1214.84
892.112	1092.98
892.287	1148.19
892.462	1096.66
892.637	1053.84
892.812	1055.97
892.987	1057.33
893.161	1037.37
893.336	1044.35
893.511	1084.84
893.686	1071.47
893.861	1029.43
894.035	1043.18
894.21	1023.62
894.385	992.81
894.56	1021.87
894.734	963.75
894.909	940.5
895.084	938.17
895.258	929.84
895.433	926.74
895.608	896.13
895.782	853.89
895.957	860.67
896.131	869.97
896.306	820.57
896.48	817.08
896.655	800.42
896.829	734.35
897.004	745.2
897.178	768.26
897.353	748.49
897.527	782.59
897.701	764.96
897.876	715.36
898.05	817.27
898.224	798.29
898.399	807.78
898.573	733.19
898.747	679.52
898.921	676.81
899.096	560.37
899.27	615.78
899.444	604.54
899.618	665.96
899.792	634.76
899.967	665.76
900.141	710.13
900.315	651.43
900.489	636.7
900.663	651.04
900.837	640.58
901.011	589.23
901.185	704.13
901.359	649.49
901.533	669.64
901.707	663.05
901.881	647.55
902.055	610.16
902.229	645.23
902.403	710.91
902.576	649.88
902.75	650.07
902.924	777.17
903.098	730.48
903.272	762.64
903.446	828.12
903.619	801.97
903.793	870.94
903.967	811.27
904.14	858.15
904.314	820.57
904.488	847.11
904.661	860.09
904.835	857.19
905.009	878.69
905.182	903.1
905.356	868.42
905.529	849.24
905.703	843.82
905.876	805.65
906.05	784.92
906.223	760.31
906.397	713.81
906.57	682.81
906.744	679.91
906.917	644.26
907.09	648.71
907.264	620.04
907.437	647.55
907.61	594.08
907.784	628.95
907.957	614.42
908.13	548.16
908.304	632.44
908.477	570.25
908.65	562.3
908.823	558.43
908.996	622.56
909.17	545.45
909.343	581.48
909.516	590.4
909.689	562.5
909.862	546.61
910.035	559.98
910.208	547
910.381	521.62
910.554	607.64
910.727	571.6
910.9	567.53
911.073	553.39
911.246	618.49
911.419	606.67
911.592	627.98
911.765	550.68
911.938	544.48
912.11	578.77
912.283	580.71
912.456	598.34
912.629	587.3
912.802	535.76
912.974	494.1
913.147	479.38
913.32	391.22
913.493	482.29
913.665	471.05
913.838	477.05
914.01	480.74
914.183	491.78
914.356	488.87
914.528	562.69
914.701	590.2
914.873	502.05
915.046	513.28
915.218	441.21
915.391	389.09
915.563	409.44
915.736	455.74
915.908	485.39
916.081	470.08
916.253	471.05
916.425	476.86
916.598	532.27
916.77	471.82
916.942	462.33
917.115	396.65
917.287	449.15
917.459	437.14
917.632	417.38
917.804	374.17
917.976	438.69
918.148	457.68
918.32	495.27
918.493	485.39
918.665	532.27
918.837	498.37
919.009	532.85
919.181	568.12
919.353	529.95
919.525	518.52
919.697	528.59
919.869	545.64
920.041	603.38
920.213	641.55
920.385	588.65
920.557	541.57
920.729	561.92
920.901	556.3
921.073	541.77
921.244	524.52
921.416	554.55
921.588	540.22
921.76	502.05
921.932	575.67
922.103	537.12
922.275	527.82
922.447	515.42
922.619	495.46
922.79	527.43
922.962	512.32
923.134	535.95
923.305	480.35
923.477	443.92
923.648	449.15
923.82	484.61
923.991	427.45
924.163	431.91
924.335	473.95
924.506	438.69
924.677	496.82
924.849	446.83
925.02	434.82
925.192	464.27
925.363	447.8
925.535	466.01
925.706	444.89
925.877	486.55
926.049	418.93
926.22	447.22
926.391	445.28
926.562	455.94
926.734	436.95
926.905	465.43
927.076	413.51
927.247	406.53
927.419	391.22
927.59	340.85
927.761	377.08
927.932	343.76
928.103	352.67
928.274	324.58
928.445	310.04
928.616	305.2
928.787	313.73
928.958	344.34
929.129	315.08
929.3	277.11
929.471	265.68
929.642	214.91
929.813	189.15
929.984	257.54
930.155	170.55
930.326	206.97
930.496	218.21
930.667	152.14
930.838	175.97
931.009	151.17
931.18	138
931.35	147.3
931.521	169.96
931.692	112.81
931.863	84.13
932.033	106.22
932.204	130.44
932.374	150.01
932.545	58.75
932.716	144.97
932.886	127.15
933.057	40.35
933.227	68.05
933.398	124.43
933.568	35.89
933.739	36.67
933.909	63.21
934.08	66.89
934.25	-0.34
934.421	29.5
934.591	51.39
934.761	65.34
934.932	15.55
935.102	58.37
935.272	32.21
935.443	59.92
935.613	20.39
935.783	77.16
935.953	39.19
936.123	162.21
936.294	15.55
936.464	9.74
936.634	39.38
936.804	-4.99
936.974	23.69
937.144	69.99
937.314	57.4
937.484	25.82
937.655	9.93
937.825	50.23
937.995	22.91
938.165	51.78
938.334	50.23
938.504	81.42
938.674	52.55
938.844	78.9
939.014	132.96
939.184	92.27
939.354	157.95
939.524	137.03
939.694	88.78
939.863	91.3
940.033	140.9
940.203	132.38
940.373	82.78
940.542	142.45
940.712	110.29
940.882	119.2
941.051	117.65
941.221	108.93
941.391	143.23
941.56	86.46
941.73	74.06
941.899	185.85
942.069	54.1
942.238	112.62
942.408	47.52
942.577	136.25
942.747	87.04
942.916	52.36
943.086	67.28
943.255	86.07
943.425	101.38
943.594	85.49
943.763	67.67
943.933	39.57
944.102	0.63
944.271	51.78
944.441	84.72
944.61	53.33
944.779	75.03
944.948	165.51
945.117	30.47
945.287	60.11
945.456	27.37
945.625	26.2
945.794	78.71
945.963	42.29
946.132	75.8
946.301	69.6
946.47	86.65
946.639	26.01
946.808	25.82
946.977	79.87
947.146	105.06
947.315	64.57
947.484	104.67
947.653	77.16
947.822	40.15
947.991	27.75
948.16	143.03
948.329	99.05
948.498	81.62
948.666	66.7
948.835	100.99
949.004	31.44
949.173	28.72
949.341	110.68
949.51	66.89
949.679	89.17
949.847	95.18
950.016	136.45
950.185	136.83
950.353	50.42
950.522	73.87
950.69	119.01
950.859	71.93
951.028	113
951.196	102.54
951.365	54.49
951.533	70.77
951.701	97.31
951.87	107.97
952.038	47.52
952.207	61.08
952.375	116.88
952.543	53.72
952.712	83.75
952.88	20
953.048	123.85
953.217	96.53
953.385	80.45
953.553	116.1
953.721	50.42
953.89	64.18
954.058	24.46
954.226	69.41
954.394	71.15
954.562	8.57
954.73	47.52
954.898	64.76
955.067	106.03
955.235	57.2
955.403	78.32
955.571	140.9
955.739	104.87
955.907	50.81
956.075	63.02
956.243	68.05
956.41	65.92
956.578	33.57
956.746	61.47
956.914	57.2
957.082	122.69
957.25	79.29
957.418	39.77
957.585	95.57
957.753	132.18
957.921	81.62
958.089	77.35
958.256	102.93
958.424	88.78
958.592	81.03
958.759	44.22
958.927	100.99
959.095	56.04
959.262	64.95
959.43	86.27
959.597	46.74
959.765	71.15
959.932	62.63
960.1	97.5
960.267	98.28
960.435	61.47
960.602	109.32
960.77	62.63
960.937	47.13
961.104	83.55
961.272	14.58
961.439	55.85
961.606	94.02
961.774	103.7
961.941	72.9
962.108	88.78
962.275	101.57
962.443	109.71
962.61	89.56
962.777	172.48
962.944	99.25
963.111	119.2
963.278	109.13
963.446	98.28
963.613	75.03
963.78	80.07
963.947	97.5
964.114	109.9
964.281	161.63
964.448	100.22
964.615	59.14
964.782	76
964.949	133.15
965.116	122.11
965.282	123.85
965.449	113
965.616	52.94
965.783	108.93
965.95	95.37
966.117	69.6
966.283	90.92
966.45	104.87
966.617	121.14
966.784	142.65
966.95	97.31
967.117	123.27
967.284	98.28
967.45	97.12
967.617	161.44
967.784	152.14
967.95	177.91
968.117	136.64
968.283	163.76
968.45	197.48
968.616	150.59
968.783	162.02
968.949	134.9
969.116	161.83
969.282	141.87
969.449	159.31
969.615	124.43
969.781	100.99
969.948	94.6
970.114	92.27
970.28	179.26
970.447	127.53
970.613	183.33
970.779	151.17
970.945	160.47
971.112	125.21
971.278	138
971.444	144.39
971.61	170.55
971.776	106.42
971.942	153.69
972.108	141.87
972.275	114.55
972.441	122.11
972.607	185.27
972.773	107.97
972.939	137.8
973.105	154.08
973.271	75.61
973.437	120.56
973.602	104.09
973.768	108.35
973.934	106.42
974.1	111.84
974.266	60.3
974.432	137.61
974.598	129.67
974.763	149.43
974.929	101.38
975.095	160.86
975.261	79.29
975.426	70.96
975.592	111.07
975.758	151.37
975.923	68.44
976.089	91.88
976.255	148.65
976.42	123.47
976.586	136.06
976.751	115.91
976.917	201.16
977.082	119.4
977.248	82.39
977.413	55.85
977.579	102.35
977.744	100.22
977.91	83.55
978.075	82.2
978.24	113.39
978.406	109.13
978.571	87.62
978.736	86.46
978.902	131.99
979.067	71.35
979.232	51.97
979.397	118.82
979.563	142.26
979.728	91.5
979.893	107.19
980.058	92.85
980.223	141.29
980.388	89.95
980.554	87.23
980.719	76.19
980.884	110.48
981.049	151.37
981.214	101.77
981.379	115.72
981.544	84.13
981.709	92.47
981.874	78.52
982.039	112.62
982.204	119.2
982.368	128.7
982.533	76.19
982.698	144
982.863	137.03
983.028	121.53
983.193	99.05
983.357	122.69
983.522	104.09
983.687	129.47
983.852	79.87
984.016	84.13
984.181	121.72
984.346	121.14
984.51	127.34
984.675	108.55
984.839	119.59
985.004	122.5
985.168	138.38
985.333	121.53
985.498	113
985.662	134.12
985.827	107.58
985.991	103.12
986.155	123.47
986.32	125.79
986.484	160.47
986.649	124.63
986.813	46.74
986.977	118.04
987.142	119.2
987.306	77.16
987.47	76.77
987.634	89.56
987.799	136.64
987.963	138.38
988.127	127.53
988.291	184.3
988.455	100.6
988.62	89.17
988.784	126.57
988.948	131.6
989.112	94.6
989.276	103.7
989.44	112.23
989.604	104.67
989.768	88.01
989.932	180.04
990.096	85.49
990.26	68.44
990.424	60.69
990.588	100.02
990.752	172.68
990.915	141.48
991.079	102.73
991.243	81.42
991.407	129.86
991.571	75.8
991.734	114.17
991.898	100.6
992.062	184.5
992.226	79.68
992.389	77.74
992.553	64.57
992.717	68.05
992.88	81.62
993.044	116.88
993.207	92.08
993.371	114.36
993.535	102.54
993.698	92.66
993.862	116.3
994.025	111.45
994.189	122.88
994.352	121.14
994.515	110.87
994.679	134.7
994.842	89.95
995.006	123.85
995.169	75.61
995.332	69.02
995.496	113.97
995.659	47.71
995.822	78.52
995.985	87.43
996.149	123.27
996.312	107.58
996.475	146.33
996.638	61.08
996.801	152.91
996.964	155.43
997.128	95.18
997.291	65.53
997.454	97.12
997.617	31.63
997.78	121.14
997.943	79.87
998.106	116.3
998.269	46.55
998.432	81.03
998.595	85.68
998.758	62.44
998.92	55.27
999.083	43.45
999.246	80.45
999.409	54.3
999.572	29.5
999.735	63.02
999.897	86.27
1000.06	79.68
1000.223	57.79
1000.386	120.75
1000.548	63.21
1000.711	124.63
1000.874	117.46
1001.036	22.52
1001.199	125.4
1001.361	57.79
1001.524	84.52
1001.687	108.16
1001.849	30.27
1002.012	64.95
1002.174	73.87
1002.337	103.32
1002.499	67.86
1002.661	135.87
1002.824	43.06
1002.986	53.52
1003.149	66.89
1003.311	56.04
1003.473	121.72
1003.636	33.76
1003.798	75.61
1003.96	101.38
1004.123	38.41
1004.285	48.49
1004.447	40.74
1004.609	71.54
1004.771	130.05
1004.933	29.3
1005.096	46.35
1005.258	35.7
1005.42	29.3
1005.582	76.77
1005.744	51.59
1005.906	-3.44
1006.068	74.45
1006.23	31.63
1006.392	16.32
1006.554	37.44
1006.716	113.78
1006.878	83.36
1007.04	15.35
1007.202	31.44
1007.363	36.86
1007.525	69.02
1007.687	50.23
1007.849	86.65
1008.011	-5.38
1008.172	41.51
1008.334	32.6
1008.496	62.44
1008.658	-0.53
1008.819	28.34
1008.981	26.2
1009.143	29.11
1009.304	57.59
1009.466	88.4
1009.627	118.43
1009.789	150.01
1009.95	89.75
1010.112	47.71
1010.273	81.23
1010.435	42.09
1010.596	50.62
1010.758	48.49
1010.919	51.78
1011.081	29.89
1011.242	56.62
1011.403	61.66
1011.565	33.57
1011.726	62.44
1011.887	7.41
1012.049	44.03
1012.21	107.77
1012.371	106.8
1012.532	-5.76
1012.693	64.37
1012.855	6.25
1013.016	54.3
1013.177	87.23
1013.338	52.75
1013.499	112.42
1013.66	85.68
1013.821	79.1
1013.982	49.84
1014.143	39.57
1014.304	32.6
1014.465	82
1014.626	54.69
1014.787	32.79
1014.948	116.68
1015.109	-17.78
1015.27	81.23
1015.431	35.12
1015.592	14.58
1015.752	97.5
1015.913	50.81
1016.074	37.64
1016.235	34.34
1016.395	19.04
1016.556	48.68
1016.717	31.24
1016.877	103.32
1017.038	35.89
1017.199	41.32
1017.359	56.04
1017.52	62.44
1017.681	31.24
1017.841	22.72
1018.002	22.33
1018.162	15.35
1018.323	76
1018.483	29.5
1018.644	37.83
1018.804	12.25
1018.964	4.31
1019.125	14.77
1019.285	73.87
1019.446	6.25
1019.606	30.27
1019.766	-8.67
1019.926	38.22
1020.087	47.32
1020.247	-24.17
1020.407	56.62
1020.567	47.52
1020.728	16.13
1020.888	5.67
1021.048	31.05
1021.208	-9.45
1021.368	25.82
1021.528	56.62
1021.688	47.52
1021.848	51.2
1022.008	46.55
1022.168	41.7
1022.328	31.82
1022.488	47.52
1022.648	17.87
1022.808	56.82
1022.968	40.54
1023.128	19.23
1023.288	4.89
1023.448	39.96
1023.608	63.79
1023.767	37.83
1023.927	24.85
1024.087	8.57
1024.247	10.7
1024.406	9.35
1024.566	-13.9
1024.726	3.73
1024.885	28.92
1025.045	56.82
1025.205	24.27
1025.364	8.57
1025.524	31.24
1025.683	25.43
1025.843	48.29
1026.003	31.82
1026.162	63.99
1026.321	50.42
1026.481	8.77
1026.64	12.45
1026.8	36.67
1026.959	46.55
1027.119	16.52
1027.278	4.5
1027.437	9.54
1027.597	7.41
1027.756	47.52
1027.915	40.54
1028.074	51.78
1028.234	25.43
1028.393	29.89
1028.552	36.86
1028.711	-49.74
1028.87	52.36
1029.03	-7.9
1029.189	46.35
1029.348	-41.41
1029.507	-3.44
1029.666	9.35
1029.825	-1.89
1029.984	-12.74
1030.143	37.44
1030.302	-0.73
1030.461	-35.21
1030.62	33.76
1030.779	38.6
1030.938	-16.23
1031.097	-35.6
1031.255	50.23
1031.414	59.14
1031.573	55.85
1031.732	-38.89
1031.891	-1.11
1032.049	84.91
1032.208	33.95
1032.367	-22.62
1032.525	14.77
1032.684	-9.45
1032.843	39.77
1033.001	-29.79
1033.16	144.97
1033.319	32.79
1033.477	28.92
1033.636	-14.29
1033.794	-31.14
1033.953	68.05
1034.111	27.56
1034.27	-11.19
1034.428	23.49
1034.587	-13.71
1034.745	2.18
1034.903	15.94
1035.062	37.44
1035.22	-26.88
1035.378	31.05
1035.537	-26.88
1035.695	57.98
1035.853	24.07
1036.011	66.89
1036.17	62.24
1036.328	-31.14
1036.486	44.03
1036.644	17.1
1036.802	-45.87
1036.96	-3.44
1037.119	21.17
1037.277	-1.7
1037.435	-39.28
1037.593	-8.28
1037.751	26.79
1037.909	36.28
1038.067	36.28
