Data from gum_young_FLMT105791__83__17-39-41-042.txt Node

Date: Mon Mar 20 17:39:41 GMT 2023
User: antho
Spectrometer: FLMT10579
Trigger mode: 0
Integration Time (sec): 1.000000E-1
Scans to average: 10
Electric dark correction enabled: true
Nonlinearity correction enabled: false
Boxcar width: 0
XAxis mode: Wavelengths
Number of Pixels in Spectrum: 3648
>>>>>Begin Spectral Data<<<<<
345.248	-142.24
345.464	-142.24
345.681	-142.24
345.898	-136.43
346.114	-143.02
346.331	-42.66
346.548	18.57
346.764	7.14
346.981	-0.03
347.197	-9.72
347.414	6.17
347.631	-21.34
347.847	56.15
348.064	-14.56
348.28	24.19
348.497	-27.54
348.713	3.65
348.93	17.4
349.146	31.55
349.363	-2.94
349.579	32.9
349.796	18.95
350.012	-19.21
350.229	18.76
350.445	27.29
350.661	-40.33
350.878	12.37
351.094	15.27
351.311	37.36
351.527	20.5
351.743	-8.75
351.96	29.61
352.176	42.98
352.392	36.59
352.609	66.81
352.825	11.21
353.041	7.72
353.257	-12.24
353.474	10.24
353.69	-12.43
353.906	28.25
354.122	2.1
354.339	61.77
354.555	25.15
354.771	-5.26
354.987	69.72
355.203	81.73
355.42	6.17
355.636	-11.66
355.852	-4.49
356.068	5.01
356.284	-34.33
356.5	79.21
356.716	12.17
356.932	36.59
357.148	52.47
357.364	-19.21
357.58	40.85
357.796	51.12
358.012	53.25
358.228	40.65
358.444	-36.65
358.66	59.25
358.876	38.52
359.092	15.08
359.308	38.14
359.524	28.06
359.74	2.29
359.956	9.46
360.172	19.34
360.388	72.24
360.604	6.56
360.819	104.4
361.035	40.65
361.251	35.04
361.467	2.68
361.683	73.01
361.898	54.02
362.114	51.7
362.33	10.24
362.546	66.23
362.762	11.79
362.977	31.35
363.193	-13.98
363.409	52.28
363.624	23.22
363.84	-7.01
364.056	11.98
364.271	38.52
364.487	53.25
364.703	36.59
364.918	-15.53
365.134	14.31
365.35	14.31
365.565	104.59
365.781	24.77
365.996	24.77
366.212	85.22
366.427	53.83
366.643	5.59
366.858	-3.91
367.074	-5.65
367.289	67.78
367.505	99.75
367.72	-31.42
367.936	-8.36
368.151	51.12
368.367	60.61
368.582	38.52
368.798	4.04
369.013	89.87
369.228	26.7
369.444	10.82
369.659	58.48
369.874	59.25
370.09	83.67
370.305	-47.11
370.52	18.37
370.736	60.22
370.951	50.15
371.166	74.56
371.381	73.59
371.597	48.99
371.812	-4.68
372.027	11.98
372.242	22.44
372.458	79.79
372.673	-8.17
372.888	46.85
373.103	34.84
373.318	82.7
373.533	33.68
373.749	49.57
373.964	-3.52
374.179	75.53
374.394	-0.61
374.609	79.99
374.824	7.52
375.039	77.47
375.254	2.29
375.469	86.77
375.684	27.29
375.899	82.31
376.114	28.25
376.329	32.32
376.544	38.72
376.759	41.24
376.974	7.72
377.189	8.69
377.404	12.56
377.619	45.5
377.834	20.7
378.049	-5.07
378.264	11.79
378.478	36.97
378.693	-4.29
378.908	34.65
379.123	32.13
379.338	62.35
379.553	39.1
379.767	29.03
379.982	37.17
380.197	65.45
380.412	32.13
380.626	46.08
380.841	100.91
381.056	52.09
381.271	84.05
381.485	17.79
381.7	16.24
381.915	43.75
382.129	30.39
382.344	53.05
382.559	40.85
382.773	66.62
382.988	-2.16
383.202	23.41
383.417	22.25
383.632	115.63
383.846	27.87
384.061	56.74
384.275	38.33
384.49	54.8
384.704	71.85
384.919	61
385.133	23.8
385.348	69.14
385.562	45.3
385.777	68.55
385.991	64.87
386.206	22.83
386.42	22.44
386.634	73.79
386.849	64.29
387.063	73.4
387.277	12.76
387.492	27.09
387.706	-10.49
387.92	-1
388.135	63.13
388.349	39.3
388.563	60.8
388.778	53.25
388.992	81.34
389.206	70.88
389.42	110.6
389.635	51.5
389.849	93.16
390.063	79.21
390.277	72.82
390.491	115.05
390.706	59.45
390.92	84.25
391.134	47.05
391.348	89.29
391.562	12.56
391.776	60.03
391.99	33.29
392.205	89.67
392.419	34.45
392.633	39.88
392.847	85.41
393.061	40.27
393.275	86.38
393.489	53.83
393.703	64.68
393.917	77.27
394.131	42.4
394.345	82.31
394.559	85.6
394.773	49.76
394.986	74.17
395.2	44.92
395.414	89.29
395.628	70.88
395.842	48.79
396.056	42.01
396.27	1.32
396.484	53.44
396.697	73.2
396.911	89.67
397.125	75.72
397.339	81.92
397.553	34.65
397.766	136.17
397.98	96.65
398.194	87.93
398.408	53.25
398.621	88.32
398.835	91.42
399.049	64.68
399.262	87.15
399.476	96.26
399.69	66.42
399.903	150.51
400.117	69.14
400.331	91.03
400.544	76.5
400.758	173.37
400.971	77.85
401.185	85.41
401.398	52.28
401.612	116.8
401.826	106.14
402.039	119.7
402.253	73.4
402.466	104.4
402.68	104.01
402.893	98.39
403.106	82.31
403.32	77.47
403.533	109.43
403.747	95.29
403.96	98.59
404.174	118.15
404.387	75.53
404.6	90.64
404.814	105.17
405.027	102.27
405.24	91.22
405.454	53.25
405.667	131.13
405.88	32.32
406.094	96.45
406.307	120.09
406.52	93.74
406.733	65.65
406.947	36.2
407.16	122.8
407.373	117.77
407.586	83.67
407.799	78.44
408.012	114.67
408.226	115.83
408.439	143.73
408.652	59.25
408.865	119.7
409.078	140.82
409.291	116.99
409.504	94.52
409.717	125.71
409.93	130.94
410.143	97.81
410.357	55.77
410.57	66.42
410.783	90.64
410.996	134.43
411.209	125.52
411.421	146.05
411.634	117.38
411.847	91.61
412.06	133.65
412.273	122.8
412.486	88.32
412.699	177.25
412.912	116.8
413.125	131.72
413.338	110.21
413.55	136.56
413.763	124.35
413.976	117.96
414.189	88.9
414.402	117.57
414.615	191.58
414.827	74.75
415.04	139.47
415.253	118.54
415.466	158.07
415.678	163.3
415.891	94.13
416.104	138.11
416.316	135.01
416.529	103.43
416.742	143.92
416.954	155.93
417.167	128.23
417.38	116.22
417.592	170.85
417.805	138.11
418.017	76.5
418.23	161.36
418.442	93.94
418.655	130.36
418.868	109.05
419.08	156.9
419.293	171.43
419.505	142.95
419.718	136.37
419.93	180.54
420.142	119.9
420.355	150.7
420.567	157.1
420.78	146.05
420.992	131.91
421.205	200.88
421.417	92.77
421.629	132.68
421.842	123
422.054	96.45
422.266	174.73
422.479	177.05
422.691	110.79
422.903	153.42
423.115	131.91
423.328	121.83
423.54	150.12
423.752	123.97
423.964	138.11
424.177	129.78
424.389	103.23
424.601	232.46
424.813	165.43
425.025	168.33
425.238	180.93
425.45	142.95
425.662	126.68
425.874	403.16
426.086	117.38
426.298	148.96
426.51	147.02
426.722	140.24
426.934	138.3
427.146	187.9
427.358	104.01
427.57	191.58
427.782	123.97
427.994	163.88
428.206	108.08
428.418	92.58
428.63	157.87
428.842	182.09
429.054	146.83
429.266	168.53
429.478	145.47
429.69	158.65
429.902	118.73
430.114	160.97
430.325	142.18
430.537	108.08
430.749	127.26
430.961	98
431.173	125.32
431.384	164.46
431.596	55.38
431.808	143.73
432.02	149.15
432.231	175.12
432.443	175.31
432.655	183.25
432.867	133.65
433.078	172.21
433.29	253.78
433.502	221.42
433.713	208.63
433.925	184.8
434.136	192.16
434.348	127.84
434.56	120.87
434.771	272.18
434.983	132.1
435.194	144.89
435.406	174.92
435.617	208.25
435.829	247.19
436.04	191.2
436.252	219.48
436.463	211.15
436.675	232.08
436.886	185
437.098	186.74
437.309	233.05
437.521	206.31
437.732	214.06
437.943	182.67
438.155	212.7
438.366	197.01
438.578	256.3
438.789	209.6
439	199.14
439.211	195.46
439.423	222.39
439.634	219.1
439.845	207.47
440.057	230.72
440.268	257.65
440.479	193.52
440.69	199.72
440.902	173.37
441.113	200.11
441.324	208.83
441.535	239.63
441.746	263.66
441.957	176.67
442.168	207.86
442.38	234.79
442.591	244.28
442.802	216.19
443.013	205.92
443.224	246.22
443.435	214.06
443.646	228.59
443.857	219.48
444.068	233.82
444.279	218.9
444.49	303.18
444.701	245.25
444.912	322.75
445.123	286.91
445.334	237.31
445.545	243.7
445.756	242.35
445.967	219.68
446.178	243.51
446.388	260.17
446.599	269.86
446.81	248.16
447.021	234.01
447.232	259.59
447.443	298.73
447.653	227.04
447.864	292.72
448.075	271.6
448.286	292.91
448.496	281.09
448.707	310.93
448.918	245.83
449.129	348.91
449.339	242.15
449.55	279.16
449.761	267.92
449.971	316.16
450.182	268.7
450.393	307.83
450.603	279.74
450.814	327.4
451.024	300.08
451.235	325.85
451.446	314.81
451.656	354.53
451.867	266.95
452.077	309.96
452.288	363.63
452.498	354.91
452.709	274.9
452.919	312.48
453.13	277.61
453.34	321.98
453.55	243.31
453.761	305.51
453.971	312.68
454.182	327.21
454.392	314.81
454.602	355.88
454.813	311.71
455.023	317.52
455.233	274.9
455.444	309.19
455.654	241.18
455.864	293.11
456.075	292.14
456.285	256.1
456.495	300.86
456.705	297.18
456.916	388.62
457.126	371.77
457.336	304.15
457.546	266.37
457.756	304.54
457.967	369.25
458.177	295.63
458.387	325.66
458.597	285.74
458.807	290.98
459.017	300.86
459.227	302.21
459.437	312.09
459.647	344.64
459.857	314.03
460.068	311.9
460.278	346.58
460.488	349.29
460.698	386.49
460.908	332.83
461.117	287.29
461.327	328.37
461.537	337.28
461.747	360.53
461.957	339.22
462.167	417.3
462.377	385.91
462.587	358.21
462.797	386.69
463.007	355.69
463.216	377
463.426	395.79
463.636	382.62
463.846	333.6
464.056	329.34
464.265	388.43
464.475	327.79
464.685	329.34
464.895	370.22
465.104	379.13
465.314	384.36
465.524	341.74
465.733	312.48
465.943	405.09
466.153	431.64
466.362	393.47
466.572	350.84
466.782	349.88
466.991	351.81
467.201	420.59
467.41	322.56
467.62	388.43
467.829	361.11
468.039	376.61
468.249	358.4
468.458	384.94
468.668	391.34
468.877	398.89
469.086	409.36
469.296	401.61
469.505	366.73
469.715	445.2
469.924	392.31
470.134	411.49
470.343	422.53
470.552	395.6
470.762	392.69
470.971	356.66
471.18	391.92
471.39	383.39
471.599	383.59
471.808	424.08
472.018	405.29
472.227	440.55
472.436	454.11
472.645	400.64
472.855	404.51
473.064	479.69
473.273	428.73
473.482	437.84
473.691	462.05
473.901	499.84
474.11	449.27
474.319	520.76
474.528	446.56
474.737	519.21
474.946	497.9
475.155	441.71
475.364	504.49
475.573	422.14
475.783	461.86
475.992	526.77
476.201	509.52
476.41	475.23
476.619	445.2
476.828	475.62
477.037	439.77
477.245	472.52
477.454	536.45
477.663	470.97
477.872	488.6
478.081	570.94
478.29	465.35
478.499	597.87
478.708	532.77
478.917	572.3
479.125	493.64
479.334	556.41
479.543	524.44
479.752	544.78
479.961	554.28
480.169	555.25
480.378	537.62
480.587	647.47
480.796	575.4
481.004	573.07
481.213	569.2
481.422	584.7
481.63	589.35
481.839	606.78
482.048	649.6
482.256	590.12
482.465	603.68
482.674	639.53
482.882	607.95
483.091	662.39
483.299	647.47
483.508	646.5
483.716	614.73
483.925	626.74
484.134	611.43
484.342	600.78
484.551	624.61
484.759	674.98
484.967	654.45
485.176	650.57
485.384	653.86
485.593	673.05
485.801	631.78
486.01	622.48
486.218	580.63
486.426	550.79
486.635	554.86
486.843	556.99
487.051	582.18
487.26	596.9
487.468	636.43
487.676	657.16
487.885	610.27
488.093	628.48
488.301	654.64
488.509	668.78
488.717	673.05
488.926	690.68
489.134	645.15
489.342	661.61
489.55	645.15
489.758	695.71
489.967	666.46
490.175	782.51
490.383	672.66
490.591	757.33
490.799	682.35
491.007	742.99
491.215	735.04
491.423	703.46
491.631	713.15
491.839	714.51
492.047	774.38
492.255	681.96
492.463	666.46
492.671	714.12
492.879	766.82
493.087	720.9
493.295	757.71
493.503	748.8
493.711	765.46
493.919	769.53
494.127	783.87
494.334	791.62
494.542	733.88
494.75	784.64
494.958	785.81
495.166	866.79
495.374	809.83
495.581	824.94
495.789	793.94
495.997	879.97
496.205	778.25
496.412	795.69
496.62	814.29
496.828	823.39
497.035	829.79
497.243	854.39
497.451	841.8
497.658	836.57
497.866	839.67
498.074	906.32
498.281	808.47
498.489	931.12
498.696	833.08
498.904	833.08
499.112	826.3
499.319	882.1
499.527	866.99
499.734	895.27
499.942	823.2
500.149	832.11
500.357	886.75
500.564	850.32
500.771	875.32
500.979	814.87
501.186	845.87
501.394	879.19
501.601	854.2
501.808	885.01
502.016	860.98
502.223	895.08
502.43	887.14
502.638	872.22
502.845	886.56
503.052	968.51
503.26	896.44
503.467	1004.74
503.674	913.68
503.881	945.45
504.089	1014.82
504.296	948.36
504.503	885.2
504.71	975.87
504.917	895.66
505.125	939.45
505.332	978
505.539	1002.03
505.746	1034.19
505.953	1050.27
506.16	1032.64
506.367	1061.51
506.574	1065
506.781	1073.71
506.988	1011.72
507.195	1039.81
507.402	1046.4
507.609	1070.03
507.816	1036.13
508.023	1038.65
508.23	1051.24
508.437	1004.35
508.644	1062.28
508.851	1136.49
509.058	1127.19
509.265	1081.85
509.472	1143.27
509.679	1223.09
509.885	1109.75
510.092	1138.04
510.299	1143.08
510.506	1122.93
510.713	1161.48
510.92	1183.38
511.126	1159.93
511.333	1238.21
511.54	1199.65
511.746	1276.18
511.953	1246.92
512.16	1308.15
512.367	1252.35
512.573	1211.86
512.78	1227.55
512.987	1223.87
513.193	1251.38
513.4	1181.24
513.606	1225.42
513.813	1279.86
514.02	1232.2
514.226	1328.3
514.433	1338.57
514.639	1222.9
514.846	1312.41
515.052	1275.02
515.259	1289.94
515.465	1333.14
515.672	1331.79
515.878	1406.38
516.085	1356.39
516.291	1389.72
516.497	1347.67
516.704	1328.1
516.91	1309.31
517.117	1250.41
517.323	1219.99
517.529	1268.62
517.736	1288.97
517.942	1294.59
518.148	1313.38
518.354	1367.44
518.561	1358.52
518.767	1374.8
518.973	1372.47
519.179	1450.17
519.386	1401.34
519.592	1445.52
519.798	1419.94
520.004	1542.2
520.21	1486.01
520.417	1530.18
520.623	1568.74
520.829	1599.16
521.035	1621.24
521.241	1615.24
521.447	1670.84
521.653	1716.37
521.859	1651.66
522.065	1674.14
522.271	1731.29
522.477	1729.74
522.683	1751.06
522.889	1716.18
523.095	1713.66
523.301	1708.04
523.507	1710.56
523.713	1743.69
523.919	1713.47
524.125	1829.72
524.331	1784.19
524.537	1880.48
524.742	1880.87
524.948	1870.4
525.154	1904.12
525.36	1953.13
525.566	1898.88
525.772	1942.67
525.977	1863.62
526.183	1905.67
526.389	1921.75
526.595	1859.17
526.8	1863.43
527.006	1826.62
527.212	1778.95
527.417	1741.95
527.623	1737.88
527.829	1869.43
528.034	1893.65
528.24	1903.73
528.446	1949.65
528.651	2011.84
528.857	2033.54
529.062	2061.24
529.268	2060.86
529.473	2081.59
529.679	2099.61
529.884	2147.46
530.09	2154.44
530.295	2116.46
530.501	2118.21
530.706	2095.54
530.912	2118.59
531.117	2141.65
531.323	2193.77
531.528	2224.96
531.733	2222.05
531.939	2132.74
532.144	2202.68
532.35	2175.75
532.555	2246.27
532.76	2143.01
532.966	2174.78
533.171	2141.84
533.376	2065.12
533.581	2096.12
533.787	2167.61
533.992	2211.2
534.197	2183.31
534.402	2198.22
534.607	2234.84
534.813	2314.08
535.018	2240.46
535.223	2255.77
535.428	2266.81
535.633	2337.72
535.838	2344.7
536.043	2335.01
536.249	2428.4
536.454	2332.68
536.659	2376.86
536.864	2354.38
537.069	2337.14
537.274	2309.24
537.479	2352.06
537.684	2355.55
537.889	2275.14
538.094	2425.49
538.299	2340.43
538.504	2356.13
538.708	2366.2
538.913	2424.33
539.118	2408.05
539.323	2401.27
539.528	2370.08
539.733	2375.89
539.938	2375.89
540.142	2391.39
540.347	2340.43
540.552	2336.37
540.757	2305.37
540.962	2303.43
541.166	2305.75
541.371	2275.14
541.576	2320.67
541.781	2271.07
541.985	2430.91
542.19	2318.73
542.395	2427.04
542.599	2506.28
542.804	2422
543.008	2466.56
543.213	2385.58
543.418	2373.37
543.622	2453
543.827	2426.46
544.031	2470.83
544.236	2490.59
544.44	2501.24
544.645	2522.36
544.849	2443.12
545.054	2510.35
545.258	2553.36
545.463	2560.92
545.667	2474.7
545.872	2526.24
546.076	2535.73
546.281	2526.43
546.485	2436.34
546.689	2562.27
546.894	2543.87
547.098	2541.93
547.302	2461.33
547.507	2583.97
547.711	2574.09
547.915	2574.09
548.119	2512.68
548.324	2482.26
548.528	2585.33
548.732	2520.81
548.936	2556.85
549.141	2566.54
549.345	2535.73
549.549	2556.66
549.753	2609.55
549.957	2640.94
550.161	2618.46
550.366	2651.79
550.57	2553.75
550.774	2572.93
550.978	2583.59
551.182	2591.14
551.386	2532.05
551.59	2581.07
551.794	2553.56
551.998	2591.92
552.202	2618.07
552.406	2593.66
552.61	2610.32
552.814	2640.55
553.018	2629.31
553.222	2577.39
553.426	2526.04
553.63	2624.47
553.833	2569.44
554.037	2496.21
554.241	2591.72
554.445	2638.42
554.649	2597.73
554.853	2580.87
555.056	2622.72
555.26	2656.24
555.464	2622.34
555.668	2590.76
555.871	2617.11
556.075	2637.25
556.279	2575.06
556.483	2535.73
556.686	2567.89
556.89	2566.73
557.094	2569.06
557.297	2477.03
557.501	2565.37
557.704	2444.09
557.908	2586.49
558.112	2485.74
558.315	2583.78
558.519	2514.61
558.722	2484.19
558.926	2498.34
559.129	2400.69
559.333	2399.14
559.536	2396.62
559.74	2403.79
559.943	2373.95
560.147	2379.57
560.35	2385.19
560.553	2397.78
560.757	2378.8
560.96	2508.03
561.164	2427.81
561.367	2507.06
561.57	2423.16
561.774	2441.18
561.977	2405.92
562.18	2398.17
562.384	2471.02
562.587	2390.42
562.79	2445.06
562.993	2356.71
563.197	2409.99
563.4	2461.72
563.603	2400.69
563.806	2452.81
564.009	2360.58
564.212	2399.91
564.416	2299.55
564.619	2367.37
564.822	2299.17
565.025	2366.4
565.228	2309.63
565.431	2329.78
565.634	2257.9
565.837	2283.28
566.04	2216.63
566.243	2260.22
566.446	2168.58
566.649	2288.51
566.852	2160.83
567.055	2259.64
567.258	2249.18
567.461	2318.93
567.664	2289.28
567.867	2182.14
568.07	2231.16
568.273	2202.1
568.475	2258.87
568.678	2147.66
568.881	2171.1
569.084	2175.75
569.287	2053.49
569.489	2091.66
569.692	2161.99
569.895	2146.49
570.098	2029.08
570.3	2035.28
570.503	2017.07
570.706	2044.19
570.909	1996.92
571.111	1990.91
571.314	1971.54
571.516	1961.27
571.719	1972.31
571.922	1989.17
572.124	1970.38
572.327	1978.71
572.529	1945.96
572.732	1950.42
572.935	1989.17
573.137	2042.45
573.34	1943.45
573.542	1985.49
573.745	2005.45
573.947	1988.78
574.15	1937.05
574.352	1940.35
574.554	1982.39
574.757	1903.92
574.959	1877.57
575.162	1907.8
575.364	1855.87
575.566	1938.21
575.769	1828.55
575.971	1837.66
576.173	1736.91
576.376	1819.25
576.578	1873.5
576.78	1876.6
576.982	1754.93
577.185	1832.04
577.387	1791.16
577.589	1786.12
577.791	1858.2
577.993	1841.34
578.196	1815.38
578.398	1830.69
578.6	1810.15
578.802	1767.52
579.004	1732.84
579.206	1737.88
579.408	1760.55
579.61	1770.43
579.812	1811.31
580.014	1752.22
580.216	1772.37
580.418	1766.36
580.62	1765.39
580.822	1745.44
581.024	1773.14
581.226	1837.47
581.428	1747.37
581.63	1867.11
581.832	1748.34
582.034	1851.8
582.236	1811.89
582.438	1844.44
582.64	1840.95
582.841	1854.71
583.043	1890.17
583.245	1857.62
583.447	1818.48
583.649	1840.95
583.85	1849.29
584.052	1850.45
584.254	1761.13
584.456	1839.02
584.657	1722.19
584.859	1771.01
585.061	1751.25
585.262	1758.81
585.464	1746.79
585.666	1813.25
585.867	1722.96
586.069	1816.15
586.27	1750.09
586.472	1727.03
586.674	1737.11
586.875	1754.74
587.077	1701.26
587.278	1750.28
587.48	1688.86
587.681	1822.94
587.883	1732.46
588.084	1641.98
588.285	1653.02
588.487	1644.88
588.688	1678.79
588.89	1603.03
589.091	1565.25
589.292	1569.32
589.494	1487.56
589.695	1470.51
589.896	1441.06
590.098	1432.73
590.299	1509.26
590.5	1450.94
590.702	1465.28
590.903	1518.56
591.104	1558.66
591.305	1563.7
591.507	1623.57
591.708	1562.93
591.909	1574.94
592.11	1592.76
592.311	1597.03
592.512	1537.35
592.714	1478.26
592.915	1523.4
593.116	1547.43
593.317	1552.85
593.518	1559.63
593.719	1544.13
593.92	1583.08
594.121	1608.07
594.322	1597.41
594.523	1518.95
594.724	1492.4
594.925	1539.87
595.126	1520.3
595.327	1571.84
595.528	1554.79
595.729	1531.54
595.929	1545.49
596.13	1530.76
596.331	1539.29
596.532	1593.34
596.733	1630.35
596.934	1585.4
597.135	1591.02
597.335	1559.05
597.536	1531.93
597.737	1580.17
597.938	1517.4
598.138	1549.95
598.339	1536.58
598.54	1574.94
598.74	1527.08
598.941	1558.47
599.142	1588.69
599.342	1545.3
599.543	1520.5
599.744	1545.49
599.944	1537.93
600.145	1494.34
600.345	1557.11
600.546	1605.94
600.746	1576.1
600.947	1628.99
601.147	1545.1
601.348	1571.84
601.548	1551.69
601.749	1521.08
601.949	1509.84
602.15	1506.74
602.35	1492.21
602.551	1552.66
602.751	1478.26
602.951	1529.02
603.152	1482.33
603.352	1568.55
603.552	1520.5
603.753	1547.43
603.953	1536.96
604.153	1532.9
604.354	1554.79
604.554	1525.53
604.754	1534.25
604.954	1492.6
605.155	1526.5
605.355	1521.27
605.555	1558.66
605.755	1561.38
605.955	1519.33
606.155	1541.61
606.356	1547.81
606.556	1555.95
606.756	1553.82
606.956	1463.15
607.156	1561.96
607.356	1510.23
607.556	1535.22
607.756	1533.48
607.956	1529.6
608.156	1509.06
608.356	1505.77
608.556	1496.67
608.756	1500.93
608.956	1427.11
609.156	1477.87
609.356	1449.58
609.556	1444.93
609.755	1465.86
609.955	1440.28
610.155	1465.67
610.355	1477.68
610.555	1430.79
610.755	1443.58
610.954	1387.2
611.154	1484.07
611.354	1462.76
611.554	1416.65
611.753	1379.84
611.953	1408.7
612.153	1414.32
612.352	1424.2
612.552	1398.05
612.752	1351.55
612.951	1424.59
613.151	1393.59
613.351	1348.64
613.55	1360.07
613.75	1375.96
613.949	1338.18
614.149	1403.28
614.348	1385.07
614.548	1321.71
614.747	1291.49
614.947	1336.05
615.146	1262.23
615.346	1361.24
615.545	1353.1
615.745	1372.09
615.944	1350.58
616.144	1343.99
616.343	1347.67
616.542	1275.79
616.742	1302.72
616.941	1293.81
617.14	1224.26
617.34	1274.24
617.539	1309.31
617.738	1281.02
617.938	1348.45
618.137	1308.15
618.336	1261.84
618.535	1296.52
618.734	1277.15
618.934	1308.15
619.133	1308.54
619.332	1300.01
619.531	1260.87
619.73	1298.66
619.929	1323.84
620.128	1301.17
620.328	1335.27
620.527	1262.81
620.726	1281.22
620.925	1274.63
621.124	1265.14
621.323	1296.33
621.522	1251.77
621.721	1234.14
621.92	1246.73
622.119	1286.06
622.318	1233.36
622.517	1219.99
622.715	1214.38
622.914	1200.23
623.113	1232.39
623.312	1186.48
623.511	1221.54
623.71	1230.46
623.909	1172.33
624.107	1272.11
624.306	1177.56
624.505	1187.06
624.704	1217.48
624.902	1202.36
625.101	1246.92
625.3	1188.41
625.499	1170.39
625.697	1193.26
625.896	1132.42
626.095	1204.49
626.293	1130.48
626.492	1145.79
626.69	1186.28
626.889	1162.26
627.088	1206.43
627.286	1143.85
627.485	1114.6
627.683	1140.95
627.882	1152.57
628.08	1078.95
628.279	1086.89
628.477	1162.06
628.676	1063.64
628.874	1135.52
629.073	1094.83
629.271	1081.27
629.469	1114.4
629.668	1079.33
629.866	1109.75
630.065	1086.11
630.263	1105.1
630.461	1065.38
630.66	1087.86
630.858	1155.09
631.056	1151.79
631.254	1118.08
631.453	1099.29
631.651	1130.68
631.849	1128.93
632.047	1114.98
632.245	1106.65
632.444	1103.36
632.642	1135.71
632.84	1123.7
633.038	1102.39
633.236	1102
633.434	1120.6
633.632	1086.11
633.83	1095.41
634.028	1135.13
634.227	1115.95
634.425	1205.66
634.623	1132.61
634.821	1126.03
635.019	1131.06
635.216	1125.83
635.414	1147.53
635.612	1114.98
635.81	1107.62
636.008	1181.05
636.206	1113.05
636.404	1136.49
636.602	1068.1
636.8	1123.51
636.997	1151.21
637.195	1132.81
637.393	1139.59
637.591	1151.02
637.789	1137.07
637.986	1128.55
638.184	1114.6
638.382	1148.5
638.58	1147.15
638.777	1159.74
638.975	1134.94
639.173	1107.23
639.37	1122.54
639.568	1118.66
639.765	1124.86
639.963	1076.43
640.161	1112.27
640.358	1093.09
640.556	1068.1
640.753	1017.14
640.951	1034.19
641.148	1080.11
641.346	1062.67
641.543	1046.78
641.741	1056.28
641.938	1008.23
642.136	1041.75
642.333	978
642.531	1090.57
642.728	1086.89
642.925	1021.6
643.123	1009
643.32	1031.28
643.517	1002.61
643.715	1015.4
643.912	1013.07
644.109	1051.24
644.306	984.4
644.504	970.64
644.701	995.25
644.898	1012.88
645.095	956.69
645.293	971.61
645.49	997.57
645.687	1001.64
645.884	1005.13
646.081	890.82
646.278	920.27
646.475	947.2
646.672	921.24
646.87	960.95
647.067	935.38
647.264	923.37
647.461	877.26
647.658	866.02
647.855	925.89
648.052	870.28
648.249	816.61
648.446	863.31
648.642	870.47
648.839	855.56
649.036	843.93
649.233	823.01
649.43	824.75
649.627	822.04
649.824	827.27
650.021	829.01
650.217	844.71
650.414	808.28
650.611	872.41
650.808	872.61
651.004	842.38
651.201	891.79
651.398	916.78
651.595	860.21
651.791	821.26
651.988	868.15
652.185	826.11
652.381	829.01
652.578	828.82
652.775	832.31
652.971	844.32
653.168	840.83
653.364	856.52
653.561	755.97
653.757	836.57
653.954	849.74
654.15	804.99
654.347	871.25
654.543	824.17
654.74	809.25
654.936	770.5
655.133	840.64
655.329	799.95
655.525	791.43
655.722	815.45
655.918	773.21
656.115	773.99
656.311	703.27
656.507	712.76
656.704	654.25
656.9	696.68
657.096	716.64
657.292	702.88
657.489	767.01
657.685	758.68
657.881	751.9
658.077	751.51
658.273	747.06
658.47	812.16
658.666	792.01
658.862	800.34
659.058	759.26
659.254	789.1
659.45	745.89
659.646	779.03
659.842	759.65
660.038	796.46
660.234	732.53
660.43	742.21
660.626	852.07
660.822	809.64
661.018	780.58
661.214	775.15
661.41	742.21
661.606	771.08
661.802	806.73
661.998	777.28
662.194	747.06
662.39	787.55
662.586	755
662.781	781.54
662.977	771.47
663.173	771.08
663.369	750.93
663.564	762.94
663.76	777.67
663.956	730.2
664.152	800.34
664.347	696.3
664.543	732.91
664.739	698.04
664.934	682.35
665.13	701.53
665.326	735.63
665.521	740.47
665.717	680.21
665.912	683.12
666.108	647.86
666.304	689.71
666.499	668.98
666.695	640.88
666.89	701.33
667.086	723.61
667.281	696.68
667.477	733.11
667.672	703.08
667.867	698.04
668.063	671.3
668.258	626.55
668.454	685.83
668.649	746.86
668.844	666.65
669.04	708.89
669.235	665.49
669.43	659.68
669.626	620.15
669.821	680.21
670.016	668.59
670.211	642.43
670.407	618.99
670.602	680.41
670.797	635.46
670.992	705.01
671.187	656.96
671.382	677.5
671.578	632.55
671.773	674.79
671.968	647.28
672.163	645.15
672.358	670.33
672.553	658.71
672.748	640.88
672.943	701.53
673.138	642.82
673.333	668.01
673.528	616.28
673.723	692.23
673.918	636.81
674.113	592.25
674.308	695.71
674.503	665.3
674.698	658.13
674.892	643.21
675.087	676.73
675.282	644.18
675.477	614.92
675.672	662.58
675.867	633.33
676.061	609.3
676.256	587.6
676.451	630.03
676.646	622.28
676.84	624.61
677.035	590.32
677.23	598.26
677.424	633.71
677.619	653.86
677.814	665.49
678.008	686.22
678.203	594.38
678.397	629.06
678.592	618.6
678.787	683.9
678.981	627.9
679.176	642.43
679.37	620.73
679.565	583.34
679.759	633.71
679.954	675.76
680.148	684.48
680.342	684.67
680.537	647.08
680.731	639.33
680.926	644.76
681.12	661.03
681.314	602.52
681.509	652.7
681.703	647.86
681.897	653.09
682.092	638.56
682.286	595.55
682.48	692.03
682.674	692.61
682.869	660.26
683.063	618.22
683.257	669.36
683.451	634.3
683.645	656.96
683.839	646.89
684.034	623.83
684.228	701.14
684.422	600.78
684.616	644.76
684.81	651.15
685.004	667.62
685.198	659.68
685.392	686.41
685.586	668.98
685.78	669.17
685.974	691.06
686.168	667.62
686.362	719.93
686.556	626.74
686.75	590.9
686.944	585.86
687.138	605.82
687.331	518.44
687.525	559.32
687.719	493.83
687.913	524.05
688.107	522.89
688.301	532.97
688.494	556.99
688.688	537.62
688.882	517.08
689.076	534.9
689.269	576.95
689.463	660.26
689.657	592.25
689.85	566.87
690.044	597.87
690.238	622.09
690.431	613.37
690.625	615.12
690.818	678.28
691.012	667.04
691.205	713.15
691.399	699.59
691.593	721.68
691.786	779.22
691.98	800.34
692.173	814.09
692.366	809.64
692.56	829.4
692.753	887.52
692.947	805.76
693.14	870.09
693.333	871.25
693.527	817.97
693.72	869.89
693.914	883.65
694.107	891.01
694.3	901.86
694.493	885.2
694.687	958.44
694.88	902.83
695.073	968.12
695.266	985.37
695.46	975.1
695.653	1046.4
695.846	1025.08
696.039	977.62
696.232	1003
696.425	1056.28
696.618	1105.88
696.812	1129.32
697.005	1180.28
697.198	1261.84
697.391	1216.51
697.584	1228.91
697.777	1278.31
697.97	1283.35
698.163	1269.21
698.356	1288.77
698.549	1399.99
698.742	1330.43
698.935	1315.32
699.127	1323.65
699.32	1326.55
699.513	1293.81
699.706	1352.71
699.899	1399.02
700.092	1391.85
700.285	1433.31
700.477	1343.22
700.67	1413.93
700.863	1454.43
701.056	1508.68
701.248	1498.99
701.441	1549.56
701.634	1486.59
701.826	1597.99
702.019	1493.76
702.212	1582.11
702.404	1526.5
702.597	1538.9
702.79	1594.31
702.982	1607.1
703.175	1649.53
703.367	1689.64
703.56	1706.3
703.752	1782.05
703.945	1764.81
704.137	1777.99
704.33	1791.16
704.522	1827.59
704.715	1831.07
704.907	1879.9
705.1	1937.05
705.292	1900.05
705.484	1920.39
705.677	1954.88
705.869	1936.47
706.061	2004.48
706.254	2007.77
706.446	1980.45
706.638	2014.94
706.831	2080.04
707.023	2054.08
707.215	2114.33
707.407	2151.72
707.599	2132.93
707.792	2193.77
707.984	2168.58
708.176	2194.93
708.368	2222.05
708.56	2220.7
708.752	2216.24
708.944	2205.39
709.136	2244.92
709.329	2259.06
709.521	2359.62
709.713	2338.11
709.905	2343.34
710.097	2437.11
710.289	2329
710.481	2373.37
710.672	2391.97
710.864	2394.88
711.056	2495.04
711.248	2436.73
711.44	2488.84
711.632	2458.43
711.824	2509.38
712.016	2544.84
712.207	2537.67
712.399	2576.22
712.591	2635.12
712.783	2587.27
712.975	2642.49
713.166	2616.91
713.358	2621.37
713.55	2688.79
713.741	2647.14
713.933	2656.24
714.125	2667.48
714.316	2619.24
714.508	2750.02
714.7	2692.28
714.891	2719.4
715.083	2763.77
715.274	2727.73
715.466	2731.03
715.657	2742.27
715.849	2689.57
716.04	2715.53
716.232	2645
716.423	2664.77
716.615	2601.61
716.806	2545.23
716.998	2463.46
717.189	2402.63
717.381	2343.34
717.572	2267
717.763	2288.51
717.955	2248.79
718.146	2181.37
718.337	2113.56
718.528	2109.68
718.72	2005.45
718.911	2069.38
719.102	2042.84
719.293	2072.68
719.485	2052.53
719.676	2036.83
719.867	1996.34
720.058	2004.86
720.249	2000.8
720.44	2022.5
720.632	2108.52
720.823	2165.87
721.014	2281.15
721.205	2364.46
721.396	2426.46
721.587	2518.88
721.778	2585.91
721.969	2624.47
722.16	2698.29
722.351	2703.71
722.542	2828.29
722.733	2856
722.924	2769.2
723.115	2798.26
723.305	2767.07
723.496	2744.59
723.687	2638.8
723.878	2652.75
724.069	2607.22
724.26	2630.09
724.45	2580.49
724.641	2559.76
724.832	2597.34
725.023	2547.16
725.213	2544.64
725.404	2538.44
725.595	2539.99
725.785	2535.34
725.976	2579.13
726.167	2596.76
726.357	2608.77
726.548	2687.05
726.739	2595.21
726.929	2713.4
727.12	2708.75
727.31	2710.1
727.501	2613.62
727.691	2696.15
727.882	2665.54
728.072	2756.41
728.263	2736.84
728.453	2799.62
728.644	2831
728.834	2791.48
729.024	2710.88
729.215	2749.05
729.405	2797.1
729.596	2845.53
729.786	2868.98
729.976	2847.86
730.167	2892.81
730.357	2858.51
730.547	2850.38
730.737	2921.29
730.928	2926.91
731.118	2970.69
731.308	2888.55
731.498	2953.45
731.688	3049.94
731.879	3100.7
732.069	3130.34
732.259	3144.1
732.449	3235.74
732.639	3289.21
732.829	3290.18
733.019	3349.28
733.209	3442.66
733.399	3425.42
733.589	3555.23
733.779	3560.27
733.969	3572.67
734.159	3644.16
734.349	3669.35
734.539	3689.5
734.729	3709.84
734.919	3745.1
735.109	3810.59
735.299	3709.45
735.488	3749.36
735.678	3772.23
735.868	3767.19
736.058	3755.56
736.248	3727.28
736.437	3733.28
736.627	3704.8
736.817	3818.92
737.007	3738.71
737.196	3830.16
737.386	3787.53
737.576	3816.21
737.765	3857.09
737.955	3805.55
738.144	3968.49
738.334	3934.97
738.524	3906.69
738.713	3896.22
738.903	3876.85
739.092	3920.25
739.282	3895.84
739.471	3968.49
739.661	3919.67
739.85	3975.47
740.04	3964.23
740.229	4042.12
740.419	4052.97
740.608	4065.95
740.797	4081.64
740.987	4096.95
741.176	4067.69
741.365	4069.82
741.555	4081.25
741.744	4135.11
741.933	4093.07
742.123	4121.75
742.312	4146.74
742.501	4175.03
742.69	4147.9
742.88	4113.61
743.069	4215.71
743.258	4200.6
743.447	4262.21
743.636	4230.63
743.825	4171.35
744.014	4218.62
744.204	4295.54
744.393	4212.23
744.582	4311.81
744.771	4325.57
744.96	4229.66
745.149	4267.83
745.338	4219.78
745.527	4353.08
745.716	4268.22
745.905	4211.84
746.094	4302.12
746.283	4295.34
746.471	4272.29
746.66	4338.74
746.849	4322.47
747.038	4340.29
747.227	4295.54
747.416	4358.31
747.604	4338.36
747.793	4282.17
747.982	4312.39
748.171	4308.52
748.359	4297.28
748.548	4355.02
748.737	4279.07
748.926	4330.22
749.114	4226.18
749.303	4289.53
749.491	4289.34
749.68	4165.53
749.869	4273.06
750.057	4238.38
750.246	4238.38
750.434	4238.19
750.623	4238.58
750.811	4225.21
751	4286.24
751.188	4215.13
751.377	4260.47
751.565	4202.73
751.754	4152.16
751.942	4194.21
752.131	4283.33
752.319	4157.2
752.507	4111.87
752.696	4229.28
752.884	4190.53
753.072	4133.56
753.261	4216.68
753.449	4166.89
753.637	4131.43
753.825	4264.73
754.014	4159.72
754.202	4157.78
754.39	4201.38
754.578	4239.74
754.766	4154.68
754.955	4119.23
755.143	4184.71
755.331	4153.91
755.519	4143.25
755.707	4132.21
755.895	4105.47
756.083	4135.89
756.271	4107.22
756.459	4126.2
756.647	4114.77
756.835	4083
757.023	4053.35
757.211	4066.53
757.399	4054.32
757.587	4019.64
757.775	4027.97
757.963	4056.45
758.151	4051.22
758.339	3985.15
758.526	3963.26
758.714	4017.9
758.902	3865.03
759.09	3744.13
759.278	3479.86
759.465	3228.77
759.653	2819.57
759.841	2564.02
760.028	2152.31
760.216	1887.26
760.404	1753.77
760.591	1451.13
760.779	1232.98
760.967	1082.63
761.154	883.65
761.342	869.89
761.529	869.7
761.717	927.82
761.905	919.49
762.092	1001.64
762.28	918.33
762.467	912.9
762.655	834.24
762.842	881.71
763.029	869.7
763.217	891.2
763.404	872.99
763.592	898.76
763.779	865.44
763.966	919.88
764.154	959.6
764.341	1001.45
764.528	996.41
764.716	1109.75
764.903	1155.09
765.09	1253.32
765.277	1291.87
765.465	1481.94
765.652	1555.37
765.839	1653.21
766.026	1790
766.213	1863.04
766.4	1956.43
766.588	2204.23
766.775	2210.43
766.962	2354.38
767.149	2480.32
767.336	2608.39
767.523	2596.96
767.71	2776.17
767.897	2906.18
768.084	2974.96
768.271	3025.72
768.458	3129.57
768.645	3217.72
768.832	3186.33
769.019	3230.9
769.206	3264.03
769.392	3382.99
769.579	3465.33
769.766	3395.97
769.953	3432.01
770.14	3475.6
770.327	3486.45
770.513	3537.4
770.7	3606.18
770.887	3476.18
771.073	3524.42
771.26	3573.05
771.447	3554.65
771.634	3513.19
771.82	3657.14
772.007	3529.65
772.193	3615.68
772.38	3612.38
772.567	3554.45
772.753	3537.02
772.94	3576.54
773.126	3642.42
773.313	3623.04
773.499	3599.4
773.686	3601.92
773.872	3556.78
774.059	3614.52
774.245	3554.07
774.432	3590.1
774.618	3465.91
774.804	3549.61
774.991	3460.29
775.177	3558.72
775.363	3502.92
775.55	3536.24
775.736	3501.95
775.922	3533.34
776.109	3504.08
776.295	3523.45
776.481	3549.8
776.667	3547.29
776.853	3489.16
777.04	3500.59
777.226	3491.87
777.412	3592.24
777.598	3469.79
777.784	3475.79
777.97	3406.24
778.156	3448.47
778.342	3467.66
778.528	3399.65
778.715	3389.38
778.901	3407.98
779.087	3436.07
779.272	3408.37
779.458	3358.38
779.644	3407.79
779.83	3360.71
780.016	3451.77
780.202	3429.1
780.388	3370.01
780.574	3273.13
780.76	3335.13
780.946	3364.19
781.131	3373.3
781.317	3292.7
781.503	3298.51
781.689	3336.29
781.874	3378.53
782.06	3277.59
782.246	3336.88
782.432	3333
782.617	3299.68
782.803	3316.53
782.989	3259.38
783.174	3306.26
783.36	3232.64
783.545	3234.58
783.731	3230.7
783.916	3172.97
784.102	3211.33
784.288	3215.98
784.473	3185.75
784.659	3198.93
784.844	3233.22
785.029	3185.75
785.215	3171.22
785.4	3126.66
785.586	3215.78
785.771	3129.76
785.956	3211.52
786.142	3085.39
786.327	3133.25
786.512	3069.31
786.698	3084.23
786.883	3012.35
787.068	3077.64
787.254	3086.17
787.439	3025.91
787.624	3009.44
787.809	3034.63
787.994	2991.62
788.18	3001.31
788.365	2965.27
788.55	3023.01
788.735	2990.84
788.92	2966.24
789.105	2954.03
789.29	3019.32
789.475	2882.35
789.66	2900.36
789.845	2843.21
790.03	2859.87
790.215	2917.8
790.4	2931.56
790.585	2903.27
790.77	2923.03
790.955	2820.35
791.14	2866.65
791.325	2932.72
791.51	2785.86
791.695	2868.4
791.879	2848.25
792.064	2818.99
792.249	2913.73
792.434	2853.28
792.618	2828.48
792.803	2883.51
792.988	2838.75
793.173	2871.88
793.357	2918.19
793.542	2840.69
793.727	2843.01
793.911	2902.3
794.096	2887
794.281	2911.02
794.465	2947.44
794.65	2912.96
794.834	2949.19
795.019	2947.83
795.203	2942.21
795.388	2939.31
795.572	2993.94
795.757	2932.91
795.941	2913.73
796.126	2893.78
796.31	2846.7
796.494	2846.31
796.679	2844.56
796.863	2823.45
797.048	2907.73
797.232	2909.47
797.416	2931.75
797.601	2897.46
797.785	2970.5
797.969	2947.06
798.153	2874.79
798.338	2955.39
798.522	2948.03
798.706	3004.02
798.89	2965.46
799.074	3072.22
799.258	3018.55
799.443	2925.94
799.627	2932.33
799.811	2955.58
799.995	2924.97
800.179	2904.63
800.363	2897.65
800.547	2945.51
800.731	2981.93
800.915	2851.73
801.099	2940.28
801.283	2903.46
801.467	2948.8
801.651	2924.39
801.835	2918.58
802.019	2904.63
802.202	2921.29
802.386	2864.13
802.57	2810.47
802.754	2854.64
802.938	2859.1
803.121	2849.6
803.305	2924.78
803.489	2878.47
803.673	2930.01
803.856	2875.56
804.04	2888.74
804.224	2909.28
804.407	2854.25
804.591	2848.63
804.775	2858.9
804.958	2868.59
805.142	2970.89
805.326	2913.54
805.509	2893.39
805.693	2931.94
805.876	2943.96
806.06	2962.17
806.243	2979.99
806.427	2975.15
806.61	3025.33
806.794	2923.42
806.977	2982.71
807.16	2948.22
807.344	2946.28
807.527	2905.59
807.71	2924.78
807.894	2910.63
808.077	2937.95
808.26	2899.98
808.444	2888.16
808.627	2967.01
808.81	2853.28
808.993	2800.97
809.177	2791.48
809.36	2835.85
809.543	2842.43
809.726	2750.4
809.909	2755.44
810.092	2746.53
810.276	2722.31
810.459	2738.78
810.642	2704.49
810.825	2658.37
811.008	2696.15
811.191	2597.15
811.374	2604.51
811.557	2614.97
811.74	2676
811.923	2536.31
812.106	2546.19
812.289	2515.78
812.472	2489.43
812.654	2511.9
812.837	2462.88
813.02	2421.61
813.203	2369.3
813.386	2292.97
813.569	2243.75
813.751	2159.67
813.934	2229.22
814.117	2175.36
814.3	2150.56
814.482	2057.37
814.665	2028.5
814.848	1992.27
815.03	1943.45
815.213	1940.35
815.396	1901.98
815.578	1865.75
815.761	1857.62
815.943	1929.88
816.126	1840.95
816.309	1802.98
816.491	1723.35
816.674	1680.92
816.856	1726.26
817.039	1752.41
817.221	1793.49
817.403	1756.09
817.586	1767.14
817.768	1785.74
817.951	1672.01
818.133	1679.37
818.315	1726.26
818.498	1746.79
818.68	1786.9
818.862	1765
819.045	1788.84
819.227	1801.04
819.409	1775.66
819.591	1813.83
819.774	1796.78
819.956	1757.06
820.138	1831.85
820.32	1834.17
820.502	1909.35
820.684	1989.95
820.866	1992.27
821.048	2022.5
821.231	2072.68
821.413	2047.68
821.595	2031.79
821.777	2034.12
821.959	2044.97
822.141	2091.66
822.323	1950.61
822.505	1854.32
822.686	1799.88
822.868	1716.76
823.05	1645.27
823.232	1530.96
823.414	1538.71
823.596	1582.88
823.778	1547.43
823.96	1615.24
824.141	1605.74
824.323	1658.06
824.505	1712.89
824.687	1791.16
824.868	1865.95
825.05	1926.01
825.232	1956.81
825.413	2068.61
825.595	2000.8
825.777	1936.67
825.958	1955.85
826.14	1964.18
826.321	2012.61
826.503	1962.43
826.685	2000.41
826.866	2017.26
827.048	2030.83
827.229	1957.4
827.411	1900.24
827.592	1850.83
827.773	1825.84
827.955	1803.37
828.136	1814.41
828.318	1799.49
828.499	1781.86
828.68	1761.13
828.862	1793.68
829.043	1780.31
829.224	1755.71
829.406	1733.81
829.587	1762.1
829.768	1768.3
829.949	1764.42
830.131	1760.74
830.312	1846.19
830.493	1793.87
830.674	1814.22
830.855	1799.3
831.036	1807.24
831.218	1844.25
831.399	1818.67
831.58	1793.29
831.761	1808.79
831.942	1822.55
832.123	1804.34
832.304	1751.25
832.485	1768.1
832.666	1762.68
832.847	1817.51
833.028	1777.21
833.209	1800.46
833.389	1791.35
833.57	1738.46
833.751	1752.61
833.932	1821.39
834.113	1769.65
834.294	1748.92
834.475	1811.31
834.655	1838.44
834.836	1876.41
835.017	1816.15
835.198	1787.87
835.378	1846.96
835.559	1860.13
835.74	1821.19
835.92	1805.5
836.101	1796
836.281	1885.52
836.462	1836.69
836.643	1861.49
836.823	1912.45
837.004	1896.37
837.184	1909.54
837.365	1894.82
837.545	1901.21
837.726	1881.64
837.906	1956.43
838.087	1871.95
838.267	1848.7
838.448	1812.86
838.628	1858
838.808	1832.62
838.989	1923.1
839.169	1830.49
839.349	1900.43
839.53	1869.63
839.71	1916.32
839.89	1881.83
840.07	1957.59
840.251	1872.15
840.431	1963.01
840.611	1872.53
840.791	1852.97
840.971	1898.11
841.151	1859.75
841.332	1870.79
841.512	1929.3
841.692	1816.35
841.872	1890.36
842.052	1871.18
842.232	1884.16
842.412	1837.85
842.592	1870.6
842.772	1846.38
842.952	1888.23
843.132	1867.5
843.312	1847.74
843.492	1838.05
843.672	1868.47
843.851	1779.54
844.031	1836.89
844.211	1813.25
844.391	1780.89
844.571	1842.89
844.751	1852.19
844.93	1813.05
845.11	1803.95
845.29	1825.26
845.47	1873.5
845.649	1814.8
845.829	1859.94
846.009	1793.49
846.188	1864.01
846.368	1847.93
846.547	1806.47
846.727	1844.05
846.907	1786.9
847.086	1821.77
847.266	1781.67
847.445	1802.98
847.625	1795.23
847.804	1801.62
847.984	1817.51
848.163	1771.98
848.343	1744.86
848.522	1769.27
848.701	1794.07
848.881	1754.35
849.06	1775.47
849.239	1727.03
849.419	1765.2
849.598	1712.11
849.777	1683.24
849.957	1641.39
850.136	1622.99
850.315	1632.29
850.494	1636.74
850.674	1666.97
850.853	1687.89
851.032	1634.42
851.211	1702.42
851.39	1677.43
851.569	1612.72
851.748	1598.38
851.927	1687.89
852.107	1650.89
852.286	1632.48
852.465	1618.92
852.644	1699.32
852.823	1668.52
853.002	1642.36
853.181	1662.9
853.359	1614.85
853.538	1563.51
853.717	1653.99
853.896	1519.72
854.075	1490.85
854.254	1455.4
854.433	1391.27
854.611	1441.45
854.79	1391.46
854.969	1465.28
855.148	1471.67
855.327	1420.33
855.505	1466.44
855.684	1482.91
855.863	1467.99
856.041	1448.42
856.22	1547.81
856.399	1510.61
856.577	1577.26
856.756	1560.21
856.934	1635.97
857.113	1681.5
857.291	1584.05
857.47	1551.5
857.648	1593.54
857.827	1608.84
858.005	1623.18
858.184	1557.7
858.362	1614.27
858.541	1537.16
858.719	1576.88
858.898	1543.55
859.076	1563.7
859.254	1618.14
859.433	1522.24
859.611	1576.49
859.789	1487.37
859.967	1585.6
860.146	1615.04
860.324	1517.2
860.502	1489.5
860.68	1482.33
860.859	1518.95
861.037	1517.2
861.215	1546.07
861.393	1517.2
861.571	1507.13
861.749	1527.28
861.927	1556.34
862.105	1546.85
862.283	1498.22
862.461	1492.4
862.639	1471.28
862.817	1503.06
862.995	1523.21
863.173	1495.7
863.351	1474.58
863.529	1494.73
863.707	1503.45
863.885	1479.03
864.063	1440.28
864.241	1464.12
864.418	1502.09
864.596	1463.15
864.774	1398.44
864.952	1436.8
865.129	1462.76
865.307	1446.48
865.485	1387
865.663	1480.2
865.84	1333.53
866.018	1350.77
866.196	1247.89
866.373	1273.08
866.551	1273.08
866.728	1208.18
866.906	1242.27
867.084	1266.49
867.261	1343.41
867.439	1346.9
867.616	1337.79
867.794	1293.04
867.971	1343.8
868.149	1346.9
868.326	1375.57
868.503	1391.65
868.681	1350.39
868.858	1322.49
869.035	1292.07
869.213	1352.52
869.39	1343.41
869.567	1423.04
869.745	1344.57
869.922	1343.8
870.099	1347.67
870.276	1364.92
870.454	1370.92
870.631	1356.59
870.808	1300.01
870.985	1344.38
871.162	1457.92
871.339	1359.1
871.517	1299.82
871.694	1306.41
871.871	1337.02
872.048	1292.65
872.225	1329.65
872.402	1315.51
872.579	1274.63
872.756	1309.89
872.933	1297.88
873.11	1285.67
873.287	1312.22
873.463	1269.59
873.64	1291.49
873.817	1314.54
873.994	1291.1
874.171	1255.06
874.348	1290.91
874.524	1211.08
874.701	1257
874.878	1180.66
875.055	1270.56
875.231	1274.05
875.408	1274.24
875.585	1200.23
875.762	1265.33
875.938	1242.27
876.115	1190.54
876.291	1216.31
876.468	1224.45
876.645	1173.88
876.821	1204.3
876.998	1209.34
877.174	1199.46
877.351	1201.39
877.527	1174.27
877.704	1201.39
877.88	1188.8
878.057	1190.93
878.233	1216.51
878.409	1186.48
878.586	1190.93
878.762	1160.9
878.938	1160.13
879.115	1095.61
879.291	1183.76
879.467	1130.29
879.644	1154.31
879.82	1173.3
879.996	1162.26
880.172	1126.03
880.349	1126.61
880.525	1175.04
880.701	1106.46
880.877	1113.43
881.053	1152.18
881.229	1135.33
881.405	1195.78
881.581	1109.56
881.757	1142.69
881.933	1121.96
882.109	1173.11
882.285	1169.23
882.461	1090.96
882.637	1137.26
882.813	1096
882.989	1111.5
883.165	1155.28
883.341	1101.03
883.517	1184.15
883.693	1156.06
883.869	1145.79
884.044	1110.33
884.22	1146.18
884.396	1160.32
884.572	1149.66
884.747	1176.98
884.923	1158.38
885.099	1171.75
885.275	1156.64
885.45	1106.85
885.626	1126.22
885.801	1091.54
885.977	1106.07
886.153	1042.33
886.328	1135.52
886.504	1092.31
886.679	1138.23
886.855	1106.46
887.03	1107.81
887.206	1131.65
887.381	1123.7
887.557	1102.2
887.732	1165.55
887.908	1147.73
888.083	1146.18
888.258	1128.74
888.434	1113.63
888.609	1089.6
888.784	1143.66
888.96	1122.73
889.135	1090.76
889.31	1106.07
889.485	1128.74
889.661	1090.57
889.836	1157.61
890.011	1118.28
890.186	1107.04
890.361	1115.56
890.537	1106.65
890.712	1143.27
890.887	1097.93
891.062	1108.4
891.237	1181.05
891.412	1075.65
891.587	1108.98
891.762	1138.62
891.937	1153.93
892.112	1093.28
892.287	1096.38
892.462	1045.62
892.637	1032.25
892.812	1007.84
892.987	1017.33
893.161	1001.06
893.336	1037.68
893.511	1006.29
893.686	1029.73
893.861	1006.87
894.035	997.77
894.21	992.73
894.385	943.71
894.56	984.2
894.734	930.34
894.909	882.68
895.084	906.7
895.258	879.58
895.433	895.08
895.608	881.52
895.782	832.11
895.957	852.84
896.131	833.27
896.306	766.82
896.48	759.84
896.655	786.97
896.829	711.99
897.004	709.08
897.178	703.08
897.353	712.57
897.527	760.04
897.701	732.33
897.876	682.54
898.05	800.14
898.224	760.43
898.399	758.49
898.573	730.2
898.747	638.56
898.921	668.98
899.096	603.49
899.27	584.12
899.444	584.5
899.618	626.16
899.792	653.86
899.967	650.18
900.141	669.95
900.315	586.83
900.489	647.08
900.663	669.56
900.837	627.13
901.011	567.65
901.185	692.03
901.359	621.51
901.533	621.12
901.707	633.52
901.881	612.6
902.055	567.26
902.229	612.79
902.403	677.31
902.576	630.42
902.75	641.08
902.924	718.96
903.098	678.86
903.272	741.05
903.446	799.37
903.619	734.85
903.793	788.13
903.967	775.15
904.14	832.11
904.314	820.49
904.488	780.96
904.661	863.11
904.835	802.27
905.009	832.89
905.182	876.09
905.356	829.79
905.529	772.44
905.703	753.84
905.876	760.04
906.05	747.83
906.223	708.11
906.397	651.15
906.57	645.34
906.744	629.26
906.917	614.34
907.09	634.1
907.264	604.85
907.437	605.62
907.61	554.47
907.784	582.37
907.957	597.68
908.13	550.21
908.304	610.08
908.477	521.73
908.65	569
908.823	539.55
908.996	597.1
909.17	564.74
909.343	542.65
909.516	574.62
909.689	545.37
909.862	559.12
910.035	532.58
910.208	517.47
910.381	501.77
910.554	631.97
910.727	543.43
910.9	560.87
911.073	530.64
911.246	585.08
911.419	600.58
911.592	580.24
911.765	525.8
911.938	540.72
912.11	545.17
912.283	555.05
912.456	586.25
912.629	550.4
912.802	506.81
912.974	484.92
913.147	455.85
913.32	412.07
913.493	445.39
913.665	476.97
913.838	464.57
914.01	464.38
914.183	492.67
914.356	475.04
914.528	540.33
914.701	571.52
914.873	524.25
915.046	457.21
915.218	442.49
915.391	376.81
915.563	378.74
915.736	472.32
915.908	460.7
916.081	447.52
916.253	487.44
916.425	507.59
916.598	514.17
916.77	452.56
916.942	466.32
917.115	414.59
917.287	450.04
917.459	432.41
917.632	389.01
917.804	370.22
917.976	438.22
918.148	452.37
918.32	469.42
918.493	465.35
918.665	512.43
918.837	450.62
919.009	511.65
919.181	537.81
919.353	485.5
919.525	515.53
919.697	516.11
919.869	511.85
920.041	562.42
920.213	603.88
920.385	552.73
920.557	514.75
920.729	542.85
920.901	546.14
921.073	513.01
921.244	506.81
921.416	558.93
921.588	507.78
921.76	496.93
921.932	586.63
922.103	529.48
922.275	532.58
922.447	527.15
922.619	471.16
922.79	512.62
922.962	455.66
923.134	495.77
923.305	449.66
923.477	430.67
923.648	448.11
923.82	437.64
923.991	435.12
924.163	401.41
924.335	443.07
924.506	404.9
924.677	463.99
924.849	403.35
925.02	442.29
925.192	467.87
925.363	444.42
925.535	452.17
925.706	447.52
925.877	490.73
926.049	425.24
926.22	466.12
926.391	451.01
926.562	473.1
926.734	388.24
926.905	465.74
927.076	376.61
927.247	425.05
927.419	341.16
927.59	345.81
927.761	342.51
927.932	330.5
928.103	346.58
928.274	315.19
928.445	287.1
928.616	286.71
928.787	312.29
928.958	324.88
929.129	281.48
929.3	286.33
929.471	252.61
929.642	210.38
929.813	156.9
929.984	252.81
930.155	186.35
930.326	228.59
930.496	183.45
930.667	136.95
930.838	191.2
931.009	153.22
931.18	165.04
931.35	144.12
931.521	158.26
931.692	115.44
931.863	96.65
932.033	120.09
932.204	127.26
932.374	94.9
932.545	100.72
932.716	149.54
932.886	135.59
933.057	67.59
933.227	41.04
933.398	144.12
933.568	64.49
933.739	36
933.909	65.26
934.08	97.04
934.25	2.1
934.421	43.37
934.591	56.54
934.761	68.75
934.932	17.02
935.102	75.53
935.272	62.55
935.443	51.31
935.613	50.73
935.783	75.14
935.953	13.92
936.123	177.44
936.294	33.1
936.464	30.19
936.634	64.87
936.804	15.47
936.974	5.2
937.144	55.19
937.314	48.99
937.484	16.82
937.655	12.37
937.825	78.82
937.995	46.08
938.165	78.63
938.334	56.15
938.504	76.5
938.674	52.47
938.844	81.92
939.014	123.77
939.184	116.22
939.354	149.73
939.524	146.83
939.694	93.74
939.863	104.01
940.033	147.99
940.203	146.63
940.373	110.4
940.542	123.19
940.712	80.18
940.882	130.75
941.051	119.7
941.221	123.77
941.391	131.33
941.56	88.9
941.73	99.55
941.899	179.18
942.069	94.52
942.238	118.93
942.408	60.03
942.577	122.03
942.747	90.84
942.916	45.69
943.086	66.81
943.255	112.73
943.425	98.59
943.594	82.7
943.763	21.86
943.933	30.58
944.102	35.62
944.271	81.15
944.441	80.57
944.61	27.48
944.779	82.31
944.948	144.12
945.117	50.34
945.287	65.07
945.456	9.66
945.625	46.85
945.794	82.5
945.963	47.05
946.132	79.4
946.301	47.44
946.47	102.27
946.639	38.91
946.808	50.34
946.977	85.6
947.146	98.78
947.315	66.81
947.484	108.85
947.653	70.49
947.822	81.73
947.991	51.7
948.16	147.41
948.329	108.27
948.498	59.45
948.666	87.35
948.835	95.49
949.004	50.34
949.173	45.11
949.341	85.8
949.51	97.04
949.679	148.77
949.847	90.06
950.016	136.37
950.185	117.38
950.353	92.97
950.522	84.83
950.69	124.16
950.859	56.93
951.028	103.43
951.196	91.61
951.365	45.11
951.533	71.65
951.701	105.75
951.87	108.08
952.038	35.23
952.207	63.71
952.375	163.3
952.543	54.8
952.712	82.12
952.88	67.2
953.048	123
953.217	62.74
953.385	68.17
953.553	131.52
953.721	40.27
953.89	88.51
954.058	43.37
954.226	57.12
954.394	85.22
954.562	33.1
954.73	92
954.898	57.9
955.067	104.59
955.235	48.6
955.403	102.27
955.571	138.3
955.739	98.97
955.907	54.6
956.075	82.5
956.243	56.93
956.41	122.8
956.578	55.96
956.746	43.56
956.914	80.76
957.082	107.3
957.25	117.18
957.418	73.79
957.585	79.02
957.753	122.8
957.921	72.04
958.089	66.23
958.256	73.2
958.424	107.88
958.592	86.77
958.759	65.84
958.927	89.29
959.095	69.33
959.262	77.66
959.43	90.06
959.597	38.14
959.765	83.47
959.932	58.48
960.1	117.96
960.267	58.09
960.435	77.85
960.602	106.53
960.77	66.23
960.937	42.01
961.104	75.72
961.272	44.34
961.439	72.82
961.606	89.87
961.774	104.01
961.941	91.61
962.108	95.29
962.275	97.42
962.443	122.22
962.61	108.27
962.777	157.87
962.944	102.27
963.111	119.12
963.278	96.07
963.446	93.94
963.613	102.65
963.78	107.11
963.947	108.85
964.114	110.98
964.281	174.73
964.448	108.27
964.615	90.64
964.782	108.08
964.949	126.29
965.116	125.52
965.282	152.64
965.449	89.29
965.616	46.47
965.783	128.03
965.95	78.05
966.117	49.37
966.283	102.65
966.45	108.66
966.617	123.58
966.784	126.87
966.95	140.24
967.117	137.53
967.284	110.02
967.45	91.42
967.617	184.8
967.784	145.67
967.95	170.85
968.117	136.75
968.283	157.68
968.45	221.81
968.616	124.74
968.783	163.3
968.949	119.51
969.116	144.5
969.282	128.42
969.449	118.54
969.615	144.7
969.781	73.98
969.948	141.79
970.114	115.63
970.28	166.2
970.447	121.64
970.613	191.39
970.779	126.48
970.945	120.87
971.112	153.22
971.278	120.28
971.444	130.75
971.61	176.86
971.776	107.5
971.942	156.32
972.108	177.44
972.275	109.82
972.441	138.69
972.607	189.26
972.773	87.74
972.939	123.38
973.105	98
973.271	103.04
973.437	100.72
973.602	97.81
973.768	141.98
973.934	119.9
974.1	115.25
974.266	66.62
974.432	138.3
974.598	94.32
974.763	125.13
974.929	86.19
975.095	162.33
975.261	92.39
975.426	75.34
975.592	98.97
975.758	174.73
975.923	57.51
976.089	75.53
976.255	141.79
976.42	115.63
976.586	140.24
976.751	138.3
976.917	178.22
977.082	115.83
977.248	78.24
977.413	61.19
977.579	92.97
977.744	120.67
977.91	90.25
978.075	106.92
978.24	129.2
978.406	99.75
978.571	82.5
978.736	50.34
978.902	141.4
979.067	72.24
979.232	40.65
979.397	115.44
979.563	142.76
979.728	87.15
979.893	90.45
980.058	90.45
980.223	140.05
980.388	131.52
980.554	109.24
980.719	94.32
980.884	87.74
981.049	152.45
981.214	78.82
981.379	115.44
981.544	93.16
981.709	112.53
981.874	86.57
982.039	98
982.204	117.96
982.368	82.89
982.533	67
982.698	150.32
982.863	153.22
983.028	83.86
983.193	121.45
983.357	107.11
983.522	112.34
983.687	120.67
983.852	103.04
984.016	101.3
984.181	98
984.346	111.76
984.51	112.53
984.675	108.85
984.839	113.7
985.004	101.1
985.168	125.32
985.333	119.9
985.498	78.24
985.662	130.94
985.827	114.86
985.991	105.37
986.155	98.59
986.32	108.47
986.484	133.27
986.649	108.08
986.813	59.25
986.977	119.12
987.142	122.42
987.306	73.4
987.47	81.73
987.634	109.63
987.799	108.08
987.963	119.7
988.127	129.97
988.291	177.25
988.455	82.7
988.62	108.47
988.784	104.98
988.948	152.83
989.112	83.47
989.276	104.59
989.44	112.53
989.604	83.47
989.768	106.92
989.932	147.99
990.096	43.95
990.26	75.92
990.424	67.59
990.588	112.34
990.752	185.77
990.915	116.6
991.079	87.15
991.243	83.47
991.407	125.13
991.571	83.09
991.734	127.07
991.898	137.14
992.062	177.05
992.226	87.15
992.389	53.83
992.553	71.07
992.717	80.57
992.88	84.64
993.044	98.2
993.207	88.9
993.371	114.47
993.535	101.49
993.698	105.17
993.862	117.18
994.025	142.18
994.189	94.52
994.352	116.99
994.515	111.18
994.679	100.14
994.842	95.1
995.006	127.26
995.169	73.98
995.332	64.68
995.496	115.63
995.659	50.34
995.822	82.31
995.985	77.66
996.149	149.93
996.312	110.6
996.475	119.32
996.638	93.94
996.801	135.2
996.964	139.66
997.128	70.1
997.291	64.49
997.454	101.3
997.617	40.46
997.78	115.05
997.943	80.95
998.106	85.8
998.269	72.82
998.432	69.72
998.595	89.09
998.758	75.53
998.92	54.22
999.083	12.17
999.246	88.9
999.409	53.05
999.572	26.9
999.735	69.14
999.897	104.01
1000.06	56.93
1000.223	53.83
1000.386	96.07
1000.548	95.29
1000.711	88.32
1000.874	98.39
1001.036	24.57
1001.199	106.53
1001.361	44.53
1001.524	87.15
1001.687	124.93
1001.849	71.07
1002.012	98.2
1002.174	84.83
1002.337	80.76
1002.499	77.27
1002.661	93.35
1002.824	46.47
1002.986	54.41
1003.149	98.59
1003.311	51.7
1003.473	144.5
1003.636	82.5
1003.798	85.22
1003.96	82.12
1004.123	71.85
1004.285	70.69
1004.447	38.14
1004.609	51.89
1004.771	125.71
1004.933	37.75
1005.096	39.88
1005.258	12.37
1005.42	40.27
1005.582	98.78
1005.744	69.33
1005.906	46.27
1006.068	69.91
1006.23	35.81
1006.392	12.76
1006.554	39.3
1006.716	108.08
1006.878	87.54
1007.04	27.09
1007.202	65.45
1007.363	56.93
1007.525	61.77
1007.687	67.39
1007.849	93.74
1008.011	6.94
1008.172	34.07
1008.334	40.07
1008.496	60.61
1008.658	-2.16
1008.819	26.32
1008.981	28.64
1009.143	33.87
1009.304	50.15
1009.466	79.02
1009.627	121.64
1009.789	136.75
1009.95	84.05
1010.112	48.21
1010.273	57.32
1010.435	37.75
1010.596	43.75
1010.758	47.05
1010.919	38.14
1011.081	14.31
1011.242	35.81
1011.403	53.25
1011.565	39.49
1011.726	77.66
1011.887	22.44
1012.049	72.04
1012.21	63.52
1012.371	103.43
1012.532	-13.98
1012.693	48.99
1012.855	25.93
1013.016	42.01
1013.177	80.95
1013.338	39.1
1013.499	110.6
1013.66	60.42
1013.821	78.44
1013.982	63.9
1014.143	49.18
1014.304	51.89
1014.465	90.45
1014.626	80.37
1014.787	49.37
1014.948	118.73
1015.109	-30.06
1015.27	68.36
1015.431	20.5
1015.592	35.04
1015.752	108.47
1015.913	66.04
1016.074	41.24
1016.235	36.78
1016.395	34.26
1016.556	59.25
1016.717	56.54
1016.877	103.23
1017.038	1.32
1017.199	46.27
1017.359	51.89
1017.52	41.43
1017.681	28.06
1017.841	28.64
1018.002	59.25
1018.162	38.33
1018.323	108.47
1018.483	32.32
1018.644	50.92
1018.804	-10.3
1018.964	-0.03
1019.125	27.29
1019.285	70.1
1019.446	11.59
1019.606	17.6
1019.766	-11.08
1019.926	74.17
1020.087	54.22
1020.247	-1
1020.407	72.62
1020.567	65.84
1020.728	34.84
1020.888	-10.88
1021.048	28.64
1021.208	5.59
1021.368	28.06
1021.528	95.49
1021.688	81.73
1021.848	98.59
1022.008	56.93
1022.168	57.32
1022.328	34.07
1022.488	45.3
1022.648	9.07
1022.808	51.89
1022.968	33.87
1023.128	18.37
1023.288	22.83
1023.448	22.44
1023.608	49.18
1023.767	69.14
1023.927	12.56
1024.087	16.05
1024.247	-10.49
1024.406	32.52
1024.566	0.55
1024.726	2.68
1024.885	47.24
1025.045	37.55
1025.205	15.08
1025.364	30
1025.524	31.35
1025.683	22.25
1025.843	48.79
1026.003	28.45
1026.162	60.8
1026.321	46.66
1026.481	41.43
1026.64	12.56
1026.8	51.7
1026.959	39.1
1027.119	27.48
1027.278	23.99
1027.437	33.68
1027.597	50.73
1027.756	61.97
1027.915	53.44
1028.074	45.89
1028.234	33.49
1028.393	55.57
1028.552	16.63
1028.711	-32.78
1028.87	41.82
1029.03	-15.73
1029.189	20.12
1029.348	-31.81
1029.507	-5.84
1029.666	-5.84
1029.825	6.94
1029.984	-15.92
1030.143	51.89
1030.302	-4.1
1030.461	-23.48
1030.62	43.37
1030.779	46.47
1030.938	0.94
1031.097	11.79
1031.255	66.04
1031.414	69.91
1031.573	48.4
1031.732	-26.38
1031.891	-4.29
1032.049	59.25
1032.208	27.29
1032.367	8.11
1032.525	18.57
1032.684	16.24
1032.843	42.4
1033.001	-14.76
1033.16	120.67
1033.319	56.35
1033.477	31.16
1033.636	25.74
1033.794	-27.54
1033.953	61.19
1034.111	37.75
1034.27	-4.68
1034.428	56.74
1034.587	1.91
1034.745	40.27
1034.903	13.72
1035.062	51.89
1035.22	-15.14
1035.378	32.52
1035.537	-4.49
1035.695	22.44
1035.853	-2.55
1036.011	36.97
1036.17	32.13
1036.328	-36.84
1036.486	50.92
1036.644	34.84
1036.802	-55.25
1036.96	-2.74
1037.119	33.49
1037.277	13.92
1037.435	-4.68
1037.593	-1.78
1037.751	5.97
1037.909	40.27
1038.067	40.27
