Data from gum_young_FLMT105791__27__17-38-26-045.txt Node

Date: Mon Mar 20 17:38:26 GMT 2023
User: antho
Spectrometer: FLMT10579
Trigger mode: 0
Integration Time (sec): 1.000000E-1
Scans to average: 10
Electric dark correction enabled: true
Nonlinearity correction enabled: false
Boxcar width: 0
XAxis mode: Wavelengths
Number of Pixels in Spectrum: 3648
>>>>>Begin Spectral Data<<<<<
345.248	-132.46
345.464	-132.46
345.681	-132.46
345.898	-149.9
346.114	-149.31
346.331	-41.98
346.548	35.13
346.764	-15.63
346.981	-20.47
347.197	0.84
347.414	22.54
347.631	-23.96
347.847	61.29
348.064	16.15
348.28	16.34
348.497	-49.34
348.713	-0.9
348.93	-0.71
349.146	34.75
349.363	7.62
349.579	-9.43
349.796	-6.72
350.012	-0.32
350.229	-0.13
350.445	-8.27
350.661	-18.54
350.878	-7.49
351.094	3.36
351.311	8.01
351.527	-9.24
351.743	-31.13
351.96	12.27
352.176	5.68
352.392	19.05
352.609	18.66
352.825	-18.34
353.041	-8.46
353.257	-10.59
353.474	22.93
353.69	23.7
353.906	10.91
354.122	-19.7
354.339	20.41
354.555	-7.3
354.771	-6.33
354.987	46.56
355.203	46.56
355.42	-30.55
355.636	-11.17
355.852	-20.47
356.068	7.23
356.284	-36.55
356.5	42.3
356.716	15.18
356.932	-17.95
357.148	27.77
357.364	15.76
357.58	40.75
357.796	55.09
358.012	51.02
358.228	17.7
358.444	-47.98
358.66	18.08
358.876	6.26
359.092	-22.99
359.308	-1.49
359.524	27.38
359.74	13.82
359.956	-4.2
360.172	1.03
360.388	30.68
360.604	-4.59
360.819	41.72
361.035	-2.84
361.251	41.14
361.467	-25.7
361.683	46.56
361.898	-0.13
362.114	7.23
362.33	-4
362.546	18.47
362.762	-4.59
362.977	8.4
363.193	-5.36
363.409	19.83
363.624	-17.57
363.84	-16.02
364.056	-30.35
364.271	28.16
364.487	26.41
364.703	-1.49
364.918	-29
365.134	-2.84
365.35	-12.72
365.565	81.83
365.781	-6.72
365.996	20.6
366.212	37.26
366.427	25.83
366.643	-16.79
366.858	5.1
367.074	-31.13
367.289	46.95
367.505	96.74
367.72	-44.5
367.936	14.98
368.151	37.26
368.367	27.58
368.582	6.46
368.798	1.42
369.013	34.94
369.228	19.25
369.444	11.5
369.659	61.48
369.874	16.53
370.09	63.61
370.305	-43.33
370.52	-6.91
370.736	62.45
370.951	4.33
371.166	58.58
371.381	46.37
371.597	7.04
371.812	-27.06
372.027	-22.22
372.242	0.65
372.458	88.99
372.673	21.57
372.888	-3.23
373.103	53.93
373.318	80.28
373.533	41.33
373.749	-8.46
373.964	-10.4
374.179	40.75
374.394	13.43
374.609	49.66
374.824	-2.07
375.039	31.26
375.254	-12.92
375.469	51.6
375.684	43.85
375.899	58.96
376.114	26.22
376.329	12.08
376.544	57.41
376.759	53.15
376.974	-15.63
377.189	-9.82
377.404	4.33
377.619	50.83
377.834	-37.72
378.049	-32.68
378.264	-25.51
378.478	16.34
378.693	0.45
378.908	32.81
379.123	4.91
379.338	52.76
379.553	4.13
379.767	10.53
379.982	51.41
380.197	45.98
380.412	26.61
380.626	7.23
380.841	89.77
381.056	16.73
381.271	70.98
381.485	-5.55
381.7	1.81
381.915	22.35
382.129	-3.81
382.344	25.83
382.559	22.54
382.773	38.62
382.988	-14.27
383.202	28.93
383.417	-34.62
383.632	85.12
383.846	-0.13
384.061	17.5
384.275	6.65
384.49	44.82
384.704	36.68
384.919	32.61
385.133	-21.05
385.348	47.73
385.562	-13.89
385.777	18.08
385.991	6.07
386.206	27.96
386.42	-12.92
386.634	73.49
386.849	49.86
387.063	35.33
387.277	-42.37
387.492	-15.63
387.706	-8.65
387.92	-0.52
388.135	44.24
388.349	29.32
388.563	35.33
388.778	31.26
388.992	50.63
389.206	30.68
389.42	83.96
389.635	10.53
389.849	18.66
390.063	39.78
390.277	47.34
390.491	59.35
390.706	63.03
390.92	40.75
391.134	29.51
391.348	38.04
391.562	-7.88
391.776	19.63
391.99	-27.06
392.205	44.63
392.419	-0.52
392.633	-10.79
392.847	80.47
393.061	27.19
393.275	85.89
393.489	15.76
393.703	19.44
393.917	65.94
394.131	0.06
394.345	68.84
394.559	45.4
394.773	13.63
394.986	53.54
395.2	18.66
395.414	52.38
395.628	-9.62
395.842	24.86
396.056	7.23
396.27	-25.32
396.484	33.2
396.697	29.9
396.911	65.36
397.125	59.74
397.339	73.3
397.553	40.17
397.766	92.09
397.98	51.8
398.194	60.13
398.408	10.14
398.621	30.87
398.835	31.65
399.049	64.58
399.262	83.76
399.476	48.89
399.69	59.16
399.903	102.75
400.117	51.21
400.331	54.31
400.544	36.88
400.758	144.79
400.971	70.78
401.185	86.28
401.398	37.85
401.612	95.78
401.826	73.49
402.039	85.31
402.253	33
402.466	71.56
402.68	42.88
402.893	69.23
403.106	65.74
403.32	67.88
403.533	73.11
403.747	45.21
403.96	51.02
404.174	80.47
404.387	18.28
404.6	66.33
404.814	112.05
405.027	41.72
405.24	89.58
405.454	63.42
405.667	91.32
405.88	-7.1
406.094	96.16
406.307	103.72
406.52	63.23
406.733	39.01
406.947	30.29
407.16	121.35
407.373	115.34
407.586	54.12
407.799	45.79
408.012	70.01
408.226	69.81
408.439	116.7
408.652	44.05
408.865	70.98
409.078	114.57
409.291	79.69
409.504	40.95
409.717	78.92
409.93	98.49
410.143	82.79
410.357	44.24
410.57	11.88
410.783	51.02
410.996	77.95
411.209	71.94
411.421	88.99
411.634	58
411.847	70.2
412.06	69.81
412.273	78.92
412.486	91.13
412.699	155.84
412.912	92.48
413.125	110.89
413.338	81.83
413.55	107.4
413.763	64.58
413.976	85.7
414.189	45.21
414.402	76.4
414.615	118.83
414.827	61.68
415.04	101.39
415.253	111.08
415.466	101.59
415.678	160.87
415.891	98.88
416.104	102.36
416.316	102.56
416.529	62.26
416.742	92.48
416.954	128.71
417.167	103.91
417.38	92.29
417.592	129.88
417.805	50.05
418.017	61.29
418.23	126.19
418.442	66.91
418.655	73.3
418.868	94.03
419.08	92.48
419.293	153.71
419.505	95.19
419.718	124.64
419.93	137.63
420.142	98.1
420.355	142.86
420.567	135.49
420.78	115.54
420.992	83.57
421.205	153.71
421.417	43.66
421.629	62.64
421.842	83.96
422.054	75.82
422.266	136.85
422.479	129.88
422.691	81.05
422.903	130.46
423.115	76.98
423.328	99.26
423.54	113.6
423.752	113.6
423.964	95.58
424.177	107.79
424.389	117.48
424.601	202.14
424.813	109.92
425.025	126.39
425.238	127.74
425.45	104.3
425.662	119.8
425.874	383.3
426.086	111.86
426.298	125.61
426.51	111.66
426.722	120.96
426.934	103.72
427.146	135.88
427.358	94.81
427.57	155.26
427.782	118.44
427.994	103.14
428.206	91.71
428.418	93.26
428.63	138.98
428.842	153.9
429.054	134.14
429.266	146.92
429.478	103.33
429.69	103.53
429.902	92.29
430.114	140.53
430.325	129.88
430.537	94.03
430.749	116.12
430.961	41.91
431.173	105.85
431.384	118.83
431.596	51.8
431.808	100.62
432.02	125.03
432.231	127.55
432.443	164.36
432.655	116.51
432.867	99.26
433.078	132.2
433.29	166.49
433.502	162.23
433.713	163.01
433.925	145.18
434.136	189.36
434.348	68.65
434.56	100.81
434.771	234.11
434.983	61.29
435.194	130.46
435.406	130.26
435.617	177.92
435.829	168.04
436.04	185.67
436.252	175.02
436.463	190.91
436.675	158.94
436.886	169.21
437.098	158.74
437.309	201.56
437.521	145.76
437.732	170.56
437.943	167.07
438.155	166.49
438.366	123.87
438.578	213.96
438.789	165.52
439	176.57
439.211	148.28
439.423	147.12
439.634	173.27
439.845	164.56
440.057	158.16
440.268	195.75
440.479	122.51
440.69	172.89
440.902	159.91
441.113	182.96
441.324	167.07
441.535	154.67
441.746	225.2
441.957	132.2
442.168	154.48
442.38	195.17
442.591	199.24
442.802	174.63
443.013	154.87
443.224	188.39
443.435	190.13
443.646	167.46
443.857	177.34
444.068	149.06
444.279	189.74
444.49	251.55
444.701	163.01
444.912	274.02
445.123	219.58
445.334	221.32
445.545	209.51
445.756	188.39
445.967	165.91
446.178	207.96
446.388	257.75
446.599	232.95
446.81	197.11
447.021	183.16
447.232	256.2
447.443	241.86
447.653	180.25
447.864	250
448.075	215.9
448.286	259.88
448.496	219.97
448.707	256.97
448.918	193.62
449.129	275.77
449.339	208.15
449.55	238.57
449.761	203.69
449.971	266.47
450.182	206.02
450.393	271.12
450.603	223.26
450.814	274.8
451.024	246.9
451.235	303.47
451.446	293.01
451.656	312.19
451.867	223.65
452.077	269.57
452.288	303.28
452.498	302.31
452.709	255.81
452.919	285.07
453.13	214.54
453.34	286.81
453.55	197.69
453.761	277.12
453.971	261.62
454.182	273.25
454.392	268.99
454.602	300.18
454.813	295.34
455.023	270.15
455.233	225.39
455.444	260.65
455.654	200.98
455.864	253.87
456.075	246.9
456.285	260.27
456.495	270.15
456.705	277.7
456.916	309.67
457.126	319.36
457.336	274.22
457.546	212.8
457.756	244.77
457.967	317.42
458.177	264.14
458.387	297.47
458.597	237.99
458.807	279.06
459.017	267.44
459.227	265.69
459.437	276.74
459.647	284.87
459.857	306.96
460.068	262.98
460.278	293.98
460.488	304.05
460.698	333.5
460.908	296.11
461.117	258.14
461.327	275.38
461.537	307.54
461.747	313.94
461.957	308.51
462.167	380.58
462.377	339.32
462.587	284.29
462.797	329.63
463.007	305.8
463.216	338.35
463.426	348.62
463.636	330.02
463.846	281.97
464.056	266.66
464.265	355.78
464.475	286.62
464.685	296.69
464.895	328.47
465.104	315.68
465.314	347.65
465.524	282.74
465.733	285.45
465.943	365.47
466.153	376.13
466.362	365.47
466.572	328.85
466.782	345.9
466.991	327.69
467.201	387.37
467.41	277.32
467.62	367.22
467.829	324.59
468.039	340.28
468.249	313.35
468.458	333.12
468.668	352.1
468.877	369.54
469.086	401.9
469.296	379.62
469.505	343.97
469.715	409.65
469.924	366.44
470.134	375.93
470.343	408.1
470.552	351.13
470.762	351.52
470.971	340.87
471.18	360.24
471.39	358.11
471.599	326.14
471.808	418.17
472.018	329.82
472.227	419.72
472.436	421.27
472.645	381.17
472.855	343.77
473.064	384.85
473.273	396.28
473.482	405
473.691	422.63
473.901	438.32
474.11	384.85
474.319	473.2
474.528	396.08
474.737	445.49
474.946	419.33
475.155	430.76
475.364	450.72
475.573	417.98
475.783	438.13
475.992	423.98
476.201	465.83
476.41	433.48
476.619	394.92
476.828	434.64
477.037	418.95
477.245	437.74
477.454	460.8
477.663	426.7
477.872	436.77
478.081	498.38
478.29	440.06
478.499	504
478.708	485.98
478.917	523.76
479.125	452.66
479.334	501.68
479.543	444.13
479.752	491.99
479.961	485.01
480.169	490.83
480.378	456.15
480.587	578.98
480.796	533.06
481.004	521.24
481.213	524.34
481.422	504
481.63	513.3
481.839	546.24
482.048	574.14
482.256	512.72
482.465	557.09
482.674	546.43
482.882	551.28
483.091	595.84
483.299	560.77
483.508	568.91
483.716	566
483.925	555.93
484.134	525.31
484.342	553.99
484.551	608.82
484.759	582.28
484.967	603.97
485.176	611.34
485.384	587.89
485.593	578.21
485.801	568.52
486.01	592.93
486.218	553.21
486.426	489.66
486.635	503.42
486.843	519.5
487.051	566.97
487.26	540.43
487.468	581.89
487.676	581.69
487.885	587.89
488.093	584.21
488.301	640.98
488.509	626.45
488.717	629.55
488.926	642.92
489.134	589.25
489.342	632.84
489.55	611.92
489.758	626.84
489.967	609.79
490.175	703.95
490.383	620.25
490.591	709.95
490.799	633.42
491.007	716.74
491.215	687.48
491.423	648.34
491.631	667.52
491.839	682.25
492.047	685.54
492.255	637.49
492.463	612.5
492.671	656.09
492.879	703.37
493.087	657.84
493.295	681.28
493.503	726.62
493.711	757.62
493.919	706.27
494.127	722.74
494.334	745.6
494.542	687.67
494.75	731.07
494.958	729.72
495.166	775.25
495.374	754.52
495.581	766.53
495.789	754.9
495.997	791.52
496.205	775.44
496.412	726.81
496.62	781.25
496.828	777.57
497.035	776.99
497.243	784.74
497.451	775.05
497.658	777.77
497.866	808.77
498.074	854.1
498.281	764.4
498.489	853.52
498.696	796.37
498.904	774.28
499.112	783.97
499.319	856.23
499.527	818.45
499.734	881.23
499.942	761.3
500.149	792.88
500.357	820.58
500.564	808.57
500.771	830.85
500.979	820.58
501.186	799.27
501.394	841.12
501.601	803.92
501.808	838.6
502.016	841.51
502.223	808.77
502.43	843.64
502.638	842.09
502.845	819.81
503.052	904.67
503.26	863.79
503.467	927.15
503.674	914.36
503.881	886.07
504.089	983.91
504.296	925.01
504.503	865.34
504.71	913.78
504.917	865.53
505.125	909.9
505.332	901.76
505.539	979.26
505.746	989.34
505.953	969.38
506.16	997.48
506.367	1024.02
506.574	1025.37
506.781	1058.89
506.988	1014.91
507.195	989.92
507.402	1015.88
507.609	1042.62
507.816	1023.82
508.023	1006.39
508.23	985.85
508.437	981.78
508.644	1015.88
508.851	1072.84
509.058	1107.33
509.265	1078.85
509.472	1078.27
509.679	1198.2
509.885	1078.85
510.092	1096.48
510.299	1069.16
510.506	1125.54
510.713	1117.99
510.92	1087.57
511.126	1149.57
511.333	1161.19
511.54	1196.45
511.746	1229
511.953	1227.65
512.16	1239.85
512.367	1196.45
512.573	1192.97
512.78	1207.3
512.987	1181.34
513.193	1195.68
513.4	1142.2
513.606	1202.85
513.813	1249.15
514.02	1218.73
514.226	1277.83
514.433	1268.72
514.639	1217.96
514.846	1257.87
515.052	1242.57
515.259	1276.28
515.465	1298.36
515.672	1276.86
515.878	1377.8
516.085	1294.3
516.291	1348.16
516.497	1304.95
516.704	1298.56
516.91	1218.73
517.117	1200.72
517.323	1156.35
517.529	1219.9
517.736	1210.21
517.942	1236.95
518.148	1242.95
518.354	1298.17
518.561	1292.55
518.767	1301.08
518.973	1354.94
519.179	1376.44
519.386	1352.61
519.592	1359.98
519.798	1338.28
520.004	1430.11
520.21	1442.13
520.417	1464.79
520.623	1512.26
520.829	1534.54
521.035	1516.72
521.241	1528.34
521.447	1552.75
521.653	1640.33
521.859	1571.35
522.065	1584.92
522.271	1638.58
522.477	1625.99
522.683	1700.2
522.889	1641.1
523.095	1616.89
523.301	1606.23
523.507	1578.52
523.713	1638.97
523.919	1594.22
524.125	1710.85
524.331	1708.33
524.537	1798.04
524.742	1733.33
524.948	1824.19
525.154	1739.14
525.36	1878.06
525.566	1771.69
525.772	1819.54
525.977	1727.13
526.183	1816.25
526.389	1818.58
526.595	1734.88
526.8	1730.81
527.006	1668.62
527.212	1623.86
527.417	1629.67
527.623	1675.01
527.829	1777.31
528.034	1768.78
528.24	1790.29
528.446	1825.55
528.651	1890.84
528.857	1882.51
529.062	1953.81
529.268	1918.94
529.473	1900.72
529.679	1930.56
529.884	1970.28
530.09	1993.53
530.295	1975.71
530.501	1969.89
530.706	1973.19
530.912	1941.99
531.117	1987.14
531.323	1972.61
531.528	2054.56
531.733	1984.62
531.939	1973.19
532.144	2066.77
532.35	2007.29
532.555	2006.9
532.76	2007.87
532.966	1988.88
533.171	2008.06
533.376	1964.27
533.581	1947.22
533.787	2019.88
533.992	2040.61
534.197	2042.94
534.402	2047
534.607	2082.65
534.813	2131.09
535.018	2036.35
535.223	2069.48
535.428	2074.32
535.633	2124.89
535.838	2169.84
536.043	2173.33
536.249	2202.39
536.454	2128.77
536.659	2158.21
536.864	2133.42
537.069	2143.68
537.274	2158.8
537.479	2160.15
537.684	2188.25
537.889	2063.67
538.094	2236.1
538.299	2148.53
538.504	2177.01
538.708	2159.18
538.913	2190.96
539.118	2165.19
539.323	2206.26
539.528	2163.25
539.733	2162.67
539.938	2180.69
540.142	2167.51
540.347	2134.77
540.552	2124.5
540.757	2134.77
540.962	2145.62
541.166	2080.13
541.371	2097.96
541.576	2106.68
541.781	2066.77
541.985	2187.08
542.19	2157.63
542.395	2251.6
542.599	2255.67
542.804	2208.59
543.008	2257.41
543.213	2180.3
543.418	2172.16
543.622	2200.84
543.827	2154.73
544.031	2265.94
544.236	2244.63
544.44	2252.18
544.645	2307.59
544.849	2245.98
545.054	2268.46
545.258	2326
545.463	2321.16
545.667	2292.29
545.872	2271.94
546.076	2279.5
546.281	2305.46
546.485	2259.93
546.689	2296.16
546.894	2330.84
547.098	2301.39
547.302	2245.4
547.507	2292.09
547.711	2300.04
547.915	2349.06
548.119	2225.06
548.324	2257.99
548.528	2327.74
548.732	2257.61
548.936	2330.65
549.141	2370.95
549.345	2273.3
549.549	2290.93
549.753	2337.62
549.957	2377.34
550.161	2363.59
550.366	2357
550.57	2327.16
550.774	2322.32
550.978	2340.92
551.182	2325.81
551.386	2324.84
551.59	2307.59
551.794	2285.89
551.998	2331.62
552.202	2312.44
552.406	2325.61
552.61	2366.88
552.814	2362.42
553.018	2399.04
553.222	2311.86
553.426	2367.46
553.63	2396.52
553.833	2355.45
554.037	2297.33
554.241	2345.57
554.445	2313.99
554.649	2331.81
554.853	2297.91
555.056	2412.8
555.26	2385.29
555.464	2335.69
555.668	2369.79
555.871	2367.85
556.075	2356.03
556.279	2357.19
556.483	2294.61
556.686	2294.23
556.89	2274.46
557.094	2308.37
557.297	2235.52
557.501	2313.21
557.704	2228.55
557.908	2340.92
558.112	2255.48
558.315	2324.06
558.519	2275.04
558.722	2258.58
558.926	2204.91
559.129	2194.06
559.333	2180.11
559.536	2183.21
559.74	2168.87
559.943	2119.47
560.147	2116.17
560.35	2165.38
560.553	2175.26
560.757	2144.27
560.96	2256.06
561.164	2164.8
561.367	2287.64
561.57	2180.3
561.774	2194.64
561.977	2191.35
562.18	2173.13
562.384	2285.89
562.587	2162.67
562.79	2121.4
562.993	2192.9
563.197	2199.1
563.4	2217.5
563.603	2221.57
563.806	2239.2
564.009	2153.37
564.212	2163.83
564.416	2129.93
564.619	2181.27
564.822	2100.67
565.025	2180.5
565.228	2097.38
565.431	2137.48
565.634	2047.2
565.837	2040.61
566.04	2047
566.243	2059.6
566.446	1954.01
566.649	2065.22
566.852	1987.72
567.055	2010.77
567.258	2045.45
567.461	2129.35
567.664	2068.12
567.867	1977.84
568.07	2032.09
568.273	2067.54
568.475	2093.89
568.678	2006.51
568.881	2001.09
569.084	1997.21
569.287	1877.09
569.489	1904.41
569.692	1954.01
569.895	1952.26
570.098	1886
570.3	1862.94
570.503	1854.03
570.706	1822.45
570.909	1873.79
571.111	1779.44
571.314	1783.12
571.516	1817.22
571.719	1815.48
571.922	1795.13
572.124	1838.73
572.327	1832.72
572.529	1800.75
572.732	1802.11
572.935	1811.79
573.137	1882.13
573.34	1797.85
573.542	1867.21
573.745	1854.23
573.947	1838.53
574.15	1776.53
574.352	1787.96
574.554	1844.34
574.757	1759.29
574.959	1734.3
575.162	1735.65
575.364	1725.58
575.566	1833.11
575.769	1710.27
575.971	1731
576.173	1615.53
576.376	1708.14
576.578	1723.83
576.78	1780.41
576.982	1685.86
577.185	1681.21
577.387	1697.29
577.589	1665.52
577.791	1681.02
577.993	1722.86
578.196	1696.9
578.398	1691.48
578.6	1697.68
578.802	1629.48
579.004	1598.48
579.206	1636.26
579.408	1667.26
579.61	1614.95
579.812	1675.98
580.014	1649.24
580.216	1627.74
580.418	1632.58
580.62	1636.65
580.822	1614.56
581.024	1652.92
581.226	1698.26
581.428	1689.73
581.63	1766.65
581.832	1684.31
582.034	1708.72
582.236	1685.47
582.438	1725.19
582.64	1712.4
582.841	1725.96
583.043	1788.35
583.245	1694.58
583.447	1718.6
583.649	1668.81
583.85	1694
584.052	1717.63
584.254	1676.95
584.456	1726.16
584.657	1637.23
584.859	1713.18
585.061	1635.87
585.262	1649.24
585.464	1641.68
585.666	1712.02
585.867	1610.88
586.069	1689.35
586.27	1653.5
586.472	1622.89
586.674	1625.8
586.875	1616.5
587.077	1608.75
587.278	1641.68
587.48	1608.94
587.681	1727.13
587.883	1653.5
588.084	1584.34
588.285	1595.96
588.487	1580.85
588.688	1549.27
588.89	1466.73
589.091	1453.36
589.292	1473.9
589.494	1444.64
589.695	1390.78
589.896	1316.19
590.098	1335.56
590.299	1412.87
590.5	1350.1
590.702	1398.14
590.903	1462.86
591.104	1483.01
591.305	1480.1
591.507	1510.32
591.708	1497.73
591.909	1474.67
592.11	1526.21
592.311	1505.67
592.512	1450.26
592.714	1411.9
592.915	1446.39
593.116	1435.15
593.317	1499.09
593.518	1436.89
593.719	1460.72
593.92	1491.14
594.121	1500.25
594.322	1478.36
594.523	1503.74
594.724	1427.59
594.925	1470.02
595.126	1452.98
595.327	1474.09
595.528	1450.84
595.729	1479.32
595.929	1445.61
596.13	1474.87
596.331	1479.13
596.532	1463.63
596.733	1535.9
596.934	1523.69
597.135	1508.19
597.335	1524.86
597.536	1482.62
597.737	1500.83
597.938	1463.05
598.138	1459.37
598.339	1480.49
598.54	1492.89
598.74	1460.34
598.941	1500.25
599.142	1528.54
599.342	1468.86
599.543	1477.97
599.744	1476.42
599.944	1475.45
600.145	1452.39
600.345	1461.89
600.546	1529.12
600.746	1464.6
600.947	1521.95
601.147	1475.45
601.348	1525.63
601.548	1402.41
601.749	1451.81
601.949	1411.71
602.15	1409.38
602.35	1440.58
602.551	1494.24
602.751	1413.84
602.951	1416.36
603.152	1395.63
603.352	1474.87
603.552	1434.18
603.753	1477.58
603.953	1503.74
604.153	1455.3
604.354	1473.32
604.554	1478.74
604.754	1466.15
604.954	1461.11
605.155	1478.55
605.355	1473.32
605.555	1525.05
605.755	1539
605.955	1465.76
606.155	1474.87
606.356	1457.04
606.556	1479.13
606.756	1472.93
606.956	1395.04
607.156	1494.44
607.356	1421.98
607.556	1480.49
607.756	1472.35
607.956	1496.57
608.156	1452.2
608.356	1428.56
608.556	1450.65
608.756	1443.87
608.956	1425.08
609.156	1447.36
609.356	1412.68
609.556	1382.45
609.755	1389.43
609.955	1362.88
610.155	1405.12
610.355	1413.84
610.555	1341.76
610.755	1396.4
610.954	1354.94
611.154	1397.37
611.354	1427.21
611.554	1373.15
611.753	1385.55
611.953	1323.94
612.153	1402.02
612.352	1349.51
612.552	1319.1
612.752	1302.05
612.951	1351.06
613.151	1344.48
613.351	1332.27
613.55	1326.65
613.75	1370.83
613.949	1294.3
614.149	1333.63
614.348	1322.39
614.548	1306.89
614.747	1228.81
614.947	1268.53
615.146	1228.23
615.346	1350.1
615.545	1321.23
615.745	1296.43
615.944	1320.26
616.144	1306.5
616.343	1297.98
616.542	1224.74
616.742	1238.5
616.941	1232.88
617.14	1215.25
617.34	1264.07
617.539	1266.2
617.738	1214.86
617.938	1308.25
618.137	1236.56
618.336	1238.11
618.535	1268.33
618.734	1253.22
618.934	1241.79
619.133	1243.73
619.332	1291.2
619.531	1211.37
619.73	1249.35
619.929	1292.36
620.128	1271.82
620.328	1280.35
620.527	1232.3
620.726	1230.75
620.925	1254.58
621.124	1264.65
621.323	1266.78
621.522	1200.72
621.721	1204.4
621.92	1202.07
622.119	1253.61
622.318	1217.18
622.517	1196.45
622.715	1219.12
622.914	1165.65
623.113	1193.16
623.312	1103.84
623.511	1195.29
623.71	1184.64
623.909	1166.23
624.107	1239.47
624.306	1171.07
624.505	1159.45
624.704	1162.94
624.902	1173.79
625.101	1218.73
625.3	1182.89
625.499	1142.59
625.697	1149.37
625.896	1123.41
626.095	1175.92
626.293	1102.1
626.492	1129.03
626.69	1155.96
626.889	1133.68
627.088	1192
627.286	1126.12
627.485	1103.84
627.683	1093.38
627.882	1146.85
628.08	1080.4
628.279	1090.47
628.477	1131.55
628.676	1051.72
628.874	1115.08
629.073	1051.53
629.271	1035.84
629.469	1090.86
629.668	1103.84
629.866	1063.16
630.065	1037
630.263	1070.91
630.461	1067.61
630.66	1082.72
630.858	1087.18
631.056	1108.88
631.254	1130.19
631.453	1047.66
631.651	1131.94
631.849	1097.45
632.047	1094.54
632.245	1106.17
632.444	1074.01
632.642	1103.46
632.84	1117.4
633.038	1090.47
633.236	1065.48
633.434	1084.86
633.632	1087.76
633.83	1111.2
634.028	1124.19
634.227	1071.29
634.425	1147.44
634.623	1071.87
634.821	1120.12
635.019	1117.6
635.216	1081.95
635.414	1146.85
635.612	1114.69
635.81	1076.14
636.008	1142.59
636.206	1075.94
636.404	1148.99
636.602	1061.99
636.8	1062.77
636.997	1094.74
637.195	1128.06
637.393	1064.32
637.591	1155.57
637.789	1114.11
637.986	1098.22
638.184	1108.3
638.382	1116.24
638.58	1105.39
638.777	1148.4
638.975	1059.86
639.173	1105.2
639.37	1075.75
639.568	1129.22
639.765	1086.6
639.963	1055.79
640.161	1097.45
640.358	1111.01
640.556	1052.11
640.753	1039.32
640.951	1038.16
641.148	1049.4
641.346	1070.32
641.543	1018.98
641.741	1068
641.938	984.69
642.136	1054.82
642.333	994.57
642.531	1075.75
642.728	1051.53
642.925	1049.98
643.123	1028.67
643.32	999.61
643.517	1025.96
643.715	998.83
643.912	989.34
644.109	980.81
644.306	974.03
644.504	994.76
644.701	986.63
644.898	1025.18
645.095	972.29
645.293	1030.8
645.49	983.14
645.687	975.39
645.884	1001.93
646.081	914.94
646.278	934.31
646.475	914.36
646.672	939.54
646.87	930.44
647.067	912.42
647.264	925.01
647.461	866.31
647.658	840.54
647.855	946.33
648.052	872.7
648.249	823.68
648.446	887.62
648.642	854.88
648.839	826.2
649.036	844.03
649.233	818.45
649.43	818.84
649.627	809.93
649.824	828.72
650.021	824.65
650.217	835.7
650.414	812.64
650.611	874.25
650.808	853.71
651.004	838.41
651.201	871.15
651.398	867.66
651.595	850.03
651.791	800.82
651.988	846.16
652.185	820.39
652.381	885.3
652.578	808.96
652.775	823.68
652.971	828.53
653.168	802.37
653.364	814.38
653.561	788.23
653.757	820
653.954	832.02
654.15	804.31
654.347	864.56
654.543	815.16
654.74	755.87
654.936	747.15
655.133	805.08
655.329	798.5
655.525	794.82
655.722	810.32
655.918	703.37
656.115	801.98
656.311	698.52
656.507	668.3
656.704	647.18
656.9	683.6
657.096	662.1
657.292	683.02
657.489	757.62
657.685	702.98
657.881	711.5
658.077	717.9
658.273	734.95
658.47	790.36
658.666	742.5
658.862	754.71
659.058	735.14
659.254	778.15
659.45	730.88
659.646	766.92
659.842	762.65
660.038	803.53
660.234	726.81
660.43	741.92
660.626	812.45
660.822	772.53
661.018	777.18
661.214	741.15
661.41	720.03
661.606	755.87
661.802	761.88
661.998	756.26
662.194	716.35
662.39	738.05
662.586	760.52
662.781	733.79
662.977	767.11
663.173	727
663.369	717.9
663.564	747.93
663.76	739.21
663.956	696
664.152	720.42
664.347	686.9
664.543	690.77
664.739	692.32
664.934	623.93
665.13	644.47
665.326	740.57
665.521	708.4
665.717	674.5
665.912	650.28
666.108	631.87
666.304	648.15
666.499	680.12
666.695	581.5
666.89	660.74
667.086	691.74
667.281	632.84
667.477	741.92
667.672	663.46
667.867	666.36
668.063	674.5
668.258	627.61
668.454	636.72
668.649	718.87
668.844	677.21
669.04	673.34
669.235	649.7
669.43	640.4
669.626	608.24
669.821	638.66
670.016	579.56
670.211	625.09
670.407	585.76
670.602	638.27
670.797	614.24
670.992	645.63
671.187	579.56
671.382	639.04
671.578	596.61
671.773	629.94
671.968	580.14
672.163	609.79
672.358	608.82
672.553	604.36
672.748	597.77
672.943	696.2
673.138	627.42
673.333	647.76
673.528	569.49
673.723	639.04
673.918	580.53
674.113	570.65
674.308	677.79
674.503	609.79
674.698	633.81
674.892	607.85
675.087	639.82
675.282	605.52
675.477	591.19
675.672	635.17
675.867	567.16
676.061	582.08
676.256	531.32
676.451	585.57
676.646	590.8
676.84	567.55
677.035	558.83
677.23	557.86
677.424	620.25
677.619	649.51
677.814	603.01
678.008	635.94
678.203	507.88
678.397	544.49
678.592	601.84
678.787	649.31
678.981	559.22
679.176	591.96
679.37	590.02
679.565	577.82
679.759	561.54
679.954	603.01
680.148	651.06
680.342	631.49
680.537	607.66
680.731	562.13
680.926	606.3
681.12	624.9
681.314	555.73
681.509	569.68
681.703	557.28
681.897	610.37
682.092	579.95
682.286	576.08
682.48	659
682.674	613.08
682.869	596.42
683.063	620.44
683.257	650.28
683.451	581.89
683.645	623.16
683.839	609.21
684.034	593.12
684.228	632.65
684.422	580.14
684.616	595.06
684.81	625.87
685.004	604.75
685.198	627.42
685.392	654.74
685.586	603.97
685.78	655.12
685.974	665.97
686.168	662.68
686.362	678.76
686.556	569.49
686.75	565.61
686.944	581.11
687.138	583.05
687.331	481.91
687.525	515.43
687.719	477.26
687.913	522.02
688.107	513.49
688.301	489.86
688.494	583.82
688.688	522.41
688.882	507.68
689.076	524.93
689.269	561.35
689.463	628.39
689.657	568.33
689.85	590.61
690.044	608.24
690.238	608.82
690.431	620.25
690.625	608.43
690.818	684.38
691.012	665.97
691.205	718.48
691.399	680.89
691.593	684.38
691.786	750.45
691.98	776.99
692.173	822.52
692.366	799.85
692.56	815.55
692.753	874.45
692.947	775.44
693.14	845.96
693.333	861.46
693.527	817.1
693.72	869.8
693.914	826.59
694.107	841.51
694.3	875.03
694.493	861.27
694.687	910.87
694.88	874.83
695.073	971.13
695.266	945.16
695.46	975
695.653	986.63
695.846	998.83
696.039	957.76
696.232	974.61
696.425	1043.01
696.618	1084.08
696.812	1086.02
697.005	1122.64
697.198	1228.03
697.391	1160.03
697.584	1171.27
697.777	1206.53
697.97	1246.05
698.163	1245.47
698.356	1217.57
698.549	1315.8
698.742	1295.65
698.935	1224.16
699.127	1271.63
699.32	1251.48
699.513	1268.53
699.706	1299.14
699.899	1299.33
700.092	1305.73
700.285	1334.79
700.477	1298.17
700.67	1321.42
700.863	1313.28
701.056	1430.11
701.248	1417.71
701.441	1422.75
701.634	1351.26
701.826	1469.64
702.019	1382.06
702.212	1467.89
702.404	1381.29
702.597	1392.91
702.79	1430.69
702.982	1500.25
703.175	1527.57
703.367	1531.06
703.56	1556.24
703.752	1654.47
703.945	1600.8
704.137	1628.9
704.33	1666.68
704.522	1655.44
704.715	1684.89
704.907	1681.98
705.1	1691.28
705.292	1718.41
705.484	1725.38
705.677	1749.02
705.869	1742.05
706.061	1766.65
706.254	1820.9
706.446	1771.69
706.638	1783.7
706.831	1822.06
707.023	1815.48
707.215	1927.07
707.407	1879.99
707.599	1852.29
707.792	1918.74
707.984	1919.52
708.176	1912.35
708.368	1900.53
708.56	1935.41
708.752	1991.01
708.944	1940.06
709.136	1987.33
709.329	1961.37
709.521	2055.14
709.713	2042.55
709.905	2057.27
710.097	2095.63
710.289	2061.34
710.481	2079.17
710.672	2086.53
710.864	2137.87
711.056	2163.06
711.248	2140.58
711.44	2165.38
711.632	2183.01
711.824	2177.78
712.016	2194.25
712.207	2223.51
712.399	2187.47
712.591	2272.33
712.783	2237.46
712.975	2268.46
713.166	2185.92
713.358	2280.47
713.55	2266.33
713.741	2299.84
713.933	2304.69
714.125	2289.58
714.316	2253.54
714.508	2333.36
714.7	2341.89
714.891	2279.89
715.083	2365.14
715.274	2278.34
715.466	2347.7
715.657	2365.33
715.849	2279.11
716.04	2289.77
716.232	2213.24
716.423	2293.45
716.615	2190.96
716.806	2163.25
716.998	2097.18
717.189	2070.06
717.381	1951.1
717.572	1910.02
717.763	1932.31
717.955	1901.89
718.146	1881.93
718.337	1822.84
718.528	1798.62
718.72	1706.59
718.911	1775.56
719.102	1708.53
719.293	1759.68
719.485	1720.15
719.676	1727.9
719.867	1700.2
720.058	1691.48
720.249	1706.01
720.44	1713.76
720.632	1739.91
720.823	1848.03
721.014	1936.76
721.205	1990.43
721.396	2036.74
721.587	2145.82
721.778	2176.23
721.969	2193.48
722.16	2287.06
722.351	2318.64
722.542	2401.95
722.733	2370.95
722.924	2323.68
723.115	2360.68
723.305	2349.25
723.496	2335.11
723.687	2223.12
723.878	2218.47
724.069	2226.41
724.26	2224.67
724.45	2105.9
724.641	2139.03
724.832	2177.78
725.023	2139.62
725.213	2162.48
725.404	2145.04
725.595	2141.75
725.785	2151.63
725.976	2203.16
726.167	2167.9
726.357	2155.12
726.548	2264
726.739	2201.81
726.929	2285.7
727.12	2277.37
727.31	2300.43
727.501	2263.42
727.691	2272.53
727.882	2265.74
728.072	2298.49
728.263	2301.98
728.453	2358.36
728.644	2398.07
728.834	2331.04
729.024	2275.43
729.215	2294.03
729.405	2315.15
729.596	2420.94
729.786	2458.52
729.976	2427.33
730.167	2459.88
730.357	2388
730.547	2409.89
730.737	2405.63
730.928	2447.67
731.118	2505.99
731.308	2446.12
731.498	2470.15
731.688	2595.31
731.879	2568.18
732.069	2621.27
732.259	2681.72
732.449	2671.45
732.639	2741.2
732.829	2745.46
733.019	2800.49
733.209	2872.56
733.399	2879.34
733.589	2948.12
733.779	2986.68
733.969	2975.05
734.159	3099.83
734.349	3064.56
734.539	3106.61
734.729	3113.97
734.919	3130.63
735.109	3167.06
735.299	3091.5
735.488	3165.7
735.678	3175.97
735.868	3114.94
736.058	3103.12
736.248	3108.55
736.437	3096.92
736.627	3085.88
736.817	3205.22
737.007	3186.24
737.196	3190.31
737.386	3205.03
737.576	3162.6
737.765	3207.74
737.955	3173.45
738.144	3328.64
738.334	3272.65
738.524	3208.52
738.713	3255.6
738.903	3234.29
739.092	3320.31
739.282	3277.11
739.471	3300.74
739.661	3304.42
739.85	3350.34
740.04	3319.15
740.229	3363.32
740.419	3364.29
740.608	3442.76
740.797	3351.31
740.987	3459.03
741.176	3407.88
741.365	3369.14
741.555	3376.11
741.744	3423.97
741.933	3392.58
742.123	3447.41
742.312	3496.62
742.501	3484.22
742.69	3526.85
742.88	3472.21
743.069	3546.41
743.258	3489.65
743.447	3556.29
743.636	3528.4
743.825	3513.86
744.014	3543.7
744.204	3577.99
744.393	3509.99
744.582	3630.5
744.771	3625.46
744.96	3577.03
745.149	3634.96
745.338	3606.48
745.527	3590.98
745.716	3565.4
745.905	3569.47
746.094	3627.59
746.283	3626.24
746.471	3596.59
746.66	3634.57
746.849	3630.11
747.038	3673.9
747.227	3614.42
747.416	3630.11
747.604	3601.05
747.793	3562.49
747.982	3593.49
748.171	3662.86
748.359	3574.31
748.548	3596.01
748.737	3586.33
748.926	3591.56
749.114	3483.64
749.303	3610.54
749.491	3576.25
749.68	3492.94
749.869	3593.88
750.057	3529.95
750.246	3549.71
750.434	3553.39
750.623	3578.19
750.811	3514.25
751	3571.21
751.188	3552.81
751.377	3524.71
751.565	3491.39
751.754	3501.46
751.942	3491
752.131	3549.71
752.319	3495.85
752.507	3490.42
752.696	3517.55
752.884	3539.25
753.072	3529.17
753.261	3504.95
753.449	3500.11
753.637	3490.42
753.825	3609.58
754.014	3530.91
754.202	3507.08
754.39	3524.91
754.578	3507.86
754.766	3490.81
754.955	3414.47
755.143	3546.8
755.331	3441.6
755.519	3470.85
755.707	3456.9
755.895	3433.46
756.083	3452.25
756.271	3411.76
756.459	3441.21
756.647	3473.76
756.835	3397.62
757.023	3370.49
757.211	3389.48
757.399	3407.88
757.587	3414.67
757.775	3361.58
757.963	3373.59
758.151	3379.21
758.339	3311.59
758.526	3361.77
758.714	3336.2
758.902	3250.37
759.09	3124.04
759.278	2927.78
759.465	2694.7
759.653	2327.16
759.841	2084.01
760.028	1798.43
760.216	1524.86
760.404	1457.62
760.591	1192.39
760.779	992.24
760.967	860.11
761.154	710.54
761.342	762.07
761.529	772.53
761.717	805.28
761.905	773.5
762.092	825.62
762.28	738.44
762.467	765.75
762.655	713.25
762.842	740.18
763.029	734.75
763.217	723.32
763.404	740.18
763.592	756.07
763.779	730.69
763.966	759.36
764.154	780.87
764.341	819.03
764.528	887.23
764.716	936.25
764.903	1012.01
765.09	1062.57
765.277	1118.95
765.465	1250.9
765.652	1305.15
765.839	1391.36
766.026	1542.1
766.213	1569.42
766.4	1683.92
766.588	1866.24
766.775	1932.5
766.962	2006.7
767.149	2068.51
767.336	2227.38
767.523	2210.33
767.71	2363.78
767.897	2459.1
768.084	2501.54
768.271	2574.19
768.458	2631.15
768.645	2692.76
768.832	2705.16
769.019	2733.06
769.206	2733.64
769.392	2814.63
769.579	2920.03
769.766	2864.42
769.953	2881.47
770.14	2944.83
770.327	2940.76
770.513	2996.95
770.7	3038.6
770.887	2942.7
771.073	2966.72
771.26	2996.17
771.447	2942.31
771.634	2960.72
771.82	3101.18
772.007	2967.88
772.193	2986.68
772.38	3031.05
772.567	2974.08
772.753	3010.7
772.94	3078.32
773.126	3027.95
773.313	3090.53
773.499	3033.95
773.686	3026.59
773.872	3021.94
774.059	3018.45
774.245	2943.86
774.432	2986.1
774.618	2905.11
774.804	2979.9
774.991	2933.4
775.177	3036.47
775.363	2976.6
775.55	2987.65
775.736	2931.27
775.922	2964.4
776.109	2970.6
776.295	2951.61
776.481	2969.82
776.667	2999.66
776.853	2947.73
777.04	2912.47
777.226	2941.54
777.412	2952
777.598	2900.27
777.784	2888.25
777.97	2888.84
778.156	2928.75
778.342	2899.1
778.528	2904.92
778.715	2857.64
778.901	2869.46
779.087	2856.67
779.272	2823.35
779.458	2815.79
779.644	2897.75
779.83	2856.09
780.016	2913.44
780.202	2834.2
780.388	2841.76
780.574	2764.45
780.76	2798.94
780.946	2849.31
781.131	2842.34
781.317	2779.17
781.503	2838.46
781.689	2782.08
781.874	2913.44
782.06	2761.74
782.246	2796.81
782.432	2777.62
782.617	2789.44
782.803	2861.13
782.989	2722.02
783.174	2730.54
783.36	2702.64
783.545	2717.76
783.731	2730.74
783.916	2648.01
784.102	2707.1
784.288	2695.48
784.473	2699.74
784.659	2663.9
784.844	2740.04
785.029	2698.38
785.215	2687.34
785.4	2645.49
785.586	2726.48
785.771	2607.32
785.956	2673.58
786.142	2640.06
786.327	2616.04
786.512	2607.32
786.698	2619.72
786.883	2534.28
787.068	2543
787.254	2552.88
787.439	2611.39
787.624	2564.12
787.809	2553.85
787.994	2519.17
788.18	2591.43
788.365	2497.47
788.55	2522.46
788.735	2487.97
788.92	2459.49
789.105	2492.62
789.29	2486.42
789.475	2446.32
789.66	2467.82
789.845	2434.5
790.03	2456.2
790.215	2468.02
790.4	2470.92
790.585	2458.72
790.77	2400.01
790.955	2346.34
791.14	2411.83
791.325	2485.65
791.51	2337.43
791.695	2431.79
791.879	2446.12
792.064	2381.61
792.249	2459.3
792.434	2374.44
792.618	2398.07
792.803	2441.67
792.988	2388.19
793.173	2440.12
793.357	2421.52
793.542	2366.88
793.727	2428.49
793.911	2456.78
794.096	2408.92
794.281	2436.44
794.465	2528.47
794.65	2415.12
794.834	2468.21
795.019	2484.87
795.203	2450.19
795.388	2486.23
795.572	2499.4
795.757	2484.49
795.941	2464.14
796.126	2466.47
796.31	2416.48
796.494	2433.14
796.679	2419
796.863	2392.65
797.048	2482.55
797.232	2455.04
797.416	2461.43
797.601	2439.34
797.785	2499.4
797.969	2501.73
798.153	2420.16
798.338	2469.76
798.522	2512.58
798.706	2482.74
798.89	2487.39
799.074	2553.46
799.258	2581.36
799.443	2517.03
799.627	2475.57
799.811	2535.25
799.995	2481.97
800.179	2434.3
800.363	2435.66
800.547	2514.13
800.731	2522.46
800.915	2429.85
801.099	2417.84
801.283	2430.43
801.467	2468.6
801.651	2446.51
801.835	2441.86
802.019	2457.17
802.202	2491.46
802.386	2413.96
802.57	2380.83
802.754	2391.1
802.938	2410.09
803.121	2393.04
803.305	2484.49
803.489	2460.07
803.673	2445.93
803.856	2467.63
804.04	2395.36
804.224	2453.1
804.407	2427.72
804.591	2434.3
804.775	2420.94
804.958	2449.42
805.142	2518.58
805.326	2466.27
805.509	2430.82
805.693	2507.54
805.876	2496.89
806.06	2469.37
806.243	2497.85
806.427	2501.73
806.61	2533.5
806.794	2504.05
806.977	2515.29
807.16	2503.86
807.344	2470.73
807.527	2490.1
807.71	2455.42
807.894	2453.87
808.077	2469.18
808.26	2465.5
808.444	2399.43
808.627	2472.86
808.81	2434.69
808.993	2342.08
809.177	2367.46
809.36	2378.89
809.543	2446.32
809.726	2298.1
809.909	2314.18
810.092	2307.01
810.276	2323.48
810.459	2306.24
810.642	2287.64
810.825	2283.96
811.008	2244.82
811.191	2177.2
811.374	2219.25
811.557	2216.53
811.74	2257.99
811.923	2107.84
812.106	2140.2
812.289	2106.48
812.472	2112.1
812.654	2104.74
812.837	2083.82
813.02	2053.4
813.203	1981.32
813.386	1889.88
813.569	1884.84
813.751	1818.96
813.934	1877.09
814.117	1850.16
814.3	1819.16
814.482	1738.95
814.665	1694.58
814.848	1701.94
815.03	1647.5
815.213	1631.42
815.396	1610.88
815.578	1593.05
815.761	1544.42
815.943	1635.1
816.126	1583.37
816.309	1519.04
816.491	1446.97
816.674	1372.38
816.856	1468.09
817.039	1461.11
817.221	1511.87
817.403	1446
817.586	1489.98
817.768	1494.24
817.951	1422.17
818.133	1419.65
818.315	1474.67
818.498	1456.85
818.68	1545.97
818.862	1514.97
819.045	1541.91
819.227	1537.26
819.409	1500.06
819.591	1570
819.774	1495.21
819.956	1461.89
820.138	1577.17
820.32	1519.62
820.502	1580.07
820.684	1661.06
820.866	1664.16
821.048	1722.28
821.231	1714.73
821.413	1722.86
821.595	1699.42
821.777	1719.57
821.959	1735.07
822.141	1762.2
822.323	1609.14
822.505	1601.77
822.686	1527.18
822.868	1462.86
823.05	1329.75
823.232	1311.15
823.414	1274.73
823.596	1322.78
823.778	1358.81
823.96	1373.15
824.141	1362.69
824.323	1395.82
824.505	1429.14
824.687	1544.42
824.868	1556.24
825.05	1619.02
825.232	1664.93
825.413	1709.5
825.595	1707.37
825.777	1633.16
825.958	1652.92
826.14	1638
826.321	1669.39
826.503	1664.74
826.685	1681.98
826.866	1700.2
827.048	1702.72
827.229	1626.57
827.411	1579.3
827.592	1542.29
827.773	1545.39
827.955	1523.31
828.136	1519.04
828.318	1477.39
828.499	1515.36
828.68	1467.51
828.862	1519.82
829.043	1528.73
829.224	1452.39
829.406	1467.31
829.587	1483.39
829.768	1483.39
829.949	1490.37
830.131	1503.54
830.312	1505.67
830.493	1480.1
830.674	1524.66
830.855	1489.4
831.036	1505.09
831.218	1565.93
831.399	1568.64
831.58	1506.26
831.761	1506.84
831.942	1497.15
832.123	1519.43
832.304	1449.88
832.485	1448.33
832.666	1486.49
832.847	1518.46
833.028	1486.69
833.209	1505.48
833.389	1486.3
833.57	1462.86
833.751	1461.31
833.932	1515.75
834.113	1517.11
834.294	1506.84
834.475	1536.67
834.655	1555.27
834.836	1532.99
835.017	1531.64
835.198	1471.57
835.378	1515.75
835.559	1567.87
835.74	1506.06
835.92	1511.49
836.101	1521.76
836.281	1565.93
836.462	1561.28
836.643	1570.58
836.823	1600.03
837.004	1552.75
837.184	1606.62
837.365	1591.12
837.545	1581.62
837.726	1557.02
837.906	1621.34
838.087	1571.74
838.267	1570
838.448	1552.37
838.628	1592.09
838.808	1574.26
838.989	1600.42
839.169	1547.33
839.349	1611.46
839.53	1619.21
839.71	1593.83
839.89	1576.39
840.07	1629.09
840.251	1553.34
840.431	1592.47
840.611	1568.25
840.791	1545.78
840.971	1579.49
841.151	1580.65
841.332	1541.91
841.512	1585.11
841.692	1505.09
841.872	1581.82
842.052	1571.94
842.232	1599.45
842.412	1515.17
842.592	1557.99
842.772	1584.14
842.952	1569.03
843.132	1524.27
843.312	1535.71
843.492	1548.69
843.672	1588.4
843.851	1454.14
844.031	1557.6
844.211	1523.11
844.391	1501.41
844.571	1529.12
844.751	1553.34
844.93	1530.86
845.11	1525.63
845.29	1522.92
845.47	1579.69
845.649	1564.38
845.829	1577.94
846.009	1512.84
846.188	1532.41
846.368	1534.93
846.547	1525.24
846.727	1542.1
846.907	1487.27
847.086	1551.59
847.266	1582.2
847.445	1490.95
847.625	1496.76
847.804	1477.39
847.984	1482.62
848.163	1485.52
848.343	1493.86
848.522	1496.76
848.701	1516.72
848.881	1476.03
849.06	1493.47
849.239	1488.62
849.419	1462.86
849.598	1408.99
849.777	1424.88
849.957	1396.01
850.136	1350.29
850.315	1348.16
850.494	1344.28
850.674	1386.91
850.853	1420.62
851.032	1395.04
851.211	1429.34
851.39	1395.24
851.569	1346.41
851.748	1341.76
851.927	1418.88
852.107	1386.52
852.286	1323.94
852.465	1328.98
852.644	1399.5
852.823	1384.58
853.002	1398.34
853.181	1352.61
853.359	1383.81
853.538	1338.08
853.717	1391.36
853.896	1292.16
854.075	1230.94
854.254	1199.75
854.433	1137.94
854.611	1225.52
854.79	1133.1
854.969	1227.26
855.148	1224.74
855.327	1171.27
855.505	1223.19
855.684	1219.51
855.863	1245.47
856.041	1223.97
856.22	1274.92
856.399	1254.77
856.577	1332.46
856.756	1333.24
856.934	1441.93
857.113	1417.91
857.291	1325.3
857.47	1322.39
857.648	1320.26
857.827	1339.05
858.005	1370.05
858.184	1289.06
858.362	1379.93
858.541	1330.33
858.719	1321.81
858.898	1316.96
859.076	1275.7
859.254	1370.44
859.433	1303.01
859.611	1270.47
859.789	1265.04
859.967	1375.67
860.146	1371.79
860.324	1258.65
860.502	1295.46
860.68	1258.45
860.859	1257.48
861.037	1256.52
861.215	1297.59
861.393	1253.42
861.571	1278.02
861.749	1244.5
861.927	1267.95
862.105	1283.64
862.283	1249.54
862.461	1242.95
862.639	1220.48
862.817	1237.14
862.995	1255.93
863.173	1214.67
863.351	1226.48
863.529	1261.55
863.707	1285.77
863.885	1246.44
864.063	1178.63
864.241	1200.72
864.418	1251.67
864.596	1216.22
864.774	1183.09
864.952	1209.24
865.129	1213.7
865.307	1180.18
865.485	1152.67
865.663	1198.97
865.84	1148.4
866.018	1166.62
866.196	1042.04
866.373	1080.59
866.551	1024.99
866.728	1007.55
866.906	1015.88
867.084	1056.37
867.261	1072.46
867.439	1089.89
867.616	1120.12
867.794	1108.49
867.971	1155.96
868.149	1120.12
868.326	1156.93
868.503	1134.26
868.681	1140.27
868.858	1122.83
869.035	1119.34
869.213	1156.93
869.39	1108.69
869.567	1183.86
869.745	1133.1
869.922	1114.89
870.099	1141.62
870.276	1130.39
870.454	1142.98
870.631	1158.67
870.808	1116.05
870.985	1135.04
871.162	1166.62
871.339	1134.65
871.517	1084.86
871.694	1076.14
871.871	1118.57
872.048	1104.04
872.225	1110.62
872.402	1097.45
872.579	1060.25
872.756	1088.92
872.933	1057.34
873.11	1066.45
873.287	1085.24
873.463	1027.89
873.64	1043.78
873.817	1102.1
873.994	1074.59
874.171	1050.17
874.348	1043.01
874.524	1031.57
874.701	1056.76
874.878	984.88
875.055	1065.09
875.231	1038.55
875.408	1074.78
875.585	1017.43
875.762	1039.13
875.938	1052.31
876.115	1049.4
876.291	1022.47
876.468	1025.76
876.645	970.74
876.821	999.22
876.998	996.31
877.174	1043.78
877.351	975.78
877.527	988.37
877.704	997.67
877.88	989.92
878.057	966.67
878.233	1028.67
878.409	1000.96
878.586	1009.1
878.762	961.44
878.938	972.87
879.115	920.36
879.291	986.24
879.467	946.71
879.644	944.58
879.82	978.49
879.996	927.92
880.172	913
880.349	954.66
880.525	971.9
880.701	927.73
880.877	944.78
881.053	948.84
881.229	956.98
881.405	981.01
881.581	936.25
881.757	939.16
881.933	968.03
882.109	965.31
882.285	958.53
882.461	888.01
882.637	944.97
882.813	922.88
882.989	907.58
883.165	987.01
883.341	902.35
883.517	947.68
883.693	945.94
883.869	963.57
884.044	919.78
884.22	962.41
884.396	995.73
884.572	987.79
884.747	990.31
884.923	944.19
885.099	943.42
885.275	988.37
885.45	919.01
885.626	904.48
885.801	927.92
885.977	942.06
886.153	842.09
886.328	961.63
886.504	912.42
886.679	946.33
886.855	914.75
887.03	946.91
887.206	953.3
887.381	950.39
887.557	933.54
887.732	931.21
887.908	940.51
888.083	918.23
888.258	926.18
888.434	892.27
888.609	937.8
888.784	959.89
888.96	913.58
889.135	907.58
889.31	885.1
889.485	931.8
889.661	944.39
889.836	950.01
890.011	936.64
890.186	898.28
890.361	887.62
890.537	936.25
890.712	916.49
890.887	925.79
891.062	923.08
891.237	973.06
891.412	902.73
891.587	931.21
891.762	944.19
891.937	947.29
892.112	877.74
892.287	893.05
892.462	841.51
892.637	852.55
892.812	825.82
892.987	860.3
893.161	828.92
893.336	842.09
893.511	834.73
893.686	876
893.861	858.17
894.035	837.83
894.21	825.82
894.385	782.03
894.56	802.95
894.734	760.91
894.909	740.57
895.084	773.89
895.258	734.17
895.433	753.35
895.608	721
895.782	685.15
895.957	706.08
896.131	705.69
896.306	654.54
896.48	631.29
896.655	650.09
896.829	618.31
897.004	579.37
897.178	623.93
897.353	571.23
897.527	634.97
897.701	638.85
897.876	564.26
898.05	652.41
898.224	625.29
898.399	653.77
898.573	595.45
898.747	495.28
898.921	551.08
899.096	492.57
899.27	477.85
899.444	473
899.618	523.76
899.792	533.64
899.967	544.3
900.141	565.81
900.315	510.01
900.489	518.73
900.663	510.2
900.837	519.69
901.011	440.45
901.185	576.85
901.359	519.89
901.533	516.79
901.707	516.98
901.881	511.56
902.055	494.12
902.229	503.03
902.403	535.58
902.576	510.98
902.75	538.68
902.924	622.96
903.098	568.91
903.272	618.7
903.446	641.56
903.619	636.72
903.793	690.19
903.967	678.37
904.14	652.22
904.314	683.6
904.488	669.07
904.661	668.11
904.835	655.71
905.009	713.44
905.182	731.85
905.356	714.99
905.529	665.2
905.703	628.39
905.876	629.94
906.05	604.94
906.223	604.56
906.397	549.34
906.57	530.16
906.744	516.4
906.917	525.31
907.09	532.68
907.264	495.28
907.437	505.74
907.61	459.05
907.784	476.3
907.957	500.71
908.13	450.33
908.304	486.76
908.477	468.93
908.65	476.3
908.823	436.19
908.996	498.58
909.17	460.02
909.343	456.73
909.516	443.36
909.689	438.13
909.862	423.4
910.035	463.31
910.208	413.13
910.381	443.75
910.554	496.64
910.727	439.87
910.9	441.61
911.073	417.59
911.246	476.49
911.419	492.18
911.592	477.07
911.765	431.73
911.938	430.76
912.11	437.16
912.283	462.35
912.456	496.06
912.629	484.24
912.802	388.92
912.974	386.78
913.147	363.15
913.32	341.25
913.493	347.84
913.665	372.06
913.838	364.12
914.01	365.28
914.183	416.81
914.356	411.97
914.528	446.46
914.701	469.51
914.873	451.88
915.046	384.27
915.218	359.08
915.391	298.63
915.563	333.12
915.736	386.98
915.908	391.05
916.081	406.55
916.253	362.18
916.425	413.71
916.598	407.13
916.77	391.43
916.942	369.93
917.115	318.59
917.287	379.62
917.459	331.76
917.632	330.98
917.804	283.71
917.976	332.34
918.148	357.14
918.32	378.84
918.493	396.86
918.665	447.62
918.837	388.53
919.009	442.2
919.181	436.58
919.353	429.02
919.525	403.45
919.697	394.34
919.869	419.14
920.041	459.63
920.213	528.8
920.385	438.9
920.557	413.33
920.729	437.16
920.901	430.76
921.073	395.89
921.244	433.48
921.416	434.83
921.588	417.59
921.76	412.16
921.932	489.66
922.103	420.69
922.275	433.48
922.447	424.18
922.619	351.13
922.79	401.9
922.962	384.65
923.134	418.36
923.305	363.92
923.477	356.95
923.648	340.48
923.82	367.02
923.991	310.84
924.163	300.76
924.335	367.6
924.506	311.8
924.677	377.48
924.849	350.36
925.02	390.47
925.192	362.57
925.363	356.17
925.535	361.6
925.706	340.09
925.877	402.28
926.049	306.96
926.22	335.63
926.391	362.57
926.562	405.97
926.734	333.31
926.905	346.29
927.076	320.14
927.247	350.94
927.419	264.34
927.59	276.35
927.761	280.61
927.932	243.99
928.103	277.7
928.274	243.99
928.445	236.05
928.616	249.03
928.787	253.49
928.958	244.38
929.129	259.69
929.3	221.52
929.471	200.01
929.642	175.6
929.813	126
929.984	204.86
930.155	115.34
930.326	188.19
930.496	157
930.667	87.25
930.838	132.39
931.009	128.13
931.18	102.56
931.35	112.05
931.521	162.23
931.692	104.88
931.863	11.5
932.033	77.37
932.204	85.89
932.374	100.81
932.545	65.74
932.716	116.12
932.886	106.82
933.057	17.7
933.227	71.17
933.398	113.21
933.568	16.15
933.739	29.71
933.909	7.62
934.08	75.04
934.25	0.26
934.421	25.06
934.591	42.3
934.761	8.4
934.932	-7.49
935.102	20.02
935.272	33
935.443	38.43
935.613	-9.04
935.783	43.85
935.953	25.64
936.123	126.58
936.294	10.14
936.464	18.66
936.634	29.32
936.804	-26.67
936.974	-23.96
937.144	40.56
937.314	39.98
937.484	5.1
937.655	2.2
937.825	69.43
937.995	-4.59
938.165	34.55
938.334	20.8
938.504	29.51
938.674	26.8
938.844	36.3
939.014	74.66
939.184	92.09
939.354	109.73
939.524	88.8
939.694	54.31
939.863	40.75
940.033	112.83
940.203	110.5
940.373	103.53
940.542	94.61
940.712	64.78
940.882	89.19
941.051	143.83
941.221	72.53
941.391	103.14
941.56	72.14
941.73	24.86
941.899	143.24
942.069	58
942.238	117.86
942.408	76.01
942.577	67.49
942.747	72.33
942.916	18.47
943.086	38.62
943.255	73.11
943.425	59.54
943.594	54.7
943.763	9.36
943.933	1.61
944.102	-12.72
944.271	76.01
944.441	56.25
944.61	30.29
944.779	36.1
944.948	122.9
945.117	5.1
945.287	20.21
945.456	-25.51
945.625	6.07
945.794	66.13
945.963	17.11
946.132	53.73
946.301	32.03
946.47	52.57
946.639	11.11
946.808	18.47
946.977	67.49
947.146	87.64
947.315	28.16
947.484	61.87
947.653	48.7
947.822	12.85
947.991	29.9
948.16	116.31
948.329	81.83
948.498	62.84
948.666	33.39
948.835	80.28
949.004	-0.71
949.173	15.95
949.341	46.37
949.51	46.37
949.679	112.83
949.847	64
950.016	138.01
950.185	93.26
950.353	46.18
950.522	42.3
950.69	98.29
950.859	38.62
951.028	98.1
951.196	70.01
951.365	21.96
951.533	39.4
951.701	68.07
951.87	76.21
952.038	20.6
952.207	33
952.375	113.6
952.543	43.08
952.712	39.98
952.88	22.54
953.048	101.39
953.217	23.51
953.385	39.2
953.553	95.97
953.721	11.88
953.89	58.38
954.058	27.58
954.226	10.53
954.394	53.54
954.562	4.13
954.73	27.19
954.898	27.58
955.067	77.95
955.235	56.06
955.403	61.68
955.571	112.83
955.739	52.96
955.907	19.63
956.075	32.81
956.243	23.31
956.41	45.01
956.578	9.36
956.746	10.33
956.914	35.52
957.082	82.21
957.25	59.35
957.418	39.2
957.585	61.09
957.753	92.87
957.921	21.57
958.089	71.94
958.256	88.22
958.424	91.9
958.592	67.88
958.759	6.46
958.927	74.66
959.095	24.48
959.262	46.18
959.43	52.76
959.597	18.08
959.765	30.87
959.932	32.42
960.1	73.49
960.267	71.94
960.435	56.83
960.602	92.09
960.77	29.51
960.937	28.16
961.104	56.06
961.272	33.97
961.439	36.3
961.606	53.73
961.774	95
961.941	34.16
962.108	90.54
962.275	65.74
962.443	80.28
962.61	61.87
962.777	117.86
962.944	87.44
963.111	59.16
963.278	56.83
963.446	66.91
963.613	57.61
963.78	72.14
963.947	76.79
964.114	84.54
964.281	157.77
964.448	85.89
964.615	60.13
964.782	74.46
964.949	91.71
965.116	91.13
965.282	114.76
965.449	63.42
965.616	47.53
965.783	66.71
965.95	80.08
966.117	35.33
966.283	69.43
966.45	83.57
966.617	103.33
966.784	71.36
966.95	108.37
967.117	121.74
967.284	50.44
967.45	61.09
967.617	112.24
967.784	87.83
967.95	119.8
968.117	74.66
968.283	112.83
968.45	146.92
968.616	96.55
968.783	117.48
968.949	101.2
969.116	128.33
969.282	82.02
969.449	115.93
969.615	103.14
969.781	41.33
969.948	64
970.114	34.94
970.28	139.76
970.447	68.65
970.613	127.16
970.779	94.81
970.945	116.7
971.112	88.8
971.278	61.09
971.444	101.39
971.61	100.23
971.776	72.53
971.942	101.01
972.108	94.23
972.275	63.42
972.441	96.55
972.607	124.06
972.773	76.4
972.939	95.58
973.105	118.25
973.271	48.89
973.437	71.36
973.602	84.54
973.768	74.85
973.934	69.04
974.1	103.14
974.266	14.79
974.432	78.73
974.598	73.3
974.763	92.29
974.929	56.64
975.095	148.67
975.261	38.23
975.426	42.88
975.592	78.34
975.758	136.27
975.923	29.71
976.089	93.64
976.255	117.09
976.42	83.57
976.586	102.94
976.751	71.75
976.917	148.86
977.082	89.77
977.248	32.23
977.413	26.03
977.579	60.51
977.744	83.76
977.91	33
978.075	67.49
978.24	91.51
978.406	82.99
978.571	64.78
978.736	69.23
978.902	94.03
979.067	47.53
979.232	32.03
979.397	84.15
979.563	134.91
979.728	58.77
979.893	70.01
980.058	56.25
980.223	96.94
980.388	67.1
980.554	80.86
980.719	59.74
980.884	79.5
981.049	112.83
981.214	48.31
981.379	92.68
981.544	48.89
981.709	57.8
981.874	60.51
982.039	67.88
982.204	86.09
982.368	60.32
982.533	61.48
982.698	107.59
982.863	110.89
983.028	67.29
983.193	71.17
983.357	79.11
983.522	65.36
983.687	86.48
983.852	63.42
984.016	62.26
984.181	100.62
984.346	88.8
984.51	104.69
984.675	86.28
984.839	87.06
985.004	89.58
985.168	106.63
985.333	94.03
985.498	79.11
985.662	106.24
985.827	84.15
985.991	76.98
986.155	88.22
986.32	109.14
986.484	130.07
986.649	90.35
986.813	47.73
986.977	66.33
987.142	80.66
987.306	59.54
987.47	49.86
987.634	71.75
987.799	80.47
987.963	80.47
988.127	97.91
988.291	116.31
988.455	70.01
988.62	62.45
988.784	98.29
988.948	88.41
989.112	51.6
989.276	72.53
989.44	78.53
989.604	64.97
989.768	68.07
989.932	152.16
990.096	46.18
990.26	40.17
990.424	53.35
990.588	54.51
990.752	128.33
990.915	103.72
991.079	70.39
991.243	41.53
991.407	78.73
991.571	72.14
991.734	66.13
991.898	71.94
992.062	139.18
992.226	53.73
992.389	45.98
992.553	-0.9
992.717	21.38
992.88	60.71
993.044	82.79
993.207	44.05
993.371	88.22
993.535	69.81
993.698	72.33
993.862	92.68
994.025	106.63
994.189	80.08
994.352	89.38
994.515	68.65
994.679	86.48
994.842	41.53
995.006	99.07
995.169	52.18
995.332	28.93
995.496	78.14
995.659	7.81
995.822	55.48
995.985	73.3
996.149	90.93
996.312	53.73
996.475	104.69
996.638	61.68
996.801	90.93
996.964	153.12
997.128	67.29
997.291	53.15
997.454	67.68
997.617	43.85
997.78	83.76
997.943	35.52
998.106	98.1
998.269	25.45
998.432	62.64
998.595	40.56
998.758	-4
998.92	24.28
999.083	-13.11
999.246	58.77
999.409	8.4
999.572	4.13
999.735	20.41
999.897	63.81
1000.06	27.19
1000.223	8.4
1000.386	76.4
1000.548	71.36
1000.711	72.33
1000.874	63.81
1001.036	-0.52
1001.199	90.93
1001.361	23.7
1001.524	46.18
1001.687	73.3
1001.849	39.01
1002.012	67.49
1002.174	56.45
1002.337	72.91
1002.499	54.31
1002.661	83.96
1002.824	-15.05
1002.986	29.9
1003.149	49.47
1003.311	35.71
1003.473	95.39
1003.636	20.02
1003.798	48.5
1003.96	44.43
1004.123	42.3
1004.285	15.18
1004.447	50.63
1004.609	39.01
1004.771	103.14
1004.933	-4
1005.096	16.92
1005.258	-17.57
1005.42	8.4
1005.582	82.99
1005.744	45.98
1005.906	-9.82
1006.068	37.26
1006.23	-1.49
1006.392	5.49
1006.554	-7.69
1006.716	75.24
1006.878	52.38
1007.04	-17.37
1007.202	27.58
1007.363	72.53
1007.525	52.57
1007.687	74.66
1007.849	69.43
1008.011	6.26
1008.172	-17.18
1008.334	10.53
1008.496	33.39
1008.658	-27.84
1008.819	17.7
1008.981	11.69
1009.143	-12.14
1009.304	19.05
1009.466	20.21
1009.627	89.96
1009.789	119.22
1009.95	29.71
1010.112	23.31
1010.273	25.64
1010.435	26.8
1010.596	26.41
1010.758	31.84
1010.919	22.15
1011.081	16.53
1011.242	13.05
1011.403	54.31
1011.565	18.86
1011.726	19.83
1011.887	1.61
1012.049	40.36
1012.21	52.18
1012.371	83.57
1012.532	-46.82
1012.693	47.53
1012.855	11.11
1013.016	27.19
1013.177	72.72
1013.338	19.63
1013.499	86.28
1013.66	45.4
1013.821	23.9
1013.982	10.33
1014.143	37.26
1014.304	27.96
1014.465	38.04
1014.626	45.21
1014.787	-10.2
1014.948	77.95
1015.109	-29.77
1015.27	48.7
1015.431	37.26
1015.592	-3.62
1015.752	71.94
1015.913	32.42
1016.074	40.36
1016.235	26.41
1016.395	29.9
1016.556	12.46
1016.717	19.83
1016.877	35.33
1017.038	-14.85
1017.199	-7.1
1017.359	10.53
1017.52	50.05
1017.681	24.86
1017.841	36.68
1018.002	8.78
1018.162	-0.9
1018.323	65.36
1018.483	16.73
1018.644	8.78
1018.804	-8.85
1018.964	0.84
1019.125	6.46
1019.285	16.73
1019.446	-9.82
1019.606	-14.08
1019.766	-37.33
1019.926	50.25
1020.087	22.93
1020.247	-17.37
1020.407	45.4
1020.567	58
1020.728	4.52
1020.888	-9.62
1021.048	-12.14
1021.208	-15.63
1021.368	26.61
1021.528	32.03
1021.688	36.68
1021.848	31.06
1022.008	34.36
1022.168	24.86
1022.328	7.62
1022.488	13.63
1022.648	-4.97
1022.808	39.59
1022.968	35.13
1023.128	2
1023.288	-3.23
1023.448	-11.56
1023.608	46.37
1023.767	29.32
1023.927	-7.49
1024.087	-37.33
1024.247	-55.54
1024.406	-1.1
1024.566	-6.14
1024.726	-12.34
1024.885	10.72
1025.045	12.08
1025.205	13.24
1025.364	-10.98
1025.524	-3.04
1025.683	-15.24
1025.843	17.31
1026.003	13.43
1026.162	62.84
1026.321	23.12
1026.481	31.65
1026.64	3.55
1026.8	11.5
1026.959	-20.67
1027.119	20.02
1027.278	-1.87
1027.437	-18.73
1027.597	34.94
1027.756	35.71
1027.915	27.77
1028.074	33.2
1028.234	-39.65
1028.393	-18.73
1028.552	-2.65
1028.711	-53.8
1028.87	38.81
1029.03	-19.7
1029.189	33.2
1029.348	-48.37
1029.507	-33.84
1029.666	-40.04
1029.825	-42.56
1029.984	-21.25
1030.143	18.28
1030.302	10.91
1030.461	-55.35
1030.62	-6.72
1030.779	29.32
1030.938	-16.99
1031.097	-8.65
1031.255	24.86
1031.414	41.14
1031.573	51.02
1031.732	-30.35
1031.891	-3.42
1032.049	24.28
1032.208	25.06
1032.367	-4.39
1032.525	-13.89
1032.684	-19.89
1032.843	-11.56
1033.001	-31.13
1033.16	120.58
1033.319	60.51
1033.477	17.7
1033.636	-7.88
1033.794	-29.77
1033.953	39.59
1034.111	22.73
1034.27	-16.02
1034.428	10.14
1034.587	-13.89
1034.745	-2.07
1034.903	-13.5
1035.062	19.83
1035.22	-37.33
1035.378	22.93
1035.537	-44.11
1035.695	46.56
1035.853	-13.69
1036.011	42.11
1036.17	-5.75
1036.328	-44.3
1036.486	11.88
1036.644	13.05
1036.802	-47.6
1036.96	-10.01
1037.119	2.97
1037.277	-25.12
1037.435	-32.68
1037.593	-3.04
1037.751	14.6
1037.909	33.39
1038.067	33.39
