Data from gum_young_FLMT105791__59__17-39-17-043.txt Node

Date: Mon Mar 20 17:39:17 GMT 2023
User: antho
Spectrometer: FLMT10579
Trigger mode: 0
Integration Time (sec): 1.000000E-1
Scans to average: 10
Electric dark correction enabled: true
Nonlinearity correction enabled: false
Boxcar width: 0
XAxis mode: Wavelengths
Number of Pixels in Spectrum: 3648
>>>>>Begin Spectral Data<<<<<
345.248	-150.32
345.464	-150.32
345.681	-150.32
345.898	-133.85
346.114	-167.95
346.331	-24.19
346.548	33.36
346.764	-22.05
346.981	1.19
347.197	-14.5
347.414	12.63
347.631	-40.85
347.847	48.28
348.064	-6.75
348.28	35.88
348.497	-28.25
348.713	5.26
348.93	31.03
349.146	16.69
349.363	7.39
349.579	26.19
349.796	7.78
350.012	-7.91
350.229	18.24
350.445	3.33
350.661	-26.12
350.878	9.33
351.094	10.11
351.311	-4.62
351.527	8.56
351.743	-19.73
351.96	24.06
352.176	43.04
352.392	2.36
352.609	23.09
352.825	5.26
353.041	4.49
353.257	-3.07
353.474	1.78
353.69	20.18
353.906	38.98
354.122	-41.82
354.339	34.52
354.555	1.78
354.771	-1.13
354.987	55.83
355.203	52.73
355.42	2.55
355.636	1
355.852	-4.23
356.068	15.53
356.284	-32.71
356.5	52.54
356.716	3.71
356.932	13.4
357.148	38.59
357.364	16.31
357.58	39.17
357.796	60.48
358.012	29.87
358.228	18.83
358.444	-58.09
358.66	68.62
358.876	22.51
359.092	-22.64
359.308	20.76
359.524	35.88
359.74	2.55
359.956	-14.31
360.172	21.34
360.388	12.43
360.604	-19.15
360.819	89.16
361.035	6.43
361.251	32.19
361.467	-17.02
361.683	47.5
361.898	13.01
362.114	61.26
362.33	27.54
362.546	48.86
362.762	21.15
362.977	32.97
363.193	-5.2
363.409	31.23
363.624	-18.57
363.84	3.13
364.056	-8.49
364.271	31.03
364.487	-0.55
364.703	-0.36
364.918	-36.39
365.134	12.04
365.35	-8.11
365.565	80.82
365.781	10.49
365.996	52.34
366.212	59.13
366.427	25.8
366.643	-1.52
366.858	3.71
367.074	-4.62
367.289	59.32
367.505	89.16
367.72	-22.64
367.936	-1.52
368.151	60.29
368.367	47.11
368.582	23.28
368.798	24.06
369.013	52.54
369.228	33.74
369.444	40.53
369.659	40.53
369.874	45.76
370.09	57.58
370.305	-27.48
370.52	8.75
370.736	57.58
370.951	21.15
371.166	73.66
371.381	73.07
371.597	24.25
371.812	-2.68
372.027	-28.45
372.242	-8.11
372.458	88.77
372.673	28.51
372.888	4.29
373.103	26.19
373.318	108.34
373.533	37.23
373.749	42.08
373.964	-22.64
374.179	64.74
374.394	-15.27
374.609	39.36
374.824	-11.01
375.039	47.31
375.254	26.38
375.469	62.61
375.684	9.33
375.899	70.94
376.114	-11.79
376.329	19.6
376.544	46.34
376.759	29.29
376.974	-10.82
377.189	4.1
377.404	30.84
377.619	42.85
377.834	-31.74
378.049	-9.07
378.264	-29.61
378.478	18.83
378.693	9.53
378.908	63
379.123	25.8
379.338	50.21
379.553	40.33
379.767	37.62
379.982	31.42
380.197	69.59
380.412	3.33
380.626	30.84
380.841	81.99
381.056	41.11
381.271	82.57
381.485	28.9
381.7	-22.44
381.915	33.16
382.129	13.79
382.344	40.72
382.559	36.07
382.773	62.23
382.988	-23.8
383.202	43.82
383.417	-16.05
383.632	84.7
383.846	33.94
384.061	24.64
384.275	-3.07
384.49	51.18
384.704	31.42
384.919	35.68
385.133	9.33
385.348	47.31
385.562	26.96
385.777	27.54
385.991	20.96
386.206	13.01
386.42	20.76
386.634	85.67
386.849	32
387.063	46.73
387.277	5.07
387.492	18.05
387.706	-1.13
387.92	-0.55
388.135	68.43
388.349	57.58
388.563	23.28
388.778	24.25
388.992	40.72
389.206	50.02
389.42	92.26
389.635	4.1
389.849	53.7
390.063	75.79
390.277	27.54
390.491	64.55
390.706	46.73
390.92	64.16
391.134	70.94
391.348	37.04
391.562	-5.2
391.776	9.14
391.99	19.6
392.205	69.98
392.419	22.12
392.633	51.18
392.847	69.59
393.061	13.59
393.275	98.46
393.489	33.55
393.703	41.11
393.917	66.88
394.131	26.38
394.345	51.96
394.559	72.11
394.773	31.03
394.986	46.92
395.2	53.7
395.414	59.51
395.628	0.03
395.842	48.08
396.056	45.95
396.27	8.75
396.484	60.48
396.697	50.6
396.911	76.95
397.125	70.94
397.339	75.98
397.553	42.08
397.766	127.32
397.98	68.43
398.194	88.19
398.408	32.78
398.621	62.42
398.835	49.24
399.049	60.68
399.262	92.26
399.476	77.34
399.69	76.95
399.903	134.11
400.117	67.84
400.331	111.44
400.544	43.82
400.758	175.76
400.971	76.37
401.185	97.49
401.398	47.89
401.612	123.06
401.826	78.89
402.039	69.39
402.253	75.79
402.466	93.81
402.68	63.19
402.893	100.59
403.106	75.01
403.32	84.89
403.533	100.01
403.747	73.46
403.96	62.23
404.174	89.16
404.387	45.18
404.6	75.01
404.814	113.57
405.027	81.21
405.24	92.84
405.454	60.87
405.667	115.12
405.88	11.66
406.094	85.09
406.307	98.07
406.52	66.1
406.733	38.01
406.947	65.33
407.16	124.81
407.373	117.25
407.586	66.49
407.799	34.91
408.012	121.12
408.226	100.78
408.439	128.87
408.652	42.27
408.865	106.01
409.078	115.7
409.291	105.24
409.504	61.06
409.717	90.12
409.93	99.04
410.143	94.77
410.357	41.49
410.57	50.41
410.783	73.66
410.996	126.16
411.209	82.57
411.421	127.52
411.634	97.68
411.847	74.43
412.06	111.63
412.273	97.87
412.486	77.34
412.699	194.75
412.912	75.21
413.125	131.78
413.338	93.42
413.55	129.46
413.763	95.94
413.976	115.12
414.189	59.13
414.402	84.7
414.615	136.62
414.827	92.45
415.04	130.23
415.253	131.78
415.466	122.09
415.678	163.94
415.891	110.27
416.104	89.74
416.316	111.63
416.529	99.81
416.742	134.69
416.954	149.22
417.167	132.17
417.38	110.86
417.592	151.16
417.805	79.47
418.017	82.57
418.23	131.59
418.442	86.83
418.655	113.76
418.868	118.61
419.08	135.46
419.293	148.44
419.505	131.59
419.718	136.04
419.93	157.74
420.142	124.81
420.355	171.11
420.567	159.29
420.78	155.81
420.992	106.79
421.205	145.54
421.417	74.62
421.629	105.24
421.842	77.53
422.054	88.38
422.266	157.94
422.479	145.15
422.691	105.62
422.903	169.75
423.115	99.81
423.328	129.07
423.54	125.58
423.752	137.59
423.964	91.48
424.177	136.82
424.389	151.16
424.601	202.11
424.813	127.52
425.025	146.51
425.238	169.95
425.45	130.81
425.662	126.16
425.874	367.38
426.086	123.64
426.298	147.47
426.51	143.02
426.722	106.98
426.934	115.7
427.146	183.32
427.358	92.64
427.57	160.07
427.782	139.72
427.994	146.12
428.206	139.34
428.418	93.03
428.63	150.19
428.842	143.6
429.054	148.25
429.266	181.38
429.478	118.8
429.69	135.07
429.902	86.25
430.114	179.83
430.325	136.04
430.537	81.41
430.749	136.82
430.961	83.92
431.173	133.14
431.384	131.97
431.596	63.78
431.808	100.2
432.02	172.27
432.231	149.22
432.443	171.69
432.655	154.06
432.867	125.19
433.078	165.1
433.29	201.14
433.502	174.21
433.713	174.4
433.925	182.15
434.136	191.65
434.348	132.75
434.56	86.06
434.771	230.59
434.983	146.51
435.194	149.61
435.406	187.39
435.617	178.28
435.829	184.48
436.04	187.58
436.252	183.51
436.463	221.49
436.675	202.11
436.886	185.25
437.098	193.78
437.309	226.91
437.521	160.65
437.732	182.74
437.943	205.02
438.155	193.78
438.366	162.2
438.578	255.2
438.789	184.67
439	212.77
439.211	172.27
439.423	177.89
439.634	184.09
439.845	197.85
440.057	176.34
440.268	205.99
440.479	161.04
440.69	196.1
440.902	187.97
441.113	165.88
441.324	156.97
441.535	204.63
441.746	255.39
441.957	177.7
442.168	189.9
442.38	237.57
442.591	224
442.802	186.8
443.013	219.16
443.224	237.95
443.435	198.82
443.646	177.5
443.857	200.95
444.068	177.12
444.279	183.51
444.49	242.02
444.701	199.79
444.912	299.57
445.123	250.55
445.334	228.85
445.545	197.27
445.756	215.09
445.967	200.95
446.178	249.77
446.388	264.11
446.599	261.98
446.81	241.64
447.021	207.54
447.232	268.57
447.443	268.37
447.653	220.52
447.864	259.85
448.075	247.06
448.286	252.68
448.496	249.97
448.707	258.3
448.918	244.93
449.129	302.47
449.339	220.52
449.55	275.15
449.761	252.1
449.971	266.05
450.182	245.51
450.393	291.82
450.603	242.8
450.814	293.75
451.024	268.95
451.235	261.2
451.446	314.1
451.656	310.22
451.867	262.17
452.077	274.57
452.288	349.16
452.498	311.58
452.709	254.42
452.919	273.02
453.13	255.39
453.34	300.92
453.55	263.72
453.761	302.67
453.971	289.1
454.182	273.8
454.392	281.55
454.602	320.49
454.813	266.63
455.023	317.39
455.233	242.8
455.444	279.42
455.654	217.61
455.864	287.17
456.075	290.27
456.285	279.42
456.495	279.03
456.705	287.36
456.916	339.09
457.126	334.05
457.336	292.01
457.546	260.04
457.756	272.63
457.967	325.72
458.177	275.35
458.387	328.82
458.597	254.62
458.807	293.95
459.017	275.15
459.227	280
459.437	275.93
459.647	310.42
459.857	311.19
460.068	258.68
460.278	330.18
460.488	318.55
460.698	369.9
460.908	291.82
461.117	266.05
461.327	280.19
461.537	310.22
461.747	311.77
461.957	290.85
462.167	422.98
462.377	337.54
462.587	318.75
462.797	350.33
463.007	324.95
463.216	344.13
463.426	372.61
463.636	344.51
463.846	271.67
464.056	287.94
464.265	362.92
464.475	316.62
464.685	323.2
464.895	354.4
465.104	295.88
465.314	348.2
465.524	308.67
465.733	298.79
465.943	375.9
466.153	377.06
466.362	356.33
466.572	348.78
466.782	333.08
466.991	325.14
467.201	373.77
467.41	294.92
467.62	353.04
467.829	333.67
468.039	369.7
468.249	330.18
468.458	314.87
468.668	382.1
468.877	369.31
469.086	385.01
469.296	378.42
469.505	335.41
469.715	406.13
469.924	350.71
470.134	401.67
470.343	396.44
470.552	358.85
470.762	362.73
470.971	330.95
471.18	354.01
471.39	380.94
471.599	346.06
471.808	408.84
472.018	336.76
472.227	407.1
472.436	387.91
472.645	390.05
472.855	374.93
473.064	424.34
473.273	397.02
473.482	429.18
473.691	448.56
473.901	438.29
474.11	398.76
474.319	478.59
474.528	397.99
474.737	464.83
474.946	424.53
475.155	449.33
475.364	477.04
475.573	420.27
475.783	437.9
475.992	434.61
476.201	492.34
476.41	424.73
476.619	408.26
476.828	456.89
477.037	438.09
477.245	451.08
477.454	463.28
477.663	462.12
477.872	455.92
478.081	525.28
478.29	442.94
478.499	515.01
478.708	467.74
478.917	553.37
479.125	486.14
479.334	520.82
479.543	472
479.752	498.35
479.961	495.64
480.169	521.79
480.378	493.31
480.587	608.4
480.796	510.56
481.004	509.78
481.213	544.66
481.422	529.35
481.63	511.52
481.839	584.76
482.048	580.11
482.256	560.16
482.465	547.56
482.674	572.17
482.882	583.6
483.091	620.41
483.299	530.51
483.508	582.24
483.716	575.07
483.925	584.96
484.134	565.97
484.342	558.02
484.551	607.04
484.759	584.37
484.967	601.23
485.176	589.99
485.384	603.17
485.593	625.06
485.801	599.49
486.01	562.29
486.218	551.44
486.426	495.64
486.635	526.44
486.843	527.41
487.051	546.21
487.26	573.52
487.468	567.32
487.676	597.74
487.885	574.69
488.093	590.96
488.301	587.67
488.509	628.94
488.717	643.08
488.926	641.14
489.134	588.83
489.342	634.75
489.55	595.22
489.758	619.44
489.967	634.75
490.175	733.17
490.383	625.84
490.591	723.1
490.799	635.33
491.007	689.19
491.215	658.77
491.423	676.79
491.631	638.62
491.839	664.2
492.047	707.02
492.255	638.43
492.463	643.85
492.671	657.03
492.879	745.38
493.087	664.39
493.295	685.51
493.503	693.07
493.711	731.62
493.919	729.68
494.127	744.41
494.334	720.97
494.542	689.19
494.75	733.75
494.958	725.03
495.166	761.65
495.374	775.41
495.581	760.3
495.789	751.97
495.997	812.8
496.205	712.63
496.412	739.57
496.62	758.55
496.828	779.28
497.035	749.83
497.243	791.1
497.451	786.06
497.658	787.61
497.866	772.7
498.074	846.51
498.281	728.52
498.489	871.7
498.696	789.36
498.904	800.21
499.112	781.61
499.319	844.38
499.527	785.1
499.734	836.83
499.942	772.31
500.149	814.74
500.357	834.5
500.564	762.62
500.771	837.6
500.979	781.8
501.186	801.56
501.394	807.76
501.601	819.2
501.808	831.4
502.016	828.11
502.223	808.35
502.43	835.86
502.638	836.83
502.845	800.6
503.052	896.69
503.26	826.17
503.467	899.6
503.674	857.17
503.881	883.71
504.089	930.6
504.296	883.13
504.503	819.78
504.71	868.41
504.917	834.5
505.125	903.48
505.332	903.86
505.539	916.26
505.746	968.38
505.953	933.31
506.16	923.04
506.367	986.4
506.574	1016.04
506.781	988.34
506.988	896.69
507.195	967.61
507.402	936.8
507.609	987.56
507.816	928.86
508.023	947.46
508.23	958.89
508.437	936.22
508.644	999.57
508.851	1046.07
509.058	1040.65
509.265	999.77
509.472	1051.3
509.679	1123.57
509.885	1044.33
510.092	1070.49
510.299	1055.57
510.506	1080.95
510.713	1067.97
510.92	1078.82
511.126	1124.93
511.333	1105.55
511.54	1154.77
511.746	1137.52
511.953	1194.87
512.16	1192.35
512.367	1141.01
512.573	1143.92
512.78	1158.06
512.987	1158.83
513.193	1182.67
513.4	1092.19
513.606	1165.23
513.813	1159.8
514.02	1195.84
514.226	1234.4
514.433	1226.26
514.639	1153.6
514.846	1212.11
515.052	1204.37
515.259	1220.64
515.465	1221.22
515.672	1224.13
515.878	1337.47
516.085	1311.89
516.291	1329.14
516.497	1257.84
516.704	1244.47
516.91	1228.58
517.117	1174.53
517.323	1110.98
517.529	1176.66
517.736	1183.63
517.942	1176.66
518.148	1212.89
518.354	1277.41
518.561	1265.2
518.767	1267.14
518.973	1321
519.179	1320.81
519.386	1314.41
519.592	1307.83
519.798	1347.16
520.004	1431.44
520.21	1370.41
520.417	1448.1
520.623	1498.28
520.829	1498.67
521.035	1533.35
521.241	1484.72
521.447	1554.27
521.653	1608.33
521.859	1544.59
522.065	1537.8
522.271	1627.9
522.477	1578.68
522.683	1612.4
522.889	1631.97
523.095	1617.82
523.301	1622.67
523.507	1593.02
523.713	1613.56
523.919	1620.34
524.125	1680.4
524.331	1659.48
524.537	1778.05
524.742	1746.86
524.948	1804.98
525.154	1783.28
525.36	1844.31
525.566	1770.3
525.772	1826.87
525.977	1763.13
526.183	1796.84
526.389	1834.04
526.595	1756.93
526.8	1716.25
527.006	1695.9
527.212	1639.91
527.417	1613.56
527.623	1665.68
527.829	1716.63
528.034	1808.47
528.24	1795.88
528.446	1806.34
528.651	1857.29
528.857	1876.28
529.062	1974.51
529.268	1938.67
529.473	1966.18
529.679	1942.54
529.884	2044.45
530.09	1988.65
530.295	2009.19
530.501	2011.9
530.706	2012.29
530.912	1977.03
531.117	1976.84
531.323	2008.61
531.528	2077.78
531.733	2075.65
531.939	2048.91
532.144	2067.12
532.35	2050.07
532.555	2083.4
532.76	2042.71
532.966	2058.02
533.171	2016.75
533.376	2023.92
533.581	1984.2
533.787	2034.57
533.992	2058.21
534.197	2085.53
534.402	2090.37
534.607	2104.71
534.813	2154.7
535.018	2126.41
535.223	2173.68
535.428	2134.16
535.633	2202.94
535.838	2198.68
536.043	2232.97
536.249	2277.92
536.454	2192.67
536.659	2269.2
536.864	2218.63
537.069	2196.54
537.274	2198.09
537.479	2190.54
537.684	2185.31
537.889	2159.54
538.094	2297.49
538.299	2220.96
538.504	2219.99
538.708	2247.5
538.913	2279.47
539.118	2256.22
539.323	2263
539.528	2211.27
539.733	2205.46
539.938	2238.78
540.142	2252.54
540.347	2202.16
540.552	2177.94
540.757	2171.55
540.962	2194.03
541.166	2144.04
541.371	2144.23
541.576	2208.17
541.781	2096.76
541.985	2225.8
542.19	2227.93
542.395	2341.27
542.599	2321.32
542.804	2286.44
543.008	2331.01
543.213	2236.84
543.418	2214.37
543.622	2300.59
543.827	2244.21
544.031	2324.81
544.236	2314.34
544.44	2342.82
544.645	2407.54
544.849	2318.8
545.054	2340.31
545.258	2424
545.463	2403.85
545.667	2304.85
545.872	2383.9
546.076	2353.67
546.281	2309.31
546.485	2316.86
546.689	2360.84
546.894	2355.42
547.098	2377.7
547.302	2336.82
547.507	2366.85
547.711	2380.22
547.915	2423.23
548.119	2307.56
548.324	2360.07
548.528	2419.74
548.732	2402.5
548.936	2375.76
549.141	2434.27
549.345	2381.57
549.549	2388.55
549.753	2432.72
549.957	2486.2
550.161	2471.47
550.366	2414.12
550.57	2430.79
550.774	2433.88
550.978	2429.04
551.182	2445.51
551.386	2436.02
551.59	2382.93
551.794	2389.9
551.998	2465.66
552.202	2432.33
552.406	2392.62
552.61	2471.28
552.814	2460.82
553.018	2487.55
553.222	2400.37
553.426	2407.54
553.63	2526.11
553.833	2459.27
554.037	2355.8
554.241	2440.28
554.445	2402.3
554.649	2462.75
554.853	2435.24
555.056	2444.15
555.26	2469.34
555.464	2446.67
555.668	2415.48
555.871	2489.68
556.075	2484.07
556.279	2436.21
556.483	2377.7
556.686	2420.32
556.89	2411.22
557.094	2416.84
557.297	2357.55
557.501	2403.08
557.704	2325.58
557.908	2393.2
558.112	2314.92
558.315	2419.35
558.519	2372.66
558.722	2342.05
558.926	2310.47
559.129	2245.76
559.333	2233.74
559.536	2239.94
559.74	2236.07
559.943	2234.33
560.147	2244.59
560.35	2270.36
560.553	2229.29
560.757	2226.96
560.96	2325.97
561.164	2292.84
561.367	2347.86
561.57	2277.14
561.774	2304.27
561.977	2262.03
562.18	2224.25
562.384	2316.67
562.587	2259.51
562.79	2236.07
562.993	2243.82
563.197	2281.02
563.4	2309.69
563.603	2260.29
563.806	2278.11
564.009	2213.21
564.212	2219.41
564.416	2157.6
564.619	2203.13
564.822	2155.66
565.025	2241.49
565.228	2188.99
565.431	2233.94
565.634	2110.52
565.837	2124.86
566.04	2128.35
566.243	2100.64
566.446	2001.05
566.649	2114.59
566.852	2067.9
567.055	2073.52
567.258	2100.25
567.461	2153.92
567.664	2136.68
567.867	2052.4
568.07	2058.4
568.273	2109.16
568.475	2093.08
568.678	2037.48
568.881	2017.91
569.084	2005.12
569.287	1908.44
569.489	1947.58
569.692	1995.63
569.895	2027.21
570.098	1910.19
570.3	1908.05
570.503	1887.91
570.706	1902.63
570.909	1908.83
571.111	1852.26
571.314	1831.33
571.516	1878.02
571.719	1879.96
571.922	1848.19
572.124	1862.52
572.327	1872.41
572.529	1811.57
572.732	1806.73
572.935	1858.26
573.137	1883.84
573.34	1839.86
573.542	1907.86
573.745	1863.3
573.947	1842.57
574.15	1834.43
574.352	1809.24
574.554	1884.42
574.757	1783.48
574.959	1749.57
575.162	1764.29
575.364	1746.66
575.566	1814.86
575.769	1738.14
575.971	1753.44
576.173	1637.2
576.376	1744.53
576.578	1744.73
576.78	1820.09
576.982	1655.41
577.185	1736.59
577.387	1687.18
577.589	1680.98
577.791	1736.39
577.993	1724.96
578.196	1698.23
578.398	1702.88
578.6	1725.55
578.802	1616.66
579.004	1608.72
579.206	1661.22
579.408	1655.99
579.61	1651.73
579.812	1706.75
580.014	1634.48
580.216	1695.32
580.418	1668.2
580.62	1644.17
580.822	1589.53
581.024	1673.23
581.226	1678.85
581.428	1647.46
581.63	1742.01
581.832	1611.82
582.034	1716.44
582.236	1701.52
582.438	1709.27
582.64	1711.6
582.841	1760.81
583.043	1772.43
583.245	1686.02
583.447	1720.31
583.649	1698.61
583.85	1705.4
584.052	1721.48
584.254	1659.67
584.456	1719.35
584.657	1666.26
584.859	1705.4
585.061	1680.79
585.262	1639.72
585.464	1607.17
585.666	1684.47
585.867	1643.4
586.069	1683.7
586.27	1654.05
586.472	1626.15
586.674	1605.03
586.875	1623.25
587.077	1616.27
587.278	1616.08
587.48	1594.38
587.681	1678.46
587.883	1616.27
588.084	1540.71
588.285	1592.83
588.487	1554.85
588.688	1569.38
588.89	1451.39
589.091	1457.4
589.292	1452.56
589.494	1391.14
589.695	1402.76
589.896	1295.43
590.098	1339.6
590.299	1409.74
590.5	1351.23
590.702	1414.77
590.903	1376.41
591.104	1476.97
591.305	1486.85
591.507	1481.04
591.708	1469.41
591.909	1429.11
592.11	1506.22
592.311	1480.26
592.512	1469.8
592.714	1385.91
592.915	1429.5
593.116	1445.97
593.317	1437.06
593.518	1420.59
593.719	1457.4
593.92	1495.37
594.121	1468.83
594.322	1448.1
594.523	1465.73
594.724	1376.22
594.925	1394.43
595.126	1437.44
595.327	1442.87
595.528	1436.47
595.729	1425.04
595.929	1444.03
596.13	1450.04
596.331	1436.28
596.532	1454.88
596.733	1487.43
596.934	1509.9
597.135	1507
597.335	1425.82
597.536	1419.81
597.737	1457.59
597.938	1442.09
598.138	1473.67
598.339	1425.24
598.54	1467.86
598.74	1429.69
598.941	1422.91
599.142	1461.86
599.342	1437.25
599.543	1407.99
599.744	1415.36
599.944	1392.69
600.145	1413.03
600.345	1428.53
600.546	1492.08
600.746	1482
600.947	1461.86
601.147	1434.92
601.348	1466.89
601.548	1415.55
601.749	1448.68
601.949	1418.26
602.15	1428.72
602.35	1396.76
602.551	1466.12
602.751	1368.28
602.951	1419.04
603.152	1353.55
603.352	1451.78
603.552	1426.79
603.753	1481.42
603.953	1446.55
604.153	1451.39
604.354	1432.79
604.554	1457.21
604.754	1421.56
604.954	1404.31
605.155	1449.07
605.355	1384.36
605.555	1456.62
605.755	1488.59
605.955	1442.29
606.155	1432.99
606.356	1400.44
606.556	1425.82
606.756	1394.43
606.956	1364.79
607.156	1431.63
607.356	1395.79
607.556	1427.95
607.756	1401.21
607.956	1441.32
608.156	1399.86
608.356	1355.88
608.556	1415.94
608.756	1407.02
608.956	1385.32
609.156	1358.78
609.356	1364.4
609.556	1328.56
609.755	1346.77
609.955	1333.59
610.155	1371.96
610.355	1351.23
610.555	1314.61
610.755	1337.66
610.954	1238.85
611.154	1329.91
611.354	1356.84
611.554	1337.47
611.753	1344.25
611.953	1297.94
612.153	1348.51
612.352	1315.19
612.552	1285.35
612.752	1257.26
612.951	1306.66
613.151	1284.19
613.351	1265.4
613.55	1279.15
613.75	1309.18
613.949	1247.38
614.149	1288.26
614.348	1290.78
614.548	1242.53
614.747	1219.86
614.947	1212.31
615.146	1192.74
615.346	1299.49
615.545	1259.78
615.745	1224.13
615.944	1290
616.144	1246.8
616.343	1263.85
616.542	1232.26
616.742	1206.11
616.941	1219.86
617.14	1162.13
617.34	1218.12
617.539	1199.91
617.738	1180.92
617.938	1244.47
618.137	1211.73
618.336	1154.38
618.535	1216.76
618.734	1190.8
618.934	1238.08
619.133	1226.45
619.332	1213.66
619.531	1176.08
619.73	1195.84
619.929	1237.3
620.128	1215.02
620.328	1220.64
620.527	1175.69
620.726	1169.49
620.925	1184.8
621.124	1136.75
621.323	1202.04
621.522	1155.73
621.721	1171.62
621.92	1115.24
622.119	1190.03
622.318	1129
622.517	1165.23
622.715	1167.17
622.914	1133.45
623.113	1158.83
623.312	1090.64
623.511	1139.07
623.71	1129.38
623.909	1085.21
624.107	1180.15
624.306	1086.37
624.505	1077.65
624.704	1104.97
624.902	1100.32
625.101	1151.67
625.3	1112.14
625.499	1105.55
625.697	1094.51
625.896	1100.32
626.095	1108.85
626.293	1037.55
626.492	1069.13
626.69	1064.29
626.889	1063.12
627.088	1125.51
627.286	1063.32
627.485	1060.6
627.683	1051.69
627.882	1055.95
628.08	991.82
628.279	1018.17
628.477	1051.11
628.676	975.94
628.874	1063.7
629.073	1015.07
629.271	1016.62
629.469	1029.41
629.668	1046.65
629.866	1044.33
630.065	1016.04
630.263	1036.19
630.461	1012.94
630.66	1031.74
630.858	1034.25
631.056	1104.59
631.254	1079.4
631.453	1007.13
631.651	1071.84
631.849	1035.8
632.047	1012.17
632.245	1035.22
632.444	1051.69
632.642	1060.99
632.84	1082.69
633.038	1023.6
633.236	995.51
633.434	1034.84
633.632	1006.94
633.83	1033.09
634.028	1070.68
634.227	1032.32
634.425	1114.85
634.623	1046.07
634.821	1036.77
635.019	1040.07
635.216	1045.3
635.414	1044.72
635.612	1029.02
635.81	1062.74
636.008	1118.73
636.206	1012.94
636.404	1055.76
636.602	976.13
636.8	1010.81
636.997	1088.7
637.195	1090.83
637.393	1015.27
637.591	1080.56
637.789	1038.9
637.986	1036
638.184	1034.45
638.382	1038.13
638.58	1045.1
638.777	1069.32
638.975	1034.25
639.173	1019.14
639.37	1040.26
639.568	1020.5
639.765	1025.34
639.963	1007.91
640.161	1006.16
640.358	1038.32
640.556	958.31
640.753	999.19
640.951	955.01
641.148	974.58
641.346	977.49
641.543	948.42
641.741	1004.03
641.938	922.08
642.136	978.65
642.333	919.56
642.531	972.45
642.728	982.14
642.925	973.81
643.123	943.78
643.32	951.91
643.517	924.79
643.715	971.67
643.912	911.03
644.109	939.51
644.306	946.29
644.504	875.96
644.701	927.31
644.898	951.14
645.095	869.76
645.293	911.23
645.49	947.65
645.687	922.85
645.884	943.78
646.081	803.5
646.278	874.8
646.475	822.1
646.672	865.5
646.87	881.78
647.067	843.03
647.264	867.83
647.461	810.86
647.658	783.35
647.855	860.66
648.052	828.69
648.249	754.48
648.446	820.16
648.642	794.01
648.839	769.21
649.036	776.18
649.233	773.08
649.43	755.07
649.627	744.41
649.824	767.47
650.021	741.89
650.217	746.15
650.414	764.75
650.611	788.39
650.808	823.65
651.004	799.63
651.201	779.09
651.398	822.49
651.595	784.13
651.791	738.79
651.988	808.93
652.185	764.95
652.381	801.18
652.578	745.18
652.775	783.16
652.971	775.8
653.168	767.08
653.364	812.61
653.561	726.78
653.757	751.38
653.954	770.57
654.15	755.65
654.347	810.86
654.543	789.75
654.74	705.85
654.936	701.59
655.133	758.94
655.329	758.17
655.525	734.14
655.722	748.48
655.918	693.84
656.115	740.73
656.311	669.43
656.507	622.35
656.704	615.57
656.9	643.27
657.096	620.6
657.292	635.52
657.489	672.72
657.685	681.05
657.881	656.45
658.077	660.71
658.273	700.23
658.47	750.22
658.666	692.87
658.862	719.22
659.058	672.34
659.254	722.13
659.45	680.86
659.646	691.9
659.842	679.89
660.038	764.37
660.234	712.83
660.43	689.58
660.626	761.65
660.822	719.22
661.018	722.13
661.214	716.9
661.41	668.46
661.606	721.16
661.802	724.45
661.998	737.24
662.194	679.89
662.39	700.82
662.586	716.12
662.781	722.9
662.977	737.24
663.173	698.88
663.369	671.37
663.564	713.41
663.76	730.65
663.956	664.97
664.152	708.57
664.347	636.69
664.543	705.47
664.739	645.4
664.934	635.72
665.13	608.01
665.326	683.38
665.521	676.99
665.717	622.54
665.912	620.41
666.108	593.29
666.304	620.8
666.499	617.31
666.695	587.67
666.89	633.97
667.086	655.48
667.281	648.5
667.477	667.3
667.672	632.23
667.867	648.31
668.063	622.15
668.258	596.39
668.454	610.72
668.649	713.02
668.844	644.05
669.04	656.25
669.235	628.16
669.43	593.67
669.626	567.91
669.821	609.56
670.016	574.69
670.211	631.65
670.407	587.67
670.602	619.64
670.797	625.64
670.992	639.4
671.187	586.12
671.382	636.3
671.578	634.94
671.773	620.22
671.968	585.73
672.163	589.02
672.358	632.81
672.553	558.41
672.748	581.47
672.943	608.79
673.138	613.24
673.333	654.9
673.528	560.93
673.723	619.83
673.918	571.01
674.113	550.47
674.308	648.5
674.503	624.29
674.698	627.39
674.892	611.3
675.087	618.86
675.282	622.74
675.477	560.35
675.672	597.55
675.867	576.24
676.061	532.26
676.256	535.94
676.451	582.82
676.646	578.56
676.84	554.92
677.035	539.42
677.23	562.48
677.424	585.92
677.619	618.47
677.814	612.66
678.008	624.09
678.203	550.66
678.397	560.54
678.592	561.32
678.787	634.75
678.981	557.25
679.176	562.87
679.37	578.76
679.565	542.72
679.759	582.82
679.954	571.01
680.148	632.62
680.342	615.37
680.537	578.37
680.731	595.42
680.926	569.26
681.12	625.64
681.314	555.51
681.509	564.22
681.703	590.38
681.897	602.39
682.092	570.81
682.286	586.7
682.48	645.02
682.674	632.81
682.869	586.51
683.063	586.89
683.257	682.02
683.451	584.57
683.645	611.89
683.839	586.31
684.034	580.5
684.228	617.12
684.422	572.56
684.616	566.36
684.81	667.49
685.004	589.22
685.198	600.84
685.392	626.42
685.586	596.19
685.78	612.85
685.974	639.98
686.168	634.55
686.362	669.43
686.556	551.82
686.75	571.01
686.944	556.67
687.138	546.4
687.331	474.13
687.525	479.17
687.719	432.67
687.913	496.8
688.107	516.76
688.301	490.6
688.494	539.42
688.688	473.94
688.882	486.34
689.076	462.51
689.269	522.96
689.463	599.68
689.657	539.62
689.85	535.74
690.044	568.29
690.238	549.31
690.431	587.67
690.625	574.49
690.818	610.34
691.012	623.7
691.205	658.97
691.399	643.47
691.593	668.65
691.786	699.65
691.98	748.28
692.173	767.66
692.366	717.48
692.56	753.32
692.753	802.34
692.947	716.12
693.14	808.15
693.333	818.03
693.527	787.81
693.72	830.82
693.914	808.93
694.107	792.26
694.3	829.46
694.493	788.78
694.687	858.91
694.88	848.45
695.073	924.21
695.266	897.28
695.46	906.19
695.653	933.89
695.846	977.49
696.039	923.63
696.232	948.23
696.425	1008.68
696.618	1021.66
696.812	1044.91
697.005	1102.84
697.198	1170.65
697.391	1150.5
697.584	1140.43
697.777	1208.82
697.97	1189.64
698.163	1205.92
698.356	1216.76
698.549	1315.58
698.742	1260.75
698.935	1230.91
699.127	1275.86
699.32	1246.99
699.513	1231.68
699.706	1285.93
699.899	1297.56
700.092	1279.35
700.285	1292.91
700.477	1267.72
700.67	1316.35
700.863	1353.36
701.056	1462.05
701.248	1409.16
701.441	1415.55
701.634	1381.06
701.826	1530.44
702.019	1377.19
702.212	1476.97
702.404	1454.11
702.597	1468.25
702.79	1476.58
702.982	1549.24
703.175	1557.37
703.367	1560.47
703.56	1629.45
703.752	1692.03
703.945	1635.07
704.137	1656.18
704.33	1690.48
704.522	1699.78
704.715	1733.49
704.907	1757.32
705.1	1767.2
705.292	1787.93
705.484	1785.22
705.677	1822.81
705.869	1848.57
706.061	1859.04
706.254	1930.72
706.446	1891.39
706.638	1873.37
706.831	1981.1
707.023	1950.49
707.215	2016.94
707.407	1983.42
707.599	1971.22
707.792	2040.77
707.984	2030.89
708.176	2030.5
708.368	2031.08
708.56	2081.85
708.752	2067.9
708.944	2101.41
709.136	2110.71
709.329	2121.37
709.521	2214.95
709.713	2173.29
709.905	2212.24
710.097	2242.85
710.289	2206.04
710.481	2244.4
710.672	2238.59
710.864	2286.44
711.056	2325.58
711.248	2311.44
711.44	2300.59
711.632	2328.68
711.824	2363.75
712.016	2408.7
712.207	2402.89
712.399	2420.9
712.591	2470.12
712.783	2436.21
712.975	2475.73
713.166	2439.31
713.358	2409.86
713.55	2533.66
713.741	2515.45
713.933	2551.3
714.125	2477.67
714.316	2477.09
714.508	2578.03
714.7	2537.93
714.891	2523.59
715.083	2629.57
715.274	2536.57
715.466	2591.79
715.657	2612.13
715.849	2518.17
716.04	2513.9
716.232	2520.1
716.423	2508.67
716.615	2435.05
716.806	2394.36
716.998	2314.73
717.189	2272.3
717.381	2167.29
717.572	2127.57
717.763	2148.69
717.955	2115.36
718.146	2077.2
718.337	2016.94
718.528	1975.29
718.72	1898.56
718.911	1952.62
719.102	1917.55
719.293	1935.76
719.485	1913.87
719.676	1879.19
719.867	1865.62
720.058	1853.03
720.249	1886.94
720.44	1932.08
720.632	1970.83
720.823	2021.59
721.014	2163.8
721.205	2208.75
721.396	2301.56
721.587	2370.92
721.778	2435.63
721.969	2446.48
722.16	2584.81
722.351	2565.05
722.542	2681.3
722.733	2674.52
722.924	2611.94
723.115	2626.66
723.305	2615.04
723.496	2604.96
723.687	2441.83
723.878	2509.25
724.069	2487.94
724.26	2514.68
724.45	2459.65
724.641	2391.65
724.832	2450.74
725.023	2409.86
725.213	2382.93
725.404	2426.72
725.595	2429.62
725.785	2426.14
725.976	2475.35
726.167	2447.25
726.357	2468.95
726.548	2552.65
726.739	2472.05
726.929	2515.26
727.12	2573.58
727.31	2582.88
727.501	2529.98
727.691	2513.13
727.882	2558.46
728.072	2575.51
728.263	2561.18
728.453	2604.96
728.644	2658.05
728.834	2597.02
729.024	2603.8
729.215	2620.66
729.405	2601.67
729.596	2641.78
729.786	2688.28
729.976	2717.92
730.167	2735.74
730.357	2701.64
730.547	2729.54
730.737	2753.18
730.928	2766.94
731.118	2826.42
731.308	2758.8
731.498	2804.91
731.688	2874.27
731.879	2890.55
732.069	2909.92
732.259	3001.95
732.449	3020.36
732.639	3118.01
732.829	3151.72
733.019	3164.31
733.209	3266.03
733.399	3299.16
733.589	3302.84
733.779	3372.59
733.969	3324.35
734.159	3475.28
734.349	3467.72
734.539	3526.23
734.729	3539.99
734.919	3556.65
735.109	3610.32
735.299	3506.66
735.488	3530.11
735.678	3574.09
735.868	3548.32
736.058	3503.95
736.248	3570.21
736.437	3502.21
736.627	3472.18
736.817	3605.86
737.007	3580.09
737.196	3630.47
737.386	3615.55
737.576	3593.27
737.765	3688.2
737.955	3645
738.144	3771.71
738.334	3638.8
738.524	3641.71
738.713	3704.67
738.903	3699.64
739.092	3729.28
739.282	3704.67
739.471	3753.11
739.661	3718.43
739.85	3773.07
740.04	3776.55
740.229	3837.78
740.419	3864.71
740.608	3899.97
740.797	3814.72
740.987	3861.22
741.176	3874.78
741.365	3802.52
741.555	3766.28
741.744	3903.46
741.933	3852.31
742.123	3918.18
742.312	3937.75
742.501	3961.39
742.69	3955.96
742.88	3910.82
743.069	4027.07
743.258	3973.21
743.447	3989.09
743.636	3984.83
743.825	3948.41
744.014	4014.09
744.204	3978.05
744.393	3966.62
744.582	4079.19
744.771	4038.11
744.96	4014.09
745.149	4021.26
745.338	4001.49
745.527	4071.05
745.716	4037.14
745.905	4004.59
746.094	4045.47
746.283	4049.16
746.471	4061.75
746.66	4095.85
746.849	4077.64
747.038	4092.36
747.227	4048.19
747.416	4126.07
747.604	4031.33
747.793	4065.04
747.982	4030.94
748.171	4082.67
748.359	4087.32
748.548	4093.33
748.737	4072.41
748.926	4077.44
749.114	3971.85
749.303	4052.06
749.491	4030.36
749.68	3984.06
749.869	4085.58
750.057	3991.42
750.246	4030.94
750.434	4018.93
750.623	3979.99
750.811	3975.14
751	4026.87
751.188	3984.06
751.377	4005.76
751.565	3996.46
751.754	3940.08
751.942	3968.75
752.131	4010.99
752.319	3930.78
752.507	3902.49
752.696	3953.83
752.884	3983.86
753.072	3948.21
753.261	3995.1
753.449	3941.24
753.637	3919.54
753.825	4025.32
754.014	3936.98
754.202	3948.6
754.39	4004.21
754.578	3989.09
754.766	3878.85
754.955	3913.92
755.143	4002.08
755.331	3938.14
755.519	3913.53
755.707	3947.83
755.895	3890.48
756.083	3922.25
756.271	3827.7
756.459	3846.88
756.647	3891.83
756.835	3857.93
757.023	3842.62
757.211	3852.31
757.399	3837
757.587	3832.16
757.775	3729.86
757.963	3800.38
758.151	3829.45
758.339	3763.96
758.526	3757.57
758.714	3749.82
758.902	3646.55
759.09	3566.73
759.278	3288.7
759.465	3019.97
759.653	2663.48
759.841	2343.79
760.028	2028.37
760.216	1776.69
760.404	1640.88
760.591	1341.15
760.779	1157.87
760.967	1022.05
761.154	800.79
761.342	853.1
761.529	848.06
761.717	887.59
761.905	862.01
762.092	916.46
762.28	872.48
762.467	858.14
762.655	781.22
762.842	798.66
763.029	820.55
763.217	830.43
763.404	810.09
763.592	863.95
763.779	781.41
763.966	823.46
764.154	898.44
764.341	950.94
764.528	973.61
764.716	1017.59
764.903	1087.54
765.09	1175.11
765.277	1254.74
765.465	1399.27
765.652	1436.67
765.839	1555.24
766.026	1713.73
766.213	1737.56
766.4	1908.25
766.588	2060.92
766.775	2090.76
766.962	2216.11
767.149	2319.77
767.336	2477.48
767.523	2492.78
767.71	2644.49
767.897	2751.24
768.084	2837.27
768.271	2845.21
768.458	2909.34
768.645	3053.1
768.832	2992.65
769.019	3038.38
769.206	3072.67
769.392	3200.54
769.579	3275.91
769.766	3234.25
769.953	3210.81
770.14	3276.69
770.327	3276.3
770.513	3337.72
770.7	3412.11
770.887	3308.07
771.073	3341.4
771.26	3390.42
771.447	3365.23
771.634	3336.94
771.82	3439.24
772.007	3308.46
772.193	3400.49
772.38	3424.51
772.567	3379.95
772.753	3338.88
772.94	3435.95
773.126	3422.19
773.313	3427.81
773.499	3399.91
773.686	3455.13
773.872	3358.25
774.059	3361.16
774.245	3347.4
774.432	3360.38
774.618	3274.36
774.804	3364.26
774.991	3321.83
775.177	3346.82
775.363	3337.33
775.55	3351.86
775.736	3287.92
775.922	3341.2
776.109	3335.58
776.295	3268.74
776.481	3344.3
776.667	3361.16
776.853	3276.1
777.04	3306.13
777.226	3341.98
777.412	3386.35
777.598	3266.8
777.784	3241.23
777.97	3262.74
778.156	3304.78
778.342	3253.63
778.528	3190.66
778.715	3205.58
778.901	3243.75
779.087	3221.66
779.272	3214.11
779.458	3196.86
779.644	3181.36
779.83	3161.79
780.016	3247.82
780.202	3175.36
780.388	3186.79
780.574	3084.68
780.76	3161.41
780.946	3169.54
781.131	3177.87
781.317	3169.74
781.503	3125.18
781.689	3129.44
781.874	3238.9
782.06	3136.61
782.246	3170.71
782.432	3138.93
782.617	3121.11
782.803	3160.24
782.989	3063.18
783.174	3068.41
783.36	3046.71
783.545	3041.67
783.731	3059.88
783.916	2983.16
784.102	3063.95
784.288	3010.09
784.473	3009.31
784.659	2994.4
784.844	3044.77
785.029	3022.49
785.215	3003.11
785.4	2969.79
785.586	3029.85
785.771	2949.83
785.956	2998.08
786.142	2967.08
786.327	2955.45
786.512	2954.87
786.698	2969.6
786.883	2859.94
787.068	2923.29
787.254	2902.17
787.439	2850.25
787.624	2868.65
787.809	2828.94
787.994	2844.82
788.18	2904.69
788.365	2805.88
788.55	2824.09
788.735	2822.15
788.92	2779.14
789.105	2781.66
789.29	2784.57
789.475	2764.42
789.66	2752.6
789.845	2733.81
790.03	2736.71
790.215	2771.2
790.4	2772.17
790.585	2738.07
790.77	2703.97
790.955	2648.17
791.14	2728.77
791.325	2763.45
791.51	2666.58
791.695	2706.49
791.879	2689.44
792.064	2629.76
792.249	2760.74
792.434	2672.58
792.618	2664.06
792.803	2720.05
792.988	2686.73
793.173	2668.32
793.357	2718.5
793.542	2686.34
793.727	2718.5
793.911	2767.32
794.096	2745.43
794.281	2707.65
794.465	2778.17
794.65	2769.07
794.834	2792.7
795.019	2741.36
795.203	2794.84
795.388	2790.77
795.572	2815.18
795.757	2739.23
795.941	2754.54
796.126	2773.14
796.31	2674.71
796.494	2702.03
796.679	2721.41
796.863	2703
797.048	2777.98
797.232	2767.32
797.416	2772.75
797.601	2713.46
797.785	2810.53
797.969	2780.89
798.153	2755.51
798.338	2770.04
798.522	2840.56
798.706	2809.95
798.89	2813.63
799.074	2880.47
799.258	2864.39
799.443	2821.96
799.627	2769.84
799.811	2831.07
799.995	2779.53
800.179	2758.99
800.363	2734.58
800.547	2759.77
800.731	2852.77
800.915	2663.09
801.099	2701.06
801.283	2741.94
801.467	2744.46
801.651	2714.43
801.835	2780.31
802.019	2794.45
802.202	2776.82
802.386	2710.56
802.57	2711.91
802.754	2672.58
802.938	2697.77
803.121	2746.01
803.305	2751.24
803.489	2721.79
803.673	2718.69
803.856	2737.49
804.04	2694.28
804.224	2773.14
804.407	2751.05
804.591	2694.47
804.775	2752.99
804.958	2726.44
805.142	2835.72
805.326	2703
805.509	2739.81
805.693	2814.79
805.876	2793.67
806.06	2783.99
806.243	2760.74
806.427	2814.99
806.61	2826.61
806.794	2787.86
806.977	2800.65
807.16	2792.51
807.344	2780.5
807.527	2805.69
807.71	2731.87
807.894	2757.83
808.077	2794.45
808.26	2724.12
808.444	2759.96
808.627	2782.24
808.81	2712.3
808.993	2643.13
809.177	2675.29
809.36	2656.11
809.543	2663.28
809.726	2595.28
809.909	2615.04
810.092	2570.86
810.276	2614.46
810.459	2557.69
810.642	2568.15
810.825	2553.04
811.008	2551.88
811.191	2439.5
811.374	2446.87
811.557	2496.08
811.74	2530.76
811.923	2443.57
812.106	2421.68
812.289	2351.15
812.472	2387.39
812.654	2360.26
812.837	2320.74
813.02	2300.97
813.203	2279.86
813.386	2156.63
813.569	2116.33
813.751	2078.94
813.934	2084.56
814.117	2080.88
814.3	2006.09
814.482	1921.04
814.665	1914.84
814.848	1911.15
815.03	1831.91
815.213	1811.76
815.396	1796.65
815.578	1787.74
815.761	1740.66
815.943	1832.49
816.126	1720.31
816.309	1713.53
816.491	1640.88
816.674	1560.08
816.856	1668.58
817.039	1643.98
817.221	1733.68
817.403	1669.36
817.586	1668.97
817.768	1666.65
817.951	1597.09
818.133	1573.65
818.315	1593.6
818.498	1690.86
818.68	1706.56
818.862	1667.23
819.045	1715.28
819.227	1719.93
819.409	1680.6
819.591	1719.15
819.774	1688.35
819.956	1637.2
820.138	1718.38
820.32	1685.83
820.502	1817.38
820.684	1854.58
820.866	1876.47
821.048	1912.12
821.231	1931.11
821.413	1929.17
821.595	1906.89
821.777	1927.24
821.959	1927.43
822.141	1951.26
822.323	1836.76
822.505	1759.84
822.686	1716.83
822.868	1618.02
823.05	1506.42
823.232	1487.62
823.414	1420.2
823.596	1467.67
823.778	1474.45
823.96	1494.79
824.141	1476.19
824.323	1539.94
824.505	1630.8
824.687	1682.53
824.868	1711.4
825.05	1808.08
825.232	1863.88
825.413	1902.05
825.595	1874.34
825.777	1835.01
825.958	1855.36
826.14	1852.26
826.321	1903.79
826.503	1866.98
826.685	1912.51
826.866	1914.64
827.048	1913.29
827.229	1835.21
827.411	1781.73
827.592	1767.59
827.773	1755.58
827.955	1672.46
828.136	1670.33
828.318	1649.01
828.499	1721.09
828.68	1648.82
828.862	1665.87
829.043	1695.32
829.224	1680.4
829.406	1658.7
829.587	1680.79
829.768	1640.3
829.949	1682.92
830.131	1669.55
830.312	1733.29
830.493	1692.03
830.674	1694.55
830.855	1675.36
831.036	1690.67
831.218	1724.38
831.399	1750.54
831.58	1701.33
831.761	1682.92
831.942	1692.03
832.123	1656.76
832.304	1627.32
832.485	1687.96
832.666	1691.06
832.847	1693
833.028	1686.41
833.209	1695.32
833.389	1658.12
833.57	1623.63
833.751	1636.03
833.932	1688.35
834.113	1688.54
834.294	1652.89
834.475	1709.27
834.655	1732.52
834.836	1780.18
835.017	1751.12
835.198	1704.43
835.378	1688.54
835.559	1760.81
835.74	1713.73
835.92	1743.95
836.101	1702.49
836.281	1739.88
836.462	1770.88
836.643	1770.11
836.823	1798.01
837.004	1775.34
837.184	1804.01
837.365	1791.61
837.545	1800.14
837.726	1786.96
837.906	1814.86
838.087	1769.72
838.267	1757.71
838.448	1719.93
838.628	1768.56
838.808	1748.41
838.989	1819.9
839.169	1727.1
839.349	1796.84
839.53	1804.4
839.71	1819.13
839.89	1714.11
840.07	1858.46
840.251	1783.67
840.431	1819.71
840.611	1784.06
840.791	1731.16
840.971	1788.71
841.151	1775.14
841.332	1722.45
841.512	1821.45
841.692	1709.85
841.872	1770.69
842.052	1736.78
842.232	1790.64
842.412	1740.46
842.592	1728.84
842.772	1776.5
842.952	1776.5
843.132	1734.26
843.312	1737.36
843.492	1723.03
843.672	1775.92
843.851	1663.93
844.031	1710.05
844.211	1737.94
844.391	1707.33
844.571	1741.63
844.751	1741.43
844.93	1696.29
845.11	1719.15
845.29	1705.78
845.47	1746.08
845.649	1694.55
845.829	1732.91
846.009	1712.37
846.188	1713.53
846.368	1704.43
846.547	1725.93
846.727	1771.66
846.907	1686.21
847.086	1711.79
847.266	1738.14
847.445	1711.01
847.625	1701.91
847.804	1659.67
847.984	1706.95
848.163	1673.04
848.343	1683.89
848.522	1675.95
848.701	1668
848.881	1611.23
849.06	1666.45
849.239	1669.55
849.419	1698.03
849.598	1603.1
849.777	1611.82
849.957	1571.9
850.136	1520.37
850.315	1505.06
850.494	1535.09
850.674	1538.58
850.853	1579.65
851.032	1560.08
851.211	1598.06
851.39	1560.28
851.569	1534.12
851.748	1501.19
851.927	1574.03
852.107	1566.67
852.286	1540.32
852.465	1535.48
852.644	1581.2
852.823	1555.82
853.002	1543.04
853.181	1566.09
853.359	1575.39
853.538	1504.67
853.717	1600.58
853.896	1445.77
854.075	1394.62
854.254	1369.05
854.433	1283.61
854.611	1306.86
854.79	1271.4
854.969	1339.6
855.148	1380.68
855.327	1342.51
855.505	1416.52
855.684	1394.43
855.863	1413.22
856.041	1411.09
856.22	1404.12
856.399	1414
856.577	1499.64
856.756	1510.29
856.934	1581.01
857.113	1605.23
857.291	1484.14
857.47	1456.04
857.648	1477.74
857.827	1510.87
858.005	1528.5
858.184	1485.3
858.362	1554.27
858.541	1486.46
858.719	1450.23
858.898	1503.51
859.076	1469.8
859.254	1529.47
859.433	1454.69
859.611	1441.12
859.789	1412.45
859.967	1498.67
860.146	1513.39
860.324	1415.36
860.502	1468.64
860.68	1434.34
860.859	1426.98
861.037	1448.87
861.215	1425.62
861.393	1437.25
861.571	1464.96
861.749	1407.99
861.927	1454.88
862.105	1435.7
862.283	1404.12
862.461	1386.87
862.639	1369.05
862.817	1387.84
862.995	1392.11
863.173	1374.48
863.351	1384.36
863.529	1385.91
863.707	1423.49
863.885	1430.27
864.063	1348.13
864.241	1387.26
864.418	1417.49
864.596	1380.09
864.774	1328.94
864.952	1383.97
865.129	1395.01
865.307	1317.51
865.485	1310.15
865.663	1352.39
865.84	1286.51
866.018	1311.7
866.196	1185.96
866.373	1219.09
866.551	1161.55
866.728	1112.72
866.906	1178.02
867.084	1198.75
867.261	1222.77
867.439	1247.18
867.616	1257.45
867.794	1233.81
867.971	1251.25
868.149	1257.45
868.326	1298.72
868.503	1301.63
868.681	1274.5
868.858	1279.93
869.035	1215.21
869.213	1321
869.39	1264.04
869.567	1342.12
869.745	1279.73
869.922	1287.48
870.099	1307.05
870.276	1285.16
870.454	1267.53
870.631	1276.25
870.808	1264.23
870.985	1290.58
871.162	1322.36
871.339	1274.5
871.517	1224.51
871.694	1216.76
871.871	1246.99
872.048	1237.5
872.225	1218.7
872.402	1246.02
872.579	1190.61
872.756	1229.16
872.933	1199.52
873.11	1208.43
873.287	1235.95
873.463	1199.72
873.64	1197.78
873.817	1243.11
873.994	1207.08
874.171	1178.98
874.348	1200.49
874.524	1140.82
874.701	1201.46
874.878	1153.22
875.055	1173.56
875.231	1199.33
875.408	1219.86
875.585	1102.07
875.762	1186.73
875.938	1128.03
876.115	1117.37
876.291	1125.32
876.468	1161.16
876.645	1133.65
876.821	1130.55
876.998	1144.11
877.174	1166.78
877.351	1133.07
877.527	1093.93
877.704	1097.8
877.88	1146.82
878.057	1118.73
878.233	1173.17
878.409	1087.54
878.586	1120.47
878.762	1123.96
878.938	1102.07
879.115	1062.93
879.291	1089.47
879.467	1068.74
879.644	1091.22
879.82	1095.29
879.996	1058.67
880.172	1018.37
880.349	1053.24
880.525	1112.72
880.701	1037.74
880.877	1012.36
881.053	1072.62
881.229	1049.37
881.405	1082.69
881.581	1083.27
881.757	1071.45
881.933	1073.2
882.109	1109.43
882.285	1057.7
882.461	1019.53
882.637	1073.59
882.813	1035.03
882.989	1091.99
883.165	1089.47
883.341	1044.14
883.517	1082.5
883.693	1065.45
883.869	1082.11
884.044	1074.75
884.22	1086.57
884.396	1102.07
884.572	1064.67
884.747	1085.4
884.923	1078.82
885.099	1061.19
885.275	1067.19
885.45	1036.58
885.626	1051.5
885.801	1007.52
885.977	1016.43
886.153	991.24
886.328	1041.23
886.504	1017.21
886.679	1052.47
886.855	1037.94
887.03	1065.45
887.206	1086.18
887.381	1057.5
887.557	1057.31
887.732	1048.4
887.908	1082.11
888.083	1092.77
888.258	1048.98
888.434	1040.65
888.609	1067.77
888.784	1101.87
888.96	1042.2
889.135	1023.6
889.31	1007.32
889.485	1042.59
889.661	1042.59
889.836	1071.26
890.011	1057.12
890.186	1027.47
890.361	988.72
890.537	1073.97
890.712	1045.88
890.887	1052.08
891.062	1039.87
891.237	1053.63
891.412	1018.95
891.587	1084.24
891.762	1084.24
891.937	1098.58
892.112	1002.48
892.287	1022.44
892.462	978.46
892.637	967.61
892.812	936.8
892.987	965.47
893.161	939.51
893.336	949.59
893.511	939.13
893.686	973.22
893.861	939.71
894.035	963.54
894.21	952.3
894.385	901.34
894.56	935.83
894.734	848.65
894.909	855.43
895.084	866.28
895.258	830.05
895.433	847.87
895.608	792.65
895.782	751.77
895.957	800.01
896.131	781.61
896.306	756.23
896.48	737.24
896.655	724.84
896.829	649.86
897.004	675.44
897.178	720.58
897.353	682.6
897.527	706.24
897.701	690.93
897.876	632.62
898.05	706.24
898.224	723.68
898.399	733.17
898.573	670.79
898.747	577.4
898.921	597.16
899.096	535.74
899.27	558.41
899.444	552.79
899.618	588.83
899.792	611.89
899.967	578.17
900.141	604.52
900.315	567.91
900.489	586.7
900.663	563.84
900.837	588.64
901.011	525.67
901.185	629.71
901.359	578.95
901.533	586.31
901.707	603.94
901.881	583.79
902.055	544.07
902.229	572.75
902.403	617.31
902.576	577.01
902.75	572.94
902.924	685.9
903.098	662.45
903.272	690.93
903.446	753.52
903.619	710.12
903.793	764.95
903.967	702.56
904.14	764.95
904.314	801.95
904.488	744.22
904.661	777.73
904.835	745.96
905.009	795.36
905.182	815.13
905.356	773.86
905.529	760.68
905.703	757.58
905.876	735.69
906.05	691.71
906.223	665.75
906.397	643.08
906.57	599.1
906.744	598.9
906.917	585.92
907.09	567.32
907.264	543.3
907.437	548.14
907.61	521.02
907.784	559.19
907.957	557.64
908.13	508.81
908.304	587.47
908.477	524.12
908.65	522.37
908.823	492.73
908.996	549.89
909.17	511.72
909.343	504.16
909.516	531.29
909.689	524.7
909.862	491.57
910.035	527.99
910.208	477.62
910.381	471.42
910.554	576.62
910.727	541.75
910.9	487.31
911.073	504.16
911.246	554.15
911.419	577.79
911.592	538.84
911.765	525.09
911.938	496.41
912.11	511.72
912.283	504.55
912.456	536.13
912.629	516.56
912.802	471.61
912.974	459.6
913.147	431.7
913.32	413.3
913.493	395.28
913.665	454.56
913.838	428.99
914.01	451.08
914.183	454.76
914.356	439.84
914.528	480.53
914.701	507.84
914.873	504.74
915.046	431.51
915.218	418.91
915.391	346.84
915.563	373
915.736	433.83
915.908	469.48
916.081	414.46
916.253	428.6
916.425	443.71
916.598	488.08
916.77	472.78
916.942	404
917.115	349.55
917.287	431.12
917.459	403.61
917.632	364.66
917.804	347.42
917.976	409.23
918.148	441.58
918.32	388.5
918.493	460.57
918.665	499.51
918.837	437.9
919.009	488.66
919.181	498.74
919.353	486.14
919.525	463.09
919.697	458.44
919.869	448.17
920.041	516.17
920.213	574.3
920.385	525.67
920.557	481.49
920.729	502.23
920.901	505.33
921.073	495.25
921.244	445.07
921.416	513.27
921.588	469.87
921.76	490.6
921.932	530.51
922.103	480.72
922.275	467.35
922.447	496.41
922.619	416.98
922.79	458.05
922.962	462.89
923.134	482.46
923.305	405.16
923.477	396.25
923.648	383.46
923.82	412.52
923.991	354.78
924.163	366.41
924.335	401.48
924.506	364.86
924.677	447.59
924.849	399.93
925.02	417.36
925.192	423.18
925.363	421.63
925.535	402.25
925.706	351.1
925.877	442.36
926.049	369.9
926.22	424.92
926.391	409.23
926.562	427.24
926.734	390.63
926.905	424.53
927.076	356.14
927.247	358.66
927.419	338.7
927.59	322.62
927.761	321.46
927.932	319.13
928.103	324.37
928.274	250.93
928.445	300.34
928.616	276.12
928.787	271.28
928.958	299.76
929.129	278.06
929.3	269.15
929.471	231.95
929.642	191.84
929.813	164.33
929.984	239.5
930.155	179.05
930.326	195.91
930.496	166.65
930.667	123.26
930.838	162.39
931.009	131.78
931.18	133.72
931.35	133.33
931.521	137.01
931.692	68.23
931.863	71.72
932.033	108.34
932.204	100.39
932.374	114.34
932.545	46.53
932.716	134.49
932.886	107.56
933.057	37.23
933.227	75.01
933.398	115.89
933.568	42.66
933.739	34.52
933.909	30.84
934.08	101.17
934.25	11.85
934.421	54.86
934.591	76.37
934.761	32.78
934.932	13.4
935.102	36.26
935.272	46.14
935.443	50.6
935.613	17.28
935.783	58.74
935.953	-2.87
936.123	154.06
936.294	28.71
936.464	27.35
936.634	5.07
936.804	2.94
936.974	3.52
937.144	53.51
937.314	42.08
937.484	8.94
937.655	9.72
937.825	80.05
937.995	-8.11
938.165	70.75
938.334	56.8
938.504	33.94
938.674	43.63
938.844	54.28
939.014	111.63
939.184	76.95
939.354	142.44
939.524	130.23
939.694	108.72
939.863	94.77
940.033	154.26
940.203	122.67
940.373	83.34
940.542	100.78
940.712	97.68
940.882	117.25
941.051	92.45
941.221	124.22
941.391	119.57
941.56	69.59
941.73	64.16
941.899	178.28
942.069	73.85
942.238	117.44
942.408	80.05
942.577	117.83
942.747	94.58
942.916	30.84
943.086	56.61
943.255	128.49
943.425	75.4
943.594	70.36
943.763	37.04
943.933	52.15
944.102	-7.33
944.271	54.48
944.441	72.88
944.61	62.81
944.779	73.66
944.948	149.22
945.117	38.2
945.287	58.35
945.456	7.59
945.625	39.56
945.794	46.34
945.963	40.33
946.132	75.98
946.301	58.93
946.47	76.17
946.639	0.61
946.808	49.05
946.977	58.54
947.146	119.57
947.315	52.73
947.484	82.76
947.653	40.53
947.822	61.64
947.991	38.2
948.16	108.14
948.329	115.7
948.498	54.67
948.666	53.7
948.835	73.66
949.004	25.61
949.173	32.19
949.341	53.51
949.51	75.79
949.679	98.46
949.847	97.1
950.016	136.04
950.185	123.64
950.353	55.44
950.522	56.61
950.69	93.03
950.859	75.4
951.028	113.18
951.196	72.49
951.365	31.61
951.533	33.16
951.701	109.11
951.87	96.91
952.038	27.54
952.207	52.34
952.375	119.77
952.543	51.57
952.712	52.15
952.88	51.96
953.048	133.14
953.217	57.38
953.385	75.4
953.553	74.82
953.721	34.13
953.89	48.28
954.058	22.12
954.226	56.8
954.394	72.3
954.562	23.28
954.73	76.56
954.898	37.81
955.067	91.67
955.235	53.89
955.403	85.67
955.571	115.89
955.739	65.52
955.907	46.53
956.075	59.51
956.243	42.85
956.41	111.63
956.578	10.3
956.746	20.57
956.914	46.14
957.082	88.77
957.25	101.94
957.418	78.5
957.585	86.25
957.753	101.75
957.921	51.18
958.089	67.65
958.256	61.84
958.424	87.8
958.592	73.07
958.759	29.87
958.927	79.08
959.095	12.43
959.262	46.92
959.43	72.69
959.597	13.79
959.765	39.56
959.932	55.83
960.1	85.09
960.267	72.3
960.435	74.43
960.602	92.84
960.77	41.11
960.937	14.56
961.104	75.98
961.272	23.28
961.439	72.49
961.606	89.93
961.774	85.47
961.941	27.35
962.108	64.36
962.275	95.94
962.443	99.23
962.61	105.82
962.777	152.71
962.944	95.94
963.111	98.46
963.278	67.84
963.446	87.8
963.613	83.34
963.78	81.21
963.947	110.08
964.114	93.61
964.281	141.27
964.448	98.46
964.615	84.12
964.782	77.14
964.949	105.24
965.116	87.99
965.282	116.09
965.449	86.83
965.616	76.37
965.783	99.42
965.95	81.6
966.117	63.19
966.283	75.79
966.45	92.64
966.617	86.44
966.784	123.84
966.95	110.27
967.117	121.51
967.284	70.75
967.45	78.31
967.617	128.68
967.784	109.69
967.95	146.7
968.117	88.96
968.283	122.87
968.45	205.4
968.616	133.33
968.783	137.01
968.949	122.87
969.116	142.63
969.282	106.4
969.449	150.19
969.615	118.99
969.781	82.76
969.948	95.16
970.114	68.62
970.28	162.59
970.447	104.07
970.613	149.61
970.779	130.23
970.945	136.24
971.112	156.58
971.278	122.48
971.444	115.12
971.61	151.16
971.776	103.11
971.942	121.51
972.108	115.12
972.275	81.02
972.441	130.23
972.607	181.96
972.773	87.8
972.939	124.61
973.105	88.38
973.271	75.79
973.437	88.96
973.602	81.6
973.768	111.44
973.934	99.04
974.1	110.66
974.266	47.11
974.432	96.13
974.598	75.79
974.763	118.41
974.929	82.76
975.095	117.83
975.261	69.98
975.426	57.96
975.592	96.13
975.758	142.82
975.923	55.25
976.089	65.13
976.255	124.81
976.42	116.28
976.586	135.66
976.751	106.59
976.917	157.16
977.082	108.34
977.248	86.44
977.413	39.36
977.579	71.91
977.744	83.92
977.91	41.69
978.075	88.38
978.24	105.62
978.406	69.59
978.571	68.62
978.736	60.87
978.902	82.76
979.067	70.75
979.232	42.46
979.397	97.87
979.563	117.25
979.728	64.16
979.893	86.44
980.058	72.49
980.223	129.65
980.388	96.32
980.554	84.51
980.719	62.42
980.884	96.71
981.049	101.75
981.214	77.72
981.379	124.42
981.544	63
981.709	75.59
981.874	69.59
982.039	83.15
982.204	71.91
982.368	86.44
982.533	67.26
982.698	110.47
982.863	120.93
983.028	66.88
983.193	93.22
983.357	90.9
983.522	113.57
983.687	100.78
983.852	73.07
984.016	91.87
984.181	112.99
984.346	94.58
984.51	96.71
984.675	104.66
984.839	112.41
985.004	104.27
985.168	131.59
985.333	110.08
985.498	71.72
985.662	112.21
985.827	103.88
985.991	108.14
986.155	86.64
986.32	107.37
986.484	157.55
986.649	112.6
986.813	36.84
986.977	103.11
987.142	86.83
987.306	56.99
987.47	64.94
987.634	96.71
987.799	99.62
987.963	104.27
988.127	113.96
988.291	160.45
988.455	65.71
988.62	80.24
988.784	121.71
988.948	96.71
989.112	61.45
989.276	101.36
989.44	83.15
989.604	82.76
989.768	61.45
989.932	157.16
990.096	42.66
990.26	61.06
990.424	34.71
990.588	74.04
990.752	123.26
990.915	112.99
991.079	64.74
991.243	66.68
991.407	125.77
991.571	72.11
991.734	89.16
991.898	88.96
992.062	167.43
992.226	77.72
992.389	43.63
992.553	27.35
992.717	65.13
992.88	50.02
993.044	91.29
993.207	76.56
993.371	90.51
993.535	85.47
993.698	81.02
993.862	112.21
994.025	113.37
994.189	77.34
994.352	108.14
994.515	90.12
994.679	126.16
994.842	62.23
995.006	126.94
995.169	63
995.332	49.83
995.496	99.04
995.659	18.83
995.822	60.09
995.985	92.45
996.149	116.28
996.312	93.81
996.475	123.64
996.638	51.38
996.801	131.01
996.964	107.37
997.128	76.56
997.291	83.34
997.454	90.12
997.617	50.99
997.78	99.62
997.943	57.38
998.106	98.65
998.269	56.03
998.432	82.18
998.595	74.24
998.758	15.73
998.92	56.8
999.083	10.3
999.246	74.24
999.409	36.07
999.572	13.4
999.735	38.39
999.897	78.5
1000.06	67.07
1000.223	25.61
1000.386	81.6
1000.548	76.56
1000.711	65.33
1000.874	72.69
1001.036	25.22
1001.199	85.47
1001.361	47.11
1001.524	62.42
1001.687	66.88
1001.849	12.04
1002.012	64.16
1002.174	87.02
1002.337	81.21
1002.499	55.44
1002.661	87.8
1002.824	19.99
1002.986	43.04
1003.149	50.21
1003.311	15.14
1003.473	109.31
1003.636	41.49
1003.798	52.93
1003.96	74.24
1004.123	55.44
1004.285	29.48
1004.447	71.53
1004.609	73.27
1004.771	99.04
1004.933	28.51
1005.096	19.99
1005.258	15.73
1005.42	32.97
1005.582	70.94
1005.744	44.01
1005.906	11.27
1006.068	43.04
1006.23	12.63
1006.392	-15.66
1006.554	19.6
1006.716	72.3
1006.878	64.74
1007.04	13.79
1007.202	18.24
1007.363	70.56
1007.525	50.79
1007.687	75.4
1007.849	76.37
1008.011	20.76
1008.172	12.63
1008.334	45.76
1008.496	76.56
1008.658	-12.37
1008.819	29.29
1008.981	-0.36
1009.143	22.89
1009.304	37.04
1009.466	61.45
1009.627	81.99
1009.789	142.05
1009.95	37.23
1010.112	41.11
1010.273	64.94
1010.435	22.12
1010.596	38.59
1010.758	6.62
1010.919	37.04
1011.081	20.18
1011.242	56.22
1011.403	57.96
1011.565	27.16
1011.726	71.53
1011.887	10.3
1012.049	14.95
1012.21	51.18
1012.371	101.17
1012.532	-17.4
1012.693	42.08
1012.855	14.95
1013.016	43.43
1013.177	73.27
1013.338	64.55
1013.499	102.33
1013.66	50.79
1013.821	68.04
1013.982	47.5
1014.143	53.89
1014.304	27.16
1014.465	72.88
1014.626	76.76
1014.787	27.35
1014.948	118.41
1015.109	-23.02
1015.27	69.39
1015.431	4.88
1015.592	27.93
1015.752	86.06
1015.913	22.89
1016.074	48.08
1016.235	22.51
1016.395	35.29
1016.556	13.4
1016.717	37.23
1016.877	94.39
1017.038	3.71
1017.199	45.56
1017.359	27.35
1017.52	53.51
1017.681	14.95
1017.841	12.43
1018.002	-0.74
1018.162	25.41
1018.323	66.29
1018.483	-1.13
1018.644	15.53
1018.804	-4.23
1018.964	-20.31
1019.125	31.81
1019.285	55.64
1019.446	-8.49
1019.606	27.35
1019.766	-33.49
1019.926	27.74
1020.087	48.08
1020.247	-21.09
1020.407	43.04
1020.567	68.43
1020.728	-5.78
1020.888	4.1
1021.048	15.92
1021.208	-16.05
1021.368	1.19
1021.528	68.04
1021.688	46.34
1021.848	26.96
1022.008	44.79
1022.168	14.76
1022.328	32
1022.488	33.74
1022.648	9.53
1022.808	42.27
1022.968	35.29
1023.128	-1.52
1023.288	10.3
1023.448	38.39
1023.608	38.39
1023.767	23.86
1023.927	-3.46
1024.087	-13.92
1024.247	-16.24
1024.406	4.29
1024.566	-13.92
1024.726	-8.49
1024.885	5.84
1025.045	67.46
1025.205	21.54
1025.364	17.08
1025.524	42.85
1025.683	8.56
1025.843	36.26
1026.003	17.08
1026.162	90.32
1026.321	46.92
1026.481	9.91
1026.64	7.39
1026.8	56.22
1026.959	36.26
1027.119	26.19
1027.278	4.1
1027.437	7.2
1027.597	45.18
1027.756	45.37
1027.915	29.68
1028.074	42.85
1028.234	-15.66
1028.393	23.86
1028.552	13.79
1028.711	-61.97
1028.87	69.98
1029.03	-27.87
1029.189	13.21
1029.348	-32.9
1029.507	-4.23
1029.666	-5.59
1029.825	-10.04
1029.984	-7.72
1030.143	13.4
1030.302	-10.62
1030.461	-38.14
1030.62	27.54
1030.779	43.43
1030.938	10.69
1031.097	-24.57
1031.255	17.08
1031.414	66.88
1031.573	52.54
1031.732	-33.68
1031.891	4.88
1032.049	74.24
1032.208	16.31
1032.367	-6.36
1032.525	1.19
1032.684	-14.11
1032.843	7.39
1033.001	-15.27
1033.16	146.51
1033.319	66.88
1033.477	40.91
1033.636	10.69
1033.794	-6.94
1033.953	36.84
1034.111	60.48
1034.27	-6.17
1034.428	33.16
1034.587	-5.01
1034.745	14.56
1034.903	10.3
1035.062	47.5
1035.22	-26.9
1035.378	24.25
1035.537	0.61
1035.695	37.04
1035.853	12.63
1036.011	39.17
1036.17	7.78
1036.328	-44.53
1036.486	24.83
1036.644	32.97
1036.802	-61.58
1036.96	-17.6
1037.119	1.19
1037.277	-24.38
1037.435	-29.42
1037.593	-6.94
1037.751	0.23
1037.909	27.16
1038.067	27.16
