Data from gum_young_FLMT105791__129__17-40-57-040.txt Node

Date: Mon Mar 20 17:40:57 GMT 2023
User: antho
Spectrometer: FLMT10579
Trigger mode: 0
Integration Time (sec): 1.000000E-1
Scans to average: 10
Electric dark correction enabled: true
Nonlinearity correction enabled: false
Boxcar width: 0
XAxis mode: Wavelengths
Number of Pixels in Spectrum: 3648
>>>>>Begin Spectral Data<<<<<
345.248	-124.53
345.464	-124.53
345.681	-124.53
345.898	-149.14
346.114	-149.72
346.331	-31.73
346.548	28.72
346.764	3.73
346.981	-11.38
347.197	-9.83
347.414	22.52
347.631	-35.99
347.847	55.07
348.064	4.5
348.28	27.75
348.497	-31.53
348.713	-21.85
348.93	51.59
349.146	31.24
349.363	7.41
349.579	36.86
349.796	-0.53
350.012	9.93
350.229	17.68
350.445	16.13
350.661	-3.05
350.878	32.21
351.094	17.49
351.311	36.28
351.527	51
351.743	8.19
351.96	38.41
352.176	44.61
352.392	45
352.609	48.49
352.825	12.84
353.041	5.86
353.257	8.19
353.474	29.3
353.69	13.61
353.906	11.48
354.122	20.2
354.339	61.85
354.555	-0.15
354.771	18.26
354.987	47.32
355.203	87.43
355.42	16.32
355.636	15.16
355.852	15.16
356.068	17.1
356.284	-4.21
356.5	74.25
356.716	12.45
356.932	20.97
357.148	61.85
357.364	10.32
357.58	45.58
357.796	65.34
358.012	49.07
358.228	43.45
358.444	-62.53
358.66	48.87
358.876	34.54
359.092	-12.35
359.308	34.73
359.524	21.94
359.74	27.17
359.956	-3.63
360.172	31.63
360.388	77.35
360.604	11.29
360.819	105.64
361.035	33.18
361.251	44.61
361.467	10.7
361.683	64.95
361.898	21.17
362.114	26.79
362.33	8.96
362.546	42.87
362.762	40.54
362.977	38.41
363.193	-3.63
363.409	57.79
363.624	-19.91
363.84	3.15
364.056	20.2
364.271	48.49
364.487	50.23
364.703	58.37
364.918	-10.61
365.134	36.47
365.35	22.52
365.565	103.32
365.781	35.5
365.996	32.79
366.212	72.32
366.427	40.54
366.643	39.96
366.858	18.65
367.074	0.44
367.289	81.23
367.505	122.11
367.72	-14.1
367.936	0.63
368.151	68.25
368.367	60.11
368.582	27.17
368.798	11.09
369.013	80.26
369.228	22.14
369.444	34.92
369.659	93.82
369.874	65.15
370.09	79.87
370.305	-36.18
370.52	28.72
370.736	65.15
370.951	44.8
371.166	76.58
371.381	55.46
371.597	78.32
371.812	-5.38
372.027	-18.94
372.242	51.78
372.458	112.42
372.673	30.08
372.888	40.54
373.103	46.94
373.318	107
373.533	52.75
373.749	32.79
373.964	-31.53
374.179	63.21
374.394	-7.12
374.609	75.8
374.824	5.67
375.039	91.11
375.254	28.14
375.469	95.95
375.684	38.6
375.899	75.61
376.114	53.72
376.329	55.07
376.544	58.56
376.759	69.99
376.974	16.71
377.189	19.23
377.404	57.79
377.619	51
377.834	-8.67
378.049	-10.41
378.264	-14.68
378.478	44.22
378.693	21.36
378.908	47.52
379.123	23.49
379.338	90.53
379.553	59.34
379.767	43.06
379.982	65.73
380.197	44.8
380.412	56.24
380.626	72.9
380.841	104.48
381.056	66.31
381.271	119.59
381.485	49.84
381.7	-0.92
381.915	37.25
382.129	16.71
382.344	42.67
382.559	47.13
382.773	68.05
382.988	-0.73
383.202	40.35
383.417	3.34
383.632	121.72
383.846	26.4
384.061	48.1
384.275	37.64
384.49	59.34
384.704	71.15
384.919	55.07
385.133	42.48
385.348	65.92
385.562	1.4
385.777	87.04
385.991	90.33
386.206	42.48
386.42	28.72
386.634	84.91
386.849	63.21
387.063	53.91
387.277	14.77
387.492	27.17
387.706	28.14
387.92	15.16
388.135	75.03
388.349	44.42
388.563	53.72
388.778	63.99
388.992	97.12
389.206	60.3
389.42	113.2
389.635	20
389.849	81.03
390.063	108.93
390.277	55.46
390.491	117.27
390.706	78.13
390.92	102.15
391.134	61.66
391.348	84.33
391.562	7.02
391.776	39.38
391.99	40.15
392.205	85.88
392.419	53.91
392.633	40.54
392.847	106.61
393.061	51
393.275	96.92
393.489	57.79
393.703	71.93
393.917	69.6
394.131	36.28
394.345	62.24
394.559	82.2
394.773	46.35
394.986	55.46
395.2	52.75
395.414	113.2
395.628	57.01
395.842	68.63
396.056	64.57
396.27	34.54
396.484	53.91
396.697	68.83
396.911	95.76
397.125	69.02
397.339	88.2
397.553	55.46
397.766	116.3
397.98	84.13
398.194	100.22
398.408	66.12
398.621	97.31
398.835	111.26
399.049	72.32
399.262	121.33
399.476	105.25
399.69	112.03
399.903	146.72
400.117	76
400.331	94.4
400.544	69.6
400.758	181.78
400.971	111.45
401.185	154.85
401.398	76.58
401.612	162.6
401.826	131.6
402.039	112.23
402.253	71.93
402.466	106.42
402.68	119.4
402.893	128.7
403.106	111.26
403.32	92.85
403.533	143.81
403.747	135.87
403.96	118.04
404.174	117.85
404.387	80.26
404.6	129.86
404.814	142.65
405.027	90.72
405.24	119.98
405.454	109.9
405.667	157.95
405.88	65.34
406.094	106.22
406.307	127.34
406.52	97.89
406.733	91.69
406.947	76.97
407.16	166.48
407.373	147.3
407.586	126.76
407.799	98.86
408.012	125.21
408.226	127.34
408.439	190.31
408.652	99.83
408.865	135.48
409.078	143.42
409.291	164.73
409.504	102.93
409.717	146.33
409.93	130.63
410.143	125.6
410.357	83.75
410.57	98.67
410.783	117.85
410.996	125.79
411.209	133.54
411.421	141.48
411.634	126.95
411.847	118.04
412.06	135.28
412.273	136.06
412.486	100.8
412.699	201.35
412.912	146.52
413.125	173.45
413.338	140.32
413.55	156.01
413.763	149.82
413.976	162.41
414.189	97.12
414.402	167.06
414.615	202.13
414.827	124.05
415.04	175.97
415.253	171.32
415.466	168.03
415.678	211.62
415.891	167.64
416.104	169.58
416.316	164.54
416.529	126.95
416.742	173.84
416.954	189.53
417.167	163.57
417.38	137.22
417.592	181.2
417.805	125.21
418.017	106.22
418.23	188.37
418.442	150.59
418.655	139.35
418.868	165.31
419.08	183.72
419.293	196.12
419.505	179.07
419.718	152.91
419.93	196.12
420.142	168.22
420.355	174.61
420.567	195.73
420.78	204.06
420.992	150.78
421.205	197.48
421.417	139.74
421.629	191.86
421.842	145.36
422.054	147.3
422.266	208.91
422.479	225.76
422.691	177.71
422.903	186.05
423.115	144.97
423.328	191.86
423.54	194.57
423.752	192.25
423.964	157.37
424.177	185.27
424.389	167.45
424.601	279.63
424.813	206.78
425.025	200.96
425.238	200.19
425.45	149.23
425.662	161.63
425.874	452.25
426.086	177.71
426.298	213.75
426.51	187.21
426.722	198.83
426.934	173.84
427.146	210.46
427.358	165.12
427.57	204.84
427.782	200
427.994	174.03
428.206	160.28
428.418	168.03
428.63	207.94
428.842	230.03
429.054	180.81
429.266	208.91
429.478	164.73
429.69	216.27
429.902	146.33
430.114	246.11
430.325	221.31
430.537	184.5
430.749	172.1
430.961	113.58
431.173	160.66
431.384	195.73
431.596	124.63
431.808	160.66
432.02	212.2
432.231	228.09
432.443	224.21
432.655	205.61
432.867	204.84
433.078	194.57
433.29	288.34
433.502	235.84
433.713	256.38
433.925	229.45
434.136	264.32
434.348	174.42
434.56	174.42
434.771	279.24
434.983	161.05
435.194	197.28
435.406	198.25
435.617	254.83
435.829	286.02
436.04	245.91
436.252	256.96
436.463	302.1
436.675	287.96
436.886	249.4
437.098	252.89
437.309	285.44
437.521	254.05
437.732	289.89
437.943	260.06
438.155	271.49
438.366	203.1
438.578	299.39
438.789	251.92
439	257.73
439.211	240.88
439.423	262.77
439.634	248.82
439.845	279.63
440.057	293.58
440.268	293.96
440.479	258.7
440.69	290.86
440.902	240.3
441.113	270.52
441.324	246.11
441.535	294.16
441.746	314.11
441.957	238.75
442.168	254.44
442.38	291.06
442.591	300.74
442.802	273.04
443.013	279.63
443.224	284.47
443.435	285.63
443.646	285.05
443.857	285.05
444.068	278.08
444.279	259.48
444.49	341.24
444.701	311.21
444.912	370.88
445.123	351.7
445.334	313.34
445.545	308.49
445.756	318.57
445.967	272.07
446.178	312.95
446.388	333.29
446.599	323.8
446.81	338.33
447.021	325.93
447.232	344.34
447.443	340.07
447.653	300.36
447.864	364.1
448.075	347.63
448.286	350.92
448.496	367.01
448.707	381.34
448.918	324.19
449.129	404.79
449.339	323.61
449.55	363.91
449.761	348.21
449.971	396.07
450.182	339.3
450.393	372.04
450.603	370.49
450.814	388.32
451.024	378.05
451.235	420.87
451.446	398.39
451.656	417.19
451.867	368.36
452.077	387.54
452.288	444.31
452.498	419.51
452.709	387.93
452.919	393.36
453.13	355.38
453.34	412.54
453.55	325.35
453.761	394.91
453.971	371.85
454.182	418.93
454.392	397.42
454.602	450.12
454.813	396.46
455.023	434.82
455.233	338.52
455.444	400.33
455.654	333.29
455.864	392.77
456.075	383.47
456.285	353.64
456.495	384.06
456.705	409.44
456.916	445.47
457.126	438.89
457.336	406.72
457.546	367.39
457.756	369.33
457.967	460.78
458.177	372.43
458.387	400.91
458.597	388.12
458.807	391.42
459.017	387.93
459.227	391.61
459.437	420.67
459.647	412.73
459.857	420.29
460.068	414.09
460.278	457.49
460.488	404.79
460.698	486.74
460.908	397.62
461.117	395.29
461.327	413.31
461.537	447.41
461.747	442.95
461.957	435.79
462.167	495.27
462.377	462.72
462.587	436.75
462.797	487.32
463.007	452.25
463.216	491.39
463.426	472.6
463.636	478.99
463.846	415.64
464.056	427.84
464.265	478.8
464.475	406.34
464.685	455.16
464.895	474.34
465.104	446.25
465.314	491.39
465.524	428.62
465.733	444.89
465.943	511.15
466.153	542.54
466.362	516.77
466.572	470.66
466.782	473.18
466.991	491.97
467.201	503.02
467.41	435.2
467.62	487.71
467.829	474.54
468.039	502.05
468.249	450.9
468.458	500.69
468.668	528.98
468.877	534.02
469.086	534.6
469.296	540.6
469.505	469.3
469.715	582.26
469.924	507.28
470.134	540.02
470.343	537.89
470.552	501.66
470.762	485.77
470.971	505.34
471.18	514.64
471.39	515.61
471.599	482.29
471.808	522.39
472.018	488.49
472.227	573.73
472.436	568.12
472.645	529.37
472.855	527.23
473.064	584.39
473.273	567.34
473.482	556.88
473.691	591.75
473.901	580.32
474.11	560.56
474.319	636.51
474.528	563.27
474.737	666.15
474.946	591.75
475.155	606.09
475.364	651.23
475.573	572.57
475.783	583.23
475.992	633.02
476.201	643.29
476.41	599.31
476.619	592.33
476.828	605.51
477.037	567.53
477.245	606.09
477.454	640.38
477.663	614.03
477.872	632.25
478.081	700.25
478.29	639.61
478.499	702.58
478.708	690.95
478.917	723.89
479.125	660.92
479.334	665.38
479.543	661.5
479.752	678.94
479.961	696.38
480.169	735.51
480.378	668.67
480.587	817.08
480.796	753.34
481.004	709.55
481.213	746.56
481.422	718.85
481.63	734.54
481.839	766.51
482.048	794.61
482.256	747.33
482.465	788.99
482.674	792.86
482.882	805.84
483.091	852.15
483.299	794.22
483.508	802.94
483.716	807.2
483.925	830.64
484.134	788.41
484.342	798.67
484.551	835.29
484.759	833.36
484.967	856.02
485.176	851.37
485.384	866.29
485.593	865.32
485.801	816.31
486.01	791.89
486.218	777.75
486.426	715.75
486.635	743.65
486.843	726.02
487.051	747.33
487.26	760.31
487.468	841.88
487.676	836.84
487.885	795.57
488.093	834.71
488.301	894.97
488.509	875.98
488.717	924.22
488.926	882.18
489.134	828.71
489.342	848.47
489.55	856.6
489.758	883.54
489.967	872.1
490.175	996.88
490.383	900.97
490.591	1006.95
490.799	914.34
491.007	967.23
491.215	953.67
491.423	966.07
491.631	973.05
491.839	970.92
492.047	963.55
492.255	906.98
492.463	884.5
492.671	937.4
492.879	979.05
493.087	935.07
493.295	990.29
493.503	960.84
493.711	1005.79
493.919	1033.88
494.127	1045.7
494.334	1055.58
494.542	959.29
494.75	1010.83
494.958	1020.52
495.166	1044.54
495.374	1067.79
495.581	1051.51
495.789	1044.35
495.997	1081.16
496.205	1031.36
496.412	1033.5
496.62	1043.18
496.828	1076.9
497.035	1092.59
497.243	1082.32
497.451	1056.94
497.658	1097.43
497.866	1054.81
498.074	1168.93
498.281	1060.62
498.489	1162.92
498.696	1073.6
498.904	1081.16
499.112	1083.1
499.319	1173.58
499.527	1096.27
499.734	1169.7
499.942	1085.23
500.149	1121.26
500.357	1159.43
500.564	1098.21
500.771	1147.23
500.979	1080.58
501.186	1082.51
501.394	1137.34
501.601	1111
501.808	1179.39
502.016	1145.09
502.223	1147.81
502.43	1145.29
502.638	1165.44
502.845	1152.65
503.052	1212.71
503.26	1161.56
503.467	1247.59
503.674	1207.67
503.881	1197.21
504.089	1285.95
504.296	1222.98
504.503	1169.31
504.71	1233.83
504.917	1190.82
505.125	1233.83
505.332	1246.81
505.539	1268.71
505.746	1365.97
505.953	1318.3
506.16	1286.92
506.367	1347.17
506.574	1352.6
506.781	1391.35
506.988	1273.94
507.195	1315.59
507.402	1348.14
507.609	1382.82
507.816	1338.26
508.023	1314.24
508.23	1336.32
508.437	1337.49
508.644	1373.52
508.851	1409.37
509.058	1437.46
509.265	1420.99
509.472	1452.18
509.679	1526
509.885	1457.8
510.092	1445.21
510.299	1445.21
510.506	1455.09
510.713	1489.77
510.92	1489.96
511.126	1513.99
511.333	1568.63
511.54	1564.56
511.746	1598.08
511.953	1620.16
512.16	1620.36
512.367	1576.38
512.573	1588
512.78	1594.78
512.987	1569.21
513.193	1585.09
513.4	1548.09
513.606	1605.63
513.813	1637.21
514.02	1627.14
514.226	1679.45
514.433	1692.82
514.639	1618.81
514.846	1675.19
515.052	1637.02
515.259	1716.46
515.465	1715.49
515.672	1732.73
515.878	1805
516.085	1759.66
516.291	1818.37
516.497	1752.49
516.704	1705.61
516.91	1663.37
517.117	1607.18
517.323	1590.52
517.529	1615.13
517.736	1631.4
517.942	1669.37
518.148	1713.36
518.354	1758.89
518.561	1761.02
518.767	1731.76
518.973	1758.89
519.179	1850.72
519.386	1829.22
519.592	1815.27
519.798	1825.34
520.004	1988.86
520.21	1924.93
520.417	1978.6
520.623	2026.06
520.829	2045.83
521.035	2038.66
521.241	2010.37
521.447	2098.91
521.653	2179.12
521.859	2074.5
522.065	2155.68
522.271	2247.13
522.477	2221.94
522.683	2264.95
522.889	2201.6
523.095	2178.54
523.301	2185.13
523.507	2217.49
523.713	2248.68
523.919	2221.94
524.125	2360.66
524.331	2294.4
524.537	2393.8
524.742	2390.31
524.948	2402.9
525.154	2396.51
525.36	2460.06
525.566	2415.5
525.772	2474.98
525.977	2418.98
526.183	2442.04
526.389	2485.83
526.595	2395.93
526.8	2366.86
527.006	2307.19
527.212	2253.91
527.417	2216.9
527.623	2244.61
527.829	2362.8
528.034	2384.11
528.24	2441.07
528.446	2402.71
528.651	2524.96
528.857	2572.82
529.062	2588.51
529.268	2613.31
529.473	2606.53
529.679	2641.02
529.884	2713.48
530.09	2628.81
530.295	2642.76
530.501	2708.05
530.706	2674.15
530.912	2675.89
531.117	2673.76
531.323	2739.44
531.528	2780.13
531.733	2813.65
531.939	2706.89
532.144	2753.2
532.35	2731.3
532.555	2792.33
532.76	2747.58
532.966	2722.78
533.171	2693.91
533.376	2643.73
533.581	2651.67
533.787	2694.88
533.992	2747.97
534.197	2768.31
534.402	2751.26
534.607	2759.78
534.813	2835.73
535.018	2776.25
535.223	2830.11
535.428	2839.22
535.633	2890.37
535.838	2900.44
536.043	2939
536.249	3038.59
536.454	2938.61
536.659	2977.56
536.864	2976.78
537.069	2888.43
537.274	2929.89
537.479	2952.95
537.684	2906.06
537.889	2856.08
538.094	2994.22
538.299	2913.23
538.504	2957.99
538.708	2951.4
538.913	3021.73
539.118	2985.69
539.323	2973.87
539.528	2948.11
539.733	2955.08
539.938	2969.22
540.142	2928.34
540.347	2905.48
540.552	2901.99
540.757	2870.99
540.962	2875.64
541.166	2866.34
541.371	2867.12
541.576	2907.03
541.781	2863.83
541.985	2970.97
542.19	2960.89
542.395	3083.34
542.599	3073.65
542.804	3011.27
543.008	3053.7
543.213	2990.73
543.418	2938.61
543.622	3029.09
543.827	2965.35
544.031	3058.35
544.236	3089.74
544.44	3057.96
544.645	3144.37
544.849	3073.07
545.054	3143.4
545.258	3144.76
545.463	3159.48
545.667	3090.12
545.872	3153.67
546.076	3100.97
546.281	3137.98
546.485	3089.74
546.689	3120.35
546.894	3150.77
547.098	3154.83
547.302	3115.7
547.507	3106.59
547.711	3160.65
547.915	3121.7
548.119	3072.1
548.324	3065.52
548.528	3168.4
548.732	3141.85
548.936	3176.92
549.141	3173.43
549.345	3132.75
549.549	3155.8
549.753	3184.28
549.957	3235.05
550.161	3228.65
550.366	3162.97
550.57	3187
550.774	3184.48
550.978	3181.18
551.182	3200.17
551.386	3195.91
551.59	3164.52
551.794	3168.78
551.998	3183.12
552.202	3221.48
552.406	3216.64
552.61	3245.51
552.814	3263.14
553.018	3260.81
553.222	3207.15
553.426	3197.27
553.63	3286.2
553.833	3179.44
554.037	3144.18
554.241	3204.05
554.445	3233.5
554.649	3186.61
554.853	3174.21
555.056	3219.55
555.26	3214.12
555.464	3198.23
555.668	3222.26
555.871	3222.06
556.075	3237.76
556.279	3175.76
556.483	3140.5
556.686	3126.55
556.89	3142.24
557.094	3167.62
557.297	3096.9
557.501	3109.5
557.704	3050.6
557.908	3104.07
558.112	3084.89
558.315	3139.92
558.519	3081.99
558.722	3047.89
558.926	3105.82
559.129	3001.97
559.333	2964.19
559.536	2977.36
559.74	2948.69
559.943	2938.61
560.147	2949.46
560.35	2956.63
560.553	2995.19
560.757	2973.49
560.96	2996.54
561.164	2976.97
561.367	3058.54
561.57	3029.29
561.774	3012.43
561.977	3000.03
562.18	2933.96
562.384	3034.13
562.587	2992.67
562.79	2989.96
562.993	2906.84
563.197	2944.62
563.4	3000.61
563.603	2972.52
563.806	3040.14
564.009	2923.31
564.212	2962.44
564.416	2839.41
564.619	2923.5
564.822	2811.71
565.025	2920.79
565.228	2832.05
565.431	2885.14
565.634	2765.4
565.837	2770.63
566.04	2761.72
566.243	2740.8
566.446	2673.57
566.649	2777.41
566.852	2716.97
567.055	2722.39
567.258	2740.02
567.461	2823.72
567.664	2780.51
567.867	2676.86
568.07	2743.12
568.273	2740.41
568.475	2777.61
568.678	2680.54
568.881	2629.39
569.084	2603.62
569.287	2542.59
569.489	2588.32
569.692	2592.97
569.895	2594.71
570.098	2544.14
570.3	2509.85
570.503	2495.51
570.706	2466.84
570.909	2524.96
571.111	2406.78
571.314	2401.74
571.516	2467.81
571.719	2450.95
571.922	2406.78
572.124	2451.92
572.327	2450.76
572.529	2396.12
572.732	2432.35
572.935	2441.07
573.137	2504.81
573.34	2423.83
573.542	2468.19
573.745	2456.96
573.947	2439.91
574.15	2394.38
574.352	2400.19
574.554	2433.71
574.757	2383.53
574.959	2298.47
575.162	2324.24
575.364	2286.07
575.566	2379.07
575.769	2272.51
575.971	2301.77
576.173	2189.2
576.376	2273.28
576.578	2334.51
576.78	2325.02
576.982	2176.99
577.185	2232.4
577.387	2229.5
577.589	2236.28
577.791	2266.7
577.993	2270.57
578.196	2211.09
578.398	2200.63
578.6	2238.6
578.802	2142.89
579.004	2123.71
579.206	2151.22
579.408	2191.72
579.61	2161.49
579.812	2217.29
580.014	2151.22
580.216	2157.23
580.418	2177.77
580.62	2183.39
580.822	2132.24
581.024	2187.84
581.226	2257.98
581.428	2171.95
581.63	2253.72
581.832	2195.59
582.034	2267.86
582.236	2175.44
582.438	2274.06
582.64	2256.23
582.841	2282.39
583.043	2310.29
583.245	2242.29
583.447	2285.1
583.649	2224.27
583.85	2268.25
584.052	2253.33
584.254	2209.93
584.456	2256.04
584.657	2192.69
584.859	2217.87
585.061	2205.86
585.262	2183.19
585.464	2136.5
585.666	2208.38
585.867	2140.57
586.069	2198.11
586.27	2135.34
586.472	2149.48
586.674	2148.9
586.875	2162.27
587.077	2154.32
587.278	2177.96
587.48	2117.71
587.681	2191.52
587.883	2160.14
588.084	2035.75
588.285	2104.34
588.487	2033.04
588.688	2038.08
588.89	1947.6
589.091	1896.06
589.292	1885.21
589.494	1849.95
589.695	1820.88
589.896	1747.45
590.098	1759.66
590.299	1802.48
590.5	1846.27
590.702	1849.56
590.903	1878.82
591.104	1908.26
591.305	1899.16
591.507	1956.51
591.708	1958.64
591.909	1925.7
592.11	1974.91
592.311	2005.14
592.512	1905.75
592.714	1904.78
592.915	1900.13
593.116	1883.47
593.317	1952.63
593.518	1915.05
593.719	1946.82
593.92	1989.25
594.121	2012.89
594.322	1938.68
594.523	1922.99
594.724	1867.38
594.925	1866.8
595.126	1898.58
595.327	1905.94
595.528	1926.48
595.729	1907.1
595.929	1870.87
596.13	1906.33
596.331	1906.13
596.532	1918.53
596.733	2021.03
596.934	1963.87
597.135	1974.14
597.335	1970.26
597.536	1916.6
597.737	1947.98
597.938	1880.17
598.138	1960.77
598.339	1916.98
598.54	1932.87
598.74	1889.28
598.941	1898.19
599.142	1975.88
599.342	1922.41
599.543	1915.63
599.744	1928.22
599.944	1906.33
600.145	1891.99
600.345	1912.72
600.546	1968.71
600.746	1964.26
600.947	2014.83
601.147	1891.22
601.348	1947.4
601.548	1897.22
601.749	1888.12
601.949	1851.3
602.15	1890.25
602.35	1853.05
602.551	1925.7
602.751	1869.52
602.951	1855.57
603.152	1820.88
603.352	1913.5
603.552	1881.53
603.753	1913.88
603.953	1919.5
604.153	1929.19
604.354	1883.66
604.554	1904
604.754	1917.56
604.954	1847.82
605.155	1899.55
605.355	1912.72
605.555	1938.88
605.755	1946.82
605.955	1886.37
606.155	1893.54
606.356	1910.98
606.556	1889.67
606.756	1910.4
606.956	1833.48
607.156	1891.8
607.356	1859.25
607.556	1869.71
607.756	1905.75
607.956	1890.44
608.156	1873.39
608.356	1800.74
608.556	1885.79
608.756	1824.57
608.956	1811.39
609.156	1868.35
609.356	1819.33
609.556	1798.8
609.755	1805
609.955	1757.92
610.155	1819.92
610.355	1804.8
610.555	1780.78
610.755	1811.59
610.954	1719.36
611.154	1794.54
611.354	1828.44
611.554	1734.09
611.753	1773.8
611.953	1705.02
612.153	1828.05
612.352	1780.59
612.552	1703.47
612.752	1659.11
612.951	1756.75
613.151	1712.97
613.351	1713.55
613.55	1729.63
613.75	1715.87
613.949	1710.84
614.149	1688.36
614.348	1700.76
614.548	1629.08
614.747	1609.7
614.947	1683.13
615.146	1600.4
615.346	1698.82
615.545	1687.2
615.745	1705.41
615.944	1676.16
616.144	1634.5
616.343	1626.36
616.542	1655.04
616.742	1630.63
616.941	1621.52
617.14	1557.58
617.34	1585.29
617.539	1636.05
617.738	1574.05
617.938	1676.93
618.137	1591.1
618.336	1568.82
618.535	1634.5
618.734	1611.44
618.934	1619.19
619.133	1640.89
619.332	1603.89
619.531	1566.49
619.73	1593.23
619.929	1644.96
620.128	1633.53
620.328	1632.18
620.527	1563.39
620.726	1606.02
620.925	1586.45
621.124	1588.97
621.323	1603.89
621.522	1535.69
621.721	1592.84
621.92	1515.54
622.119	1548.86
622.318	1521.35
622.517	1547.51
622.715	1562.43
622.914	1487.64
623.113	1548.86
623.312	1463.81
623.511	1549.64
623.71	1512.44
623.909	1501.78
624.107	1571.53
624.306	1429.32
624.505	1486.28
624.704	1474.85
624.902	1481.05
625.101	1504.88
625.3	1506.05
625.499	1440.17
625.697	1451.99
625.896	1461.1
626.095	1451.41
626.293	1412.66
626.492	1445.21
626.69	1450.05
626.889	1428.74
627.088	1468.07
627.286	1428.16
627.485	1424.09
627.683	1382.63
627.882	1416.15
628.08	1317.34
628.279	1351.82
628.477	1417.5
628.676	1327.22
628.874	1366.94
629.073	1345.04
629.271	1320.63
629.469	1367.71
629.668	1352.02
629.866	1353.57
630.065	1331.87
630.263	1373.14
630.461	1343.69
630.66	1386.5
630.858	1390.57
631.056	1449.28
631.254	1441.14
631.453	1395.61
631.651	1429.52
631.849	1423.12
632.047	1391.93
632.245	1348.34
632.444	1360.54
632.642	1432.23
632.84	1419.05
633.038	1404.33
633.236	1373.91
633.434	1371.2
633.632	1368.1
633.83	1365
634.028	1421.18
634.227	1401.42
634.425	1444.24
634.623	1410.14
634.821	1398.9
635.019	1419.63
635.216	1402.2
635.414	1434.94
635.612	1447.92
635.81	1387.08
636.008	1474.27
636.206	1422.15
636.404	1436.88
636.602	1407.82
636.8	1393.48
636.997	1436.68
637.195	1413.63
637.393	1419.63
637.591	1463.62
637.789	1417.89
637.986	1389.6
638.184	1404.52
638.382	1398.71
638.58	1406.85
638.777	1472.53
638.975	1414.02
639.173	1370.62
639.37	1397.74
639.568	1377.2
639.765	1408.4
639.963	1367.71
640.161	1395.22
640.358	1387.67
640.556	1324.5
640.753	1303.97
640.951	1338.45
641.148	1366.16
641.346	1356.67
641.543	1333.61
641.741	1323.34
641.938	1262.89
642.136	1333.61
642.333	1272.97
642.531	1353.57
642.728	1346.59
642.925	1328.77
643.123	1317.92
643.32	1333.03
643.517	1269.87
643.715	1258.82
643.912	1295.25
644.109	1307.45
644.306	1307.84
644.504	1267.93
644.701	1269.87
644.898	1276.07
645.095	1259.41
645.293	1269.29
645.49	1292.34
645.687	1257.27
645.884	1259.02
646.081	1203.61
646.278	1197.21
646.475	1214.65
646.672	1206.12
646.87	1232.09
647.067	1218.72
647.264	1194.89
647.461	1130.56
647.658	1123.59
647.855	1197.99
648.052	1155.56
648.249	1095.11
648.446	1132.5
648.642	1127.66
648.839	1141.61
649.036	1125.91
649.233	1098.4
649.43	1036.79
649.627	1073.8
649.824	1119.33
650.021	1080.77
650.217	1087.75
650.414	1055.39
650.611	1121.65
650.808	1125.72
651.004	1141.22
651.201	1129.79
651.398	1144.32
651.595	1104.21
651.791	1043.38
651.988	1114.87
652.185	1068.95
652.381	1098.98
652.578	1059.46
652.775	1105.38
652.971	1082.13
653.168	1065.46
653.364	1139.48
653.561	1029.62
653.757	1065.27
653.954	1105.96
654.15	1049.19
654.347	1140.44
654.543	1067.01
654.74	1051.51
654.936	1026.52
655.133	1036.4
655.329	1079.22
655.525	1049.96
655.722	1055
655.918	980.8
656.115	1010.83
656.311	956.97
656.507	887.22
656.704	881.21
656.9	878.3
657.096	905.43
657.292	903.3
657.489	969.95
657.685	958.13
657.881	940.11
658.077	947.08
658.273	972.66
658.47	1053.65
658.666	990.29
658.862	1023.81
659.058	971.3
659.254	1013.93
659.45	1016.64
659.646	998.23
659.842	981.96
660.038	1024
660.234	972.08
660.43	991.45
660.626	1018.97
660.822	1008.31
661.018	1013.35
661.214	985.25
661.41	932.94
661.606	1000.75
661.802	1003.27
661.998	970.92
662.194	934.1
662.39	993.78
662.586	1004.43
662.781	982.54
662.977	988.55
663.173	1002.3
663.369	958.32
663.564	948.44
663.76	971.5
663.956	949.8
664.152	964.13
664.347	889.93
664.543	988.93
664.739	941.66
664.934	900.39
665.13	874.62
665.326	963.36
665.521	963.55
665.717	904.07
665.912	879.27
666.108	876.95
666.304	898.07
666.499	905.82
666.695	870.36
666.89	925.39
667.086	939.92
667.281	937.4
667.477	942.82
667.672	903.69
667.867	916.47
668.063	937.79
668.258	858.54
668.454	896.32
668.649	945.15
668.844	884.12
669.04	923.64
669.235	918.99
669.43	877.53
669.626	862.8
669.821	896.9
670.016	812.82
670.211	884.12
670.407	824.25
670.602	885.86
670.797	871.14
670.992	911.63
671.187	852.15
671.382	891.87
671.578	863.58
671.773	879.47
671.968	842.07
672.163	842.27
672.358	879.47
672.553	863.39
672.748	824.06
672.943	914.34
673.138	850.41
673.333	886.25
673.528	840.91
673.723	898.84
673.918	850.79
674.113	832.97
674.308	908.92
674.503	874.82
674.698	900.2
674.892	848.66
675.087	903.69
675.282	869.59
675.477	864.74
675.672	851.76
675.867	847.69
676.061	813.79
676.256	787.05
676.451	814.76
676.646	848.47
676.84	844.59
677.035	804.29
677.23	814.76
677.424	892.84
677.619	862.22
677.814	907.95
678.008	905.04
678.203	839.36
678.397	818.44
678.592	843.82
678.787	922.87
678.981	821.54
679.176	866.87
679.37	868.81
679.565	826.38
679.759	842.07
679.954	857.38
680.148	907.56
680.342	888.19
680.537	881.79
680.731	849.24
680.926	859.12
681.12	876.17
681.314	832.58
681.509	851.96
681.703	891.67
681.897	904.46
682.092	859.9
682.286	840.91
682.48	937.98
682.674	895.35
682.869	834.13
683.063	892.45
683.257	945.34
683.451	820.37
683.645	910.27
683.839	864.94
684.034	853.89
684.228	911.05
684.422	846.34
684.616	841.49
684.81	896.52
685.004	859.51
685.198	859.32
685.392	885.86
685.586	863.19
685.78	897.87
685.974	921.32
686.168	902.91
686.362	930.04
686.556	853.5
686.75	814.95
686.944	795.19
687.138	785.11
687.331	702.96
687.525	732.22
687.719	656.46
687.913	691.14
688.107	752.18
688.301	692.5
688.494	750.43
688.688	709.74
688.882	717.49
689.076	685.91
689.269	733.38
689.463	803.91
689.657	731.25
689.85	780.46
690.044	784.34
690.238	806.42
690.431	814.56
690.625	818.63
690.818	871.33
691.012	867.45
691.205	879.08
691.399	859.51
691.593	894.19
691.786	963.75
691.98	978.28
692.173	1000.95
692.366	977.7
692.56	1028.26
692.753	1102.66
692.947	993.58
693.14	1071.47
693.333	1090.46
693.527	1032.91
693.72	1092.2
693.914	1096.08
694.107	1113.71
694.3	1159.04
694.493	1075.15
694.687	1175.51
694.88	1155.94
695.073	1214.46
695.266	1247.39
695.46	1216.59
695.653	1248.94
695.846	1297.19
696.039	1231.12
696.232	1267.54
696.425	1338.84
696.618	1363.84
696.812	1387.08
697.005	1429.9
697.198	1546.73
697.391	1471.36
697.584	1521.74
697.777	1565.14
697.97	1558.94
698.163	1574.83
698.356	1588.78
698.549	1669.37
698.742	1636.63
698.935	1582.58
699.127	1642.83
699.32	1623.26
699.513	1622.49
699.706	1677.51
699.899	1715.29
700.092	1706.96
700.285	1689.91
700.477	1643.22
700.67	1744.16
700.863	1723.62
701.056	1847.62
701.248	1850.92
701.441	1824.18
701.634	1813.52
701.826	1876.88
702.019	1790.66
702.212	1872.23
702.404	1847.04
702.597	1848.98
702.79	1890.44
702.982	1936.36
703.175	1981.5
703.367	2025.87
703.56	2027.42
703.752	2102.79
703.945	2086.32
704.137	2113.83
704.33	2108.6
704.522	2135.34
704.715	2157.04
704.907	2211.67
705.1	2253.13
705.292	2249.07
705.484	2251
705.677	2290.53
705.869	2314.36
706.061	2373.65
706.254	2394.76
706.446	2335.87
706.638	2344.2
706.831	2424.21
707.023	2400.77
707.215	2517.21
707.407	2486.41
707.599	2481.56
707.792	2571.66
707.984	2577.86
708.176	2598.78
708.368	2561.58
708.56	2644.5
708.752	2643.92
708.944	2586.57
709.136	2650.32
709.329	2640.24
709.521	2779.93
709.713	2723.75
709.905	2753.58
710.097	2820.23
710.289	2745.06
710.481	2811.13
710.672	2833.02
710.864	2849.1
711.056	2902.96
711.248	2869.06
711.44	2899.28
711.632	2910.13
711.824	2956.63
712.016	2976.01
712.207	2998.67
712.399	2989.18
712.591	3051.37
712.783	3087.41
712.975	3002.74
713.166	3007.01
713.358	3039.75
713.55	3100
713.741	3132.75
713.933	3125.19
714.125	3123.25
714.316	3092.06
714.508	3186.22
714.7	3157.74
714.891	3151.35
715.083	3214.7
715.274	3152.9
715.466	3187
715.657	3202.69
715.849	3092.25
716.04	3147.86
716.232	3040.91
716.423	3104.27
716.615	3027.74
716.806	2907.03
716.998	2833.21
717.189	2753.39
717.381	2665.62
717.572	2580.96
717.763	2604.2
717.955	2575.72
718.146	2525.74
718.337	2436.81
718.528	2420.92
718.72	2329.67
718.911	2375.2
719.102	2268.25
719.293	2355.63
719.485	2332.77
719.676	2298.08
719.867	2274.83
720.058	2295.95
720.249	2279.1
720.44	2298.28
720.632	2351.56
720.823	2407.75
721.014	2566.81
721.205	2654.77
721.396	2760.37
721.587	2890.95
721.778	2899.86
721.969	2980.85
722.16	3059.51
722.351	3116.28
722.542	3205.98
722.733	3251.51
722.924	3119.19
723.115	3164.13
723.305	3097.49
723.496	3107.17
723.687	2961.67
723.878	2990.54
724.069	3012.43
724.26	2971.16
724.45	2882.04
724.641	2909.74
724.832	2909.36
725.023	2868.09
725.213	2890.95
725.404	2814.03
725.595	2800.66
725.785	2845.03
725.976	2881.84
726.167	2896.38
726.357	2879.71
726.548	3016.69
726.739	2919.24
726.929	3008.94
727.12	3025.22
727.31	3046.72
727.501	2946.17
727.691	2963.41
727.882	2960.89
728.072	3030.84
728.263	3042.27
728.453	3143.02
728.644	3117.64
728.834	3039.36
729.024	3024.44
729.215	3031.22
729.405	3079.47
729.596	3143.98
729.786	3181.18
729.976	3192.62
730.167	3155.22
730.357	3152.9
730.547	3160.07
730.737	3252.87
730.928	3240.86
731.118	3237.95
731.308	3201.72
731.498	3194.75
731.688	3343.16
731.879	3344.9
732.069	3431.31
732.259	3483.24
732.449	3543.3
732.639	3629.52
732.829	3619.44
733.019	3679.7
733.209	3729.1
733.399	3768.63
733.589	3823.84
733.779	3902.51
733.969	3897.66
734.159	3957.72
734.349	4010.42
734.539	4070.1
734.729	4072.42
734.919	4039.1
735.109	4123.96
735.299	4029.41
735.488	4112.33
735.678	4075.52
735.868	4117.56
736.058	4082.3
736.248	4104.39
736.437	4042.78
736.627	4070.87
736.817	4183.05
737.007	4090.44
737.196	4210.76
737.386	4149.53
737.576	4088.31
737.765	4223.16
737.955	4136.16
738.144	4286.32
738.334	4262.1
738.524	4194.68
738.713	4232.46
738.903	4217.34
739.092	4290.97
739.282	4245.24
739.471	4281.67
739.661	4240.59
739.85	4325.07
740.04	4298.14
740.229	4339.21
740.419	4335.34
740.608	4408.38
740.797	4375.25
740.987	4438.22
741.176	4452.94
741.365	4354.9
741.555	4320.22
741.744	4450.03
741.933	4406.05
742.123	4403.15
742.312	4458.37
742.501	4475.61
742.69	4483.94
742.88	4413.8
743.069	4589.15
743.258	4489.95
743.447	4537.41
743.636	4533.54
743.825	4492.08
744.014	4511.84
744.204	4557.76
744.393	4472.12
744.582	4635.64
744.771	4622.08
744.96	4531.21
745.149	4575.58
745.338	4550.98
745.527	4587.21
745.716	4541.1
745.905	4563.96
746.094	4630.8
746.283	4618.01
746.471	4603.1
746.66	4591.47
746.849	4624.79
747.038	4640.88
747.227	4609.1
747.416	4680.59
747.604	4551.36
747.793	4582.56
747.982	4578.68
748.171	4612.98
748.359	4555.05
748.548	4570.16
748.737	4575.58
748.926	4552.91
749.114	4445.77
749.303	4573.45
749.491	4568.22
749.68	4442.67
749.869	4587.79
750.057	4537.61
750.246	4453.13
750.434	4475.61
750.623	4507.19
750.811	4454.3
751	4545.75
751.188	4444.22
751.377	4500.8
751.565	4481.23
751.754	4458.75
751.942	4414.39
752.131	4500.22
752.319	4403.73
752.507	4433.57
752.696	4485.49
752.884	4461.66
753.072	4438.8
753.261	4446.35
753.449	4446.16
753.637	4384.16
753.825	4561.05
754.014	4444.42
754.202	4464.18
754.39	4448.29
754.578	4450.81
754.766	4433.76
754.955	4387.84
755.143	4460.3
755.331	4339.99
755.519	4349.09
755.707	4322.16
755.895	4326.81
756.083	4385.13
756.271	4316.54
756.459	4325.46
756.647	4332.24
756.835	4315.77
757.023	4328.36
757.211	4283.8
757.399	4265.01
757.587	4264.23
757.775	4244.47
757.963	4287.87
758.151	4284.96
758.339	4239.63
758.526	4182.86
758.714	4243.89
758.902	4112.14
759.09	3973.61
759.278	3764.94
759.465	3436.16
759.653	3003.71
759.841	2677.64
760.028	2339.55
760.216	2040.4
760.404	1887.53
760.591	1570.18
760.779	1326.44
760.967	1144.9
761.154	952.9
761.342	957.74
761.529	924.03
761.717	993.58
761.905	1001.72
762.092	1041.05
762.28	995.91
762.467	966.85
762.655	897.29
762.842	901.17
763.029	921.32
763.217	934.1
763.404	931
763.592	940.11
763.779	924.8
763.966	942.63
764.154	1011.99
764.341	1054.23
764.528	1072.44
764.716	1176.09
764.903	1209.81
765.09	1318.69
765.277	1324.7
765.465	1546.93
765.652	1600.59
765.839	1718.78
766.026	1872.03
766.213	1934.61
766.4	2063.65
766.588	2262.43
766.775	2337.22
766.962	2480.4
767.149	2625.71
767.336	2739.44
767.523	2769.67
767.71	2891.53
767.897	3030.84
768.084	3111.44
768.271	3189.52
768.458	3311.38
768.645	3387.72
768.832	3364.28
769.019	3418.52
769.206	3452.24
769.392	3534
769.579	3642.69
769.766	3610.33
769.953	3614.02
770.14	3650.44
770.327	3682.6
770.513	3689.96
770.7	3784.32
770.887	3679.11
771.073	3779.67
771.26	3773.47
771.447	3720.58
771.634	3707.21
771.82	3823.65
772.007	3707.79
772.193	3781.8
772.38	3784.9
772.567	3741.89
772.753	3781.41
772.94	3837.99
773.126	3819.97
773.313	3819.58
773.499	3815.9
773.686	3819.58
773.872	3722.9
774.059	3767.27
774.245	3718.64
774.432	3753.32
774.618	3693.84
774.804	3740.92
774.991	3701.98
775.177	3714.18
775.363	3689.96
775.55	3763.98
775.736	3695.39
775.922	3737.82
776.109	3716.7
776.295	3717.28
776.481	3730.26
776.667	3759.71
776.853	3624.09
777.04	3697.33
777.226	3687.83
777.412	3721.55
777.598	3637.65
777.784	3712.83
777.97	3605.68
778.156	3630.1
778.342	3649.08
778.528	3602.58
778.715	3563.06
778.901	3552.6
779.087	3568.48
779.272	3554.92
779.458	3566.93
779.644	3548.92
779.83	3529.74
780.016	3611.11
780.202	3542.33
780.388	3537.87
780.574	3450.3
780.76	3531.09
780.946	3549.5
781.131	3537.68
781.317	3495.25
781.503	3480.91
781.689	3483.04
781.874	3596.38
782.06	3459.41
782.246	3528.57
782.432	3452.62
782.617	3470.26
782.803	3524.5
782.989	3435.38
783.174	3405.16
783.36	3357.88
783.545	3391.59
783.731	3380.55
783.916	3291.62
784.102	3407.87
784.288	3368.34
784.473	3394.69
784.659	3337.34
784.844	3409.03
785.029	3343.93
785.215	3339.86
785.4	3298.79
785.586	3363.69
785.771	3287.75
785.956	3310.22
786.142	3268.18
786.327	3299.95
786.512	3262.95
786.698	3249.77
786.883	3214.31
787.068	3217.03
787.254	3259.85
787.439	3212.57
787.624	3192.03
787.809	3206.18
787.994	3184.67
788.18	3227.68
788.365	3118.6
788.55	3161.42
788.735	3134.3
788.92	3073.46
789.105	3083.54
789.29	3114.34
789.475	3021.34
789.66	3055.64
789.845	3026.38
790.03	3023.67
790.215	3060.09
790.4	3130.23
790.585	3089.35
790.77	2989.57
790.955	3011.85
791.14	3037.23
791.325	3088.57
791.51	2983.37
791.695	2982.98
791.879	2998.48
792.064	2969.61
792.249	3080.44
792.434	3006.42
792.618	2979.69
792.803	3004.87
792.988	2979.11
793.173	2972.32
793.357	3056.99
793.542	2938.81
793.727	3032
793.911	3018.82
794.096	3030.06
794.281	3056.99
794.465	3122.67
794.65	3001.58
794.834	3109.89
795.019	3078.3
795.203	3112.4
795.388	3089.93
795.572	3136.04
795.757	3068.81
795.941	3067.07
796.126	3041.88
796.31	2980.66
796.494	3037.62
796.679	3017.66
796.863	2990.92
797.048	3097.68
797.232	3011.46
797.416	3026.38
797.601	3052.15
797.785	3091.67
797.969	3097.68
798.153	3027.16
798.338	3124.42
798.522	3109.89
798.706	3104.27
798.89	3129.07
799.074	3177.12
799.258	3167.62
799.443	3101.17
799.627	3076.95
799.811	3151.15
799.995	3073.46
800.179	3056.8
800.363	3090.7
800.547	3118.41
800.731	3115.5
800.915	3011.27
801.099	3043.24
801.283	3047.11
801.467	3026.77
801.651	3001.97
801.835	3060.29
802.019	3033.94
802.202	3031.03
802.386	2969.81
802.57	2965.16
802.754	2997.9
802.938	2995.96
803.121	3028.71
803.305	3086.83
803.489	3026.19
803.673	3074.04
803.856	3053.89
804.04	3036.46
804.224	3048.66
804.407	3029.67
804.591	2982.01
804.775	3001.97
804.958	3039.36
805.142	3101.36
805.326	3020.96
805.509	3081.21
805.693	3099.62
805.876	3107.56
806.06	3117.83
806.243	3111.05
806.427	3110.85
806.61	3155.42
806.794	3096.13
806.977	3094.97
807.16	3096.32
807.344	3093.03
807.527	3084.31
807.71	3059.9
807.894	3060.67
808.077	3050.4
808.26	3022.12
808.444	3001.19
808.627	3051.95
808.81	2980.66
808.993	2925.05
809.177	2933.19
809.36	2923.11
809.543	2998.67
809.726	2869.06
809.909	2858.98
810.092	2905.87
810.276	2834.57
810.459	2836.12
810.642	2826.24
810.825	2815.58
811.008	2831.66
811.191	2697.78
811.374	2707.28
811.557	2776.83
811.74	2776.64
811.923	2619.12
812.106	2643.54
812.289	2592.77
812.472	2616.8
812.654	2647.22
812.837	2558.48
813.02	2525.74
813.203	2464.9
813.386	2402.51
813.569	2345.36
813.751	2306.42
813.934	2341.29
814.117	2297.12
814.3	2222.52
814.482	2166.34
814.665	2149.09
814.848	2107.82
815.03	2026.64
815.213	2044.08
815.396	2035.17
815.578	1975.11
815.761	1977.43
815.943	1975.88
816.126	1858.28
816.309	1863.12
816.491	1788.14
816.674	1746.87
816.856	1802.29
817.039	1788.53
817.221	1866.22
817.403	1820.11
817.586	1825.15
817.768	1833.87
817.951	1743.19
818.133	1720.91
818.315	1765.86
818.498	1823.21
818.68	1882.69
818.862	1866.8
819.045	1893.73
819.227	1874.17
819.409	1828.25
819.591	1877.27
819.774	1843.55
819.956	1837.35
820.138	1899.55
820.32	1891.22
820.502	1994.87
820.684	2060.74
820.866	2061.33
821.048	2137.27
821.231	2111.7
821.413	2147.35
821.595	2122.74
821.777	2112.28
821.959	2101.04
822.141	2175.64
822.323	2023.54
822.505	1989.06
822.686	1873.58
822.868	1804.61
823.05	1650.97
823.232	1633.53
823.414	1526.39
823.596	1638.76
823.778	1620.74
823.96	1669.76
824.141	1691.46
824.323	1720.33
824.505	1750.75
824.687	1847.43
824.868	1924.54
825.05	2023.54
825.232	2015.41
825.413	2129.14
825.595	2071.98
825.777	2018.89
825.958	2047.57
826.14	2053.38
826.321	2104.34
826.503	2058.61
826.685	2095.62
826.866	2084.57
827.048	2102.21
827.229	2043.31
827.411	2003.98
827.592	1923.57
827.773	1938.1
827.955	1880.75
828.136	1852.47
828.318	1878.04
828.499	1866.42
828.68	1861.96
828.862	1843.94
829.043	1843.17
829.224	1851.88
829.406	1763.73
829.587	1790.08
829.768	1810.62
829.949	1844.91
830.131	1865.25
830.312	1923.57
830.493	1854.98
830.674	1894.7
830.855	1848.59
831.036	1863.12
831.218	1918.73
831.399	1909.43
831.58	1857.5
831.761	1867.38
831.942	1902.06
832.123	1861.57
832.304	1850.53
832.485	1820.69
832.666	1846.07
832.847	1874.94
833.028	1846.65
833.209	1876.1
833.389	1864.48
833.57	1823.02
833.751	1826.31
833.932	1844.13
834.113	1833.09
834.294	1873.97
834.475	1888.5
834.655	1947.4
834.836	1915.43
835.017	1934.23
835.198	1869.13
835.378	1879.2
835.559	1949.53
835.74	1916.98
835.92	1891.99
836.101	1894.51
836.281	1943.33
836.462	1947.01
836.643	1954.38
836.823	1974.53
837.004	1959.41
837.184	1985.18
837.365	1999.33
837.545	2004.36
837.726	1933.65
837.906	2019.28
838.087	1970.65
838.267	1948.95
838.448	1957.28
838.628	1949.34
838.808	1952.83
838.989	2033.81
839.169	1902.06
839.349	1984.02
839.53	1977.82
839.71	1994.09
839.89	1952.05
840.07	1998.16
840.251	1943.53
840.431	1950.89
840.611	1996.81
840.791	1915.05
840.971	2005.14
841.151	1937.91
841.332	1899.74
841.512	1969.49
841.692	1926.48
841.872	1922.8
842.052	1947.01
842.232	1959.61
842.412	1902.84
842.592	1949.73
842.772	1936.55
842.952	1923.96
843.132	1893.54
843.312	1903.42
843.492	1922.8
843.672	1967.75
843.851	1840.65
844.031	1918.53
844.211	1892.57
844.391	1878.43
844.571	1934.03
844.751	1960
844.93	1898.58
845.11	1885.4
845.29	1946.05
845.47	1943.91
845.649	1926.67
845.829	1937.13
846.009	1885.02
846.188	1942.17
846.368	1907.68
846.547	1898.58
846.727	1945.27
846.907	1860.02
847.086	1899.35
847.266	1918.92
847.445	1925.7
847.625	1896.83
847.804	1869.13
847.984	1933.84
848.163	1830.38
848.343	1845.3
848.522	1870.68
848.701	1857.5
848.881	1828.44
849.06	1853.05
849.239	1828.44
849.419	1821.08
849.598	1750.36
849.777	1731.18
849.957	1747.84
850.136	1725.76
850.315	1661.04
850.494	1688.17
850.674	1696.69
850.853	1709.48
851.032	1722.66
851.211	1786.59
851.39	1747.26
851.569	1711.22
851.748	1686.81
851.927	1733.5
852.107	1717.42
852.286	1675.57
852.465	1662.21
852.644	1752.49
852.823	1703.47
853.002	1734.86
853.181	1728.47
853.359	1699.02
853.538	1644.77
853.717	1726.53
853.896	1607.57
854.075	1519.03
854.254	1511.47
854.433	1455.28
854.611	1513.02
854.79	1449.08
854.969	1501.4
855.148	1539.76
855.327	1493.45
855.505	1523.68
855.684	1526.78
855.863	1599.24
856.041	1509.92
856.22	1566.11
856.399	1552.16
856.577	1648.45
856.756	1626.94
856.934	1719.36
857.113	1726.14
857.291	1655.81
857.47	1624.43
857.648	1647.48
857.827	1655.23
858.005	1655.42
858.184	1645.54
858.362	1697.47
858.541	1631.01
858.719	1656.01
858.898	1630.43
859.076	1625.01
859.254	1658.14
859.433	1598.08
859.611	1619.39
859.789	1544.41
859.967	1681.39
860.146	1645.74
860.324	1569.79
860.502	1558.55
860.68	1544.8
860.859	1564.36
861.037	1593.81
861.215	1576.38
861.393	1593.62
861.571	1581.61
861.749	1570.18
861.927	1581.61
862.105	1607.96
862.283	1517.28
862.461	1560.29
862.639	1490.55
862.817	1530.07
862.995	1544.99
863.173	1542.28
863.351	1554.68
863.529	1577.15
863.707	1572.11
863.885	1539.37
864.063	1468.46
864.241	1538.4
864.418	1561.84
864.596	1503.53
864.774	1469.62
864.952	1499.85
865.129	1530.65
865.307	1480.66
865.485	1472.53
865.663	1482.02
865.84	1411.5
866.018	1426.61
866.196	1320.24
866.373	1312.3
866.551	1289.82
866.728	1247.59
866.906	1292.73
867.084	1299.32
867.261	1335.74
867.439	1349.89
867.616	1393.28
867.794	1365.19
867.971	1413.24
868.149	1399.1
868.326	1457.22
868.503	1426.03
868.681	1426.42
868.858	1382.43
869.035	1389.02
869.213	1417.89
869.39	1370.62
869.567	1450.44
869.745	1400.84
869.922	1362.48
870.099	1447.73
870.276	1414.98
870.454	1401.81
870.631	1437.27
870.808	1379.92
870.985	1413.24
871.162	1445.02
871.339	1413.63
871.517	1334.58
871.694	1344.07
871.871	1368.29
872.048	1352.6
872.225	1370.62
872.402	1365.39
872.579	1324.89
872.756	1397.93
872.933	1340.39
873.11	1363.45
873.287	1360.15
873.463	1342.72
873.64	1337.1
873.817	1373.91
873.994	1351.05
874.171	1320.24
874.348	1323.34
874.524	1260.76
874.701	1329.15
874.878	1260.96
875.055	1320.44
875.231	1299.51
875.408	1339.81
875.585	1253.59
875.762	1270.06
875.938	1284.98
876.115	1283.43
876.291	1255.92
876.468	1266.38
876.645	1245.07
876.821	1260.96
876.998	1265.99
877.174	1278.01
877.351	1273.94
877.527	1247.59
877.704	1229.57
877.88	1264.06
878.057	1205.54
878.233	1292.73
878.409	1210
878.586	1251.46
878.762	1241.39
878.938	1224.72
879.115	1162.92
879.291	1222.59
879.467	1174.16
879.644	1192.56
879.82	1228.02
879.996	1222.01
880.172	1150.91
880.349	1202.25
880.525	1191.01
880.701	1153.43
880.877	1179.78
881.053	1167.38
881.229	1146.64
881.405	1226.86
881.581	1182.49
881.757	1198.57
881.933	1212.91
882.109	1193.34
882.285	1142.38
882.461	1123.01
882.637	1165.63
882.813	1131.73
882.989	1152.84
883.165	1186.56
883.341	1131.53
883.517	1216.78
883.693	1186.75
883.869	1207.87
884.044	1142.77
884.22	1171.83
884.396	1193.73
884.572	1195.86
884.747	1196.44
884.923	1203.8
885.099	1224.53
885.275	1211.74
885.45	1161.18
885.626	1154.2
885.801	1132.11
885.977	1162.34
886.153	1086.39
886.328	1145.29
886.504	1117.19
886.679	1174.16
886.855	1136.76
887.03	1128.24
887.206	1181.13
887.381	1127.46
887.557	1191.21
887.732	1180.16
887.908	1203.8
888.083	1199.73
888.258	1114.48
888.434	1128.24
888.609	1161.76
888.784	1215.04
888.96	1184.04
889.135	1134.24
889.31	1118.94
889.485	1148.97
889.661	1140.83
889.836	1218.14
890.011	1164.28
890.186	1114.68
890.361	1129.98
890.537	1169.89
890.712	1182.1
890.887	1134.63
891.062	1176.29
891.237	1197.6
891.412	1137.73
891.587	1149.36
891.762	1173.19
891.937	1200.7
892.112	1104.02
892.287	1131.34
892.462	1099.18
892.637	1060.62
892.812	1064.3
892.987	1070.5
893.161	1067.79
893.336	1041.63
893.511	1091.43
893.686	1050.74
893.861	1097.05
894.035	1041.25
894.21	1024.97
894.385	1002.5
894.56	1011.6
894.734	928.68
894.909	994.75
895.084	923.25
895.258	942.63
895.433	929.26
895.608	894.19
895.782	861.45
895.957	859.32
896.131	878.3
896.306	794.22
896.48	805.84
896.655	792.28
896.829	756.24
897.004	750.24
897.178	766.9
897.353	741.13
897.527	759.34
897.701	766.71
897.876	714.98
898.05	780.46
898.224	770.19
898.399	797.12
898.573	735.9
898.747	679.91
898.921	699.67
899.096	555.52
899.27	602.41
899.444	611.71
899.618	644.84
899.792	670.41
899.967	686.11
900.141	718.85
900.315	643.48
900.489	645.81
900.663	674.1
900.837	647.94
901.011	617.71
901.185	693.86
901.359	649.49
901.533	669.25
901.707	644.06
901.881	659.56
902.055	602.41
902.229	638.83
902.403	674.87
902.576	631.47
902.75	627.01
902.924	761.48
903.098	735.71
903.272	799.26
903.446	817.66
903.619	784.72
903.793	812.43
903.967	798.48
904.14	785.89
904.314	843.43
904.488	787.05
904.661	866.87
904.835	847.5
905.009	870.17
905.182	897.68
905.356	877.14
905.529	835.1
905.703	796.93
905.876	779.3
906.05	768.06
906.223	738.23
906.397	724.47
906.57	689.4
906.744	649.88
906.917	657.82
907.09	655.69
907.264	666.73
907.437	624.3
907.61	583.81
907.784	611.13
907.957	625.66
908.13	591.56
908.304	625.85
908.477	559.78
908.65	598.73
908.823	538.67
908.996	651.04
909.17	548.35
909.343	529.37
909.516	561.72
909.689	570.44
909.862	547
910.035	566.57
910.208	563.85
910.381	525.3
910.554	617.91
910.727	554.36
910.9	543.12
911.073	534.02
911.246	601.44
911.419	612.29
911.592	609.58
911.765	576.25
911.938	545.83
912.11	581.87
912.283	568.7
912.456	607.25
912.629	562.88
912.802	551.45
912.974	478.8
913.147	463.3
913.32	422.8
913.493	462.52
913.665	454.19
913.838	473.18
914.01	480.35
914.183	488.87
914.356	490.23
914.528	533.24
914.701	583.81
914.873	533.24
915.046	459.23
915.218	446.83
915.391	389.67
915.563	443.15
915.736	440.24
915.908	496.43
916.081	493.72
916.253	478.99
916.425	497.4
916.598	496.43
916.77	468.14
916.942	448.96
917.115	399.36
917.287	463.69
917.459	439.47
917.632	409.82
917.804	363.32
917.976	429.78
918.148	463.3
918.32	495.27
918.493	532.27
918.665	535.37
918.837	469.5
919.009	547.58
919.181	536.34
919.353	523.55
919.525	518.71
919.697	528.2
919.869	552.62
920.041	591.17
920.213	620.43
920.385	572.18
920.557	559.78
920.729	579.93
920.901	518.52
921.073	534.4
921.244	520.07
921.416	541.57
921.588	524.52
921.76	513.28
921.932	602.02
922.103	527.82
922.275	532.47
922.447	529.95
922.619	453.42
922.79	529.75
922.962	513.87
923.134	527.43
923.305	447.99
923.477	441.99
923.648	453.61
923.82	457.49
923.991	424.55
924.163	429
924.335	451.67
924.506	433.65
924.677	501.08
924.849	425.13
925.02	475.12
925.192	486.35
925.363	466.98
925.535	472.79
925.706	440.44
925.877	499.14
926.049	446.83
926.22	443.15
926.391	437.72
926.562	451.29
926.734	432.1
926.905	483.06
927.076	385.41
927.247	441.02
927.419	384.83
927.59	379.02
927.761	377.66
927.932	373.98
928.103	365.26
928.274	319.34
928.445	312.18
928.616	336.78
928.787	322.64
928.958	340.07
929.129	320.31
929.3	318.38
929.471	272.84
929.642	215.69
929.813	190.89
929.984	257.54
930.155	190.31
930.326	214.33
930.496	202.32
930.667	149.04
930.838	197.09
931.009	152.91
931.18	146.52
931.35	142.65
931.521	175.97
931.692	124.24
931.863	99.25
932.033	131.02
932.204	134.51
932.374	129.47
932.545	83.36
932.716	131.99
932.886	123.27
933.057	56.04
933.227	85.68
933.398	138.97
933.568	57.98
933.739	12.45
933.909	43.45
934.08	107.38
934.25	44.22
934.421	34.15
934.591	67.86
934.761	59.34
934.932	9.74
935.102	60.5
935.272	60.5
935.443	38.8
935.613	47.52
935.783	48.68
935.953	34.15
936.123	180.04
936.294	27.75
936.464	46.55
936.634	54.1
936.804	33.37
936.974	3.54
937.144	64.76
937.314	49.07
937.484	38.22
937.655	12.84
937.825	54.3
937.995	39.38
938.165	108.74
938.334	37.44
938.504	61.08
938.674	69.22
938.844	75.42
939.014	118.82
939.184	133.54
939.354	171.71
939.524	153.88
939.694	88.59
939.863	106.03
940.033	163.76
940.203	149.04
940.373	139.35
940.542	124.82
940.712	69.22
940.882	128.7
941.051	115.91
941.221	142.26
941.391	166.86
941.56	76
941.73	85.1
941.899	187.21
942.069	96.53
942.238	123.85
942.408	68.05
942.577	123.47
942.747	97.5
942.916	41.32
943.086	90.72
943.255	132.57
943.425	98.28
943.594	62.05
943.763	46.16
943.933	49.07
944.102	26.98
944.271	68.63
944.441	113
944.61	78.32
944.779	52.17
944.948	149.23
945.117	36.47
945.287	63.4
945.456	24.46
945.625	72.12
945.794	83.55
945.963	45.19
946.132	89.56
946.301	53.14
946.47	80.84
946.639	49.07
946.808	61.66
946.977	75.22
947.146	122.69
947.315	47.13
947.484	79.29
947.653	60.69
947.822	72.9
947.991	54.88
948.16	126.95
948.329	136.83
948.498	82.58
948.666	83.75
948.835	93.63
949.004	60.3
949.173	28.14
949.341	86.65
949.51	91.3
949.679	88.01
949.847	94.79
950.016	135.67
950.185	112.62
950.353	74.83
950.522	82.39
950.69	133.35
950.859	56.43
951.028	131.41
951.196	108.93
951.365	71.15
951.533	65.15
951.701	90.14
951.87	114.17
952.038	51
952.207	79.48
952.375	128.7
952.543	53.14
952.712	69.41
952.88	44.61
953.048	110.29
953.217	83.94
953.385	91.11
953.553	131.6
953.721	38.41
953.89	93.82
954.058	31.82
954.226	43.06
954.394	70.57
954.562	54.3
954.73	80.26
954.898	94.4
955.067	131.6
955.235	84.72
955.403	96.53
955.571	130.44
955.739	113.2
955.907	51.2
956.075	55.46
956.243	39.57
956.41	86.27
956.578	15.74
956.746	22.91
956.914	48.49
957.082	98.28
957.25	85.88
957.418	52.36
957.585	97.5
957.753	125.21
957.921	68.83
958.089	90.53
958.256	109.9
958.424	99.83
958.592	84.13
958.759	64.76
958.927	99.63
959.095	56.24
959.262	60.69
959.43	110.48
959.597	72.7
959.765	92.66
959.932	61.85
960.1	118.23
960.267	79.1
960.435	88.2
960.602	85.68
960.77	85.49
960.937	48.87
961.104	106.42
961.272	23.1
961.439	74.83
961.606	99.63
961.774	100.22
961.941	70.18
962.108	103.7
962.275	103.51
962.443	104.28
962.61	108.93
962.777	164.15
962.944	105.45
963.111	109.13
963.278	110.48
963.446	104.67
963.613	98.47
963.78	126.37
963.947	136.25
964.114	108.74
964.281	163.76
964.448	114.75
964.615	118.62
964.782	100.8
964.949	121.14
965.116	115.72
965.282	148.46
965.449	103.7
965.616	86.27
965.783	132.57
965.95	118.23
966.117	61.47
966.283	100.41
966.45	116.68
966.617	130.05
966.784	141.87
966.95	134.9
967.117	158.73
967.284	89.56
967.45	104.09
967.617	148.46
967.784	139.55
967.95	158.53
968.117	134.9
968.283	171.71
968.45	190.31
968.616	127.15
968.783	187.98
968.949	148.65
969.116	171.9
969.282	135.48
969.449	119.98
969.615	125.98
969.781	91.69
969.948	106.03
970.114	109.9
970.28	192.05
970.447	128.12
970.613	188.56
970.779	111.45
970.945	165.31
971.112	150.78
971.278	125.98
971.444	147.88
971.61	153.5
971.776	124.24
971.942	151.37
972.108	147.88
972.275	126.95
972.441	154.85
972.607	196.9
972.773	110.48
972.939	179.46
973.105	128.12
973.271	93.05
973.437	120.37
973.602	114.17
973.768	136.83
973.934	127.73
974.1	135.09
974.266	40.15
974.432	133.15
974.598	103.7
974.763	131.8
974.929	107
975.095	170.35
975.261	112.23
975.426	94.98
975.592	114.55
975.758	193.41
975.923	77.74
976.089	106.8
976.255	112.42
976.42	101.57
976.586	131.02
976.751	112.81
976.917	178.49
977.082	142.65
977.248	68.83
977.413	76.58
977.579	111.45
977.744	106.8
977.91	77.55
978.075	75.42
978.24	140.9
978.406	98.86
978.571	110.87
978.736	109.9
978.902	140.32
979.067	88.2
979.232	47.9
979.397	126.76
979.563	178.68
979.728	67.67
979.893	117.65
980.058	82.2
980.223	129.47
980.388	101.77
980.554	113.97
980.719	78.9
980.884	127.53
981.049	137.03
981.214	82.2
981.379	157.56
981.544	117.85
981.709	115.33
981.874	96.34
982.039	119.98
982.204	118.62
982.368	142.45
982.533	71.15
982.698	142.26
982.863	165.7
983.028	85.1
983.193	141.48
983.357	135.87
983.522	114.36
983.687	130.83
983.852	112.81
984.016	98.28
984.181	110.68
984.346	98.86
984.51	113.2
984.675	121.72
984.839	149.62
985.004	112.42
985.168	154.27
985.333	121.72
985.498	116.88
985.662	140.71
985.827	152.33
985.991	85.1
986.155	121.14
986.32	138.97
986.484	147.1
986.649	140.13
986.813	69.6
986.977	127.73
987.142	131.02
987.306	77.16
987.47	73.67
987.634	105.83
987.799	115.72
987.963	154.46
988.127	124.05
988.291	194.96
988.455	135.87
988.62	105.25
988.784	143.23
988.948	140.9
989.112	54.69
989.276	106.03
989.44	111.07
989.604	107.58
989.768	103.51
989.932	193.41
990.096	89.37
990.26	94.02
990.424	73.87
990.588	99.05
990.752	171.71
990.915	152.33
991.079	80.65
991.243	86.65
991.407	113.2
991.571	122.11
991.734	139.35
991.898	116.3
992.062	221.11
992.226	105.06
992.389	79.87
992.553	57.2
992.717	103.51
992.88	92.85
993.044	97.12
993.207	98.08
993.371	134.12
993.535	103.9
993.698	107.97
993.862	108.55
994.025	137.61
994.189	114.17
994.352	109.32
994.515	100.02
994.679	151.56
994.842	83.36
995.006	145.17
995.169	83.94
995.332	79.29
995.496	94.79
995.659	77.16
995.822	95.76
995.985	119.98
996.149	150.2
996.312	80.07
996.475	150.4
996.638	93.24
996.801	117.27
996.964	156.98
997.128	84.13
997.291	79.87
997.454	97.89
997.617	52.17
997.78	132.38
997.943	82
998.106	128.12
998.269	69.41
998.432	88.98
998.595	86.46
998.758	45
998.92	73.67
999.083	61.08
999.246	81.03
999.409	67.86
999.572	37.44
999.735	79.87
999.897	103.12
1000.06	74.83
1000.223	66.12
1000.386	99.44
1000.548	116.49
1000.711	99.63
1000.874	82.2
1001.036	51.2
1001.199	109.32
1001.361	60.11
1001.524	102.15
1001.687	86.27
1001.849	75.61
1002.012	101.77
1002.174	69.8
1002.337	112.23
1002.499	88.01
1002.661	103.51
1002.824	51
1002.986	26.2
1003.149	72.7
1003.311	41.7
1003.473	137.03
1003.636	50.42
1003.798	70.96
1003.96	87.62
1004.123	65.54
1004.285	61.27
1004.447	61.66
1004.609	81.81
1004.771	110.29
1004.933	46.35
1005.096	32.99
1005.258	7.41
1005.42	61.08
1005.582	84.72
1005.744	94.98
1005.906	23.3
1006.068	82.97
1006.23	28.14
1006.392	38.22
1006.554	69.02
1006.716	98.08
1006.878	74.64
1007.04	9.15
1007.202	65.92
1007.363	77.16
1007.525	85.3
1007.687	72.32
1007.849	99.05
1008.011	39.77
1008.172	17.68
1008.334	12.06
1008.496	63.6
1008.658	16.9
1008.819	37.64
1008.981	33.57
1009.143	39.19
1009.304	43.64
1009.466	78.71
1009.627	97.7
1009.789	146.91
1009.95	65.92
1010.112	55.65
1010.273	55.07
1010.435	55.65
1010.596	72.51
1010.758	61.85
1010.919	39.19
1011.081	29.11
1011.242	53.14
1011.403	82.58
1011.565	32.6
1011.726	73.09
1011.887	25.62
1012.049	68.63
1012.21	95.18
1012.371	72.32
1012.532	-0.34
1012.693	69.8
1012.855	25.24
1013.016	76.38
1013.177	76.97
1013.338	39.19
1013.499	100.22
1013.66	64.37
1013.821	60.69
1013.982	57.01
1014.143	52.36
1014.304	32.99
1014.465	65.15
1014.626	78.9
1014.787	64.76
1014.948	130.05
1015.109	8.38
1015.27	97.7
1015.431	33.95
1015.592	18.84
1015.752	89.75
1015.913	57.01
1016.074	71.15
1016.235	60.89
1016.395	66.7
1016.556	50.62
1016.717	49.26
1016.877	69.22
1017.038	37.64
1017.199	59.34
1017.359	69.41
1017.52	32.21
1017.681	46.74
1017.841	53.91
1018.002	36.28
1018.162	17.87
1018.323	95.95
1018.483	55.46
1018.644	55.65
1018.804	1.02
1018.964	45.97
1019.125	31.24
1019.285	43.84
1019.446	10.12
1019.606	9.54
1019.766	-1.11
1019.926	40.15
1020.087	42.87
1020.247	7.22
1020.407	65.92
1020.567	69.41
1020.728	22.72
1020.888	6.25
1021.048	23.88
1021.208	9.35
1021.368	36.28
1021.528	71.35
1021.688	67.86
1021.848	53.14
1022.008	48.87
1022.168	37.64
1022.328	30.47
1022.488	74.06
1022.648	36.28
1022.808	32.99
1022.968	57.79
1023.128	7.99
1023.288	21.55
1023.448	47.32
1023.608	57.2
1023.767	51.59
1023.927	15.16
1024.087	2.76
1024.247	-5.57
1024.406	37.44
1024.566	24.85
1024.726	-10.41
1024.885	37.64
1025.045	46.16
1025.205	39.38
1025.364	51.2
1025.524	82.39
1025.683	38.99
1025.843	40.35
1026.003	42.87
1026.162	86.46
1026.321	73.67
1026.481	46.74
1026.64	64.57
1026.8	37.25
1026.959	48.68
1027.119	18.45
1027.278	50.42
1027.437	10.7
1027.597	38.8
1027.756	57.4
1027.915	52.75
1028.074	68.44
1028.234	19.42
1028.393	18.26
1028.552	25.43
1028.711	-22.04
1028.87	52.17
1029.03	0.44
1029.189	32.02
1029.348	-10.61
1029.507	29.69
1029.666	24.46
1029.825	-19.91
1029.984	16.9
1030.143	25.24
1030.302	28.92
1030.461	-20.68
1030.62	16.13
1030.779	57.98
1030.938	-5.18
1031.097	-13.9
1031.255	35.12
1031.414	83.75
1031.573	70.96
1031.732	2.95
1031.891	32.4
1032.049	55.27
1032.208	68.83
1032.367	5.47
1032.525	14.77
1032.684	27.56
1032.843	32.79
1033.001	-26.69
1033.16	157.37
1033.319	72.7
1033.477	47.52
1033.636	8.38
1033.794	7.99
1033.953	70.38
1034.111	17.1
1034.27	0.24
1034.428	24.65
1034.587	18.65
1034.745	21.17
1034.903	10.12
1035.062	32.02
1035.22	2.95
1035.378	22.91
1035.537	-9.25
1035.695	34.73
1035.853	22.52
1036.011	48.1
1036.17	47.71
1036.328	-10.8
1036.486	17.68
1036.644	28.14
1036.802	-50.52
1036.96	-2.28
1037.119	27.95
1037.277	19.23
1037.435	-38.12
1037.593	-7.7
1037.751	16.9
1037.909	39.77
1038.067	39.77
