Data from gum_young_FLMT105791__44__17-38-43-044.txt Node

Date: Mon Mar 20 17:38:43 GMT 2023
User: antho
Spectrometer: FLMT10579
Trigger mode: 0
Integration Time (sec): 1.000000E-1
Scans to average: 10
Electric dark correction enabled: true
Nonlinearity correction enabled: false
Boxcar width: 0
XAxis mode: Wavelengths
Number of Pixels in Spectrum: 3648
>>>>>Begin Spectral Data<<<<<
345.248	-145.31
345.464	-145.31
345.681	-145.31
345.898	-153.84
346.114	-153.84
346.331	-5.04
346.548	38.36
346.764	-18.21
346.981	-12.21
347.197	-3.68
347.414	16.47
347.631	-43.98
347.847	41.07
348.064	-2.13
348.28	14.34
348.497	-23.64
348.713	-1.36
348.93	29.26
349.146	31.77
349.363	-17.44
349.579	33.52
349.796	-18.6
350.012	-2.91
350.229	23.64
350.445	-0.77
350.661	-26.74
350.878	-5.42
351.094	18.02
351.311	14.92
351.527	12.59
351.743	-8.91
351.96	22.86
352.176	28.29
352.392	36.62
352.609	24.8
352.825	-10.27
353.041	8.91
353.257	21.51
353.474	16.08
353.69	30.61
353.906	11.04
354.122	-34.1
354.339	57.93
354.555	6.01
354.771	-3.1
354.987	64.71
355.203	63.74
355.42	1.16
355.636	-4.46
355.852	6.2
356.068	9.3
356.284	-20.15
356.5	50.37
356.716	27.12
356.932	10.85
357.148	49.6
357.364	21.12
357.58	42.24
357.796	66.26
358.012	54.64
358.228	40.88
358.444	-30.81
358.66	67.62
358.876	17.82
359.092	-7.75
359.308	42.82
359.524	24.22
359.74	-8.91
359.956	-0.58
360.172	32.36
360.388	37.97
360.604	-12.79
360.819	84.28
361.035	25.19
361.251	37.39
361.467	18.41
361.683	32.36
361.898	41.27
362.114	41.46
362.33	23.44
362.546	42.82
362.762	12.01
362.977	-1.94
363.193	-31.39
363.409	25.96
363.624	-1.55
363.84	-32.94
364.056	-12.59
364.271	25.19
364.487	41.27
364.703	18.41
364.918	6.01
365.134	9.88
365.35	-3.1
365.565	101.72
365.781	26.93
365.996	37.2
366.212	64.52
366.427	28.29
366.643	5.62
366.858	4.65
367.074	8.72
367.289	54.83
367.505	110.24
367.72	-25.57
367.936	5.04
368.151	58.32
368.367	29.26
368.582	19.18
368.798	12.4
369.013	74.98
369.228	0
369.444	15.69
369.659	56.57
369.874	51.34
370.09	97.26
370.305	-43.21
370.52	-2.91
370.736	73.82
370.951	24.22
371.166	73.24
371.381	81.76
371.597	24.02
371.812	-10.85
372.027	23.06
372.242	19.76
372.458	86.41
372.673	-5.42
372.888	42.43
373.103	39.14
373.318	107.72
373.533	46.11
373.749	38.56
373.964	-40.69
374.179	44.95
374.394	10.07
374.609	62
374.824	10.85
375.039	58.9
375.254	5.62
375.469	91.84
375.684	1.36
375.899	74.01
376.114	20.54
376.329	31.77
376.544	69.94
376.759	36.81
376.974	0.97
377.189	16.86
377.404	11.62
377.619	87.57
377.834	-39.33
378.049	2.91
378.264	26.74
378.478	62.39
378.693	36.62
378.908	90.09
379.123	17.82
379.338	84.67
379.553	29.26
379.767	47.08
379.982	66.26
380.197	42.43
380.412	16.66
380.626	33.71
380.841	114.89
381.056	75.17
381.271	102.69
381.485	2.52
381.7	17.44
381.915	56.77
382.129	12.21
382.344	39.14
382.559	11.04
382.773	43.01
382.988	-0.97
383.202	40.69
383.417	14.14
383.632	120.9
383.846	16.86
384.061	51.73
384.275	23.06
384.49	70.52
384.704	50.37
384.919	44.76
385.133	41.85
385.348	64.91
385.562	-6.01
385.777	62.58
385.991	51.73
386.206	37.39
386.42	21.89
386.634	63.16
386.849	57.54
387.063	53.67
387.277	2.52
387.492	26.35
387.706	-2.32
387.92	6.59
388.135	61.61
388.349	31.77
388.563	24.02
388.778	47.08
388.992	74.79
389.206	75.17
389.42	85.64
389.635	56.38
389.849	81.57
390.063	79.82
390.277	76.53
390.491	107.34
390.706	78.08
390.92	46.31
391.134	47.86
391.348	71.3
391.562	27.71
391.776	53.28
391.99	26.35
392.205	68.59
392.419	20.92
392.633	53.86
392.847	104.82
393.061	26.54
393.275	101.33
393.489	18.6
393.703	48.63
393.917	81.96
394.131	15.5
394.345	77.89
394.559	94.94
394.773	53.28
394.986	43.21
395.2	63.16
395.414	82.92
395.628	14.53
395.842	46.89
396.056	43.4
396.27	19.57
396.484	62.19
396.697	53.28
396.911	79.05
397.125	103.46
397.339	100.94
397.553	74.4
397.766	107.34
397.98	92.61
398.194	87.96
398.408	50.57
398.621	100.94
398.835	73.82
399.049	86.02
399.262	112.37
399.476	91.84
399.69	99.59
399.903	133.1
400.117	81.76
400.331	100.94
400.544	74.21
400.758	169.53
400.971	77.31
401.185	124.39
401.398	68.2
401.612	121.29
401.826	110.44
402.039	99
402.253	57.54
402.466	114.12
402.68	75.17
402.893	123.42
403.106	98.04
403.32	86.41
403.533	110.44
403.747	105.01
403.96	103.46
404.174	107.34
404.387	68.78
404.6	94.94
404.814	133.1
405.027	104.62
405.24	102.1
405.454	104.62
405.667	150.54
405.88	34.49
406.094	98.81
406.307	142.99
406.52	122.25
406.733	66.26
406.947	61.22
407.16	167.01
407.373	118.19
407.586	76.92
407.799	44.17
408.012	141.24
408.226	122.06
408.439	156.35
408.652	81.57
408.865	139.69
409.078	155
409.291	137.37
409.504	86.41
409.717	127.1
409.93	142.21
410.143	121.29
410.357	78.66
410.57	63.94
410.783	89.7
410.996	111.99
411.209	101.52
411.421	171.47
411.634	122.25
411.847	110.44
412.06	129.62
412.273	136.01
412.486	129.62
412.699	203.43
412.912	131.36
413.125	147.64
413.338	154.8
413.55	161.97
413.763	125.55
413.976	135.82
414.189	112.76
414.402	123.03
414.615	192.2
414.827	124.19
415.04	161.39
415.253	135.04
415.466	153.84
415.678	199.37
415.891	156.35
416.104	146.28
416.316	152.29
416.529	128.84
416.742	165.27
416.954	170.11
417.167	137.95
417.38	131.75
417.592	173.79
417.805	141.82
418.017	112.76
418.23	167.59
418.442	142.79
418.655	130
418.868	178.05
419.08	174.37
419.293	173.99
419.505	178.63
419.718	187.74
419.93	195.68
420.142	122.45
420.355	221.45
420.567	185.8
420.78	174.37
420.992	153.84
421.205	224.55
421.417	130
421.629	176.12
421.842	122.45
422.054	129.81
422.266	195.3
422.479	217.58
422.691	140.85
422.903	176.89
423.115	161.59
423.328	142.6
423.54	150.54
423.752	132.14
423.964	155.39
424.177	155.39
424.389	170.89
424.601	247.03
424.813	178.05
425.025	196.65
425.238	210.41
425.45	164.49
425.662	178.25
425.874	441.94
426.086	172.05
426.298	189.87
426.51	168.56
426.722	154.22
426.934	159.65
427.146	177.86
427.358	143.37
427.57	196.85
427.782	145.7
427.994	183.67
428.206	157.13
428.418	124.19
428.63	199.37
428.842	209.25
429.054	182.7
429.266	198.78
429.478	155
429.69	185.61
429.902	135.24
430.114	203.63
430.325	177.47
430.537	134.85
430.749	171.27
430.961	108.3
431.173	159.65
431.384	190.07
431.596	114.5
431.808	186.19
432.02	185.03
432.231	216.8
432.443	229.2
432.655	200.14
432.867	181.73
433.078	188.32
433.29	252.65
433.502	244.12
433.713	236.95
433.925	222.03
434.136	240.05
434.348	160.42
434.56	146.67
434.771	258.07
434.983	153.25
435.194	185.8
435.406	187.55
435.617	256.13
435.829	272.99
436.04	249.16
436.252	250.13
436.463	276.67
436.675	257.1
436.886	245.87
437.098	258.27
437.309	307.86
437.521	236.76
437.732	253.81
437.943	236.76
438.155	231.92
438.366	178.63
438.578	281.13
438.789	214.67
439	235.98
439.211	226.3
439.423	229.01
439.634	246.83
439.845	267.18
440.057	243.93
440.268	284.42
440.479	230.37
440.69	275.7
440.902	232.5
441.113	259.62
441.324	259.23
441.535	270.66
441.746	318.52
441.957	228.43
442.168	241.41
442.38	281.71
442.591	291.78
442.802	251.1
443.013	291.98
443.224	283.65
443.435	285.2
443.646	258.65
443.857	253.03
444.068	259.43
444.279	235.02
444.49	331.31
444.701	286.36
444.912	370.64
445.123	347.78
445.334	308.64
445.545	290.04
445.756	291.01
445.967	263.11
446.178	304.18
446.388	316.78
446.599	324.33
446.81	313.48
447.021	273.38
447.232	338.28
447.443	327.24
447.653	289.85
447.864	346.61
448.075	305.15
448.286	333.05
448.496	351.65
448.707	343.71
448.918	284.61
449.129	426.83
449.339	300.7
449.55	347
449.761	337.9
449.971	370.83
450.182	330.34
450.393	378.58
450.603	325.11
450.814	379.36
451.024	352.62
451.235	390.01
451.446	405.51
451.656	414.04
451.867	332.66
452.077	366.57
452.288	406.48
452.498	406.09
452.709	328.4
452.919	379.36
453.13	326.46
453.34	403.38
453.55	315.61
453.761	378.39
453.971	356.3
454.182	388.08
454.392	389.82
454.602	398.15
454.813	388.85
455.023	388.85
455.233	351.26
455.444	387.11
455.654	321.81
455.864	367.73
456.075	371.22
456.285	351.46
456.495	371.03
456.705	385.56
456.916	415.39
457.126	450.66
457.336	392.14
457.546	352.04
457.756	380.13
457.967	435.16
458.177	378.97
458.387	391.18
458.597	369.67
458.807	361.73
459.017	368.89
459.227	359.4
459.437	374.9
459.647	409.97
459.857	395.83
460.068	389.82
460.278	461.7
460.488	400.28
460.698	456.27
460.908	386.33
461.117	388.66
461.327	372.58
461.537	419.08
461.747	418.49
461.957	420.63
462.167	521.18
462.377	452.4
462.587	414.43
462.797	466.16
463.007	416.56
463.216	474.1
463.426	459.18
463.636	452.98
463.846	373.54
464.056	423.34
464.265	445.42
464.475	386.14
464.685	444.07
464.895	453.37
465.104	459.18
465.314	478.94
465.524	446.39
465.733	411.33
465.943	536.49
466.153	513.82
466.362	499.67
466.572	450.46
466.782	464.22
466.991	482.04
467.201	508.59
467.41	420.63
467.62	467.71
467.829	480.3
468.039	508.59
468.249	469.45
468.458	491.34
468.668	513.43
468.877	514.59
469.086	532.8
469.296	514.21
469.505	481.27
469.715	527.38
469.924	514.4
470.134	552.76
470.343	527.38
470.552	478.94
470.762	502.39
470.971	459.37
471.18	493.47
471.39	489.99
471.599	473.91
471.808	530.29
472.018	504.91
472.227	543.85
472.436	551.6
472.645	530.29
472.855	507.23
473.064	604.88
473.273	574.65
473.482	558.77
473.691	607.01
473.901	571.75
474.11	551.99
474.319	638.4
474.528	579.3
474.737	633.94
474.946	582.6
475.155	621.54
475.364	624.83
475.573	568.84
475.783	615.73
475.992	626.77
476.201	650.22
476.41	582.21
476.619	559.15
476.828	563.03
477.037	564.77
477.245	601.39
477.454	631.62
477.663	640.14
477.872	625.03
478.081	705.82
478.29	634.33
478.499	742.44
478.708	674.63
478.917	709.7
479.125	656.42
479.334	672.3
479.543	658.55
479.752	711.63
479.961	666.1
480.169	733.53
480.378	699.62
480.587	807.34
480.796	736.05
481.004	716.09
481.213	724.23
481.422	729.85
481.63	739.15
481.839	794.17
482.048	815.09
482.256	747.48
482.465	765.88
482.674	785.45
482.882	788.36
483.091	846.48
483.299	782.35
483.508	806.38
483.716	809.28
483.925	819.74
484.134	787.97
484.342	781.58
484.551	807.73
484.759	821.1
484.967	847.26
485.176	856.36
485.384	816.06
485.593	840.86
485.801	827.69
486.01	794.56
486.218	781.19
486.426	704.08
486.635	695.36
486.843	715.31
487.051	752.71
487.26	788.55
487.468	797.46
487.676	794.17
487.885	796.88
488.093	850.55
488.301	834.08
488.509	868.76
488.717	880.77
488.926	849
489.134	851.13
489.342	866.83
489.55	844.35
489.758	893.95
489.967	880.58
490.175	969.12
490.383	932.12
490.591	1006.32
490.799	903.06
491.007	966.6
491.215	956.92
491.423	968.54
491.631	943.16
491.839	955.95
492.047	980.94
492.255	903.44
492.463	887.36
492.671	945.29
492.879	994.89
493.087	974.94
493.295	962.73
493.503	995.86
493.711	1044.69
493.919	1023.18
494.127	1029.77
494.334	1047.4
494.542	969.9
494.75	999.54
494.958	1007.87
495.166	1090.8
495.374	1057.86
495.581	1062.7
495.789	1072.58
495.997	1127.8
496.205	1063.28
496.412	1062.51
496.62	1077.82
496.828	1111.72
497.035	1068.9
497.243	1108.82
497.451	1105.33
497.658	1134.39
497.866	1089.83
498.074	1158.61
498.281	1097.19
498.489	1166.94
498.696	1098.16
498.904	1104.94
499.112	1099.32
499.319	1185.54
499.527	1123.93
499.734	1173.14
499.942	1056.7
500.149	1119.08
500.357	1158.03
500.564	1110.95
500.771	1134.2
500.979	1103
501.186	1127.03
501.394	1163.06
501.601	1107.07
501.808	1152.6
502.016	1159
502.223	1140.59
502.43	1148.73
502.638	1128
502.845	1163.06
503.052	1243.66
503.26	1189.8
503.467	1261.49
503.674	1218.28
503.881	1198.52
504.089	1267.3
504.296	1246.18
504.503	1186.9
504.71	1236.88
504.917	1195.61
505.125	1218.48
505.332	1282.41
505.539	1313.02
505.746	1330.27
505.953	1337.24
506.16	1309.73
506.367	1365.34
506.574	1410.09
506.781	1437.99
506.988	1340.92
507.195	1355.65
507.402	1360.69
507.609	1390.52
507.816	1326.01
508.023	1356.42
508.23	1353.52
508.437	1350.81
508.644	1387.81
508.851	1441.29
509.058	1438.57
509.265	1408.93
509.472	1464.34
509.679	1555.4
509.885	1461.24
510.092	1493.98
510.299	1485.65
510.506	1476.35
510.713	1505.42
510.92	1494.18
511.126	1505.22
511.333	1554.82
511.54	1563.35
511.746	1637.55
511.953	1596.09
512.16	1659.45
512.367	1602.68
512.573	1599.38
512.78	1608.1
512.987	1564.51
513.193	1586.6
513.4	1535.64
513.606	1588.34
513.813	1617.79
514.02	1592.99
514.226	1719.31
514.433	1690.83
514.639	1578.65
514.846	1634.65
515.052	1662.54
515.259	1660.41
515.465	1664.87
515.672	1692.19
515.878	1782.86
516.085	1719.31
516.291	1780.54
516.497	1737.91
516.704	1678.43
516.91	1617.21
517.117	1561.99
517.323	1529.44
517.529	1561.99
517.736	1595.12
517.942	1588.92
518.148	1637.55
518.354	1711.18
518.561	1691.22
518.767	1699.74
518.973	1718.15
519.179	1759.81
519.386	1760.39
519.592	1754.77
519.798	1778.02
520.004	1895.82
520.21	1859.59
520.417	1953.94
520.623	1950.26
520.829	1939.22
521.035	2007.8
521.241	1960.72
521.447	1997.15
521.653	2102.74
521.859	2007.22
522.065	2061.08
522.271	2125.79
522.477	2078.52
522.683	2163.19
522.889	2067.67
523.095	2070.58
523.301	2112.23
523.507	2029.11
523.713	2114.75
523.919	2117.66
524.125	2173.46
524.331	2186.05
524.537	2269.94
524.742	2238.94
524.948	2293.39
525.154	2280.4
525.36	2355.58
525.566	2289.12
525.772	2342.99
525.977	2252.12
526.183	2266.65
526.389	2309.66
526.595	2215.5
526.8	2225.77
527.006	2163.96
527.212	2107.19
527.417	2054.3
527.623	2154.86
527.829	2212.98
528.034	2232.36
528.24	2274.01
528.446	2281.76
528.651	2378.05
528.857	2403.43
529.062	2470.86
529.268	2444.9
529.473	2457.3
529.679	2470.86
529.884	2542.93
530.09	2496.82
530.295	2508.64
530.501	2542.93
530.706	2499.53
530.912	2486.75
531.117	2565.99
531.323	2519.1
531.528	2570.83
531.733	2586.14
531.939	2545.06
532.144	2593.89
532.35	2561.53
532.555	2591.56
532.76	2557.85
532.966	2536.93
533.171	2544.09
533.376	2466.21
533.581	2465.82
533.787	2581.88
533.992	2575.09
534.197	2584.01
534.402	2565.41
534.607	2581.29
534.813	2693.09
535.018	2596.79
535.223	2660.73
535.428	2642.32
535.633	2710.14
535.838	2751.6
536.043	2752.57
536.249	2824.64
536.454	2745.2
536.659	2743.07
536.864	2716.34
537.069	2718.47
537.274	2675.46
537.479	2732.61
537.684	2682.62
537.889	2649.3
538.094	2789.57
538.299	2746.95
538.504	2753.73
538.708	2752.95
538.913	2814.76
539.118	2739.78
539.323	2789.57
539.528	2754.89
539.733	2754.89
539.938	2754.5
540.142	2743.07
540.347	2727.96
540.552	2671.39
540.757	2688.05
540.962	2698.51
541.166	2644.65
541.371	2680.69
541.576	2682.43
541.781	2644.65
541.985	2806.43
542.19	2748.89
542.395	2884.12
542.599	2868.82
542.804	2784.73
543.008	2823.28
543.213	2789.96
543.418	2735.9
543.622	2834.72
543.827	2738.42
544.031	2855.06
544.236	2859.52
544.44	2856.22
544.645	2929.07
544.849	2818.63
545.054	2943.41
545.258	2942.83
545.463	2921.13
545.667	2815.73
545.872	2909.89
546.076	2879.86
546.281	2893.61
546.485	2830.65
546.689	2877.15
546.894	2961.04
547.098	2911.83
547.302	2867.07
547.507	2879.28
547.711	2906.98
547.915	2935.08
548.119	2846.92
548.324	2804.49
548.528	2918.22
548.732	2890.9
548.936	2925
549.141	2908.73
549.345	2902.72
549.549	2894.78
549.753	2964.72
549.957	2999.21
550.161	2999.98
550.366	2980.8
550.57	2879.86
550.774	2916.09
550.978	2926.36
551.182	2978.09
551.386	2914.15
551.59	2913.96
551.794	2910.28
551.998	2950.58
552.202	2917.83
552.406	2902.72
552.61	2939.92
552.814	2972.08
553.018	2976.34
553.222	2888.77
553.426	2905.24
553.63	3008.12
553.833	2942.25
554.037	2894
554.241	2929.85
554.445	2932.75
554.649	2932.95
554.853	2934.88
555.056	2999.79
555.26	2999.21
555.464	2972.47
555.668	2971.69
555.871	2943.21
556.075	2976.15
556.279	2914.54
556.483	2920.35
556.686	2924.23
556.89	2889.55
557.094	2924.42
557.297	2853.32
557.501	2908.34
557.704	2767.68
557.908	2924.42
558.112	2865.72
558.315	2911.05
558.519	2820.38
558.722	2851.77
558.926	2822.51
559.129	2753.92
559.333	2733.58
559.536	2769.62
559.74	2690.18
559.943	2691.34
560.147	2687.66
560.35	2747.72
560.553	2772.91
560.757	2716.72
560.96	2818.44
561.164	2729.32
561.367	2860.87
561.57	2779.5
561.774	2770
561.977	2738.81
562.18	2686.5
562.384	2803.91
562.587	2717.69
562.79	2732.42
562.993	2690.37
563.197	2768.84
563.4	2779.89
563.603	2780.27
563.806	2814.95
564.009	2729.9
564.212	2729.12
564.416	2646.39
564.619	2715.56
564.822	2638.84
565.025	2681.07
565.228	2634.77
565.431	2693.86
565.634	2604.35
565.837	2606.09
566.04	2580.71
566.243	2549.13
566.446	2496.82
566.649	2599.12
566.852	2520.65
567.055	2572.58
567.258	2611.33
567.461	2652.98
567.664	2629.73
567.867	2572.58
568.07	2555.33
568.273	2553.39
568.475	2611.91
568.678	2514.65
568.881	2539.44
569.084	2515.03
569.287	2378.63
569.489	2437.34
569.692	2481.13
569.895	2485.58
570.098	2403.05
570.3	2393.36
570.503	2336.4
570.706	2354.42
570.909	2364.68
571.111	2249.02
571.314	2302.88
571.516	2331.55
571.719	2299.78
571.922	2301.33
572.124	2307.14
572.327	2329.81
572.529	2284.86
572.732	2289.12
572.935	2298.62
573.137	2368.95
573.34	2251.15
573.542	2352.67
573.745	2311.99
573.947	2324.19
574.15	2287.77
574.352	2289.51
574.554	2343.18
574.757	2245.92
574.959	2218.21
575.162	2224.99
575.364	2218.6
575.566	2347.83
575.769	2163.19
575.971	2199.81
576.173	2110.49
576.376	2186.44
576.578	2225.57
576.78	2221.12
576.982	2123.86
577.185	2157.18
577.387	2156.41
577.589	2124.83
577.791	2197.67
577.993	2142.07
578.196	2155.44
578.398	2130.44
578.6	2173.07
578.802	2108.55
579.004	2057.4
579.206	2116.3
579.408	2150.79
579.61	2086.08
579.812	2145.17
580.014	2110.68
580.216	2064.18
580.418	2130.83
580.62	2057.6
580.822	2085.69
581.024	2109.13
581.226	2150.59
581.428	2132.38
581.63	2242.82
581.832	2150.79
582.034	2216.86
582.236	2159.51
582.438	2235.65
582.64	2215.89
582.841	2226.16
583.043	2285.64
583.245	2200.39
583.447	2227.32
583.649	2168.42
583.85	2175.2
584.052	2200.77
584.254	2164.16
584.456	2192.06
584.657	2128.89
584.859	2217.44
585.061	2147.69
585.262	2120.76
585.464	2098.09
585.666	2138
585.867	2077.36
586.069	2122.5
586.27	2111.07
586.472	2119.01
586.674	2076.78
586.875	2074.84
587.077	2054.11
587.278	2110.49
587.48	2066.31
587.681	2206.59
587.883	2093.44
588.084	2015.36
588.285	2049.65
588.487	1998.31
588.688	2011.68
588.89	1923.13
589.091	1860.36
589.292	1864.62
589.494	1830.52
589.695	1784.61
589.896	1714.86
590.098	1740.82
590.299	1809.79
590.5	1779.96
590.702	1799.14
590.903	1832.46
591.104	1887.29
591.305	1895.62
591.507	1909.57
591.708	1886.52
591.909	1894.65
592.11	1932.43
592.311	1936.89
592.512	1854.94
592.714	1829.94
592.915	1869.27
593.116	1885.94
593.317	1887.87
593.518	1895.43
593.719	1913.06
593.92	1923.33
594.121	1936.31
594.322	1893.69
594.523	1871.6
594.724	1850.87
594.925	1876.83
595.126	1885.94
595.327	1882.84
595.528	1874.89
595.729	1875.67
595.929	1902.02
596.13	1879.54
596.331	1906.86
596.532	1867.53
596.733	1963.24
596.934	1951.42
597.135	1903.37
597.335	1938.63
597.536	1862.49
597.737	1906.47
597.938	1860.36
598.138	1895.43
598.339	1893.3
598.54	1885.94
598.74	1865.59
598.941	1881.67
599.142	1937.08
599.342	1900.66
599.543	1865.59
599.744	1880.51
599.944	1926.82
600.145	1899.11
600.345	1896.79
600.546	1938.05
600.746	1909.57
600.947	1952.78
601.147	1885.74
601.348	1976.42
601.548	1886.71
601.749	1853
601.949	1842.15
602.15	1841.95
602.35	1863.65
602.551	1893.1
602.751	1868.3
602.951	1867.14
603.152	1809.02
603.352	1898.14
603.552	1899.3
603.753	1948.32
603.953	1930.88
604.153	1906.28
604.354	1904.92
604.554	1869.66
604.754	1900.08
604.954	1865.2
605.155	1906.67
605.355	1888.65
605.555	1927.59
605.755	1952.58
605.955	1897.95
606.155	1935.15
606.356	1891.75
606.556	1917.32
606.756	1861.52
606.956	1828.97
607.156	1929.53
607.356	1833.82
607.556	1931.08
607.756	1903.57
607.956	1889.23
608.156	1861.52
608.356	1829.75
608.556	1852.42
608.756	1830.72
608.956	1821.42
609.156	1840.02
609.356	1808.05
609.556	1802.24
609.755	1843.31
609.955	1788.48
610.155	1803.79
610.355	1809.41
610.555	1805.34
610.755	1788.09
610.954	1717.18
611.154	1785.38
611.354	1820.26
611.554	1779.76
611.753	1772.01
611.953	1712.34
612.153	1780.73
612.352	1771.04
612.552	1682.11
612.752	1705.75
612.951	1763.29
613.151	1756.9
613.351	1695.29
613.55	1690.06
613.75	1737.53
613.949	1723.96
614.149	1717.38
614.348	1681.73
614.548	1668.36
614.747	1628.64
614.947	1655.38
615.146	1622.83
615.346	1715.63
615.545	1709.24
615.745	1673.39
615.944	1700.33
616.144	1698.39
616.343	1661.19
616.542	1644.53
616.742	1622.44
616.941	1609.46
617.14	1591.83
617.34	1635.42
617.539	1621.08
617.738	1653.25
617.938	1679.21
618.137	1637.36
618.336	1624.57
618.535	1665.84
618.734	1642.4
618.934	1636
619.133	1643.95
619.332	1664.48
619.531	1628.25
619.73	1622.83
619.929	1650.53
620.128	1643.75
620.328	1672.81
620.527	1617.21
620.726	1646.46
620.925	1667.58
621.124	1600.55
621.323	1669.33
621.522	1585.05
621.721	1572.07
621.92	1590.08
622.119	1609.65
622.318	1571.1
622.517	1574.58
622.715	1596.67
622.914	1550.75
623.113	1560.25
623.312	1505.42
623.511	1561.99
623.71	1548.62
623.909	1519.17
624.107	1614.69
624.306	1507.93
624.505	1499.41
624.704	1540.87
624.902	1514.52
625.101	1556.37
625.3	1526.34
625.499	1476.94
625.697	1475
625.896	1523.43
626.095	1501.93
626.293	1453.88
626.492	1473.25
626.69	1516.27
626.889	1499.41
627.088	1544.94
627.286	1482.94
627.485	1453.3
627.683	1425.59
627.882	1443.61
628.08	1386.26
628.279	1396.53
628.477	1476.55
628.676	1392.85
628.874	1410.67
629.073	1384.13
629.271	1377.35
629.469	1424.62
629.668	1397.31
629.866	1368.82
630.065	1403.7
630.263	1439.15
630.461	1382.19
630.66	1452.72
630.858	1446.9
631.056	1446.71
631.254	1469.77
631.453	1394.79
631.651	1451.75
631.849	1388.59
632.047	1444.39
632.245	1411.64
632.444	1465.7
632.642	1418.04
632.84	1466.09
633.038	1392.07
633.236	1371.34
633.434	1442.64
633.632	1430.05
633.83	1413.39
634.028	1486.62
634.227	1442.45
634.425	1519.95
634.623	1435.86
634.821	1468.99
635.019	1429.47
635.216	1456.79
635.414	1457.37
635.612	1440.12
635.81	1448.45
636.008	1496.31
636.206	1429.85
636.404	1448.65
636.602	1405.44
636.8	1424.62
636.997	1448.26
637.195	1465.89
637.393	1474.61
637.591	1501.15
637.789	1461.63
637.986	1446.32
638.184	1424.82
638.382	1485.65
638.58	1453.3
638.777	1479.65
638.975	1448.65
639.173	1423.27
639.37	1447.29
639.568	1429.66
639.765	1424.62
639.963	1401.95
640.161	1436.44
640.358	1409.7
640.556	1379.09
640.753	1379.48
640.951	1341.51
641.148	1390.72
641.346	1364.95
641.543	1343.64
641.741	1384.32
641.938	1356.23
642.136	1354.1
642.333	1321.55
642.531	1410.67
642.728	1393.24
642.925	1359.52
643.123	1323.29
643.32	1319.81
643.517	1319.03
643.715	1306.63
643.912	1309.93
644.109	1301.98
644.306	1317.67
644.504	1316.71
644.701	1344.99
644.898	1332.79
645.095	1255.29
645.293	1299.46
645.49	1307.99
645.687	1273.31
645.884	1289.19
646.081	1197.36
646.278	1245.41
646.475	1227.78
646.672	1228.55
646.87	1228.74
647.067	1184.38
647.264	1228.94
647.461	1158.22
647.658	1169.07
647.855	1184.57
648.052	1145.24
648.249	1095.06
648.446	1157.64
648.642	1153.57
648.839	1101.65
649.036	1137.88
649.233	1104.17
649.43	1104.75
649.627	1106.68
649.824	1095.64
650.021	1107.85
650.217	1083.43
650.414	1151.63
650.611	1153.76
650.808	1148.53
651.004	1119.47
651.201	1159.58
651.398	1183.99
651.595	1123.15
651.791	1094.87
651.988	1141.56
652.185	1086.92
652.381	1142.33
652.578	1056.12
652.775	1121.41
652.971	1105.52
653.168	1099.52
653.364	1130.13
653.561	1083.82
653.757	1111.53
653.954	1117.53
654.15	1046.43
654.347	1166.16
654.543	1096.8
654.74	1035.77
654.936	1033.84
655.133	1075.88
655.329	1082.47
655.525	1065.42
655.722	1079.95
655.918	1028.02
656.115	1011.55
656.311	965.64
656.507	903.25
656.704	873.8
656.9	918.75
657.096	946.07
657.292	895.69
657.489	995.67
657.685	1024.54
657.881	996.83
658.077	985.2
658.273	1022.6
658.47	1055.15
658.666	1012.72
658.862	1083.05
659.058	1005.55
659.254	1081.5
659.45	997.6
659.646	1010.59
659.842	1006.71
660.038	1082.27
660.234	979.59
660.43	1009.23
660.626	1099.9
660.822	1036.74
661.018	1050.11
661.214	1025.12
661.41	1005.55
661.606	1041.59
661.802	1042.36
661.998	1014.46
662.194	975.13
662.39	1026.67
662.586	1013.88
662.781	1039.65
662.977	1040.23
663.173	1050.3
663.369	994.12
663.564	977.26
663.76	1025.7
663.956	969.32
664.152	1031.32
664.347	952.07
664.543	969.7
664.739	974.55
664.934	940.84
665.13	926.11
665.326	995.09
665.521	991.4
665.717	952.46
665.912	957.31
666.108	877.67
666.304	956.14
666.499	900.54
666.695	835.83
666.89	935.02
667.086	965.64
667.281	931.73
667.477	975.52
667.672	936.57
667.867	914.87
668.063	943.55
668.258	900.34
668.454	914.49
668.649	1001.09
668.844	931.73
669.04	947.04
669.235	895.69
669.43	899.76
669.626	879.42
669.821	892.79
670.016	849.19
670.211	898.6
670.407	857.14
670.602	886.97
670.797	880
670.992	909.26
671.187	869.54
671.382	906.16
671.578	867.99
671.773	894.72
671.968	822.46
672.163	831.56
672.358	881.94
672.553	825.36
672.748	848.42
672.943	909.45
673.138	857.33
673.333	917.01
673.528	810.06
673.723	857.14
673.918	864.5
674.113	814.13
674.308	921.85
674.503	843.96
674.698	872.06
674.892	857.91
675.087	879.03
675.282	873.41
675.477	849.97
675.672	840.48
675.867	846.29
676.061	807.73
676.256	804.63
676.451	850.74
676.646	840.67
676.84	839.7
677.035	802.5
677.23	817.81
677.424	864.5
677.619	828.66
677.814	882.32
678.008	864.11
678.203	796.3
678.397	836.21
678.592	831.76
678.787	892.21
678.981	815.68
679.176	834.08
679.37	873.03
679.565	807.93
679.759	826.14
679.954	823.81
680.148	867.41
680.342	876.32
680.537	830.01
680.731	829.24
680.926	855.78
681.12	863.34
681.314	821.49
681.509	830.98
681.703	845.32
681.897	850.55
682.092	828.85
682.286	842.61
682.48	891.62
682.674	879.42
682.869	841.64
683.063	839.7
683.257	914.29
683.451	812.38
683.645	857.14
683.839	857.33
684.034	849.39
684.228	877.87
684.422	820.33
684.616	821.49
684.81	877.87
685.004	874.19
685.198	870.51
685.392	889.11
685.586	871.67
685.78	900.34
685.974	934.64
686.168	902.67
686.362	940.84
686.556	844.93
686.75	798.04
686.944	777.31
687.138	790.49
687.331	709.7
687.525	668.23
687.719	623.09
687.913	688
688.107	722.87
688.301	713.38
688.494	762.2
688.688	697.49
688.882	643.05
689.076	701.17
689.269	737.98
689.463	840.86
689.657	801.53
689.85	766.85
690.044	811.22
690.238	814.51
690.431	819.36
690.625	812.19
690.818	885.42
691.012	873.99
691.205	931.34
691.399	883.87
691.593	915.84
691.786	998.19
691.98	1010
692.173	1053.02
692.366	1037.52
692.56	1037.9
692.753	1122.96
692.947	1033.06
693.14	1115.21
693.333	1140.4
693.527	1044.3
693.72	1114.43
693.914	1105.33
694.107	1065.61
694.3	1130.71
694.493	1122.96
694.687	1190.38
694.88	1168.68
695.073	1259.94
695.266	1224.68
695.46	1228.74
695.653	1249.48
695.846	1277.76
696.039	1205.5
696.232	1286.09
696.425	1357.2
696.618	1381.81
696.812	1406.8
697.005	1426.37
697.198	1524.79
697.391	1463.95
697.584	1518.78
697.777	1586.6
697.97	1568.77
698.163	1575.55
698.356	1561.02
698.549	1588.92
698.742	1606.55
698.935	1565.28
699.127	1591.25
699.32	1601.51
699.513	1593.76
699.706	1604.03
699.899	1646.66
700.092	1627.67
700.285	1654.02
700.477	1600.35
700.67	1682.69
700.863	1674.56
701.056	1775.89
701.248	1741.79
701.441	1760.19
701.634	1731.33
701.826	1827.04
702.019	1723.19
702.212	1813.86
702.404	1782.86
702.597	1772.21
702.79	1834.59
702.982	1847.38
703.175	1880.32
703.367	1885.35
703.56	1931.85
703.752	2006.83
703.945	1943.09
704.137	1996.37
704.33	2030.47
704.522	2022.91
704.715	2079.3
704.907	2076
705.1	2108.16
705.292	2110.49
705.484	2095.57
705.677	2106.23
705.869	2127.54
706.061	2158.15
706.254	2217.24
706.446	2149.63
706.638	2184.89
706.831	2225.77
707.023	2261.42
707.215	2314.5
707.407	2344.15
707.599	2319.74
707.792	2365.46
707.984	2331.55
708.176	2387.55
708.368	2354.42
708.56	2330.59
708.752	2381.73
708.944	2394.13
709.136	2408.28
709.329	2404.98
709.521	2536.15
709.713	2507.86
709.905	2531.7
710.097	2532.08
710.289	2505.93
710.481	2488.1
710.672	2516.97
710.864	2598.73
711.056	2587.88
711.248	2591.95
711.44	2598.15
711.632	2591.56
711.824	2624.11
712.016	2702
712.207	2658.99
712.399	2683.98
712.591	2731.06
712.783	2703.94
712.975	2696.38
713.166	2674.49
713.358	2713.62
713.55	2775.82
713.741	2772.52
713.933	2745.59
714.125	2769.62
714.316	2702.77
714.508	2779.3
714.7	2812.43
714.891	2806.43
715.083	2829.48
715.274	2814.37
715.466	2789.19
715.657	2837.23
715.849	2752.76
716.04	2801.39
716.232	2782.4
716.423	2748.69
716.615	2667.51
716.806	2573.16
716.998	2534.41
717.189	2457.68
717.381	2379.02
717.572	2303.46
717.763	2338.72
717.955	2266.65
718.146	2191.67
718.337	2167.84
718.528	2125.21
718.72	2063.6
718.911	2129.28
719.102	2052.17
719.293	2100.61
719.485	2077.94
719.676	2090.15
719.867	2007.8
720.058	1961.3
720.249	2003.73
720.44	2056.82
720.632	2107.19
720.823	2159.51
721.014	2286.8
721.205	2337.95
721.396	2445.87
721.587	2528.6
721.778	2571.99
721.969	2620.04
722.16	2665.77
722.351	2743.07
722.542	2787.83
722.733	2825.8
722.924	2765.16
723.115	2772.91
723.305	2777.95
723.496	2734.55
723.687	2630.7
723.878	2613.84
724.069	2639.61
724.26	2638.26
724.45	2571.99
724.641	2569.48
724.832	2605.13
725.023	2577.81
725.213	2529.18
725.404	2521.04
725.595	2503.41
725.785	2525.11
725.976	2570.06
726.167	2540.8
726.357	2570.06
726.548	2676.42
726.739	2573.93
726.929	2703.74
727.12	2684.37
727.31	2666.74
727.501	2647.75
727.691	2589.82
727.882	2676.23
728.072	2708.97
728.263	2708.39
728.453	2719.44
728.644	2776.98
728.834	2722.34
729.024	2670.22
729.215	2702.97
729.405	2721.57
729.596	2788.99
729.786	2802.94
729.976	2810.5
730.167	2834.13
730.357	2789.19
730.547	2778.92
730.737	2839.17
730.928	2892.65
731.118	2911.83
731.308	2866.68
731.498	2884.9
731.688	2985.64
731.879	2992.81
732.069	3005.41
732.259	3107.12
732.449	3121.46
732.639	3194.89
732.829	3193.34
733.019	3266.77
733.209	3355.9
733.399	3394.65
733.589	3447.34
733.779	3422.74
733.969	3464.78
734.159	3506.05
734.349	3569.21
734.539	3615.32
734.729	3597.5
734.919	3586.07
735.109	3648.07
735.299	3615.52
735.488	3629.85
735.678	3646.13
735.868	3638.57
736.058	3640.9
736.248	3621.72
736.437	3586.65
736.627	3550.03
736.817	3721.3
737.007	3676.93
737.196	3712.78
737.386	3690.88
737.576	3662.99
737.765	3750.75
737.955	3700.18
738.144	3847.24
738.334	3812.17
738.524	3757.73
738.713	3797.45
738.903	3743.39
739.092	3814.5
739.282	3850.92
739.471	3797.83
739.661	3776.33
739.85	3842.98
740.04	3844.72
740.229	3898.19
740.419	3916.21
740.608	3885.6
740.797	3870.29
740.987	3952.25
741.176	3953.41
741.365	3901.1
741.555	3876.11
741.744	3952.25
741.933	3926.29
742.123	3974.34
742.312	3967.94
742.501	4026.45
742.69	3991.58
742.88	3921.83
743.069	4090.78
743.258	4031.49
743.447	4066.17
743.636	4043.12
743.825	4042.73
744.014	4079.54
744.204	4078.96
744.393	4025.29
744.582	4152.2
744.771	4137.67
744.96	4077.02
745.149	4101.05
745.338	4093.3
745.527	4157.43
745.716	4099.69
745.905	4082.06
746.094	4131.66
746.283	4127.98
746.471	4110.15
746.66	4123.72
746.849	4102.79
747.038	4202.57
747.227	4102.6
747.416	4168.86
747.604	4112.09
747.793	4078.96
747.982	4106.86
748.171	4164.02
748.359	4169.05
748.548	4086.32
748.737	4098.14
748.926	4106.28
749.114	4026.84
749.303	4068.5
749.491	4081.09
749.68	4044.28
749.869	4132.63
750.057	4066.95
750.246	4064.43
750.434	4030.52
750.623	4069.85
750.811	4024.52
751	4107.25
751.188	4013.67
751.377	4052.8
751.565	4033.43
751.754	3988.09
751.942	4057.65
752.131	4015.8
752.319	3994.49
752.507	3945.86
752.696	4004.56
752.884	4015.02
753.072	3992.55
753.261	4017.54
753.449	3995.46
753.637	3953.41
753.825	4076.25
754.014	3970.66
754.202	3964.84
754.39	4040.21
754.578	3979.57
754.766	3930.36
754.955	3960.39
755.143	4035.56
755.331	3960
755.519	3955.35
755.707	3950.12
755.895	3947.99
756.083	3949.34
756.271	3898.97
756.459	3918.73
756.647	3957.09
756.835	3902.65
757.023	3875.53
757.211	3873.78
757.399	3852.08
757.587	3911.37
757.775	3844.14
757.963	3822.63
758.151	3861.19
758.339	3800.93
758.526	3786.4
758.714	3793.76
758.902	3689.92
759.09	3581.42
759.278	3382.05
759.465	3078.26
759.653	2685.14
759.841	2386.19
760.028	2076
760.216	1790.22
760.404	1662.16
760.591	1359.33
760.779	1125.09
760.967	1007.49
761.154	810.25
761.342	857.72
761.529	844.35
761.717	885.42
761.905	895.11
762.092	958.86
762.28	916.04
762.467	880
762.655	789.71
762.842	816.26
763.029	815.29
763.217	851.91
763.404	812.96
763.592	868.38
763.779	832.53
763.966	875.54
764.154	949.75
764.341	967.19
764.528	999.35
764.716	1047.01
764.903	1126.06
765.09	1166.75
765.277	1260.33
765.465	1434.7
765.652	1509.48
765.839	1582.33
766.026	1752.64
766.213	1798.75
766.4	1910.54
766.588	2122.11
766.775	2147.88
766.962	2308.69
767.149	2358.49
767.336	2521.81
767.523	2526.85
767.71	2678.94
767.897	2808.75
768.084	2861.26
768.271	2940.89
768.458	2967.82
768.645	3082.52
768.832	3037.38
769.019	3076.9
769.206	3136.19
769.392	3199.54
769.579	3297.58
769.766	3243.72
769.953	3313.66
770.14	3370.43
770.327	3335.16
770.513	3393.48
770.7	3413.83
770.887	3371.78
771.073	3400.26
771.26	3416.34
771.447	3360.55
771.634	3373.33
771.82	3458.19
772.007	3385.15
772.193	3472.92
772.38	3453.93
772.567	3430.49
772.753	3418.28
772.94	3474.86
773.126	3422.35
773.313	3432.43
773.499	3437.85
773.686	3463.81
773.872	3363.84
774.059	3482.03
774.245	3414.41
774.432	3418.28
774.618	3336.91
774.804	3359
774.991	3335.55
775.177	3412.28
775.363	3394.45
775.55	3397.36
775.736	3327.8
775.922	3378.76
776.109	3332.84
776.295	3362.87
776.481	3391.55
776.667	3385.73
776.853	3378.37
777.04	3320.63
777.226	3344.66
777.412	3401.81
777.598	3278.98
777.784	3298.93
777.97	3292.35
778.156	3282.27
778.342	3326.64
778.528	3303
778.715	3257.28
778.901	3258.63
779.087	3254.57
779.272	3276.65
779.458	3220.85
779.644	3260.38
779.83	3228.41
780.016	3309.2
780.202	3215.04
780.388	3230.54
780.574	3163.31
780.76	3201.09
780.946	3215.62
781.131	3197.41
781.317	3171.06
781.503	3162.34
781.689	3155.75
781.874	3263.28
782.06	3163.12
782.246	3141.03
782.432	3130.57
782.617	3194.12
782.803	3211.17
782.989	3108.48
783.174	3116.81
783.36	3079.61
783.545	3123.98
783.731	3118.75
783.916	3003.08
784.102	3074.57
784.288	3046.29
784.473	3079.81
784.659	3045.71
784.844	3097.05
785.029	3039.89
785.215	3022.65
785.4	2991.84
785.586	3055.39
785.771	2955.03
785.956	3047.45
786.142	2997.46
786.327	2983.9
786.512	2965.5
786.698	2954.84
786.883	2924.61
787.068	2940.11
787.254	2967.05
787.439	2903.11
787.624	2883.93
787.809	2911.44
787.994	2864.36
788.18	2953.1
788.365	2863.39
788.55	2891.29
788.735	2895.75
788.92	2838.59
789.105	2839.37
789.29	2879.47
789.475	2803.13
789.66	2815.34
789.845	2767.1
790.03	2748.89
790.215	2774.07
790.4	2795.77
790.585	2804.68
790.77	2748.69
790.955	2679.72
791.14	2727.96
791.325	2808.95
791.51	2669.45
791.695	2724.67
791.879	2748.89
792.064	2680.11
792.249	2780.27
792.434	2716.92
792.618	2724.86
792.803	2778.92
792.988	2720.79
793.173	2749.08
793.357	2767.29
793.542	2689.6
793.727	2746.37
793.911	2756.05
794.096	2731.25
794.281	2802.36
794.465	2817.28
794.65	2774.65
794.834	2800.81
795.019	2848.08
795.203	2828.13
795.388	2843.43
795.572	2844.21
795.757	2808.56
795.941	2791.7
796.126	2751.99
796.31	2738.42
796.494	2708.97
796.679	2726.8
796.863	2715.56
797.048	2800.62
797.232	2790.74
797.416	2797.52
797.601	2784.15
797.785	2812.24
797.969	2818.44
798.153	2782.6
798.338	2799.26
798.522	2827.35
798.706	2850.22
798.89	2824.64
799.074	2910.08
799.258	2861.45
799.443	2805.27
799.627	2799.84
799.811	2873.66
799.995	2820.96
800.179	2785.12
800.363	2801.39
800.547	2818.25
800.731	2849.05
800.915	2761.87
801.099	2769.81
801.283	2776.98
801.467	2774.46
801.651	2791.12
801.835	2788.8
802.019	2801.39
802.202	2786.28
802.386	2734.16
802.57	2758.38
802.754	2742.69
802.938	2731.45
803.121	2726.41
803.305	2829.29
803.489	2770.78
803.673	2782.99
803.856	2774.07
804.04	2736.49
804.224	2754.5
804.407	2801.2
804.591	2759.15
804.775	2777.75
804.958	2733.97
805.142	2885.48
805.326	2768.84
805.509	2812.82
805.693	2827.74
805.876	2838.78
806.06	2820.96
806.243	2849.63
806.427	2839.75
806.61	2848.67
806.794	2767.49
806.977	2828.52
807.16	2814.76
807.344	2828.71
807.527	2825.22
807.71	2769.23
807.894	2807.4
808.077	2839.17
808.26	2748.5
808.444	2746.37
808.627	2803.52
808.81	2723.12
808.993	2688.82
809.177	2661.51
809.36	2685.53
809.543	2743.07
809.726	2610.74
809.909	2617.14
810.092	2633.22
810.276	2647.36
810.459	2614.81
810.642	2644.26
810.825	2555.33
811.008	2567.34
811.191	2472.21
811.374	2491.4
811.557	2496.24
811.74	2557.08
811.923	2462.33
812.106	2451.87
812.289	2417.97
812.472	2379.99
812.654	2416.22
812.837	2321.48
813.02	2311.02
813.203	2262.97
813.386	2167.45
813.569	2135.68
813.751	2070.58
813.934	2133.16
814.117	2081.23
814.3	2036.67
814.482	2006.25
814.665	1985.91
814.848	1910.74
815.03	1851.84
815.213	1851.64
815.396	1825.68
815.578	1818.51
815.761	1793.52
815.943	1802.04
816.126	1730.55
816.309	1704.01
816.491	1654.6
816.674	1601.32
816.856	1687.73
817.039	1677.66
817.221	1720.86
817.403	1687.54
817.586	1698
817.768	1705.36
817.951	1640.65
818.133	1592.99
818.315	1670.49
818.498	1675.53
818.68	1693.93
818.862	1718.73
819.045	1741.4
819.227	1723.19
819.409	1680.95
819.591	1694.71
819.774	1695.87
819.956	1704.39
820.138	1750.51
820.32	1779.57
820.502	1797.59
820.684	1891.36
820.866	1899.3
821.048	1932.05
821.231	1970.41
821.413	1952.2
821.595	1948.32
821.777	1950.84
821.959	1930.3
822.141	1993.08
822.323	1816.38
822.505	1760.97
822.686	1744.5
822.868	1660.03
823.05	1522.27
823.232	1500.77
823.414	1434.89
823.596	1497.67
823.778	1478.29
823.96	1561.22
824.141	1531.18
824.323	1583.88
824.505	1650.73
824.687	1699.94
824.868	1749.34
825.05	1855.52
825.232	1938.05
825.413	1927.78
825.595	1893.1
825.777	1875.86
825.958	1908.8
826.14	1884
826.321	1899.69
826.503	1844.67
826.685	1930.11
826.866	1951.42
827.048	1921.39
827.229	1847.77
827.411	1786.16
827.592	1767.75
827.773	1765.62
827.955	1724.54
828.136	1733.65
828.318	1698.78
828.499	1731.52
828.68	1668.16
828.862	1681.92
829.043	1730.55
829.224	1666.23
829.406	1641.43
829.587	1669.91
829.768	1698.78
829.949	1709.04
830.131	1672.81
830.312	1751.47
830.493	1672.81
830.674	1690.44
830.855	1691.8
831.036	1700.91
831.218	1743.34
831.399	1792.16
831.58	1718.15
831.761	1698.58
831.942	1750.89
832.123	1719.51
832.304	1675.53
832.485	1666.42
832.666	1697.03
832.847	1715.44
833.028	1708.46
833.209	1717.96
833.389	1673.59
833.57	1658.48
833.751	1665.26
833.932	1730.55
834.113	1723.58
834.294	1691.61
834.475	1728.61
834.655	1747.21
834.836	1782.67
835.017	1777.05
835.198	1739.85
835.378	1761.36
835.559	1832.46
835.74	1733.65
835.92	1722.8
836.101	1706.14
836.281	1759.61
836.462	1768.33
836.643	1807.08
836.823	1800.11
837.004	1820.84
837.184	1833.43
837.365	1821.03
837.545	1814.06
837.726	1781.89
837.906	1802.43
838.087	1794.68
838.267	1779.96
838.448	1757.87
838.628	1790.03
838.808	1767.17
838.989	1800.49
839.169	1779.57
839.349	1818.32
839.53	1843.89
839.71	1817.93
839.89	1778.6
840.07	1813.28
840.251	1766.78
840.431	1816.96
840.611	1777.44
840.791	1720.48
840.971	1797.97
841.151	1775.31
841.332	1766.01
841.512	1799.14
841.692	1730.36
841.872	1780.34
842.052	1794.29
842.232	1788.87
842.412	1744.31
842.592	1786.93
842.772	1800.11
842.952	1790.42
843.132	1744.69
843.312	1770.66
843.492	1721.83
843.672	1794.29
843.851	1677.08
844.031	1732.68
844.211	1733.46
844.391	1710.59
844.571	1763.87
844.751	1740.24
844.93	1738.88
845.11	1724.35
845.29	1729
845.47	1759.81
845.649	1695.48
845.829	1748.96
846.009	1720.86
846.188	1764.46
846.368	1778.02
846.547	1745.47
846.727	1803.98
846.907	1715.24
847.086	1712.14
847.266	1738.49
847.445	1737.33
847.625	1689.67
847.804	1683.28
847.984	1685.02
848.163	1698.97
848.343	1704.2
848.522	1733.65
848.701	1692.58
848.881	1654.41
849.06	1706.33
849.239	1706.72
849.419	1675.72
849.598	1630.19
849.777	1645.3
849.957	1617.4
850.136	1584.66
850.315	1509.87
850.494	1543.39
850.674	1541.65
850.853	1601.32
851.032	1569.16
851.211	1624.57
851.39	1569.55
851.569	1530.02
851.748	1513.17
851.927	1581.95
852.107	1597.06
852.286	1531.96
852.465	1525.95
852.644	1595.7
852.823	1574
853.002	1574
853.181	1541.84
853.359	1570.32
853.538	1519.75
853.717	1591.83
853.896	1463.18
854.075	1396.92
854.254	1353.91
854.433	1328.14
854.611	1365.72
854.79	1315.74
854.969	1376.38
855.148	1387.04
855.327	1347.9
855.505	1421.52
855.684	1380.26
855.863	1423.85
856.041	1393.62
856.22	1456.98
856.399	1417.07
856.577	1522.08
856.756	1500.38
856.934	1612.95
857.113	1633.48
857.291	1499.6
857.47	1464.54
857.648	1530.02
857.827	1508.13
858.005	1542.03
858.184	1471.51
858.362	1563.93
858.541	1494.18
858.719	1501.54
858.898	1479.84
859.076	1485.46
859.254	1547.85
859.433	1498.83
859.611	1481.78
859.789	1433.54
859.967	1535.06
860.146	1550.56
860.324	1428.3
860.502	1476.74
860.68	1430.44
860.859	1453.1
861.037	1455.82
861.215	1485.46
861.393	1402.54
861.571	1435.09
861.749	1416.87
861.927	1456.79
862.105	1423.46
862.283	1428.89
862.461	1394.21
862.639	1388.39
862.817	1442.06
862.995	1406.99
863.173	1386.84
863.351	1403.7
863.529	1435.28
863.707	1447.49
863.885	1439.15
864.063	1340.34
864.241	1389.56
864.418	1426.75
864.596	1376.96
864.774	1357.2
864.952	1364.95
865.129	1382.77
865.307	1345.38
865.485	1315.93
865.663	1377.74
865.84	1277.38
866.018	1293.26
866.196	1159.96
866.373	1211.7
866.551	1193.1
866.728	1132.07
866.906	1186.7
867.084	1202.2
867.261	1253.35
867.439	1243.66
867.616	1279.89
867.794	1229.52
867.971	1266.14
868.149	1244.63
868.326	1337.82
868.503	1293.07
868.681	1298.49
868.858	1280.67
869.035	1252.58
869.213	1294.62
869.39	1288.81
869.567	1324.65
869.745	1272.92
869.922	1254.32
870.099	1268.08
870.276	1287.26
870.454	1288.42
870.631	1275.83
870.808	1274.08
870.985	1305.08
871.162	1282.41
871.339	1290.94
871.517	1230.29
871.694	1210.53
871.871	1275.83
872.048	1238.24
872.225	1213.25
872.402	1257.03
872.579	1187.86
872.756	1234.56
872.933	1200.46
873.11	1250.64
873.287	1247.93
873.463	1198.33
873.64	1204.53
873.817	1214.99
873.994	1193.68
874.171	1170.04
874.348	1229.33
874.524	1189.03
874.701	1211.11
874.878	1118.5
875.055	1229.33
875.231	1171.4
875.408	1177.01
875.585	1151.25
875.762	1184.76
875.938	1134.2
876.115	1138.65
876.291	1170.23
876.468	1123.93
876.645	1151.05
876.821	1119.67
876.998	1135.55
877.174	1171.01
877.351	1148.92
877.527	1149.89
877.704	1154.54
877.88	1142.14
878.057	1108.82
878.233	1159.96
878.409	1087.5
878.586	1120.83
878.762	1142.91
878.938	1106.1
879.115	1059.41
879.291	1103
879.467	1083.05
879.644	1067.93
879.82	1088.86
879.996	1087.7
880.172	1042.75
880.349	1072.58
880.525	1135.55
880.701	1045.85
880.877	1049.14
881.053	1067.16
881.229	1055.15
881.405	1128.19
881.581	1038.87
881.757	1073.75
881.933	1086.73
882.109	1100.29
882.285	1087.5
882.461	1026.67
882.637	1062.7
882.813	1032.48
882.989	1066.38
883.165	1068.9
883.341	1064.45
883.517	1090.99
883.693	1033.06
883.869	1093.32
884.044	1032.48
884.22	1089.05
884.396	1130.71
884.572	1064.25
884.747	1116.37
884.923	1075.3
885.099	1081.69
885.275	1099.13
885.45	1056.5
885.626	1021.63
885.801	1026.67
885.977	1035
886.153	990.44
886.328	1073.94
886.504	1041
886.679	1072.78
886.855	1012.14
887.03	1088.28
887.206	1050.11
887.381	1068.71
887.557	1079.95
887.732	1064.06
887.908	1070.45
888.083	1084.98
888.258	1057.08
888.434	1029.77
888.609	1045.46
888.784	1117.73
888.96	1042.17
889.135	1007.49
889.31	1012.52
889.485	1040.62
889.661	1046.82
889.836	1101.26
890.011	1034.61
890.186	1044.49
890.361	1012.91
890.537	1060.96
890.712	1027.64
890.887	1054.95
891.062	1045.85
891.237	1095.25
891.412	1033.06
891.587	1065.03
891.762	1072.97
891.937	1104.17
892.112	978.62
892.287	1037.9
892.462	1011.55
892.637	988.5
892.812	964.28
892.987	984.82
893.161	944.71
893.336	950.72
893.511	964.86
893.686	958.86
893.861	937.35
894.035	952.66
894.21	968.15
894.385	886.39
894.56	925.34
894.734	857.14
894.909	852.68
895.084	859.46
895.258	849.78
895.433	859.08
895.608	791.26
895.782	780.03
895.957	787.19
896.131	766.85
896.306	722.48
896.48	731.2
896.655	727.91
896.829	663.97
897.004	665.91
897.178	674.82
897.353	671.92
897.527	728.49
897.701	684.32
897.876	650.6
898.05	737.6
898.224	716.09
898.399	724.61
898.573	694.39
898.747	591.12
898.921	627.16
899.096	520.21
899.27	549.08
899.444	551.21
899.618	579.5
899.792	610.69
899.967	617.47
900.141	647.89
900.315	570.39
900.489	588.99
900.663	612.82
900.837	574.27
901.011	547.34
901.185	623.87
901.359	603.72
901.533	623.87
901.707	615.15
901.881	609.14
902.055	534.94
902.229	585.31
902.403	630.84
902.576	562.64
902.75	586.28
902.924	714.93
903.098	635.49
903.272	716.67
903.446	738.76
903.619	694.97
903.793	756.97
903.967	740.89
904.14	757.75
904.314	786.23
904.488	787.78
904.661	791.07
904.835	754.84
905.009	819.55
905.182	827.88
905.356	787.78
905.529	776.93
905.703	761.23
905.876	742.05
906.05	697.68
906.223	688
906.397	622.7
906.57	645.57
906.744	618.63
906.917	606.24
907.09	595.58
907.264	575.04
907.437	556.05
907.61	531.06
907.784	571.94
907.957	562.45
908.13	542.1
908.304	570.59
908.477	532.61
908.65	532.61
908.823	503.55
908.996	575.24
909.17	511.3
909.343	531.45
909.516	520.21
909.689	516.72
909.862	500.26
910.035	502.77
910.208	451.62
910.381	509.17
910.554	595.39
910.727	493.67
910.9	504.71
911.073	521.57
911.246	559.15
911.419	572.33
911.592	534.94
911.765	494.44
911.938	513.43
912.11	528.93
912.283	522.92
912.456	544.04
912.629	527.96
912.802	477.97
912.974	462.86
913.147	440.77
913.32	376.06
913.493	401.64
913.665	415.78
913.838	445.42
914.01	442.32
914.183	462.09
914.356	449.69
914.528	508.78
914.701	523.89
914.873	504.91
915.046	417.91
915.218	394.86
915.391	359.59
915.563	355.91
915.736	424.5
915.908	433.61
916.081	426.63
916.253	433.8
916.425	416.56
916.598	458.99
916.77	435.16
916.942	419.85
917.115	352.43
917.287	424.5
917.459	401.44
917.632	360.95
917.804	341.19
917.976	403.77
918.148	434.19
918.32	450.66
918.493	473.91
918.665	490.57
918.837	466.16
919.009	480.69
919.181	473.32
919.353	466.74
919.525	461.12
919.697	471.77
919.869	463.44
920.041	535.71
920.213	561.29
920.385	517.69
920.557	492.51
920.729	499.09
920.901	493.09
921.073	473.52
921.244	444.07
921.416	515.17
921.588	493.09
921.76	447.36
921.932	535.71
922.103	484.76
922.275	483.79
922.447	469.26
922.619	459.76
922.79	453.76
922.962	446.78
923.134	492.12
923.305	410.74
923.477	420.63
923.648	420.43
923.82	426.24
923.991	395.44
924.163	375.29
924.335	427.41
924.506	374.32
924.677	421.98
924.849	391.56
925.02	424.89
925.192	434.96
925.363	409.58
925.535	404.54
925.706	401.25
925.877	415.78
926.049	395.44
926.22	413.07
926.391	428.96
926.562	415.01
926.734	384.2
926.905	413.84
927.076	351.65
927.247	341.77
927.419	332.28
927.59	326.08
927.761	350.88
927.932	293.33
928.103	325.3
928.274	262.33
928.445	273.57
928.616	303.41
928.787	288.68
928.958	316.58
929.129	294.88
929.3	273.96
929.471	226.49
929.642	217.58
929.813	130.97
929.984	239.47
930.155	148.99
930.326	219.32
930.496	153.45
930.667	117.22
930.838	168.95
931.009	105.4
931.18	150.35
931.35	153.25
931.521	161.97
931.692	109.27
931.863	47.08
932.033	113.92
932.204	93.97
932.374	92.61
932.545	82.73
932.716	126.9
932.886	120.7
933.057	52.51
933.227	68.97
933.398	169.34
933.568	63.36
933.739	4.65
933.909	59.48
934.08	109.08
934.25	-19.18
934.421	40.88
934.591	59.09
934.761	36.23
934.932	15.11
935.102	46.89
935.272	32.36
935.443	46.31
935.613	46.31
935.783	56.38
935.953	13.95
936.123	160.42
936.294	47.27
936.464	20.34
936.634	44.95
936.804	0.19
936.974	1.55
937.144	54.25
937.314	53.67
937.484	33.91
937.655	11.62
937.825	74.98
937.995	36.81
938.165	74.98
938.334	55.61
938.504	73.43
938.674	44.95
938.844	83.31
939.014	111.4
939.184	99.59
939.354	146.86
939.524	114.5
939.694	72.46
939.863	68.59
940.033	154.61
940.203	124.77
940.373	127.68
940.542	132.52
940.712	76.72
940.882	123.42
941.051	120.32
941.221	107.72
941.391	129.62
941.56	82.73
941.73	68.2
941.899	176.31
942.069	57.16
942.238	107.34
942.408	74.4
942.577	99.59
942.747	86.61
942.916	43.21
943.086	71.88
943.255	86.99
943.425	74.21
943.594	44.37
943.763	26.35
943.933	40.11
944.102	8.91
944.271	51.73
944.441	78.08
944.61	21.51
944.779	63.94
944.948	157.9
945.117	26.93
945.287	52.51
945.456	18.02
945.625	38.75
945.794	60.26
945.963	43.21
946.132	63.36
946.301	38.75
946.47	75.56
946.639	18.21
946.808	58.12
946.977	62.58
947.146	86.61
947.315	65.29
947.484	94.94
947.653	62.58
947.822	69.36
947.991	46.11
948.16	146.67
948.329	123.22
948.498	72.85
948.666	85.83
948.835	100.17
949.004	51.15
949.173	42.82
949.341	75.56
949.51	61.81
949.679	99
949.847	85.64
950.016	139.89
950.185	118.96
950.353	50.37
950.522	79.63
950.69	101.52
950.859	67.81
951.028	112.37
951.196	75.95
951.365	71.11
951.533	53.09
951.701	100.94
951.87	93.58
952.038	68.78
952.207	29.26
952.375	108.69
952.543	63.16
952.712	57.93
952.88	49.79
953.048	131.75
953.217	70.91
953.385	67.62
953.553	107.14
953.721	44.17
953.89	80.21
954.058	20.73
954.226	34.87
954.394	88.54
954.562	53.28
954.73	80.99
954.898	56.38
955.067	65.87
955.235	55.22
955.403	79.82
955.571	154.03
955.739	90.29
955.907	43.98
956.075	54.06
956.243	50.37
956.41	73.82
956.578	47.47
956.746	47.47
956.914	31.77
957.082	95.52
957.25	86.02
957.418	57.16
957.585	73.24
957.753	98.23
957.921	45.53
958.089	58.12
958.256	94.74
958.424	77.69
958.592	69.94
958.759	45.72
958.927	74.01
959.095	54.25
959.262	72.07
959.43	84.09
959.597	58.51
959.765	61.42
959.932	30.42
960.1	92.42
960.267	75.76
960.435	47.27
960.602	84.86
960.77	90.48
960.937	40.3
961.104	84.86
961.272	49.21
961.439	62
961.606	83.51
961.774	105.59
961.941	55.22
962.108	91.25
962.275	78.27
962.443	89.12
962.61	94.94
962.777	139.89
962.944	94.74
963.111	77.69
963.278	107.53
963.446	84.09
963.613	92.22
963.78	79.05
963.947	108.69
964.114	92.61
964.281	165.46
964.448	86.99
964.615	77.31
964.782	71.49
964.949	131.75
965.116	94.74
965.282	125.16
965.449	83.31
965.616	70.52
965.783	116.44
965.95	94.16
966.117	68.59
966.283	96.1
966.45	75.37
966.617	118.57
966.784	150.74
966.95	117.02
967.117	105.01
967.284	75.17
967.45	67.42
967.617	141.82
967.784	145.12
967.95	165.27
968.117	109.08
968.283	110.44
968.45	173.21
968.616	137.56
968.783	153.25
968.949	115.47
969.116	160.62
969.282	98.81
969.449	134.85
969.615	128.07
969.781	66.46
969.948	113.54
970.114	100.75
970.28	157.9
970.447	108.69
970.613	158.1
970.779	102.49
970.945	134.65
971.112	124.58
971.278	92.42
971.444	111.21
971.61	142.21
971.776	98.81
971.942	146.47
972.108	121.67
972.275	89.12
972.441	112.37
972.607	179.99
972.773	72.46
972.939	127.49
973.105	86.61
973.271	73.43
973.437	109.66
973.602	87.38
973.768	105.79
973.934	102.88
974.1	114.31
974.266	50.18
974.432	84.67
974.598	88.54
974.763	108.89
974.929	103.27
975.095	164.69
975.261	66.65
975.426	86.8
975.592	68.78
975.758	161.78
975.923	35.84
976.089	55.22
976.255	141.05
976.42	116.83
976.586	117.22
976.751	107.53
976.917	187.55
977.082	126.13
977.248	79.24
977.413	33.32
977.579	84.86
977.744	98.42
977.91	65.49
978.075	71.49
978.24	126.32
978.406	101.52
978.571	90.87
978.736	77.5
978.902	107.53
979.067	57.35
979.232	44.56
979.397	118.57
979.563	147.25
979.728	85.44
979.893	70.91
980.058	79.63
980.223	98.62
980.388	90.29
980.554	136.4
980.719	65.68
980.884	118.38
981.049	139.69
981.214	74.79
981.379	99.59
981.544	80.41
981.709	93.77
981.874	89.32
982.039	114.89
982.204	144.73
982.368	81.57
982.533	84.86
982.698	123.61
982.863	135.82
983.028	99.2
983.193	108.69
983.357	84.47
983.522	97.45
983.687	85.64
983.852	75.76
984.016	103.65
984.181	112.76
984.346	107.53
984.51	108.11
984.675	108.89
984.839	115.09
985.004	120.12
985.168	127.68
985.333	127.29
985.498	81.76
985.662	96.29
985.827	118.19
985.991	100.17
986.155	62.77
986.32	122.84
986.484	125.35
986.649	114.89
986.813	62.77
986.977	111.99
987.142	117.02
987.306	75.56
987.47	74.79
987.634	111.79
987.799	90.48
987.963	96.29
988.127	135.62
988.291	141.63
988.455	94.55
988.62	80.79
988.784	121.67
988.948	104.24
989.112	71.11
989.276	79.24
989.44	78.66
989.604	56.57
989.768	86.41
989.932	152.09
990.096	68.78
990.26	67.04
990.424	51.34
990.588	67.04
990.752	135.62
990.915	120.7
991.079	88.93
991.243	92.22
991.407	115.09
991.571	67.81
991.734	135.24
991.898	103.65
992.062	143.76
992.226	84.86
992.389	56.57
992.553	50.57
992.717	76.14
992.88	62.39
993.044	86.61
993.207	83.7
993.371	94.94
993.535	114.7
993.698	68.97
993.862	108.3
994.025	124.19
994.189	91.06
994.352	85.44
994.515	97.07
994.679	134.07
994.842	71.11
995.006	121.67
995.169	84.47
995.332	74.59
995.496	110.05
995.659	52.12
995.822	77.31
995.985	98.04
996.149	116.25
996.312	87.19
996.475	136.2
996.638	45.92
996.801	101.91
996.964	124.58
997.128	75.95
997.291	65.68
997.454	87.96
997.617	51.54
997.78	93.97
997.943	49.02
998.106	95.9
998.269	43.59
998.432	77.31
998.595	83.7
998.758	23.44
998.92	33.91
999.083	32.36
999.246	47.27
999.409	77.31
999.572	20.34
999.735	47.66
999.897	75.17
1000.06	49.99
1000.223	56.96
1000.386	81.57
1000.548	72.66
1000.711	89.12
1000.874	99.59
1001.036	40.3
1001.199	88.54
1001.361	47.86
1001.524	68.59
1001.687	86.41
1001.849	48.63
1002.012	71.11
1002.174	68.97
1002.337	67.62
1002.499	77.31
1002.661	98.81
1002.824	21.7
1002.986	22.28
1003.149	81.57
1003.311	57.54
1003.473	127.87
1003.636	42.24
1003.798	77.31
1003.96	49.99
1004.123	63.16
1004.285	56.77
1004.447	66.26
1004.609	63.55
1004.771	116.64
1004.933	12.79
1005.096	9.11
1005.258	36.81
1005.42	65.68
1005.582	89.9
1005.744	57.16
1005.906	28.87
1006.068	62.19
1006.23	14.53
1006.392	-1.55
1006.554	24.99
1006.716	95.32
1006.878	53.86
1007.04	22.47
1007.202	39.14
1007.363	61.81
1007.525	57.93
1007.687	54.83
1007.849	89.7
1008.011	9.49
1008.172	23.44
1008.334	48.44
1008.496	52.12
1008.658	9.69
1008.819	24.61
1008.981	13.17
1009.143	35.65
1009.304	33.71
1009.466	49.41
1009.627	91.45
1009.789	132.72
1009.95	67.04
1010.112	43.98
1010.273	34.49
1010.435	17.63
1010.596	31
1010.758	30.42
1010.919	59.67
1011.081	-8.52
1011.242	50.37
1011.403	73.43
1011.565	32.74
1011.726	66.07
1011.887	37.97
1012.049	36.23
1012.21	82.92
1012.371	82.15
1012.532	-27.9
1012.693	36.23
1012.855	33.32
1013.016	22.09
1013.177	73.04
1013.338	23.64
1013.499	117.8
1013.66	75.56
1013.821	79.82
1013.982	61.61
1014.143	30.22
1014.304	16.66
1014.465	48.82
1014.626	70.33
1014.787	42.24
1014.948	94.55
1015.109	-27.9
1015.27	94.55
1015.431	5.42
1015.592	2.91
1015.752	70.52
1015.913	56.38
1016.074	60.06
1016.235	48.05
1016.395	55.61
1016.556	22.67
1016.717	24.61
1016.877	92.42
1017.038	-2.91
1017.199	47.66
1017.359	49.02
1017.52	60.64
1017.681	28.48
1017.841	16.47
1018.002	16.47
1018.162	11.62
1018.323	66.84
1018.483	14.14
1018.644	13.56
1018.804	-14.92
1018.964	9.11
1019.125	24.41
1019.285	16.08
1019.446	29.45
1019.606	-2.32
1019.766	9.88
1019.926	61.81
1020.087	34.49
1020.247	-0.39
1020.407	52.51
1020.567	69.56
1020.728	30.61
1020.888	3.29
1021.048	23.44
1021.208	11.62
1021.368	20.73
1021.528	52.51
1021.688	68.59
1021.848	53.67
1022.008	17.24
1022.168	26.16
1022.328	48.24
1022.488	50.18
1022.648	6.39
1022.808	17.24
1022.968	34.87
1023.128	-4.07
1023.288	39.33
1023.448	29.06
1023.608	48.24
1023.767	42.24
1023.927	-9.88
1024.087	8.52
1024.247	-6.01
1024.406	7.94
1024.566	-6.78
1024.726	3.68
1024.885	46.31
1025.045	37.01
1025.205	30.81
1025.364	7.56
1025.524	30.42
1025.683	8.52
1025.843	25.77
1026.003	16.08
1026.162	43.59
1026.321	70.72
1026.481	34.1
1026.64	16.08
1026.8	27.32
1026.959	50.57
1027.119	28.09
1027.278	15.11
1027.437	1.94
1027.597	38.75
1027.756	13.95
1027.915	41.66
1028.074	35.65
1028.234	9.49
1028.393	24.99
1028.552	23.06
1028.711	-37.01
1028.87	40.11
1029.03	-5.23
1029.189	5.81
1029.348	-19.18
1029.507	14.14
1029.666	6.59
1029.825	-18.79
1029.984	4.65
1030.143	11.82
1030.302	-12.98
1030.461	-28.29
1030.62	39.72
1030.779	42.62
1030.938	4.26
1031.097	-14.72
1031.255	26.54
1031.414	91.84
1031.573	80.79
1031.732	-8.52
1031.891	23.06
1032.049	75.17
1032.208	34.68
1032.367	14.53
1032.525	-1.36
1032.684	-0.39
1032.843	14.53
1033.001	-9.11
1033.16	137.37
1033.319	58.32
1033.477	32.94
1033.636	13.17
1033.794	-44.37
1033.953	51.34
1034.111	61.42
1034.27	1.16
1034.428	33.13
1034.587	5.42
1034.745	21.31
1034.903	3.29
1035.062	31
1035.22	-24.8
1035.378	36.81
1035.537	-16.66
1035.695	46.89
1035.853	40.88
1036.011	44.95
1036.17	13.17
1036.328	-29.26
1036.486	16.47
1036.644	23.64
1036.802	-55.22
1036.96	-8.14
1037.119	-2.71
1037.277	14.14
1037.435	-39.91
1037.593	-8.14
1037.751	18.21
1037.909	47.08
1038.067	47.08
