Data from gum_young_FLMT105791__95__17-39-53-042.txt Node

Date: Mon Mar 20 17:39:53 GMT 2023
User: antho
Spectrometer: FLMT10579
Trigger mode: 0
Integration Time (sec): 1.000000E-1
Scans to average: 10
Electric dark correction enabled: true
Nonlinearity correction enabled: false
Boxcar width: 0
XAxis mode: Wavelengths
Number of Pixels in Spectrum: 3648
>>>>>Begin Spectral Data<<<<<
345.248	-130.96
345.464	-130.96
345.681	-130.96
345.898	-141.42
346.114	-142
346.331	-21.3
346.548	16.87
346.764	-17.42
346.981	-11.22
347.197	-22.65
347.414	38.57
347.631	-32.92
347.847	82.94
348.064	-2.89
348.28	28.5
348.497	-36.8
348.713	-21.68
348.93	14.93
349.146	4.28
349.363	16.68
349.579	20.17
349.796	-9.86
350.012	-18.2
350.229	53.3
350.445	-4.63
350.661	-16.06
350.878	10.87
351.094	32.57
351.311	23.85
351.527	31.21
351.743	3.5
351.96	10.48
352.176	37.8
352.392	15.52
352.609	3.7
352.825	-3.08
353.041	13.38
353.257	8.54
353.474	-6.38
353.69	6.6
353.906	20.94
354.122	-23.23
354.339	42.06
354.555	21.91
354.771	-14.71
354.987	45.55
355.203	50.2
355.42	-19.55
355.636	6.02
355.852	-25.95
356.068	13.58
356.284	-15.29
356.5	56.98
356.716	37.41
356.932	4.28
357.148	28.3
357.364	1.37
357.58	50.97
357.796	27.33
358.012	39.73
358.228	44.77
358.444	-64.89
358.66	69.77
358.876	35.47
359.092	5.25
359.308	30.43
359.524	8.93
359.74	-5.41
359.956	-12.77
360.172	12.61
360.388	26.75
360.604	-20.33
360.819	53.68
361.035	12.8
361.251	27.14
361.467	-11.03
361.683	47.48
361.898	10.87
362.114	24.82
362.33	24.62
362.546	52.91
362.762	10.48
362.977	9.7
363.193	-20.52
363.409	54.07
363.624	-20.91
363.84	-25.56
364.056	-11.41
364.271	9.51
364.487	17.26
364.703	-9.09
364.918	4.08
365.134	10.87
365.35	26.95
365.565	82.55
365.781	17.45
365.996	44.38
366.212	44.19
366.427	35.47
366.643	-13.93
366.858	-23.81
367.074	-31.76
367.289	52.13
367.505	65.5
367.72	-19.55
367.936	-14.9
368.151	66.86
368.367	34.89
368.582	37.99
368.798	22.88
369.013	64.92
369.228	15.32
369.444	13.97
369.659	70.15
369.874	26.17
370.09	57.75
370.305	-52.88
370.52	0.79
370.736	73.25
370.951	8.93
371.166	38.57
371.381	76.16
371.597	62.21
371.812	-4.83
372.027	-35.83
372.242	28.11
372.458	71.51
372.673	13.58
372.888	-0.57
373.103	19.97
373.318	80.81
373.533	40.9
373.749	28.11
373.964	-19.94
374.179	28.3
374.394	-34.66
374.609	41.48
374.824	-14.32
375.039	55.23
375.254	10.67
375.469	18.23
375.684	40.12
375.899	58.33
376.114	12.22
376.329	20.36
376.544	27.92
376.759	42.25
376.974	-0.76
377.189	7.77
377.404	10.67
377.619	53.1
377.834	-27.11
378.049	-20.71
378.264	-1.92
378.478	22.1
378.693	-17.03
378.908	35.86
379.123	7.38
379.338	51.75
379.553	6.99
379.767	49.23
379.982	16.1
380.197	31.79
380.412	10.87
380.626	27.53
380.841	75.38
381.056	26.37
381.271	77.32
381.485	-15.68
381.7	-19.55
381.915	27.14
382.129	5.63
382.344	20.55
382.559	20.94
382.773	46.13
382.988	-43
383.202	23.65
383.417	10.28
383.632	105.22
383.846	13.19
384.061	17.65
384.275	0.6
384.49	25.2
384.704	14.35
384.919	22.1
385.133	33.73
385.348	46.71
385.562	-2.89
385.777	28.3
385.991	45.93
386.206	13.19
386.42	-1.34
386.634	39.73
386.849	67.05
387.063	44
387.277	1.18
387.492	23.46
387.706	11.64
387.92	-6.18
388.135	42.83
388.349	12.22
388.563	19.78
388.778	32.18
388.992	64.34
389.206	36.05
389.42	100.96
389.635	31.21
389.849	12.42
390.063	51.36
390.277	38.96
390.491	81
390.706	56.59
390.92	66.86
391.134	47.1
391.348	41.48
391.562	-19.36
391.776	10.09
391.99	0.98
392.205	53.3
392.419	-1.34
392.633	29.08
392.847	47.29
393.061	-1.34
393.275	59.69
393.489	26.17
393.703	44
393.917	58.14
394.131	31.21
394.345	37.02
394.559	58.14
394.773	10.48
394.986	43.42
395.2	31.4
395.414	76.93
395.628	-3.47
395.842	39.73
396.056	3.5
396.27	-0.57
396.484	81.97
396.697	45.55
396.911	63.76
397.125	60.27
397.339	46.71
397.553	21.91
397.766	84.88
397.98	46.9
398.194	80.81
398.408	30.24
398.621	94.95
398.835	74.8
399.049	38.77
399.262	109.68
399.476	61.82
399.69	67.63
399.903	113.94
400.117	41.67
400.331	60.08
400.544	25.4
400.758	146.68
400.971	50.2
401.185	71.32
401.398	16.1
401.612	99.21
401.826	86.81
402.039	51.94
402.253	21.72
402.466	71.12
402.68	46.32
402.893	60.08
403.106	53.88
403.32	55.82
403.533	64.15
403.747	68.22
403.96	71.7
404.174	66.86
404.387	22.68
404.6	33.34
404.814	77.52
405.027	71.9
405.24	69.57
405.454	48.84
405.667	96.31
405.88	16.87
406.094	44.19
406.307	101.73
406.52	86.43
406.733	41.28
406.947	18.62
407.16	111.03
407.373	121.88
407.586	36.05
407.799	46.71
408.012	71.51
408.226	65.7
408.439	100.38
408.652	25.59
408.865	74.03
409.078	95.53
409.291	93.01
409.504	47.1
409.717	66.28
409.93	107.93
410.143	48.45
410.357	16.29
410.57	40.7
410.783	46.52
410.996	54.27
411.209	44.38
411.421	86.62
411.634	64.15
411.847	33.53
412.06	85.26
412.273	65.89
412.486	60.85
412.699	137.58
412.912	62.6
413.125	98.63
413.338	68.41
413.55	72.67
413.763	63.76
413.976	76.35
414.189	40.12
414.402	67.25
414.615	106.38
414.827	36.63
415.04	103.86
415.253	103.67
415.466	129.83
415.678	146.88
415.891	80.03
416.104	76.93
416.316	83.91
416.529	70.93
416.742	102.12
416.954	113.75
417.167	44
417.38	80.23
417.592	88.17
417.805	56.78
418.017	9.9
418.23	91.08
418.442	71.32
418.655	53.68
418.868	67.05
419.08	110.45
419.293	109.1
419.505	74.42
419.718	67.25
419.93	102.7
420.142	42.83
420.355	125.56
420.567	122.08
420.78	93.21
420.992	98.63
421.205	146.3
421.417	47.68
421.629	84.88
421.842	57.17
422.054	50.97
422.266	133.31
422.479	106.19
422.691	61.82
422.903	109.87
423.115	71.9
423.328	70.54
423.54	82.16
423.752	88.75
423.964	65.12
424.177	82.94
424.389	74.61
424.601	183.11
424.813	84.3
425.025	120.33
425.238	132.54
425.45	87.59
425.662	97.86
425.874	359.42
426.086	76.93
426.298	83.52
426.51	89.53
426.722	100.57
426.934	100.38
427.146	129.25
427.358	73.64
427.57	150.95
427.782	80.42
427.994	93.98
428.206	71.51
428.418	49.81
428.63	134.48
428.842	127.89
429.054	106.77
429.266	116.07
429.478	77.32
429.69	90.69
429.902	33.92
430.114	112.97
430.325	103.09
430.537	65.31
430.749	109.87
430.961	59.69
431.173	97.08
431.384	105.8
431.596	25.4
431.808	92.82
432.02	93.21
432.231	135.83
432.443	143
432.655	111.42
432.867	75.19
433.078	117.43
433.29	166.83
433.502	155.6
433.713	152.3
433.925	106
434.136	135.06
434.348	99.8
434.56	50.78
434.771	169.35
434.983	60.47
435.194	90.69
435.406	103.86
435.617	135.25
435.829	163.15
436.04	132.35
436.252	143.58
436.463	155.01
436.675	157.53
436.886	106.58
437.098	123.43
437.309	177.1
437.521	114.52
437.732	139.51
437.943	138.35
438.155	104.06
438.366	97.66
438.578	170.51
438.789	121.69
439	153.66
439.211	121.5
439.423	111.42
439.634	143.2
439.845	144.55
440.057	128.28
440.268	165.48
440.479	96.89
440.69	133.12
440.902	127.7
441.113	129.44
441.324	116.26
441.535	138.16
441.746	180.39
441.957	87.78
442.168	111.03
442.38	181.94
442.591	162.38
442.802	150.75
443.013	129.44
443.224	157.73
443.435	130.41
443.646	144.75
443.857	129.25
444.068	87.01
444.279	115.49
444.49	190.47
444.701	146.68
444.912	220.31
445.123	178.26
445.334	157.53
445.545	183.11
445.756	138.74
445.967	118.4
446.178	175.94
446.388	176.91
446.599	156.37
446.81	172.84
447.021	123.63
447.232	200.93
447.443	198.61
447.653	144.75
447.864	183.3
448.075	170.32
448.286	191.63
448.496	167.22
448.707	203.84
448.918	127.7
449.129	254.99
449.339	159.66
449.55	164.12
449.761	166.06
449.971	219.73
450.182	189.11
450.393	207.71
450.603	179.43
450.814	200.16
451.024	190.08
451.235	216.63
451.446	234.45
451.656	231.54
451.867	168.96
452.077	178.46
452.288	234.64
452.498	229.22
452.709	181.36
452.919	192.6
453.13	165.28
453.34	208.29
453.55	168.96
453.761	203.26
453.971	196.86
454.182	240.65
454.392	218.76
454.602	248.79
454.813	207.52
455.023	187.37
455.233	181.75
455.444	212.17
455.654	135.06
455.864	191.83
456.075	205.97
456.285	151.14
456.495	196.48
456.705	193.96
456.916	243.36
457.126	239.29
457.336	211.01
457.546	132.35
457.756	174.78
457.967	235.81
458.177	196.48
458.387	231.35
458.597	182.72
458.807	220.11
459.017	180.98
459.227	196.09
459.437	209.84
459.647	186.01
459.857	242.2
460.068	175.55
460.278	260.8
460.488	208.49
460.698	266.22
460.908	198.22
461.117	174.78
461.327	227.86
461.537	204.61
461.747	192.41
461.957	229.8
462.167	319.12
462.377	241.23
462.587	225.93
462.797	233.48
463.007	247.24
463.216	252.28
463.426	250.34
463.636	259.64
463.846	174.97
464.056	202.87
464.265	266.61
464.475	211.2
464.685	228.44
464.895	231.35
465.104	243.36
465.314	251.89
465.524	233.09
465.733	211.2
465.943	289.86
466.153	303.23
466.362	258.28
466.572	248.01
466.782	210.23
466.991	254.6
467.201	286.37
467.41	199.96
467.62	243.17
467.829	230.19
468.039	272.62
468.249	247.24
468.458	243.17
468.668	255.18
468.877	279.4
469.086	290.83
469.296	294.9
469.505	230.58
469.715	303.42
469.924	274.17
470.134	298.19
470.343	314.27
470.552	261.57
470.762	218.95
470.971	208.68
471.18	276.3
471.39	239.1
471.599	226.51
471.808	278.62
472.018	262.93
472.227	273.01
472.436	307.3
472.645	269.13
472.855	247.82
473.064	316.79
473.273	284.05
473.482	293.74
473.691	312.72
473.901	305.56
474.11	277.46
474.319	352.44
474.528	293.16
474.737	321.44
474.946	295.67
475.155	294.32
475.364	347.4
475.573	299.74
475.783	289.47
475.992	330.16
476.201	324.35
476.41	302.26
476.619	255.96
476.828	318.54
477.037	294.12
477.245	310.4
477.454	376.66
477.663	314.08
477.872	306.72
478.081	346.63
478.29	302.84
478.499	395.45
478.708	332.1
478.917	397.78
479.125	331.32
479.334	333.46
479.543	349.34
479.752	349.54
479.961	340.62
480.169	349.73
480.378	308.27
480.587	448.54
480.796	370.27
481.004	344.89
481.213	384.22
481.422	380.92
481.63	346.82
481.839	385.38
482.048	428.97
482.256	366
482.465	366
482.674	389.64
482.882	408.05
483.091	442.53
483.299	396.23
483.508	403.01
483.716	379.18
483.925	412.5
484.134	380.54
484.342	370.07
484.551	430.72
484.759	438.27
484.967	397
485.176	446.99
485.384	401.85
485.593	438.47
485.801	395.26
486.01	402.04
486.218	387.9
486.426	359.22
486.635	366.2
486.843	352.83
487.051	393.71
487.26	385.77
487.468	410.95
487.676	446.22
487.885	391
488.093	406.5
488.301	407.08
488.509	438.66
488.717	447.96
488.926	414.05
489.134	403.79
489.342	432.85
489.55	421.8
489.758	444.08
489.967	429.75
490.175	528.95
490.383	438.08
490.591	505.12
490.799	405.14
491.007	508.41
491.215	470.24
491.423	441.95
491.631	451.06
491.839	451.64
492.047	487.1
492.255	451.25
492.463	433.04
492.671	451.64
492.879	521.97
493.087	455.71
493.295	458.81
493.503	490.58
493.711	513.45
493.919	537.08
494.127	502.21
494.334	538.63
494.542	473.53
494.75	486.52
494.958	522.16
495.166	554.71
495.374	525.26
495.581	531.85
495.789	516.16
495.997	590.17
496.205	527.78
496.412	541.35
496.62	506.67
496.828	525.26
497.035	515.38
497.243	565.18
497.451	555.1
497.658	543.09
497.866	542.7
498.074	613.42
498.281	543.67
498.489	614.58
498.696	548.71
498.904	549.1
499.112	549.1
499.319	630.28
499.527	573.31
499.734	593.85
499.942	561.88
500.149	549.1
500.357	601.99
500.564	549.29
500.771	572.54
500.979	560.72
501.186	601.99
501.394	598.5
501.601	556.46
501.808	590.56
502.016	577.38
502.223	585.71
502.43	583.58
502.638	596.95
502.845	569.05
503.052	642.68
503.26	597.53
503.467	670.38
503.674	612.64
503.881	647.33
504.089	682.2
504.296	641.13
504.503	596.18
504.71	637.64
504.917	594.05
505.125	633.38
505.332	611.68
505.539	674.06
505.746	717.66
505.953	710.68
506.16	690.92
506.367	734.51
506.574	748.85
506.781	731.02
506.988	663.79
507.195	682.59
507.402	714.94
507.609	767.45
507.816	673.68
508.023	715.52
508.23	682.98
508.437	693.82
508.644	741.1
508.851	781.01
509.058	739.36
509.265	747.11
509.472	778.3
509.679	865.29
509.885	752.53
510.092	789.15
510.299	763.96
510.506	772.87
510.713	825.96
510.92	789.92
511.126	829.06
511.333	849.99
511.54	833.32
511.746	883.12
511.953	865.87
512.16	868.97
512.367	844.75
512.573	872.07
512.78	852.5
512.987	837.78
513.193	855.6
513.4	796.7
513.606	868.58
513.813	880.98
514.02	852.5
514.226	935.82
514.433	948.22
514.639	889.32
514.846	914.31
515.052	888.73
515.259	916.44
515.465	912.95
515.672	957.13
515.878	983.48
516.085	925.35
516.291	957.71
516.497	945.12
516.704	936.98
516.91	889.7
517.117	883.5
517.323	859.29
517.529	897.45
517.736	901.52
517.942	920.7
518.148	923.61
518.354	973.21
518.561	931.94
518.767	984.83
518.973	1005.37
519.179	1013.31
519.386	980.96
519.592	993.75
519.798	998.2
520.004	1089.84
520.21	1059.23
520.417	1112.13
520.623	1121.43
520.829	1132.86
521.035	1126.85
521.241	1159.79
521.447	1159.98
521.653	1277.2
521.859	1118.52
522.065	1164.82
522.271	1261.12
522.477	1252.2
522.683	1238.64
522.889	1231.47
523.095	1236.51
523.301	1211.71
523.507	1200.47
523.713	1231.47
523.919	1218.3
524.125	1320.98
524.331	1268.67
524.537	1363.22
524.742	1336.1
524.948	1383.76
525.154	1347.92
525.36	1429.87
525.566	1357.02
525.772	1424.83
525.977	1328.35
526.183	1407.78
526.389	1392.86
526.595	1367.68
526.8	1366.52
527.006	1295.8
527.212	1254.53
527.417	1269.25
527.623	1266.93
527.829	1321.18
528.034	1362.06
528.24	1355.47
528.446	1399.65
528.651	1460.48
528.857	1460.87
529.062	1505.82
529.268	1482.96
529.473	1517.83
529.679	1481.99
529.884	1575.18
530.09	1509.69
530.295	1576.15
530.501	1548.44
530.706	1555.81
530.912	1531.59
531.117	1564.14
531.323	1587.77
531.528	1619.55
531.733	1559.29
531.939	1556.58
532.144	1622.26
532.35	1580.61
532.555	1629.24
532.76	1602.5
532.966	1584.29
533.171	1567.82
533.376	1532.94
533.581	1515.12
533.787	1560.46
533.992	1616.26
534.197	1613.35
534.402	1617.81
534.607	1622.46
534.813	1671.67
535.018	1608.12
535.223	1647.64
535.428	1655
535.633	1686.59
535.838	1745.87
536.043	1713.9
536.249	1804.77
536.454	1739.29
536.659	1748.39
536.864	1710.42
537.069	1690.46
537.274	1720.88
537.479	1704.41
537.684	1706.35
537.889	1678.45
538.094	1771.83
538.299	1700.34
538.504	1739.09
538.708	1717.59
538.913	1763.5
539.118	1727.08
539.323	1723.79
539.528	1696.08
539.733	1741.03
539.938	1751.49
540.142	1752.07
540.347	1698.99
540.552	1690.65
540.757	1708.09
540.962	1701.89
541.166	1686.78
541.371	1685.42
541.576	1691.04
541.781	1627.11
541.985	1747.42
542.19	1732.89
542.395	1785.4
542.599	1848.36
542.804	1733.47
543.008	1820.66
543.213	1772.8
543.418	1705.77
543.622	1788.69
543.827	1726.69
544.031	1811.94
544.236	1839.06
544.44	1792.76
544.645	1833.45
544.849	1793.53
545.054	1842.94
545.258	1874.91
545.463	1874.52
545.667	1804.19
545.872	1832.28
546.076	1843.71
546.281	1857.66
546.485	1848.75
546.689	1847.2
546.894	1846.62
547.098	1835
547.302	1806.32
547.507	1831.7
547.711	1862.7
547.915	1890.8
548.119	1823.37
548.324	1817.75
548.528	1894.09
548.732	1837.9
548.936	1887.31
549.141	1851.27
549.345	1847.4
549.549	1872.97
549.753	1859.99
549.957	1938.65
550.161	1968.1
550.366	1876.26
550.57	1869.48
550.774	1899.51
550.978	1894.28
551.182	1894.86
551.386	1870.65
551.59	1864.45
551.794	1864.83
551.998	1918.69
552.202	1874.91
552.406	1835.19
552.61	1891.96
552.814	1937.88
553.018	1971.39
553.222	1857.08
553.426	1862.9
553.63	1962.48
553.833	1884.21
554.037	1832.86
554.241	1896.61
554.445	1907.85
554.649	1871.81
554.853	1890.21
555.056	1929.16
555.26	1937.49
555.464	1921.02
555.668	1901.26
555.871	1916.37
556.075	1918.5
556.279	1862.9
556.483	1860.76
556.686	1893.7
556.89	1862.51
557.094	1874.71
557.297	1786.95
557.501	1885.37
557.704	1801.09
557.908	1884.98
558.112	1825.89
558.315	1944.46
558.519	1837.32
558.722	1839.06
558.926	1792.57
559.129	1736.96
559.333	1757.11
559.536	1783.65
559.74	1733.86
559.943	1738.51
560.147	1737.93
560.35	1754.01
560.553	1764.47
560.757	1735.22
560.96	1847.4
561.164	1777.45
561.367	1834.8
561.57	1789.08
561.774	1780.36
561.977	1739.48
562.18	1737.15
562.384	1811.94
562.587	1777.65
562.79	1739.48
562.993	1735.22
563.197	1757.3
563.4	1800.32
563.603	1783.65
563.806	1832.28
564.009	1706.15
564.212	1757.3
564.416	1658.49
564.619	1737.93
564.822	1662.75
565.025	1780.17
565.228	1708.48
565.431	1703.05
565.634	1635.82
565.837	1657.72
566.04	1620.71
566.243	1645.51
566.446	1562.78
566.649	1621.29
566.852	1610.25
567.055	1583.9
567.258	1617.81
567.461	1671.28
567.664	1674.57
567.867	1569.76
568.07	1618.19
568.273	1631.56
568.475	1667.79
568.678	1546.89
568.881	1553.68
569.084	1547.28
569.287	1469.01
569.489	1506.21
569.692	1529.07
569.895	1553.87
570.098	1489.35
570.3	1507.76
570.503	1432
570.706	1438.01
570.909	1461.65
571.111	1433.55
571.314	1403.91
571.516	1413.01
571.719	1478.31
571.922	1399.45
572.124	1421.73
572.327	1418.25
572.529	1367.87
572.732	1414.76
572.935	1464.75
573.137	1461.26
573.34	1362.45
573.542	1461.65
573.745	1443.43
573.947	1420.38
574.15	1393.45
574.352	1373.68
574.554	1469.59
574.757	1381.43
574.959	1356.05
575.162	1361.87
575.364	1318.66
575.566	1450.8
575.769	1311.68
575.971	1349.47
576.173	1229.73
576.376	1328.54
576.578	1360.32
576.78	1366.32
576.982	1248.33
577.185	1305.87
577.387	1291.54
577.589	1305.48
577.791	1296.57
577.993	1325.25
578.196	1294.64
578.398	1329.7
578.6	1294.64
578.802	1238.45
579.004	1270.61
579.206	1251.24
579.408	1268.48
579.61	1223.72
579.812	1291.92
580.014	1230.12
580.216	1266.93
580.418	1275.84
580.62	1266.54
580.822	1211.13
581.024	1278.36
581.226	1294.83
581.428	1256.66
581.63	1296.38
581.832	1241.94
582.034	1296.38
582.236	1279.14
582.438	1284.56
582.64	1319.43
582.841	1326.22
583.043	1335.32
583.245	1306.26
583.447	1316.92
583.649	1260.54
583.85	1312.65
584.052	1325.63
584.254	1231.09
584.456	1287.66
584.657	1264.22
584.859	1230.5
585.061	1275.26
585.262	1240.77
585.464	1211.91
585.666	1313.62
585.867	1199.89
586.069	1264.6
586.27	1254.14
586.472	1235.54
586.674	1223.14
586.875	1216.75
587.077	1232.83
587.278	1218.1
587.48	1221.01
587.681	1337.26
587.883	1193.5
588.084	1173.35
588.285	1191.37
588.487	1160.37
588.688	1199.7
588.89	1128.59
589.091	1099.53
589.292	1099.92
589.494	1087.33
589.695	1043.73
589.896	978.44
590.098	996.65
590.299	1047.99
590.5	994.71
590.702	1053.03
590.903	1084.23
591.104	1099.34
591.305	1102.24
591.507	1137.31
591.708	1133.44
591.909	1112.13
592.11	1156.11
592.311	1134.79
592.512	1076.09
592.714	1054.58
592.915	1076.67
593.116	1092.75
593.317	1119.1
593.518	1085
593.719	1072.02
593.92	1125.88
594.121	1131.89
594.322	1109.99
594.523	1071.05
594.724	1039.28
594.925	1105.54
595.126	1090.62
595.327	1083.26
595.528	1096.24
595.729	1094.3
595.929	1081.13
596.13	1091.59
596.331	1062.33
596.532	1116.58
596.733	1149.52
596.934	1136.54
597.135	1131.11
597.335	1122.2
597.536	1059.43
597.737	1105.73
597.938	1096.43
598.138	1097.59
598.339	1095.27
598.54	1091.59
598.74	1081.9
598.941	1085.58
599.142	1160.56
599.342	1095.27
599.543	1066.21
599.744	1103.79
599.944	1082.29
600.145	1073.96
600.345	1081.32
600.546	1177.22
600.746	1124.72
600.947	1164.63
601.147	1074.73
601.348	1091.01
601.548	1062.72
601.749	1111.93
601.949	1004.4
602.15	1090.23
602.35	1060.78
602.551	1118.91
602.751	1031.53
602.951	1053.03
603.152	1009.25
603.352	1090.04
603.552	1065.24
603.753	1111.54
603.953	1086.55
604.153	1085.58
604.354	1078.22
604.554	1087.33
604.754	1085.78
604.954	1039.28
605.155	1061.75
605.355	1066.4
605.555	1110.38
605.755	1130.34
605.955	1057.1
606.155	1109.03
606.356	1096.43
606.556	1052.06
606.756	1074.54
606.956	1021.65
607.156	1128.59
607.356	1005.56
607.556	1076.86
607.756	1079.58
607.956	1101.86
608.156	1061.75
608.356	1021.45
608.556	1078.61
608.756	1067.56
608.956	1000.91
609.156	1052.26
609.356	1009.63
609.556	995.49
609.755	1035.01
609.955	1008.47
610.155	1035.79
610.355	1019.13
610.555	998.78
610.755	1018.55
610.954	978.05
611.154	1028.43
611.354	1017.58
611.554	992.58
611.753	971.85
611.953	932.13
612.153	1007.31
612.352	1005.76
612.552	944.73
612.752	927.29
612.951	970.3
613.151	1016.8
613.351	977.66
613.55	971.46
613.75	959.26
613.949	957.13
614.149	980.96
614.348	983.09
614.548	900.17
614.747	909.85
614.947	943.18
615.146	881.37
615.346	979.21
615.545	955.77
615.745	973.98
615.944	956.55
616.144	921.87
616.343	949.18
616.542	900.55
616.742	923.61
616.941	905.01
617.14	848.05
617.34	915.86
617.539	909.85
617.738	865.68
617.938	962.16
618.137	891.83
618.336	862.58
618.535	929.81
618.734	918.18
618.934	914.89
619.133	887.96
619.332	911.4
619.531	861.22
619.73	862.58
619.929	914.7
620.128	926.13
620.328	955.38
620.527	867.42
620.726	864.52
620.925	924.38
621.124	889.12
621.323	871.49
621.522	831.77
621.721	853.28
621.92	860.45
622.119	916.25
622.318	828.29
622.517	873.62
622.715	843.98
622.914	816.27
623.113	837.78
623.312	792.44
623.511	861.03
623.71	837.97
623.909	841.46
624.107	902.68
624.306	810.07
624.505	810.46
624.704	819.37
624.902	802.9
625.101	862.19
625.3	817.63
625.499	781.98
625.697	797.48
625.896	778.88
626.095	822.47
626.293	738.39
626.492	781.59
626.69	812.79
626.889	774.62
627.088	842.62
627.286	771.52
627.485	774.42
627.683	762.61
627.882	805.04
628.08	693.82
628.279	771.32
628.477	808.14
628.676	733.16
628.874	761.83
629.073	706.42
629.271	740.32
629.469	802.32
629.668	748.07
629.866	741.29
630.065	728.12
630.263	767.26
630.461	730.25
630.66	771.32
630.858	771.91
631.056	824.99
631.254	781.79
631.453	733.74
631.651	787.99
631.849	743.04
632.047	772.87
632.245	745.36
632.444	755.24
632.642	747.69
632.84	782.75
633.038	777.52
633.236	739.16
633.434	742.65
633.632	727.54
633.83	724.05
634.028	779.46
634.227	756.99
634.425	817.44
634.623	789.15
634.821	777.14
635.019	768.22
635.216	755.63
635.414	773.65
635.612	763.77
635.81	770.94
636.008	825.57
636.206	750.98
636.404	802.9
636.602	754.08
636.8	761.25
636.997	772.68
637.195	799.61
637.393	777.91
637.591	798.25
637.789	779.85
637.986	759.51
638.184	769.58
638.382	798.64
638.58	763.77
638.777	828.48
638.975	753.31
639.173	760.67
639.37	752.53
639.568	750.79
639.765	769.19
639.963	724.05
640.161	790.7
640.358	740.91
640.556	709.52
640.753	668.25
640.951	686.85
641.148	727.15
641.346	707.58
641.543	702.35
641.741	711.07
641.938	684.72
642.136	714.17
642.333	685.69
642.531	698.28
642.728	752.34
642.925	690.53
643.123	675.81
643.32	686.27
643.517	673.48
643.715	685.49
643.912	677.55
644.109	721.92
644.306	675.61
644.504	621.56
644.701	679.29
644.898	676.39
645.095	651.78
645.293	659.73
645.49	681.04
645.687	664.76
645.884	694.41
646.081	596.56
646.278	611.87
646.475	619.81
646.672	619.04
646.87	651.01
647.067	631.44
647.264	615.94
647.461	581.26
647.658	567.11
647.855	618.84
648.052	587.46
648.249	535.34
648.446	573.51
648.642	575.64
648.839	576.8
649.036	557.62
649.233	544.06
649.43	516.93
649.627	530.3
649.824	559.56
650.021	520.61
650.217	541.54
650.414	538.25
650.611	554.33
650.808	567.89
651.004	555.68
651.201	568.08
651.398	613.42
651.595	570.8
651.791	573.12
651.988	576.22
652.185	533.79
652.381	585.52
652.578	512.67
652.775	534.37
652.971	527.98
653.168	542.9
653.364	599.08
653.561	508.99
653.757	545.03
653.954	548.51
654.15	538.63
654.347	589.2
654.543	532.05
654.74	489.81
654.936	507.25
655.133	538.25
655.329	544.45
655.525	489.62
655.722	552.78
655.918	502.98
656.115	529.72
656.311	443.31
656.507	432.65
656.704	432.46
656.9	467.72
657.096	472.57
657.292	441.95
657.489	504.92
657.685	485.55
657.881	486.32
658.077	502.02
658.273	488.45
658.47	553.94
658.666	501.82
658.862	512.87
659.058	469.27
659.254	549.29
659.45	451.06
659.646	512.28
659.842	492.33
660.038	546.96
660.234	463.85
660.43	492.33
660.626	560.53
660.822	553.94
661.018	512.67
661.214	527.4
661.41	465.01
661.606	521.39
661.802	564.21
661.998	459
662.194	438.47
662.39	481.09
662.586	501.24
662.781	508.6
662.977	519.45
663.173	495.62
663.369	481.09
663.564	475.67
663.76	503.95
663.956	485.93
664.152	520.81
664.347	417.93
664.543	467.72
664.739	442.92
664.934	415.8
665.13	423.35
665.326	477.22
665.521	480.7
665.717	438.85
665.912	429.17
666.108	372.79
666.304	431.88
666.499	418.9
666.695	398.17
666.89	426.26
667.086	482.83
667.281	437.5
667.477	503.18
667.672	447.96
667.867	444.86
668.063	463.65
668.258	398.94
668.454	445.44
668.649	498.33
668.844	459.2
669.04	444.08
669.235	414.83
669.43	388.09
669.626	389.25
669.821	422.97
670.016	380.92
670.211	424.71
670.407	396.62
670.602	390.22
670.797	424.52
670.992	445.05
671.187	390.8
671.382	445.63
671.578	398.55
671.773	422.58
671.968	383.64
672.163	404.56
672.358	417.74
672.553	399.72
672.748	384.99
672.943	474.5
673.138	422.58
673.333	458.23
673.528	383.05
673.723	400.1
673.918	426.07
674.113	366.59
674.308	473.34
674.503	423.74
674.698	420.84
674.892	432.07
675.087	438.08
675.282	412.31
675.477	397
675.672	417.93
675.867	399.14
676.061	366.97
676.256	369.69
676.451	403.2
676.646	435.37
676.84	380.73
677.035	335.78
677.23	388.09
677.424	440.6
677.619	435.17
677.814	446.02
678.008	423.94
678.203	369.3
678.397	400.49
678.592	411.54
678.787	460.36
678.981	407.66
679.176	443.12
679.37	434.01
679.565	368.52
679.759	384.6
679.954	401.85
680.148	439.82
680.342	451.64
680.537	407.08
680.731	379.95
680.926	422.97
681.12	454.35
681.314	397.97
681.509	408.44
681.703	427.62
681.897	443.12
682.092	405.53
682.286	399.52
682.48	453.38
682.674	416.77
682.869	406.5
683.063	415.41
683.257	473.73
683.451	405.14
683.645	425.49
683.839	418.51
684.034	407.66
684.228	472.76
684.422	380.54
684.616	384.8
684.81	425.29
685.004	420.64
685.198	438.66
685.392	437.5
685.586	378.79
685.78	449.32
685.974	437.88
686.168	437.69
686.362	488.45
686.556	390.8
686.75	362.52
686.944	411.92
687.138	436.72
687.331	329
687.525	359.61
687.719	310.21
687.913	362.32
688.107	360.97
688.301	330.74
688.494	421.22
688.688	347.99
688.882	341.79
689.076	345.47
689.269	352.44
689.463	425.87
689.657	401.27
689.85	377.44
690.044	412.5
690.238	389.06
690.431	414.25
690.625	401.46
690.818	429.17
691.012	461.13
691.205	489.23
691.399	454.74
691.593	513.25
691.786	552.97
691.98	541.54
692.173	591.33
692.366	561.69
692.56	551.42
692.753	603.73
692.947	527.98
693.14	620.59
693.333	625.24
693.527	536.5
693.72	625.43
693.914	572.35
694.107	612.45
694.3	612.06
694.493	634.15
694.687	654.88
694.88	624.08
695.073	696.92
695.266	702.16
695.46	698.09
695.653	756.79
695.846	761.64
696.039	648.1
696.232	704.09
696.425	770.55
696.618	792.25
696.812	806.2
697.005	840.1
697.198	913.34
697.391	859.67
697.584	892.22
697.777	961
697.97	929.81
698.163	939.5
698.356	964.49
698.549	1009.25
698.742	983.67
698.935	946.86
699.127	1009.44
699.32	969.91
699.513	977.66
699.706	1015.25
699.899	1018.16
700.092	999.56
700.285	1063.69
700.477	1007.89
700.67	1056.71
700.863	1071.44
701.056	1149.91
701.248	1153.01
701.441	1133.24
701.634	1086.55
701.826	1189.82
702.019	1112.51
702.212	1149.32
702.404	1117.94
702.597	1131.11
702.79	1148.94
702.982	1171.8
703.175	1250.27
703.367	1293.28
703.56	1254.92
703.752	1384.73
703.945	1304.32
704.137	1325.83
704.33	1322.34
704.522	1379.88
704.715	1365.35
704.907	1382.79
705.1	1440.33
705.292	1446.34
705.484	1413.01
705.677	1479.66
705.869	1449.05
706.061	1473.27
706.254	1538.18
706.446	1473.27
706.638	1465.33
706.831	1567.82
707.023	1523.64
707.215	1615.48
707.407	1652.1
707.599	1602.5
707.792	1670.7
707.984	1673.22
708.176	1673.41
708.368	1609.28
708.56	1672.83
708.752	1697.63
708.944	1667.02
709.136	1725.14
709.329	1721.65
709.521	1782.88
709.713	1751.49
709.905	1773
710.097	1825.5
710.289	1807.1
710.481	1787.53
710.672	1853.21
710.864	1827.25
711.056	1904.36
711.248	1878.59
711.44	1886.15
711.632	1879.56
711.824	1919.08
712.016	1978.76
712.207	1968.68
712.399	1965
712.591	2034.56
712.783	2012.27
712.975	2030.68
713.166	1991.35
713.358	1994.45
713.55	2033.59
713.741	2053.74
713.933	2069.62
714.125	2046.57
714.316	2017.7
714.508	2104.3
714.7	2138.4
714.891	2089.19
715.083	2163.79
715.274	2098.88
715.466	2126.78
715.657	2137.44
715.849	2026.61
716.04	2109.34
716.232	2017.7
716.423	2092.1
716.615	2027.19
716.806	1980.89
716.998	1930.71
717.189	1842.36
717.381	1792.37
717.572	1739.48
717.763	1798.18
717.955	1732.89
718.146	1723.59
718.337	1676.12
718.528	1639.89
718.72	1605.6
718.911	1639.12
719.102	1585.84
719.293	1656.75
719.485	1582.16
719.676	1599.21
719.867	1534.49
720.058	1556.39
720.249	1543.79
720.44	1609.28
720.632	1613.16
720.823	1658.88
721.014	1778.23
721.205	1808.26
721.396	1896.8
721.587	2019.06
721.778	2022.16
721.969	2069.62
722.16	2095
722.351	2103.34
722.542	2220.75
722.733	2285.46
722.924	2175.6
723.115	2189.55
723.305	2186.07
723.496	2183.16
723.687	2074.27
723.878	2094.23
724.069	2068.27
724.26	2063.23
724.45	1993.29
724.641	2023.9
724.832	2026.81
725.023	2034.75
725.213	2027
725.404	1986.12
725.595	2038.24
725.785	1999.29
725.976	2068.85
726.167	2047.54
726.357	2057.61
726.548	2111.67
726.739	2076.6
726.929	2152.35
727.12	2144.99
727.31	2169.79
727.501	2083.38
727.691	2129.88
727.882	2135.3
728.072	2163.01
728.263	2178.7
728.453	2239.93
728.644	2267.83
728.834	2237.99
729.024	2193.62
729.215	2144.41
729.405	2211.45
729.596	2253.68
729.786	2254.85
729.976	2336.8
730.167	2320.91
730.357	2238.96
730.547	2298.44
730.737	2322.46
730.928	2340.1
731.118	2384.08
731.308	2329.25
731.498	2430.58
731.688	2437.74
731.879	2504.01
732.069	2491.99
732.259	2523.96
732.449	2522.99
732.639	2645.44
732.829	2675.08
733.019	2689.62
733.209	2753.36
733.399	2765.37
733.589	2810.71
733.779	2850.81
733.969	2877.16
734.159	2893.24
734.349	2954.86
734.539	2989.92
734.729	3017.44
734.919	3024.41
735.109	3060.45
735.299	3027.9
735.488	3066.84
735.678	3066.07
735.868	3057.54
736.058	3019.37
736.248	3024.22
736.437	3030.8
736.627	2977.52
736.817	3103.85
737.007	3021.31
737.196	3113.53
737.386	3093.19
737.576	3070.91
737.765	3120.32
737.955	3082.73
738.144	3223.39
738.334	3168.95
738.524	3124.19
738.713	3152.28
738.903	3175.73
739.092	3188.51
739.282	3181.73
739.471	3210.02
739.661	3203.63
739.85	3221.84
740.04	3238.5
740.229	3320.65
740.419	3333.63
740.608	3321.23
740.797	3249.93
740.987	3370.25
741.176	3331.89
741.365	3297.59
741.555	3248.19
741.744	3345.64
741.933	3340.02
742.123	3327.04
742.312	3390.79
742.501	3434.19
742.69	3393.31
742.88	3332.27
743.069	3464.41
743.258	3376.64
743.447	3416.94
743.636	3440
743.825	3428.57
744.014	3424.11
744.204	3476.42
744.393	3405.32
744.582	3476.81
744.771	3499.67
744.96	3492.31
745.149	3456.66
745.338	3452.79
745.527	3519.63
745.716	3458.79
745.905	3476.04
746.094	3509.36
746.283	3526.02
746.471	3511.3
746.66	3551.79
746.849	3505.68
747.038	3530.09
747.227	3494.05
747.416	3508.39
747.604	3508.2
747.793	3503.74
747.982	3547.53
748.171	3496.57
748.359	3532.03
748.548	3561.87
748.737	3529.7
748.926	3505.29
749.114	3351.26
749.303	3480.88
749.491	3503.74
749.68	3438.45
749.869	3491.92
750.057	3458.79
750.246	3440
750.434	3478.75
750.623	3437.87
750.811	3416.36
751	3457.05
751.188	3417.52
751.377	3445.23
751.565	3468.87
751.754	3410.55
751.942	3408.8
752.131	3487.08
752.319	3414.23
752.507	3366.96
752.696	3446.39
752.884	3471.77
753.072	3420.04
753.261	3440.77
753.449	3445.23
753.637	3421.2
753.825	3483.2
754.014	3433.8
754.202	3398.34
754.39	3460.73
754.578	3434.38
754.766	3368.51
754.955	3380.91
755.143	3467.7
755.331	3384.59
755.519	3417.91
755.707	3392.72
755.895	3412.68
756.083	3340.61
756.271	3362.69
756.459	3344.29
756.647	3384.39
756.835	3361.53
757.023	3326.07
757.211	3358.82
757.399	3295.46
757.587	3298.56
757.775	3252.64
757.963	3312.13
758.151	3322.59
758.339	3271.63
758.526	3254.97
758.714	3273.76
758.902	3144.15
759.09	3084.47
759.278	2886.85
759.465	2647.57
759.653	2291.46
759.841	2092.29
760.028	1814.46
760.216	1561.81
760.404	1453.7
760.591	1220.04
760.779	997.81
760.967	864.9
761.154	726.18
761.342	714.56
761.529	695.37
761.717	747.49
761.905	738.58
762.092	823.05
762.28	755.63
762.467	756.79
762.655	684.14
762.842	695.18
763.029	731.99
763.217	720.76
763.404	720.56
763.592	734.12
763.779	687.63
763.966	738
764.154	751.76
764.341	823.83
764.528	834.68
764.716	895.52
764.903	929.81
765.09	1018.55
765.277	1072.02
765.465	1202.02
765.652	1251.82
765.839	1330.28
766.026	1460.48
766.213	1547.48
766.4	1625.94
766.588	1808.07
766.775	1835
766.962	1920.44
767.149	2022.74
767.336	2151.97
767.523	2126.78
767.71	2282.55
767.897	2389.11
768.084	2433.48
768.271	2494.51
768.458	2562.71
768.645	2620.45
768.832	2566.78
769.019	2646.8
769.206	2690.58
769.392	2786.68
769.579	2888.21
769.766	2813.23
769.953	2787.07
770.14	2847.33
770.327	2895.37
770.513	2918.62
770.7	2936.06
770.887	2878.32
771.073	2947.3
771.26	2932.96
771.447	2888.4
771.634	2878.13
771.82	3008.72
772.007	2941.87
772.193	2956.02
772.38	2969.77
772.567	2943.42
772.753	2942.07
772.94	2995.93
773.126	2982.17
773.313	2980.62
773.499	2945.17
773.686	3035.65
773.872	2947.49
774.059	2978.3
774.245	2923.47
774.432	2938
774.618	2892.47
774.804	2908.94
774.991	2878.32
775.177	2923.27
775.363	2936.06
775.55	2934.12
775.736	2846.74
775.922	2899.06
776.109	2913.2
776.295	2930.64
776.481	2945.17
776.667	2933.35
776.853	2889.95
777.04	2846.74
777.226	2865.93
777.412	2910.68
777.598	2830.66
777.784	2862.05
777.97	2858.76
778.156	2846.36
778.342	2859.92
778.528	2805.67
778.715	2788.23
778.901	2808.77
779.087	2817.1
779.272	2782.81
779.458	2768.66
779.644	2798.89
779.83	2779.71
780.016	2842.48
780.202	2764.79
780.388	2759.95
780.574	2702.79
780.76	2739.99
780.946	2806.25
781.131	2782.23
781.317	2752.39
781.503	2747.55
781.689	2743.28
781.874	2832.21
782.06	2732.24
782.246	2759.95
782.432	2723.91
782.617	2722.55
782.803	2760.14
782.989	2647.38
783.174	2699.5
783.36	2653.19
783.545	2687.87
783.731	2659.39
783.916	2606.69
784.102	2676.63
784.288	2586.93
784.473	2635.37
784.659	2585.96
784.844	2657.84
785.029	2594.1
785.215	2572.2
785.4	2539.65
785.586	2677.8
785.771	2546.05
785.956	2608.24
786.142	2593.32
786.327	2574.92
786.512	2551.86
786.698	2531.52
786.883	2500.71
787.068	2531.71
787.254	2537.14
787.439	2495.48
787.624	2520.86
787.809	2486.37
787.994	2507.11
788.18	2517.57
788.365	2429.99
788.55	2432.32
788.735	2456.34
788.92	2436.97
789.105	2418.95
789.29	2477.85
789.475	2383.49
789.66	2414.88
789.845	2363.54
790.03	2377.68
790.215	2412.17
790.4	2382.14
790.585	2398.41
790.77	2346.1
790.955	2319.75
791.14	2351.33
791.325	2418.95
791.51	2272.48
791.695	2345.52
791.879	2336.61
792.064	2309.87
792.249	2387.95
792.434	2361.99
792.618	2342.42
792.803	2388.92
792.988	2349.78
793.173	2365.09
793.357	2379.43
793.542	2368.77
793.727	2366.64
793.911	2395.89
794.096	2356.76
794.281	2407.91
794.465	2452.08
794.65	2355.4
794.834	2432.13
795.019	2464.48
795.203	2426.31
795.388	2470.68
795.572	2454.79
795.757	2382.72
795.941	2391.05
796.126	2368.58
796.31	2307.74
796.494	2373.61
796.679	2364.89
796.863	2368.19
797.048	2417.01
797.232	2405.78
797.416	2399.96
797.601	2358.69
797.785	2435.03
797.969	2408.88
798.153	2380.01
798.338	2441.81
798.522	2483.86
798.706	2438.71
798.89	2465.45
799.074	2528.42
799.258	2501.29
799.443	2401.9
799.627	2462.54
799.811	2450.72
799.995	2413.14
800.179	2360.05
800.363	2414.3
800.547	2422.63
800.731	2458.47
800.915	2342.03
801.099	2355.21
801.283	2406.55
801.467	2421.86
801.651	2346.88
801.835	2430.96
802.019	2392.41
802.202	2398.22
802.386	2342.61
802.57	2320.14
802.754	2357.34
802.938	2343.2
803.121	2360.63
803.305	2410.43
803.489	2359.08
803.673	2389.69
803.856	2418.95
804.04	2383.11
804.224	2405.78
804.407	2360.24
804.591	2373.61
804.775	2416.43
804.958	2376.71
805.142	2489.28
805.326	2384.66
805.509	2442.39
805.693	2411.98
805.876	2440.84
806.06	2385.04
806.243	2485.6
806.427	2474.94
806.61	2476.69
806.794	2414.3
806.977	2457.31
807.16	2423.99
807.344	2435.42
807.527	2425.34
807.71	2396.67
807.894	2424.57
808.077	2433.48
808.26	2352.3
808.444	2360.83
808.627	2453.05
808.81	2348.43
808.993	2283.71
809.177	2295.73
809.36	2324.98
809.543	2339.51
809.726	2255.82
809.909	2296.7
810.092	2238.96
810.276	2252.52
810.459	2276.55
810.642	2247.68
810.825	2207.18
811.008	2248.45
811.191	2142.09
811.374	2120.19
811.557	2153.13
811.74	2185.68
811.923	2091.71
812.106	2127.36
812.289	2078.73
812.472	2076.02
812.654	2031.07
812.837	2024.29
813.02	1981.28
813.203	1963.06
813.386	1864.45
813.569	1835.96
813.751	1792.57
813.934	1844.1
814.117	1812.13
814.3	1780.75
814.482	1731.73
814.665	1702.47
814.848	1642.22
815.03	1589.71
815.213	1590.87
815.396	1605.99
815.578	1560.84
815.761	1527.71
815.943	1611.02
816.126	1497.1
816.309	1471.72
816.491	1410.3
816.674	1372.33
816.856	1425.8
817.039	1423.86
817.221	1500.98
817.403	1428.51
817.586	1443.05
817.768	1456.61
817.951	1358.38
818.133	1351.02
818.315	1419.6
818.498	1471.72
818.68	1488.38
818.862	1472.69
819.045	1531.59
819.227	1458.16
819.409	1453.7
819.591	1484.7
819.774	1474.43
819.956	1431.42
820.138	1509.11
820.32	1491.68
820.502	1566.27
820.684	1615.48
820.866	1594.36
821.048	1661.59
821.231	1691.43
821.413	1649.19
821.595	1658.69
821.777	1675.74
821.959	1655.39
822.141	1717.97
822.323	1600.95
822.505	1513.76
822.686	1515.7
822.868	1382.98
823.05	1308.78
823.232	1281.07
823.414	1216.75
823.596	1305.87
823.778	1290.76
823.96	1298.32
824.141	1304.71
824.323	1341.72
824.505	1408.17
824.687	1438.2
824.868	1521.71
825.05	1592.23
825.232	1615.48
825.413	1692.4
825.595	1638.92
825.777	1573.82
825.958	1616.64
826.14	1631.76
826.321	1655.78
826.503	1607.92
826.685	1656.55
826.866	1650.55
827.048	1625.56
827.229	1583.9
827.411	1516.28
827.592	1481.99
827.773	1529.84
827.955	1483.54
828.136	1475.6
828.318	1456.8
828.499	1504.85
828.68	1415.73
828.862	1447.89
829.043	1477.15
829.224	1437.43
829.406	1411.46
829.587	1424.25
829.768	1428.13
829.949	1463.39
830.131	1450.6
830.312	1508.34
830.493	1428.51
830.674	1488.77
830.855	1462.61
831.036	1409.53
831.218	1521.9
831.399	1528.49
831.58	1461.84
831.761	1440.53
831.942	1477.73
832.123	1476.18
832.304	1434.33
832.485	1444.21
832.666	1438.2
832.847	1468.62
833.028	1436.26
833.209	1457.77
833.389	1433.36
833.57	1408.75
833.751	1432.97
833.932	1470.17
834.113	1475.98
834.294	1427.16
834.475	1445.76
834.655	1492.45
834.836	1508.14
835.017	1518.22
835.198	1452.93
835.378	1501.17
835.559	1526.36
835.74	1479.86
835.92	1477.15
836.101	1500.78
836.281	1505.04
836.462	1543.6
836.643	1534.11
836.823	1534.69
837.004	1513.38
837.184	1569.56
837.365	1567.43
837.545	1578.67
837.726	1546.51
837.906	1617.42
838.087	1556.39
838.267	1543.02
838.448	1542.24
838.628	1530.81
838.808	1547.67
838.989	1573.24
839.169	1507.37
839.349	1603.08
839.53	1565.88
839.71	1573.82
839.89	1513.57
840.07	1580.99
840.251	1487.99
840.431	1578.47
840.611	1564.33
840.791	1521.51
840.971	1526.36
841.151	1520.74
841.332	1531.2
841.512	1568.4
841.692	1476.56
841.872	1544.18
842.052	1542.05
842.232	1558.91
842.412	1467.85
842.592	1517.44
842.772	1528.68
842.952	1546.12
843.132	1522.68
843.312	1506.59
843.492	1499.23
843.672	1521.13
843.851	1467.46
844.031	1505.82
844.211	1476.95
844.391	1504.46
844.571	1527.52
844.751	1529.65
844.93	1483.93
845.11	1479.66
845.29	1508.53
845.47	1495.94
845.649	1498.07
845.829	1496.71
846.009	1464.75
846.188	1506.4
846.368	1497.29
846.547	1493.61
846.727	1504.66
846.907	1441.5
847.086	1513.38
847.266	1500.78
847.445	1487.99
847.625	1498.84
847.804	1437.62
847.984	1469.78
848.163	1465.13
848.343	1469.59
848.522	1487.22
848.701	1441.11
848.881	1424.83
849.06	1436.65
849.239	1462.23
849.419	1445.37
849.598	1389.77
849.777	1397.13
849.957	1383.95
850.136	1335.52
850.315	1298.32
850.494	1344.82
850.674	1338.62
850.853	1367.1
851.032	1358.18
851.211	1372.13
851.39	1355.86
851.569	1340.94
851.748	1314.4
851.927	1369.81
852.107	1355.08
852.286	1311.88
852.465	1314.78
852.644	1367.1
852.823	1324.28
853.002	1358.77
853.181	1342.49
853.359	1319.82
853.538	1276.42
853.717	1343.07
853.896	1302.97
854.075	1204.74
854.254	1202.8
854.433	1128.79
854.611	1162.89
854.79	1144.48
854.969	1177.03
855.148	1196.41
855.327	1134.6
855.505	1201.06
855.684	1207.84
855.863	1189.24
856.041	1187.11
856.22	1267.32
856.399	1252.01
856.577	1309.36
856.756	1287.27
856.934	1385.12
857.113	1386.28
857.291	1288.63
857.47	1268.48
857.648	1300.64
857.827	1313.04
858.005	1343.46
858.184	1266.35
858.362	1364.19
858.541	1269.06
858.719	1271.97
858.898	1291.34
859.076	1275.84
859.254	1347.92
859.433	1257.44
859.611	1282.82
859.789	1237.29
859.967	1304.71
860.146	1307.23
860.324	1231.86
860.502	1258.79
860.68	1218.49
860.859	1231.28
861.037	1229.34
861.215	1276.62
861.393	1235.35
861.571	1258.21
861.749	1220.24
861.927	1254.14
862.105	1264.99
862.283	1222.56
862.461	1203.57
862.639	1153.78
862.817	1224.5
862.995	1198.34
863.173	1218.69
863.351	1214.23
863.529	1226.82
863.707	1260.34
863.885	1202.8
864.063	1126.08
864.241	1205.12
864.418	1243.68
864.596	1168.31
864.774	1143.71
864.952	1197.37
865.129	1222.56
865.307	1126.66
865.485	1130.14
865.663	1186.72
865.84	1092.94
866.018	1143.71
866.196	1030.75
866.373	1024.75
866.551	1023.39
866.728	976.11
866.906	1021.26
867.084	1056.52
867.261	1073.96
867.439	1065.43
867.616	1111.54
867.794	1071.24
867.971	1089.26
868.149	1081.32
868.326	1120.46
868.503	1083.45
868.681	1085.58
868.858	1078.61
869.035	1059.04
869.213	1134.6
869.39	1079.38
869.567	1154.56
869.745	1075.7
869.922	1116.78
870.099	1102.63
870.276	1128.01
870.454	1106.12
870.631	1130.34
870.808	1061.75
870.985	1109.99
871.162	1144.48
871.339	1123.75
871.517	1052.45
871.694	1026.49
871.871	1108.83
872.048	1070.66
872.225	1048.19
872.402	1101.66
872.579	1021.06
872.756	1106.31
872.933	1051.68
873.11	1027.46
873.287	1079.19
873.463	1057.68
873.64	1032.69
873.817	1106.89
873.994	1037.73
874.171	1022.23
874.348	1041.02
874.524	978.25
874.701	1007.11
874.878	1009.44
875.055	1046.83
875.231	1019.9
875.408	1039.86
875.585	961.2
875.762	997.23
875.938	1003.24
876.115	1012.93
876.291	988.32
876.468	974.56
876.645	973.4
876.821	969.91
876.998	974.76
877.174	1025.71
877.351	981.73
877.527	971.27
877.704	1002.66
877.88	985.22
878.057	982.7
878.233	1005.18
878.409	964.3
878.586	988.51
878.762	991.42
878.938	988.51
879.115	919.15
879.291	953.45
879.467	925.35
879.644	953.83
879.82	976.7
879.996	912.76
880.172	887.77
880.349	914.12
880.525	936.98
880.701	887.18
880.877	892.61
881.053	956.35
881.229	929.03
881.405	969.14
881.581	912.76
881.757	904.43
881.933	941.43
882.109	935.23
882.285	903.27
882.461	896.68
882.637	919.35
882.813	916.63
882.989	890.87
883.165	958.29
883.341	881.95
883.517	946.47
883.693	966.81
883.869	955.77
884.044	901.52
884.22	949.57
884.396	951.12
884.572	929.81
884.747	946.86
884.923	933.49
885.099	930.39
885.275	942.98
885.45	887.96
885.626	905.78
885.801	885.25
885.977	893.19
886.153	834.68
886.328	936.78
886.504	857.54
886.679	932.52
886.855	890.48
887.03	921.28
887.206	923.61
887.381	899.97
887.557	909.08
887.732	923.22
887.908	904.43
888.083	927.87
888.258	892.8
888.434	899
888.609	881.95
888.784	931.75
888.96	878.27
889.135	884.28
889.31	884.08
889.485	897.26
889.661	929.62
889.836	939.11
890.011	929.03
890.186	918.77
890.361	867.23
890.537	903.85
890.712	905.4
890.887	941.82
891.062	909.85
891.237	950.35
891.412	896.48
891.587	915.67
891.762	925.16
891.937	927.48
892.112	904.62
892.287	881.18
892.462	846.89
892.637	829.84
892.812	794.96
892.987	812.59
893.161	812.59
893.336	815.3
893.511	833.52
893.686	847.08
893.861	830.8
894.035	802.52
894.21	818.6
894.385	780.43
894.56	786.82
894.734	740.32
894.909	759.7
895.084	748.66
895.258	744.01
895.433	737.03
895.608	677.36
895.782	656.43
895.957	662.44
896.131	680.26
896.306	601.41
896.48	642.87
896.655	641.13
896.829	585.71
897.004	577.96
897.178	588.43
897.353	557.23
897.527	596.76
897.701	606.83
897.876	518.87
898.05	631.44
898.224	623.88
898.399	629.11
898.573	587.46
898.747	507.83
898.921	537.28
899.096	476.05
899.27	484.19
899.444	470.82
899.618	510.35
899.792	526.04
899.967	500.47
900.141	556.85
900.315	510.93
900.489	490.58
900.663	537.28
900.837	503.95
901.011	473.92
901.185	551.23
901.359	510.54
901.533	492.33
901.707	537.08
901.881	492.33
902.055	473.15
902.229	502.02
902.403	562.08
902.576	501.24
902.75	502.21
902.924	586.1
903.098	550.26
903.272	605.86
903.446	638.8
903.619	623.88
903.793	628.34
903.967	634.73
904.14	679.29
904.314	693.44
904.488	657.01
904.661	675.81
904.835	644.03
905.009	690.92
905.182	710.68
905.356	672.51
905.529	651.59
905.703	620.78
905.876	606.64
906.05	607.03
906.223	607.61
906.397	552
906.57	528.75
906.744	523.91
906.917	497.75
907.09	515.19
907.264	505.31
907.437	496.78
907.61	441.37
907.784	474.12
907.957	470.82
908.13	436.72
908.304	485.35
908.477	449.12
908.65	467.53
908.823	427.62
908.996	468.11
909.17	462.1
909.343	421.03
909.516	440.6
909.689	458.42
909.862	419.67
910.035	427.81
910.208	415.02
910.381	397.97
910.554	495.23
910.727	442.92
910.9	419.67
911.073	437.11
911.246	460.94
911.419	500.47
911.592	462.88
911.765	444.47
911.938	432.85
912.11	458.42
912.283	458.81
912.456	496.2
912.629	463.07
912.802	439.43
912.974	392.16
913.147	344.11
913.32	303.04
913.493	337.72
913.665	388.48
913.838	369.69
914.01	382.47
914.183	388.29
914.356	355.35
914.528	404.17
914.701	443.7
914.873	421.61
915.046	364.84
915.218	332.29
915.391	281.53
915.563	326.87
915.736	356.7
915.908	371.82
916.081	372.4
916.253	376.85
916.425	377.05
916.598	398.75
916.77	359.42
916.942	349.92
917.115	298
917.287	371.43
917.459	357.87
917.632	312.34
917.804	278.82
917.976	337.33
918.148	346.44
918.32	362.71
918.493	402.62
918.665	415.8
918.837	378.79
919.009	467.14
919.181	444.67
919.353	405.72
919.525	396.42
919.697	377.44
919.869	390.8
920.041	453.38
920.213	497.37
920.385	425.49
920.557	418.51
920.729	435.17
920.901	430.13
921.073	394.87
921.244	393.52
921.416	446.8
921.588	411.92
921.76	402.62
921.932	478.57
922.103	404.37
922.275	422.97
922.447	415.8
922.619	368.33
922.79	400.49
922.962	402.43
923.134	441.18
923.305	358.25
923.477	345.08
923.648	340.43
923.82	367.75
923.991	304.01
924.163	324.54
924.335	326.29
924.506	333.46
924.677	382.09
924.849	337.52
925.02	335.39
925.192	365.42
925.363	367.36
925.535	362.13
925.706	331.71
925.877	396.23
926.049	329.97
926.22	340.24
926.391	350.31
926.562	355.74
926.734	322.99
926.905	385.19
927.076	304.2
927.247	315.82
927.419	275.52
927.59	266.03
927.761	290.64
927.932	272.04
928.103	287.92
928.274	261.96
928.445	253.63
928.616	247.24
928.787	243.75
928.958	253.05
929.129	223.99
929.3	242.59
929.471	194.15
929.642	149.4
929.813	119.75
929.984	229.8
930.155	132.73
930.326	208.29
930.496	149.78
930.667	98.05
930.838	152.69
931.009	122.27
931.18	156.18
931.35	112.58
931.521	141.06
931.692	89.91
931.863	72.28
932.033	90.69
932.204	95.15
932.374	96.89
932.545	82.94
932.716	149.78
932.886	85.65
933.057	39.93
933.227	31.79
933.398	130.41
933.568	55.04
933.739	5.05
933.909	13.58
934.08	57.17
934.25	8.73
934.421	19.58
934.591	32.76
934.761	16.68
934.932	-7.35
935.102	40.9
935.272	30.43
935.443	31.79
935.613	4.67
935.783	57.37
935.953	-9.09
936.123	151.33
936.294	-22.07
936.464	51.94
936.634	7.77
936.804	-14.32
936.974	-1.34
937.144	43.22
937.314	60.47
937.484	14.74
937.655	8.73
937.825	56.4
937.995	-12.58
938.165	78.48
938.334	24.43
938.504	45.16
938.674	38.96
938.844	50.78
939.014	111.03
939.184	76.74
939.354	132.73
939.524	90.5
939.694	59.5
939.863	75.38
940.033	145.71
940.203	119.95
940.373	107.93
940.542	110.84
940.712	90.5
940.882	112.2
941.051	124.4
941.221	90.11
941.391	133.7
941.56	40.12
941.73	61.82
941.899	138.35
942.069	57.17
942.238	91.85
942.408	65.12
942.577	103.09
942.747	69.38
942.916	24.23
943.086	50.97
943.255	106.19
943.425	56.78
943.594	42.25
943.763	3.31
943.933	25.59
944.102	-10.06
944.271	29.47
944.441	72.09
944.61	41.48
944.779	41.48
944.948	148.81
945.117	42.45
945.287	41.28
945.456	-8.51
945.625	37.22
945.794	47.68
945.963	29.27
946.132	41.48
946.301	31.6
946.47	86.43
946.639	-3.67
946.808	41.28
946.977	77.52
947.146	110.06
947.315	38.57
947.484	74.61
947.653	36.25
947.822	35.67
947.991	39.73
948.16	108.51
948.329	102.7
948.498	57.75
948.666	63.95
948.835	56.78
949.004	22.68
949.173	10.48
949.341	35.86
949.51	75
949.679	86.62
949.847	58.92
950.016	136.61
950.185	109.1
950.353	28.11
950.522	68.22
950.69	76.35
950.859	55.23
951.028	81.39
951.196	78.48
951.365	45.55
951.533	68.41
951.701	97.66
951.87	102.51
952.038	17.07
952.207	54.07
952.375	94.56
952.543	49.03
952.712	63.76
952.88	55.04
953.048	115.49
953.217	86.43
953.385	40.51
953.553	102.12
953.721	26.75
953.89	65.12
954.058	19.97
954.226	41.67
954.394	69.96
954.562	9.7
954.73	56.59
954.898	51.36
955.067	58.53
955.235	8.73
955.403	106
955.571	127.5
955.739	72.67
955.907	21.52
956.075	47.48
956.243	33.15
956.41	54.65
956.578	-6.96
956.746	4.86
956.914	25.4
957.082	67.63
957.25	90.5
957.418	29.85
957.585	48.65
957.753	86.81
957.921	16.48
958.089	51.36
958.256	64.53
958.424	71.51
958.592	64.34
958.759	20.17
958.927	106
959.095	16.29
959.262	39.15
959.43	56.98
959.597	32.95
959.765	23.07
959.932	20.94
960.1	78.48
960.267	66.86
960.435	50.39
960.602	63.37
960.77	35.86
960.937	37.22
961.104	74.61
961.272	13.19
961.439	59.5
961.606	65.31
961.774	95.73
961.941	39.73
962.108	50.39
962.275	49.03
962.443	84.68
962.61	82.16
962.777	133.31
962.944	97.66
963.111	107.16
963.278	72.09
963.446	43.22
963.613	46.9
963.78	107.93
963.947	84.1
964.114	57.37
964.281	131.38
964.448	103.86
964.615	49.62
964.782	58.53
964.949	85.85
965.116	79.26
965.282	119.36
965.449	53.88
965.616	23.27
965.783	77.71
965.95	54.85
966.117	53.1
966.283	58.53
966.45	71.12
966.617	67.63
966.784	95.15
966.95	102.7
967.117	111.81
967.284	40.12
967.45	43.61
967.617	134.67
967.784	97.66
967.95	137.77
968.117	78.68
968.283	141.06
968.45	183.69
968.616	90.5
968.783	127.31
968.949	94.18
969.116	130.02
969.282	86.62
969.449	82.75
969.615	76.93
969.781	60.47
969.948	87.4
970.114	60.47
970.28	149.01
970.447	93.21
970.613	164.12
970.779	77.9
970.945	127.11
971.112	87.01
971.278	90.3
971.444	83.52
971.61	133.31
971.776	56.4
971.942	93.01
972.108	112.58
972.275	102.9
972.441	123.05
972.607	154.63
972.773	63.18
972.939	140.29
973.105	95.53
973.271	57.75
973.437	43.61
973.602	44.19
973.768	118.01
973.934	104.06
974.1	98.44
974.266	34.7
974.432	113.75
974.598	79.65
974.763	117.43
974.929	75.58
975.095	112.2
975.261	39.35
975.426	48.26
975.592	62.21
975.758	171.09
975.923	35.28
976.089	74.61
976.255	73.06
976.42	82.36
976.586	88.95
976.751	87.78
976.917	149.2
977.082	111.42
977.248	51.75
977.413	37.02
977.579	67.05
977.744	83.71
977.91	48.45
978.075	47.29
978.24	73.45
978.406	62.21
978.571	59.88
978.736	60.85
978.902	105.22
979.067	35.86
979.232	14.35
979.397	85.26
979.563	137.77
979.728	40.32
979.893	68.6
980.058	61.05
980.223	103.86
980.388	71.7
980.554	80.03
980.719	71.32
980.884	91.46
981.049	123.82
981.214	73.83
981.379	105.61
981.544	58.33
981.709	68.22
981.874	88.17
982.039	69.18
982.204	90.88
982.368	96.31
982.533	63.18
982.698	123.24
982.863	110.06
983.028	62.6
983.193	94.18
983.357	77.52
983.522	92.63
983.687	69.38
983.852	46.13
984.016	77.52
984.181	78.68
984.346	66.67
984.51	70.93
984.675	71.32
984.839	103.67
985.004	71.12
985.168	93.4
985.333	96.31
985.498	64.34
985.662	88.75
985.827	105.22
985.991	62.4
986.155	65.31
986.32	92.82
986.484	124.21
986.649	83.91
986.813	46.13
986.977	61.63
987.142	91.66
987.306	36.05
987.47	37.22
987.634	92.63
987.799	84.88
987.963	84.1
988.127	81.78
988.291	172.84
988.455	90.5
988.62	63.76
988.784	100.76
988.948	113.55
989.112	46.71
989.276	108.13
989.44	71.32
989.604	54.27
989.768	58.72
989.932	157.73
990.096	30.43
990.26	35.67
990.424	52.52
990.588	72.67
990.752	110.84
990.915	112.78
991.079	39.15
991.243	67.25
991.407	79.45
991.571	60.85
991.734	80.61
991.898	98.05
992.062	157.53
992.226	70.73
992.389	56.59
992.553	-0.18
992.717	28.69
992.88	58.92
993.044	83.33
993.207	49.81
993.371	74.61
993.535	70.54
993.698	80.03
993.862	103.67
994.025	108.71
994.189	65.5
994.352	72.09
994.515	60.27
994.679	93.98
994.842	80.81
995.006	99.99
995.169	46.9
995.332	42.83
995.496	105.03
995.659	18.42
995.822	58.33
995.985	72.48
996.149	94.56
996.312	70.73
996.475	152.69
996.638	47.87
996.801	87.78
996.964	145.13
997.128	73.64
997.291	60.85
997.454	75.19
997.617	17.26
997.78	125.37
997.943	45.16
998.106	62.02
998.269	37.41
998.432	64.92
998.595	72.28
998.758	11.83
998.92	11.64
999.083	36.44
999.246	57.56
999.409	23.65
999.572	-6.18
999.735	33.53
999.897	59.69
1000.06	53.1
1000.223	45.16
1000.386	82.55
1000.548	45.55
1000.711	76.55
1000.874	57.17
1001.036	-0.18
1001.199	62.98
1001.361	47.48
1001.524	66.47
1001.687	73.45
1001.849	31.4
1002.012	81
1002.174	58.72
1002.337	43.8
1002.499	33.92
1002.661	62.98
1002.824	36.44
1002.986	47.68
1003.149	82.94
1003.311	12.8
1003.473	80.23
1003.636	23.65
1003.798	53.49
1003.96	68.99
1004.123	81.97
1004.285	34.12
1004.447	47.48
1004.609	40.32
1004.771	99.21
1004.933	4.28
1005.096	17.84
1005.258	13.19
1005.42	13.38
1005.582	61.43
1005.744	36.05
1005.906	1.95
1006.068	68.8
1006.23	6.6
1006.392	6.6
1006.554	22.68
1006.716	80.03
1006.878	61.63
1007.04	18.23
1007.202	44.97
1007.363	52.72
1007.525	35.28
1007.687	35.47
1007.849	94.95
1008.011	-19.55
1008.172	32.76
1008.334	15.52
1008.496	50.58
1008.658	-10.83
1008.819	4.67
1008.981	-20.71
1009.143	3.31
1009.304	23.27
1009.466	63.37
1009.627	85.26
1009.789	143.39
1009.95	38.77
1010.112	20.17
1010.273	72.28
1010.435	26.75
1010.596	30.05
1010.758	21.91
1010.919	-6.96
1011.081	20.17
1011.242	18.03
1011.403	39.54
1011.565	14.55
1011.726	53.88
1011.887	9.7
1012.049	3.89
1012.21	81.58
1012.371	108.51
1012.532	-10.45
1012.693	35.47
1012.855	19.39
1013.016	45.74
1013.177	55.62
1013.338	36.83
1013.499	72.67
1013.66	65.89
1013.821	48.26
1013.982	48.07
1014.143	40.51
1014.304	-4.25
1014.465	31.4
1014.626	31.98
1014.787	32.18
1014.948	86.04
1015.109	-50.94
1015.27	67.25
1015.431	6.6
1015.592	0.6
1015.752	76.55
1015.913	21.33
1016.074	18.62
1016.235	32.57
1016.395	25.59
1016.556	10.87
1016.717	31.4
1016.877	64.73
1017.038	10.28
1017.199	31.98
1017.359	31.6
1017.52	28.5
1017.681	34.7
1017.841	19.97
1018.002	5.83
1018.162	7.38
1018.323	83.71
1018.483	2.34
1018.644	10.09
1018.804	-19.94
1018.964	-14.32
1019.125	21.72
1019.285	43.42
1019.446	11.25
1019.606	14.16
1019.766	-13.74
1019.926	4.28
1020.087	44.58
1020.247	-27.88
1020.407	27.53
1020.567	49.81
1020.728	28.5
1020.888	-8.7
1021.048	29.08
1021.208	-6.18
1021.368	10.48
1021.528	50.97
1021.688	55.62
1021.848	36.25
1022.008	25.98
1022.168	-1.15
1022.328	19.97
1022.488	33.73
1022.648	-3.47
1022.808	-4.05
1022.968	35.67
1023.128	10.28
1023.288	8.73
1023.448	23.27
1023.608	42.06
1023.767	41.28
1023.927	9.7
1024.087	-15.29
1024.247	-5.6
1024.406	13.77
1024.566	-10.25
1024.726	0.6
1024.885	11.83
1025.045	23.85
1025.205	-8.31
1025.364	0.6
1025.524	41.67
1025.683	18.42
1025.843	29.08
1026.003	24.04
1026.162	47.29
1026.321	25.2
1026.481	19
1026.64	-1.73
1026.8	25.98
1026.959	12.03
1027.119	1.18
1027.278	-10.06
1027.437	-11.61
1027.597	21.33
1027.756	26.37
1027.915	11.45
1028.074	22.49
1028.234	1.95
1028.393	13.58
1028.552	6.6
1028.711	-78.26
1028.87	34.12
1029.03	-17.03
1029.189	-1.15
1029.348	-51.33
1029.507	13
1029.666	-27.3
1029.825	-22.46
1029.984	-9.28
1030.143	9.9
1030.302	-13.93
1030.461	-18.58
1030.62	2.15
1030.779	-1.53
1030.938	-20.13
1031.097	-20.52
1031.255	25.2
1031.414	81.97
1031.573	41.87
1031.732	-28.27
1031.891	3.7
1032.049	36.44
1032.208	35.67
1032.367	-17.42
1032.525	8.54
1032.684	1.57
1032.843	38.57
1033.001	-56.36
1033.16	127.7
1033.319	48.26
1033.477	27.72
1033.636	-9.28
1033.794	-37.57
1033.953	23.65
1034.111	28.3
1034.27	2.34
1034.428	43.03
1034.587	-7.15
1034.745	33.73
1034.903	37.02
1035.062	11.25
1035.22	-29.43
1035.378	31.4
1035.537	-10.83
1035.695	21.33
1035.853	8.73
1036.011	45.74
1036.17	21.33
1036.328	-47.06
1036.486	-2.5
1036.644	11.45
1036.802	-64.7
1036.96	1.18
1037.119	6.41
1037.277	-14.13
1037.435	-22.26
1037.593	-19.36
1037.751	16.68
1037.909	11.25
1038.067	11.25
