Data from gum_young_FLMT105791__84__17-39-42-042.txt Node

Date: Mon Mar 20 17:39:42 GMT 2023
User: antho
Spectrometer: FLMT10579
Trigger mode: 0
Integration Time (sec): 1.000000E-1
Scans to average: 10
Electric dark correction enabled: true
Nonlinearity correction enabled: false
Boxcar width: 0
XAxis mode: Wavelengths
Number of Pixels in Spectrum: 3648
>>>>>Begin Spectral Data<<<<<
345.248	-117.85
345.464	-117.85
345.681	-117.85
345.898	-131.02
346.114	-143.62
346.331	-23.1
346.548	25.14
346.764	-6.25
346.981	6.73
347.197	-2.37
347.414	8.86
347.631	-41.9
347.847	54.78
348.064	-3.92
348.28	25.14
348.497	-46.16
348.713	3.05
348.93	27.46
349.146	30.76
349.363	4.6
349.579	4.02
349.796	-12.84
350.012	-23.1
350.229	24.56
350.445	20.68
350.661	5.18
350.878	-3.15
351.094	12.35
351.311	6.73
351.527	15.84
351.743	-8.77
351.96	13.71
352.176	39.28
352.392	19.71
352.609	48.78
352.825	-11.09
353.041	-6.44
353.257	4.21
353.474	20.3
353.69	41.61
353.906	14.29
354.122	-3.73
354.339	66.6
354.555	11.19
354.771	-4.31
354.987	60.59
355.203	54.2
355.42	10.22
355.636	-1.21
355.852	-3.92
356.068	12.55
356.284	-32.79
356.5	65.05
356.716	33.47
356.932	10.41
357.148	23.59
357.364	-4.7
357.58	57.49
357.796	71.64
358.012	43.54
358.228	50.13
358.444	-42.09
358.66	54.39
358.876	16.42
359.092	20.1
359.308	21.07
359.524	40.64
359.74	3.83
359.956	-15.35
360.172	21.65
360.388	54.2
360.604	-6.44
360.819	90.04
361.035	10.41
361.251	56.33
361.467	-10.7
361.683	58.46
361.898	14.48
362.114	31.34
362.33	32.5
362.546	43.16
362.762	-4.31
362.977	36.96
363.193	-19.42
363.409	31.92
363.624	-7.6
363.84	-11.29
364.056	17.2
364.271	40.25
364.487	35.02
364.703	-3.34
364.918	1.31
365.134	5.18
365.35	22.23
365.565	77.84
365.781	34.24
365.996	35.02
366.212	74.16
366.427	13.71
366.643	7.51
366.858	9.25
367.074	1.7
367.289	68.34
367.505	82.68
367.72	-25.24
367.936	9.64
368.151	39.09
368.367	43.54
368.582	16.81
368.798	7.51
369.013	60.4
369.228	32.5
369.444	26.11
369.659	68.54
369.874	33.47
370.09	71.44
370.305	-17.1
370.52	-5.67
370.736	85.78
370.951	18.55
371.166	103.61
371.381	78.03
371.597	37.54
371.812	4.8
372.027	12.55
372.242	-0.05
372.458	78.61
372.673	6.93
372.888	27.08
373.103	28.24
373.318	91.4
373.533	60.4
373.749	35.99
373.964	-19.04
374.179	67.57
374.394	6.35
374.609	88.3
374.824	-16.13
375.039	68.34
375.254	34.24
375.469	76.48
375.684	16.42
375.899	84.23
376.114	39.67
376.329	46.64
376.544	50.91
376.759	54.78
376.974	3.63
377.189	20.1
377.404	39.48
377.619	41.99
377.834	-19.62
378.049	-12.64
378.264	-16.13
378.478	52.46
378.693	18.75
378.908	58.08
379.123	29.01
379.338	56.33
379.553	36.18
379.767	26.11
379.982	60.79
380.197	65.63
380.412	29.21
380.626	68.34
380.841	90.82
381.056	43.93
381.271	66.79
381.485	0.92
381.7	23.78
381.915	20.49
382.129	39.48
382.344	40.44
382.559	23.2
382.773	60.4
382.988	-7.6
383.202	46.26
383.417	-3.34
383.632	103.8
383.846	27.08
384.061	43.93
384.275	36.38
384.49	34.44
384.704	40.64
384.919	53.62
385.133	36.18
385.348	45.68
385.562	1.31
385.777	52.07
385.991	41.22
386.206	19.13
386.42	12.93
386.634	72.8
386.849	57.3
387.063	61.37
387.277	25.72
387.492	19.91
387.706	-1.79
387.92	6.93
388.135	70.86
388.349	51.49
388.563	40.64
388.778	44.71
388.992	59.43
389.206	42.38
389.42	106.13
389.635	41.41
389.849	31.34
390.063	72.61
390.277	67.96
390.491	75.32
390.706	58.08
390.92	70.28
391.134	28.43
391.348	69.31
391.562	-4.31
391.776	36.57
391.99	39.86
392.205	60.01
392.419	12.93
392.633	39.86
392.847	100.31
393.061	1.5
393.275	84.23
393.489	52.26
393.703	64.28
393.917	65.05
394.131	35.99
394.345	61.18
394.559	100.31
394.773	29.79
394.986	53.04
395.2	52.65
395.414	82.1
395.628	29.59
395.842	85.39
396.056	39.28
396.27	14.68
396.484	74.93
396.697	54.78
396.911	92.37
397.125	59.43
397.339	69.51
397.553	48.97
397.766	93.34
397.98	94.11
398.194	97.41
398.408	64.47
398.621	98.76
398.835	93.92
399.049	83.46
399.262	93.14
399.476	89.27
399.69	103.61
399.903	148.17
400.117	111.36
400.331	88.3
400.544	60.01
400.758	153.01
400.971	100.7
401.185	100.12
401.398	24.56
401.612	135.96
401.826	104.77
402.039	81.13
402.253	54.39
402.466	96.83
402.68	53.81
402.893	82.68
403.106	85.98
403.32	84.62
403.533	107.87
403.747	95.47
403.96	97.99
404.174	91.98
404.387	36.57
404.6	98.96
404.814	136.93
405.027	81.71
405.24	67.38
405.454	62.73
405.667	133.44
405.88	54.2
406.094	108.84
406.307	109.42
406.52	91.21
406.733	52.84
406.947	61.18
407.16	164.25
407.373	131.7
407.586	89.27
407.799	62.92
408.012	120.46
408.226	105.16
408.439	156.5
408.652	38.31
408.865	123.76
409.078	138.87
409.291	110.39
409.504	75.32
409.717	134.02
409.93	132.47
410.143	105.35
410.357	57.3
410.57	59.04
410.783	85.78
410.996	111.74
411.209	101.48
411.421	149.91
411.634	97.21
411.847	96.44
412.06	138.29
412.273	125.11
412.486	101.48
412.699	175.29
412.912	103.61
413.125	145.26
413.338	89.27
413.55	138.87
413.763	114.26
413.976	132.28
414.189	80.36
414.402	100.31
414.615	138.09
414.827	92.56
415.04	128.02
415.253	129.37
415.466	131.31
415.678	175.1
415.891	127.44
416.104	147.97
416.316	123.17
416.529	121.82
416.742	139.26
416.954	181.88
417.167	133.06
417.38	108.45
417.592	149.14
417.805	92.37
418.017	89.66
418.23	175.68
418.442	121.82
418.655	110.58
418.868	140.03
419.08	147.39
419.293	157.86
419.505	150.3
419.718	144.49
419.93	133.25
420.142	120.27
420.355	174.32
420.567	154.37
420.78	149.72
420.992	135.38
421.205	185.17
421.417	100.7
421.629	103.03
421.842	121.43
422.054	92.56
422.266	146.42
422.479	163.67
422.691	113.87
422.903	152.24
423.115	122.59
423.328	140.42
423.54	137.71
423.752	142.74
423.964	122.59
424.177	153.79
424.389	135.57
424.601	244.07
424.813	165.41
425.025	180.72
425.238	147.97
425.45	156.69
425.662	119.69
425.874	435.11
426.086	122.4
426.298	141
426.51	163.09
426.722	169.87
426.934	146.62
427.146	181.11
427.358	122.98
427.57	178.39
427.782	159.02
427.994	150.3
428.206	128.6
428.418	101.28
428.63	169.87
428.842	177.04
429.054	175.1
429.266	192.54
429.478	117.56
429.69	145.26
429.902	114.46
430.114	153.01
430.325	152.62
430.537	111.74
430.749	141.77
430.961	59.04
431.173	115.62
431.384	165.41
431.596	61.18
431.808	144.87
432.02	147.78
432.231	179.17
432.443	181.88
432.655	163.47
432.867	129.37
433.078	169.48
433.29	194.86
433.502	208.23
433.713	197.96
433.925	156.89
434.136	197.57
434.348	147.39
434.56	116.97
434.771	273.91
434.983	134.22
435.194	167.54
435.406	168.32
435.617	230.12
435.829	234.58
436.04	200.87
436.252	218.89
436.463	218.11
436.675	220.82
436.886	190.6
437.098	217.72
437.309	251.05
437.521	211.52
437.732	191.96
437.943	222.95
438.155	218.11
438.366	151.46
438.578	260.54
438.789	208.81
439	214.24
439.211	181.49
439.423	228.77
439.634	214.04
439.845	205.32
440.057	194.86
440.268	239.42
440.479	214.04
440.69	223.34
440.902	192.34
441.113	181.69
441.324	201.45
441.535	225.67
441.746	269.45
441.957	170.64
442.168	205.9
442.38	254.54
442.591	231.29
442.802	195.44
443.013	234.39
443.224	225.67
443.435	236.13
443.646	193.89
443.857	220.63
444.068	209.97
444.279	182.46
444.49	275.46
444.701	226.25
444.912	325.83
445.123	282.05
445.334	250.66
445.545	230.12
445.756	218.11
445.967	200.67
446.178	253.57
446.388	261.12
446.599	276.62
446.81	297.74
447.021	221.21
447.232	265.39
447.443	302
447.653	232.25
447.864	295.61
448.075	250.85
448.286	287.86
448.496	280.3
448.707	283.99
448.918	254.92
449.129	348.31
449.339	220.24
449.55	283.4
449.761	283.4
449.971	287.67
450.182	290.77
450.393	300.84
450.603	253.18
450.814	316.15
451.024	301.62
451.235	295.03
451.446	343.08
451.656	327.58
451.867	282.63
452.077	279.14
452.288	341.33
452.498	336.49
452.709	289.22
452.919	296
453.13	247.56
453.34	321.57
453.55	250.85
453.761	294.83
453.971	276.62
454.182	304.13
454.392	297.93
454.602	370.59
454.813	308.59
455.023	301.23
455.233	266.74
455.444	310.33
455.654	252.4
455.864	324.48
456.075	290.57
456.285	274.49
456.495	320.6
456.705	328.35
456.916	357.61
457.126	375.24
457.336	331.07
457.546	264.42
457.756	273.14
457.967	371.56
458.177	296.77
458.387	320.6
458.597	274.1
458.807	321.96
459.017	281.85
459.227	305.3
459.437	314.98
459.647	359.16
459.857	338.82
460.068	277.4
460.278	339.98
460.488	353.15
460.698	372.91
460.908	311.3
461.117	283.4
461.327	310.33
461.537	370.4
461.747	351.99
461.957	338.82
462.167	423.48
462.377	349.47
462.587	338.23
462.797	368.07
463.007	367.68
463.216	382.02
463.426	374.08
463.636	373.3
463.846	317.7
464.056	327.97
464.265	387.45
464.475	341.72
464.685	335.33
464.895	381.25
465.104	336.49
465.314	368.85
465.524	346.95
465.733	333
465.943	416.12
466.153	422.32
466.362	388.41
466.572	393.65
466.782	348.12
466.991	391.32
467.201	403.33
467.41	319.44
467.62	355.87
467.829	384.54
468.039	384.35
468.249	356.83
468.458	367.88
468.668	397.71
468.877	401.4
469.086	457.39
469.296	410.5
469.505	375.63
469.715	456.42
469.924	375.82
470.134	442.86
470.343	431.81
470.552	381.05
470.762	400.62
470.971	372.14
471.18	410.89
471.39	376.21
471.599	375.82
471.808	441.11
472.018	418.64
472.227	438.98
472.436	465.33
472.645	416.9
472.855	425.42
473.064	460.1
473.273	458.36
473.482	446.15
473.691	457.78
473.901	460.49
474.11	434.72
474.319	518.03
474.528	427.36
474.737	508.34
474.946	460.68
475.155	461.84
475.364	512.8
475.573	447.7
475.783	457.78
475.992	506.99
476.201	512.99
476.41	481.8
476.619	437.82
476.828	478.31
477.037	477.73
477.245	505.63
477.454	529.46
477.663	454.87
477.872	474.44
478.081	566.08
478.29	469.01
478.499	574.61
478.708	523.84
478.917	576.16
479.125	525.78
479.334	562.01
479.543	528.69
479.752	530.63
479.961	557.94
480.169	569.18
480.378	530.04
480.587	640.29
480.796	586.62
481.004	563.95
481.213	570.73
481.422	572.28
481.63	575.77
481.839	579.84
482.048	638.35
482.256	597.27
482.465	599.79
482.674	612.19
482.882	611.42
483.091	656.75
483.299	608.12
483.508	650.55
483.716	599.99
483.925	649
484.134	593.21
484.342	607.93
484.551	649
484.759	662.95
484.967	666.83
485.176	630.41
485.384	670.51
485.593	671.87
485.801	620.72
486.01	626.72
486.218	596.69
486.426	572.28
486.635	579.64
486.843	569.18
487.051	595.92
487.26	615.68
487.468	629.24
487.676	631.37
487.885	655.98
488.093	640.29
488.301	680
488.509	677.29
488.717	702.29
488.926	677.29
489.134	653.07
489.342	704.22
489.55	640.29
489.758	714.69
489.967	672.64
490.175	764.67
490.383	678.65
490.591	785.21
490.799	698.8
491.007	754.98
491.215	729.6
491.423	713.52
491.631	717.01
491.839	717.01
492.047	773.2
492.255	700.54
492.463	658.5
492.671	685.04
492.879	754.4
493.087	733.67
493.295	758.86
493.503	782.11
493.711	756.34
493.919	813.88
494.127	805.94
494.334	816.6
494.542	724.95
494.75	807.68
494.958	793.35
495.166	824.15
495.374	807.68
495.581	834.03
495.789	802.84
495.997	837.52
496.205	811.56
496.412	795.09
496.62	829.38
496.828	852.83
497.035	808.85
497.243	845.46
497.451	832.87
497.658	865.42
497.866	817.95
498.074	901.65
498.281	819.89
498.489	923.93
498.696	867.94
498.904	840.81
499.112	852.44
499.319	907.46
499.527	867.36
499.734	908.82
499.942	849.53
500.149	863.1
500.357	918.89
500.564	851.47
500.771	916.96
500.979	849.92
501.186	860
501.394	893.51
501.601	860.58
501.808	921.41
502.016	895.06
502.223	858.45
502.43	917.73
502.638	887.31
502.845	864.06
503.052	931.1
503.26	895.65
503.467	969.27
503.674	938.85
503.881	931.29
504.089	985.35
504.296	943.11
504.503	900.1
504.71	939.82
504.917	909.59
505.125	964.62
505.332	990.19
505.539	996.01
505.746	1047.54
505.953	1021.77
506.16	1032.62
506.367	1055.87
506.574	1091.72
506.781	1077.57
506.988	1011.7
507.195	1037.47
507.402	1033.79
507.609	1039.6
507.816	1046.19
508.023	1052.39
508.23	1064.21
508.437	1049.48
508.644	1073.31
508.851	1118.07
509.058	1128.34
509.265	1120.2
509.472	1138.02
509.679	1169.41
509.885	1106.44
510.092	1150.23
510.299	1153.72
510.506	1145
510.713	1145.77
510.92	1172.9
511.126	1187.23
511.333	1196.73
511.54	1223.47
511.746	1279.65
511.953	1256.01
512.16	1280.81
512.367	1210.87
512.573	1211.07
512.78	1251.56
512.987	1251.56
513.193	1229.67
513.4	1207.58
513.606	1241.87
513.813	1276.55
514.02	1281.4
514.226	1347.08
514.433	1307.36
514.639	1267.83
514.846	1306.2
515.052	1310.46
515.259	1280.62
515.465	1339.13
515.672	1331.58
515.878	1442.21
516.085	1371.68
516.291	1441.43
516.497	1350.95
516.704	1345.53
516.91	1290.7
517.117	1275.39
517.323	1237.61
517.529	1299.41
517.736	1285.85
517.942	1283.33
518.148	1300.96
518.354	1360.64
518.561	1367.81
518.767	1350.37
518.973	1368.58
519.179	1443.95
519.386	1395.71
519.592	1400.55
519.798	1428.84
520.004	1567.56
520.21	1468.94
520.417	1554
520.623	1586.94
520.829	1587.52
521.035	1568.92
521.241	1611.93
521.447	1622.2
521.653	1750.85
521.859	1642.15
522.065	1655.72
522.271	1707.83
522.477	1756.27
522.683	1744.26
522.889	1694.27
523.095	1734.57
523.301	1703.76
523.507	1715.39
523.713	1775.06
523.919	1709.77
524.125	1787.46
524.331	1803.54
524.537	1849.85
524.742	1839
524.948	1870.58
525.154	1882.98
525.36	2010.47
525.566	1908.75
525.772	1907.59
525.977	1878.14
526.183	1902.55
526.389	1937.62
526.595	1840.94
526.8	1841.13
527.006	1814.2
527.212	1728.56
527.417	1734.18
527.623	1736.9
527.829	1840.16
528.034	1882.4
528.24	1875.81
528.446	1878.52
528.651	1962.03
528.857	1986.64
529.062	2061.03
529.268	2014.34
529.473	2074.4
529.679	2042.05
529.884	2117.22
530.09	2077.31
530.295	2085.45
530.501	2118.38
530.706	2101.14
530.912	2111.41
531.117	2099.59
531.323	2127.3
531.528	2172.25
531.733	2188.71
531.939	2146.09
532.144	2204.02
532.35	2136.4
532.555	2214.87
532.76	2124.2
532.966	2139.89
533.171	2092.03
533.376	2096.88
533.581	2107.34
533.787	2139.5
533.992	2192.4
534.197	2177.86
534.402	2186.2
534.607	2235.79
534.813	2275.13
535.018	2224.36
535.223	2223.01
535.428	2266.6
535.633	2257.88
535.838	2337.32
536.043	2354.17
536.249	2390.21
536.454	2336.16
536.659	2324.72
536.864	2303.41
537.069	2340.81
537.274	2313.87
537.479	2303.8
537.684	2339.84
537.889	2269.89
538.094	2363.09
538.299	2301.67
538.504	2345.07
538.708	2351.07
538.913	2384.98
539.118	2398.35
539.323	2390.6
539.528	2323.37
539.733	2351.46
539.938	2375.87
540.142	2381.11
540.347	2316.97
540.552	2291.79
540.757	2316.78
540.962	2316.2
541.166	2238.7
541.371	2268.93
541.576	2257.69
541.781	2242.58
541.985	2370.45
542.19	2347.39
542.395	2440
542.599	2450.66
542.804	2391.18
543.008	2463.06
543.213	2404.16
543.418	2358.44
543.622	2421.79
543.827	2347.97
544.031	2446.79
544.236	2491.73
544.44	2456.86
544.645	2515.37
544.849	2415.4
545.054	2494.45
545.258	2533.58
545.463	2534.36
545.667	2441.36
545.872	2507.04
546.076	2475.85
546.281	2505.3
546.485	2455.7
546.689	2457.44
546.894	2526.42
547.098	2481.66
547.302	2485.53
547.507	2493.48
547.711	2510.33
547.915	2560.13
548.119	2464.03
548.324	2485.15
548.528	2512.27
548.732	2504.33
548.936	2535.91
549.141	2543.66
549.345	2513.43
549.549	2522.73
549.753	2547.15
549.957	2633.95
550.161	2602.17
550.366	2561.29
550.57	2533.2
550.774	2526.22
550.978	2546.18
551.182	2572.53
551.386	2526.8
551.59	2548.31
551.794	2519.44
551.998	2541.72
552.202	2573.88
552.406	2527.97
552.61	2570.4
552.814	2584.73
553.018	2603.53
553.222	2526.22
553.426	2549.08
553.63	2644.79
553.833	2550.44
554.037	2512.27
554.241	2595.97
554.445	2595.97
554.649	2569.62
554.853	2555.48
555.056	2607.98
555.26	2648.67
555.464	2566.13
555.668	2610.5
555.871	2625.23
556.075	2595.39
556.279	2574.66
556.483	2521.77
556.686	2535.13
556.89	2543.66
557.094	2547.15
557.297	2470.03
557.501	2530.87
557.704	2446.01
557.908	2511.5
558.112	2472.94
558.315	2491.15
558.519	2463.45
558.722	2447.56
558.926	2455.89
559.129	2367.35
559.333	2395.44
559.536	2385.17
559.74	2373.55
559.943	2346.62
560.147	2340.42
560.35	2384.59
560.553	2357.47
560.757	2330.73
560.96	2475.85
561.164	2376.84
561.367	2483.6
561.57	2416.37
561.774	2420.44
561.977	2381.69
562.18	2359.21
562.384	2442.52
562.587	2376.84
562.79	2390.4
562.993	2343.71
563.197	2396.6
563.4	2448.34
563.603	2421.99
563.806	2455.5
564.009	2307.87
564.212	2373.55
564.416	2296.44
564.619	2336.16
564.822	2281.91
565.025	2364.64
565.228	2300.7
565.431	2332.67
565.634	2254.59
565.837	2267.18
566.04	2238.51
566.243	2227.27
566.446	2155.39
566.649	2246.26
566.852	2173.99
567.055	2195.11
567.258	2217.97
567.461	2280.94
567.664	2242.19
567.867	2179.61
568.07	2180.96
568.273	2229.01
568.475	2233.86
568.678	2176.31
568.881	2147.45
569.084	2126.71
569.287	2061.81
569.489	2104.24
569.692	2116.45
569.895	2140.66
570.098	2046.89
570.3	2052.9
570.503	1958.15
570.706	2007.17
570.909	1982.76
571.111	1941.11
571.314	1961.45
571.516	1956.02
571.719	2003.49
571.922	1931.81
572.124	1968.81
572.327	1957.77
572.529	1944.98
572.732	1969.78
572.935	1971.72
573.137	2050.77
573.34	1952.92
573.542	2004.07
573.745	1966.1
573.947	1959.12
574.15	1923.09
574.352	1942.07
574.554	1999.62
574.757	1899.64
574.959	1894.61
575.162	1880.46
575.364	1868.26
575.566	1930.64
575.769	1838.42
575.971	1838.42
576.173	1752.01
576.376	1824.28
576.578	1879.88
576.78	1893.06
576.982	1798.12
577.185	1840.16
577.387	1771.77
577.589	1814.39
577.791	1818.46
577.993	1843.26
578.196	1789.79
578.398	1845.78
578.6	1827.18
578.802	1742.71
579.004	1762.66
579.206	1769.64
579.408	1798.31
579.61	1750.65
579.812	1791.92
580.014	1779.52
580.216	1771.96
580.418	1790.37
580.62	1740.38
580.822	1737.09
581.024	1784.17
581.226	1809.36
581.428	1783.98
581.63	1853.73
581.832	1759.76
582.034	1805.48
582.236	1789.21
582.438	1827.76
582.64	1826.21
582.841	1885.11
583.043	1910.69
583.245	1815.36
583.447	1819.63
583.649	1776.61
583.85	1808.78
584.052	1836.09
584.254	1792.11
584.456	1819.24
584.657	1760.53
584.859	1805.87
585.061	1755.11
585.262	1743.1
585.464	1724.5
585.666	1790.76
585.867	1716.75
586.069	1832.8
586.27	1733.41
586.472	1736.31
586.674	1717.71
586.875	1701.83
587.077	1727.4
587.278	1717.71
587.48	1729.15
587.681	1823.31
587.883	1729.15
588.084	1653.58
588.285	1714.42
588.487	1633.63
588.688	1655.91
588.89	1597.01
589.091	1535.01
589.292	1538.3
589.494	1505.76
589.695	1486.57
589.896	1418.38
590.098	1423.41
590.299	1442.01
590.5	1434.46
590.702	1462.16
590.903	1502.66
591.104	1580.74
591.305	1560.39
591.507	1614.83
591.708	1594.69
591.909	1540.63
592.11	1615.42
592.311	1581.32
592.512	1518.35
592.714	1482.31
592.915	1523.97
593.116	1554
593.317	1560.59
593.518	1566.59
593.719	1541.02
593.92	1606.5
594.121	1638.86
594.322	1578.6
594.523	1522.42
594.724	1500.91
594.925	1523.58
595.126	1559.42
595.327	1542.57
595.528	1548.77
595.729	1533.27
595.929	1542.95
596.13	1554
596.331	1571.05
596.532	1565.43
596.733	1602.24
596.934	1581.32
597.135	1606.5
597.335	1622.58
597.536	1546.25
597.737	1556.71
597.938	1495.87
598.138	1595.27
598.339	1556.9
598.54	1539.08
598.74	1500.14
598.941	1502.85
599.142	1589.26
599.342	1552.45
599.543	1515.44
599.744	1548.77
599.944	1556.32
600.145	1548.38
600.345	1531.91
600.546	1589.45
600.746	1587.9
600.947	1633.05
601.147	1543.34
601.348	1613.48
601.548	1542.76
601.749	1549.15
601.949	1495.68
602.15	1497.62
602.35	1504.01
602.551	1554.19
602.751	1490.64
602.951	1531.72
603.152	1447.24
603.352	1508.47
603.552	1514.67
603.753	1519.12
603.953	1533.65
604.153	1549.54
604.354	1519.51
604.554	1508.66
604.754	1523.19
604.954	1492.58
605.155	1571.82
605.355	1534.62
605.555	1560.2
605.755	1543.15
605.955	1504.01
606.155	1522.22
606.356	1500.91
606.556	1546.83
606.756	1542.57
606.956	1449.76
607.156	1583.84
607.356	1481.34
607.556	1498.2
607.756	1498.59
607.956	1517.96
608.156	1514.67
608.356	1465.65
608.556	1503.24
608.756	1494.71
608.956	1463.91
609.156	1455.19
609.356	1444.14
609.556	1446.27
609.755	1484.06
609.955	1414.69
610.155	1464.87
610.355	1472.24
610.555	1481.92
610.755	1437.75
610.954	1372.46
611.154	1467.78
611.354	1468.36
611.554	1428.26
611.753	1397.45
611.953	1387.76
612.153	1439.69
612.352	1395.32
612.552	1389.51
612.752	1334.29
612.951	1419.15
613.151	1389.51
613.351	1379.43
613.55	1383.89
613.75	1365.48
613.949	1357.73
614.149	1396.87
614.348	1361.8
614.548	1321.5
614.747	1323.25
614.947	1341.07
615.146	1295.93
615.346	1377.49
615.545	1351.53
615.745	1347.85
615.944	1352.5
616.144	1364.71
616.343	1356.76
616.542	1300.38
616.742	1298.45
616.941	1301.16
617.14	1232.38
617.34	1274.42
617.539	1315.3
617.738	1272.48
617.938	1319.56
618.137	1285.08
618.336	1265.7
618.535	1340.29
618.734	1299.61
618.934	1305.42
619.133	1302.51
619.332	1305.03
619.531	1279.65
619.73	1265.7
619.929	1326.93
620.128	1309.88
620.328	1343.78
620.527	1250.59
620.726	1276.94
620.925	1284.11
621.124	1257.95
621.323	1265.9
621.522	1212.03
621.721	1252.91
621.92	1212.81
622.119	1277.13
622.318	1237.61
622.517	1248.65
622.715	1246.91
622.914	1179.48
623.113	1243.42
623.312	1174.06
623.511	1237.61
623.71	1213.78
623.909	1202.35
624.107	1262.21
624.306	1160.88
624.505	1202.54
624.704	1177.16
624.902	1196.73
625.101	1259.11
625.3	1215.72
625.499	1172.32
625.697	1182.97
625.896	1127.37
626.095	1193.63
626.293	1134.73
626.492	1179.68
626.69	1146.16
626.889	1153.52
627.088	1198.67
627.286	1130.47
627.485	1139.19
627.683	1147.9
627.882	1128.53
628.08	1067.5
628.279	1092.1
628.477	1170.18
628.676	1072.54
628.874	1158.17
629.073	1081.84
629.271	1098.89
629.469	1134.34
629.668	1096.95
629.866	1117.29
630.065	1063.24
630.263	1124.27
630.461	1098.3
630.66	1119.81
630.858	1120.78
631.056	1128.72
631.254	1146.94
631.453	1111.48
631.651	1136.09
631.849	1102.95
632.047	1135.5
632.245	1113.42
632.444	1110.32
632.642	1137.05
632.84	1136.86
633.038	1115.35
633.236	1047.35
633.434	1078.93
633.632	1099.08
633.83	1113.22
634.028	1141.7
634.227	1122.91
634.425	1208.16
634.623	1119.81
634.821	1125.04
635.019	1140.15
635.216	1133.57
635.414	1139.96
635.612	1110.32
635.81	1080.48
636.008	1151.39
636.206	1118.26
636.404	1130.08
636.602	1070.99
636.8	1103.34
636.997	1138.6
637.195	1146.55
637.393	1139.77
637.591	1166.31
637.789	1117.1
637.986	1108.77
638.184	1113.8
638.382	1125.43
638.58	1148.87
638.777	1166.12
638.975	1110.51
639.173	1117.49
639.37	1142.29
639.568	1147.32
639.765	1140.74
639.963	1128.14
640.161	1120.78
640.358	1105.86
640.556	1087.65
640.753	1048.71
640.951	1050.84
641.148	1069.44
641.346	1072.34
641.543	1047.54
641.741	1105.67
641.938	1019.84
642.136	1054.91
642.333	1019.26
642.531	1095.4
642.728	1112.45
642.925	1059.36
643.123	1030.11
643.32	1027.2
643.517	1033.98
643.715	1020.61
643.912	979.73
644.109	1024.68
644.306	1020.61
644.504	982.25
644.701	1002.59
644.898	1019.45
645.095	1001.43
645.293	997.94
645.49	994.07
645.687	998.33
645.884	1022.55
646.081	927.23
646.278	936.14
646.475	947.57
646.672	914.63
646.87	935.56
647.067	937.69
647.264	940.4
647.461	885.38
647.658	851.08
647.855	925.68
648.052	907.85
648.249	848.95
648.446	889.06
648.642	860
648.839	857.48
649.036	856.12
649.233	814.27
649.43	855.93
649.627	832.87
649.824	843.91
650.021	826.28
650.217	845.85
650.414	826.09
650.611	861.74
650.808	882.28
651.004	887.31
651.201	872.2
651.398	918.7
651.595	879.18
651.791	845.46
651.988	898.16
652.185	830.55
652.381	872.4
652.578	812.91
652.775	839.26
652.971	840.04
653.168	841.01
653.364	886.35
653.561	845.66
653.757	849.15
653.954	855.35
654.15	809.81
654.347	902.43
654.543	836.55
654.74	793.35
654.936	801.68
655.133	825.12
655.329	835.2
655.525	807.68
655.722	796.06
655.918	751.11
656.115	817.37
656.311	719.72
656.507	696.67
656.704	658.3
656.9	718.17
657.096	711.78
657.292	702.09
657.489	773.78
657.685	720.3
657.881	736.97
658.077	756.15
658.273	763.9
658.47	806.72
658.666	783.08
658.862	793.93
659.058	786.18
659.254	815.05
659.45	796.25
659.646	810.4
659.842	777.27
660.038	825.51
660.234	783.66
660.43	772.81
660.626	846.43
660.822	787.73
661.018	812.53
661.214	796.06
661.41	742.2
661.606	798.77
661.802	819.89
661.998	760.02
662.194	742.97
662.39	778.82
662.586	772.62
662.781	807.3
662.977	779.59
663.173	801.68
663.369	778.62
663.564	786.57
663.76	780.17
663.956	757.89
664.152	806.72
664.347	690.47
664.543	738.32
664.739	710.23
664.934	694.15
665.13	680.39
665.326	753.63
665.521	745.3
665.717	693.95
665.912	708.68
666.108	625.37
666.304	714.3
666.499	711.59
666.695	654.62
666.89	678.45
667.086	743.36
667.281	708.1
667.477	739.87
667.672	710.81
667.867	714.69
668.063	698.6
668.258	677.68
668.454	686.4
668.649	769.9
668.844	669.15
669.04	706.16
669.235	688.53
669.43	662.57
669.626	647.26
669.821	654.62
670.016	657.72
670.211	696.86
670.407	643.19
670.602	676.9
670.797	656.75
670.992	677.29
671.187	660.24
671.382	702.67
671.578	656.95
671.773	662.57
671.968	604.25
672.163	624.79
672.358	667.6
672.553	633.89
672.748	659.27
672.943	715.07
673.138	641.45
673.333	674
673.528	621.69
673.723	661.99
673.918	632.54
674.113	629.24
674.308	725.73
674.503	670.12
674.698	686.2
674.892	626.92
675.087	661.4
675.282	672.84
675.477	617.81
675.672	649.78
675.867	667.22
676.061	619.75
676.256	602.31
676.451	635.64
676.646	680.97
676.84	612.19
677.035	594.17
677.23	636.22
677.424	674.58
677.619	655.01
677.814	670.51
678.008	659.66
678.203	588.75
678.397	619.94
678.592	658.69
678.787	675.16
678.981	618.59
679.176	650.75
679.37	644.74
679.565	596.69
679.759	649
679.954	655.4
680.148	680.39
680.342	685.24
680.537	645.52
680.731	640.48
680.926	646.1
681.12	662.18
681.314	626.72
681.509	631.96
681.703	651.14
681.897	658.89
682.092	612.58
682.286	639.32
682.48	723.98
682.674	656.37
682.869	632.34
683.063	645.32
683.257	723.4
683.451	630.79
683.645	633.89
683.839	647.84
684.034	648.62
684.228	670.7
684.422	641.06
684.616	654.04
684.81	684.65
685.004	643.77
685.198	677.1
685.392	680.2
685.586	645.9
685.78	673.42
685.974	693.57
686.168	680.97
686.362	734.45
686.556	661.02
686.75	600.37
686.944	609.29
687.138	611.22
687.331	526.36
687.525	524.04
687.719	484.13
687.913	536.24
688.107	574.41
688.301	535.66
688.494	567.44
688.688	537.79
688.882	532.56
689.076	527.91
689.269	568.99
689.463	664.89
689.657	599.02
689.85	579.26
690.044	618.39
690.238	608.71
690.431	639.32
690.625	610.64
690.818	681.36
691.012	693.76
691.205	689.89
691.399	654.04
691.593	700.74
691.786	786.76
691.98	786.76
692.173	816.01
692.366	803.42
692.56	810.4
692.753	862.13
692.947	794.32
693.14	875.11
693.333	871.23
693.527	847.79
693.72	902.81
693.914	850.5
694.107	853.21
694.3	927.81
694.493	868.52
694.687	946.79
694.88	881.31
695.073	988.84
695.266	981.09
695.46	979.93
695.653	1023.71
695.846	1030.49
696.039	973.53
696.232	1038.05
696.425	1086.49
696.618	1082.42
696.812	1103.34
697.005	1171.54
697.198	1255.05
697.391	1195.95
697.584	1224.82
697.777	1303.68
697.97	1271.71
698.163	1263.96
698.356	1258.34
698.549	1374.01
698.742	1288.76
698.935	1313.56
699.127	1316.85
699.32	1313.17
699.513	1298.83
699.706	1379.82
699.899	1396.29
700.092	1379.82
700.285	1391.06
700.477	1320.73
700.67	1413.14
700.863	1424.57
701.056	1525.13
701.248	1510.4
701.441	1498.39
701.634	1482.31
701.826	1566.98
702.019	1484.44
702.212	1569.3
702.404	1545.09
702.597	1528.04
702.79	1572.99
702.982	1613.67
703.175	1654.17
703.367	1674.7
703.56	1702.41
703.752	1774.87
703.945	1745.61
704.137	1749.49
704.33	1756.27
704.522	1816.72
704.715	1857.79
704.907	1841.91
705.1	1906.04
705.292	1884.34
705.484	1890.73
705.677	1907.2
705.869	1976.17
706.061	1961.25
706.254	1994.97
706.446	1967.65
706.638	1975.01
706.831	2046.31
707.023	1997.49
707.215	2127.49
707.407	2090.1
707.599	2102.5
707.792	2179.41
707.984	2145.51
708.176	2186
708.368	2131.17
708.56	2192.59
708.752	2175.35
708.944	2206.35
709.136	2242.96
709.329	2214.48
709.521	2343.52
709.713	2292.56
709.905	2328.6
710.097	2384.4
710.289	2265.05
710.481	2370.26
710.672	2370.45
710.864	2407.45
711.056	2452.79
711.248	2415.4
711.44	2438.07
711.632	2448.72
711.824	2481.27
712.016	2519.25
712.207	2502.97
712.399	2495.42
712.591	2570.98
712.783	2600.43
712.975	2582.21
713.166	2533.2
713.358	2579.7
713.55	2611.47
713.741	2658.74
713.933	2642.08
714.125	2634.14
714.316	2615.93
714.508	2684.71
714.7	2702.34
714.891	2692.46
715.083	2720.16
715.274	2668.82
715.466	2692.46
715.657	2723.84
715.849	2634.14
716.04	2669.98
716.232	2622.9
716.423	2644.79
716.615	2584.93
716.806	2494.64
716.998	2450.47
717.189	2351.46
717.381	2310.97
717.572	2215.64
717.763	2243.16
717.955	2209.64
718.146	2141.44
718.337	2128.85
718.528	2045.53
718.72	2000.78
718.911	2022.87
719.102	1976.95
719.293	2023.45
719.485	1995.55
719.676	2006.59
719.867	1956.41
720.058	1955.64
720.249	1973.65
720.44	2027.32
720.632	2059.48
720.823	2147.83
721.014	2269.7
721.205	2288.49
721.396	2340.81
721.587	2458.02
721.778	2559.55
721.969	2603.14
722.16	2686.45
722.351	2704.28
722.542	2776.93
722.733	2802.7
722.924	2716.09
723.115	2781.39
723.305	2706.79
723.496	2693.43
723.687	2598.1
723.878	2620.58
724.069	2603.33
724.26	2601.78
724.45	2577.37
724.641	2529.71
724.832	2544.43
725.023	2549.28
725.213	2515.95
725.404	2522.73
725.595	2498.71
725.785	2514.6
725.976	2609.73
726.167	2571.17
726.357	2555.48
726.548	2686.06
726.739	2543.08
726.929	2644.41
727.12	2720.94
727.31	2671.73
727.501	2605.08
727.691	2657.39
727.882	2674.63
728.072	2714.74
728.263	2737.21
728.453	2758.14
728.644	2772.86
728.834	2741.67
729.024	2711.06
729.215	2710.48
729.405	2746.51
729.596	2824.59
729.786	2808.9
729.976	2839.12
730.167	2860.44
730.357	2804.06
730.547	2825.56
730.737	2881.55
730.928	2907.71
731.118	2957.31
731.308	2892.4
731.498	2912.94
731.688	3008.85
731.879	3005.94
732.069	3070.07
732.259	3101.26
732.449	3134.2
732.639	3216.16
732.829	3265.17
733.019	3276.6
733.209	3424.63
733.399	3392.66
733.589	3462.99
733.779	3506.58
733.969	3512.4
734.159	3599.97
734.349	3631.16
734.539	3689.29
734.729	3689.87
734.919	3727.65
735.109	3791.58
735.299	3713.12
735.488	3698.39
735.678	3780.35
735.868	3747.6
736.058	3718.15
736.248	3683.86
736.437	3669.91
736.627	3644.92
736.817	3786.35
737.007	3724.35
737.196	3798.17
737.386	3728.23
737.576	3735.98
737.765	3826.27
737.955	3770.66
738.144	3947.55
738.334	3845.83
738.524	3800.11
738.713	3896.21
738.903	3840.99
739.092	3893.3
739.282	3901.44
739.471	3933.21
739.661	3899.31
739.85	3966.93
740.04	3942.51
740.229	4025.83
740.419	4022.73
740.608	4022.92
740.797	3995.6
740.987	4081.82
741.176	4043.07
741.365	4007.03
741.555	3975.45
741.744	4109.52
741.933	4011.29
742.123	4081.82
742.312	4100.61
742.501	4121.34
742.69	4155.64
742.88	4081.04
743.069	4169.78
743.258	4168.62
743.447	4176.37
743.636	4202.52
743.825	4187.6
744.014	4188.96
744.204	4195.55
744.393	4154.28
744.582	4256
744.771	4262.78
744.96	4202.14
745.149	4251.93
745.338	4249.02
745.527	4259.68
745.716	4208.14
745.905	4228.68
746.094	4286.61
746.283	4266.65
746.471	4246.7
746.66	4290.87
746.849	4298.43
747.038	4308.89
747.227	4192.45
747.416	4251.15
747.604	4201.75
747.793	4194.19
747.982	4219.96
748.171	4272.47
748.359	4271.88
748.548	4258.32
748.737	4233.52
748.926	4301.53
749.114	4162.42
749.303	4263.94
749.491	4192.64
749.68	4132.19
749.869	4256.77
750.057	4169.39
750.246	4169
750.434	4195.16
750.623	4141.88
750.811	4167.65
751	4193.61
751.188	4192.25
751.377	4185.47
751.565	4168.42
751.754	4136.45
751.942	4136.84
752.131	4150.02
752.319	4096.93
752.507	4132.19
752.696	4164.55
752.884	4184.5
753.072	4126.38
753.261	4148.85
753.449	4130.25
753.637	4098.67
753.825	4208.72
754.014	4121.73
754.202	4116.89
754.39	4181.6
754.578	4150.21
754.766	4080.46
754.955	4075.23
755.143	4163
755.331	4075.81
755.519	4132.77
755.707	4067.29
755.895	4054.5
756.083	4085.69
756.271	4023.69
756.459	4060.7
756.647	4063.02
756.835	4079.49
757.023	4065.74
757.211	4026.21
757.399	3985.72
757.587	4060.7
757.775	3954.33
757.963	3976.81
758.151	4009.16
758.339	3912.29
758.526	3913.06
758.714	3921.78
758.902	3825.88
759.09	3697.42
759.278	3488.37
759.465	3222.55
759.653	2761.24
759.841	2477.78
760.028	2172.05
760.216	1875.42
760.404	1733.6
760.591	1454.02
760.779	1199.63
760.967	1043.28
761.154	835.97
761.342	890.22
761.529	894.1
761.717	904.94
761.905	910.18
762.092	970.04
762.28	908.82
762.467	916.76
762.655	821.83
762.842	867.94
763.029	837.52
763.217	859.41
763.404	866.78
763.592	867.36
763.779	877.43
763.966	909.98
764.154	928.58
764.341	975.86
764.528	1018.29
764.716	1083.58
764.903	1176.97
765.09	1233.73
765.277	1268.8
765.465	1450.73
765.652	1566.01
765.839	1636.15
766.026	1767.31
766.213	1846.56
766.4	1947.69
766.588	2196.85
766.775	2201.7
766.962	2339.26
767.149	2452.79
767.336	2616.51
767.523	2599.46
767.71	2776.16
767.897	2887.95
768.084	2948.78
768.271	2982.69
768.458	3091.58
768.645	3214.22
768.832	3119.86
769.019	3228.75
769.206	3263.62
769.392	3315.16
769.579	3431.99
769.766	3378.13
769.953	3384.13
770.14	3491.86
770.327	3415.52
770.513	3486.43
770.7	3533.9
770.887	3490.11
771.073	3543.59
771.26	3526.93
771.447	3543.59
771.634	3500.19
771.82	3587.38
772.007	3445.94
772.193	3552.11
772.38	3572.84
772.567	3528.86
772.753	3570.52
772.94	3587.18
773.126	3577.49
773.313	3587.76
773.499	3564.71
773.686	3607.52
773.872	3565.68
774.059	3583.31
774.245	3477.71
774.432	3523.44
774.618	3460.86
774.804	3518.79
774.991	3452.53
775.177	3538.94
775.363	3515.11
775.55	3539.13
775.736	3432.18
775.922	3484.88
776.109	3493.8
776.295	3458.53
776.481	3506
776.667	3462.8
776.853	3483.14
777.04	3462.02
777.226	3472.29
777.412	3535.06
777.598	3408.93
777.784	3440.9
777.97	3392.27
778.156	3407.77
778.342	3417.46
778.528	3389.17
778.715	3340.35
778.901	3329.11
779.087	3356.23
779.272	3331.24
779.458	3364.18
779.644	3389.37
779.83	3377.74
780.016	3453.88
780.202	3345.77
780.388	3354.68
780.574	3269.24
780.76	3337.25
780.946	3323.1
781.131	3287.07
781.317	3308.38
781.503	3239.99
781.689	3305.86
781.874	3360.88
782.06	3256.84
782.246	3288.04
782.432	3243.28
782.617	3267.89
782.803	3289.97
782.989	3222.55
783.174	3238.82
783.36	3166.17
783.545	3204.14
783.731	3208.41
783.916	3098.55
784.102	3245.99
784.288	3140.59
784.473	3161.52
784.659	3130.52
784.844	3154.74
785.029	3128.58
785.215	3145.05
785.4	3088.67
785.586	3178.18
785.771	3034.81
785.956	3133.62
786.142	3118.51
786.327	3097.78
786.512	3068.91
786.698	3090.61
786.883	2930.38
787.068	3035.97
787.254	3084.21
787.439	3000.32
787.624	3008.07
787.809	2992.18
787.994	2968.55
788.18	3078.4
788.365	2935.03
788.55	2913.91
788.735	2964.48
788.92	2956.53
789.105	2905.58
789.29	2943.75
789.475	2849.59
789.66	2885.04
789.845	2861.99
790.03	2847.84
790.215	2902.48
790.4	2864.7
790.585	2921.85
790.77	2841.25
790.955	2781.19
791.14	2835.83
791.325	2933.67
791.51	2816.26
791.695	2817.23
791.879	2828.66
792.064	2776.16
792.249	2919.33
792.434	2803.47
792.618	2826.14
792.803	2849.78
792.988	2812.39
793.173	2817.81
793.357	2859.66
793.542	2799.79
793.727	2815.29
793.911	2897.44
794.096	2847.65
794.281	2843.19
794.465	2966.42
794.65	2877.29
794.834	2875.74
795.019	2945.68
795.203	2954.4
795.388	2904.61
795.572	2944.13
795.757	2912.55
795.941	2926.5
796.126	2841.06
796.31	2808.51
796.494	2817.62
796.679	2808.71
796.863	2797.66
797.048	2880
797.232	2867.41
797.416	2889.5
797.601	2903.06
797.785	2932.12
797.969	2934.45
798.153	2843.77
798.338	2926.89
798.522	2940.84
798.706	2905.77
798.89	2919.14
799.074	3028.61
799.258	2995.86
799.443	2889.89
799.627	2957.5
799.811	2979.98
799.995	2938.71
800.179	2862.57
800.363	2869.35
800.547	2905.19
800.731	2958.86
800.915	2874.97
801.099	2895.12
801.283	2863.15
801.467	2897.05
801.651	2825.95
801.835	2904.42
802.019	2867.6
802.202	2914.88
802.386	2858.5
802.57	2826.34
802.754	2835.83
802.938	2797.08
803.121	2830.6
803.305	2888.72
803.489	2854.62
803.673	2870.12
803.856	2884.65
804.04	2878.07
804.224	2855.2
804.407	2843.39
804.591	2875.55
804.775	2867.41
804.958	2834.47
805.142	2940.45
805.326	2916.82
805.509	2904.03
805.693	2942.97
805.876	2933.67
806.06	2924.18
806.243	2907.71
806.427	2915.07
806.61	2941.81
806.794	2908.29
806.977	2961.96
807.16	2909.45
807.344	2940.26
807.527	2895.31
807.71	2896.28
807.894	2925.15
808.077	2939.1
808.26	2863.54
808.444	2839.12
808.627	2896.86
808.81	2812.77
808.993	2769.57
809.177	2795.72
809.36	2815.1
809.543	2818.2
809.726	2724.81
809.909	2731.79
810.092	2666.11
810.276	2721.91
810.459	2704.86
810.642	2686.84
810.825	2621.35
811.008	2692.46
811.191	2555.09
811.374	2565.55
811.557	2612.25
811.74	2641.7
811.923	2537.85
812.106	2506.07
812.289	2481.08
812.472	2451.05
812.654	2464.22
812.837	2433.22
813.02	2404.35
813.203	2361.54
813.386	2225.53
813.569	2227.27
813.751	2144.54
813.934	2202.66
814.117	2149.38
814.3	2091.65
814.482	2055.22
814.665	2037.01
814.848	1991.67
815.03	1936.46
815.213	1907.39
815.396	1903.91
815.578	1855.47
815.761	1848.3
815.943	1888.6
816.126	1801.61
816.309	1783.2
816.491	1703.18
816.674	1649.32
816.856	1746.78
817.039	1706.09
817.221	1798.12
817.403	1734.96
817.586	1738.45
817.768	1779.91
817.951	1652.42
818.133	1637.7
818.315	1679.74
818.498	1753.36
818.68	1785.72
818.862	1797.34
819.045	1781.26
819.227	1793.28
819.409	1741.74
819.591	1792.69
819.774	1768.86
819.956	1728.56
820.138	1827.18
820.32	1819.82
820.502	1864.96
820.684	1957.77
820.866	1945.37
821.048	2022.29
821.231	2020.54
821.413	2012.6
821.595	1993.22
821.777	2030.62
821.959	2012.79
822.141	2082.93
822.323	1951.76
822.505	1839.78
822.686	1766.35
822.868	1691.36
823.05	1580.74
823.232	1570.85
823.414	1475.53
823.596	1527.45
823.778	1540.82
823.96	1566.4
824.141	1600.11
824.323	1622.39
824.505	1681.1
824.687	1762.47
824.868	1829.12
825.05	1963.97
825.232	1904.29
825.413	2004.46
825.595	2005.82
825.777	1895.77
825.958	1954.86
826.14	1970.36
826.321	1969.97
826.503	1988.96
826.685	2019.77
826.866	2015.12
827.048	1973.85
827.229	1904.87
827.411	1873.68
827.592	1814.59
827.773	1802.96
827.955	1770.8
828.136	1780.88
828.318	1736.7
828.499	1772.93
828.68	1705.9
828.862	1764.6
829.043	1786.88
829.224	1714.03
829.406	1729.73
829.587	1721.4
829.768	1743.1
829.949	1772.54
830.131	1781.26
830.312	1808.39
830.493	1754.33
830.674	1756.08
830.855	1742.51
831.036	1769.83
831.218	1821.18
831.399	1828.34
831.58	1776.03
831.761	1788.04
831.942	1805.29
832.123	1760.92
832.304	1721.4
832.485	1717.71
832.666	1758.79
832.847	1761.31
833.028	1764.41
833.209	1744.26
833.389	1734.57
833.57	1729.92
833.751	1676.83
833.932	1759.95
834.113	1786.3
834.294	1737.86
834.475	1777.58
834.655	1843.84
834.836	1822.14
835.017	1808.97
835.198	1762.08
835.378	1838.23
835.559	1872.52
835.74	1795.99
835.92	1762.28
836.101	1808.97
836.281	1866.71
836.462	1808.58
836.643	1859.15
836.823	1904.29
837.004	1831.25
837.184	1906.81
837.365	1876.01
837.545	1874.07
837.726	1847.33
837.906	1919.21
838.087	1850.63
838.267	1864.57
838.448	1821.95
838.628	1854.89
838.808	1850.24
838.989	1906.62
839.169	1824.47
839.349	1855.66
839.53	1891.51
839.71	1901.77
839.89	1860.51
840.07	1903.91
840.251	1862.64
840.431	1880.46
840.611	1866.9
840.791	1801.22
840.971	1876.97
841.151	1853.92
841.332	1824.86
841.512	1883.95
841.692	1802.96
841.872	1842.1
842.052	1837.06
842.232	1849.08
842.412	1779.91
842.592	1825.24
842.772	1877.56
842.952	1856.83
843.132	1822.34
843.312	1831.06
843.492	1817.88
843.672	1889.76
843.851	1752.2
844.031	1837.64
844.211	1796.18
844.391	1777.39
844.571	1835.9
844.751	1819.63
844.93	1851.59
845.11	1784.75
845.29	1802.77
845.47	1808.97
845.649	1826.21
845.829	1842.88
846.009	1770.61
846.188	1822.92
846.368	1829.7
846.547	1793.28
846.727	1864.19
846.907	1715
847.086	1798.31
847.266	1813.23
847.445	1808
847.625	1756.27
847.804	1779.71
847.984	1783.78
848.163	1751.81
848.343	1739.61
848.522	1748.33
848.701	1736.7
848.881	1714.61
849.06	1756.27
849.239	1765.76
849.419	1769.83
849.598	1706.28
849.777	1684
849.957	1638.08
850.136	1642.15
850.315	1592.36
850.494	1623.55
850.674	1598.75
850.853	1654.36
851.032	1610.18
851.211	1657.65
851.39	1651.65
851.569	1603.02
851.748	1608.44
851.927	1637.5
852.107	1608.05
852.286	1603.02
852.465	1601.85
852.644	1657.07
852.823	1625.1
853.002	1638.67
853.181	1640.02
853.359	1625.49
853.538	1559.04
853.717	1630.72
853.896	1529.59
854.075	1486.38
854.254	1448.41
854.433	1336.03
854.611	1425.35
854.79	1341.65
854.969	1420.51
855.148	1421.09
855.327	1388.54
855.505	1463.13
855.684	1467.97
855.863	1482.89
856.041	1469.91
856.22	1522.22
856.399	1490.45
856.577	1588.29
856.756	1569.89
856.934	1656.68
857.113	1617.16
857.291	1572.99
857.47	1546.83
857.648	1564.85
857.827	1575.89
858.005	1604.95
858.184	1521.64
858.362	1644.48
858.541	1562.33
858.719	1587.9
858.898	1544.7
859.076	1536.56
859.254	1577.25
859.433	1536.56
859.611	1526.49
859.789	1511.95
859.967	1549.15
860.146	1577.25
860.324	1470.88
860.502	1493.36
860.68	1490.84
860.859	1470.69
861.037	1510.79
861.215	1519.9
861.393	1496.07
861.571	1490.06
861.749	1521.25
861.927	1523.77
862.105	1518.15
862.283	1498.59
862.461	1466.42
862.639	1455.96
862.817	1475.92
862.995	1444.14
863.173	1451.89
863.351	1456.35
863.529	1485.41
863.707	1485.61
863.885	1479.79
864.063	1394.74
864.241	1409.46
864.418	1498.2
864.596	1478.44
864.774	1402.29
864.952	1455.19
865.129	1448.21
865.307	1418.96
865.485	1403.46
865.663	1433.68
865.84	1368.58
866.018	1351.92
866.196	1229.86
866.373	1237.8
866.551	1215.13
866.728	1161.27
866.906	1234.51
867.084	1239.55
867.261	1274.03
867.439	1310.46
867.616	1337.39
867.794	1302.32
867.971	1335.06
868.149	1323.25
868.326	1367.42
868.503	1381.56
868.681	1342.23
868.858	1355.21
869.035	1318.79
869.213	1374.98
869.39	1336.81
869.567	1411.21
869.745	1286.63
869.922	1338.16
870.099	1341.26
870.276	1366.64
870.454	1362.58
870.631	1340.88
870.808	1327.51
870.985	1363.35
871.162	1383.89
871.339	1324.99
871.517	1293.02
871.694	1287.79
871.871	1309.68
872.048	1316.66
872.225	1295.15
872.402	1313.75
872.579	1257.95
872.756	1335.26
872.933	1239.35
873.11	1264.73
873.287	1302.71
873.463	1262.02
873.64	1266.48
873.817	1286.05
873.994	1275.2
874.171	1229.86
874.348	1280.04
874.524	1222.3
874.701	1246.33
874.878	1195.57
875.055	1265.31
875.231	1243.42
875.408	1258.92
875.585	1178.52
875.762	1240.32
875.938	1214.94
876.115	1231.99
876.291	1200.02
876.468	1219.4
876.645	1174.45
876.821	1204.09
876.998	1181.03
877.174	1219.98
877.351	1187.23
877.527	1193.05
877.704	1188.59
877.88	1205.64
878.057	1170.96
878.233	1223.27
878.409	1159.33
878.586	1184.91
878.762	1173.48
878.938	1166.5
879.115	1112.84
879.291	1140.35
879.467	1107.99
879.644	1123.49
879.82	1174.06
879.996	1128.92
880.172	1091.33
880.349	1150.04
880.525	1146.16
880.701	1117.49
880.877	1102.95
881.053	1131.05
881.229	1083
881.405	1131.24
881.581	1084.35
881.757	1117.1
881.933	1118.45
882.109	1124.07
882.285	1107.8
882.461	1070.79
882.637	1112.84
882.813	1090.36
882.989	1127.37
883.165	1178.32
883.341	1092.1
883.517	1134.15
883.693	1073.5
883.869	1155.65
884.044	1068.47
884.22	1103.34
884.396	1151.97
884.572	1121.75
884.747	1160.88
884.923	1125.82
885.099	1140.93
885.275	1140.54
885.45	1097.72
885.626	1049.48
885.801	1076.22
885.977	1096.17
886.153	1054.91
886.328	1103.73
886.504	1071.57
886.679	1076.22
886.855	1073.12
887.03	1096.37
887.206	1135.7
887.381	1113.22
887.557	1105.47
887.732	1134.34
887.908	1134.92
888.083	1104.12
888.258	1075.25
888.434	1074.86
888.609	1116.71
888.784	1145.39
888.96	1074.09
889.135	1071.76
889.31	1064.01
889.485	1095.59
889.661	1100.24
889.836	1140.54
890.011	1106.05
890.186	1097.92
890.361	1080.67
890.537	1164.57
890.712	1106.83
890.887	1104.5
891.062	1066.34
891.237	1127.17
891.412	1077.57
891.587	1115.94
891.762	1131.63
891.937	1121.75
892.112	1071.76
892.287	1121.17
892.462	1030.69
892.637	1028.17
892.812	1030.11
892.987	1006.08
893.161	970.43
893.336	995.81
893.511	995.04
893.686	1024.1
893.861	971.59
894.035	968.88
894.21	998.52
894.385	926.64
894.56	942.92
894.734	893.9
894.909	896.23
895.084	902.43
895.258	853.99
895.433	895.65
895.608	868.71
895.782	823.96
895.957	843.72
896.131	848.37
896.306	762.35
896.48	739.29
896.655	777.85
896.829	710.62
897.004	714.69
897.178	719.14
897.353	710.23
897.527	756.73
897.701	727.28
897.876	693.95
898.05	763.51
898.224	727.86
898.399	759.25
898.573	706.16
898.747	616.07
898.921	659.08
899.096	573.64
899.27	558.72
899.444	559.69
899.618	599.79
899.792	643.39
899.967	639.32
900.141	666.64
900.315	600.18
900.489	612.39
900.663	629.24
900.837	633.12
901.011	587.39
901.185	665.09
901.359	616.84
901.533	637.19
901.707	636.02
901.881	640.09
902.055	578.87
902.229	623.04
902.403	688.34
902.576	651.33
902.75	606.77
902.924	709.65
903.098	685.62
903.272	730.38
903.446	764.09
903.619	752.08
903.793	823.38
903.967	748.59
904.14	833.84
904.314	828.8
904.488	802.84
904.661	822.02
904.835	795.09
905.009	836.94
905.182	880.15
905.356	801.68
905.529	802.65
905.703	766.22
905.876	778.43
906.05	722.63
906.223	724.18
906.397	665.86
906.57	650.75
906.744	585.65
906.917	624.21
907.09	627.11
907.264	587.39
907.437	565.31
907.61	536.05
907.784	548.06
907.957	609.29
908.13	528.3
908.304	589.52
908.477	524.23
908.65	580.22
908.823	523.65
908.996	576.74
909.17	534.11
909.343	517.26
909.516	561.62
909.689	546.13
909.862	501.76
910.035	553.68
910.208	511.06
910.381	504.86
910.554	584.29
910.727	511.83
910.9	537.21
911.073	513.77
911.246	600.76
911.419	598.44
911.592	585.46
911.765	569.18
911.938	500.01
912.11	562.79
912.283	545.54
912.456	572.09
912.629	531.01
912.802	530.04
912.974	458.55
913.147	437.05
913.32	398.49
913.493	413.99
913.665	448.86
913.838	454.87
914.01	449.45
914.183	480.25
914.356	465.91
914.528	517.84
914.701	549.03
914.873	500.79
915.046	462.62
915.218	416.31
915.391	367.1
915.563	377.37
915.736	440.73
915.908	475.41
916.081	468.24
916.253	417.86
916.425	452.35
916.598	482.19
916.77	460.49
916.942	438.98
917.115	370.4
917.287	427.94
917.459	441.31
917.632	417.67
917.804	361.87
917.976	419.41
918.148	454.1
918.32	430.07
918.493	456.81
918.665	493.43
918.837	455.65
919.009	534.69
919.181	539.54
919.353	497.3
919.525	481.03
919.697	501.37
919.869	509.51
920.041	554.26
920.213	608.71
920.385	520.94
920.557	512.41
920.729	508.73
920.901	511.44
921.073	498.08
921.244	482.58
921.416	517.45
921.588	486.26
921.76	459.91
921.932	567.44
922.103	488.78
922.275	500.98
922.447	519.97
922.619	462.04
922.79	489.55
922.962	455.06
923.134	506.41
923.305	425.81
923.477	450.61
923.648	446.35
923.82	432.59
923.991	393.84
924.163	372.72
924.335	430.65
924.506	420.96
924.677	477.73
924.849	406.24
925.02	401.78
925.192	461.07
925.363	457.97
925.535	428.91
925.706	401.59
925.877	456.42
926.049	417.48
926.22	428.91
926.391	430.26
926.562	459.52
926.734	390.55
926.905	453.32
927.076	364.58
927.247	405.66
927.419	348.12
927.59	344.05
927.761	348.7
927.932	322.93
928.103	340.37
928.274	302.78
928.445	313.63
928.616	307.82
928.787	288.63
928.958	310.14
929.129	287.08
929.3	277.2
929.471	261.51
929.642	189.63
929.813	141.39
929.984	263.45
930.155	197.19
930.326	224.31
930.496	185.37
930.667	150.69
930.838	181.88
931.009	127.63
931.18	145.26
931.35	155.92
931.521	178.78
931.692	131.12
931.863	54.98
932.033	120.07
932.204	139.64
932.374	122.21
932.545	62.34
932.716	129.57
932.886	106.13
933.057	63.5
933.227	70.09
933.398	134.8
933.568	57.69
933.739	20.68
933.909	65.83
934.08	88.88
934.25	-0.05
934.421	42.38
934.591	89.85
934.761	45.09
934.932	11.38
935.102	74.16
935.272	23.01
935.443	38.31
935.613	19.71
935.783	89.08
935.953	21.07
936.123	180.91
936.294	33.86
936.464	40.83
936.634	54.98
936.804	12.16
936.974	4.99
937.144	53.23
937.314	66.41
937.484	20.49
937.655	25.72
937.825	97.21
937.995	4.6
938.165	56.91
938.334	35.6
938.504	65.44
938.674	72.22
938.844	82.1
939.014	129.96
939.184	100.31
939.354	149.52
939.524	125.11
939.694	115.81
939.863	94.31
940.033	139.45
940.203	131.12
940.373	138.48
940.542	112.91
940.712	83.26
940.882	159.21
941.051	124.14
941.221	116.01
941.391	136.54
941.56	94.5
941.73	97.02
941.899	197.19
942.069	96.63
942.238	93.14
942.408	72.41
942.577	121.82
942.747	95.28
942.916	31.34
943.086	69.51
943.255	123.56
943.425	100.12
943.594	78.61
943.763	12.16
943.933	11.96
944.102	32.69
944.271	54.2
944.441	79
944.61	63.11
944.779	77.64
944.948	159.21
945.117	31.73
945.287	47.61
945.456	1.31
945.625	36.76
945.794	83.65
945.963	57.49
946.132	78.81
946.301	34.24
946.47	66.99
946.639	29.98
946.808	43.16
946.977	80.36
947.146	108.45
947.315	60.01
947.484	76.29
947.653	79.39
947.822	36.76
947.991	48.78
948.16	135.38
948.329	88.69
948.498	38.31
948.666	90.04
948.835	91.21
949.004	56.91
949.173	20.1
949.341	68.73
949.51	88.11
949.679	115.62
949.847	96.44
950.016	142.55
950.185	119.69
950.353	61.37
950.522	65.63
950.69	149.52
950.859	63.11
951.028	87.91
951.196	103.41
951.365	51.68
951.533	94.69
951.701	90.82
951.87	103.41
952.038	48.19
952.207	45.87
952.375	144.29
952.543	72.03
952.712	69.12
952.88	54.59
953.048	132.28
953.217	83.65
953.385	63.11
953.553	123.17
953.721	41.41
953.89	77.84
954.058	27.85
954.226	35.6
954.394	62.53
954.562	13.13
954.73	90.24
954.898	62.92
955.067	105.35
955.235	51.1
955.403	122.79
955.571	140.61
955.739	109.03
955.907	34.63
956.075	54.2
956.243	49.16
956.41	105.54
956.578	4.99
956.746	10.41
956.914	67.76
957.082	105.54
957.25	84.43
957.418	80.74
957.585	72.61
957.753	119.88
957.921	50.52
958.089	89.08
958.256	93.53
958.424	116.01
958.592	91.59
958.759	24.94
958.927	107.48
959.095	29.01
959.262	68.34
959.43	69.7
959.597	51.49
959.765	72.99
959.932	47.23
960.1	103.22
960.267	98.18
960.435	83.07
960.602	115.42
960.77	71.64
960.937	31.14
961.104	96.05
961.272	16.81
961.439	62.73
961.606	73.38
961.774	101.86
961.941	72.22
962.108	95.47
962.275	82.88
962.443	97.79
962.61	71.06
962.777	174.32
962.944	85.78
963.111	128.21
963.278	127.24
963.446	102.44
963.613	88.11
963.78	102.64
963.947	140.42
964.114	111.55
964.281	165.02
964.448	110
964.615	72.61
964.782	97.79
964.949	145.65
965.116	125.11
965.282	137.9
965.449	110
965.616	48.78
965.783	102.06
965.95	107.87
966.117	64.08
966.283	101.28
966.45	107.87
966.617	126.47
966.784	167.74
966.95	118.14
967.117	103.99
967.284	99.93
967.45	82.1
967.617	137.32
967.784	107.68
967.95	140.03
968.117	115.42
968.283	160.76
968.45	203.39
968.616	151.27
968.783	138.67
968.949	149.14
969.116	177.62
969.282	105.54
969.449	142.94
969.615	116.59
969.781	92.95
969.948	107.48
970.114	88.88
970.28	160.57
970.447	119.3
970.613	175.1
970.779	115.62
970.945	154.76
971.112	118.72
971.278	124.53
971.444	124.14
971.61	140.22
971.776	85.98
971.942	109.42
972.108	134.8
972.275	141.77
972.441	135.77
972.607	171.81
972.773	117.56
972.939	141.39
973.105	117.56
973.271	63.89
973.437	91.79
973.602	80.55
973.768	118.14
973.934	72.41
974.1	128.21
974.266	60.4
974.432	124.92
974.598	87.53
974.763	138.67
974.929	100.89
975.095	150.88
975.261	101.48
975.426	82.88
975.592	107.87
975.758	134.61
975.923	66.41
976.089	56.72
976.255	120.07
976.42	119.69
976.586	116.59
976.751	118.33
976.917	171.22
977.082	110.19
977.248	72.8
977.413	54.78
977.579	90.04
977.744	100.12
977.91	85.01
978.075	72.8
978.24	146.62
978.406	104.38
978.571	101.28
978.736	70.48
978.902	130.73
979.067	70.09
979.232	64.86
979.397	100.31
979.563	141.39
979.728	67.96
979.893	80.55
980.058	70.09
980.223	133.64
980.388	100.31
980.554	88.88
980.719	79
980.884	102.25
981.049	141
981.214	79.19
981.379	121.24
981.544	98.18
981.709	111.55
981.874	94.31
982.039	121.82
982.204	153.4
982.368	100.7
982.533	59.04
982.698	103.41
982.863	130.15
983.028	95.28
983.193	136.54
983.357	96.63
983.522	130.73
983.687	73.77
983.852	116.97
984.016	81.91
984.181	121.62
984.346	102.44
984.51	110.19
984.675	97.6
984.839	118.91
985.004	102.06
985.168	128.21
985.333	116.59
985.498	115.04
985.662	124.14
985.827	126.47
985.991	97.99
986.155	87.72
986.32	109.42
986.484	143.13
986.649	132.86
986.813	42.96
986.977	130.54
987.142	111.16
987.306	67.96
987.47	72.8
987.634	79.97
987.799	91.01
987.963	100.31
988.127	114.84
988.291	179.94
988.455	87.14
988.62	78.81
988.784	103.99
988.948	121.43
989.112	74.35
989.276	107.68
989.44	96.44
989.604	70.28
989.768	83.84
989.932	163.28
990.096	81.33
990.26	76.68
990.424	58.46
990.588	78.23
990.752	129.96
990.915	134.02
991.079	118.72
991.243	66.21
991.407	104.19
991.571	91.21
991.734	131.51
991.898	107.29
992.062	157.86
992.226	91.21
992.389	78.42
992.553	31.73
992.717	65.05
992.88	95.28
993.044	114.65
993.207	62.73
993.371	116.2
993.535	111.55
993.698	91.79
993.862	98.38
994.025	123.17
994.189	83.07
994.352	84.43
994.515	100.89
994.679	149.91
994.842	69.31
995.006	120.27
995.169	68.73
995.332	51.1
995.496	136.16
995.659	9.45
995.822	86.94
995.985	85.98
996.149	117.36
996.312	69.7
996.475	157.66
996.638	73.38
996.801	133.44
996.964	128.02
997.128	62.14
997.291	76.87
997.454	78.03
997.617	54.01
997.78	101.48
997.943	71.06
998.106	111.16
998.269	77.06
998.432	67.96
998.595	81.13
998.758	49.94
998.92	37.73
999.083	17.97
999.246	42.77
999.409	46.84
999.572	13.9
999.735	33.66
999.897	111.55
1000.06	57.88
1000.223	53.04
1000.386	73.58
1000.548	51.88
1000.711	107.87
1000.874	64.47
1001.036	39.67
1001.199	114.46
1001.361	58.85
1001.524	63.31
1001.687	113.49
1001.849	42.77
1002.012	74.93
1002.174	68.93
1002.337	99.34
1002.499	64.47
1002.661	99.73
1002.824	51.88
1002.986	41.8
1003.149	70.09
1003.311	63.11
1003.473	124.53
1003.636	31.34
1003.798	100.51
1003.96	97.41
1004.123	53.43
1004.285	72.41
1004.447	65.83
1004.609	66.21
1004.771	83.07
1004.933	15.06
1005.096	18.36
1005.258	23.98
1005.42	23.98
1005.582	100.12
1005.744	49.74
1005.906	29.21
1006.068	65.63
1006.23	34.83
1006.392	-2.76
1006.554	27.46
1006.716	84.81
1006.878	77.64
1007.04	9.25
1007.202	35.79
1007.363	48
1007.525	76.48
1007.687	69.51
1007.849	103.03
1008.011	5.76
1008.172	29.98
1008.334	50.33
1008.496	48.19
1008.658	22.81
1008.819	42.96
1008.981	37.73
1009.143	39.67
1009.304	62.73
1009.466	67.76
1009.627	98.18
1009.789	136.74
1009.95	67.76
1010.112	50.71
1010.273	39.67
1010.435	34.05
1010.596	30.37
1010.758	44.13
1010.919	35.21
1011.081	40.64
1011.242	12.55
1011.403	48.19
1011.565	39.09
1011.726	54.78
1011.887	19.13
1012.049	38.31
1012.21	71.25
1012.371	109.81
1012.532	-5.67
1012.693	52.26
1012.855	37.34
1013.016	42.19
1013.177	67.57
1013.338	54.78
1013.499	91.59
1013.66	77.45
1013.821	37.93
1013.982	79.19
1014.143	35.21
1014.304	22.81
1014.465	63.69
1014.626	66.6
1014.787	18.16
1014.948	106.9
1015.109	-16.52
1015.27	75.32
1015.431	28.04
1015.592	21.46
1015.752	90.63
1015.913	28.04
1016.074	76.29
1016.235	18.75
1016.395	35.02
1016.556	20.88
1016.717	18.16
1016.877	98.18
1017.038	4.99
1017.199	70.86
1017.359	48.78
1017.52	42.38
1017.681	47.03
1017.841	41.61
1018.002	46.64
1018.162	22.23
1018.323	58.66
1018.483	30.56
1018.644	18.94
1018.804	-0.05
1018.964	-14
1019.125	24.94
1019.285	28.63
1019.446	2.08
1019.606	33.66
1019.766	-18.26
1019.926	37.73
1020.087	25.33
1020.247	-3.92
1020.407	52.46
1020.567	75.32
1020.728	35.41
1020.888	-1.21
1021.048	11.58
1021.208	25.14
1021.368	-10.51
1021.528	61.37
1021.688	77.26
1021.848	55.56
1022.008	67.76
1022.168	23.2
1022.328	23.2
1022.488	66.02
1022.648	8.09
1022.808	56.33
1022.968	38.7
1023.128	6.15
1023.288	29.98
1023.448	24.17
1023.608	45.68
1023.767	29.59
1023.927	-2.57
1024.087	9.45
1024.247	-17.1
1024.406	22.81
1024.566	-3.92
1024.726	7.31
1024.885	39.67
1025.045	48.78
1025.205	27.08
1025.364	38.7
1025.524	62.34
1025.683	3.83
1025.843	28.63
1026.003	23.59
1026.162	67.18
1026.321	49.94
1026.481	38.31
1026.64	10.61
1026.8	31.14
1026.959	21.65
1027.119	13.71
1027.278	14.1
1027.437	-1.02
1027.597	23.98
1027.756	37.93
1027.915	22.04
1028.074	44.13
1028.234	17.2
1028.393	32.89
1028.552	5.96
1028.711	-52.94
1028.87	58.46
1029.03	-20.78
1029.189	37.73
1029.348	-33.18
1029.507	-8.38
1029.666	27.46
1029.825	-4.5
1029.984	18.36
1030.143	15.65
1030.302	20.49
1030.461	-42.09
1030.62	27.66
1030.779	42.38
1030.938	12.74
1031.097	-30.66
1031.255	40.64
1031.414	71.25
1031.573	41.61
1031.732	-17.1
1031.891	26.49
1032.049	89.08
1032.208	59.82
1032.367	5.18
1032.525	1.7
1032.684	14.1
1032.843	37.93
1033.001	-27.37
1033.16	139.84
1033.319	49.36
1033.477	29.59
1033.636	-17.49
1033.794	-26.4
1033.953	50.52
1034.111	32.69
1034.27	15.84
1034.428	25.53
1034.587	-29.5
1034.745	21.65
1034.903	14.48
1035.062	52.26
1035.22	-27.37
1035.378	49.94
1035.537	-11.67
1035.695	42.96
1035.853	8.67
1036.011	54.59
1036.17	40.83
1036.328	-2.37
1036.486	5.18
1036.644	10.03
1036.802	-51.59
1036.96	33.08
1037.119	20.3
1037.277	0.34
1037.435	-35.89
1037.593	12.35
1037.751	21.07
1037.909	34.05
1038.067	34.05
