Data from gum_young_FLMT105791__38__17-38-37-044.txt Node

Date: Mon Mar 20 17:38:37 GMT 2023
User: antho
Spectrometer: FLMT10579
Trigger mode: 0
Integration Time (sec): 1.000000E-1
Scans to average: 10
Electric dark correction enabled: true
Nonlinearity correction enabled: false
Boxcar width: 0
XAxis mode: Wavelengths
Number of Pixels in Spectrum: 3648
>>>>>Begin Spectral Data<<<<<
345.248	-138.77
345.464	-138.77
345.681	-138.77
345.898	-153.88
346.114	-160.08
346.331	-34.15
346.548	23.39
346.764	3.44
346.981	0.15
347.197	-12.64
347.414	25.72
347.631	-24.46
347.847	52.65
348.064	10.61
348.28	-2.95
348.497	-49.84
348.713	8.09
348.93	10.41
349.146	38.7
349.363	-26.4
349.579	17.58
349.796	5.57
350.012	-7.41
350.229	20.3
350.445	-0.24
350.661	-10.12
350.878	-15.55
351.094	35.79
351.311	14.68
351.527	14.1
351.743	-0.82
351.96	24.94
352.176	31.34
352.392	41.03
352.609	22.81
352.825	8.28
353.041	4.99
353.257	-0.44
353.474	18.16
353.69	34.44
353.906	15.45
354.122	-32.4
354.339	55.36
354.555	4.99
354.771	17.58
354.987	66.41
355.203	53.62
355.42	-7.6
355.636	-31.82
355.852	13.32
356.068	-1.02
356.284	-31.44
356.5	73.96
356.716	23.2
356.932	11.19
357.148	28.82
357.364	1.5
357.58	37.54
357.796	62.14
358.012	58.27
358.228	33.28
358.444	-58.37
358.66	32.31
358.876	25.14
359.092	-16.9
359.308	25.72
359.524	13.71
359.74	-2.76
359.956	3.83
360.172	40.06
360.388	38.7
360.604	15.26
360.819	71.06
361.035	9.45
361.251	46.45
361.467	-16.32
361.683	33.47
361.898	8.09
362.114	35.41
362.33	16.42
362.546	42.38
362.762	23.2
362.977	-4.5
363.193	-3.34
363.409	33.86
363.624	-16.9
363.84	7.12
364.056	-0.63
364.271	30.95
364.487	23.59
364.703	19.71
364.918	-14.97
365.134	11.38
365.35	-0.82
365.565	95.08
365.781	25.14
365.996	14.29
366.212	71.25
366.427	22.62
366.643	-17.68
366.858	38.31
367.074	-10.32
367.289	54.59
367.505	102.64
367.72	-28.14
367.936	16.03
368.151	41.41
368.367	38.12
368.582	24.94
368.798	16.81
369.013	77.84
369.228	24.75
369.444	23.59
369.659	69.31
369.874	38.7
370.09	70.67
370.305	-29.69
370.52	13.9
370.736	55.56
370.951	37.93
371.166	62.34
371.381	65.44
371.597	28.04
371.812	-6.44
372.027	-11.29
372.242	-11.09
372.458	63.31
372.673	22.81
372.888	33.47
373.103	30.76
373.318	86.56
373.533	44.13
373.749	27.08
373.964	-16.71
374.179	77.45
374.394	-9.54
374.609	57.88
374.824	7.31
375.039	68.54
375.254	3.25
375.469	69.12
375.684	46.06
375.899	66.79
376.114	33.66
376.329	5.38
376.544	65.44
376.759	55.94
376.974	3.25
377.189	18.36
377.404	22.62
377.619	30.76
377.834	-28.14
378.049	4.6
378.264	8.09
378.478	7.31
378.693	22.81
378.908	51.29
379.123	15.06
379.338	55.36
379.553	23.78
379.767	-2.76
379.982	22.62
380.197	49.94
380.412	22.23
380.626	29.59
380.841	90.63
381.056	49.36
381.271	70.86
381.485	6.15
381.7	-8.57
381.915	42.96
382.129	22.62
382.344	28.43
382.559	23.39
382.773	52.65
382.988	-30.27
383.202	34.44
383.417	5.96
383.632	107.29
383.846	36.57
384.061	41.99
384.275	12.16
384.49	24.56
384.704	56.53
384.919	22.43
385.133	24.75
385.348	57.88
385.562	11.77
385.777	91.21
385.991	39.86
386.206	21.07
386.42	18.94
386.634	64.47
386.849	49.16
387.063	47.23
387.277	10.03
387.492	17.39
387.706	-24.07
387.92	4.99
388.135	71.64
388.349	17.58
388.563	48.78
388.778	41.99
388.992	69.31
389.206	56.33
389.42	76.68
389.635	44.13
389.849	25.53
390.063	70.09
390.277	39.86
390.491	98.76
390.706	49.55
390.92	85.01
391.134	39.86
391.348	70.86
391.562	-22.14
391.776	31.53
391.99	37.54
392.205	47.03
392.419	44.71
392.633	23.01
392.847	77.26
393.061	34.44
393.275	81.91
393.489	35.6
393.703	30.95
393.917	70.09
394.131	31.73
394.345	62.92
394.559	73.19
394.773	31.14
394.986	63.69
395.2	54.78
395.414	48.97
395.628	8.48
395.842	54.01
396.056	33.08
396.27	-15.16
396.484	57.69
396.697	53.23
396.911	73.19
397.125	52.07
397.339	61.56
397.553	51.29
397.766	99.15
397.98	68.73
398.194	49.55
398.408	17.58
398.621	77.45
398.835	70.67
399.049	53.81
399.262	102.06
399.476	87.53
399.69	105.54
399.903	119.3
400.117	43.54
400.331	115.81
400.544	54.01
400.758	169.48
400.971	56.33
401.185	65.05
401.398	39.28
401.612	110.19
401.826	96.05
402.039	80.55
402.253	49.94
402.466	76.29
402.68	82.88
402.893	63.11
403.106	70.09
403.32	59.63
403.533	65.44
403.747	57.3
403.96	99.93
404.174	107.29
404.387	35.21
404.6	64.28
404.814	104.96
405.027	87.14
405.24	106.9
405.454	87.33
405.667	129.37
405.88	24.75
406.094	98.57
406.307	116.39
406.52	85.01
406.733	44.13
406.947	27.85
407.16	128.41
407.373	111.36
407.586	73.77
407.799	40.06
408.012	117.94
408.226	93.92
408.439	123.37
408.652	48.58
408.865	88.49
409.078	116.78
409.291	107.87
409.504	71.83
409.717	119.49
409.93	84.62
410.143	102.64
410.357	49.74
410.57	60.98
410.783	68.34
410.996	69.7
411.209	104.96
411.421	126.27
411.634	107.68
411.847	67.57
412.06	65.44
412.273	68.15
412.486	97.79
412.699	181.88
412.912	111.36
413.125	134.22
413.338	92.76
413.55	104.77
413.763	103.22
413.976	149.33
414.189	74.93
414.402	101.28
414.615	147.78
414.827	85.59
415.04	145.07
415.253	131.51
415.466	115.81
415.678	155.34
415.891	120.07
416.104	105.74
416.316	97.41
416.529	82.88
416.742	148.17
416.954	151.27
417.167	103.99
417.38	113.1
417.592	149.52
417.805	73.38
418.017	62.14
418.23	136.54
418.442	98.57
418.655	120.66
418.868	107.87
419.08	150.49
419.293	181.11
419.505	122.01
419.718	133.44
419.93	161.34
420.142	98.96
420.355	161.54
420.567	142.94
420.78	134.99
420.992	121.62
421.205	155.14
421.417	96.44
421.629	140.42
421.842	103.41
422.054	90.63
422.266	163.86
422.479	173.74
422.691	101.09
422.903	145.26
423.115	86.94
423.328	98.18
423.54	129.57
423.752	131.51
423.964	74.16
424.177	117.75
424.389	130.34
424.601	198.15
424.813	137.51
425.025	178.97
425.238	174.71
425.45	122.98
425.662	132.28
425.874	386.28
426.086	125.11
426.298	137.51
426.51	138.67
426.722	133.83
426.934	122.79
427.146	155.72
427.358	119.11
427.57	141.97
427.782	131.51
427.994	146.81
428.206	126.66
428.418	116.01
428.63	149.72
428.842	181.69
429.054	129.96
429.266	156.69
429.478	104.38
429.69	140.22
429.902	95.66
430.114	133.25
430.325	134.41
430.537	109.03
430.749	118.91
430.961	54.2
431.173	111.74
431.384	132.09
431.596	85.39
431.808	126.86
432.02	137.71
432.231	173.16
432.443	165.02
432.655	165.02
432.867	135.96
433.078	179.56
433.29	221.99
433.502	197.77
433.713	194.67
433.925	162.89
434.136	188.66
434.348	120.46
434.56	78.61
434.771	253.37
434.983	97.41
435.194	122.79
435.406	144.29
435.617	201.25
435.829	216.37
436.04	177.62
436.252	179.36
436.463	219.85
436.675	202.61
436.886	173.94
437.098	182.46
437.309	257.25
437.521	173.74
437.732	178.97
437.943	209.39
438.155	208.42
438.366	121.82
438.578	259.96
438.789	182.46
439	201.84
439.211	193.7
439.423	190.41
439.634	199.9
439.845	204.74
440.057	179.75
440.268	244.27
440.479	158.44
440.69	205.9
440.902	185.95
441.113	207.07
441.324	181.3
441.535	191.96
441.746	235.94
441.957	196.99
442.168	184.01
442.38	230.32
442.591	253.37
442.802	181.69
443.013	173.55
443.224	207.65
443.435	171.03
443.646	214.62
443.857	192.73
444.068	197.19
444.279	187.69
444.49	254.15
444.701	210.75
444.912	313.05
445.123	221.99
445.334	247.95
445.545	252.99
445.756	204.94
445.967	189.44
446.178	226.25
446.388	258.02
446.599	265
446.81	270.42
447.021	217.34
447.232	275.46
447.443	287.28
447.653	211.91
447.864	293.48
448.075	235.16
448.286	260.93
448.496	247.56
448.707	267.71
448.918	252.99
449.129	327.77
449.339	215.59
449.55	255.7
449.761	266.74
449.971	317.12
450.182	260.54
450.393	288.05
450.603	268.29
450.814	287.67
451.024	271
451.235	303.55
451.446	308.98
451.656	288.05
451.867	268.68
452.077	266.94
452.288	343.47
452.498	314.21
452.709	273.52
452.919	314.21
453.13	253.37
453.34	309.75
453.55	235.94
453.761	312.47
453.971	319.25
454.182	307.04
454.392	278.17
454.602	343.08
454.813	291.35
455.023	323.32
455.233	260.93
455.444	309.75
455.654	239.23
455.864	277.98
456.075	272.17
456.285	269.45
456.495	294.64
456.705	310.33
456.916	345.79
457.126	342.5
457.336	298.13
457.546	250.66
457.756	295.03
457.967	345.21
458.177	298.9
458.387	312.66
458.597	285.53
458.807	309.95
459.017	282.05
459.227	302.97
459.437	287.08
459.647	331.65
459.857	340.75
460.068	295.61
460.278	348.89
460.488	322.93
460.698	358.97
460.908	319.05
461.117	278.37
461.327	289.41
461.537	348.5
461.747	342.88
461.957	321.57
462.167	408.37
462.377	374.27
462.587	333.2
462.797	373.11
463.007	333.58
463.216	350.05
463.426	390.16
463.636	373.3
463.846	288.44
464.056	315.57
464.265	374.08
464.475	316.92
464.685	343.47
464.895	350.25
465.104	344.63
465.314	378.53
465.524	329.9
465.733	314.79
465.943	401.78
466.153	398.1
466.362	393.65
466.572	347.73
466.782	362.65
466.991	330.68
467.201	390.74
467.41	307.82
467.62	377.56
467.829	337.07
468.039	387.64
468.249	362.65
468.458	348.5
468.668	375.43
468.877	370.59
469.086	408.37
469.296	403.91
469.505	359.93
469.715	444.02
469.924	414.57
470.134	420.77
470.343	413.21
470.552	377.18
470.762	360.9
470.971	341.33
471.18	417.28
471.39	398.68
471.599	369.23
471.808	439.56
472.018	393.65
472.227	440.34
472.436	417.28
472.645	394.61
472.855	381.25
473.064	462.62
473.273	450.22
473.482	469.98
473.691	457.2
473.901	434.33
474.11	419.61
474.319	513.96
474.528	448.67
474.737	501.95
474.946	424.26
475.155	462.62
475.364	505.63
475.573	471.53
475.783	458.74
475.992	500.59
476.201	506.99
476.41	456.42
476.619	446.54
476.828	454.48
477.037	452.16
477.245	477.73
477.454	518.81
477.663	486.06
477.872	498.27
478.081	549.22
478.29	436.85
478.499	555.42
478.708	506.6
478.917	569.96
479.125	508.93
479.334	528.88
479.543	511.83
479.752	511.25
479.961	507.96
480.169	566.66
480.378	502.34
480.587	641.45
480.796	572.28
481.004	565.5
481.213	575.77
481.422	575.77
481.63	564.34
481.839	601.34
482.048	635.64
482.256	568.79
482.465	579.06
482.674	627.31
482.882	608.51
483.091	662.57
483.299	612.39
483.508	631.96
483.716	610.06
483.925	622.27
484.134	598.82
484.342	602.7
484.551	632.92
484.759	598.24
484.967	622.85
485.176	653.27
485.384	650.55
485.593	636.8
485.801	620.33
486.01	625.17
486.218	593.4
486.426	537.6
486.635	575.77
486.843	578.87
487.051	592.43
487.26	583.13
487.468	613.74
487.676	628.08
487.885	627.69
488.093	635.83
488.301	626.92
488.509	661.79
488.717	671.09
488.926	666.64
489.134	628.47
489.342	668.38
489.55	644.94
489.758	677.29
489.967	675.94
490.175	784.05
490.383	691.05
490.591	771.07
490.799	669.74
491.007	745.88
491.215	742
491.423	730.77
491.631	708.68
491.839	706.55
492.047	732.51
492.255	713.91
492.463	673.61
492.671	684.46
492.879	747.62
493.087	699.96
493.295	758.47
493.503	766.03
493.711	782.88
493.919	802.65
494.127	798.38
494.334	779.01
494.542	730.77
494.75	781.33
494.958	781.14
495.166	823.38
495.374	827.83
495.581	819.11
495.789	832.1
495.997	838.88
496.205	796.45
496.412	785.4
496.62	807.88
496.828	808.65
497.035	838.68
497.243	844.11
497.451	840.23
497.658	822.8
497.866	866.97
498.074	900.1
498.281	844.11
498.489	915.79
498.696	876.08
498.904	848.37
499.112	821.44
499.319	909.98
499.527	886.54
499.734	945.24
499.942	829
500.149	860.38
500.357	857.09
500.564	867.16
500.771	885.76
500.979	879.18
501.186	852.25
501.394	917.54
501.601	868.33
501.808	912.5
502.016	922.58
502.223	889.83
502.43	884.8
502.638	897
502.845	884.8
503.052	975.47
503.26	918.89
503.467	979.73
503.674	968.3
503.881	950.09
504.089	1043.86
504.296	948.15
504.503	905.72
504.71	937.3
504.917	924.51
505.125	980.31
505.332	990.77
505.539	1004.14
505.746	1086.49
505.953	1042.51
506.16	1037.08
506.367	1126.79
506.574	1102.95
506.781	1081.06
506.988	1057.81
507.195	1040.18
507.402	1059.56
507.609	1095.98
507.816	1051.22
508.023	1097.92
508.23	1049.29
508.437	1033.4
508.644	1101.99
508.851	1154.49
509.058	1136.86
509.265	1137.83
509.472	1171.54
509.679	1220.56
509.885	1131.24
510.092	1172.12
510.299	1156.82
510.506	1177.16
510.713	1188.2
510.92	1213
511.126	1221.14
511.333	1248.46
511.54	1249.81
511.746	1285.85
511.953	1285.66
512.16	1319.76
512.367	1249.23
512.573	1253.3
512.78	1244.58
512.987	1276.55
513.193	1268.61
513.4	1221.33
513.606	1262.21
513.813	1307.75
514.02	1304.45
514.226	1341.65
514.433	1361.8
514.639	1267.83
514.846	1337.97
515.052	1302.71
515.259	1318.98
515.465	1329.64
515.672	1356.57
515.878	1447.24
516.085	1365.29
516.291	1378.08
516.497	1374.98
516.704	1365.87
516.91	1344.56
517.117	1262.02
517.323	1238.19
517.529	1279.07
517.736	1269.77
517.942	1324.6
518.148	1324.99
518.354	1364.51
518.561	1361.22
518.767	1369.94
518.973	1403.84
519.179	1442.98
519.386	1419.73
519.592	1431.74
519.798	1444.34
520.004	1546.05
520.21	1483.09
520.417	1565.24
520.623	1550.51
520.829	1595.65
521.035	1614.64
521.241	1603.4
521.447	1636.73
521.653	1763.44
521.859	1607.28
522.065	1656.3
522.271	1742.71
522.477	1715.97
522.683	1753.36
522.889	1710.35
523.095	1699.5
523.301	1678.38
523.507	1654.55
523.713	1720.62
523.919	1726.63
524.125	1823.69
524.331	1743.29
524.537	1865.93
524.742	1872.71
524.948	1863.61
525.154	1866.9
525.36	1917.66
525.566	1809.55
525.772	1922.7
525.977	1842.68
526.183	1888.02
526.389	1911.66
526.595	1839.78
526.8	1817.3
527.006	1770.41
527.212	1739.41
527.417	1715
527.623	1722.75
527.829	1847.14
528.034	1849.27
528.24	1843.26
528.446	1867.29
528.651	1950.6
528.857	1947.11
529.062	2073.82
529.268	2003.69
529.473	2013.37
529.679	2065.68
529.884	2082.15
530.09	2028.49
530.295	2035.27
530.501	2073.05
530.706	2045.53
530.912	2063.36
531.117	2104.82
531.323	2104.05
531.528	2152.48
531.733	2109.28
531.939	2053.48
532.144	2132.91
532.35	2090.29
532.555	2174.57
532.76	2096.88
532.966	2114.7
533.171	2130.01
533.376	2056.58
533.581	2037.98
533.787	2107.73
533.992	2147.64
534.197	2158.88
534.402	2128.07
534.607	2153.06
534.813	2228.04
535.018	2145.51
535.223	2160.81
535.428	2167.98
535.633	2216.61
535.838	2249.16
536.043	2260.4
536.249	2324.53
536.454	2258.66
536.659	2271.83
536.864	2246.06
537.069	2241.61
537.274	2248.39
537.479	2242.58
537.684	2211.96
537.889	2182.9
538.094	2355.72
538.299	2270.28
538.504	2302.25
538.708	2260.4
538.913	2330.73
539.118	2268.15
539.323	2332.67
539.528	2248.39
539.733	2272.41
539.938	2294.89
540.142	2302.83
540.347	2262.73
540.552	2236.57
540.757	2211.77
540.962	2245.48
541.166	2190.46
541.371	2206.73
541.576	2218.16
541.781	2142.8
541.985	2280.94
542.19	2241.61
542.395	2372.39
542.599	2365.02
542.804	2298.57
543.008	2361.15
543.213	2320.07
543.418	2291.01
543.622	2353.4
543.827	2274.16
544.031	2359.79
544.236	2353.4
544.44	2322.59
544.645	2410.94
544.849	2369.67
545.054	2385.75
545.258	2447.56
545.463	2438.45
545.667	2322.79
545.872	2385.17
546.076	2372.58
546.281	2370.45
546.485	2348.56
546.689	2412.49
546.894	2361.34
547.098	2410.36
547.302	2329.37
547.507	2366.57
547.711	2441.75
547.915	2428.38
548.119	2303.02
548.324	2374.52
548.528	2453.18
548.732	2397.19
548.936	2423.92
549.141	2431.67
549.345	2392.54
549.549	2428.57
549.753	2418.69
549.957	2497.35
550.161	2476.43
550.366	2417.72
550.57	2396.8
550.774	2448.34
550.978	2456.28
551.182	2490.96
551.386	2407.84
551.59	2428.77
551.794	2393.5
551.998	2442.33
552.202	2434.77
552.406	2409.39
552.61	2459.19
552.814	2427.99
553.018	2464.61
553.222	2421.21
553.426	2440
553.63	2488.44
553.833	2431.67
554.037	2390.21
554.241	2457.05
554.445	2465.19
554.649	2435.74
554.853	2450.85
555.056	2489.99
555.26	2483.4
555.464	2515.95
555.668	2493.67
555.871	2496.58
556.075	2483.21
556.279	2434.58
556.483	2418.11
556.686	2432.25
556.89	2416.95
557.094	2421.79
557.297	2326.08
557.501	2447.75
557.704	2342.16
557.908	2407.26
558.112	2367.16
558.315	2454.15
558.519	2376.46
558.722	2361.92
558.926	2339.64
559.129	2295.86
559.333	2212.35
559.536	2274.35
559.74	2300.31
559.943	2268.93
560.147	2275.71
560.35	2295.66
560.553	2326.86
560.757	2296.63
560.96	2321.43
561.164	2311.74
561.367	2386.14
561.57	2315.62
561.774	2307.67
561.977	2249.36
562.18	2251.68
562.384	2347.01
562.587	2260.01
562.79	2247.23
562.993	2241.99
563.197	2264.86
563.4	2329.18
563.603	2293.34
563.806	2333.64
564.009	2263.69
564.212	2270.67
564.416	2208.48
564.619	2263.69
564.822	2201.89
565.025	2294.31
565.228	2222.43
565.431	2224.56
565.634	2153.06
565.837	2159.26
566.04	2181.74
566.243	2161.4
566.446	2083.32
566.649	2172.44
566.852	2100.56
567.055	2181.93
567.258	2146.67
567.461	2219.33
567.664	2159.07
567.867	2069.56
568.07	2103.66
568.273	2114.12
568.475	2177.09
568.678	2070.33
568.881	2087.58
569.084	2062
569.287	1996.32
569.489	1996.71
569.692	2057.55
569.895	2055.22
570.098	1982.37
570.3	1955.05
570.503	1917.27
570.706	1961.06
570.909	1936.07
571.111	1885.69
571.314	1924.44
571.516	1888.6
571.719	1919.99
571.922	1867.29
572.124	1893.06
572.327	1905.46
572.529	1900.61
572.732	1863.61
572.935	1911.46
573.137	1934.52
573.34	1882.79
573.542	1922.89
573.745	1907.01
573.947	1909.52
574.15	1880.07
574.352	1848.11
574.554	1937.23
574.757	1814.2
574.959	1807.03
575.162	1870.19
575.364	1795.41
575.566	1869.61
575.769	1768.48
575.971	1817.69
576.173	1725.46
576.376	1805.68
576.578	1849.08
576.78	1817.3
576.982	1727.98
577.185	1767.51
577.387	1758.01
577.589	1763.44
577.791	1766.15
577.993	1796.38
578.196	1747.36
578.398	1735.35
578.6	1785.91
578.802	1696.21
579.004	1705.31
579.206	1716.36
579.408	1758.21
579.61	1728.76
579.812	1802.58
580.014	1726.24
580.216	1725.85
580.418	1738.64
580.62	1752.78
580.822	1709.38
581.024	1773.71
581.226	1793.47
581.428	1759.18
581.63	1843.65
581.832	1749.68
582.034	1803.74
582.236	1782.43
582.438	1790.37
582.64	1824.66
582.841	1819.24
583.043	1854.69
583.245	1797.73
583.447	1835.9
583.649	1771.19
583.85	1795.79
584.052	1806.84
584.254	1729.73
584.456	1796.38
584.657	1742.9
584.859	1794.24
585.061	1747.55
585.262	1737.86
585.464	1701.05
585.666	1770.22
585.867	1697.95
586.069	1755.3
586.27	1727.6
586.472	1683.42
586.674	1673.35
586.875	1702.8
587.077	1710.16
587.278	1691.95
587.48	1719.85
587.681	1817.69
587.883	1726.43
588.084	1609.6
588.285	1647
588.487	1665.21
588.688	1652.42
588.89	1560.78
589.091	1568.34
589.292	1537.53
589.494	1513.31
589.695	1473.4
589.896	1427.09
590.098	1411.98
590.299	1478.82
590.5	1427.67
590.702	1497.04
590.903	1497.62
591.104	1572.4
591.305	1536.95
591.507	1557.1
591.708	1545.86
591.909	1538.11
592.11	1604.18
592.311	1603.21
592.512	1527.45
592.714	1500.72
592.915	1516.41
593.116	1538.69
593.317	1545.28
593.518	1555.55
593.719	1525.52
593.92	1607.67
594.121	1610.96
594.322	1578.41
594.523	1552.25
594.724	1492.39
594.925	1489.48
595.126	1532.1
595.327	1551.87
595.528	1514.67
595.729	1546.64
595.929	1503.43
596.13	1513.5
596.331	1551.29
596.532	1563.88
596.733	1616.77
596.934	1618.13
597.135	1600.11
597.335	1533.07
597.536	1521.45
597.737	1573.37
597.938	1519.9
598.138	1567.56
598.339	1538.5
598.54	1558.26
598.74	1563.88
598.941	1540.05
599.142	1605.92
599.342	1557.29
599.543	1484.64
599.744	1542.95
599.944	1535.01
600.145	1543.34
600.345	1533.46
600.546	1612.12
600.746	1606.31
600.947	1633.82
601.147	1587.9
601.348	1617.35
601.548	1551.87
601.749	1581.12
601.949	1512.73
602.15	1510.6
602.35	1520.67
602.551	1531.91
602.751	1499.75
602.951	1514.86
603.152	1478.63
603.352	1559.42
603.552	1552.45
603.753	1573.37
603.953	1585
604.153	1558.45
604.354	1523.97
604.554	1537.92
604.754	1512.34
604.954	1516.41
605.155	1541.79
605.355	1539.66
605.555	1556.52
605.755	1570.47
605.955	1519.7
606.155	1539.47
606.356	1528.81
606.556	1554.97
606.756	1546.25
606.956	1479.79
607.156	1551.29
607.356	1514.09
607.556	1512.73
607.756	1508.27
607.956	1520.29
608.156	1480.96
608.356	1440.46
608.556	1530.17
608.756	1460.42
608.956	1483.67
609.156	1505.56
609.356	1434.84
609.556	1482.31
609.755	1492.58
609.955	1442.59
610.155	1481.54
610.355	1480.18
610.555	1447.44
610.755	1447.24
610.954	1395.13
611.154	1458.87
611.354	1491.03
611.554	1439.88
611.753	1422.25
611.953	1410.24
612.153	1460.22
612.352	1428.06
612.552	1374.59
612.752	1364.51
612.951	1441.82
613.151	1377.69
613.351	1367.81
613.55	1410.04
613.75	1388.54
613.949	1402.29
614.149	1374.78
614.348	1375.36
614.548	1370.71
614.747	1330.8
614.947	1392.22
615.146	1303.87
615.346	1426.71
615.545	1376.72
615.745	1378.85
615.944	1366.26
616.144	1375.94
616.343	1379.04
616.542	1367.42
616.742	1334.29
616.941	1331.96
617.14	1284.3
617.34	1325.18
617.539	1319.56
617.738	1270.55
617.938	1385.44
618.137	1304.45
618.336	1272.29
618.535	1345.91
618.734	1304.45
618.934	1332.16
619.133	1327.9
619.332	1330.61
619.531	1301.93
619.73	1305.81
619.929	1352.11
620.128	1351.92
620.328	1380.79
620.527	1306
620.726	1298.83
620.925	1339.71
621.124	1290.31
621.323	1342.62
621.522	1239.16
621.721	1287.6
621.92	1252.53
622.119	1322.47
622.318	1287.21
622.517	1316.85
622.715	1298.83
622.914	1204.09
623.113	1264.54
623.312	1220.95
623.511	1249.62
623.71	1256.98
623.909	1222.3
624.107	1296.7
624.306	1197.31
624.505	1232.77
624.704	1240.32
624.902	1202.54
625.101	1264.15
625.3	1215.72
625.499	1207.77
625.697	1209.52
625.896	1169.8
626.095	1247.88
626.293	1147.32
626.492	1193.24
626.69	1219.2
626.889	1205.64
627.088	1230.83
627.286	1178.32
627.485	1175.8
627.683	1148.29
627.882	1186.46
628.08	1112.45
628.279	1150.42
628.477	1211.65
628.676	1137.44
628.874	1159.92
629.073	1101.99
629.271	1120.97
629.469	1179.68
629.668	1135.31
629.866	1126.4
630.065	1100.63
630.263	1166.7
630.461	1098.5
630.66	1124.85
630.858	1143.84
631.056	1160.3
631.254	1200.02
631.453	1089.39
631.651	1189.95
631.849	1186.65
632.047	1144.8
632.245	1111.09
632.444	1151.2
632.642	1172.12
632.84	1187.04
633.038	1128.34
633.236	1110.51
633.434	1098.69
633.632	1105.47
633.83	1122.33
634.028	1167.28
634.227	1159.53
634.425	1229.28
634.623	1152.94
634.821	1198.67
635.019	1165.15
635.216	1128.92
635.414	1181.81
635.612	1155.27
635.81	1150.42
636.008	1207.38
636.206	1129.89
636.404	1184.33
636.602	1118.26
636.8	1155.46
636.997	1172.51
637.195	1175.03
637.393	1177.35
637.591	1210.68
637.789	1169.99
637.986	1138.22
638.184	1155.07
638.382	1174.25
638.58	1180.65
638.777	1203.7
638.975	1169.22
639.173	1166.5
639.37	1160.11
639.568	1117.29
639.765	1176
639.963	1095.79
640.161	1146.94
640.358	1163.79
640.556	1091.14
640.753	1100.44
640.951	1068.08
641.148	1130.47
641.346	1104.31
641.543	1090.36
641.741	1095.01
641.938	1056.65
642.136	1094.82
642.333	1066.14
642.531	1090.36
642.728	1128.14
642.925	1071.76
643.123	1052
643.32	1063.43
643.517	1064.79
643.715	1084.55
643.912	1033.21
644.109	1057.04
644.306	1049.09
644.504	1031.46
644.701	988.06
644.898	1054.13
645.095	1009.57
645.293	1018.48
645.49	1026.42
645.687	1032.04
645.884	1053.55
646.081	945.44
646.278	1013.83
646.475	932.65
646.672	990.77
646.87	987.87
647.067	958.81
647.264	943.89
647.461	915.02
647.658	896.03
647.855	966.94
648.052	914.63
648.249	853.02
648.446	917.34
648.642	892.74
648.839	891.19
649.036	872.78
649.233	846.82
649.43	869.1
649.627	855.54
649.824	908.24
650.021	852.63
650.217	867.55
650.414	877.82
650.611	889.06
650.808	916.57
651.004	884.41
651.201	874.33
651.398	932.65
651.595	895.64
651.791	860.38
651.988	898.36
652.185	866
652.381	891.77
652.578	842.56
652.775	889.06
652.971	888.09
653.168	840.43
653.364	903.39
653.561	830.35
653.757	863.1
653.954	881.89
654.15	814.85
654.347	917.15
654.543	859.61
654.74	794.7
654.936	821.63
655.133	845.08
655.329	816.21
655.525	825.12
655.722	864.06
655.918	773.58
656.115	825.9
656.311	724.95
656.507	716.04
656.704	671.29
656.9	744.52
657.096	725.34
657.292	725.34
657.489	769.9
657.685	764.28
657.881	763.9
658.077	767.97
658.273	794.32
658.47	831.32
658.666	816.79
658.862	831.51
659.058	782.5
659.254	849.73
659.45	764.87
659.646	813.69
659.842	777.85
660.038	822.02
660.234	779.4
660.43	780.56
660.626	844.5
660.822	816.4
661.018	816.98
661.214	823.38
661.41	765.45
661.606	839.65
661.802	821.83
661.998	789.28
662.194	778.82
662.39	805.36
662.586	790.44
662.781	803.03
662.977	781.72
663.173	788.7
663.369	779.4
663.564	773.58
663.76	802.26
663.956	753.63
664.152	801.68
664.347	726.89
664.543	741.62
664.739	751.11
664.934	680.2
665.13	697.05
665.326	760.8
665.521	719.92
665.717	695.5
665.912	716.04
666.108	640.67
666.304	686.98
666.499	724.76
666.695	650.17
666.89	708.1
667.086	759.44
667.281	741.03
667.477	764.87
667.672	722.82
667.867	675.55
668.063	694.92
668.258	662.95
668.454	688.14
668.649	733.09
668.844	703.06
669.04	718.75
669.235	671.48
669.43	666.25
669.626	666.64
669.821	687.37
670.016	645.71
670.211	674.19
670.407	609.48
670.602	671.67
670.797	669.15
670.992	716.82
671.187	636.99
671.382	716.82
671.578	651.72
671.773	683.49
671.968	620.33
672.163	656.95
672.358	687.75
672.553	638.93
672.748	634.67
672.943	718.75
673.138	640.09
673.333	680.2
673.528	637.57
673.723	653.46
673.918	662.57
674.113	602.7
674.308	684.07
674.503	664.89
674.698	646.49
674.892	643.39
675.087	666.25
675.282	658.89
675.477	612.58
675.672	666.25
675.867	619.36
676.061	625.95
676.256	600.76
676.451	618.01
676.646	649.2
676.84	611.22
677.035	603.67
677.23	582.55
677.424	635.64
677.619	676.9
677.814	664.12
678.008	650.55
678.203	595.53
678.397	588.75
678.592	628.27
678.787	667.8
678.981	633.31
679.176	664.7
679.37	647.84
679.565	604.64
679.759	637.38
679.954	654.62
680.148	673.61
680.342	670.32
680.537	662.76
680.731	611.42
680.926	675.94
681.12	656.56
681.314	622.07
681.509	658.89
681.703	647.26
681.897	666.25
682.092	658.3
682.286	614.13
682.48	685.24
682.674	674.97
682.869	639.32
683.063	672.64
683.257	701.9
683.451	641.45
683.645	663.73
683.839	657.34
684.034	631.96
684.228	711.78
684.422	616.26
684.616	621.69
684.81	669.35
685.004	642.8
685.198	688.14
685.392	717.79
685.586	673.42
685.78	692.21
685.974	719.72
686.168	692.21
686.362	747.04
686.556	634.67
686.75	624.79
686.944	621.69
687.138	623.24
687.331	536.63
687.525	562.21
687.719	494.39
687.913	551.16
688.107	600.37
688.301	543.99
688.494	595.34
688.688	587.59
688.882	554.46
689.076	550.97
689.269	568.41
689.463	683.1
689.657	630.6
689.85	610.06
690.044	643.97
690.238	651.14
690.431	674.58
690.625	661.79
690.818	694.73
691.012	695.31
691.205	743.55
691.399	705.58
691.593	774.17
691.786	783.85
691.98	817.56
692.173	862.51
692.366	831.9
692.56	837.52
692.753	904.17
692.947	834.42
693.14	912.69
693.333	934.98
693.527	882.66
693.72	879.76
693.914	892.35
694.107	907.08
694.3	958.03
694.493	890.22
694.687	983.8
694.88	927.42
695.073	1031.46
695.266	1002.01
695.46	1022.74
695.653	1049.87
695.846	1038.82
696.039	1008.02
696.232	1054.52
696.425	1132.02
696.618	1130.47
696.812	1130.27
697.005	1210.48
697.198	1278.68
697.391	1236.64
697.584	1283.33
697.777	1300
697.97	1286.63
698.163	1312.98
698.356	1304.45
698.549	1339.33
698.742	1372.84
698.935	1297.09
699.127	1354.44
699.32	1299.61
699.513	1310.65
699.706	1345.91
699.899	1416.24
700.092	1366.06
700.285	1420.31
700.477	1326.15
700.67	1402.29
700.863	1428.45
701.056	1505.76
701.248	1475.53
701.441	1509.63
701.634	1483.67
701.826	1560.2
702.019	1461.39
702.212	1540.05
702.404	1492.58
702.597	1479.41
702.79	1543.15
702.982	1578.6
703.175	1585.77
703.367	1614.83
703.56	1638.47
703.752	1720.23
703.945	1663.66
704.137	1692.33
704.33	1719.46
704.522	1754.33
704.715	1764.6
704.907	1729.34
705.1	1807.42
705.292	1788.24
705.484	1783.01
705.677	1835.51
705.869	1813.62
706.061	1874.65
706.254	1911.85
706.446	1830.09
706.638	1852.56
706.831	1944.01
707.023	1905.07
707.215	1986.83
707.407	1983.15
707.599	1972.1
707.792	1994.39
707.984	1959.32
708.176	1999.62
708.368	1999.23
708.56	2046.12
708.752	2006.2
708.944	2038.17
709.136	2066.46
709.329	2081.38
709.521	2177.09
709.713	2164.5
709.905	2110.63
710.097	2166.82
710.289	2153.26
710.481	2178.64
710.672	2164.88
710.864	2234.44
711.056	2243.35
711.248	2251.29
711.44	2233.08
711.632	2267.38
711.824	2307.29
712.016	2317.94
712.207	2302.83
712.399	2338.29
712.591	2377.62
712.783	2346.42
712.975	2351.85
713.166	2312.91
713.358	2358.63
713.55	2353.79
713.741	2396.99
713.933	2409.2
714.125	2408.62
714.316	2369.87
714.508	2458.8
714.7	2431.09
714.891	2375.1
715.083	2443.88
715.274	2424.7
715.466	2446.4
715.657	2453.95
715.849	2401.84
716.04	2419.08
716.232	2386.72
716.423	2384.59
716.615	2345.65
716.806	2260.79
716.998	2212.93
717.189	2111.6
717.381	2046.89
717.572	1986.25
717.763	2004.27
717.955	1960.09
718.146	1909.52
718.337	1857.6
718.528	1858.57
718.72	1783.01
718.911	1785.33
719.102	1779.33
719.293	1823.89
719.485	1759.95
719.676	1802.38
719.867	1747.36
720.058	1744.65
720.249	1758.4
720.44	1802.96
720.632	1836.68
720.823	1927.35
721.014	2030.62
721.205	2018.99
721.396	2097.27
721.587	2240.64
721.778	2295.27
721.969	2318.52
722.16	2372
722.351	2386.34
722.542	2489.22
722.733	2470.42
722.924	2451.63
723.115	2427.6
723.305	2412.1
723.496	2399.32
723.687	2298.57
723.878	2305.93
724.069	2294.69
724.26	2311.74
724.45	2233.47
724.641	2226.88
724.832	2261.76
725.023	2202.66
725.213	2245.87
725.404	2232.31
725.595	2227.27
725.785	2196.46
725.976	2261.18
726.167	2274.35
726.357	2301.09
726.548	2385.17
726.739	2238.51
726.929	2359.99
727.12	2387.3
727.31	2370.84
727.501	2305.93
727.691	2308.06
727.882	2341.39
728.072	2366.19
728.263	2402.22
728.453	2430.12
728.644	2478.95
728.834	2418.89
729.024	2393.7
729.215	2395.05
729.405	2441.75
729.596	2478.95
729.786	2501.62
729.976	2510.53
730.167	2493.87
730.357	2489.99
730.547	2501.42
730.737	2526.61
730.928	2552.38
731.118	2593.65
731.308	2532.62
731.498	2601.2
731.688	2660.88
731.879	2691.49
732.069	2719.97
732.259	2707.76
732.449	2807.16
732.639	2864.12
732.829	2890.08
733.019	2862.57
733.209	2958.28
733.399	2953.43
733.589	3069.1
733.779	3123.35
733.969	3097.39
734.159	3151.06
734.349	3164.23
734.539	3223.71
734.729	3222.74
734.919	3190.19
735.109	3305.47
735.299	3191.94
735.488	3247.54
735.678	3257.04
735.868	3211.51
736.058	3265.56
736.248	3220.42
736.437	3182.25
736.627	3196.39
736.817	3316.71
737.007	3204.14
737.196	3346.93
737.386	3294.24
737.576	3266.14
737.765	3320.59
737.955	3300.44
738.144	3407.58
738.334	3383.94
738.524	3286.29
738.713	3384.52
738.903	3372.9
739.092	3428.31
739.282	3397.7
739.471	3394.79
739.661	3382.2
739.85	3405.06
740.04	3461.44
740.229	3490.11
740.419	3555.6
740.608	3486.63
740.797	3442.45
740.987	3535.45
741.176	3552.11
741.365	3516.85
741.555	3467.45
741.744	3580.59
741.933	3492.25
742.123	3526.34
742.312	3563.93
742.501	3590.09
742.69	3656.74
742.88	3545.91
743.069	3667.2
743.258	3586.6
743.447	3664.29
743.636	3675.34
743.825	3625.16
744.014	3654.61
744.204	3685.61
744.393	3614.11
744.582	3678.05
744.771	3691.8
744.96	3658.87
745.149	3704.59
745.338	3630.58
745.527	3727.07
745.716	3653.64
745.905	3661
746.094	3741.6
746.283	3737.14
746.471	3695.29
746.66	3729.97
746.849	3724.16
747.038	3778.41
747.227	3660.81
747.416	3727.45
747.604	3737.34
747.793	3684.44
747.982	3695.87
748.171	3719.32
748.359	3687.74
748.548	3716.41
748.737	3694.32
748.926	3698
749.114	3605.2
749.303	3666.81
749.491	3681.34
749.68	3598.03
749.869	3727.26
750.057	3667.97
750.246	3621.86
750.434	3666.04
750.623	3680.76
750.811	3650.73
751	3717.19
751.188	3634.26
751.377	3638.91
751.565	3636.59
751.754	3604.62
751.942	3554.63
752.131	3653.25
752.319	3612.17
752.507	3553.28
752.696	3615.86
752.884	3655.57
753.072	3631.55
753.261	3617.41
753.449	3629.81
753.637	3624.77
753.825	3669.91
754.014	3630.19
754.202	3588.93
754.39	3634.26
754.578	3647.24
754.766	3577.49
754.955	3547.85
755.143	3634.84
755.331	3581.76
755.519	3588.54
755.707	3563.54
755.895	3575.75
756.083	3547.46
756.271	3515.5
756.459	3567.23
756.647	3549.79
756.835	3518.01
757.023	3505.03
757.211	3505.81
757.399	3444.97
757.587	3528.09
757.775	3446.33
757.963	3486.63
758.151	3470.93
758.339	3442.84
758.526	3415.52
758.714	3459.31
758.902	3323.49
759.09	3231.85
759.278	3022.6
759.465	2775.77
759.653	2357.66
759.841	2180.19
760.028	1895.57
760.216	1614.45
760.404	1499.75
760.591	1210.68
760.779	1027.78
760.967	901.65
761.154	735.42
761.342	785.02
761.529	776.49
761.717	815.63
761.905	808.65
762.092	885.76
762.28	811.75
762.467	784.82
762.655	750.53
762.842	753.43
763.029	752.27
763.217	768.16
763.404	752.66
763.592	816.79
763.779	745.68
763.966	821.25
764.154	845.08
764.341	894.1
764.528	879.37
764.716	954.74
764.903	1018.87
765.09	1106.64
765.277	1120.59
765.465	1265.51
765.652	1371.88
765.839	1448.6
766.026	1541.6
766.213	1616.77
766.4	1719.85
766.588	1916.11
766.775	1941.11
766.962	2040.11
767.149	2119.74
767.336	2296.63
767.523	2259.24
767.71	2405.13
767.897	2539.01
768.084	2583.96
768.271	2638.98
768.458	2676.18
768.645	2785.07
768.832	2769.96
769.019	2769.96
769.206	2832.54
769.392	2931.54
769.579	3001.87
769.766	2968.93
769.953	2952.66
770.14	3044.11
770.327	2995.09
770.513	3030.74
770.7	3093.32
770.887	3059.03
771.073	3112.31
771.26	3051.08
771.447	3035.2
771.634	3060.77
771.82	3134.39
772.007	3051.86
772.193	3125.29
772.38	3128.97
772.567	3091.58
772.753	3072.59
772.94	3124.9
773.126	3128
773.313	3150.28
773.499	3087.7
773.686	3163.07
773.872	3087.7
774.059	3121.61
774.245	3057.09
774.432	3086.34
774.618	3018.15
774.804	3044.3
774.991	3008.65
775.177	3077.05
775.363	3057.09
775.55	3112.31
775.736	3052.83
775.922	3016.79
776.109	3033.45
776.295	3042.95
776.481	3037.33
776.667	3065.03
776.853	3055.93
777.04	2996.06
777.226	3002.84
777.412	3073.56
777.598	2992.77
777.784	2985.6
777.97	2971.65
778.156	2992.96
778.342	2999.93
778.528	2948.01
778.715	2908.29
778.901	2964.09
779.087	2978.62
779.272	2918.37
779.458	2938.52
779.644	2975.91
779.83	2936.38
780.016	3013.3
780.202	2943.36
780.388	2923.98
780.574	2840.09
780.76	2898.41
780.946	2973.2
781.131	2915.07
781.317	2903.06
781.503	2874
781.689	2870.51
781.874	2939.87
782.06	2849
782.246	2884.85
782.432	2844.74
782.617	2899.38
782.803	2895.7
782.989	2824.01
783.174	2781.19
783.36	2754.84
783.545	2811.03
783.731	2784.68
783.916	2696.14
784.102	2816.84
784.288	2734.69
784.473	2778.48
784.659	2759.11
784.844	2808.32
785.029	2752.13
785.215	2707.76
785.4	2709.51
785.586	2821.88
785.771	2712.61
785.956	2778.87
786.142	2703.5
786.327	2725.01
786.512	2690.33
786.698	2714.16
786.883	2635.5
787.068	2674.05
787.254	2681.22
787.439	2640.34
787.624	2639.95
787.809	2628.91
787.994	2618.64
788.18	2680.44
788.365	2540.56
788.55	2596.94
788.735	2588.22
788.92	2572.72
789.105	2572.33
789.29	2599.26
789.475	2526.22
789.66	2533.58
789.845	2501.23
790.03	2444.07
790.215	2515.57
790.4	2522.73
790.585	2527.58
790.77	2505.88
790.955	2452.21
791.14	2490.57
791.325	2546.76
791.51	2451.63
791.695	2489.8
791.879	2491.73
792.064	2434
792.249	2530.29
792.434	2475.07
792.618	2497.55
792.803	2504.13
792.988	2473.13
793.173	2468.29
793.357	2512.08
793.542	2433.22
793.727	2508.78
793.911	2552.18
794.096	2510.72
794.281	2543.08
794.465	2572.14
794.65	2527.97
794.834	2549.47
795.019	2590.93
795.203	2561.29
795.388	2567.49
795.572	2595.78
795.757	2540.56
795.941	2572.72
796.126	2477.98
796.31	2495.8
796.494	2487.47
796.679	2487.47
796.863	2441.17
797.048	2561.87
797.232	2524.87
797.416	2568.65
797.601	2508.4
797.785	2551.22
797.969	2600.04
798.153	2505.3
798.338	2567.49
798.522	2551.99
798.706	2552.77
798.89	2570.98
799.074	2669.01
799.258	2591.32
799.443	2586.86
799.627	2547.34
799.811	2588.41
799.995	2575.24
800.179	2542.88
800.363	2543.08
800.547	2547.92
800.731	2595
800.915	2478.17
801.099	2520.8
801.283	2498.52
801.467	2539.78
801.651	2510.33
801.835	2567.3
802.019	2493.28
802.202	2540.95
802.386	2504.52
802.57	2439.04
802.754	2489.99
802.938	2469.26
803.121	2459.96
803.305	2519.05
803.489	2504.91
803.673	2524.67
803.856	2506.27
804.04	2492.51
804.224	2533.39
804.407	2502.2
804.591	2470.23
804.775	2510.53
804.958	2502.39
805.142	2599.46
805.326	2508.4
805.509	2550.63
805.693	2565.36
805.876	2551.22
806.06	2571.56
806.243	2564.2
806.427	2578.92
806.61	2645.57
806.794	2525.64
806.977	2604.88
807.16	2527.77
807.344	2529.32
807.527	2561.87
807.71	2539.78
807.894	2543.27
808.077	2577.76
808.26	2521.38
808.444	2510.14
808.627	2545.4
808.81	2490.96
808.993	2464.8
809.177	2415.2
809.36	2460.54
809.543	2425.28
809.726	2367.74
809.909	2395.83
810.092	2363.86
810.276	2359.21
810.459	2359.79
810.642	2345.65
810.825	2312.91
811.008	2280.16
811.191	2248.39
811.374	2251.29
811.557	2228.63
811.74	2301.47
811.923	2228.24
812.106	2197.24
812.289	2172.63
812.472	2169.15
812.654	2198.98
812.837	2149
813.02	2091.84
813.203	2078.67
813.386	1983.15
813.569	1967.07
813.751	1893.25
813.934	1910.11
814.117	1890.92
814.3	1857.79
814.482	1824.08
814.665	1770.61
814.848	1726.63
815.03	1680.9
815.213	1700.08
815.396	1640.02
815.578	1653.97
815.761	1616.38
815.943	1676.64
816.126	1585
816.309	1544.89
816.491	1507.69
816.674	1456.93
816.856	1469.52
817.039	1473.98
817.221	1575.5
817.403	1517.19
817.586	1509.44
817.768	1527.07
817.951	1479.41
818.133	1460.42
818.315	1497.62
818.498	1538.89
818.68	1591.39
818.862	1567.75
819.045	1579.77
819.227	1574.15
819.409	1551.87
819.591	1580.54
819.774	1531.52
819.956	1529.78
820.138	1620.65
820.32	1599.92
820.502	1654.75
820.684	1741.74
820.866	1757.24
821.048	1788.43
821.231	1772.93
821.413	1763.25
821.595	1751.81
821.777	1740.38
821.959	1766.93
822.141	1775.45
822.323	1680.71
822.505	1633.24
822.686	1572.99
822.868	1490.84
823.05	1396.09
823.232	1355.41
823.414	1308.71
823.596	1373.04
823.778	1370.33
823.96	1421.47
824.141	1395.32
824.323	1432.52
824.505	1474.37
824.687	1538.3
824.868	1612.51
825.05	1674.12
825.232	1680.13
825.413	1751.04
825.595	1709.58
825.777	1662.88
825.958	1698.73
826.14	1683.42
826.321	1731.86
826.503	1682.26
826.685	1745.61
826.866	1745.03
827.048	1760.15
827.229	1678.97
827.411	1674.12
827.592	1590.62
827.773	1621.23
827.955	1571.82
828.136	1580.93
828.318	1511.95
828.499	1567.75
828.68	1516.02
828.862	1547.99
829.043	1549.93
829.224	1529.97
829.406	1504.21
829.587	1498.39
829.768	1515.05
829.949	1535.79
830.131	1534.43
830.312	1582.29
830.493	1561.94
830.674	1561.17
830.855	1524.55
831.036	1545.86
831.218	1610.96
831.399	1608.25
831.58	1570.08
831.761	1544.7
831.942	1562.52
832.123	1523
832.304	1493.55
832.485	1516.6
832.666	1565.04
832.847	1574.15
833.028	1557.49
833.209	1529.97
833.389	1552.45
833.57	1487.74
833.751	1516.6
833.932	1554.19
834.113	1540.05
834.294	1551.48
834.475	1568.92
834.655	1598.95
834.836	1577.25
835.017	1563.1
835.198	1527.84
835.378	1568.34
835.559	1585.58
835.74	1557.1
835.92	1591.2
836.101	1558.07
836.281	1593.14
836.462	1597.98
836.643	1628.98
836.823	1606.7
837.004	1592.55
837.184	1677.42
837.365	1639.63
837.545	1657.07
837.726	1605.73
837.906	1671.22
838.087	1665.21
838.267	1633.05
838.448	1623.75
838.628	1591.97
838.808	1621.23
838.989	1675.67
839.169	1583.64
839.349	1627.62
839.53	1648.93
839.71	1661.14
839.89	1579.57
840.07	1668.7
840.251	1593.52
840.431	1639.83
840.611	1650.87
840.791	1651.65
840.971	1612.9
841.151	1612.9
841.332	1601.27
841.512	1659.2
841.692	1554
841.872	1625.49
842.052	1626.46
842.232	1630.92
842.412	1585.97
842.592	1612.9
842.772	1634.4
842.952	1617.93
843.132	1567.37
843.312	1570.85
843.492	1552.06
843.672	1617.93
843.851	1507.89
844.031	1585.39
844.211	1568.53
844.391	1575.12
844.571	1581.51
844.751	1599.72
844.93	1572.02
845.11	1553.22
845.29	1586.94
845.47	1634.4
845.649	1597.01
845.829	1584.03
846.009	1540.63
846.188	1575.89
846.368	1572.6
846.547	1593.91
846.727	1611.35
846.907	1505.37
847.086	1584.8
847.266	1613.28
847.445	1556.71
847.625	1544.5
847.804	1541.02
847.984	1556.32
848.163	1532.49
848.343	1530.17
848.522	1578.02
848.701	1532.88
848.881	1522.61
849.06	1525.32
849.239	1534.24
849.419	1519.9
849.598	1464.49
849.777	1461.58
849.957	1432.71
850.136	1390.28
850.315	1400.36
850.494	1384.47
850.674	1396.87
850.853	1473.59
851.032	1430.19
851.211	1488.12
851.39	1435.62
851.569	1429.22
851.748	1401.13
851.927	1430.39
852.107	1447.82
852.286	1397.84
852.465	1364.9
852.644	1475.72
852.823	1417.02
853.002	1396.68
853.181	1412.37
853.359	1426.12
853.538	1407.91
853.717	1427.87
853.896	1336.61
854.075	1265.9
854.254	1251.36
854.433	1180.26
854.611	1255.24
854.79	1163.02
854.969	1262.99
855.148	1293.41
855.327	1250.98
855.505	1309.3
855.684	1245.36
855.863	1301.55
856.041	1249.81
856.22	1310.07
856.399	1286.63
856.577	1393.58
856.756	1358.12
856.934	1471.85
857.113	1441.04
857.291	1372.07
857.47	1349.4
857.648	1390.09
857.827	1373.43
858.005	1394.54
858.184	1367.81
858.362	1413.14
858.541	1348.43
858.719	1369.55
858.898	1320.92
859.076	1351.14
859.254	1401.33
859.433	1331.77
859.611	1351.73
859.789	1278.3
859.967	1387.18
860.146	1421.09
860.324	1307.36
860.502	1330.41
860.68	1254.85
860.859	1328.86
861.037	1357.34
861.215	1331.58
861.393	1298.25
861.571	1306.58
861.749	1289.15
861.927	1328.67
862.105	1322.86
862.283	1309.68
862.461	1273.84
862.639	1251.95
862.817	1280.43
862.995	1309.49
863.173	1259.11
863.351	1308.33
863.529	1293.8
863.707	1316.27
863.885	1279.26
864.063	1220.37
864.241	1247.1
864.418	1291.86
864.596	1258.73
864.774	1213.2
864.952	1290.7
865.129	1259.5
865.307	1218.82
865.485	1200.99
865.663	1258.53
865.84	1154.3
866.018	1211.84
866.196	1056.46
866.373	1073.7
866.551	1070.41
866.728	1022.16
866.906	1072.34
867.084	1080.67
867.261	1118.84
867.439	1117.87
867.616	1145.39
867.794	1096.37
867.971	1160.11
868.149	1142.29
868.326	1196.92
868.503	1204.09
868.681	1186.07
868.858	1149.07
869.035	1120.78
869.213	1192.27
869.39	1117.49
869.567	1204.28
869.745	1152.36
869.922	1168.05
870.099	1162.05
870.276	1194.79
870.454	1175.42
870.631	1181.81
870.808	1150.04
870.985	1190.72
871.162	1208.93
871.339	1173.67
871.517	1111.09
871.694	1109.15
871.871	1151.78
872.048	1142.48
872.225	1081.84
872.402	1166.31
872.579	1102.95
872.756	1139.19
872.933	1084.35
873.11	1126.2
873.287	1103.92
873.463	1103.54
873.64	1084.74
873.817	1122.52
873.994	1095.59
874.171	1080.67
874.348	1119.62
874.524	1070.79
874.701	1110.51
874.878	1028.75
875.055	1105.67
875.231	1076.22
875.408	1103.54
875.585	1041.54
875.762	1065.17
875.938	1035.92
876.115	1037.66
876.291	1050.84
876.468	1034.37
876.645	1023.13
876.821	1063.62
876.998	1062.27
877.174	1004.53
877.351	1041.92
877.527	1003.76
877.704	1016.93
877.88	1033.4
878.057	1002.79
878.233	1076.02
878.409	994.46
878.586	1025.07
878.762	1006.66
878.938	1011.51
879.115	955.13
879.291	1011.12
879.467	959.78
879.644	975.66
879.82	1016.35
879.996	983.22
880.172	970.43
880.349	983.22
880.525	1012.09
880.701	952.61
880.877	942.14
881.053	985.54
881.229	954.16
881.405	1049.87
881.581	965.39
881.757	966.94
881.933	1008.21
882.109	1015.57
882.285	986.12
882.461	906.69
882.637	992.13
882.813	956.87
882.989	961.33
883.165	1009.37
883.341	968.3
883.517	998.72
883.693	957.06
883.869	977.21
884.044	926.84
884.22	998.52
884.396	1026.42
884.572	1006.47
884.747	989.03
884.923	980.7
885.099	978.18
885.275	1027.78
885.45	931.29
885.626	959.97
885.801	921.03
885.977	969.08
886.153	931.49
886.328	978.96
886.504	940.01
886.679	987.29
886.855	939.82
887.03	947.38
887.206	990.39
887.381	988.06
887.557	947.96
887.732	979.34
887.908	973.73
888.083	979.34
888.258	968.88
888.434	926.45
888.609	964.04
888.784	975.86
888.96	963.84
889.135	948.73
889.31	914.05
889.485	978.18
889.661	929.16
889.836	958.61
890.011	960.94
890.186	965.59
890.361	920.44
890.537	962.68
890.712	967.72
890.887	971.21
891.062	981.28
891.237	1002.79
891.412	915.21
891.587	952.03
891.762	988.26
891.937	990.58
892.112	913.08
892.287	969.66
892.462	884.6
892.637	877.82
892.812	873.36
892.987	895.84
893.161	880.34
893.336	894.48
893.511	862.9
893.686	895.26
893.861	840.43
894.035	900.29
894.21	864.06
894.385	801.29
894.56	848.18
894.734	798
894.909	745.68
895.084	801.68
895.258	799.35
895.433	754.4
895.608	761.38
895.782	700.93
895.957	733.48
896.131	710.04
896.306	686.59
896.48	663.92
896.655	650.17
896.829	592.62
897.004	604.06
897.178	644.35
897.353	616.65
897.527	648.23
897.701	642.8
897.876	569.18
898.05	685.04
898.224	634.47
898.399	686.59
898.573	611.42
898.747	526.56
898.921	576.35
899.096	495.94
899.27	495.17
899.444	501.95
899.618	522.49
899.792	562.79
899.967	558.33
900.141	564.72
900.315	531.98
900.489	523.84
900.663	556.39
900.837	535.47
901.011	468.63
901.185	572.09
901.359	527.14
901.533	574.02
901.707	560.66
901.881	592.24
902.055	524.62
902.229	531.01
902.403	608.9
902.576	543.99
902.75	540.89
902.924	656.17
903.098	601.92
903.272	637.57
903.446	657.53
903.619	677.29
903.793	685.04
903.967	637.96
904.14	725.73
904.314	698.02
904.488	669.15
904.661	717.01
904.835	690.47
905.009	739.68
905.182	736.97
905.356	714.69
905.529	684.65
905.703	674.77
905.876	651.33
906.05	644.35
906.223	618.97
906.397	589.91
906.57	566.08
906.744	527.14
906.917	573.06
907.09	542.06
907.264	548.26
907.437	521.13
907.61	488.19
907.784	483.54
907.957	515.51
908.13	476.18
908.304	513.38
908.477	452.55
908.65	492.84
908.823	450.03
908.996	540.51
909.17	469.98
909.343	493.04
909.516	495.17
909.689	501.76
909.862	470.18
910.035	479.48
910.208	454.48
910.381	470.18
910.554	520.94
910.727	494.01
910.9	459.71
911.073	451.38
911.246	528.3
911.419	540.7
911.592	523.26
911.765	450.22
911.938	435.3
912.11	492.65
912.283	491.68
912.456	495.36
912.629	489.36
912.802	429.1
912.974	413.6
913.147	375.63
913.32	364.78
913.493	372.53
913.665	400.81
913.838	418.06
914.01	401.98
914.183	446.54
914.356	408.56
914.528	455.45
914.701	494.2
914.873	455.65
915.046	395.97
915.218	391.9
915.391	354.51
915.563	334.75
915.736	422.51
915.908	420.58
916.081	428.71
916.253	373.69
916.425	379.7
916.598	449.06
916.77	411.28
916.942	380.47
917.115	320.6
917.287	406.63
917.459	379.89
917.632	366.52
917.804	304.72
917.976	379.11
918.148	384.35
918.32	400.81
918.493	421.74
918.665	458.36
918.837	405.66
919.009	457
919.181	422.13
919.353	436.85
919.525	424.06
919.697	412.63
919.869	417.67
920.041	507.38
920.213	544.38
920.385	457.2
920.557	418.64
920.729	476.76
920.901	465.72
921.073	451.58
921.244	440.92
921.416	464.94
921.588	425.61
921.76	428.33
921.932	502.34
922.103	432.98
922.275	432.2
922.447	464.36
922.619	370.4
922.79	432.98
922.962	427.36
923.134	426.58
923.305	378.73
923.477	379.7
923.648	353.73
923.82	388.03
923.991	362.07
924.163	322.54
924.335	380.28
924.506	354.12
924.677	424.06
924.849	337.27
925.02	400.62
925.192	377.95
925.363	375.24
925.535	387.06
925.706	358.77
925.877	419.03
926.049	372.14
926.22	370.98
926.391	380.86
926.562	408.56
926.734	368.46
926.905	383.38
927.076	328.35
927.247	325.25
927.419	305.49
927.59	293.09
927.761	311.88
927.932	289.8
928.103	320.99
928.274	254.92
928.445	251.63
928.616	262.87
928.787	254.34
928.958	297.74
929.129	259.77
929.3	238.07
929.471	210.36
929.642	152.82
929.813	160.37
929.984	207.26
930.155	136.35
930.326	209
930.496	172.77
930.667	120.46
930.838	159.41
931.009	102.25
931.18	137.32
931.35	148.94
931.521	132.09
931.692	86.36
931.863	48.19
932.033	123.37
932.204	102.64
932.374	98.18
932.545	83.26
932.716	119.88
932.886	85.78
933.057	32.31
933.227	64.28
933.398	129.18
933.568	45.68
933.739	45.09
933.909	41.8
934.08	104.19
934.25	-7.6
934.421	46.26
934.591	53.23
934.761	31.53
934.932	-8.96
935.102	38.89
935.272	43.93
935.443	35.21
935.613	28.82
935.783	52.65
935.953	9.06
936.123	162.51
936.294	-14
936.464	48
936.634	18.75
936.804	8.86
936.974	-3.92
937.144	50.13
937.314	42.19
937.484	17.39
937.655	3.83
937.825	66.41
937.995	33.47
938.165	65.05
938.334	24.36
938.504	66.41
938.674	30.56
938.844	36.57
939.014	91.59
939.184	112.91
939.354	118.33
939.524	91.79
939.694	66.99
939.863	83.84
940.033	113.68
940.203	134.02
940.373	108.26
940.542	107.87
940.712	50.13
940.882	109.42
941.051	111.74
941.221	127.24
941.391	138.29
941.56	81.71
941.73	65.83
941.899	182.66
942.069	80.55
942.238	102.06
942.408	56.72
942.577	112.71
942.747	72.99
942.916	18.94
943.086	49.36
943.255	119.3
943.425	74.74
943.594	52.84
943.763	13.51
943.933	21.46
944.102	-24.27
944.271	57.88
944.441	54.59
944.61	50.52
944.779	62.14
944.948	116.01
945.117	41.41
945.287	47.23
945.456	5.76
945.625	49.55
945.794	88.11
945.963	35.6
946.132	55.56
946.301	50.91
946.47	72.61
946.639	14.29
946.808	47.23
946.977	58.85
947.146	120.27
947.315	45.09
947.484	101.28
947.653	41.41
947.822	45.48
947.991	12.35
948.16	116.59
948.329	112.91
948.498	64.47
948.666	91.01
948.835	85.2
949.004	32.11
949.173	34.44
949.341	74.54
949.51	68.54
949.679	107.87
949.847	70.48
950.016	140.03
950.185	104.19
950.353	36.76
950.522	50.71
950.69	87.14
950.859	27.46
951.028	112.32
951.196	94.11
951.365	46.45
951.533	43.93
951.701	77.06
951.87	83.07
952.038	26.88
952.207	55.36
952.375	104.38
952.543	76.68
952.712	34.83
952.88	38.89
953.048	80.16
953.217	67.18
953.385	40.25
953.553	103.03
953.721	50.33
953.89	62.73
954.058	28.82
954.226	40.25
954.394	90.82
954.562	38.89
954.73	64.08
954.898	55.17
955.067	79.19
955.235	50.71
955.403	72.99
955.571	118.14
955.739	84.62
955.907	28.04
956.075	27.27
956.243	65.44
956.41	62.92
956.578	28.43
956.746	24.94
956.914	58.85
957.082	84.04
957.25	75.71
957.418	37.15
957.585	88.88
957.753	103.41
957.921	43.16
958.089	70.48
958.256	91.98
958.424	68.15
958.592	56.72
958.759	22.23
958.927	106.51
959.095	45.48
959.262	66.99
959.43	85.98
959.597	28.82
959.765	71.25
959.932	6.15
960.1	82.29
960.267	63.31
960.435	87.53
960.602	96.05
960.77	31.34
960.937	48.58
961.104	90.82
961.272	31.73
961.439	58.08
961.606	73.96
961.774	93.73
961.941	61.56
962.108	60.01
962.275	80.16
962.443	105.54
962.61	79.19
962.777	123.37
962.944	96.83
963.111	90.82
963.278	73.38
963.446	58.66
963.613	95.08
963.78	113.29
963.947	112.71
964.114	79.19
964.281	158.05
964.448	110
964.615	76.68
964.782	108.45
964.949	85.78
965.116	115.81
965.282	119.69
965.449	49.36
965.616	23.01
965.783	103.99
965.95	70.67
966.117	53.04
966.283	82.49
966.45	66.99
966.617	80.16
966.784	120.27
966.95	129.18
967.117	127.05
967.284	83.46
967.45	48.58
967.617	122.4
967.784	110.58
967.95	128.21
968.117	95.47
968.283	137.12
968.45	178.78
968.616	108.06
968.783	147.39
968.949	107.09
969.116	128.79
969.282	117.36
969.449	108.06
969.615	106.71
969.781	73.19
969.948	103.8
970.114	62.73
970.28	161.73
970.447	120.46
970.613	139.06
970.779	116.39
970.945	122.59
971.112	117.17
971.278	90.82
971.444	100.89
971.61	126.27
971.776	67.38
971.942	110.77
972.108	127.05
972.275	89.08
972.441	117.36
972.607	145.07
972.773	69.7
972.939	93.34
973.105	100.31
973.271	74.54
973.437	86.17
973.602	64.47
973.768	120.46
973.934	77.45
974.1	95.86
974.266	26.49
974.432	109.03
974.598	72.03
974.763	124.72
974.929	56.33
975.095	153.59
975.261	46.06
975.426	89.08
975.592	99.15
975.758	147.39
975.923	25.33
976.089	88.49
976.255	135.19
976.42	97.41
976.586	102.44
976.751	84.04
976.917	146.04
977.082	137.51
977.248	42.96
977.413	59.24
977.579	77.84
977.744	110.97
977.91	75.51
978.075	57.69
978.24	111.55
978.406	61.18
978.571	55.56
978.736	35.21
978.902	108.64
979.067	41.8
979.232	33.28
979.397	70.48
979.563	134.02
979.728	41.41
979.893	73.58
980.058	60.59
980.223	125.31
980.388	102.83
980.554	78.61
980.719	75.51
980.884	102.83
981.049	101.67
981.214	50.13
981.379	102.64
981.544	78.42
981.709	86.17
981.874	71.25
982.039	65.63
982.204	122.4
982.368	69.89
982.533	62.73
982.698	119.3
982.863	112.13
983.028	66.6
983.193	113.68
983.357	95.08
983.522	108.26
983.687	97.6
983.852	81.33
984.016	80.55
984.181	101.09
984.346	95.28
984.51	107.09
984.675	71.25
984.839	118.52
985.004	85.59
985.168	119.11
985.333	114.07
985.498	90.82
985.662	98.57
985.827	110
985.991	80.16
986.155	86.36
986.32	129.18
986.484	140.81
986.649	78.81
986.813	29.01
986.977	75.32
987.142	133.25
987.306	48
987.47	80.16
987.634	74.74
987.799	94.69
987.963	97.02
988.127	142.16
988.291	165.99
988.455	67.18
988.62	65.44
988.784	93.34
988.948	123.56
989.112	70.86
989.276	78.81
989.44	78.61
989.604	76.68
989.768	91.79
989.932	166.96
990.096	27.46
990.26	32.11
990.424	47.23
990.588	72.22
990.752	111.94
990.915	112.13
991.079	69.7
991.243	47.81
991.407	112.32
991.571	91.4
991.734	109.81
991.898	109.42
992.062	166.38
992.226	95.86
992.389	73.96
992.553	45.68
992.717	50.13
992.88	69.31
993.044	78.03
993.207	68.34
993.371	93.34
993.535	94.31
993.698	80.36
993.862	130.73
994.025	106.71
994.189	58.46
994.352	82.68
994.515	93.34
994.679	120.85
994.842	73.19
995.006	128.99
995.169	51.68
995.332	52.84
995.496	89.08
995.659	42.96
995.822	77.64
995.985	75.13
996.149	92.95
996.312	81.13
996.475	140.03
996.638	48.39
996.801	104.77
996.964	110.19
997.128	68.34
997.291	72.22
997.454	45.68
997.617	29.98
997.78	103.8
997.943	45.48
998.106	89.08
998.269	39.28
998.432	63.89
998.595	62.53
998.758	20.49
998.92	47.61
999.083	16.81
999.246	49.55
999.409	36.57
999.572	-0.24
999.735	66.79
999.897	70.28
1000.06	63.11
1000.223	30.37
1000.386	81.52
1000.548	85.78
1000.711	87.91
1000.874	53.23
1001.036	29.4
1001.199	96.63
1001.361	42.19
1001.524	49.94
1001.687	120.85
1001.849	41.03
1002.012	66.6
1002.174	66.21
1002.337	79.78
1002.499	31.14
1002.661	109.03
1002.824	13.32
1002.986	70.48
1003.149	76.48
1003.311	36.38
1003.473	128.41
1003.636	26.3
1003.798	74.54
1003.96	77.26
1004.123	54.59
1004.285	40.64
1004.447	40.83
1004.609	43.74
1004.771	123.17
1004.933	-11.29
1005.096	7.51
1005.258	25.53
1005.42	15.65
1005.582	103.61
1005.744	39.28
1005.906	13.32
1006.068	59.63
1006.23	-0.05
1006.392	-0.82
1006.554	29.79
1006.716	56.33
1006.878	58.46
1007.04	8.86
1007.202	44.13
1007.363	51.1
1007.525	50.13
1007.687	65.63
1007.849	77.84
1008.011	-6.05
1008.172	3.63
1008.334	19.13
1008.496	80.55
1008.658	-0.82
1008.819	19.52
1008.981	1.89
1009.143	11.38
1009.304	21.26
1009.466	61.76
1009.627	100.31
1009.789	116.2
1009.95	67.38
1010.112	44.32
1010.273	44.13
1010.435	17.97
1010.596	21.84
1010.758	49.55
1010.919	53.62
1011.081	-14.77
1011.242	32.5
1011.403	53.62
1011.565	38.12
1011.726	61.37
1011.887	-3.92
1012.049	32.11
1012.21	96.05
1012.371	77.64
1012.532	-22.72
1012.693	64.28
1012.855	17.39
1013.016	22.81
1013.177	70.09
1013.338	26.49
1013.499	70.86
1013.66	65.44
1013.821	63.69
1013.982	58.08
1014.143	36.57
1014.304	40.83
1014.465	37.34
1014.626	49.16
1014.787	17.58
1014.948	116.01
1015.109	-29.5
1015.27	51.1
1015.431	12.35
1015.592	17.39
1015.752	109.23
1015.913	29.79
1016.074	53.04
1016.235	43.16
1016.395	28.24
1016.556	15.84
1016.717	13.32
1016.877	65.83
1017.038	35.02
1017.199	48.97
1017.359	40.44
1017.52	52.46
1017.681	35.6
1017.841	22.62
1018.002	11.19
1018.162	13.9
1018.323	79.58
1018.483	32.31
1018.644	26.11
1018.804	15.06
1018.964	4.99
1019.125	20.68
1019.285	52.84
1019.446	0.15
1019.606	19.52
1019.766	-24.07
1019.926	41.61
1020.087	62.92
1020.247	5.18
1020.407	37.73
1020.567	67.76
1020.728	14.1
1020.888	2.28
1021.048	0.15
1021.208	18.16
1021.368	20.68
1021.528	73.19
1021.688	54.39
1021.848	43.93
1022.008	43.74
1022.168	-1.21
1022.328	20.49
1022.488	66.6
1022.648	24.17
1022.808	18.16
1022.968	39.86
1023.128	20.68
1023.288	-4.31
1023.448	57.11
1023.608	41.22
1023.767	35.21
1023.927	2.47
1024.087	-15.16
1024.247	-22.72
1024.406	8.09
1024.566	-10.51
1024.726	-1.21
1024.885	29.01
1025.045	30.18
1025.205	23.59
1025.364	14.87
1025.524	23.78
1025.683	22.81
1025.843	35.21
1026.003	3.63
1026.162	42.58
1026.321	51.29
1026.481	27.27
1026.64	9.06
1026.8	30.37
1026.959	38.31
1027.119	7.12
1027.278	16.03
1027.437	23.78
1027.597	22.04
1027.756	18.16
1027.915	42.96
1028.074	29.21
1028.234	-1.21
1028.393	33.86
1028.552	34.24
1028.711	-26.2
1028.87	65.44
1029.03	15.06
1029.189	37.34
1029.348	-30.27
1029.507	4.8
1029.666	20.3
1029.825	3.44
1029.984	8.67
1030.143	41.8
1030.302	-5.28
1030.461	-25.62
1030.62	35.02
1030.779	51.29
1030.938	20.88
1031.097	-9.35
1031.255	20.1
1031.414	42.96
1031.573	71.64
1031.732	-25.04
1031.891	3.44
1032.049	42.77
1032.208	27.08
1032.367	13.51
1032.525	23.59
1032.684	0.15
1032.843	44.32
1033.001	-42.29
1033.16	141.19
1033.319	46.64
1033.477	38.12
1033.636	-6.25
1033.794	-2.76
1033.953	24.36
1034.111	14.68
1034.27	-4.89
1034.428	11.38
1034.587	-12.45
1034.745	4.21
1034.903	-3.34
1035.062	47.42
1035.22	-36.86
1035.378	40.83
1035.537	-32.21
1035.695	34.44
1035.853	-1.4
1036.011	39.86
1036.17	15.84
1036.328	-30.66
1036.486	9.83
1036.644	29.98
1036.802	-80.07
1036.96	-7.02
1037.119	3.05
1037.277	7.7
1037.435	-29.89
1037.593	-26.59
1037.751	-5.09
1037.909	6.54
1038.067	6.54
