Data from gum_young_FLMT105791__101__17-40-29-041.txt Node

Date: Mon Mar 20 17:40:29 GMT 2023
User: antho
Spectrometer: FLMT10579
Trigger mode: 0
Integration Time (sec): 1.000000E-1
Scans to average: 10
Electric dark correction enabled: true
Nonlinearity correction enabled: false
Boxcar width: 0
XAxis mode: Wavelengths
Number of Pixels in Spectrum: 3648
>>>>>Begin Spectral Data<<<<<
345.248	-133.15
345.464	-133.15
345.681	-133.15
345.898	-172.1
346.114	-133.54
346.331	-34.34
346.548	27.46
346.764	-0.44
346.981	-0.63
347.197	-31.05
347.414	18.36
347.631	-39.57
347.847	57.49
348.064	9.83
348.28	38.7
348.497	-38.8
348.713	-7.02
348.93	30.18
349.146	23.2
349.363	3.63
349.579	0.53
349.796	33.28
350.012	12.93
350.229	27.85
350.445	12.35
350.661	11.77
350.878	-4.7
351.094	2.08
351.311	5.57
351.527	27.85
351.743	-11.48
351.96	22.23
352.176	24.36
352.392	37.93
352.609	53.43
352.825	-1.4
353.041	17.97
353.257	5.38
353.474	7.31
353.69	10.22
353.906	30.37
354.122	-5.86
354.339	54.59
354.555	16.42
354.771	5.18
354.987	48.78
355.203	52.07
355.42	-14.97
355.636	-16.13
355.852	-27.56
356.068	12.16
356.284	-39.38
356.5	71.83
356.716	19.52
356.932	26.49
357.148	34.83
357.364	9.64
357.58	53.81
357.796	48
358.012	43.54
358.228	48.78
358.444	-49.07
358.66	25.53
358.876	30.76
359.092	-8.57
359.308	10.22
359.524	25.53
359.74	3.25
359.956	6.35
360.172	-1.02
360.388	48
360.604	-7.8
360.819	69.51
361.035	29.98
361.251	34.05
361.467	24.56
361.683	52.84
361.898	-5.09
362.114	25.91
362.33	22.43
362.546	52.46
362.762	10.41
362.977	23.78
363.193	-18.65
363.409	48.39
363.624	-13.22
363.84	-10.12
364.056	9.25
364.271	21.26
364.487	20.88
364.703	12.55
364.918	-19.42
365.134	32.5
365.35	17.39
365.565	103.22
365.781	23.2
365.996	36.96
366.212	81.13
366.427	39.28
366.643	13.32
366.858	12.35
367.074	-7.8
367.289	90.63
367.505	110.97
367.72	6.15
367.936	-5.47
368.151	43.54
368.367	45.29
368.582	39.28
368.798	9.06
369.013	60.98
369.228	16.42
369.444	27.08
369.659	56.72
369.874	42.77
370.09	73.96
370.305	-52.36
370.52	11.38
370.736	56.53
370.951	25.33
371.166	63.11
371.381	59.82
371.597	78.23
371.812	5.76
372.027	22.43
372.242	34.83
372.458	76.48
372.673	-2.18
372.888	18.75
373.103	41.99
373.318	85.59
373.533	47.03
373.749	37.15
373.964	-28.92
374.179	50.33
374.394	-9.54
374.609	65.63
374.824	4.41
375.039	91.4
375.254	-5.67
375.469	90.04
375.684	35.6
375.899	57.3
376.114	25.14
376.329	42.96
376.544	89.27
376.759	54.59
376.974	19.52
377.189	32.89
377.404	8.09
377.619	44.13
377.834	-10.32
378.049	13.13
378.264	-15.35
378.478	15.06
378.693	23.98
378.908	55.36
379.123	30.18
379.338	55.94
379.553	35.99
379.767	38.31
379.982	32.31
380.197	41.99
380.412	10.61
380.626	38.31
380.841	111.94
381.056	41.22
381.271	109.23
381.485	19.13
381.7	-14.39
381.915	22.04
382.129	28.43
382.344	52.65
382.559	20.1
382.773	44.32
382.988	-12.45
383.202	56.14
383.417	23.39
383.632	112.32
383.846	34.24
384.061	49.55
384.275	42.38
384.49	42.77
384.704	36.96
384.919	43.35
385.133	20.88
385.348	60.79
385.562	24.36
385.777	72.22
385.991	43.16
386.206	17
386.42	22.43
386.634	77.26
386.849	40.44
387.063	66.02
387.277	10.22
387.492	21.85
387.706	28.82
387.92	-3.34
388.135	69.12
388.349	56.72
388.563	52.26
388.778	33.28
388.992	79.39
389.206	67.96
389.42	83.65
389.635	46.06
389.849	74.74
390.063	91.01
390.277	64.86
390.491	113.87
390.706	49.94
390.92	75.32
391.134	52.65
391.348	82.29
391.562	4.6
391.776	25.91
391.99	32.69
392.205	67.96
392.419	23.39
392.633	62.14
392.847	116.01
393.061	6.35
393.275	96.83
393.489	46.06
393.703	54.2
393.917	80.16
394.131	19.52
394.345	92.37
394.559	52.26
394.773	41.22
394.986	56.53
395.2	33.47
395.414	74.16
395.628	41.22
395.842	67.18
396.056	58.08
396.27	13.9
396.484	80.36
396.697	52.46
396.911	117.36
397.125	82.88
397.339	72.99
397.553	48.97
397.766	128.02
397.98	107.68
398.194	75.51
398.408	82.1
398.621	84.62
398.835	79.78
399.049	64.66
399.262	117.17
399.476	95.08
399.69	95.66
399.903	152.62
400.117	104.77
400.331	116.97
400.544	64.47
400.758	178.59
400.971	106.51
401.185	131.12
401.398	66.99
401.612	134.99
401.826	96.05
402.039	131.51
402.253	75.9
402.466	116.2
402.68	91.01
402.893	101.86
403.106	122.79
403.32	80.94
403.533	124.53
403.747	95.86
403.96	138.87
404.174	141
404.387	97.02
404.6	84.43
404.814	140.81
405.027	97.79
405.24	94.5
405.454	94.11
405.667	145.46
405.88	49.74
406.094	111.74
406.307	139.06
406.52	112.32
406.733	96.05
406.947	39.86
407.16	181.49
407.373	125.89
407.586	99.73
407.799	75.71
408.012	122.98
408.226	110.39
408.439	135.96
408.652	78.23
408.865	136.35
409.078	169.87
409.291	142.94
409.504	91.79
409.717	138.09
409.93	121.43
410.143	121.24
410.357	107.09
410.57	89.85
410.783	101.48
410.996	118.91
411.209	114.65
411.421	150.69
411.634	121.04
411.847	97.99
412.06	109.42
412.273	139.45
412.486	129.96
412.699	207.26
412.912	128.6
413.125	179.75
413.338	124.34
413.55	160.57
413.763	133.64
413.976	150.88
414.189	101.28
414.402	132.67
414.615	188.66
414.827	121.04
415.04	164.83
415.253	165.41
415.466	188.86
415.678	178.97
415.891	141.58
416.104	152.43
416.316	158.44
416.529	139.64
416.742	175.87
416.954	163.47
417.167	131.31
417.38	144.49
417.592	157.08
417.805	130.92
418.017	109.42
418.23	168.9
418.442	154.37
418.655	144.87
418.868	153.98
419.08	176.65
419.293	181.3
419.505	172.19
419.718	175.29
419.93	197.38
420.142	132.28
420.355	209.2
420.567	211.91
420.78	183.43
420.992	189.63
421.205	215.59
421.417	132.09
421.629	155.92
421.842	150.3
422.054	143.52
422.266	210.36
422.479	225.28
422.691	126.27
422.903	184.01
423.115	154.95
423.328	158.82
423.54	173.55
423.752	144.87
423.964	144.68
424.177	188.47
424.389	161.15
424.601	249.89
424.813	191.57
425.025	216.56
425.238	229.35
425.45	145.46
425.662	166.19
425.874	461.84
426.086	165.8
426.298	199.32
426.51	213.85
426.722	190.6
426.934	168.12
427.146	209.2
427.358	158.44
427.57	231.87
427.782	160.76
427.994	197.38
428.206	160.96
428.418	131.51
428.63	192.92
428.842	199.12
429.054	200.09
429.266	207.26
429.478	148.94
429.69	190.79
429.902	148.17
430.114	204.35
430.325	192.73
430.537	153.21
430.749	149.52
430.961	128.99
431.173	155.14
431.384	192.34
431.596	88.3
431.808	151.66
432.02	200.48
432.231	230.12
432.443	245.82
432.655	188.66
432.867	188.47
433.078	203.77
433.29	261.51
433.502	248.72
433.713	230.7
433.925	236.52
434.136	242.91
434.348	192.34
434.56	163.09
434.771	298.9
434.983	172.19
435.194	192.73
435.406	227.02
435.617	261.12
435.829	258.99
436.04	268.87
436.252	239.23
436.463	276.04
436.675	260.15
436.886	234.97
437.098	248.14
437.309	277.4
437.521	253.37
437.732	281.66
437.943	255.5
438.155	258.02
438.366	216.17
438.578	278.17
438.789	218.69
439	269.45
439.211	237.1
439.423	256.86
439.634	262.48
439.845	263.06
440.057	239.81
440.268	274.3
440.479	244.27
440.69	271.78
440.902	255.7
441.113	260.54
441.324	246.79
441.535	267.13
441.746	315.57
441.957	235.55
442.168	256.47
442.38	307.23
442.591	299.1
442.802	290.38
443.013	261.32
443.224	297.93
443.435	275.85
443.646	282.44
443.857	302.78
444.068	278.56
444.279	253.57
444.49	347.73
444.701	293.48
444.912	384.73
445.123	312.27
445.334	309.95
445.545	308.2
445.756	308.2
445.967	276.24
446.178	312.66
446.388	331.84
446.599	308.2
446.81	330.1
447.021	286.31
447.232	345.02
447.443	381.63
447.653	301.42
447.864	350.83
448.075	349.86
448.286	356.06
448.496	333.58
448.707	364.78
448.918	320.41
449.129	418.64
449.339	311.88
449.55	341.72
449.761	326.22
449.971	383.96
450.182	313.82
450.393	344.05
450.603	347.73
450.814	371.56
451.024	347.34
451.235	354.51
451.446	407.01
451.656	414.96
451.867	336.88
452.077	370.59
452.288	421.35
452.498	407.4
452.709	311.3
452.919	356.64
453.13	328.55
453.34	355.67
453.55	293.48
453.761	373.11
453.971	345.98
454.182	398.88
454.392	370.78
454.602	403.14
454.813	374.46
455.023	404.3
455.233	344.05
455.444	386.48
455.654	340.56
455.864	390.55
456.075	358
456.285	359.55
456.495	368.46
456.705	388.8
456.916	415.73
457.126	441.89
457.336	401.2
457.546	341.92
457.756	356.45
457.967	438.98
458.177	389.96
458.387	376.79
458.597	378.34
458.807	391.13
459.017	349.67
459.227	371.56
459.437	370.2
459.647	429.3
459.857	436.27
460.068	405.85
460.278	437.82
460.488	412.05
460.698	471.92
460.908	377.56
461.117	372.14
461.327	347.92
461.537	445.38
461.747	412.25
461.957	420.58
462.167	491.68
462.377	466.11
462.587	428.91
462.797	473.66
463.007	427.36
463.216	484.71
463.426	479.86
463.636	456.23
463.846	364.58
464.056	420.19
464.265	466.88
464.475	416.7
464.685	424.45
464.895	491.49
465.104	436.27
465.314	470.76
465.524	418.83
465.733	396.55
465.943	499.63
466.153	486.06
466.362	486.26
466.572	456.03
466.782	457.2
466.991	453.51
467.201	526.17
467.41	410.7
467.62	468.24
467.829	459.71
468.039	479.48
468.249	462.23
468.458	455.45
468.668	496.53
468.877	514.93
469.086	518.03
469.296	509.7
469.505	462.62
469.715	549.81
469.924	507.96
470.134	516.09
470.343	532.76
470.552	500.21
470.762	499.04
470.971	483.93
471.18	494.39
471.39	468.82
471.599	476.57
471.808	509.31
472.018	492.65
472.227	566.66
472.436	556.39
472.645	537.02
472.855	518.81
473.064	578.67
473.273	535.66
473.482	537.6
473.691	569.57
473.901	557.36
474.11	555.42
474.319	632.54
474.528	547.87
474.737	621.3
474.946	601.54
475.155	589.52
475.364	613.55
475.573	591.07
475.783	599.99
475.992	627.5
476.201	619.36
476.41	592.04
476.619	552.52
476.828	593.21
477.037	589.72
477.245	570.73
477.454	633.89
477.663	602.51
477.872	612.58
478.081	680.78
478.29	593.59
478.499	709.65
478.708	675.16
478.917	692.02
479.125	651.72
479.334	674.39
479.543	643.39
479.752	689.69
479.961	668.57
480.169	665.47
480.378	675.55
480.587	787.92
480.796	710.42
481.004	722.24
481.213	729.99
481.422	703.64
481.63	732.12
481.839	746.85
482.048	785.98
482.256	735.22
482.465	749.95
482.674	785.21
482.882	783.66
483.091	820.28
483.299	760.22
483.508	803.81
483.716	736.19
483.925	782.11
484.134	742
484.342	777.07
484.551	808.46
484.759	788.7
484.967	817.18
485.176	822.41
485.384	837.52
485.593	841.59
485.801	802.07
486.01	765.25
486.218	747.43
486.426	667.99
486.635	715.65
486.843	686.4
487.051	746.85
487.26	742.97
487.468	740.26
487.676	819.89
487.885	780.75
488.093	796.45
488.301	842.95
488.509	870.65
488.717	876.08
488.926	821.44
489.134	844.88
489.342	871.43
489.55	821.44
489.758	848.76
489.967	848.76
490.175	934.78
490.383	902.04
490.591	956.68
490.799	865.42
491.007	939.43
491.215	939.04
491.423	912.5
491.631	922.58
491.839	912.5
492.047	953.77
492.255	885.38
492.463	870.26
492.671	906.88
492.879	941.18
493.087	923.54
493.295	954.74
493.503	969.08
493.711	983.8
493.919	989.03
494.127	985.16
494.334	1015.38
494.542	977.99
494.75	983.8
494.958	974.89
495.166	1035.72
495.374	1000.66
495.581	1024.1
495.789	1021.77
495.997	1066.72
496.205	994.26
496.412	1034.95
496.62	1023.32
496.828	1061.88
497.035	1028.94
497.243	1078.54
497.451	1058.01
497.658	1071.37
497.866	1063.24
498.074	1121.55
498.281	1025.26
498.489	1130.66
498.696	1087.26
498.904	1039.21
499.112	996.2
499.319	1124.46
499.527	1082.61
499.734	1123.1
499.942	1063.24
500.149	1059.17
500.357	1086.29
500.564	1081.45
500.771	1118.45
500.979	1055.29
501.186	1073.89
501.394	1107.41
501.601	1109.74
501.808	1120.2
502.016	1106.44
502.223	1108.57
502.43	1114.77
502.638	1128.14
502.845	1102.18
503.052	1209.9
503.26	1122.52
503.467	1207.58
503.674	1165.34
503.881	1201.38
504.089	1212.23
504.296	1195.76
504.503	1156.43
504.71	1184.13
504.917	1156.43
505.125	1185.1
505.332	1212.23
505.539	1214.55
505.746	1318.6
505.953	1256.98
506.16	1279.85
506.367	1301.55
506.574	1363.54
506.781	1350.18
506.988	1279.26
507.195	1332.74
507.402	1282.95
507.609	1339.13
507.816	1281.4
508.023	1284.3
508.23	1334.68
508.437	1293.41
508.644	1349.79
508.851	1405.01
509.058	1418.38
509.265	1404.62
509.472	1441.82
509.679	1503.62
509.885	1418.57
510.092	1421.86
510.299	1424.38
510.506	1434.07
510.713	1464.29
510.92	1448.21
511.126	1491.61
511.333	1493.36
511.54	1527.07
511.746	1565.43
511.953	1568.53
512.16	1600.3
512.367	1542.95
512.573	1537.92
512.78	1557.68
512.987	1548.19
513.193	1561.36
513.4	1514.28
513.606	1580.93
513.813	1578.99
514.02	1611.73
514.226	1657.85
514.433	1627.23
514.639	1600.69
514.846	1606.5
515.052	1614.45
515.259	1624.33
515.465	1645.64
515.672	1672.77
515.878	1710.93
516.085	1708.03
516.291	1759.18
516.497	1698.53
516.704	1702.02
516.91	1622.2
517.117	1568.72
517.323	1530.75
517.529	1584.8
517.736	1599.92
517.942	1641.96
518.148	1627.82
518.354	1670.83
518.561	1680.13
518.767	1691.75
518.973	1726.24
519.179	1785.14
519.386	1759.95
519.592	1776.81
519.798	1779.13
520.004	1920.18
520.21	1900.22
520.417	1953.31
520.623	1978.69
520.829	2020.15
521.035	2040.69
521.241	1995.94
521.447	2045.92
521.653	2144.93
521.859	2049.22
522.065	2101.72
522.271	2174.57
522.477	2128.65
522.683	2186
522.889	2162.36
523.095	2132.33
523.301	2148.41
523.507	2116.64
523.713	2161.98
523.919	2099.59
524.125	2244.32
524.331	2217.58
524.537	2308.26
524.742	2343.13
524.948	2370.64
525.154	2323.56
525.36	2442.72
525.566	2343.13
525.772	2435.74
525.977	2347.01
526.183	2348.75
526.389	2415.98
526.595	2335.57
526.8	2305.54
527.006	2223.2
527.212	2198.21
527.417	2185.03
527.623	2219.91
527.829	2327.44
528.034	2353.79
528.24	2387.69
528.446	2393.7
528.651	2456.67
528.857	2471
529.062	2562.45
529.268	2559.16
529.473	2598.68
529.679	2581.83
529.884	2682.77
530.09	2611.47
530.295	2605.85
530.501	2654.87
530.706	2625.23
530.912	2625.03
531.117	2698.85
531.323	2615.54
531.528	2717.84
531.733	2798.44
531.939	2719.97
532.144	2754.65
532.35	2750
532.555	2765.5
532.76	2672.69
532.966	2683.93
533.171	2661.65
533.376	2607.98
533.581	2614.76
533.787	2635.3
533.992	2729.46
534.197	2739.34
534.402	2734.31
534.607	2720.36
534.813	2826.53
535.018	2757.94
535.223	2741.09
535.428	2768.99
535.633	2862.37
535.838	2850.94
536.043	2901.12
536.249	2991.6
536.454	2859.27
536.659	2903.25
536.864	2855.59
537.069	2856.17
537.274	2865.09
537.479	2852.3
537.684	2878.45
537.889	2824.59
538.094	2940.65
538.299	2885.43
538.504	2948.01
538.708	2901.9
538.913	2991.02
539.118	2953.05
539.323	2945.88
539.528	2938.13
539.733	2916.23
539.938	2915.85
540.142	2924.37
540.347	2886.01
540.552	2892.4
540.757	2843.77
540.962	2856.95
541.166	2808.12
541.371	2819.55
541.576	2883.49
541.781	2770.15
541.985	2911.2
542.19	2878.65
542.395	2984.43
542.599	2998.19
542.804	2939.68
543.008	3026.67
543.213	2943.55
543.418	2923.98
543.622	2979.98
543.827	2939.48
544.031	3000.32
544.236	3005.16
544.44	3013.11
544.645	3078.6
544.849	3003.61
545.054	3053.8
545.258	3083.83
545.463	3110.95
545.667	3023.57
545.872	3073.56
546.076	3040.23
546.281	3052.05
546.485	3049.15
546.689	3067.36
546.894	3087.31
547.098	3084.41
547.302	3041.01
547.507	3040.43
547.711	3069.1
547.915	3103.39
548.119	2992.96
548.324	3072.4
548.528	3101.26
548.732	3060.19
548.936	3083.83
549.141	3132.26
549.345	3048.56
549.549	3122.96
549.753	3100.29
549.957	3143.5
550.161	3214.41
550.366	3133.23
550.57	3069.68
550.774	3108.82
550.978	3141.18
551.182	3134.59
551.386	3109.79
551.59	3090.03
551.794	3099.71
551.998	3143.5
552.202	3127.42
552.406	3103.2
552.61	3138.27
552.814	3170.82
553.018	3194.84
553.222	3104.17
553.426	3086.34
553.63	3180.7
553.833	3124.51
554.037	3052.05
554.241	3120.06
554.445	3142.34
554.649	3126.06
554.853	3123.74
555.056	3163.84
555.26	3194.07
555.464	3142.14
555.668	3141.37
555.871	3159.97
556.075	3178.76
556.279	3117.15
556.483	3059.03
556.686	3068.13
556.89	3083.44
557.094	3101.07
557.297	3005.55
557.501	3131.29
557.704	2947.04
557.908	3090.8
558.112	3019.31
558.315	3073.17
558.519	3028.22
558.722	2967.77
558.926	2967.97
559.129	2845.13
559.333	2906.55
559.536	2938.71
559.74	2868.57
559.943	2834.86
560.147	2902.87
560.35	2878.45
560.553	2882.91
560.757	2849.59
560.96	2963.51
561.164	2946.46
561.367	2993.93
561.57	2895.7
561.774	2926.7
561.977	2884.46
562.18	2848.81
562.384	2933.09
562.587	2836.6
562.79	2881.36
562.993	2872.06
563.197	2897.05
563.4	2941.81
563.603	2893.76
563.806	2923.4
564.009	2821.69
564.212	2860.82
564.416	2757.56
564.619	2825.56
564.822	2755.42
565.025	2869.54
565.228	2782.94
565.431	2818.97
565.634	2693.23
565.837	2734.11
566.04	2685.87
566.243	2644.02
566.446	2587.64
566.649	2735.47
566.852	2607.01
567.055	2661.26
567.258	2642.86
567.461	2746.12
567.664	2762.59
567.867	2611.47
568.07	2622.71
568.273	2656.81
568.475	2700.59
568.678	2621.16
568.881	2589.77
569.084	2604.5
569.287	2511.5
569.489	2483.6
569.692	2572.72
569.895	2568.07
570.098	2459.57
570.3	2446.01
570.503	2460.15
570.706	2414.62
570.909	2402.22
571.111	2377.42
571.314	2320.27
571.516	2347.59
571.719	2398.35
571.922	2311.94
572.124	2333.06
572.327	2411.91
572.529	2359.79
572.732	2354.17
572.935	2343.71
573.137	2430.9
573.34	2335.57
573.542	2387.89
573.745	2319.3
573.947	2359.99
574.15	2310.39
574.352	2310.77
574.554	2375.87
574.757	2325.5
574.959	2266.41
575.162	2288.69
575.364	2276.29
575.566	2365.22
575.769	2191.62
575.971	2219.33
576.173	2142.99
576.376	2228.82
576.578	2252.07
576.78	2259.63
576.982	2199.37
577.185	2189.3
577.387	2172.83
577.589	2200.92
577.791	2207.7
577.993	2212.35
578.196	2188.71
578.398	2147.64
578.6	2177.48
578.802	2090.29
579.004	2110.83
579.206	2141.05
579.408	2123.03
579.61	2093
579.812	2146.48
580.014	2119.74
580.216	2130.01
580.418	2160.81
580.62	2099.78
580.822	2121.29
581.024	2139.31
581.226	2181.35
581.428	2128.65
581.63	2213.13
581.832	2137.95
582.034	2198.79
582.236	2131.17
582.438	2190.26
582.64	2209.06
582.841	2227.08
583.043	2242.58
583.245	2164.69
583.447	2189.49
583.649	2161.59
583.85	2215.26
584.052	2179.41
584.254	2130.98
584.456	2223.01
584.657	2139.7
584.859	2148.8
585.061	2102.88
585.262	2100.95
585.464	2086.61
585.666	2146.67
585.867	2065.1
586.069	2172.25
586.27	2072.47
586.472	2071.69
586.674	2056.38
586.875	2048.44
587.077	2059.48
587.278	2108.7
587.48	2044.95
587.681	2169.15
587.883	2096.1
588.084	1993.42
588.285	2027.32
588.487	2000.78
588.688	1988.77
588.89	1879.11
589.091	1867.29
589.292	1848.11
589.494	1791.92
589.695	1778.74
589.896	1698.34
590.098	1728.37
590.299	1762.66
590.5	1749.3
590.702	1788.24
590.903	1827.18
591.104	1939.94
591.305	1859.34
591.507	1917.27
591.708	1908.56
591.909	1865.54
592.11	1923.67
592.311	1899.06
592.512	1853.14
592.714	1848.11
592.915	1846.17
593.116	1830.28
593.317	1889.37
593.518	1824.28
593.719	1888.41
593.92	1893.06
594.121	1922.7
594.322	1907.59
594.523	1855.47
594.724	1822.34
594.925	1851.79
595.126	1838.23
595.327	1818.85
595.528	1820.21
595.729	1841.71
595.929	1843.26
596.13	1838.42
596.331	1876.39
596.532	1838.61
596.733	1928.51
596.934	1924.83
597.135	1918.24
597.335	1926.96
597.536	1865.54
597.737	1874.65
597.938	1848.69
598.138	1873.29
598.339	1863.8
598.54	1856.24
598.74	1877.75
598.941	1835.32
599.142	1931.81
599.342	1891.89
599.543	1837.45
599.744	1830.28
599.944	1860.31
600.145	1881.43
600.345	1836.09
600.546	1926.77
600.746	1888.21
600.947	1948.08
601.147	1889.76
601.348	1896.16
601.548	1838.61
601.749	1867.09
601.949	1791.92
602.15	1811.88
602.35	1824.08
602.551	1863.61
602.751	1801.61
602.951	1831.25
603.152	1778.55
603.352	1845.98
603.552	1814.01
603.753	1862.64
603.953	1890.92
604.153	1871.74
604.354	1854.89
604.554	1840.94
604.754	1839.58
604.954	1823.89
605.155	1873.1
605.355	1848.88
605.555	1865.35
605.755	1863.02
605.955	1831.25
606.155	1864.57
606.356	1857.02
606.556	1854.69
606.756	1876.78
606.956	1796.18
607.156	1871.94
607.356	1763.83
607.556	1837.45
607.756	1824.66
607.956	1841.71
608.156	1803.16
608.356	1770.22
608.556	1828.34
608.756	1786.49
608.956	1772.93
609.156	1802.38
609.356	1763.63
609.556	1728.37
609.755	1757.05
609.955	1723.72
610.155	1724.11
610.355	1789.79
610.555	1705.9
610.755	1711.51
610.954	1709.96
611.154	1749.1
611.354	1740
611.554	1702.99
611.753	1723.53
611.953	1716.16
612.153	1711.71
612.352	1727.21
612.552	1673.54
612.752	1615.03
612.951	1668.89
613.151	1709.38
613.351	1648.93
613.55	1662.5
613.75	1664.05
613.949	1679.93
614.149	1656.3
614.348	1629.95
614.548	1628.01
614.747	1577.05
614.947	1610.18
615.146	1573.57
615.346	1658.23
615.545	1639.83
615.745	1638.67
615.944	1660.17
616.144	1610.18
616.343	1626.27
616.542	1602.24
616.742	1553.03
616.941	1576.86
617.14	1503.04
617.34	1584.42
617.539	1540.63
617.738	1524.35
617.938	1604.18
618.137	1563.69
618.336	1510.99
618.535	1595.46
618.734	1574.15
618.934	1544.31
619.133	1553.8
619.332	1594.68
619.531	1567.37
619.73	1578.99
619.929	1598.75
620.128	1570.27
620.328	1607.47
620.527	1563.1
620.726	1523
620.925	1549.54
621.124	1554.19
621.323	1525.9
621.522	1519.9
621.721	1519.12
621.92	1482.89
622.119	1518.35
622.318	1493.55
622.517	1514.28
622.715	1503.82
622.914	1463.13
623.113	1483.09
623.312	1423.02
623.511	1513.12
623.71	1472.62
623.909	1442.98
624.107	1553.61
624.306	1423.22
624.505	1444.53
624.704	1445.31
624.902	1428.45
625.101	1477.27
625.3	1455.77
625.499	1422.25
625.697	1417.79
625.896	1400.36
626.095	1440.66
626.293	1380.01
626.492	1394.74
626.69	1454.02
626.889	1404.04
627.088	1438.72
627.286	1406.17
627.485	1375.94
627.683	1386.41
627.882	1398.61
628.08	1306.39
628.279	1308.13
628.477	1392.22
628.676	1303.1
628.874	1360.25
629.073	1282.56
629.271	1308.91
629.469	1351.92
629.668	1318.79
629.866	1319.56
630.065	1323.63
630.263	1365.68
630.461	1307.75
630.66	1327.51
630.858	1326.73
631.056	1366.26
631.254	1400.16
631.453	1304.26
631.651	1353.08
631.849	1365.09
632.047	1359.09
632.245	1324.41
632.444	1362.38
632.642	1356.38
632.84	1387.18
633.038	1299.22
633.236	1329.45
633.434	1334.68
633.632	1318.79
633.83	1325.18
634.028	1398.42
634.227	1361.61
634.425	1427.67
634.623	1364.51
634.821	1396.87
635.019	1369.16
635.216	1357.73
635.414	1385.44
635.612	1373.62
635.81	1378.08
636.008	1400.94
636.206	1368.97
636.404	1378.27
636.602	1331.58
636.8	1353.28
636.997	1388.93
637.195	1375.75
637.393	1367.61
637.591	1420.12
637.789	1368.97
637.986	1356.57
638.184	1352.89
638.382	1395.71
638.58	1378.66
638.777	1410.04
638.975	1364.32
639.173	1332.74
639.37	1304.45
639.568	1341.07
639.765	1361.99
639.963	1315.5
640.161	1354.63
640.358	1337.78
640.556	1281.2
640.753	1270.16
640.951	1268.8
641.148	1310.85
641.346	1273.26
641.543	1268.03
641.741	1328.48
641.938	1236.06
642.136	1296.51
642.333	1238.38
642.531	1275.97
642.728	1297.86
642.925	1269.58
643.123	1260.08
643.32	1285.46
643.517	1230.25
643.715	1277.91
643.912	1238.19
644.109	1243.42
644.306	1226.76
644.504	1195.18
644.701	1263.96
644.898	1236.83
645.095	1190.14
645.293	1210.29
645.49	1227.92
645.687	1207.19
645.884	1245.55
646.081	1147.32
646.278	1137.05
646.475	1159.33
646.672	1153.14
646.87	1141.7
647.067	1176.77
647.264	1132.6
647.461	1124.27
647.658	1062.66
647.855	1144.61
648.052	1109.54
648.249	1032.43
648.446	1089.39
648.642	1076.99
648.839	1081.25
649.036	1071.18
649.233	1028.94
649.43	1064.21
649.627	1014.8
649.824	1023.52
650.021	1018.87
650.217	1044.44
650.414	1032.04
650.611	1077.38
650.808	1110.51
651.004	1073.12
651.201	1082.8
651.398	1133.18
651.595	1056.46
651.791	1032.82
651.988	1067.89
652.185	1016.16
652.381	1082.8
652.578	990.19
652.775	1038.05
652.971	1033.98
653.168	1042.89
653.364	1086.68
653.561	973.92
653.757	1013.83
653.954	1042.31
654.15	996.78
654.347	1111.09
654.543	1044.64
654.74	989.03
654.936	982.06
655.133	997.36
655.329	997.56
655.525	996.39
655.722	1044.25
655.918	965.78
656.115	977.41
656.311	891.19
656.507	868.52
656.704	803.42
656.9	902.04
657.096	881.89
657.292	884.02
657.489	928.58
657.685	917.93
657.881	930.13
658.077	939.82
658.273	952.03
658.47	1002.59
658.666	961.52
658.862	970.82
659.058	941.76
659.254	990.19
659.45	936.33
659.646	975.08
659.842	976.24
660.038	1013.83
660.234	939.04
660.43	959.97
660.626	1027.78
660.822	999.49
661.018	995.62
661.214	939.43
661.41	903.2
661.606	980.12
661.802	1002.4
661.998	960.36
662.194	913.86
662.39	963.84
662.586	951.83
662.781	937.49
662.977	983.22
663.173	960.55
663.369	957.64
663.564	927.42
663.76	952.61
663.956	915.79
664.152	970.43
664.347	901.84
664.543	926.26
664.739	905.72
664.934	852.25
665.13	885.57
665.326	947.57
665.521	895.64
665.717	883.05
665.912	889.83
666.108	857.86
666.304	882.28
666.499	915.41
666.695	823.38
666.89	868.13
667.086	901.07
667.281	891.77
667.477	917.93
667.672	896.42
667.867	875.11
668.063	888.86
668.258	863.87
668.454	873.17
668.649	937.88
668.844	873.17
669.04	872.78
669.235	869.3
669.43	849.53
669.626	850.7
669.821	835.97
670.016	859.8
670.211	868.52
670.407	834.61
670.602	847.21
670.797	809.62
670.992	867.36
671.187	840.81
671.382	875.5
671.578	815.24
671.773	871.81
671.968	814.66
672.163	836.36
672.358	846.05
672.553	813.5
672.748	801.87
672.943	891.19
673.138	835.97
673.333	860.38
673.528	826.67
673.723	844.11
673.918	845.66
674.113	791.41
674.308	900.1
674.503	847.21
674.698	855.54
674.892	851.66
675.087	872.4
675.282	841.2
675.477	837.71
675.672	866.97
675.867	850.89
676.061	814.27
676.256	792.57
676.451	836.55
676.646	822.6
676.84	840.23
677.035	807.68
677.23	814.08
677.424	846.43
677.619	870.85
677.814	864.45
678.008	870.07
678.203	797.22
678.397	837.91
678.592	816.79
678.787	874.33
678.981	835.39
679.176	849.15
679.37	813.88
679.565	806.13
679.759	838.3
679.954	861.55
680.148	873.95
680.342	893.9
680.537	861.55
680.731	856.12
680.926	893.13
681.12	908.82
681.314	824.54
681.509	850.31
681.703	861.16
681.897	880.53
682.092	860.77
682.286	857.28
682.48	924.32
682.674	884.21
682.869	860.96
683.063	877.05
683.257	945.05
683.451	873.36
683.645	887.9
683.839	884.21
684.034	870.46
684.228	911.92
684.422	851.86
684.616	855.54
684.81	904.56
685.004	879.76
685.198	879.76
685.392	927.03
685.586	872.59
685.78	901.26
685.974	899.52
686.168	917.15
686.362	967.72
686.556	878.98
686.75	835.97
686.944	801.29
687.138	817.95
687.331	713.91
687.525	705.39
687.719	663.15
687.913	712.75
688.107	752.27
688.301	704.03
688.494	754.6
688.688	728.44
688.882	720.69
689.076	722.05
689.269	756.53
689.463	810.59
689.657	772.42
689.85	767.58
690.044	777.65
690.238	796.06
690.431	843.33
690.625	836.16
690.818	882.47
691.012	860.58
691.205	916.38
691.399	896.61
691.593	932.07
691.786	1005.5
691.98	1007.05
692.173	1034.37
692.366	1008.02
692.56	1044.64
692.753	1091.33
692.947	1014.02
693.14	1106.44
693.333	1106.05
693.527	1039.21
693.72	1129.3
693.914	1091.33
694.107	1117.49
694.3	1106.44
694.493	1075.44
694.687	1205.83
694.88	1148.29
695.073	1228.5
695.266	1190.72
695.46	1185.49
695.653	1269.38
695.846	1287.98
696.039	1214.17
696.232	1247.49
696.425	1337
696.618	1350.37
696.812	1369.55
697.005	1438.91
697.198	1537.53
697.391	1466.62
697.584	1512.92
697.777	1574.54
697.97	1559.42
698.163	1517.19
698.356	1531.14
698.549	1628.01
698.742	1585.77
698.935	1556.32
699.127	1589.65
699.32	1591.59
699.513	1599.33
699.706	1622.58
699.899	1677.8
700.092	1666.37
700.285	1694.27
700.477	1611.54
700.67	1664.63
700.863	1669.67
701.056	1800.83
701.248	1784.94
701.441	1759.37
701.634	1746.78
701.826	1846.17
702.019	1740.96
702.212	1856.05
702.404	1801.22
702.597	1795.02
702.79	1843.46
702.982	1905.07
703.175	1955.05
703.367	1954.67
703.56	1984.12
703.752	2075.57
703.945	2025.97
704.137	2075.76
704.33	2090.68
704.522	2121.68
704.715	2137.56
704.907	2176.9
705.1	2182.32
705.292	2227.66
705.484	2169.15
705.677	2228.43
705.869	2242.77
706.061	2237.54
706.254	2330.73
706.446	2308.45
706.638	2335.96
706.831	2389.63
707.023	2349.33
707.215	2456.09
707.407	2452.99
707.599	2419.27
707.792	2499.87
707.984	2480.11
708.176	2545.6
708.368	2484.18
708.56	2567.68
708.752	2547.53
708.944	2526.42
709.136	2615.15
709.329	2601.59
709.521	2708.15
709.713	2667.27
709.905	2660.29
710.097	2767.24
710.289	2686.84
710.481	2731.98
710.672	2733.72
710.864	2754.46
711.056	2814.91
711.248	2788.36
711.44	2787.01
711.632	2812
711.824	2832.15
712.016	2893.18
712.207	2918.37
712.399	2935.8
712.591	2938.32
712.783	2925.34
712.975	2956.34
713.166	2912.94
713.358	2914.68
713.55	3011.56
713.741	3062.13
713.933	3020.08
714.125	2996.83
714.316	2964.28
714.508	3053.41
714.7	3076.85
714.891	3085.18
715.083	3103.39
715.274	3045.46
715.466	3075.69
715.657	3112.5
715.849	3020.47
716.04	3028.41
716.232	3020.28
716.423	3029.77
716.615	2916.23
716.806	2860.44
716.998	2768.41
717.189	2683.93
717.381	2588.41
717.572	2567.49
717.763	2517.5
717.955	2527
718.146	2461.12
718.337	2427.02
718.528	2344.68
718.72	2268.54
718.911	2290.43
719.102	2267.38
719.293	2322.01
719.485	2276.29
719.676	2280.74
719.867	2219.52
720.058	2250.91
720.249	2243.74
720.44	2230.95
720.632	2342.55
720.823	2382.65
721.014	2515.18
721.205	2620.58
721.396	2648.86
721.587	2819.94
721.778	2877.87
721.969	2880.59
722.16	2960.02
722.351	2953.82
722.542	3129.36
722.733	3115.79
722.924	3085.76
723.115	3106.11
723.305	3061.93
723.496	3046.24
723.687	2879.04
723.878	2922.05
724.069	2915.46
724.26	2939.87
724.45	2834.47
724.641	2815.1
724.832	2901.9
725.023	2844.55
725.213	2812.39
725.404	2773.25
725.595	2778.87
725.785	2761.24
725.976	2865.67
726.167	2795.53
726.357	2822.85
726.548	2946.27
726.739	2839.7
726.929	2953.63
727.12	2975.52
727.31	2967.97
727.501	2909.84
727.691	2880
727.882	2942.78
728.072	2950.53
728.263	2980.17
728.453	3052.05
728.644	3034.23
728.834	3029.58
729.024	2972.23
729.215	2951.69
729.405	3012.14
729.596	3099.33
729.786	3089.83
729.976	3068.71
730.167	3121.61
730.357	3055.54
730.547	3085.38
730.737	3182.25
730.928	3169.07
731.118	3208.02
731.308	3157.64
731.498	3168.69
731.688	3250.84
731.879	3256.07
732.069	3286.1
732.259	3358.95
732.449	3434.7
732.639	3505.42
732.829	3512.4
733.019	3603.26
733.209	3668.94
733.399	3696.07
733.589	3718.54
733.779	3773.95
733.969	3811.73
734.159	3881.68
734.349	3948.13
734.539	3968.28
734.729	3972.74
734.919	3992.31
735.109	4058.76
735.299	3955.88
735.488	3984.17
735.678	4014.2
735.868	4005.87
736.058	3971.19
736.248	3970.03
736.437	3976.61
736.627	3930.11
736.817	4068.06
737.007	3970.41
737.196	4075.04
737.386	4022.34
737.576	4017.3
737.765	4090.73
737.955	4079.69
738.144	4170.94
738.334	4161.06
738.524	4085.31
738.713	4086.66
738.903	4113.01
739.092	4166.1
739.282	4144.98
739.471	4150.02
739.661	4071.94
739.85	4234.68
740.04	4193.61
740.229	4210.85
740.419	4253.28
740.608	4299.2
740.797	4297.07
740.987	4335.05
741.176	4305.21
741.365	4254.45
741.555	4218.8
741.744	4304.82
741.933	4284.09
742.123	4348.61
742.312	4329.81
742.501	4323.61
742.69	4395.3
742.88	4258.9
743.069	4361.01
743.258	4386.78
743.447	4472.41
743.636	4410.41
743.825	4382.32
744.014	4427.08
744.204	4470.86
744.393	4387.16
744.582	4479.97
744.771	4487.52
744.96	4387.94
745.149	4441.99
745.338	4435.6
745.527	4457.49
745.716	4451.29
745.905	4383.1
746.094	4522.01
746.283	4529.18
746.471	4477.06
746.66	4481.13
746.849	4504.57
747.038	4463.69
747.227	4448
747.416	4474.54
747.604	4482.68
747.793	4411.19
747.982	4478.61
748.171	4502.06
748.359	4447.03
748.548	4479.77
748.737	4425.53
748.926	4459.04
749.114	4358.3
749.303	4456.33
749.491	4404.79
749.68	4316.64
749.869	4428.43
750.057	4418.16
750.246	4388.33
750.434	4383.87
750.623	4393.75
750.811	4303.08
751	4412.35
751.188	4365.85
751.377	4370.89
751.565	4327.1
751.754	4307.53
751.942	4288.55
752.131	4377.09
752.319	4310.63
752.507	4260.07
752.696	4326.52
752.884	4324.78
753.072	4276.15
753.261	4310.05
753.449	4305.01
753.637	4235.85
753.825	4370.5
754.014	4340.86
754.202	4336.01
754.39	4373.8
754.578	4336.6
754.766	4269.17
754.955	4230.81
755.143	4340.28
755.331	4256
755.519	4282.73
755.707	4254.83
755.895	4231
756.083	4298.04
756.271	4204.46
756.459	4264.13
756.647	4217.44
756.835	4186.05
757.023	4184.12
757.211	4206.98
757.399	4153.5
757.587	4171.14
757.775	4070
757.963	4124.25
758.151	4129.48
758.339	4075.23
758.526	4086.08
758.714	4066.12
758.902	3966.34
759.09	3854.55
759.278	3624.96
759.465	3310.51
759.653	2889.3
759.841	2608.56
760.028	2226.11
760.216	1961.84
760.404	1806.26
760.591	1517.38
760.779	1243.62
760.967	1081.45
761.154	913.66
761.342	908.04
761.529	910.76
761.717	989.22
761.905	954.74
762.092	1017.51
762.28	991.94
762.467	958.23
762.655	883.44
762.842	875.3
763.029	920.44
763.217	929.94
763.404	924.51
763.592	955.13
763.779	907.27
763.966	921.99
764.154	995.04
764.341	1028.75
764.528	1026.04
764.716	1106.83
764.903	1210.1
765.09	1272.1
765.277	1340.49
765.465	1521.06
765.652	1602.24
765.839	1668.31
766.026	1827.38
766.213	1895.57
766.4	2011.24
766.588	2243.74
766.775	2284.81
766.962	2442.14
767.149	2494.64
767.336	2673.86
767.523	2679.28
767.71	2821.69
767.897	2947.62
768.084	3078.21
768.271	3073.75
768.458	3172.76
768.645	3275.44
768.832	3299.47
769.019	3327.95
769.206	3332.99
769.392	3459.7
769.579	3518.4
769.766	3476.75
769.953	3487.98
770.14	3531.19
770.327	3549.59
770.513	3627.09
770.7	3624.96
770.887	3574.59
771.073	3633.29
771.26	3637.36
771.447	3591.44
771.634	3560.44
771.82	3692.58
772.007	3580.79
772.193	3667.59
772.38	3661.77
772.567	3619.73
772.753	3645.69
772.94	3678.44
773.126	3652.86
773.313	3674.17
773.499	3611.4
773.686	3681.54
773.872	3599.19
774.059	3683.28
774.245	3632.52
774.432	3604.23
774.618	3538.74
774.804	3601.13
774.991	3574.98
775.177	3615.47
775.363	3612.37
775.55	3624.57
775.736	3551.14
775.922	3597.84
776.109	3576.14
776.295	3573.04
776.481	3639.69
776.667	3614.89
776.853	3576.14
777.04	3542.23
777.226	3528.09
777.412	3611.4
777.598	3529.44
777.784	3527.12
777.97	3532.35
778.156	3541.65
778.342	3520.73
778.528	3502.32
778.715	3417.85
778.901	3460.08
779.087	3501.74
779.272	3452.33
779.458	3426.37
779.644	3482.56
779.83	3427.92
780.016	3495.93
780.202	3422.5
780.388	3447.1
780.574	3369.41
780.76	3413.2
780.946	3462.8
781.131	3417.65
781.317	3392.27
781.503	3346.16
781.689	3367.08
781.874	3442.06
782.06	3367.86
782.246	3414.55
782.432	3330.08
782.617	3352.55
782.803	3394.79
782.989	3302.95
783.174	3273.12
783.36	3328.34
783.545	3302.76
783.731	3283.97
783.916	3200.07
784.102	3271.18
784.288	3225.65
784.473	3257.62
784.659	3199.88
784.844	3262.46
785.029	3211.51
785.215	3230.11
785.4	3191.94
785.586	3287.26
785.771	3134.39
785.956	3254.9
786.142	3174.89
786.327	3168.88
786.512	3135.36
786.698	3140.21
786.883	3103.2
787.068	3123.35
787.254	3098.55
787.439	3080.53
787.624	3077.05
787.809	3053.6
787.994	3004
788.18	3130.91
788.365	3015.05
788.55	3026.28
788.735	3060.19
788.92	3002.06
789.105	2977.65
789.29	3003.23
789.475	2948.2
789.66	2941.03
789.845	2932.7
790.03	2950.33
790.215	2936.58
790.4	2950.53
790.585	2937.55
790.77	2941.81
790.955	2879.81
791.14	2921.47
791.325	2946.07
791.51	2810.06
791.695	2906.55
791.879	2883.88
792.064	2829.44
792.249	2933.48
792.434	2883.3
792.618	2896.47
792.803	2899.57
792.988	2906.93
793.173	2898.02
793.357	2923.02
793.542	2878.07
793.727	2949.56
793.911	2952.08
794.096	2927.86
794.281	2956.15
794.465	3009.43
794.65	2944.33
794.834	2979.01
795.019	2974.75
795.203	2982.88
795.388	2978.04
795.572	3009.81
795.757	2996.45
795.941	2944.52
796.126	2942
796.31	2892.21
796.494	2921.27
796.679	2873.8
796.863	2897.64
797.048	2965.64
797.232	2943.17
797.416	2963.51
797.601	2924.37
797.785	2979.2
797.969	2997.41
798.153	2944.91
798.338	2993.15
798.522	3028.41
798.706	3010.78
798.89	3055.15
799.074	3121.99
799.258	3073.17
799.443	3011.17
799.627	3020.86
799.811	3026.09
799.995	2984.05
800.179	2944.33
800.363	2972.62
800.547	2978.43
800.731	3042.36
800.915	2891.24
801.099	2911.58
801.283	2918.37
801.467	2936.19
801.651	2927.47
801.835	2958.28
802.019	2970.48
802.202	2942
802.386	2879.23
802.57	2887.75
802.754	2942
802.938	2840.09
803.121	2973.97
803.305	2933.87
803.489	2917.01
803.673	2936.97
803.856	2932.9
804.04	2921.08
804.224	2933.28
804.407	2887.37
804.591	2923.6
804.775	2898.6
804.958	2933.48
805.142	2990.25
805.326	2916.43
805.509	2973.39
805.693	2990.83
805.876	2978.43
806.06	2985.21
806.243	3003.03
806.427	2990.44
806.61	2996.45
806.794	2949.37
806.977	3021.05
807.16	2989.08
807.344	2975.33
807.527	2980.95
807.71	2982.88
807.894	2973.97
808.077	3004.97
808.26	2920.11
808.444	2932.12
808.627	2949.95
808.81	2861.6
808.993	2851.33
809.177	2846.68
809.36	2880.78
809.543	2870.7
809.726	2763.56
809.909	2723.84
810.092	2789.52
810.276	2767.82
810.459	2711.06
810.642	2752.13
810.825	2689.94
811.008	2737.02
811.191	2635.5
811.374	2637.82
811.557	2662.81
811.74	2708.34
811.923	2579.5
812.106	2567.3
812.289	2555.28
812.472	2536.3
812.654	2526.22
812.837	2504.91
813.02	2429.93
813.203	2385.75
813.386	2318.33
813.569	2273.19
813.751	2205.57
813.934	2254.2
814.117	2197.05
814.3	2158.49
814.482	2096.88
814.665	2081.18
814.848	2059.29
815.03	1945.37
815.213	1940.72
815.396	1929.67
815.578	1901
815.761	1870.58
815.943	1931.61
816.126	1842.88
816.309	1814.78
816.491	1756.46
816.674	1690.4
816.856	1738.06
817.039	1740.58
817.221	1831.25
817.403	1733.6
817.586	1777.78
817.768	1819.43
817.951	1697.95
818.133	1677.42
818.315	1711.9
818.498	1781.07
818.68	1784.17
818.862	1802.38
819.045	1789.59
819.227	1810.71
819.409	1812.65
819.591	1818.08
819.774	1811.29
819.956	1754.72
820.138	1872.52
820.32	1848.11
820.502	1922.12
820.684	2004.07
820.866	2007.37
821.048	2022.48
821.231	2062.97
821.413	2050.18
821.595	2085.25
821.777	2037.01
821.959	2031.78
822.141	2130.2
822.323	1945.17
822.505	1889.76
822.686	1817.69
822.868	1753.36
823.05	1640.41
823.232	1580.15
823.414	1516.22
823.596	1609.22
823.778	1583.64
823.96	1599.92
824.141	1606.89
824.323	1667.53
824.505	1721.4
824.687	1763.83
824.868	1850.04
825.05	1938.78
825.232	1996.9
825.413	2062.2
825.595	1998.45
825.777	1956.22
825.958	1975.01
826.14	1985.28
826.321	2029.07
826.503	1964.94
826.685	1996.71
826.866	2038.37
827.048	2029.65
827.229	1977.14
827.411	1920.18
827.592	1897.9
827.773	1852.37
827.955	1800.06
828.136	1808.58
828.318	1802.58
828.499	1807.61
828.68	1776.42
828.862	1768.28
829.043	1791.14
829.224	1765.76
829.406	1750.65
829.587	1735.73
829.768	1777.58
829.949	1793.08
830.131	1791.14
830.312	1838.03
830.493	1806.26
830.674	1774.68
830.855	1744.26
831.036	1831.06
831.218	1848.3
831.399	1874.84
831.58	1783.01
831.761	1811.68
831.942	1785.33
832.123	1837.84
832.304	1749.49
832.485	1771.19
832.666	1794.24
832.847	1823.89
833.028	1794.83
833.209	1784.75
833.389	1758.4
833.57	1741.55
833.751	1783.59
833.932	1821.95
834.113	1803.16
834.294	1790.37
834.475	1804.32
834.655	1848.69
834.836	1851.59
835.017	1860.12
835.198	1802.38
835.378	1849.27
835.559	1892.67
835.74	1852.56
835.92	1854.69
836.101	1790.56
836.281	1855.28
836.462	1879.3
836.643	1865.74
836.823	1898.48
837.004	1915.14
837.184	1923.09
837.365	1928.71
837.545	1913.01
837.726	1839.58
837.906	1941.88
838.087	1899.64
838.267	1909.14
838.448	1857.21
838.628	1878.14
838.808	1886.86
838.989	1929.48
839.169	1879.3
839.349	1910.88
839.53	1891.51
839.71	1937.42
839.89	1862.83
840.07	1913.4
840.251	1886.86
840.431	1899.84
840.611	1873.29
840.791	1849.08
840.971	1922.7
841.151	1855.08
841.332	1858.57
841.512	1914.17
841.692	1861.86
841.872	1882.21
842.052	1860.31
842.232	1928.9
842.412	1850.63
842.592	1852.18
842.772	1889.76
842.952	1889.76
843.132	1850.04
843.312	1846.56
843.492	1830.67
843.672	1866.32
843.851	1807.42
844.031	1839.39
844.211	1856.82
844.391	1792.89
844.571	1859.15
844.751	1873.49
844.93	1851.21
845.11	1786.11
845.29	1854.5
845.47	1839.19
845.649	1834.74
845.829	1872.13
846.009	1808.19
846.188	1831.06
846.368	1826.99
846.547	1800.44
846.727	1865.54
846.907	1784.94
847.086	1815.75
847.266	1840.16
847.445	1811.1
847.625	1795.41
847.804	1767.9
847.984	1820.79
848.163	1771.58
848.343	1795.6
848.522	1753.56
848.701	1808.19
848.881	1756.85
849.06	1757.63
849.239	1759.37
849.419	1775.64
849.598	1702.6
849.777	1716.55
849.957	1674.9
850.136	1636.73
850.315	1601.47
850.494	1639.63
850.674	1619.1
850.853	1715.78
851.032	1702.99
851.211	1665.79
851.39	1672.38
851.569	1624.72
851.748	1636.73
851.927	1688.85
852.107	1647.97
852.286	1612.7
852.465	1588.29
852.644	1682.06
852.823	1631.5
853.002	1647.97
853.181	1638.08
853.359	1634.4
853.538	1602.43
853.717	1666.18
853.896	1552.06
854.075	1464.1
854.254	1446.66
854.433	1404.04
854.611	1453.44
854.79	1407.53
854.969	1446.86
855.148	1489.09
855.327	1412.56
855.505	1518.74
855.684	1492.39
855.863	1510.79
856.041	1489.67
856.22	1540.05
856.399	1527.07
856.577	1587.71
856.756	1589.07
856.934	1710.55
857.113	1658.04
857.291	1569.69
857.47	1542.95
857.648	1584.03
857.827	1591.78
858.005	1610.57
858.184	1581.32
858.362	1627.23
858.541	1587.13
858.719	1601.66
858.898	1584.03
859.076	1554.39
859.254	1628.01
859.433	1541.79
859.611	1545.28
859.789	1511.57
859.967	1560.97
860.146	1629.95
860.324	1519.9
860.502	1557.1
860.68	1494.52
860.859	1510.02
861.037	1529
861.215	1510.21
861.393	1549.15
861.571	1516.02
861.749	1540.82
861.927	1499.17
862.105	1516.41
862.283	1509.63
862.461	1472.82
862.639	1442.98
862.817	1528.62
862.995	1485.22
863.173	1455.19
863.351	1482.7
863.529	1480.96
863.707	1529
863.885	1518.15
864.063	1420.89
864.241	1446.86
864.418	1499.36
864.596	1463.52
864.774	1418.18
864.952	1437.94
865.129	1467.39
865.307	1426.9
865.485	1375.56
865.663	1472.24
865.84	1350.95
866.018	1373.04
866.196	1274.42
866.373	1297.48
866.551	1228.7
866.728	1199.83
866.906	1253.3
867.084	1286.82
867.261	1297.28
867.439	1313.75
867.616	1361.99
867.794	1319.76
867.971	1355.21
868.149	1330.03
868.326	1403.46
868.503	1329.64
868.681	1323.05
868.858	1346.49
869.035	1289.73
869.213	1374.01
869.39	1330.03
869.567	1406.56
869.745	1340.1
869.922	1353.08
870.099	1359.67
870.276	1343.98
870.454	1379.43
870.631	1345.72
870.808	1364.9
870.985	1366.06
871.162	1391.44
871.339	1343.59
871.517	1288.18
871.694	1289.34
871.871	1332.74
872.048	1292.25
872.225	1296.7
872.402	1314.14
872.579	1232.38
872.756	1294.76
872.933	1265.7
873.11	1313.56
873.287	1326.73
873.463	1275.97
873.64	1262.8
873.817	1326.73
873.994	1286.24
874.171	1247.49
874.348	1281.59
874.524	1226.57
874.701	1280.04
874.878	1205.06
875.055	1266.48
875.231	1246.71
875.408	1252.53
875.585	1195.37
875.762	1238.97
875.938	1215.13
876.115	1230.83
876.291	1221.92
876.468	1218.62
876.645	1154.49
876.821	1222.3
876.998	1188.01
877.174	1218.62
877.351	1212.81
877.527	1186.65
877.704	1210.68
877.88	1209.71
878.057	1187.62
878.233	1244.2
878.409	1201.38
878.586	1222.3
878.762	1163.6
878.938	1185.49
879.115	1152.17
879.291	1171.73
879.467	1088.04
879.644	1169.22
879.82	1177.55
879.996	1153.14
880.172	1096.37
880.349	1097.92
880.525	1168.44
880.701	1089.39
880.877	1121.94
881.053	1145.39
881.229	1126.01
881.405	1201.18
881.581	1096.17
881.757	1134.34
881.933	1153.91
882.109	1170.57
882.285	1118.65
882.461	1069.82
882.637	1093.65
882.813	1095.98
882.989	1105.28
883.165	1152.94
883.341	1071.37
883.517	1154.1
883.693	1165.73
883.869	1134.73
884.044	1097.53
884.22	1151.59
884.396	1167.47
884.572	1108.38
884.747	1165.73
884.923	1142.29
885.099	1146.16
885.275	1143.84
885.45	1150.23
885.626	1111.67
885.801	1102.57
885.977	1129.69
886.153	1053.94
886.328	1094.04
886.504	1087.65
886.679	1125.62
886.855	1092.3
887.03	1076.6
887.206	1136.09
887.381	1118.45
887.557	1142.87
887.732	1141.9
887.908	1122.72
888.083	1153.91
888.258	1119.42
888.434	1094.43
888.609	1114
888.784	1151
888.96	1101.21
889.135	1081.06
889.31	1053.55
889.485	1116.52
889.661	1083.39
889.836	1164.18
890.011	1104.12
890.186	1118.07
890.361	1079.12
890.537	1118.84
890.712	1120.97
890.887	1097.34
891.062	1132.79
891.237	1154.3
891.412	1077.38
891.587	1123.88
891.762	1109.54
891.937	1127.95
892.112	1082.8
892.287	1111.48
892.462	1058.78
892.637	1008.21
892.812	984.19
892.987	1020.81
893.161	1012.09
893.336	1008.6
893.511	1019.64
893.686	1030.69
893.861	978.96
894.035	1004.72
894.21	1006.66
894.385	948.73
894.56	965.2
894.734	906.49
894.909	915.02
895.084	889.06
895.258	864.84
895.433	921.22
895.608	886.15
895.782	845.08
895.957	853.8
896.131	840.62
896.306	755.57
896.48	771.45
896.655	777.27
896.829	710.81
897.004	728.63
897.178	694.54
897.353	704.61
897.527	773.2
897.701	715.27
897.876	670.32
898.05	767.77
898.224	737.16
898.399	802.26
898.573	718.75
898.747	629.82
898.921	662.18
899.096	573.06
899.27	601.15
899.444	590.11
899.618	608.9
899.792	622.46
899.967	645.9
900.141	706.16
900.315	616.46
900.489	625.37
900.663	617.62
900.837	635.44
901.011	555.62
901.185	651.14
901.359	650.75
901.533	621.88
901.707	670.32
901.881	627.89
902.055	582.36
902.229	621.11
902.403	676.52
902.576	606.57
902.75	629.24
902.924	734.06
903.098	665.09
903.272	730.57
903.446	767.19
903.619	756.15
903.793	813.88
903.967	761.18
904.14	827.64
904.314	801.87
904.488	806.72
904.661	841.4
904.835	785.21
905.009	851.28
905.182	857.86
905.356	828.22
905.529	799.35
905.703	775.91
905.876	773.2
906.05	746.85
906.223	730.38
906.397	664.12
906.57	670.9
906.744	629.63
906.917	634.86
907.09	624.98
907.264	624.21
907.437	577.51
907.61	589.14
907.784	570.34
907.957	589.72
908.13	570.54
908.304	595.14
908.477	572.67
908.65	549.22
908.823	531.4
908.996	580.81
909.17	547.67
909.343	549.61
909.516	550.58
909.689	526.36
909.862	510.67
910.035	555.62
910.208	516.87
910.381	501.18
910.554	613.55
910.727	540.89
910.9	549.81
911.073	534.11
911.246	596.89
911.419	588.94
911.592	594.17
911.765	525.01
911.938	536.44
912.11	547.67
912.283	554.26
912.456	562.4
912.629	549.42
912.802	494.2
912.974	463.98
913.147	443.05
913.32	379.5
913.493	429.88
913.665	471.92
913.838	469.79
914.01	452.55
914.183	481.61
914.356	480.44
914.528	519.39
914.701	557.94
914.873	512.41
915.046	453.71
915.218	456.61
915.391	386.86
915.563	404.88
915.736	444.41
915.908	422.13
916.081	469.21
916.253	457
916.425	465.33
916.598	499.24
916.77	458.94
916.942	445.18
917.115	372.91
917.287	467.85
917.459	420.77
917.632	381.83
917.804	323.9
917.976	419.8
918.148	456.81
918.32	439.37
918.493	469.79
918.665	520.74
918.837	498.27
919.009	523.46
919.181	524.81
919.353	482.58
919.525	475.02
919.697	509.31
919.869	501.18
920.041	549.03
920.213	597.47
920.385	573.44
920.557	510.09
920.729	550
920.901	531.01
921.073	505.05
921.244	513.96
921.416	533.73
921.588	493.62
921.76	525.39
921.932	574.99
922.103	504.66
922.275	497.3
922.447	548.84
922.619	453.51
922.79	475.79
922.962	466.49
923.134	507.57
923.305	432.98
923.477	422.51
923.648	422.9
923.82	458.55
923.991	413.02
924.163	397.91
924.335	418.06
924.506	437.05
924.677	482.77
924.849	396.94
925.02	446.15
925.192	449.64
925.363	421.55
925.535	437.82
925.706	389.77
925.877	451
926.049	397.52
926.22	416.51
926.391	448.48
926.562	438.21
926.734	408.76
926.905	433.17
927.076	377.76
927.247	401.4
927.419	363.81
927.59	351.99
927.761	343.66
927.932	339.78
928.103	340.17
928.274	293.87
928.445	264.42
928.616	296.77
928.787	280.89
928.958	337.85
929.129	299.48
929.3	282.44
929.471	220.82
929.642	189.24
929.813	176.07
929.984	259.38
930.155	189.05
930.326	227.6
930.496	189.24
930.667	115.42
930.838	196.22
931.009	148.56
931.18	153.98
931.35	142.16
931.521	144.68
931.692	110.58
931.863	80.55
932.033	101.48
932.204	93.73
932.374	107.87
932.545	86.36
932.716	117.75
932.886	142.74
933.057	54.01
933.227	78.42
933.398	121.62
933.568	55.36
933.739	25.53
933.909	52.65
934.08	78.42
934.25	23.78
934.421	4.41
934.591	67.57
934.761	29.98
934.932	25.14
935.102	41.41
935.272	50.13
935.443	46.64
935.613	65.24
935.783	68.93
935.953	17
936.123	185.56
936.294	35.79
936.464	41.61
936.634	50.13
936.804	9.64
936.974	20.1
937.144	72.03
937.314	63.11
937.484	-0.82
937.655	7.9
937.825	68.54
937.995	24.36
938.165	76.68
938.334	37.73
938.504	58.27
938.674	57.3
938.844	60.01
939.014	102.44
939.184	89.08
939.354	130.15
939.524	122.01
939.694	92.18
939.863	87.53
940.033	130.92
940.203	132.47
940.373	109.61
940.542	131.31
940.712	85.2
940.882	131.7
941.051	125.31
941.221	98.96
941.391	140.22
941.56	70.28
941.73	70.28
941.899	146.42
942.069	72.03
942.238	144.1
942.408	99.73
942.577	111.94
942.747	43.16
942.916	52.07
943.086	48.97
943.255	106.51
943.425	101.28
943.594	78.42
943.763	11
943.933	33.08
944.102	12.16
944.271	64.08
944.441	79.58
944.61	78.42
944.779	71.25
944.948	142.94
945.117	55.17
945.287	69.89
945.456	0.15
945.625	49.74
945.794	80.55
945.963	39.09
946.132	89.46
946.301	54.78
946.47	87.53
946.639	32.69
946.808	62.34
946.977	83.65
947.146	112.52
947.315	68.34
947.484	76.29
947.653	57.49
947.822	54.78
947.991	37.34
948.16	121.43
948.329	112.52
948.498	82.49
948.666	89.46
948.835	96.63
949.004	15.84
949.173	52.26
949.341	70.28
949.51	70.86
949.679	101.48
949.847	140.61
950.016	120.07
950.185	93.92
950.353	73.19
950.522	53.04
950.69	127.24
950.859	63.31
951.028	115.42
951.196	64.86
951.365	74.54
951.533	59.43
951.701	80.94
951.87	98.18
952.038	47.81
952.207	85.2
952.375	106.51
952.543	32.31
952.712	56.72
952.88	50.52
953.048	119.11
953.217	84.23
953.385	76.48
953.553	96.44
953.721	50.13
953.89	60.01
954.058	50.52
954.226	56.72
954.394	84.62
954.562	29.01
954.73	91.98
954.898	63.69
955.067	116.78
955.235	25.91
955.403	98.76
955.571	133.83
955.739	92.76
955.907	46.26
956.075	49.94
956.243	28.04
956.41	74.74
956.578	35.21
956.746	16.81
956.914	37.34
957.082	138.48
957.25	96.83
957.418	78.42
957.585	74.74
957.753	102.25
957.921	55.56
958.089	86.75
958.256	94.89
958.424	79.97
958.592	77.26
958.759	60.4
958.927	90.63
959.095	35.21
959.262	67.96
959.43	68.15
959.597	38.7
959.765	79.39
959.932	35.02
960.1	96.44
960.267	64.08
960.435	70.28
960.602	118.14
960.77	67.38
960.937	45.29
961.104	103.22
961.272	35.21
961.439	54.01
961.606	91.98
961.774	96.24
961.941	72.22
962.108	91.59
962.275	81.71
962.443	104.77
962.61	123.95
962.777	165.41
962.944	94.89
963.111	122.21
963.278	115.23
963.446	106.51
963.613	88.3
963.78	114.46
963.947	106.13
964.114	99.34
964.281	132.67
964.448	102.64
964.615	75.9
964.782	101.48
964.949	101.28
965.116	127.05
965.282	124.14
965.449	106.9
965.616	54.01
965.783	84.62
965.95	120.46
966.117	62.53
966.283	79.78
966.45	120.27
966.617	113.49
966.784	138.67
966.95	146.81
967.117	140.03
967.284	88.69
967.45	97.02
967.617	126.08
967.784	120.85
967.95	157.86
968.117	105.16
968.283	188.27
968.45	192.92
968.616	113.49
968.783	158.63
968.949	137.51
969.116	162.7
969.282	124.34
969.449	164.44
969.615	143.13
969.781	102.44
969.948	120.85
970.114	72.41
970.28	173.94
970.447	101.67
970.613	185.95
970.779	112.71
970.945	121.04
971.112	127.82
971.278	127.24
971.444	122.98
971.61	152.82
971.776	130.73
971.942	138.87
972.108	127.82
972.275	105.35
972.441	152.62
972.607	149.72
972.773	60.59
972.939	108.06
973.105	108.06
973.271	85.2
973.437	83.26
973.602	91.4
973.768	121.62
973.934	104.19
974.1	123.17
974.266	60.59
974.432	119.11
974.598	117.56
974.763	134.22
974.929	110.39
975.095	189.24
975.261	59.63
975.426	71.44
975.592	95.08
975.758	169.67
975.923	55.36
976.089	84.81
976.255	150.69
976.42	110.77
976.586	126.08
976.751	124.34
976.917	181.69
977.082	147.01
977.248	61.37
977.413	48.97
977.579	103.22
977.744	105.54
977.91	76.68
978.075	82.88
978.24	147.59
978.406	81.91
978.571	92.56
978.736	68.34
978.902	132.47
979.067	97.99
979.232	35.41
979.397	94.69
979.563	141.77
979.728	68.15
979.893	110.19
980.058	78.81
980.223	139.06
980.388	96.24
980.554	102.44
980.719	97.41
980.884	116.2
981.049	145.65
981.214	97.02
981.379	124.14
981.544	91.01
981.709	89.46
981.874	100.7
982.039	99.15
982.204	152.04
982.368	111.16
982.533	77.45
982.698	139.26
982.863	106.32
983.028	104.19
983.193	124.14
983.357	105.35
983.522	112.91
983.687	105.74
983.852	90.82
984.016	88.88
984.181	103.61
984.346	98.38
984.51	114.26
984.675	106.9
984.839	105.16
985.004	108.84
985.168	149.72
985.333	127.44
985.498	119.3
985.662	126.08
985.827	108.06
985.991	86.94
986.155	97.79
986.32	152.04
986.484	144.1
986.649	137.32
986.813	60.98
986.977	102.64
987.142	143.71
987.306	64.66
987.47	61.18
987.634	105.16
987.799	111.94
987.963	112.32
988.127	127.05
988.291	173.94
988.455	94.5
988.62	99.73
988.784	119.69
988.948	128.21
989.112	86.17
989.276	102.44
989.44	126.08
989.604	76.68
989.768	83.84
989.932	166.96
990.096	76.29
990.26	68.34
990.424	69.89
990.588	85.39
990.752	147.97
990.915	142.16
991.079	78.81
991.243	105.74
991.407	122.21
991.571	84.23
991.734	144.49
991.898	123.76
992.062	182.66
992.226	101.86
992.389	71.06
992.553	36.18
992.717	63.69
992.88	101.09
993.044	104.19
993.207	79.78
993.371	131.89
993.535	92.56
993.698	107.87
993.862	139.26
994.025	123.95
994.189	102.64
994.352	81.33
994.515	109.61
994.679	103.22
994.842	87.72
995.006	103.41
995.169	47.42
995.332	60.59
995.496	101.67
995.659	38.89
995.822	73.38
995.985	85.78
996.149	137.71
996.312	82.88
996.475	146.04
996.638	86.75
996.801	128.6
996.964	128.99
997.128	73.77
997.291	68.15
997.454	79.97
997.617	50.13
997.78	122.01
997.943	56.91
998.106	92.76
998.269	66.99
998.432	80.94
998.595	91.21
998.758	26.11
998.92	29.98
999.083	36.38
999.246	64.47
999.409	16.03
999.572	26.11
999.735	75.71
999.897	85.98
1000.06	63.11
1000.223	65.83
1000.386	112.52
1000.548	83.46
1000.711	83.26
1000.874	83.46
1001.036	46.06
1001.199	102.83
1001.361	31.14
1001.524	66.99
1001.687	115.23
1001.849	26.88
1002.012	83.07
1002.174	79.19
1002.337	117.75
1002.499	86.75
1002.661	88.69
1002.824	44.32
1002.986	29.59
1003.149	62.73
1003.311	48.58
1003.473	127.44
1003.636	72.8
1003.798	63.89
1003.96	81.71
1004.123	51.88
1004.285	57.49
1004.447	63.31
1004.609	64.28
1004.771	118.14
1004.933	0.53
1005.096	7.9
1005.258	26.49
1005.42	30.76
1005.582	102.64
1005.744	85.01
1005.906	4.6
1006.068	76.29
1006.23	25.91
1006.392	27.08
1006.554	26.3
1006.716	97.79
1006.878	83.46
1007.04	16.23
1007.202	47.03
1007.363	60.79
1007.525	82.29
1007.687	65.63
1007.849	83.26
1008.011	24.75
1008.172	40.06
1008.334	39.86
1008.496	75.32
1008.658	15.45
1008.819	19.71
1008.981	10.22
1009.143	27.46
1009.304	50.13
1009.466	65.05
1009.627	101.28
1009.789	128.6
1009.95	64.47
1010.112	4.02
1010.273	66.21
1010.435	33.66
1010.596	30.76
1010.758	41.99
1010.919	53.04
1011.081	13.9
1011.242	42.38
1011.403	74.54
1011.565	35.99
1011.726	48.97
1011.887	24.56
1012.049	21.26
1012.21	69.31
1012.371	104.77
1012.532	-12.25
1012.693	35.41
1012.855	33.66
1013.016	56.14
1013.177	75.13
1013.338	40.25
1013.499	117.75
1013.66	60.98
1013.821	76.48
1013.982	63.89
1014.143	87.33
1014.304	22.43
1014.465	50.52
1014.626	78.23
1014.787	31.92
1014.948	114.26
1015.109	-20.39
1015.27	75.71
1015.431	34.63
1015.592	26.11
1015.752	68.54
1015.913	54.01
1016.074	48.78
1016.235	51.88
1016.395	27.46
1016.556	27.85
1016.717	51.88
1016.877	65.63
1017.038	17.58
1017.199	35.21
1017.359	51.88
1017.52	35.41
1017.681	29.59
1017.841	13.13
1018.002	13.13
1018.162	25.14
1018.323	84.43
1018.483	21.65
1018.644	27.85
1018.804	30.76
1018.964	-8.57
1019.125	39.67
1019.285	35.6
1019.446	24.17
1019.606	5.76
1019.766	-14.19
1019.926	57.3
1020.087	26.88
1020.247	10.22
1020.407	54.2
1020.567	75.51
1020.728	19.91
1020.888	13.13
1021.048	25.33
1021.208	18.94
1021.368	16.81
1021.528	66.99
1021.688	67.38
1021.848	72.99
1022.008	37.34
1022.168	2.47
1022.328	16.23
1022.488	31.92
1022.648	15.45
1022.808	44.13
1022.968	59.24
1023.128	3.83
1023.288	15.45
1023.448	50.71
1023.608	46.06
1023.767	28.43
1023.927	4.41
1024.087	3.83
1024.247	-6.44
1024.406	32.69
1024.566	-3.92
1024.726	18.55
1024.885	39.09
1025.045	41.8
1025.205	23.78
1025.364	10.61
1025.524	34.44
1025.683	29.79
1025.843	56.91
1026.003	29.98
1026.162	78.61
1026.321	62.14
1026.481	15.84
1026.64	19.52
1026.8	23.39
1026.959	20.3
1027.119	28.82
1027.278	20.1
1027.437	12.35
1027.597	17.58
1027.756	25.72
1027.915	47.03
1028.074	50.52
1028.234	29.01
1028.393	39.48
1028.552	9.83
1028.711	-48.1
1028.87	52.65
1029.03	-9.54
1029.189	21.65
1029.348	-8.96
1029.507	-17.49
1029.666	33.86
1029.825	-32.6
1029.984	18.55
1030.143	37.93
1030.302	-0.24
1030.461	-17.49
1030.62	42.77
1030.779	36.76
1030.938	20.49
1031.097	-12.25
1031.255	37.15
1031.414	50.71
1031.573	69.89
1031.732	-25.24
1031.891	6.54
1032.049	48.58
1032.208	21.07
1032.367	37.34
1032.525	-6.44
1032.684	21.07
1032.843	64.47
1033.001	-32.6
1033.16	161.54
1033.319	67.57
1033.477	45.48
1033.636	10.03
1033.794	-20.2
1033.953	30.37
1034.111	22.81
1034.27	-10.51
1034.428	41.99
1034.587	-25.43
1034.745	14.48
1034.903	27.66
1035.062	51.29
1035.22	-18.84
1035.378	53.23
1035.537	-1.4
1035.695	21.26
1035.853	20.49
1036.011	68.73
1036.17	30.76
1036.328	-13.42
1036.486	14.68
1036.644	11.96
1036.802	-80.84
1036.96	3.44
1037.119	-6.83
1037.277	11.96
1037.435	-16.13
1037.593	5.57
1037.751	6.35
1037.909	49.36
1038.067	49.36
