Data from gum_young_FLMT105791__16__17-38-15-045.txt Node

Date: Mon Mar 20 17:38:15 GMT 2023
User: antho
Spectrometer: FLMT10579
Trigger mode: 0
Integration Time (sec): 1.000000E-1
Scans to average: 10
Electric dark correction enabled: true
Nonlinearity correction enabled: false
Boxcar width: 0
XAxis mode: Wavelengths
Number of Pixels in Spectrum: 3648
>>>>>Begin Spectral Data<<<<<
345.248	-137.96
345.464	-137.96
345.681	-137.96
345.898	-154.82
346.114	-143.97
346.331	-10.67
346.548	4.63
346.764	-5.25
346.981	-34.12
347.197	-9.7
347.414	20.71
347.631	-13.19
347.847	55.2
348.064	11.22
348.28	45.71
348.497	-49.81
348.713	-14.74
348.93	21.49
349.146	-7.38
349.363	7.54
349.579	16.26
349.796	-3.12
350.012	-23.65
350.229	45.9
350.445	-12.42
350.661	-24.82
350.878	-7.77
351.094	-0.79
351.311	8.12
351.527	21.1
351.743	-13.19
351.96	16.45
352.176	44.35
352.392	40.48
352.609	22.46
352.825	14.71
353.041	-4.47
353.257	9.09
353.474	18.39
353.69	-1.57
353.906	21.3
354.122	-3.5
354.339	39.9
354.555	28.08
354.771	-14.74
354.987	55.4
355.203	34.66
355.42	-16.48
355.636	-11.25
355.852	-13.77
356.068	8.7
356.284	-29.85
356.5	42.8
356.716	10.06
356.932	13.74
357.148	29.82
357.364	-11.64
357.58	53.07
357.796	48.23
358.012	52.3
358.228	12
358.444	-51.17
358.66	57.33
358.876	1.15
359.092	5.99
359.308	32.92
359.524	42.03
359.74	-2.92
359.956	-6.8
360.172	-3.5
360.388	40.86
360.604	-7.57
360.819	84.65
361.035	1.34
361.251	21.88
361.467	-36.83
361.683	32.15
361.898	1.15
362.114	29.63
362.33	4.63
362.546	39.9
362.762	14.9
362.977	7.54
363.193	-11.64
363.409	24.59
363.624	4.44
363.84	-5.44
364.056	-11.06
364.271	26.72
364.487	-1.76
364.703	-17.45
364.918	-17.07
365.134	28.08
365.35	2.12
365.565	99.18
365.781	0.18
365.996	35.83
366.212	71.28
366.427	18.97
366.643	8.9
366.858	2.7
367.074	-9.9
367.289	43.58
367.505	107.13
367.72	-32.18
367.936	4.44
368.151	22.26
368.367	35.83
368.582	35.44
368.798	-5.25
369.013	65.08
369.228	31.37
369.444	1.15
369.659	74.96
369.874	36.99
370.09	67.8
370.305	-36.63
370.52	23.81
370.736	69.54
370.951	25.75
371.166	55.01
371.381	77.48
371.597	45.51
371.812	-51.55
372.027	3.08
372.242	5.02
372.458	81.75
372.673	18.78
372.888	3.28
373.103	35.63
373.318	84.26
373.533	24.2
373.749	34.86
373.964	-31.79
374.179	40.67
374.394	-41.09
374.609	61.21
374.824	-18.81
375.039	57.91
375.254	2.89
375.469	46.48
375.684	-6.8
375.899	53.46
376.114	-12.42
376.329	19.16
376.544	26.14
376.759	62.56
376.974	7.73
377.189	15.68
377.404	22.07
377.619	18.58
377.834	2.89
378.049	-4.08
378.264	-32.37
378.478	30.79
378.693	-19
378.908	38.73
379.123	-4.08
379.338	66.83
379.553	32.15
379.767	20.91
379.982	51.52
380.197	29.05
380.412	16.06
380.626	36.8
380.841	105.58
381.056	18.78
381.271	74.77
381.485	11.22
381.7	-8.54
381.915	38.54
382.129	12
382.344	43.96
382.559	33.5
382.773	26.33
382.988	-34.5
383.202	15.68
383.417	12.77
383.632	106.16
383.846	20.71
384.061	2.7
384.275	15.29
384.49	56.17
384.704	56.17
384.919	53.65
385.133	18.58
385.348	24.59
385.562	-5.83
385.777	40.86
385.991	25.75
386.206	26.33
386.42	12.38
386.634	72.06
386.849	40.86
387.063	24.01
387.277	-3.31
387.492	10.64
387.706	-22.1
387.92	-6.41
388.135	67.99
388.349	37.76
388.563	37.38
388.778	38.54
388.992	48.81
389.206	72.83
389.42	75.74
389.635	39.7
389.849	58.3
390.063	96.08
390.277	40.67
390.491	87.17
390.706	43.96
390.92	55.98
391.134	40.28
391.348	30.21
391.562	-17.45
391.776	18.39
391.99	-3.5
392.205	67.99
392.419	16.45
392.633	20.33
392.847	77.29
393.061	19.75
393.275	87.75
393.489	21.88
393.703	68.18
393.917	60.43
394.131	15.29
394.345	66.63
394.559	71.28
394.773	16.65
394.986	39.12
395.2	21.3
395.414	68.57
395.628	0.37
395.842	68.38
396.056	29.05
396.27	-4.28
396.484	40.67
396.697	33.5
396.911	60.43
397.125	58.3
397.339	65.08
397.553	47.06
397.766	96.47
397.98	71.48
398.194	97.83
398.408	42.41
398.621	58.5
398.835	81.16
399.049	69.54
399.262	83.88
399.476	64.7
399.69	90.46
399.903	137.74
400.117	69.93
400.331	75.74
400.544	40.28
400.758	177.26
400.971	62.95
401.185	108.87
401.398	45.32
401.612	104.8
401.826	75.55
402.039	106.16
402.253	51.52
402.466	108.87
402.68	44.93
402.893	80
403.106	79.42
403.32	53.07
403.533	81.16
403.747	97.05
403.96	88.33
404.174	99.57
404.387	55.2
404.6	78.45
404.814	128.24
405.027	77.29
405.24	83.3
405.454	67.99
405.667	94.73
405.88	16.84
406.094	88.72
406.307	111.39
406.52	89.3
406.733	40.09
406.947	45.32
407.16	145.1
407.373	121.08
407.586	68.18
407.799	37.76
408.012	125.34
408.226	102.86
408.439	118.56
408.652	50.55
408.865	97.63
409.078	109.06
409.291	109.26
409.504	62.56
409.717	121.46
409.93	114.29
410.143	86.78
410.357	19.94
410.57	28.66
410.783	62.76
410.996	78.84
411.209	81.94
411.421	124.76
411.634	75.93
411.847	102.86
412.06	85.81
412.273	93.18
412.486	95.11
412.699	170.29
412.912	89.11
413.125	137.93
413.338	90.46
413.55	115.84
413.763	75.93
413.976	106.16
414.189	75.55
414.402	97.05
414.615	157.5
414.827	74
415.04	138.13
415.253	119.91
415.466	140.84
415.678	190.05
415.891	105.38
416.104	111.78
416.316	100.34
416.529	93.95
416.742	151.49
416.954	139.09
417.167	113.71
417.38	79.61
417.592	157.31
417.805	88.72
418.017	66.83
418.23	109.06
418.442	97.83
418.655	97.63
418.868	134.64
419.08	149.17
419.293	165.44
419.505	133.09
419.718	138.13
419.93	154.79
420.142	125.53
420.355	159.83
420.567	163.89
420.78	153.24
420.992	125.53
421.205	184.82
421.417	98.41
421.629	116.81
421.842	81.55
422.054	83.68
422.266	174.94
422.479	171.26
422.691	108.68
422.903	159.63
423.115	105.77
423.328	127.86
423.54	167.19
423.752	157.31
423.964	85.81
424.177	136.58
424.389	154.98
424.601	203.81
424.813	138.32
425.025	150.53
425.238	133.67
425.45	127.47
425.662	108.48
425.874	382.25
426.086	142.19
426.298	158.08
426.51	173.19
426.722	135.8
426.934	140.45
427.146	169.32
427.358	98.79
427.57	167.77
427.782	138.9
427.994	133.28
428.206	123.98
428.418	85.04
428.63	135.99
428.842	171.45
429.054	158.66
429.266	169.71
429.478	95.31
429.69	141.42
429.902	95.11
430.114	157.89
430.325	162.34
430.537	128.63
430.749	113.33
430.961	62.56
431.173	126.31
431.384	149.17
431.596	58.88
431.808	107.13
432.02	168.16
432.231	164.28
432.443	167.77
432.655	146.26
432.867	145.1
433.078	171.45
433.29	235
433.502	191.79
433.713	223.37
433.925	167.19
434.136	195.28
434.348	107.71
434.56	111.19
434.771	238.29
434.983	124.18
435.194	153.04
435.406	152.46
435.617	200.71
435.829	253.99
436.04	189.08
436.252	208.07
436.463	204.19
436.675	194.31
436.886	184.24
437.098	194.89
437.309	222.79
437.521	172.81
437.732	201.09
437.943	198.57
438.155	174.74
438.366	154.79
438.578	237.32
438.789	220.66
439	215.04
439.211	158.47
439.423	205.16
439.634	221.63
439.845	205.16
440.057	215.82
440.268	206.91
440.479	196.06
440.69	224.73
440.902	174.94
441.113	217.37
441.324	196.44
441.535	209.62
441.746	244.3
441.957	175.13
442.168	184.04
442.38	216.01
442.591	239.84
442.802	192.37
443.013	187.53
443.224	229.57
443.435	191.41
443.646	222.41
443.857	199.16
444.068	188.5
444.279	180.75
444.49	260.38
444.701	257.67
444.912	326.06
445.123	260.77
445.334	265.22
445.545	270.07
445.756	221.44
445.967	204.39
446.178	245.27
446.388	263.87
446.599	267.94
446.81	257.86
447.021	216.4
447.232	266
447.443	281.69
447.653	242.56
447.864	285.57
448.075	279.37
448.286	258.64
448.496	254.18
448.707	272
448.918	254.18
449.129	371.01
449.339	243.72
449.55	295.84
449.761	276.46
449.971	289.83
450.182	258.44
450.393	278.59
450.603	263.67
450.814	278.01
451.024	296.03
451.235	333.81
451.446	327.8
451.656	322.77
451.867	262.51
452.077	319.28
452.288	353.77
452.498	354.15
452.709	298.94
452.919	323.54
453.13	269.49
453.34	293.51
453.55	243.72
453.761	313.85
453.971	286.15
454.182	320.83
454.392	313.27
454.602	343.89
454.813	319.28
455.023	301.07
455.233	289.44
455.444	306.88
455.654	260.19
455.864	307.85
456.075	312.3
456.285	313.66
456.495	297.39
456.705	333.42
456.916	364.42
457.126	361.13
457.336	321.22
457.546	264.45
457.756	316.95
457.967	362.48
458.177	307.85
458.387	322.77
458.597	296.61
458.807	309.01
459.017	332.84
459.227	304.36
459.437	302.04
459.647	361.13
459.857	305.33
460.068	320.64
460.278	388.25
460.488	339.82
460.698	375.27
460.908	348.15
461.117	288.47
461.327	302.62
461.537	340.4
461.747	380.5
461.957	335.94
462.167	422.16
462.377	374.11
462.587	326.25
462.797	379.92
463.007	339.62
463.216	363.65
463.426	396.58
463.636	392.32
463.846	313.27
464.056	342.34
464.265	370.62
464.475	331.68
464.685	371.4
464.895	362.87
465.104	349.7
465.314	370.62
465.524	345.63
465.733	343.69
465.943	416.15
466.153	435.72
466.362	392.52
466.572	364.81
466.782	348.54
466.991	346.4
467.201	441.53
467.41	345.05
467.62	384.18
467.829	376.63
468.039	401.23
468.249	373.72
468.458	364.42
468.668	393.48
468.877	410.53
469.086	448.31
469.296	411.31
469.505	364.03
469.715	460.71
469.924	407.05
470.134	435.53
470.343	439.02
470.552	381.67
470.762	398.72
470.971	378.37
471.18	391.35
471.39	406.66
471.599	390
471.808	433.78
472.018	380.7
472.227	458.39
472.436	476.99
472.645	419.83
472.855	387.28
473.064	485.51
473.273	449.28
473.482	446.96
473.691	471.95
473.901	489.58
474.11	424.1
474.319	541.89
474.528	478.35
474.737	516.13
474.946	463.23
475.155	487.45
475.364	510.9
475.573	464.59
475.783	501.98
475.992	469.63
476.201	501.21
476.41	485.51
476.619	471.37
476.828	491.33
477.037	465.75
477.245	491.91
477.454	534.34
477.663	505.47
477.872	507.02
478.081	569.02
478.29	517.1
478.499	585.68
478.708	536.08
478.917	607.58
479.125	547.71
479.334	548.68
479.543	517.1
479.752	594.4
479.961	509.93
480.169	578.9
480.378	556.43
480.587	682.75
480.796	588.59
481.004	578.13
481.213	646.71
481.422	601.76
481.63	608.16
481.839	619.39
482.048	671.32
482.256	587.81
482.465	580.26
482.674	647.87
482.882	624.82
483.091	688.37
483.299	625.59
483.508	646.71
483.716	612.03
483.925	642.06
484.134	606.03
484.342	642.06
484.551	669.38
484.759	664.92
484.967	658.14
485.176	684.49
485.384	669.38
485.593	702.71
485.801	636.44
486.01	651.17
486.218	617.65
486.426	591.69
486.635	597.89
486.843	598.66
487.051	640.32
487.26	621.14
487.468	670.35
487.676	686.43
487.885	643.61
488.093	682.36
488.301	695.73
488.509	666.47
488.717	744.94
488.926	716.46
489.134	666.09
489.342	693.41
489.55	691.27
489.758	747.27
489.967	695.92
490.175	824.38
490.383	707.74
490.591	803.07
490.799	738.16
491.007	802.1
491.215	759.09
491.423	758.5
491.631	743.59
491.839	745.33
492.047	772.84
492.255	749.2
492.463	712.39
492.671	719.37
492.879	813.14
493.087	780.98
493.295	800.16
493.503	810.62
493.711	837.17
493.919	864.29
494.127	845.3
494.334	848.6
494.542	769.16
494.75	813.72
494.958	822.83
495.166	891.22
495.374	863.71
495.581	854.8
495.789	872.23
495.997	928.03
496.205	831.74
496.412	858.67
496.62	850.73
496.828	863.32
497.035	866.23
497.243	891.8
497.451	913.11
497.658	873.59
497.866	883.08
498.074	950.51
498.281	876.69
498.489	976.86
498.696	910.6
498.904	905.17
499.112	884.63
499.319	962.52
499.527	926.87
499.734	956.51
499.942	906.91
500.149	951.67
500.357	921.25
500.564	912.73
500.771	959.81
500.979	899.16
501.186	916.41
501.394	949.35
501.601	933.85
501.808	965.43
502.016	941.6
502.223	964.65
502.43	956.71
502.638	941.98
502.845	922.8
503.052	1025.1
503.26	978.21
503.467	1035.37
503.674	1018.13
503.881	1020.84
504.089	1047.19
504.296	1008.63
504.503	996.62
504.71	1006.89
504.917	989.06
505.125	1027.43
505.332	1028.2
505.539	1059.59
505.746	1148.13
505.953	1138.25
506.16	1129.53
506.367	1169.83
506.574	1190.17
506.781	1154.33
506.988	1110.54
507.195	1121.97
507.402	1152.97
507.609	1183
507.816	1104.34
508.023	1105.89
508.23	1126.62
508.437	1090.97
508.644	1146.58
508.851	1219.43
509.058	1200.05
509.265	1214.97
509.472	1229.12
509.679	1263.99
509.885	1233.96
510.092	1215.36
510.299	1252.75
510.506	1254.5
510.713	1267.87
510.92	1238.61
511.126	1303.71
511.333	1307.58
511.54	1310.3
511.746	1381.21
511.953	1356.99
512.16	1413.76
512.367	1310.88
512.573	1349.63
512.78	1354.66
512.987	1341.1
513.193	1364.93
513.4	1273.29
513.606	1348.08
513.813	1392.64
514.02	1373.07
514.226	1427.32
514.433	1425.38
514.639	1351.95
514.846	1377.72
515.052	1394.77
515.259	1407.36
515.465	1427.13
515.672	1459.09
515.878	1503.85
516.085	1454.83
516.291	1494.74
516.497	1448.05
516.704	1440.11
516.91	1374.43
517.117	1324.25
517.323	1328.31
517.529	1366.1
517.736	1347.3
517.942	1416.47
518.148	1409.88
518.354	1446.5
518.561	1448.44
518.767	1456.58
518.973	1511.99
519.179	1520.51
519.386	1469.17
519.592	1509.86
519.798	1538.14
520.004	1642.96
520.21	1590.84
520.417	1651.29
520.623	1659.24
520.829	1699.73
521.035	1707.48
521.241	1701.28
521.447	1701.08
521.653	1844.46
521.859	1724.72
522.065	1751.46
522.271	1849.88
522.477	1813.85
522.683	1829.54
522.889	1780.33
523.095	1766.18
523.301	1805.32
523.507	1792.34
523.713	1839.23
523.919	1795.63
524.125	1908.39
524.331	1898.32
524.537	1975.04
524.742	1924.09
524.948	1963.61
525.154	1988.41
525.36	2081.8
525.566	1963.22
525.772	2024.25
525.977	1947.53
526.183	2000.23
526.389	1998.29
526.595	1920.21
526.8	1914.01
527.006	1848.53
527.212	1801.45
527.417	1824.31
527.623	1860.15
527.829	1907.23
528.034	1962.06
528.24	1983.57
528.446	1942.69
528.651	2081.6
528.857	2080.44
529.062	2157.36
529.268	2157.55
529.473	2133.53
529.679	2142.05
529.884	2211.61
530.09	2154.65
530.295	2180.42
530.501	2170.73
530.706	2200.18
530.912	2168.6
531.117	2223.43
531.323	2199.4
531.528	2258.3
531.733	2250.16
531.939	2229.63
532.144	2225.56
532.35	2274
532.555	2280.39
532.76	2244.35
532.966	2213.35
533.171	2226.14
533.376	2180.61
533.581	2158.91
533.787	2255.4
533.992	2284.84
534.197	2315.26
534.402	2235.44
534.607	2273.41
534.813	2358.08
535.018	2294.73
535.223	2284.26
535.428	2348.2
535.633	2383.27
535.838	2371.26
536.043	2368.35
536.249	2479.37
536.454	2348.01
536.659	2386.95
536.864	2371.45
537.069	2373.58
537.274	2367.96
537.479	2366.8
537.684	2377.46
537.889	2336.58
538.094	2450.11
538.299	2387.34
538.504	2460.38
538.708	2403.61
538.913	2459.02
539.118	2399.74
539.323	2488.86
539.528	2374.36
539.733	2400.71
539.938	2452.05
540.142	2440.42
540.347	2365.25
540.552	2378.23
540.757	2353.43
540.962	2359.24
541.166	2294.92
541.371	2360.21
541.576	2368.16
541.781	2301.89
541.985	2404.19
542.19	2414.66
542.395	2495.25
542.599	2498.35
542.804	2485.37
543.008	2550.47
543.213	2457.28
543.418	2430.16
543.622	2503.59
543.827	2411.56
544.031	2525.29
544.236	2520.25
544.44	2497.19
544.645	2594.26
544.849	2479.95
545.054	2580.7
545.258	2612.86
545.463	2564.03
545.667	2492.54
545.872	2567.52
546.076	2539.43
546.281	2539.43
546.485	2512.89
546.689	2560.74
546.894	2570.04
547.098	2546.02
547.302	2500.1
547.507	2588.45
547.711	2559.97
547.915	2569.46
548.119	2522.77
548.324	2491.38
548.528	2572.17
548.732	2531.68
548.936	2592.52
549.141	2563.07
549.345	2569.65
549.549	2570.23
549.753	2576.24
549.957	2630.1
550.161	2642.7
550.366	2609.57
550.57	2533.42
550.774	2580.5
550.978	2559.19
551.182	2607.24
551.386	2538.27
551.59	2553.18
551.794	2548.92
551.998	2610.92
552.202	2586.7
552.406	2604.14
552.61	2624.48
552.814	2577.02
553.018	2641.34
553.222	2571.98
553.426	2587.87
553.63	2630.3
553.833	2589.8
554.037	2563.26
554.241	2639.01
554.445	2593.68
554.649	2627.78
554.853	2577.79
555.056	2677.18
555.26	2614.02
555.464	2632.81
555.668	2591.93
555.871	2642.89
556.075	2646.57
556.279	2584.96
556.483	2553.18
556.686	2570.62
556.89	2608.6
557.094	2580.12
557.297	2514.63
557.501	2543.69
557.704	2462.51
557.908	2569.65
558.112	2487.31
558.315	2569.65
558.519	2523.74
558.722	2463.67
558.926	2492.54
559.129	2428.02
559.333	2434.03
559.536	2393.54
559.74	2389.66
559.943	2382.11
560.147	2388.69
560.35	2413.69
560.553	2457.86
560.757	2420.47
560.96	2484.99
561.164	2408.84
561.367	2521.6
561.57	2448.17
561.774	2453.6
561.977	2406.32
562.18	2371.84
562.384	2474.72
562.587	2412.52
562.79	2432.29
562.993	2371.06
563.197	2392.57
563.4	2489.44
563.603	2454.57
563.806	2478.4
564.009	2408.26
564.212	2407.29
564.416	2338.71
564.619	2408.26
564.822	2332.12
565.025	2400.12
565.228	2316.23
565.431	2374.36
565.634	2241.64
565.837	2294.14
566.04	2249.58
566.243	2282.71
566.446	2229.63
566.649	2238.35
566.852	2188.94
567.055	2267.02
567.258	2284.84
567.461	2324.18
567.664	2302.48
567.867	2220.71
568.07	2243.58
568.273	2272.25
568.475	2321.46
568.678	2215.1
568.881	2165.3
569.084	2206.57
569.287	2094.59
569.489	2125.39
569.692	2181.19
569.895	2178.28
570.098	2129.46
570.3	2105.05
570.503	2057.77
570.706	2059.32
570.909	2025.8
571.111	1965.16
571.314	2040.72
571.516	2029.68
571.719	2047.7
571.922	2012.82
572.124	2004.49
572.327	2043.63
572.529	1972.91
572.732	1991.9
572.935	2031.42
573.137	2102.92
573.34	1996.94
573.542	2062.23
573.745	2015.92
573.947	2014.37
574.15	2013.41
574.352	1974.85
574.554	2037.04
574.757	1945.21
574.959	1943.85
575.162	1922.54
575.364	1905.68
575.566	1983.76
575.769	1899.68
575.971	1910.53
576.173	1845.43
576.376	1877.98
576.578	1958.19
576.78	1960.32
576.982	1827.99
577.185	1909.56
577.387	1899.87
577.589	1891.34
577.791	1898.51
577.993	1902.19
578.196	1887.86
578.398	1894.64
578.6	1870.61
578.802	1851.63
579.004	1811.52
579.206	1786.53
579.408	1853.18
579.61	1796.41
579.812	1924.48
580.014	1830.31
580.216	1821.79
580.418	1881.27
580.62	1834.19
580.822	1820.24
581.024	1852.4
581.226	1896.77
581.428	1828.38
581.63	1939.39
581.832	1861.31
582.034	1873.52
582.236	1867.32
582.438	1889.99
582.64	1948.89
582.841	1924.48
583.043	1992.09
583.245	1899.48
583.447	1926.99
583.649	1903.94
583.85	1864.41
584.052	1920.99
584.254	1855.11
584.456	1908.98
584.657	1843.68
584.859	1881.27
585.061	1840.39
585.262	1846.59
585.464	1801.83
585.666	1842.52
585.867	1792.34
586.069	1884.76
586.27	1869.26
586.472	1835.16
586.674	1794.66
586.875	1805.51
587.077	1815.78
587.278	1861.89
587.48	1782.07
587.681	1904.52
587.883	1846.39
588.084	1757.27
588.285	1739.06
588.487	1711.93
588.688	1748.17
588.89	1652.84
589.091	1623.97
589.292	1626.3
589.494	1606.34
589.695	1567.4
589.896	1501.33
590.098	1521.29
590.299	1562.56
590.5	1519.16
590.702	1603.24
590.903	1587.94
591.104	1678.61
591.305	1629.4
591.507	1676.87
591.708	1649.16
591.909	1659.24
592.11	1686.94
592.311	1680.35
592.512	1627.65
592.714	1571.47
592.915	1598.98
593.116	1627.46
593.317	1622.42
593.518	1648.19
593.719	1654.2
593.92	1694.69
594.121	1695.85
594.322	1642.19
594.523	1641.02
594.724	1581.35
594.925	1634.63
595.126	1629.01
595.327	1623.2
595.528	1615.06
595.729	1621.65
595.929	1625.91
596.13	1651.68
596.331	1664.47
596.532	1667.57
596.733	1708.83
596.934	1691.78
597.135	1655.55
597.335	1683.84
597.536	1639.86
597.737	1647.61
597.938	1617.58
598.138	1661.37
598.339	1632.11
598.54	1639.67
598.74	1647.42
598.941	1637.92
599.142	1672.02
599.342	1639.86
599.543	1623
599.744	1637.73
599.944	1649.94
600.145	1624.55
600.345	1632.69
600.546	1699.92
600.746	1667.76
600.947	1767.35
601.147	1621.26
601.348	1691.4
601.548	1619.9
601.749	1630.17
601.949	1621.84
602.15	1599.56
602.35	1606.73
602.551	1658.85
602.751	1614.09
602.951	1600.14
603.152	1538.14
603.352	1643.15
603.552	1610.02
603.753	1657.3
603.953	1660.4
604.153	1658.46
604.354	1598.2
604.554	1636.95
604.754	1622.23
604.954	1571.86
605.155	1627.85
605.355	1624.36
605.555	1659.43
605.755	1670.28
605.955	1644.9
606.155	1666.4
606.356	1580.57
606.556	1650.32
606.756	1635.21
606.956	1583.29
607.156	1662.34
607.356	1578.44
607.556	1636.37
607.756	1601.69
607.956	1630.17
608.156	1633.27
608.356	1580.19
608.556	1607.12
608.756	1588.71
608.956	1563.14
609.156	1558.87
609.356	1550.93
609.556	1532.91
609.755	1580.96
609.955	1509.47
610.155	1562.36
610.355	1580.38
610.555	1510.63
610.755	1550.35
610.954	1494.36
611.154	1553.06
611.354	1562.17
611.554	1531.17
611.753	1523.61
611.953	1465.68
612.153	1525.16
612.352	1525.55
612.552	1460.26
612.752	1466.65
612.951	1495.32
613.151	1488.16
613.351	1491.26
613.55	1501.52
613.75	1505.4
613.949	1463.36
614.149	1454.83
614.348	1453.28
614.548	1475.37
614.747	1403.1
614.947	1436.62
615.146	1392.45
615.346	1451.34
615.545	1450.38
615.745	1459.68
615.944	1464.52
616.144	1417.24
616.343	1455.61
616.542	1408.14
616.742	1438.56
616.941	1379.27
617.14	1349.05
617.34	1390.51
617.539	1400.58
617.738	1343.43
617.938	1455.99
618.137	1441.46
618.336	1380.82
618.535	1417.05
618.734	1370.55
618.934	1415.31
619.133	1421.7
619.332	1431.97
619.531	1390.12
619.73	1380.63
619.929	1402.33
620.128	1400
620.328	1468.39
620.527	1377.53
620.726	1372.88
620.925	1409.3
621.124	1402.91
621.323	1408.33
621.522	1318.63
621.721	1383.15
621.92	1359.12
622.119	1383.73
622.318	1343.23
622.517	1338.78
622.715	1352.34
622.914	1275.23
623.113	1334.32
623.312	1282.01
623.511	1312.23
623.71	1289.95
623.909	1297.9
624.107	1408.72
624.306	1274.07
624.505	1255.08
624.704	1283.75
624.902	1302.93
625.101	1365.71
625.3	1301.19
625.499	1281.43
625.697	1297.32
625.896	1280.46
626.095	1307.97
626.293	1235.51
626.492	1261.86
626.69	1307.2
626.889	1224.08
627.088	1314.56
627.286	1248.1
627.485	1262.83
627.683	1210.13
627.882	1251.98
628.08	1163.24
628.279	1194.05
628.477	1274.65
628.676	1160.72
628.874	1228.34
629.073	1185.72
629.271	1164.79
629.469	1218.65
629.668	1191.72
629.866	1195.4
630.065	1179.9
630.263	1218.65
630.461	1183.39
630.66	1210.9
630.858	1230.47
631.056	1235.9
631.254	1264.77
631.453	1173.51
631.651	1205.87
631.849	1223.11
632.047	1231.05
632.245	1191.34
632.444	1239
632.642	1227.95
632.84	1219.82
633.038	1203.54
633.236	1200.83
633.434	1188.04
633.632	1221.37
633.83	1205.29
634.028	1242.68
634.227	1254.5
634.425	1310.68
634.623	1240.74
634.821	1266.9
635.019	1278.52
635.216	1225.63
635.414	1275.23
635.612	1226.21
635.81	1236.28
636.008	1256.63
636.206	1228.73
636.404	1218.27
636.602	1225.24
636.8	1208.77
636.997	1252.56
637.195	1268.25
637.393	1237.64
637.591	1274.26
637.789	1259.53
637.986	1223.89
638.184	1259.34
638.382	1270.38
638.58	1275.62
638.777	1280.85
638.975	1217.69
639.173	1162.27
639.37	1216.14
639.568	1218.07
639.765	1210.52
639.963	1184.36
640.161	1217.88
640.358	1213.81
640.556	1173.7
640.753	1186.1
640.951	1125.85
641.148	1195.79
641.346	1164.79
641.543	1149.1
641.741	1172.54
641.938	1090.59
642.136	1152.39
642.333	1093.88
642.531	1205.48
642.728	1139.8
642.925	1143.87
643.123	1108.99
643.32	1135.54
643.517	1131.47
643.715	1140.19
643.912	1089.04
644.109	1115.58
644.306	1120.81
644.504	1045.06
644.701	1105.12
644.898	1114.42
645.095	1108.8
645.293	1076.25
645.49	1089.42
645.687	1099.5
645.884	1090.2
646.081	981.31
646.278	1041.57
646.475	1031.11
646.672	1022.78
646.87	1030.72
647.067	1028.01
647.264	1031.3
647.461	974.73
647.658	934.81
647.855	1032.08
648.052	970.66
648.249	920.48
648.446	954.19
648.642	956.51
648.839	938.5
649.036	944.89
649.233	915.63
649.43	917.18
649.627	904.01
649.824	914.08
650.021	928.23
650.217	930.55
650.414	943.34
650.611	957.87
650.808	979.96
651.004	942.18
651.201	988.29
651.398	991.78
651.595	991.39
651.791	928.42
651.988	966.01
652.185	895.29
652.381	967.17
652.578	884.44
652.775	933.65
652.971	908.27
653.168	939.27
653.364	946.05
653.561	877.27
653.757	914.66
653.954	942.76
654.15	894.51
654.347	1001.66
654.543	906.33
654.74	850.53
654.936	892
655.133	899.75
655.329	887.93
655.525	894.71
655.722	896.26
655.918	836.39
656.115	878.43
656.311	769.94
656.507	742.23
656.704	729.05
656.9	755.6
657.096	752.69
657.292	746.1
657.489	832.32
657.685	834.84
657.881	829.03
658.077	834.65
658.273	844.33
658.47	871.85
658.666	835.03
658.862	885.21
659.058	843.17
659.254	852.67
659.45	836
659.646	858.67
659.842	818.95
660.038	877.08
660.234	809.65
660.43	853.05
660.626	964.65
660.822	895.29
661.018	902.07
661.214	866.23
661.41	815.08
661.606	877.08
661.802	847.63
661.998	842.98
662.194	835.23
662.39	869.72
662.586	833.1
662.781	869.91
662.977	836
663.173	862.93
663.369	821.67
663.564	851.31
663.76	853.83
663.956	825.15
664.152	826.7
664.347	768.97
664.543	784.66
664.739	806.94
664.934	756.18
665.13	745.72
665.326	814.11
665.521	786.4
665.717	757.73
665.912	733.51
666.108	692.63
666.304	770.13
666.499	743.39
666.695	665.12
666.89	767.22
667.086	796.67
667.281	755.02
667.477	796.09
667.672	786.99
667.867	749.4
668.063	785.05
668.258	727.5
668.454	732.74
668.649	817.79
668.844	723.82
669.04	749.98
669.235	735.25
669.43	705.61
669.626	687.79
669.821	687.98
670.016	697.28
670.211	730.22
670.407	673.64
670.602	724.79
670.797	698.64
670.992	744.17
671.187	683.14
671.382	765.29
671.578	677.91
671.773	707.55
671.968	679.07
672.163	702.12
672.358	735.45
672.553	662.6
672.748	689.14
672.943	738.94
673.138	699.02
673.333	723.82
673.528	658.92
673.723	709.68
673.918	675.77
674.113	658.14
674.308	765.29
674.503	706.77
674.698	715.1
674.892	691.08
675.087	678.87
675.282	689.92
675.477	677.71
675.672	718.59
675.867	660.47
676.061	644.19
676.256	646.71
676.451	630.82
676.646	683.33
676.84	667.25
677.035	631.6
677.23	664.73
677.424	691.86
677.619	690.5
677.814	689.34
678.008	695.54
678.203	617.46
678.397	664.73
678.592	658.34
678.787	699.99
678.981	650.78
679.176	689.72
679.37	677.52
679.565	631.41
679.759	661.82
679.954	675.39
680.148	701.93
680.342	714.91
680.537	694.76
680.731	674.61
680.926	665.12
681.12	713.55
681.314	652.72
681.509	677.91
681.703	699.8
681.897	714.33
682.092	674.22
682.286	651.75
682.48	733.12
682.674	705.22
682.869	672.87
683.063	693.02
683.257	758.5
683.451	641.48
683.645	735.25
683.839	713.17
684.034	697.28
684.228	706
684.422	659.69
684.616	710.07
684.81	719.75
685.004	689.34
685.198	704.84
685.392	733.12
685.586	699.02
685.78	728.67
685.974	781.56
686.168	739.52
686.362	774.2
686.556	700.38
686.75	603.7
686.944	677.52
687.138	624.62
687.331	564.95
687.525	594.01
687.719	532.98
687.913	602.34
688.107	624.82
688.301	593.82
688.494	643.61
688.688	615.13
688.882	568.24
689.076	576.96
689.269	628.11
689.463	679.26
689.657	633.92
689.85	652.72
690.044	696.31
690.238	715.49
690.431	721.5
690.625	708.32
690.818	720.72
691.012	752.5
691.205	784.27
691.399	771.1
691.593	825.93
691.786	874.56
691.98	874.56
692.173	888.9
692.366	877.27
692.56	922.8
692.753	950.9
692.947	883.66
693.14	963.49
693.333	973.95
693.527	897.81
693.72	953.22
693.914	952.25
694.107	935.4
694.3	997.98
694.493	980.73
694.687	1028.78
694.88	991.39
695.073	1057.07
695.266	1052.61
695.46	1039.83
695.653	1117.32
695.846	1103.57
696.039	1078.19
696.232	1102.6
696.425	1189.59
696.618	1190.56
696.812	1219.82
697.005	1266.51
697.198	1370.55
697.391	1257.98
697.584	1332.58
697.777	1384.11
697.97	1367.06
698.163	1399.42
698.356	1319.6
698.549	1464.33
698.742	1429.06
698.935	1402.13
699.127	1411.43
699.32	1403.68
699.513	1393.8
699.706	1431.58
699.899	1484.48
700.092	1437.59
700.285	1481.96
700.477	1418.41
700.67	1516.06
700.863	1505.21
701.056	1592.2
701.248	1551.51
701.441	1592.97
701.634	1541.44
701.826	1650.32
702.019	1531.56
702.212	1608.09
702.404	1591.81
702.597	1574.76
702.79	1645.09
702.982	1627.46
703.175	1659.04
703.367	1714.26
703.56	1731.7
703.752	1747.58
703.945	1779.94
704.137	1802.22
704.33	1798.54
704.522	1837.29
704.715	1848.33
704.907	1854.14
705.1	1896.19
705.292	1888.24
705.484	1913.82
705.677	1921.57
705.869	1927.96
706.061	1962.06
706.254	2004.11
706.446	1995.39
706.638	2013.21
706.831	2051.77
707.023	1985.89
707.215	2113.57
707.407	2090.9
707.599	2070.75
707.792	2159.68
707.984	2142.83
708.176	2167.24
708.368	2132.95
708.56	2184.68
708.752	2186.03
708.944	2168.98
709.136	2223.04
709.329	2172.86
709.521	2321.66
709.713	2244.55
709.905	2244.35
710.097	2322.63
710.289	2242.41
710.481	2306.93
710.672	2333.28
710.864	2311.97
711.056	2374.74
711.248	2365.25
711.44	2352.27
711.632	2345.29
711.824	2410.39
712.016	2437.52
712.207	2416.98
712.399	2404.58
712.591	2454.57
712.783	2482.08
712.975	2474.14
713.166	2441.78
713.358	2491.77
713.55	2510.75
713.741	2560.74
713.933	2543.11
714.125	2524.12
714.316	2496.61
714.508	2591.55
714.7	2587.28
714.891	2564.81
715.083	2619.06
715.274	2536.33
715.466	2567.91
715.657	2553.38
715.849	2486.73
716.04	2525.29
716.232	2461.93
716.423	2513.47
716.615	2442.56
716.806	2341.03
716.998	2289.88
717.189	2266.83
717.381	2147.67
717.572	2093.04
717.763	2153.29
717.955	2078.7
718.146	2020.38
718.337	2008.37
718.528	1936.68
718.72	1873.33
718.911	1940.36
719.102	1904.33
719.293	1908.2
719.485	1881.66
719.676	1893.48
719.867	1832.45
720.058	1839.61
720.249	1865.58
720.44	1896.96
720.632	1944.24
720.823	1977.76
721.014	2163.17
721.205	2170.53
721.396	2235.05
721.587	2339.48
721.778	2435.58
721.969	2392.18
722.16	2474.33
722.351	2532.65
722.542	2608.79
722.733	2628.75
722.924	2533.42
723.115	2549.31
723.305	2525.29
723.496	2579.73
723.687	2433.45
723.878	2447.59
724.069	2428.02
724.26	2439.26
724.45	2333.67
724.641	2369.51
724.832	2389.47
725.023	2366.8
725.213	2341.81
725.404	2326.69
725.595	2353.43
725.785	2299.96
725.976	2380.17
726.167	2350.14
726.357	2413.49
726.548	2481.89
726.739	2422.02
726.929	2467.94
727.12	2457.28
727.31	2480.72
727.501	2439.07
727.691	2454.37
727.882	2485.18
728.072	2487.7
728.263	2522.19
728.453	2611.12
728.644	2589.03
728.834	2572.37
729.024	2478.01
729.215	2530.32
729.405	2538.85
729.596	2608.79
729.786	2620.22
729.976	2625.07
730.167	2654.9
730.357	2615.96
730.547	2618.48
730.737	2653.55
730.928	2671.37
731.118	2725.23
731.308	2690.75
731.498	2677.57
731.688	2760.88
731.879	2780.26
732.069	2857.37
732.259	2841.87
732.449	2933.9
732.639	2977.3
732.829	2991.44
733.019	3063.9
733.209	3096.84
733.399	3128.23
733.589	3194.1
733.779	3244.47
733.969	3205.92
734.159	3280.12
734.349	3375.64
734.539	3421.37
734.729	3353.94
734.919	3393.66
735.109	3462.44
735.299	3392.5
735.488	3418.27
735.678	3388.04
735.868	3412.07
736.058	3422.14
736.248	3418.65
736.437	3354.72
736.627	3376.61
736.817	3486.66
737.007	3397.34
737.196	3450.23
737.386	3440.93
737.576	3426.79
737.765	3525.6
737.955	3443.45
738.144	3579.66
738.334	3530.64
738.524	3497.9
738.713	3526.38
738.903	3487.43
739.092	3576.95
739.282	3533.74
739.471	3605.23
739.661	3570.36
739.85	3678.66
740.04	3602.91
740.229	3632.94
740.419	3693.77
740.608	3679.82
740.797	3644.37
740.987	3731.56
741.176	3734.07
741.365	3675.18
741.555	3639.14
741.744	3728.26
741.933	3642.43
742.123	3744.73
742.312	3759.07
742.501	3779.8
742.69	3762.17
742.88	3671.11
743.069	3838.12
743.258	3849.94
743.447	3848.77
743.636	3833.27
743.825	3813.9
744.014	3863.5
744.204	3827.85
744.393	3738.14
744.582	3899.15
744.771	3892.75
744.96	3857.1
745.149	3899.34
745.338	3841.41
745.527	3871.05
745.716	3843.54
745.905	3862.72
746.094	3862.92
746.283	3913.29
746.471	3872.6
746.66	3948.94
746.849	3939.06
747.038	3913.1
747.227	3891.98
747.416	3908.25
747.604	3841.22
747.793	3857.49
747.982	3868.92
748.171	3863.5
748.359	3894.11
748.548	3897.02
748.737	3874.73
748.926	3852.07
749.114	3784.06
749.303	3857.88
749.491	3871.05
749.68	3761.2
749.869	3897.6
750.057	3839.09
750.246	3777.47
750.434	3803.44
750.623	3842.77
750.811	3801.11
751	3862.53
751.188	3809.44
751.377	3854.58
751.565	3823.78
751.754	3769.92
751.942	3765.85
752.131	3845.48
752.319	3780.38
752.507	3715.67
752.696	3764.11
752.884	3825.14
753.072	3781.15
753.261	3805.95
753.449	3745.89
753.637	3752.29
753.825	3866.21
754.014	3787.74
754.202	3773.79
754.39	3831.72
754.578	3775.92
754.766	3750.93
754.955	3678.66
755.143	3807.89
755.331	3775.54
755.519	3764.3
755.707	3681.76
755.895	3676.34
756.083	3705.79
756.271	3694.16
756.459	3701.91
756.647	3708.69
756.835	3706.17
757.023	3705.59
757.211	3696.49
757.399	3679.44
757.587	3676.92
757.775	3589.35
757.963	3631.97
758.151	3632.16
758.339	3620.34
758.526	3591.48
758.714	3609.11
758.902	3474.45
759.09	3400.44
759.278	3141.01
759.465	2888.76
759.653	2500.68
759.841	2276.13
760.028	1942.3
760.216	1664.85
760.404	1559.84
760.591	1323.86
760.779	1093.88
760.967	934.43
761.154	777.69
761.342	795.51
761.529	819.73
761.717	853.83
761.905	851.7
762.092	903.62
762.28	831.55
762.467	828.64
762.655	790.86
762.842	777.69
763.029	775.75
763.217	800.74
763.404	797.64
763.592	804.81
763.779	797.64
763.966	825.93
764.154	878.05
764.341	924.74
764.528	925.71
764.716	1021.61
764.903	1046.61
765.09	1147.16
765.277	1187.65
765.465	1370.75
765.652	1426.16
765.839	1509.66
766.026	1635.79
766.213	1685.97
766.4	1840.58
766.588	2012.63
766.775	2059.71
766.962	2151.16
767.149	2240.86
767.336	2398.96
767.523	2402.06
767.71	2504.55
767.897	2617.7
768.084	2718.84
768.271	2787.81
768.458	2828.5
768.645	2885.27
768.832	2880.62
769.019	2947.65
769.206	2966.64
769.392	3038.33
769.579	3129.78
769.766	3116.41
769.953	3096.65
770.14	3152.83
770.327	3128.61
770.513	3213.28
770.7	3272.76
770.887	3182.09
771.073	3203.01
771.26	3207.86
771.447	3203.79
771.634	3190.61
771.82	3337.09
772.007	3178.99
772.193	3247.96
772.38	3262.88
772.567	3236.53
772.753	3217.74
772.94	3318.1
773.126	3283.22
773.313	3268.69
773.499	3247.38
773.686	3267.92
773.872	3209.99
774.059	3249.51
774.245	3182.09
774.432	3194.88
774.618	3141.98
774.804	3204.18
774.991	3186.54
775.177	3180.54
775.363	3217.35
775.55	3222.58
775.736	3138.5
775.922	3166.98
776.109	3180.73
776.295	3184.99
776.481	3223.16
776.667	3166.59
776.853	3141.21
777.04	3120.86
777.226	3154.96
777.412	3227.04
777.598	3132.88
777.784	3153.41
777.97	3113.11
778.156	3135.59
778.342	3134.81
778.528	3110.21
778.715	3031.74
778.901	3037.75
779.087	3042.59
779.272	3071.65
779.458	3042.78
779.644	3043.56
779.83	2997.25
780.016	3084.63
780.202	3062.55
780.388	3055.18
780.574	2968.77
780.76	3012.37
780.946	3041.23
781.131	3042.78
781.317	3024.18
781.503	3013.53
781.689	3005.97
781.874	3087.73
782.06	2992.41
782.246	3062.93
782.432	2984.66
782.617	2976.33
782.803	3066.42
782.989	2937.58
783.174	2971.68
783.36	2858.72
783.545	2969.94
783.731	2939.13
783.916	2834.31
784.102	2898.64
784.288	2876.55
784.473	2934.48
784.659	2859.11
784.844	2915.49
785.029	2835.86
785.215	2860.27
785.4	2773.67
785.586	2894.18
785.771	2832.37
785.956	2878.49
786.142	2847.29
786.327	2809.12
786.512	2844
786.698	2798.86
786.883	2736.66
787.068	2787.23
787.254	2811.45
787.439	2761.08
787.624	2757.01
787.809	2677.76
787.994	2733.56
788.18	2779.29
788.365	2674.86
788.55	2686.87
788.735	2749.84
788.92	2697.33
789.105	2677.57
789.29	2663.43
789.475	2624.29
789.66	2626.81
789.845	2558.8
790.03	2623.32
790.215	2594.84
790.4	2673.5
790.585	2685.13
790.77	2612.28
790.955	2556.87
791.14	2594.26
791.325	2668.66
791.51	2504.94
791.695	2608.4
791.879	2589.8
792.064	2574.69
792.249	2648.12
792.434	2559.38
792.618	2576.82
792.803	2597.17
792.988	2604.14
793.173	2565
793.357	2580.5
793.542	2571.78
793.727	2618.87
793.911	2623.52
794.096	2594.65
794.281	2621.77
794.465	2712.25
794.65	2602.4
794.834	2633.2
795.019	2674.66
795.203	2673.31
795.388	2643.86
795.572	2702.18
795.757	2652
795.941	2647.73
796.126	2637.08
796.31	2551.25
796.494	2655.87
796.679	2572.95
796.863	2558.61
797.048	2668.27
797.232	2626.03
797.416	2612.67
797.601	2596.58
797.785	2690.16
797.969	2685.13
798.153	2623.13
798.338	2693.07
798.522	2696.36
798.706	2706.44
798.89	2691.91
799.074	2788.59
799.258	2718.84
799.443	2664.78
799.627	2682.41
799.811	2743.25
799.995	2663.43
800.179	2612.28
800.363	2598.33
800.547	2627.78
800.731	2662.07
800.915	2571.2
801.099	2637.08
801.283	2596.39
801.467	2657.03
801.651	2601.43
801.835	2686.87
802.019	2611.89
802.202	2645.02
802.386	2595.03
802.57	2591.74
802.754	2569.27
802.938	2564.62
803.121	2572.37
803.305	2620.03
803.489	2647.15
803.673	2646.38
803.856	2639.01
804.04	2626.42
804.224	2623.52
804.407	2598.72
804.591	2593.68
804.775	2620.61
804.958	2620.03
805.142	2749.45
805.326	2639.21
805.509	2637.27
805.693	2673.5
805.876	2676.41
806.06	2664.4
806.243	2649.28
806.427	2702.56
806.61	2728.53
806.794	2653.16
806.977	2670.6
807.16	2667.3
807.344	2691.71
807.527	2611.5
807.71	2618.48
807.894	2666.53
808.077	2653.16
808.26	2616.54
808.444	2556.87
808.627	2689.2
808.81	2592.71
808.993	2553.38
809.177	2508.04
809.36	2557.64
809.543	2569.85
809.726	2471.62
809.909	2441.78
810.092	2484.4
810.276	2479.95
810.459	2482.27
810.642	2479.17
810.825	2456.5
811.008	2383.85
811.191	2334.06
811.374	2389.27
811.557	2344.71
811.74	2398.38
811.923	2317.39
812.106	2315.65
812.289	2275.16
812.472	2258.11
812.654	2255.01
812.837	2212.96
813.02	2184.87
813.203	2149.8
813.386	2073.47
813.569	2050.99
813.751	1949.66
813.934	1997.71
814.117	1978.14
814.3	1920.79
814.482	1907.23
814.665	1842.91
814.848	1804.55
815.03	1748.17
815.213	1775.1
815.396	1765.8
815.578	1721.04
815.761	1691.59
815.943	1747.97
816.126	1646.64
816.309	1643.54
816.491	1545.89
816.674	1517.02
816.856	1570.11
817.039	1589.68
817.221	1640.25
817.403	1590.45
817.586	1627.07
817.768	1626.69
817.951	1529.42
818.133	1528.46
818.315	1551.51
818.498	1626.69
818.68	1655.55
818.862	1598.2
819.045	1640.25
819.227	1610.22
819.409	1592
819.591	1621.07
819.774	1598.01
819.956	1595.1
820.138	1695.08
820.32	1679.97
820.502	1732.47
820.684	1803
820.866	1821.21
821.048	1839.23
821.231	1843.88
821.413	1867.32
821.595	1830.51
821.777	1830.31
821.959	1842.91
822.141	1906.07
822.323	1767.54
822.505	1700.12
822.686	1643.15
822.868	1557.71
823.05	1444.37
823.232	1419.18
823.414	1375.4
823.596	1441.46
823.778	1443.4
823.96	1464.91
824.141	1464.13
824.323	1499.97
824.505	1578.25
824.687	1626.69
824.868	1684.03
825.05	1766.57
825.232	1784.4
825.413	1865.19
825.595	1826.25
825.777	1743.52
825.958	1815.2
826.14	1769.09
826.321	1800.86
826.503	1769.67
826.685	1821.98
826.866	1834
827.048	1806.68
827.229	1741.97
827.411	1764.63
827.592	1641.8
827.773	1696.43
827.955	1612.15
828.136	1635.6
828.318	1576.89
828.499	1621.26
828.68	1569.34
828.862	1598.2
829.043	1655.17
829.224	1583.09
829.406	1605.76
829.587	1569.92
829.768	1610.41
829.949	1609.44
830.131	1602.66
830.312	1659.43
830.493	1638.7
830.674	1624.36
830.855	1609.64
831.036	1566.24
831.218	1683.65
831.399	1678.03
831.58	1637.92
831.761	1626.69
831.942	1618.55
832.123	1609.44
832.304	1572.44
832.485	1541.44
832.666	1620.29
832.847	1666.02
833.028	1613.51
833.209	1616.22
833.389	1554.61
833.57	1566.04
833.751	1582.51
833.932	1635.6
834.113	1580.57
834.294	1612.74
834.475	1657.69
834.655	1690.43
834.836	1632.5
835.017	1652.07
835.198	1629.98
835.378	1674.35
835.559	1669.89
835.74	1660.98
835.92	1629.01
836.101	1616.61
836.281	1683.45
836.462	1666.02
836.643	1699.34
836.823	1710
837.004	1723.75
837.184	1735.57
837.365	1745.65
837.545	1699.92
837.726	1698.18
837.906	1729.57
838.087	1702.63
838.267	1697.4
838.448	1669.89
838.628	1672.41
838.808	1680.35
838.989	1760.76
839.169	1686.94
839.349	1684.62
839.53	1695.85
839.71	1753.59
839.89	1664.85
840.07	1744.1
840.251	1689.27
840.431	1728.6
840.611	1717.36
840.791	1677.83
840.971	1679.58
841.151	1714.65
841.332	1661.75
841.512	1714.65
841.692	1606.54
841.872	1696.82
842.052	1689.65
842.232	1710.97
842.412	1641.22
842.592	1650.9
842.772	1689.27
842.952	1650.71
843.132	1657.69
843.312	1655.17
843.492	1634.05
843.672	1693.53
843.851	1606.73
844.031	1626.69
844.211	1661.75
844.391	1601.11
844.571	1662.14
844.751	1663.11
844.93	1674.73
845.11	1626.88
845.29	1654.97
845.47	1680.93
845.649	1650.9
845.829	1675.9
846.009	1638.31
846.188	1701.08
846.368	1657.3
846.547	1618.74
846.727	1674.15
846.907	1630.95
847.086	1634.44
847.266	1628.04
847.445	1606.34
847.625	1596.46
847.804	1576.89
847.984	1600.14
848.163	1556.36
848.343	1559.26
848.522	1621.26
848.701	1603.44
848.881	1565.27
849.06	1599.75
849.239	1595.49
849.419	1583.48
849.598	1546.28
849.777	1536.98
849.957	1495.91
850.136	1460.06
850.315	1442.43
850.494	1489.9
850.674	1460.84
850.853	1530.78
851.032	1498.42
851.211	1512.96
851.39	1474.79
851.569	1423.06
851.748	1458.71
851.927	1519.93
852.107	1472.85
852.286	1468.59
852.465	1452.31
852.644	1519.74
852.823	1517.02
853.002	1505.79
853.181	1482.54
853.359	1492.81
853.538	1406.01
853.717	1481.96
853.896	1377.33
854.075	1323.66
854.254	1290.92
854.433	1242.68
854.611	1302.16
854.79	1248.68
854.969	1301.77
855.148	1318.63
855.327	1259.34
855.505	1311.27
855.684	1317.66
855.863	1316.69
856.041	1323.28
856.22	1393.41
856.399	1356.99
856.577	1433.52
856.756	1424.61
856.934	1500.17
857.113	1507.92
857.291	1443.4
857.47	1400.39
857.648	1403.1
857.827	1436.62
858.005	1468.2
858.184	1396.71
858.362	1473.63
858.541	1408.14
858.719	1435.07
858.898	1387.99
859.076	1376.75
859.254	1466.65
859.433	1401.94
859.611	1379.85
859.789	1368.42
859.967	1381.6
860.146	1494.16
860.324	1344.4
860.502	1394.19
860.68	1354.66
860.859	1342.26
861.037	1370.75
861.215	1400.78
861.393	1405.43
861.571	1366.29
861.749	1377.91
861.927	1347.5
862.105	1371.33
862.283	1381.4
862.461	1320.37
862.639	1282.01
862.817	1325.02
862.995	1304.48
863.173	1330.64
863.351	1342.07
863.529	1350.6
863.707	1380.24
863.885	1348.85
864.063	1303.32
864.241	1288.98
864.418	1364.35
864.596	1272.71
864.774	1279.88
864.952	1314.75
865.129	1297.9
865.307	1252.95
865.485	1231.44
865.663	1297.12
865.84	1252.37
866.018	1220.01
866.196	1101.05
866.373	1152.97
866.551	1132.24
866.728	1086.52
866.906	1125.85
867.084	1145.8
867.261	1177.77
867.439	1186.69
867.616	1182.81
867.794	1173.7
867.971	1184.36
868.149	1204.7
868.326	1270.77
868.503	1247.13
868.681	1215.17
868.858	1226.21
869.035	1185.14
869.213	1235.7
869.39	1223.11
869.567	1255.66
869.745	1177.58
869.922	1212.45
870.099	1206.06
870.276	1246.55
870.454	1207.8
870.631	1209.74
870.808	1191.72
870.985	1239.38
871.162	1260.89
871.339	1202.57
871.517	1146.19
871.694	1165.95
871.871	1206.45
872.048	1183.39
872.225	1178.74
872.402	1203.74
872.579	1154.14
872.756	1193.27
872.933	1124.69
873.11	1158.01
873.287	1190.95
873.463	1163.44
873.64	1150.26
873.817	1176.42
873.994	1135.54
874.171	1099.89
874.348	1177.77
874.524	1116.74
874.701	1158.2
874.878	1086.52
875.055	1138.25
875.231	1107.25
875.408	1164.02
875.585	1042.54
875.762	1116.55
875.938	1114.61
876.115	1089.42
876.291	1087.1
876.468	1110.93
876.645	1088.84
876.821	1060.75
876.998	1076.64
877.174	1092.52
877.351	1101.44
877.527	1060.36
877.704	1070.63
877.88	1083.22
878.057	1060.75
878.233	1126.04
878.409	1043.12
878.586	1081.09
878.762	1057.46
878.938	1057.84
879.115	983.44
879.291	1069.27
879.467	984.8
879.644	1048.35
879.82	1046.61
879.996	1014.25
880.172	960
880.349	1025.68
880.525	1056.29
880.701	981.31
880.877	1022.58
881.053	1010.96
881.229	1022.78
881.405	1058.42
881.581	972.21
881.757	1029.36
881.933	1011.93
882.109	1047.96
882.285	1019.48
882.461	982.28
882.637	1039.05
882.813	941.4
882.989	1004.18
883.165	1043.89
883.341	1010.57
883.517	1042.34
883.693	994.29
883.869	1025.1
884.044	971.24
884.22	1059.97
884.396	1081.87
884.572	1032.08
884.747	1037.11
884.923	1001.85
885.099	1044.86
885.275	1027.62
885.45	996.04
885.626	1006.5
885.801	975.11
885.977	976.86
886.153	932.68
886.328	1021.03
886.504	975.5
886.679	1020.26
886.855	977.63
887.03	989.26
887.206	1009.79
887.381	1004.37
887.557	1030.53
887.732	1011.34
887.908	995.84
888.083	1014.44
888.258	1000.49
888.434	975.89
888.609	973.95
888.784	1041.18
888.96	965.43
889.135	999.33
889.31	991.78
889.485	1005.34
889.661	963.68
889.836	1006.31
890.011	1010.18
890.186	996.23
890.361	995.84
890.537	1008.83
890.712	1036.73
890.887	1003.59
891.062	992.55
891.237	1044.48
891.412	961.36
891.587	997.98
891.762	1013.09
891.937	1045.83
892.112	930.94
892.287	991.58
892.462	931.91
892.637	940.63
892.812	899.55
892.987	936.95
893.161	908.66
893.336	901.1
893.511	886.38
893.686	921.06
893.861	883.08
894.035	858.09
894.21	902.65
894.385	843.17
894.56	892
894.734	800.74
894.909	804.23
895.084	806.94
895.258	789.5
895.433	829.03
895.608	794.93
895.782	748.82
895.957	757.73
896.131	767.61
896.306	677.52
896.48	694.18
896.655	711.81
896.829	614.74
897.004	628.11
897.178	635.67
897.353	652.14
897.527	691.47
897.701	661.05
897.876	617.84
898.05	668.8
898.224	675.58
898.399	744.36
898.573	620.56
898.747	538.6
898.921	603.31
899.096	510.51
899.27	527.95
899.444	506.25
899.618	559.33
899.792	584.13
899.967	564.95
900.141	610.09
900.315	537.24
900.489	543.44
900.663	589.17
900.837	561.46
901.011	541.31
901.185	639.74
901.359	557.59
901.533	553.71
901.707	590.53
901.881	553.33
902.055	500.24
902.229	573.86
902.403	627.72
902.576	586.26
902.75	558.17
902.924	659.69
903.098	627.34
903.272	704.84
903.446	675.97
903.619	692.63
903.793	728.09
903.967	687.21
904.14	742.23
904.314	739.32
904.488	682.56
904.661	714.52
904.835	718.79
905.009	758.31
905.182	782.53
905.356	752.69
905.529	754.63
905.703	693.41
905.876	679.07
906.05	651.94
906.223	654.66
906.397	613.19
906.57	557.59
906.744	572.31
906.917	581.42
907.09	556.81
907.264	554.68
907.437	535.11
907.61	506.63
907.784	530.27
907.957	544.99
908.13	504.31
908.304	539.96
908.477	488.23
908.65	524.07
908.823	452.58
908.996	559.14
909.17	507.99
909.343	515.35
909.516	500.82
909.689	494.62
909.862	481.06
910.035	479.51
910.208	479.12
910.381	464.2
910.554	576.96
910.727	488.81
910.9	500.82
911.073	476.99
911.246	513.8
911.419	548.68
911.592	516.32
911.765	461.49
911.938	474.47
912.11	499.66
912.283	513.41
912.456	568.24
912.629	495.98
912.802	490.75
912.974	424.68
913.147	399.68
913.32	367.72
913.493	394.07
913.665	434.75
913.838	431.85
914.01	407.05
914.183	427.39
914.356	427.78
914.528	461.68
914.701	478.54
914.873	481.45
915.046	400.27
915.218	388.64
915.391	326.64
915.563	359.77
915.736	389.03
915.908	436.5
916.081	451.22
916.253	391.93
916.425	410.34
916.598	441.73
916.77	427.78
916.942	385.93
917.115	320.05
917.287	395.81
917.459	361.52
917.632	359.97
917.804	326.25
917.976	360.16
918.148	403.75
918.32	381.47
918.493	448.51
918.665	449.48
918.837	436.69
919.009	504.7
919.181	462.65
919.353	450.64
919.525	442.7
919.697	440.18
919.869	448.51
920.041	482.03
920.213	544.8
920.385	483.96
920.557	457.61
920.729	497.33
920.901	499.66
921.073	470.01
921.244	449.67
921.416	472.15
921.588	470.01
921.76	442.89
921.932	530.27
922.103	463.04
922.275	453.55
922.447	466.33
922.619	380.89
922.79	430.68
922.962	452.38
923.134	454.71
923.305	401.62
923.477	364.03
923.648	379.34
923.82	395.23
923.991	383.8
924.163	346.79
924.335	370.62
924.506	388.64
924.677	430.88
924.849	356.29
925.02	386.9
925.192	387.28
925.363	389.22
925.535	394.84
925.706	391.16
925.877	410.53
926.049	357.25
926.22	374.11
926.391	399.68
926.562	405.11
926.734	381.86
926.905	385.93
927.076	355.51
927.247	350.47
927.419	313.85
927.59	333.62
927.761	313.27
927.932	291.19
928.103	304.17
928.274	250.69
928.445	250.5
928.616	224.54
928.787	243.72
928.958	266.97
929.129	261.74
929.3	265.81
929.471	238.49
929.642	191.6
929.813	173
929.984	207.1
930.155	134.25
930.326	183.27
930.496	127.66
930.667	106.54
930.838	169.51
931.009	120.69
931.18	137.74
931.35	116.62
931.521	122.63
931.692	96.86
931.863	50.55
932.033	120.49
932.204	105.96
932.374	100.34
932.545	67.6
932.716	127.86
932.886	112.94
933.057	23.43
933.227	49.97
933.398	131.93
933.568	65.47
933.739	23.81
933.909	23.81
934.08	95.31
934.25	-2.53
934.421	39.12
934.591	64.7
934.761	13.74
934.932	25.95
935.102	45.71
935.272	25.36
935.443	33.31
935.613	18.97
935.783	56.17
935.953	-2.34
936.123	168.54
936.294	-10.48
936.464	40.28
936.634	15.1
936.804	1.34
936.974	-0.6
937.144	56.36
937.314	73.22
937.484	12.77
937.655	29.24
937.825	77.68
937.995	9.86
938.165	84.46
938.334	56.75
938.504	60.24
938.674	32.34
938.844	53.65
939.014	77.29
939.184	97.83
939.354	135.41
939.524	95.69
939.694	92.01
939.863	49
940.033	128.05
940.203	105.19
940.373	108.29
940.542	106.16
940.712	100.73
940.882	134.06
941.051	124.76
941.221	111.97
941.391	119.53
941.56	89.5
941.73	68.57
941.899	158.08
942.069	71.48
942.238	86.2
942.408	67.02
942.577	89.3
942.747	78.06
942.916	17.61
943.086	45.13
943.255	68.18
943.425	97.44
943.594	40.48
943.763	-1.95
943.933	14.13
944.102	15.29
944.271	54.62
944.441	67.8
944.61	37.18
944.779	54.43
944.948	134.64
945.117	12.77
945.287	43.19
945.456	-24.62
945.625	51.91
945.794	65.08
945.963	48.42
946.132	64.89
946.301	38.93
946.47	78.84
946.639	7.35
946.808	28.85
946.977	99.96
947.146	76.9
947.315	47.45
947.484	70.7
947.653	61.79
947.822	34.66
947.991	14.51
948.16	114.29
948.329	98.41
948.498	38.73
948.666	68.96
948.835	69.15
949.004	39.31
949.173	41.25
949.341	63.73
949.51	88.72
949.679	94.92
949.847	71.28
950.016	136.77
950.185	105.77
950.353	38.73
950.522	60.63
950.69	95.69
950.859	52.68
951.028	101.7
951.196	53.07
951.365	45.9
951.533	73.03
951.701	55.59
951.87	61.98
952.038	35.63
952.207	55.01
952.375	105.96
952.543	45.32
952.712	47.65
952.88	31.76
953.048	97.05
953.217	74.77
953.385	70.9
953.553	82.52
953.721	32.73
953.89	53.26
954.058	43.58
954.226	35.25
954.394	80.78
954.562	35.05
954.73	35.44
954.898	40.48
955.067	91.43
955.235	50.94
955.403	86.4
955.571	122.04
955.739	90.66
955.907	51.91
956.075	25.95
956.243	36.6
956.41	80.78
956.578	-10.87
956.746	12.77
956.914	31.56
957.082	67.21
957.25	79.81
957.418	58.88
957.585	79.03
957.753	105.38
957.921	46.1
958.089	31.56
958.256	96.66
958.424	63.92
958.592	65.28
958.759	41.06
958.927	87.75
959.095	42.22
959.262	72.25
959.43	75.93
959.597	19.55
959.765	55.59
959.932	35.63
960.1	77.48
960.267	82.33
960.435	68.57
960.602	75.74
960.77	71.67
960.937	16.45
961.104	63.53
961.272	4.63
961.439	54.81
961.606	65.66
961.774	94.92
961.941	46.87
962.108	102.86
962.275	80
962.443	94.92
962.61	92.21
962.777	148.01
962.944	94.92
963.111	76.32
963.278	83.3
963.446	80.78
963.613	70.7
963.78	97.24
963.947	96.66
964.114	80.39
964.281	163.51
964.448	87.17
964.615	97.63
964.782	95.69
964.949	121.08
965.116	108.68
965.282	110.42
965.449	91.24
965.616	36.41
965.783	108.29
965.95	77.87
966.117	43.58
966.283	69.73
966.45	79.81
966.617	111
966.784	147.81
966.95	97.05
967.117	110.81
967.284	65.86
967.45	90.85
967.617	145.49
967.784	124.95
967.95	145.1
968.117	82.52
968.283	139.87
968.45	200.12
968.616	92.98
968.783	116.23
968.949	100.15
969.116	138.13
969.282	106.16
969.449	118.94
969.615	120.11
969.781	85.62
969.948	92.6
970.114	86.98
970.28	134.25
970.447	92.6
970.613	138.71
970.779	114.68
970.945	124.76
971.112	121.46
971.278	99.57
971.444	112.74
971.61	134.25
971.776	70.9
971.942	111.97
972.108	118.36
972.275	89.69
972.441	142
972.607	158.66
972.773	82.91
972.939	127.28
973.105	103.44
973.271	62.76
973.437	95.89
973.602	61.79
973.768	99.57
973.934	83.3
974.1	116.04
974.266	34.86
974.432	96.08
974.598	83.88
974.763	94.15
974.929	77.29
975.095	146.26
975.261	53.26
975.426	62.95
975.592	89.69
975.758	123.79
975.923	24.4
976.089	55.01
976.255	129.99
976.42	111.58
976.586	107.9
976.751	99.96
976.917	176.1
977.082	113.33
977.248	48.81
977.413	44.74
977.579	84.46
977.744	116.81
977.91	57.14
978.075	83.1
978.24	121.08
978.406	66.83
978.571	60.05
978.736	65.66
978.902	123.59
979.067	54.81
979.232	37.76
979.397	100.15
979.563	150.33
979.728	62.37
979.893	73.03
980.058	79.61
980.223	122.43
980.388	116.62
980.554	96.86
980.719	73.03
980.884	109.06
981.049	126.89
981.214	58.5
981.379	92.98
981.544	64.11
981.709	78.26
981.874	60.63
982.039	85.43
982.204	106.93
982.368	90.85
982.533	60.43
982.698	114.68
982.863	125.34
983.028	79.03
983.193	109.26
983.357	103.44
983.522	74.19
983.687	76.71
983.852	71.86
984.016	77.87
984.181	99.57
984.346	91.82
984.51	95.31
984.675	89.5
984.839	93.37
985.004	81.36
985.168	146.65
985.333	111
985.498	73.22
985.662	127.28
985.827	75.35
985.991	57.14
986.155	80.58
986.32	121.08
986.484	139.29
986.649	122.63
986.813	50.55
986.977	93.76
987.142	99.96
987.306	59.46
987.47	23.62
987.634	74.77
987.799	99.38
987.963	101.12
988.127	124.18
988.291	152.08
988.455	100.15
988.62	66.44
988.784	110.03
988.948	113.91
989.112	64.5
989.276	92.4
989.44	77.29
989.604	56.56
989.768	86.78
989.932	132.7
990.096	64.5
990.26	57.33
990.424	46.68
990.588	73.22
990.752	126.69
990.915	118.75
991.079	88.14
991.243	78.06
991.407	114.1
991.571	70.31
991.734	104.99
991.898	71.09
992.062	160.41
992.226	71.09
992.389	63.92
992.553	22.85
992.717	61.79
992.88	68.18
993.044	54.62
993.207	69.73
993.371	106.54
993.535	98.21
993.698	69.35
993.862	100.15
994.025	95.5
994.189	80.58
994.352	94.73
994.515	80.39
994.679	98.02
994.842	56.95
995.006	93.95
995.169	63.34
995.332	61.98
995.496	111.39
995.659	12
995.822	81.75
995.985	79.81
996.149	122.63
996.312	33.11
996.475	126.11
996.638	71.09
996.801	129.02
996.964	123.4
997.128	46.48
997.291	63.34
997.454	79.42
997.617	25.75
997.78	100.93
997.943	59.46
998.106	92.4
998.269	42.8
998.432	51.13
998.595	71.48
998.758	5.02
998.92	38.54
999.083	31.56
999.246	53.46
999.409	56.75
999.572	22.07
999.735	46.48
999.897	87.56
1000.06	50.75
1000.223	64.11
1000.386	89.5
1000.548	73.8
1000.711	51.13
1000.874	83.68
1001.036	17.42
1001.199	79.81
1001.361	31.95
1001.524	72.06
1001.687	78.84
1001.849	26.14
1002.012	74
1002.174	71.48
1002.337	96.86
1002.499	34.86
1002.661	78.45
1002.824	14.9
1002.986	38.54
1003.149	88.72
1003.311	21.49
1003.473	103.83
1003.636	43.96
1003.798	79.42
1003.96	52.88
1004.123	37.96
1004.285	47.65
1004.447	43.58
1004.609	74.38
1004.771	102.09
1004.933	10.83
1005.096	17.23
1005.258	18.97
1005.42	42.03
1005.582	111
1005.744	51.33
1005.906	18.58
1006.068	48.23
1006.23	-0.98
1006.392	-10.87
1006.554	37.18
1006.716	69.35
1006.878	55.59
1007.04	-8.15
1007.202	15.48
1007.363	25.56
1007.525	73.61
1007.687	71.67
1007.849	90.85
1008.011	-10.67
1008.172	16.45
1008.334	46.48
1008.496	54.23
1008.658	5.02
1008.819	20.13
1008.981	-15.52
1009.143	33.89
1009.304	47.26
1009.466	31.76
1009.627	90.46
1009.789	111.78
1009.95	56.75
1010.112	27.5
1010.273	63.53
1010.435	55.4
1010.596	11.03
1010.758	50.55
1010.919	19.36
1011.081	-6.02
1011.242	45.13
1011.403	89.88
1011.565	31.37
1011.726	53.46
1011.887	-10.09
1012.049	32.92
1012.21	67.02
1012.371	81.55
1012.532	-15.32
1012.693	29.43
1012.855	26.14
1013.016	47.45
1013.177	44.35
1013.338	49.97
1013.499	90.66
1013.66	48.03
1013.821	46.48
1013.982	50.75
1014.143	38.35
1014.304	27.11
1014.465	34.66
1014.626	49.39
1014.787	0.95
1014.948	68.76
1015.109	-42.25
1015.27	22.85
1015.431	23.04
1015.592	16.06
1015.752	66.05
1015.913	32.15
1016.074	29.43
1016.235	27.69
1016.395	14.51
1016.556	49.78
1016.717	27.5
1016.877	57.33
1017.038	8.12
1017.199	36.8
1017.359	30.4
1017.52	36.6
1017.681	35.83
1017.841	44.74
1018.002	18.97
1018.162	6.18
1018.323	49.2
1018.483	24.98
1018.644	7.35
1018.804	-23.27
1018.964	-15.71
1019.125	18.58
1019.285	6.18
1019.446	-13.19
1019.606	12.77
1019.766	-31.21
1019.926	31.37
1020.087	43.77
1020.247	-10.48
1020.407	43.38
1020.567	40.28
1020.728	34.28
1020.888	-14.74
1021.048	12
1021.208	-10.09
1021.368	-14.55
1021.528	75.55
1021.688	51.91
1021.848	47.26
1022.008	52.68
1022.168	15.29
1022.328	43.96
1022.488	18.78
1022.648	5.22
1022.808	34.28
1022.968	34.47
1023.128	-19.97
1023.288	-8.15
1023.448	46.29
1023.608	59.08
1023.767	37.57
1023.927	-13.38
1024.087	-9.9
1024.247	-21.72
1024.406	9.09
1024.566	-8.35
1024.726	-6.22
1024.885	28.66
1025.045	38.93
1025.205	28.85
1025.364	6.18
1025.524	24.98
1025.683	-6.22
1025.843	19.75
1026.003	10.06
1026.162	65.66
1026.321	44.74
1026.481	27.11
1026.64	11.41
1026.8	21.68
1026.959	2.7
1027.119	25.36
1027.278	7.54
1027.437	-9.51
1027.597	36.21
1027.756	5.99
1027.915	28.46
1028.074	33.89
1028.234	-11.83
1028.393	37.96
1028.552	-10.28
1028.711	-29.85
1028.87	25.75
1029.03	-30.82
1029.189	12.77
1029.348	-32.37
1029.507	-15.13
1029.666	-18.23
1029.825	5.41
1029.984	6.38
1030.143	23.43
1030.302	6.96
1030.461	-39.73
1030.62	10.64
1030.779	-1.95
1030.938	-4.67
1031.097	-34.31
1031.255	47.06
1031.414	66.05
1031.573	42.03
1031.732	-30.43
1031.891	12
1032.049	21.49
1032.208	23.62
1032.367	7.73
1032.525	-14.55
1032.684	16.45
1032.843	26.91
1033.001	-44.58
1033.16	131.54
1033.319	57.72
1033.477	20.52
1033.636	10.45
1033.794	-40.12
1033.953	32.73
1034.111	48.23
1034.27	0.95
1034.428	31.37
1034.587	-33.15
1034.745	39.51
1034.903	-4.67
1035.062	27.69
1035.22	-48.65
1035.378	16.65
1035.537	-7.96
1035.695	24.78
1035.853	4.05
1036.011	28.08
1036.17	58.5
1036.328	-34.12
1036.486	15.48
1036.644	48.23
1036.802	-75.19
1036.96	-6.8
1037.119	-10.87
1037.277	-4.28
1037.435	-2.34
1037.593	-2.73
1037.751	-5.63
1037.909	18.97
1038.067	18.97
