Data from gum_young_FLMT105791__85__17-39-43-042.txt Node

Date: Mon Mar 20 17:39:43 GMT 2023
User: antho
Spectrometer: FLMT10579
Trigger mode: 0
Integration Time (sec): 1.000000E-1
Scans to average: 10
Electric dark correction enabled: true
Nonlinearity correction enabled: false
Boxcar width: 0
XAxis mode: Wavelengths
Number of Pixels in Spectrum: 3648
>>>>>Begin Spectral Data<<<<<
345.248	-157.63
345.464	-157.63
345.681	-157.63
345.898	-159.57
346.114	-159.57
346.331	-43.12
346.548	14.03
346.764	-0.69
346.981	-10.96
347.197	-1.47
347.414	19.07
347.631	-35.38
347.847	45.81
348.064	-1.08
348.28	24.3
348.497	-21.62
348.713	11.12
348.93	14.22
349.146	44.26
349.363	-4.57
349.579	37.86
349.796	8.22
350.012	0.27
350.229	14.03
350.445	23.72
350.661	-9.41
350.878	4.73
351.094	-3.02
351.311	13.84
351.527	15.77
351.743	-13.68
351.96	21.59
352.176	32.44
352.392	40.19
352.609	45.22
352.825	14.61
353.041	25.46
353.257	13.84
353.474	1.63
353.69	29.72
353.906	17.32
354.122	-25.49
354.339	60.34
354.555	-3.6
354.771	7.44
354.987	55.1
355.203	46
355.42	7.64
355.636	-8.64
355.852	6.09
356.068	15.77
356.284	-25.88
356.5	58.98
356.716	26.24
356.932	16.16
357.148	31.27
357.364	19.26
357.58	40.19
357.796	43.67
358.012	42.51
358.228	12.48
358.444	-40.8
358.66	78.16
358.876	36.31
359.092	-23.75
359.308	18.49
359.524	55.69
359.74	16.74
359.956	2.99
360.172	-3.79
360.388	28.37
360.604	2.99
360.819	87.85
361.035	25.27
361.251	21.78
361.467	-6.31
361.683	43.87
361.898	29.14
362.114	44.84
362.33	14.22
362.546	58.4
362.762	13.45
362.977	31.86
363.193	11.9
363.409	39.41
363.624	-9.61
363.84	-2.44
364.056	-0.11
364.271	37.47
364.487	37.67
364.703	12.29
364.918	10.16
365.134	-0.89
365.35	16.55
365.565	115.17
365.781	26.24
365.996	11.71
366.212	70.8
366.427	30.89
366.643	-1.66
366.858	15
367.074	-1.47
367.289	52.39
367.505	123.89
367.72	-6.89
367.936	8.41
368.151	32.44
368.367	38.25
368.582	8.8
368.798	33.6
369.013	77.97
369.228	23.33
369.444	15.77
369.659	89.59
369.874	36.89
370.09	60.72
370.305	-45.45
370.52	9.19
370.736	71.38
370.951	20.62
371.166	61.89
371.381	76.8
371.597	59.17
371.812	-21.23
372.027	21.01
372.242	16.16
372.458	76.22
372.673	29.92
372.888	23.91
373.103	51.62
373.318	101.41
373.533	41.35
373.749	51.62
373.964	-11.16
374.179	83.59
374.394	13.84
374.609	79.71
374.824	1.44
375.039	57.82
375.254	2.02
375.469	76.03
375.684	16.36
375.899	71.19
376.114	23.14
376.329	32.24
376.544	27.59
376.759	68.86
376.974	16.94
377.189	12.48
377.404	-9.41
377.619	59.95
377.834	-13.87
378.049	-3.41
378.264	13.84
378.478	47.94
378.693	4.34
378.908	67.7
379.123	36.89
379.338	72.15
379.553	48.71
379.767	12.87
379.982	34.57
380.197	62.85
380.412	41.35
380.626	41.93
380.841	143.84
381.056	44.45
381.271	118.27
381.485	27.01
381.7	-13.87
381.915	47.16
382.129	8.41
382.344	25.07
382.559	3.37
382.773	62.08
382.988	-9.03
383.202	46.97
383.417	9.96
383.632	136.67
383.846	22.94
384.061	28.17
384.275	18.87
384.49	28.95
384.704	42.12
384.919	44.64
385.133	40.77
385.348	53.36
385.562	5.31
385.777	61.11
385.991	28.95
386.206	25.27
386.42	18.68
386.634	75.25
386.849	34.37
387.063	27.98
387.277	-7.86
387.492	21.78
387.706	16.94
387.92	16.36
388.135	53.94
388.349	35.15
388.563	45.22
388.778	43.67
388.992	35.15
389.206	43.09
389.42	108.39
389.635	41.93
389.849	59.75
390.063	77.39
390.277	38.44
390.491	116.72
390.706	53.75
390.92	77.58
391.134	41.54
391.348	68.28
391.562	19.46
391.776	16.16
391.99	43.09
392.205	58.2
392.419	30.31
392.633	43.87
392.847	77.39
393.061	27.79
393.275	88.43
393.489	26.43
393.703	52.97
393.917	62.85
394.131	13.06
394.345	57.82
394.559	60.72
394.773	44.45
394.986	38.25
395.2	52.59
395.414	76.22
395.628	6.09
395.842	53.36
396.056	30.69
396.27	25.07
396.484	73.32
396.697	53.75
396.911	85.14
397.125	59.75
397.339	80.1
397.553	65.95
397.766	101.6
397.98	71.96
398.194	105.09
398.408	59.56
398.621	82.04
398.835	60.53
399.049	72.15
399.262	108.58
399.476	76.61
399.69	75.25
399.903	152.95
400.117	73.9
400.331	88.24
400.544	63.82
400.758	172.13
400.971	105.29
401.185	129.12
401.398	58.98
401.612	106.45
401.826	87.07
402.039	85.14
402.253	41.16
402.466	114.2
402.68	71.19
402.893	86.3
403.106	86.49
403.32	93.66
403.533	83.97
403.747	77.97
403.96	98.89
404.174	125.24
404.387	37.47
404.6	53.17
404.814	103.74
405.027	87.65
405.24	74.29
405.454	95.4
405.667	133.57
405.88	36.12
406.094	81.65
406.307	132.02
406.52	93.85
406.733	73.32
406.947	26.04
407.16	162.63
407.373	121.17
407.586	89.59
407.799	46.97
408.012	111.87
408.226	111.1
408.439	138.22
408.652	35.73
408.865	92.69
409.078	124.08
409.291	128.92
409.504	76.8
409.717	101.6
409.93	92.3
410.143	108.19
410.357	43.09
410.57	45.81
410.783	90.37
410.996	104.9
411.209	99.47
411.421	129.5
411.634	100.83
411.847	72.54
412.06	86.1
412.273	106.45
412.486	118.65
412.699	173.1
412.912	81.45
413.125	113.23
413.338	137.25
413.55	131.83
413.763	113.23
413.976	125.24
414.189	106.45
414.402	91.72
414.615	150.43
414.827	96.37
415.04	125.05
415.253	140.16
415.466	146.36
415.678	191.5
415.891	115.17
416.104	89.4
416.316	107.03
416.529	77.58
416.742	119.62
416.954	143.45
417.167	135.9
417.38	124.47
417.592	169.42
417.805	97.15
418.017	78.74
418.23	148.3
418.442	102.19
418.655	88.24
418.868	120.98
419.08	143.45
419.293	143.65
419.505	106.06
419.718	130.09
419.93	160.12
420.142	89.79
420.355	153.92
420.567	186.85
420.78	152.95
420.992	120.79
421.205	185.11
421.417	89.01
421.629	73.9
421.842	92.69
422.054	104.32
422.266	142.87
422.479	156.43
422.691	102.19
422.903	138.03
423.115	123.5
423.328	114.39
423.54	134.93
423.752	110.52
423.964	109.55
424.177	132.99
424.389	103.54
424.601	220.57
424.813	140.93
425.025	141.13
425.238	131.64
425.45	120.01
425.662	130.67
425.874	420.51
426.086	114.97
426.298	175.81
426.51	148.88
426.722	125.63
426.934	117.3
427.146	169.03
427.358	103.93
427.57	163.6
427.782	137.06
427.994	145
428.206	130.47
428.418	111.68
428.63	157.79
428.842	159.53
429.054	118.07
429.266	153.53
429.478	85.33
429.69	137.84
429.902	88.04
430.114	151.4
430.325	151.01
430.537	93.47
430.749	121.95
430.961	84.55
431.173	134.35
431.384	141.9
431.596	83.97
431.808	88.62
432.02	161.08
432.231	181.82
432.443	194.6
432.655	142.87
432.867	113.62
433.078	138.42
433.29	211.85
433.502	183.17
433.713	200.8
433.925	149.07
434.136	195.77
434.348	128.92
434.56	116.14
434.771	229.86
434.983	122.34
435.194	157.21
435.406	159.53
435.617	170.19
435.829	220.95
436.04	186.47
436.252	187.63
436.463	210.68
436.675	203.13
436.886	169.42
437.098	180.27
437.309	227.35
437.521	165.73
437.732	187.82
437.943	184.33
438.155	176
438.366	116.14
438.578	213.4
438.789	197.7
439	201.97
439.211	156.82
439.423	170.38
439.634	182.4
439.845	199.83
440.057	194.99
440.268	227.15
440.479	153.53
440.69	179.49
440.902	173.87
441.113	173.68
441.324	175.03
441.535	196.73
441.746	230.25
441.957	186.47
442.168	196.54
442.38	196.15
442.591	225.02
442.802	172.13
443.013	172.32
443.224	198.67
443.435	194.8
443.646	222.12
443.857	207.97
444.068	171.35
444.279	178.33
444.49	250.21
444.701	184.53
444.912	284.89
445.123	236.45
445.334	243.23
445.545	231.03
445.756	222.7
445.967	172.52
446.178	248.27
446.388	232.38
446.599	231.41
446.81	240.71
447.021	198.28
447.232	226.38
447.443	256.02
447.653	203.13
447.864	249.05
448.075	222.12
448.286	242.65
448.496	229.67
448.707	257.38
448.918	225.8
449.129	298.26
449.339	223.08
449.55	245.17
449.761	229.48
449.971	253.5
450.182	220.76
450.393	279.46
450.603	220.57
450.814	261.64
451.024	259.51
451.235	256.02
451.446	318.6
451.656	298.26
451.867	239.75
452.077	284.11
452.288	301.16
452.498	284.11
452.709	285.28
452.919	265.71
453.13	252.15
453.34	276.17
453.55	206.62
453.761	267.26
453.971	257.76
454.182	293.22
454.392	263.58
454.602	350.38
454.813	291.28
455.023	288.57
455.233	251.37
455.444	268.23
455.654	214.75
455.864	260.09
456.075	264.55
456.285	261.45
456.495	259.9
456.705	286.25
456.916	313.95
457.126	325.19
457.336	300.58
457.546	232.58
457.756	260.86
457.967	322.09
458.177	255.83
458.387	285.08
458.597	265.13
458.807	279.46
459.017	257.76
459.227	242.46
459.437	271.52
459.647	291.09
459.857	316.28
460.068	284.89
460.278	314.73
460.488	289.54
460.698	323.64
460.908	280.63
461.117	260.48
461.327	256.41
461.537	302.71
461.747	302.71
461.957	314.92
462.167	367.23
462.377	327.32
462.587	289.93
462.797	326.54
463.007	304.26
463.216	323.06
463.426	357.16
463.636	339.14
463.846	272.1
464.056	270.55
464.265	339.33
464.475	289.93
464.685	299.61
464.895	335.46
465.104	285.47
465.314	309.5
465.524	298.26
465.733	283.53
465.943	345.73
466.153	384.67
466.362	355.22
466.572	320.73
466.782	291.09
466.991	330.61
467.201	349.21
467.41	264.55
467.62	327.13
467.829	324.8
468.039	351.73
468.249	314.53
468.458	343.4
468.668	349.6
468.877	324.03
469.086	362.58
469.296	345.14
469.505	326.54
469.715	397.26
469.924	354.64
470.134	408.69
470.343	381.96
470.552	339.91
470.762	310.66
470.971	334.68
471.18	370.14
471.39	318.99
471.599	295.35
471.808	372.85
472.018	343.79
472.227	409.86
472.436	384.28
472.645	364.52
472.855	334.88
473.064	396.68
473.273	380.6
473.482	396.49
473.691	399.2
473.901	385.64
474.11	367.43
474.319	460.04
474.528	395.71
474.737	434.27
474.946	411.99
475.155	400.94
475.364	424.97
475.573	388.93
475.783	417.61
475.992	426.71
476.201	466.24
476.41	383.12
476.619	362.19
476.828	412.37
477.037	380.99
477.245	409.66
477.454	455
477.663	448.99
477.872	391.06
478.081	478.83
478.29	386.8
478.499	493.17
478.708	443.57
478.917	502.08
479.125	443.18
479.334	450.74
479.543	452.48
479.752	446.09
479.961	461.78
480.169	492.97
480.378	413.34
480.587	594.5
480.796	477.86
481.004	475.73
481.213	516.22
481.422	487.36
481.63	507.31
481.839	485.61
482.048	518.74
482.256	520.87
482.465	495.88
482.674	532.5
482.882	526.69
483.091	586.36
483.299	522.23
483.508	556.91
483.716	525.33
483.925	525.14
484.134	514.09
484.342	507.7
484.551	551.49
484.759	542.96
484.967	572.41
485.176	548
485.384	563.3
485.593	559.82
485.801	547.8
486.01	540.64
486.218	523.2
486.426	457.91
486.635	505.57
486.843	495.49
487.051	474.76
487.26	521.26
487.468	524.94
487.676	552.26
487.885	534.44
488.093	574.15
488.301	558.07
488.509	562.34
488.717	619.3
488.926	567.76
489.134	562.92
489.342	581.71
489.55	534.24
489.758	585.78
489.967	566.21
490.175	642.55
490.383	589.85
490.591	682.46
490.799	565.05
491.007	648.17
491.215	630.92
491.423	594.5
491.631	620.07
491.839	606.12
492.047	650.88
492.255	578.03
492.463	562.14
492.671	595.85
492.879	650.1
493.087	619.49
493.295	661.92
493.503	675.29
493.711	683.23
493.919	678.39
494.127	680.91
494.334	703.19
494.542	602.83
494.75	651.85
494.958	639.45
495.166	716.36
495.374	683.04
495.581	690.6
495.789	716.36
495.997	732.25
496.205	657.66
496.412	681.49
496.62	685.17
496.828	699.12
497.035	697.57
497.243	745.81
497.451	714.04
497.658	689.24
497.866	733.22
498.074	776.04
498.281	711.52
498.489	782.82
498.696	699.9
498.904	707.26
499.112	734.96
499.319	801.23
499.527	714.23
499.734	779.14
499.942	704.16
500.149	715.98
500.357	734.19
500.564	709
500.771	750.85
500.979	710.94
501.186	732.06
501.394	767.51
501.601	746.78
501.808	796.77
502.016	740.58
502.223	744.07
502.43	768.87
502.638	779.14
502.845	732.45
503.052	856.64
503.26	757.24
503.467	822.54
503.674	780.11
503.881	807.23
504.089	882.6
504.296	811.69
504.503	761.89
504.71	799.87
504.917	770.61
505.125	807.62
505.332	782.63
505.539	842.3
505.746	908.37
505.953	843.46
506.16	863.81
506.367	922.12
506.574	937.43
506.781	938.4
506.988	844.24
507.195	885.89
507.402	864
507.609	923.09
507.816	862.64
508.023	894.42
508.23	863.81
508.437	852.76
508.644	917.86
508.851	963
509.058	933.75
509.265	975.4
509.472	958.55
509.679	1035.66
509.885	942.85
510.092	969.4
510.299	974.05
510.506	993.81
510.713	981.6
510.92	999.43
511.126	1013.38
511.333	1057.94
511.54	1064.33
511.746	1076.35
511.953	1091.46
512.16	1099.4
512.367	1039.15
512.573	1067.24
512.78	1082.55
512.987	1055.23
513.193	1052.13
513.4	1016.67
513.606	1074.02
513.813	1111.41
514.02	1095.92
514.226	1146.48
514.433	1110.45
514.639	1064.33
514.846	1092.62
515.052	1085.45
515.259	1134.66
515.465	1145.51
515.672	1142.8
515.878	1237.93
516.085	1181.94
516.291	1196.66
516.497	1161.01
516.704	1157.53
516.91	1113.93
517.117	1080.42
517.323	1079.64
517.529	1072.67
517.736	1111.22
517.942	1117.42
518.148	1119.16
518.354	1174
518.561	1145.13
518.767	1184.46
518.973	1226.89
519.179	1245.88
519.386	1185.62
519.592	1204.41
519.798	1227.66
520.004	1321.05
520.21	1281.33
520.417	1326.86
520.623	1404.55
520.829	1399.52
521.035	1399.32
521.241	1367.74
521.447	1429.16
521.653	1531.27
521.859	1399.52
522.065	1450.08
522.271	1531.46
522.477	1495.03
522.683	1538.63
522.889	1503.75
523.095	1499.68
523.301	1503.17
523.507	1471.4
523.713	1494.84
523.919	1459.97
524.125	1572.34
524.331	1536.3
524.537	1624.46
524.742	1590.36
524.948	1647.9
525.154	1667.47
525.36	1710.68
525.566	1663.79
525.772	1714.55
525.977	1619.42
526.183	1694.98
526.389	1693.24
526.595	1636.66
526.8	1632.59
527.006	1567.5
527.212	1514.02
527.417	1543.08
527.623	1523.13
527.829	1622.13
528.034	1630.66
528.24	1624.84
528.446	1652.74
528.651	1752.33
528.857	1718.42
529.062	1821.69
529.268	1791.47
529.473	1816.85
529.679	1823.05
529.884	1849.98
530.09	1816.85
530.295	1846.49
530.501	1851.92
530.706	1839.13
530.912	1791.66
531.117	1875.17
531.323	1840.49
531.528	1894.93
531.733	1939.1
531.939	1869.16
532.144	1906.17
532.35	1912.56
532.555	1956.35
532.76	1905
532.966	1884.27
533.171	1861.41
533.376	1812
533.581	1823.44
533.787	1862.57
533.992	1901.71
534.197	1923.99
534.402	1926.12
534.607	1926.12
534.813	1994.51
535.018	1931.55
535.223	1944.53
535.428	2004.59
535.633	2001.68
535.838	2016.21
536.043	2056.9
536.249	2131.11
536.454	2014.08
536.659	2037.33
536.864	2072.01
537.069	1978.43
537.274	2025.32
537.479	2002.07
537.684	2052.83
537.889	2018.73
538.094	2105.53
538.299	2046.25
538.504	2070.85
538.708	2072.4
538.913	2099.33
539.118	2089.64
539.323	2079.57
539.528	2057.48
539.733	2051.48
539.938	2079.57
540.142	2043.53
540.347	2030.75
540.552	2059.81
540.757	2011.76
540.962	2057.68
541.166	1999.94
541.371	2003.43
541.576	2015.25
541.781	1944.72
541.985	2086.35
542.19	2074.14
542.395	2110.57
542.599	2157.84
542.804	2135.76
543.008	2172.76
543.213	2097.59
543.418	2082.67
543.622	2173.92
543.827	2049.15
544.031	2145.83
544.236	2168.5
544.44	2159.39
544.645	2236.12
544.849	2109.6
545.054	2190.39
545.258	2251.62
545.463	2229.34
545.667	2161.52
545.872	2235.15
546.076	2164.62
546.281	2190.59
546.485	2136.14
546.689	2177.22
546.894	2238.83
547.098	2225.85
547.302	2139.63
547.507	2207.64
547.711	2210.74
547.915	2240.38
548.119	2211.32
548.324	2189.23
548.528	2200.86
548.732	2163.27
548.936	2232.82
549.141	2257.43
549.345	2198.53
549.549	2209.38
549.753	2271.77
549.957	2289.59
550.161	2252.2
550.366	2270.02
550.57	2234.18
550.774	2274.87
550.978	2233.21
551.182	2251.42
551.386	2227.4
551.59	2241.35
551.794	2184.97
551.998	2259.17
552.202	2233.02
552.406	2197.76
552.61	2261.89
552.814	2283.59
553.018	2301.6
553.222	2223.72
553.426	2214.61
553.63	2288.43
553.833	2236.12
554.037	2204.15
554.241	2258.59
554.445	2260.92
554.649	2217.71
554.853	2214.22
555.056	2316.33
555.26	2308.39
555.464	2234.96
555.668	2282.04
555.871	2274.29
556.075	2331.44
556.279	2252.97
556.483	2198.53
556.686	2225.07
556.89	2241.54
557.094	2249.29
557.297	2203.76
557.501	2258.98
557.704	2134.4
557.908	2277.19
558.112	2175.67
558.315	2265.95
558.519	2205.51
558.722	2165.59
558.926	2163.66
559.129	2097.01
559.333	2052.64
559.536	2102.82
559.74	2090.81
559.943	2049.15
560.147	2052.25
560.35	2043.53
560.553	2093.91
560.757	2049.35
560.96	2169.27
561.164	2061.55
561.367	2187.49
561.57	2119.48
561.774	2154.74
561.977	2069.88
562.18	2055.35
562.384	2126.65
562.587	2073.37
562.79	2053.8
562.993	2040.82
563.197	2117.16
563.4	2120.64
563.603	2126.07
563.806	2180.12
564.009	2079.18
564.212	2072.21
564.416	2024.16
564.619	2024.35
564.822	1998.97
565.025	2093.33
565.228	2019.7
565.431	2036.75
565.634	1948.02
565.837	1993.74
566.04	1936.78
566.243	1966.62
566.446	1889.5
566.649	1923.6
566.852	1863.15
567.055	1930.77
567.258	1897.45
567.461	2001.88
567.664	1978.82
567.867	1876.72
568.07	1931.55
568.273	1926.7
568.475	1973.4
568.678	1866.84
568.881	1891.44
569.084	1865.48
569.287	1771.12
569.489	1804.25
569.692	1859.09
569.895	1897.25
570.098	1790.11
570.3	1762.6
570.503	1734.7
570.706	1766.86
570.909	1751.75
571.111	1663.79
571.314	1730.82
571.516	1715.52
571.719	1695.37
571.922	1707.58
572.124	1742.45
572.327	1722.88
572.529	1693.04
572.732	1676.38
572.935	1724.82
573.137	1800.57
573.34	1680.45
573.542	1776.36
573.745	1742.45
573.947	1725.01
574.15	1669.02
574.352	1668.24
574.554	1763.96
574.757	1641.7
574.959	1650.03
575.162	1626.2
575.364	1613.03
575.566	1728.5
575.769	1571.56
575.971	1623.3
576.173	1525.26
576.376	1614.19
576.578	1633.37
576.78	1627.75
576.982	1542.7
577.185	1608.18
577.387	1565.36
577.589	1553.93
577.791	1588.81
577.993	1565.36
578.196	1535.92
578.398	1600.63
578.6	1638.6
578.802	1514.02
579.004	1532.23
579.206	1529.13
579.408	1559.55
579.61	1538.43
579.812	1594.43
580.014	1504.72
580.216	1511.89
580.418	1499.68
580.62	1545.41
580.822	1505.3
581.024	1527.78
581.226	1549.67
581.428	1528.36
581.63	1613.8
581.832	1504.14
582.034	1593.26
582.236	1521.58
582.438	1588.61
582.64	1588.42
582.841	1572.53
583.043	1664.18
583.245	1574.47
583.447	1604.31
583.649	1548.51
583.85	1580.67
584.052	1577.38
584.254	1507.05
584.456	1565.17
584.657	1529.91
584.859	1554.71
585.061	1494.45
585.262	1552.96
585.464	1491.93
585.666	1535.53
585.867	1512.08
586.069	1531.27
586.27	1495.42
586.472	1540.37
586.674	1472.37
586.875	1467.33
587.077	1458.61
587.278	1514.02
587.48	1490.97
587.681	1547.54
587.883	1496.78
588.084	1423.35
588.285	1454.15
588.487	1412.5
588.688	1447.95
588.89	1339.46
589.091	1337.32
589.292	1355.73
589.494	1271.06
589.695	1300.9
589.896	1212.74
590.098	1230.96
590.299	1271.45
590.5	1227.28
590.702	1300.9
590.903	1325.12
591.104	1361.93
591.305	1345.46
591.507	1400.68
591.708	1365.61
591.909	1309.23
592.11	1391.57
592.311	1379.56
592.512	1363.67
592.714	1300.32
592.915	1325.7
593.116	1335.39
593.317	1349.53
593.518	1325.51
593.719	1354.57
593.92	1386.15
594.121	1391.38
594.322	1342.56
594.523	1329.19
594.724	1302.64
594.925	1323.76
595.126	1322.21
595.327	1329.96
595.528	1345.07
595.729	1330.54
595.929	1332.09
596.13	1360.96
596.331	1326.09
596.532	1345.85
596.733	1425.09
596.934	1380.72
597.135	1418.31
597.335	1355.34
597.536	1316.21
597.737	1309.23
597.938	1307.49
598.138	1344.69
598.339	1359.02
598.54	1341.01
598.74	1337.52
598.941	1295.67
599.142	1370.45
599.342	1358.64
599.543	1304.19
599.744	1353.6
599.944	1320.08
600.145	1364.45
600.345	1329.57
600.546	1406.88
600.746	1415.21
600.947	1394.29
601.147	1388.47
601.348	1382.85
601.548	1322.79
601.749	1346.43
601.949	1293.54
602.15	1290.05
602.35	1314.85
602.551	1341.2
602.751	1279.59
602.951	1311.36
603.152	1244.71
603.352	1320.66
603.552	1311.56
603.753	1339.65
603.953	1342.94
604.153	1319.5
604.354	1361.35
604.554	1298.57
604.754	1340.23
604.954	1286.76
605.155	1351.08
605.355	1310.39
605.555	1338.1
605.755	1348.17
605.955	1298.19
606.155	1333.06
606.356	1304.77
606.556	1341.2
606.756	1337.71
606.956	1278.23
607.156	1354.18
607.356	1266.22
607.556	1289.86
607.756	1298.77
607.956	1325.7
608.156	1308.07
608.356	1284.24
608.556	1331.51
608.756	1298.77
608.956	1260.6
609.156	1275.71
609.356	1252.46
609.556	1240.84
609.755	1284.43
609.955	1229.99
610.155	1266.03
610.355	1268.35
610.555	1227.86
610.755	1224.76
610.954	1192.21
611.154	1246.07
611.354	1257.5
611.554	1206.35
611.753	1211
611.953	1193.76
612.153	1220.88
612.352	1223.4
612.552	1187.56
612.752	1147.06
612.951	1191.43
613.151	1194.53
613.351	1196.86
613.55	1184.46
613.75	1208.68
613.949	1161.6
614.149	1185.81
614.348	1187.94
614.548	1171.67
614.747	1098.24
614.947	1165.28
615.146	1102.11
615.346	1204.41
615.545	1165.86
615.745	1149.39
615.944	1186.2
616.144	1147.84
616.343	1176.13
616.542	1141.25
616.742	1147.26
616.941	1130.98
617.14	1097.85
617.34	1115.29
617.539	1130.98
617.738	1075.38
617.938	1154.62
618.137	1104.83
618.336	1089.52
618.535	1142.8
618.734	1161.4
618.934	1144.55
619.133	1134.08
619.332	1110.64
619.531	1089.72
619.73	1115.1
619.929	1146.68
620.128	1138.73
620.328	1169.73
620.527	1093.2
620.726	1056.97
620.925	1105.8
621.124	1097.47
621.323	1128.08
621.522	1067.82
621.721	1057.94
621.92	1067.05
622.119	1103.86
622.318	1044.38
622.517	1073.83
622.715	1071.89
622.914	1014.54
623.113	1050.77
623.312	994.59
623.511	1041.28
623.71	1060.46
623.909	1032.75
624.107	1087.58
624.306	997.69
624.505	1003.3
624.704	1022.1
624.902	1010.86
625.101	1049.61
625.3	1051.16
625.499	984.9
625.697	1025.39
625.896	1005.05
626.095	1032.95
626.293	994
626.492	1001.17
626.69	998.07
626.889	955.64
627.088	1036.63
627.286	964.75
627.485	980.83
627.683	956.42
627.882	991.87
628.08	934.91
628.279	946.73
628.477	999.04
628.676	898.1
628.874	995.75
629.073	949.25
629.271	926.77
629.469	988.58
629.668	922.9
629.866	947.7
630.065	937.04
630.263	954.29
630.461	915.54
630.66	954.67
630.858	955.84
631.056	979.47
631.254	1006.6
631.453	916.12
631.651	950.02
631.849	975.21
632.047	974.44
632.245	964.36
632.444	953.7
632.642	999.24
632.84	993.23
633.038	935.69
633.236	918.83
633.434	964.94
633.632	932.97
633.83	925.03
634.028	981.8
634.227	967.85
634.425	1010.09
634.623	975.99
634.821	959.71
635.019	971.92
635.216	940.72
635.414	986.84
635.612	962.81
635.81	961.07
636.008	995.75
636.206	965.14
636.404	976.57
636.602	929.1
636.8	952.54
636.997	975.6
637.195	954.48
637.393	992.07
637.591	1004.47
637.789	988.39
637.986	938.79
638.184	961.26
638.382	1002.53
638.58	975.99
638.777	995.94
638.975	913.99
639.173	949.64
639.37	961.84
639.568	934.52
639.765	985.29
639.963	907.59
640.161	971.92
640.358	975.99
640.556	912.44
640.753	869.04
640.951	902.36
641.148	923.48
641.346	870.39
641.543	900.23
641.741	912.05
641.938	886.28
642.136	915.73
642.333	852.57
642.531	926.19
642.728	932
642.925	909.72
643.123	880.86
643.32	884.34
643.517	889.19
643.715	887.25
643.912	856.25
644.109	867.49
644.306	867.1
644.504	834.36
644.701	848.5
644.898	900.62
645.095	836.68
645.293	846.95
645.49	870.78
645.687	836.68
645.884	852.96
646.081	761.89
646.278	799.29
646.475	787.28
646.672	818.86
646.87	824.86
647.067	808.2
647.264	797.54
647.461	740.78
647.658	743.49
647.855	798.9
648.052	765.77
648.249	672.77
648.446	758.21
648.642	716.36
648.839	733.61
649.036	714.43
649.233	710.36
649.43	702.8
649.627	681.1
649.824	712.49
650.021	716.75
650.217	670.45
650.414	708.61
650.611	720.43
650.808	729.35
651.004	715.2
651.201	746.98
651.398	791.93
651.595	717.14
651.791	700.09
651.988	747.75
652.185	690.98
652.381	737.87
652.578	674.32
652.775	720.63
652.971	716.17
653.168	705.51
653.364	748.91
653.561	709.2
653.757	672.38
653.954	701.25
654.15	669.67
654.347	767.9
654.543	692.53
654.74	660.57
654.936	646.81
655.133	683.04
655.329	714.43
655.525	680.13
655.722	725.86
655.918	662.89
656.115	674.9
656.311	600.89
656.507	584.42
656.704	580.93
656.9	588.3
657.096	604.96
657.292	588.49
657.489	664.25
657.685	626.47
657.881	621.82
658.077	592.95
658.273	645.84
658.47	693.89
658.666	639.45
658.862	682.07
659.058	630.53
659.254	704.55
659.45	641.38
659.646	655.14
659.842	611.74
660.038	702.22
660.234	629.57
660.43	652.62
660.626	716.56
660.822	699.51
661.018	682.85
661.214	645.65
661.41	594.3
661.606	675.1
661.802	647.78
661.998	622.4
662.194	607.87
662.39	659.4
662.586	633.05
662.781	687.3
662.977	624.53
663.173	669.67
663.369	649.52
663.564	636.93
663.76	672.96
663.956	623.17
664.152	678.97
664.347	602.05
664.543	628.02
664.739	592.95
664.934	573.38
665.13	558.46
665.326	642.35
665.521	627.24
665.717	579.77
665.912	609.03
666.108	521.26
666.304	588.68
666.499	582.87
666.695	527.65
666.89	568.54
667.086	612.13
667.281	599.73
667.477	656.88
667.672	593.33
667.867	582.68
668.063	603.02
668.258	559.82
668.454	561.95
668.649	655.53
668.844	574.35
669.04	590.43
669.235	563.69
669.43	560.4
669.626	536.37
669.821	561.37
670.016	529.59
670.211	554
670.407	525.52
670.602	562.14
670.797	542.19
670.992	587.13
671.187	540.05
671.382	574.74
671.578	538.12
671.773	556.33
671.968	526.69
672.163	548.97
672.358	566.02
672.553	535.99
672.748	554.59
672.943	610
673.138	548.77
673.333	566.6
673.528	535.02
673.723	569.89
673.918	529.4
674.113	503.24
674.308	609.22
674.503	561.95
674.698	556.52
674.892	545.48
675.087	585.58
675.282	573.77
675.477	527.27
675.672	569.5
675.867	541.41
676.061	522.62
676.256	500.53
676.451	526.49
676.646	544.32
676.84	535.4
677.035	499.56
677.23	515.84
677.424	571.83
677.619	556.72
677.814	589.46
678.008	561.56
678.203	482.32
678.397	534.63
678.592	517.77
678.787	591.98
678.981	511.19
679.176	518.55
679.37	522.23
679.565	507.7
679.759	507.5
679.954	534.82
680.148	582.48
680.342	561.75
680.537	529.98
680.731	522.04
680.926	563.69
681.12	575.32
681.314	510.41
681.509	519.32
681.703	536.95
681.897	525.14
682.092	558.27
682.286	531.72
682.48	597.4
682.674	545.67
682.869	552.84
683.063	531.92
683.257	606.9
683.451	532.69
683.645	552.45
683.839	540.44
684.034	527.07
684.228	571.25
684.422	472.24
684.616	505.18
684.81	572.8
685.004	545.48
685.198	562.92
685.392	573.77
685.586	543.15
685.78	579
685.974	597.79
686.168	585
686.362	596.43
686.556	528.62
686.75	527.07
686.944	520.1
687.138	509.25
687.331	441.24
687.525	450.93
687.719	440.86
687.913	490.45
688.107	464.69
688.301	452.67
688.494	519.32
688.688	470.69
688.882	421.67
689.076	444.73
689.269	495.88
689.463	581.52
689.657	487.55
689.85	492.39
690.044	532.5
690.238	523
690.431	514.09
690.625	533.08
690.818	535.99
691.012	598.37
691.205	640.03
691.399	579.97
691.593	627.05
691.786	664.25
691.98	694.47
692.173	725.28
692.366	706.1
692.56	699.51
692.753	760.73
692.947	662.7
693.14	766.35
693.333	749.88
693.527	706.29
693.72	758.41
693.914	740.97
694.107	768.68
694.3	769.26
694.493	764.22
694.687	843.85
694.88	790.96
695.073	848.31
695.266	838.62
695.46	864.77
695.653	904.49
695.846	908.56
696.039	856.44
696.232	909.14
696.425	950.99
696.618	949.64
696.812	946.54
697.005	1032.37
697.198	1056.2
697.391	1049.8
697.584	1080.61
697.777	1127.69
697.97	1100.95
698.163	1097.27
698.356	1117.81
698.549	1235.61
698.742	1191.43
698.935	1136.41
699.127	1156.95
699.32	1143.38
699.513	1180.39
699.706	1211.78
699.899	1220.49
700.092	1200.15
700.285	1207.13
700.477	1187.94
700.67	1242.39
700.863	1261.38
701.056	1379.95
701.248	1308.46
701.441	1355.73
701.634	1293.15
701.826	1426.45
702.019	1300.12
702.212	1395.25
702.404	1365.03
702.597	1361.35
702.79	1404.36
702.982	1417.34
703.175	1443.3
703.367	1482.83
703.56	1524.68
703.752	1592.3
703.945	1541.53
704.137	1546.76
704.33	1597.14
704.522	1595.98
704.715	1634.34
704.907	1585.51
705.1	1662.24
705.292	1653.52
705.484	1680.26
705.677	1705.44
705.869	1704.86
706.061	1756.21
706.254	1760.47
706.446	1740.32
706.638	1795.73
706.831	1816.07
707.023	1799.22
707.215	1893.96
707.407	1909.27
707.599	1865.48
707.792	1936.2
707.984	1902.29
708.176	1956.93
708.368	1929.22
708.56	1928.64
708.752	1994.13
708.944	1941.62
709.136	2009.05
709.329	1963.32
709.521	2086.74
709.713	2088.68
709.905	2091
710.097	2118.9
710.289	2078.41
710.481	2101.66
710.672	2115.8
710.864	2125.29
711.056	2172.76
711.248	2173.34
711.44	2174.7
711.632	2196.4
711.824	2232.63
712.016	2249.29
712.207	2265.18
712.399	2238.44
712.591	2342.29
712.783	2303.54
712.975	2318.65
713.166	2291.92
713.358	2312.26
713.55	2372.32
713.741	2411.85
713.933	2394.8
714.125	2348.68
714.316	2338.03
714.508	2407.2
714.7	2426.96
714.891	2423.28
715.083	2428.7
715.274	2418.43
715.466	2436.65
715.657	2463
715.849	2365.93
716.04	2415.91
716.232	2368.45
716.423	2401.77
716.615	2339.19
716.806	2258.59
716.998	2204.34
717.189	2082.67
717.381	2027.65
717.572	1996.06
717.763	2042.18
717.955	2006.53
718.146	1936.2
718.337	1898.61
718.528	1862.38
718.72	1800.19
718.911	1838.16
719.102	1822.66
719.293	1842.23
719.485	1808.71
719.676	1781.01
719.867	1767.83
720.058	1801.54
720.249	1779.07
720.44	1812.2
720.632	1851.92
720.823	1886.6
721.014	2051.86
721.205	2096.04
721.396	2153.97
721.587	2290.37
721.778	2278.16
721.969	2360.31
722.16	2398.67
722.351	2439.36
722.542	2532.74
722.733	2553.48
722.924	2459.31
723.115	2467.06
723.305	2483.53
723.496	2466.87
723.687	2364.38
723.878	2335.12
724.069	2380.27
724.26	2385.11
724.45	2286.49
724.641	2276.22
724.832	2302.77
725.023	2291.34
725.213	2271.19
725.404	2281.84
725.595	2256.27
725.785	2238.25
725.976	2328.34
726.167	2293.27
726.357	2314.59
726.548	2460.48
726.739	2332.6
726.929	2442.07
727.12	2467.65
727.31	2438.2
727.501	2416.5
727.691	2396.35
727.882	2400.42
728.072	2470.55
728.263	2483.92
728.453	2468.81
728.644	2497.1
728.834	2500.58
729.024	2429.28
729.215	2439.75
729.405	2490.31
729.596	2577.89
729.786	2553.67
729.976	2596.1
730.167	2600.36
730.357	2567.23
730.547	2582.54
730.737	2588.35
730.928	2636.59
731.118	2661.59
731.308	2630.78
731.498	2638.14
731.688	2718.94
731.879	2741.02
732.069	2818.33
732.259	2848.94
732.449	2881.68
732.639	2954.34
732.829	2947.75
733.019	3022.34
733.209	3041.72
733.399	3073.88
733.589	3166.69
733.779	3195.36
733.969	3193.62
734.159	3290.49
734.349	3254.84
734.539	3347.06
734.729	3309.86
734.919	3403.25
735.109	3432.31
735.299	3363.34
735.488	3412.36
735.678	3385.04
735.868	3387.75
736.058	3375.93
736.248	3390.46
736.437	3324.78
736.627	3343.19
736.817	3458.66
737.007	3390.85
737.196	3454.4
737.386	3471.26
737.576	3394.53
737.765	3468.93
737.955	3443.74
738.144	3564.45
738.334	3565.8
738.524	3458.47
738.713	3537.71
738.903	3511.36
739.092	3532.29
739.282	3542.75
739.471	3579.17
739.661	3511.94
739.85	3586.15
740.04	3607.85
740.229	3616.37
740.419	3661.71
740.608	3666.17
740.797	3660.35
740.987	3717.51
741.176	3711.5
741.365	3704.72
741.555	3675.85
741.744	3714.6
741.933	3690.97
742.123	3759.75
742.312	3739.4
742.501	3772.15
742.69	3731.07
742.88	3720.22
743.069	3854.88
743.258	3783.58
743.447	3858.17
743.636	3791.91
743.825	3783.19
744.014	3803.15
744.204	3836.47
744.393	3759.16
744.582	3893.43
744.771	3890.91
744.96	3830.08
745.149	3891.49
745.338	3826.01
745.527	3832.01
745.716	3841.31
745.905	3800.05
746.094	3893.63
746.283	3879.29
746.471	3805.86
746.66	3982.36
746.849	3905.06
747.038	3923.07
747.227	3871.54
747.416	3909.12
747.604	3871.73
747.793	3877.35
747.982	3869.02
748.171	3931.02
748.359	3889.56
748.548	3890.33
748.737	3893.04
748.926	3897.11
749.114	3815.93
749.303	3927.53
749.491	3838.99
749.68	3792.3
749.869	3867.66
750.057	3862.82
750.246	3816.32
750.434	3860.88
750.623	3857.01
750.811	3825.23
751	3863.79
751.188	3777.76
751.377	3812.44
751.565	3807.6
751.754	3803.34
751.942	3782.22
752.131	3883.55
752.319	3810.51
752.507	3770.01
752.696	3807.8
752.884	3855.07
753.072	3756.06
753.261	3848.48
753.449	3794.62
753.637	3780.28
753.825	3826.39
754.014	3814.19
754.202	3782.8
754.39	3814.38
754.578	3846.35
754.766	3781.83
754.955	3738.43
755.143	3829.69
755.331	3772.34
755.519	3749.67
755.707	3741.53
755.895	3738.82
756.083	3767.88
756.271	3683.02
756.459	3724.29
756.647	3734.36
756.835	3700.27
757.023	3736.11
757.211	3698.91
757.399	3646.6
757.587	3678.76
757.775	3660.74
757.963	3672.56
758.151	3675.08
758.339	3582.08
758.526	3584.99
758.714	3622.19
758.902	3528.22
759.09	3359.85
759.278	3199.43
759.465	2933.03
759.653	2545.34
759.841	2301.41
760.028	2020.48
760.216	1735.86
760.404	1595.59
760.591	1316.01
760.779	1086.23
760.967	954.87
761.154	802.19
761.342	814.98
761.529	809.94
761.717	859.35
761.905	852.18
762.092	879.11
762.28	839.01
762.467	796.96
762.655	789.21
762.842	777.39
763.029	787.28
763.217	820.21
763.404	791.54
763.592	802.39
763.779	791.15
763.966	823.12
764.154	871.36
764.341	914.76
764.528	956.8
764.716	972.5
764.903	1051.74
765.09	1113.74
765.277	1212.36
765.465	1335.19
765.652	1401.84
765.839	1494.26
766.026	1620.39
766.213	1676.77
766.4	1799.99
766.588	2001.49
766.775	2029.58
766.962	2155.13
767.149	2225.66
767.336	2384.92
767.523	2332.8
767.71	2524.8
767.897	2623.22
768.084	2716.03
768.271	2773.18
768.458	2810.77
768.645	2918.11
768.832	2915.78
769.019	2933.41
769.206	3006.07
769.392	3038.62
769.579	3095
769.766	3107.01
769.953	3109.72
770.14	3133.17
770.327	3170.56
770.513	3226.94
770.7	3262.4
770.887	3193.81
771.073	3229.46
771.26	3238.76
771.447	3192.07
771.634	3228.68
771.82	3340.86
772.007	3200.98
772.193	3218.03
772.38	3310.25
772.567	3246.32
772.753	3238.76
772.94	3358.3
773.126	3308.9
773.313	3256
773.499	3293.2
773.686	3276.15
773.872	3234.11
774.059	3277.9
774.245	3217.83
774.432	3209.89
774.618	3171.72
774.804	3222.48
774.991	3205.63
775.177	3231.4
775.363	3196.72
775.55	3214.73
775.736	3174.24
775.922	3203.5
776.109	3194
776.295	3163.97
776.481	3196.72
776.667	3259.1
776.853	3194.59
777.04	3161.84
777.226	3135.3
777.412	3214.35
777.598	3138.2
777.784	3169.01
777.97	3136.46
778.156	3159.71
778.342	3186.84
778.528	3130.65
778.715	3048.31
778.901	3100.62
779.087	3132
779.272	3089.77
779.458	3049.27
779.644	3114.76
779.83	3062.45
780.016	3141.89
780.202	3093.45
780.388	3104.69
780.574	2975.65
780.76	3018.86
780.946	3073.88
781.131	3054.89
781.317	3028.35
781.503	3026.61
781.689	3013.04
781.874	3104.49
782.06	3003.74
782.246	3011.3
782.432	3012.66
782.617	3035.91
782.803	3012.46
782.989	2943.88
783.174	2940.39
783.36	2909.2
783.545	2943.49
783.731	2926.44
783.916	2907.45
784.102	2994.83
784.288	2912.3
784.473	2900.67
784.659	2895.25
784.844	2909
785.029	2869.09
785.215	2862.11
785.4	2829.95
785.586	2917.33
785.771	2829.37
785.956	2880.33
786.142	2822.4
786.327	2817.94
786.512	2871.22
786.698	2796.82
786.883	2738.7
787.068	2817.94
787.254	2798.95
787.439	2772.99
787.624	2768.92
787.809	2726.3
787.994	2709.83
788.18	2803.22
788.365	2676.89
788.55	2736.18
788.735	2702.27
788.92	2710.99
789.105	2708.67
789.29	2722.23
789.475	2651.9
789.66	2698.59
789.845	2613.34
790.03	2632.14
790.215	2650.35
790.4	2668.76
790.585	2647.83
790.77	2646.47
790.955	2580.79
791.14	2619.16
791.325	2666.43
791.51	2540.88
791.695	2589.71
791.879	2605.98
792.064	2536.04
792.249	2623.81
792.434	2597.84
792.618	2586.8
792.803	2593.19
792.988	2580.99
793.173	2588.74
793.357	2627.29
793.542	2578.86
793.727	2599.97
793.911	2632.52
794.096	2619.35
794.281	2592.03
794.465	2702.27
794.65	2593.58
794.834	2689.1
795.019	2687.94
795.203	2666.62
795.388	2685.8
795.572	2717.39
795.757	2627.1
795.941	2656.55
796.126	2618.38
796.31	2596.87
796.494	2614.7
796.679	2613.54
796.863	2562
797.048	2685.03
797.232	2628.65
797.416	2658.1
797.601	2639.69
797.785	2715.45
797.969	2690.07
798.153	2600.94
798.338	2682.7
798.522	2691.81
798.706	2698.2
798.89	2696.27
799.074	2801.47
799.258	2753.23
799.443	2679.22
799.627	2658.87
799.811	2732.89
799.995	2654.81
800.179	2657.91
800.363	2636.01
800.547	2675.54
800.731	2735.79
800.915	2609.66
801.099	2594.74
801.283	2627.87
801.467	2647.25
801.651	2629.42
801.835	2684.45
802.019	2643.18
802.202	2625.16
802.386	2602.11
802.57	2611.79
802.754	2605.79
802.938	2577.89
803.121	2586.8
803.305	2657.32
803.489	2634.46
803.673	2608.89
803.856	2643.57
804.04	2646.09
804.224	2652.48
804.407	2589.9
804.591	2591.64
804.775	2591.84
804.958	2601.14
805.142	2767.95
805.326	2643.18
805.509	2619.74
805.693	2679.6
805.876	2670.5
806.06	2667.98
806.243	2691.81
806.427	2710.99
806.61	2758.85
806.794	2663.91
806.977	2712.54
807.16	2683.48
807.344	2684.06
807.527	2692.97
807.71	2656.94
807.894	2643.57
808.077	2658.87
808.26	2642.79
808.444	2655.19
808.627	2637.76
808.81	2611.41
808.993	2574.01
809.177	2557.35
809.36	2574.21
809.543	2594.94
809.726	2485.66
809.909	2521.51
810.092	2497.1
810.276	2485.86
810.459	2473.85
810.642	2438.58
810.825	2423.28
811.008	2450.4
811.191	2329.31
811.374	2377.94
811.557	2359.92
811.74	2399.83
811.923	2328.92
812.106	2306.25
812.289	2281.26
812.472	2264.02
812.654	2268.47
812.837	2253.55
813.02	2202.99
813.203	2193.3
813.386	2059.42
813.569	2027.26
813.751	1998.2
813.934	2042.37
814.117	2014.28
814.3	1920.89
814.482	1897.45
814.665	1857.15
814.848	1833.7
815.03	1788.76
815.213	1766.47
815.396	1760.66
815.578	1741.09
815.761	1673.48
815.943	1729.08
816.126	1656.23
816.309	1666.89
816.491	1584.55
816.674	1536.5
816.856	1550.83
817.039	1577.18
817.221	1651.78
817.403	1605.28
817.586	1600.82
817.768	1609.73
817.951	1519.64
818.133	1552.77
818.315	1538.43
818.498	1587.06
818.68	1653.52
818.862	1646.35
819.045	1660.49
819.227	1622.33
819.409	1601.98
819.591	1650.61
819.774	1604.5
819.956	1576.02
820.138	1687.81
820.32	1659.53
820.502	1747.49
820.684	1807.55
820.866	1808.52
821.048	1810.26
821.231	1875.55
821.413	1848.04
821.595	1853.27
821.777	1855.4
821.959	1871.49
822.141	1922.63
822.323	1798.25
822.505	1677.35
822.686	1609.15
822.868	1566.72
823.05	1446.6
823.232	1453.18
823.414	1368.32
823.596	1426.45
823.778	1437.88
823.96	1454.15
824.141	1466.17
824.323	1512.28
824.505	1557.03
824.687	1638.6
824.868	1708.54
825.05	1749.04
825.232	1753.11
825.413	1854.44
825.595	1800.19
825.777	1744
825.958	1802.7
826.14	1773.45
826.321	1817.82
826.503	1789.34
826.685	1846.3
826.866	1847.27
827.048	1837.19
827.229	1775.19
827.411	1734.7
827.592	1697.5
827.773	1665.53
827.955	1644.61
828.136	1627.17
828.318	1645.58
828.499	1638.02
828.68	1589.39
828.862	1635.31
829.043	1655.07
829.224	1615.93
829.406	1575.63
829.587	1573.89
829.768	1577.57
829.949	1645.38
830.131	1587.84
830.312	1669.79
830.493	1604.31
830.674	1647.13
830.855	1621.16
831.036	1616.32
831.218	1680.64
831.399	1715.91
831.58	1657.78
831.761	1624.65
831.942	1655.46
832.123	1610.9
832.304	1619.03
832.485	1585.9
832.666	1642.67
832.847	1647.71
833.028	1627.75
833.209	1619.81
833.389	1612.25
833.57	1537.27
833.751	1575.05
833.932	1659.53
834.113	1618.45
834.294	1614.19
834.475	1644.8
834.655	1686.26
834.836	1663.21
835.017	1645.58
835.198	1622.52
835.378	1671.34
835.559	1714.16
835.74	1652.36
835.92	1665.73
836.101	1633.95
836.281	1700.41
836.462	1665.92
836.643	1716.1
836.823	1734.31
837.004	1711.06
837.184	1737.41
837.365	1748.07
837.545	1763.96
837.726	1683.74
837.906	1741.67
838.087	1701.57
838.267	1698.28
838.448	1636.28
838.628	1705.25
838.808	1701.96
838.989	1733.54
839.169	1634.92
839.349	1740.51
839.53	1728.89
839.71	1722.69
839.89	1724.43
840.07	1765.7
840.251	1688.59
840.431	1727.53
840.611	1714.94
840.791	1691.11
840.971	1716.68
841.151	1721.14
841.332	1633.37
841.512	1707.38
841.692	1631.04
841.872	1736.83
842.052	1685.1
842.232	1724.82
842.412	1635.11
842.592	1668.63
842.772	1707.38
842.952	1706.41
843.132	1685.29
843.312	1657.78
843.492	1638.21
843.672	1716.68
843.851	1603.92
844.031	1677.74
844.211	1643.25
844.391	1657.98
844.571	1665.73
844.751	1656.62
844.93	1682.39
845.11	1659.14
845.29	1633.18
845.47	1659.14
845.649	1667.86
845.829	1680.84
846.009	1639.18
846.188	1664.56
846.368	1658.17
846.547	1631.82
846.727	1672.7
846.907	1585.51
847.086	1633.56
847.266	1678.9
847.445	1650.23
847.625	1669.6
847.804	1642.09
847.984	1638.6
848.163	1631.43
848.343	1605.47
848.522	1644.8
848.701	1634.14
848.881	1623.1
849.06	1619.23
849.239	1616.32
849.419	1629.69
849.598	1527.2
849.777	1528.94
849.957	1517.9
850.136	1493.87
850.315	1465.2
850.494	1465.78
850.674	1472.75
850.853	1552
851.032	1496.2
851.211	1561.88
851.39	1508.79
851.569	1458.8
851.748	1481.67
851.927	1516.15
852.107	1519.83
852.286	1447.37
852.465	1422.38
852.644	1523.13
852.823	1510.15
853.002	1494.45
853.181	1491.74
853.359	1533.59
853.538	1426.84
853.717	1536.5
853.896	1413.27
854.075	1372.78
854.254	1307.1
854.433	1276.49
854.611	1326.86
854.79	1235.99
854.969	1316.4
855.148	1333.26
855.327	1314.46
855.505	1341.2
855.684	1344.11
855.863	1340.62
856.041	1351.27
856.22	1406.3
856.399	1340.62
856.577	1481.47
856.756	1384.02
856.934	1537.08
857.113	1514.22
857.291	1444.27
857.47	1397.77
857.648	1434.59
857.827	1410.95
858.005	1450.47
858.184	1409.2
858.362	1496.78
858.541	1456.28
858.719	1397.77
858.898	1439.04
859.076	1406.3
859.254	1483.8
859.433	1428.19
859.611	1390.22
859.789	1364.84
859.967	1440.59
860.146	1459.77
860.324	1360.77
860.502	1388.28
860.68	1337.32
860.859	1353.02
861.037	1358.25
861.215	1396.61
861.393	1395.45
861.571	1405.91
861.749	1363.87
861.927	1415.79
862.105	1389.64
862.283	1360.96
862.461	1346.43
862.639	1317.17
862.817	1335.97
862.995	1335.97
863.173	1312.72
863.351	1343.33
863.529	1340.04
863.707	1376.65
863.885	1362.32
864.063	1265.64
864.241	1283.07
864.418	1356.51
864.596	1320.47
864.774	1263.51
864.952	1305.94
865.129	1351.86
865.307	1282.69
865.485	1278.23
865.663	1319.11
865.84	1223.79
866.018	1266.99
866.196	1149.39
866.373	1179.42
866.551	1129.82
866.728	1079.64
866.906	1118.58
867.084	1178.84
867.261	1177.1
867.439	1207.51
867.616	1217.01
867.794	1170.9
867.971	1211.58
868.149	1206.74
868.326	1277.46
868.503	1221.08
868.681	1221.46
868.858	1201.31
869.035	1201.12
869.213	1235.41
869.39	1239.68
869.567	1295.47
869.745	1211.97
869.922	1216.62
870.099	1243.74
870.276	1258.66
870.454	1244.52
870.631	1230.57
870.808	1198.41
870.985	1226.5
871.162	1288.89
871.339	1248.98
871.517	1134.28
871.694	1164.7
871.871	1211.78
872.048	1186.98
872.225	1160.05
872.402	1195.11
872.579	1177.48
872.756	1221.85
872.933	1131.56
873.11	1168.57
873.287	1217.78
873.463	1171.09
873.64	1114.13
873.817	1167.99
873.994	1160.24
874.171	1171.48
874.348	1184.85
874.524	1096.88
874.701	1162.56
874.878	1090.88
875.055	1151.71
875.231	1131.18
875.408	1174.38
875.585	1068.4
875.762	1121.68
875.938	1112.77
876.115	1113.55
876.291	1086.03
876.468	1114.13
876.645	1106.76
876.821	1093.01
876.998	1086.03
877.174	1113.74
877.351	1091.07
877.527	1045.54
877.704	1108.7
877.88	1082.55
878.057	1076.73
878.233	1120.33
878.409	1068.4
878.586	1110.06
878.762	1102.5
878.938	1028.49
879.115	1043.41
879.291	1060.65
879.467	1062.78
879.644	1043.6
879.82	1056.2
879.996	1047.87
880.172	995.36
880.349	1044.77
880.525	1056.39
880.701	1015.12
880.877	1027.72
881.053	1020.16
881.229	1040.31
881.405	1051.74
881.581	1008.92
881.757	1029.85
881.933	1040.12
882.109	1065.5
882.285	1015.32
882.461	972.89
882.637	1045.35
882.813	977.92
882.989	1034.5
883.165	1077.12
883.341	1003.3
883.517	1049.8
883.693	1028.88
883.869	1067.63
884.044	1002.53
884.22	1042.83
884.396	1063.95
884.572	1040.7
884.747	1062.01
884.923	1043.99
885.099	1037.21
885.275	1026.36
885.45	1019
885.626	1036.82
885.801	1006.6
885.977	1013.18
886.153	978.5
886.328	1025
886.504	988
886.679	998.27
886.855	971.72
887.03	1035.27
887.206	1020.74
887.381	1045.93
887.557	1051.35
887.732	1016.67
887.908	1050.38
888.083	1024.03
888.258	1000.59
888.434	976.18
888.609	1009.89
888.784	1048.64
888.96	1009.7
889.135	989.55
889.31	975.79
889.485	1032.17
889.661	993.81
889.836	1013.96
890.011	1012.6
890.186	961.84
890.361	1000.01
890.537	1021.32
890.712	1038.18
890.887	1050
891.062	994.2
891.237	1045.93
891.412	977.34
891.587	1023.07
891.762	1042.83
891.937	1052.52
892.112	979.67
892.287	1020.35
892.462	960.29
892.637	918.64
892.812	935.49
892.987	906.43
893.161	915.15
893.336	892.67
893.511	922.12
893.686	918.44
893.861	929.29
894.035	900.62
894.21	906.62
894.385	868.07
894.56	917.09
894.734	809.36
894.909	810.53
895.084	846.56
895.258	806.84
895.433	839.01
895.608	799.68
895.782	754.73
895.957	772.16
896.131	730.7
896.306	698.15
896.48	677.03
896.655	675.68
896.829	631.89
897.004	649.72
897.178	654.17
897.353	634.41
897.527	722.37
897.701	705.71
897.876	634.8
898.05	709.97
898.224	680.71
898.399	692.92
898.573	661.34
898.747	573.19
898.921	598.57
899.096	539.86
899.27	534.05
899.444	522.62
899.618	565.82
899.792	595.27
899.967	554.78
900.141	631.89
900.315	541.02
900.489	584.62
900.663	587.33
900.837	579.77
901.011	535.6
901.185	617.75
901.359	552.65
901.533	610.97
901.707	618.33
901.881	557.88
902.055	524.36
902.229	570.67
902.403	618.52
902.576	578.61
902.75	561.17
902.924	664.25
903.098	625.3
903.272	653.2
903.446	723.34
903.619	717.53
903.793	740.39
903.967	716.95
904.14	765.58
904.314	757.05
904.488	698.93
904.661	768.68
904.835	749.5
905.009	748.72
905.182	804.33
905.356	750.27
905.529	736.71
905.703	702.61
905.876	683.23
906.05	664.05
906.223	663.86
906.397	585
906.57	575.51
906.744	591.98
906.917	589.85
907.09	581.32
907.264	566.21
907.437	537.34
907.61	526.49
907.784	522.42
907.957	567.95
908.13	511.77
908.304	557.3
908.477	495.88
908.65	529.79
908.823	471.27
908.996	549.74
909.17	507.89
909.343	495.88
909.516	534.05
909.689	499.37
909.862	467.01
910.035	508.28
910.208	473.99
910.381	472.05
910.554	565.44
910.727	503.82
910.9	489.68
911.073	470.11
911.246	570.86
911.419	547.22
911.592	546.25
911.765	508.28
911.938	485.81
912.11	519.13
912.283	500.14
912.456	534.44
912.629	504.79
912.802	473.02
912.974	411.99
913.147	445.7
913.32	382.54
913.493	383.89
913.665	422.45
913.838	436.79
914.01	430.59
914.183	456.36
914.356	421.67
914.528	486.58
914.701	485.22
914.873	483.87
915.046	440.86
915.218	420.51
915.391	343.4
915.563	334.49
915.736	413.15
915.908	424.19
916.081	432.72
916.253	427.1
916.425	462.94
916.598	452.48
916.77	422.26
916.942	411.21
917.115	346.5
917.287	423.22
917.459	405.21
917.632	359.48
917.804	349.6
917.976	421.67
918.148	405.98
918.32	429.42
918.493	448.8
918.665	471.66
918.837	446.67
919.009	455.19
919.181	476.31
919.353	451.12
919.525	471.47
919.697	446.47
919.869	453.06
920.041	512.15
920.213	559.04
920.385	491.23
920.557	504.6
920.729	482.12
920.901	473.21
921.073	477.86
921.244	455
921.416	501.89
921.588	481.93
921.76	487.16
921.932	517.58
922.103	469.92
922.275	466.82
922.447	478.64
922.619	406.95
922.79	448.8
922.962	435.04
923.134	461.97
923.305	419.54
923.477	387.77
923.648	393.97
923.82	419.93
923.991	365.1
924.163	358.51
924.335	393.39
924.506	372.46
924.677	439.5
924.849	363.36
925.02	398.23
925.192	418.38
925.363	391.06
925.535	396.29
925.706	380.21
925.877	436.98
926.049	369.36
926.22	410.05
926.391	388.35
926.562	409.27
926.734	360.84
926.905	422.64
927.076	339.53
927.247	369.56
927.419	299.23
927.59	329.64
927.761	333.71
927.932	319.76
928.103	309.3
928.274	275.4
928.445	285.08
928.616	275.59
928.787	268.61
928.958	319.76
929.129	293.03
929.3	266.48
929.471	239.55
929.642	169.8
929.813	139.97
929.984	259.12
930.155	163.6
930.326	200.22
930.496	161.47
930.667	121.75
930.838	168.06
931.009	151.2
931.18	152.37
931.35	138.42
931.521	156.63
931.692	106.45
931.863	71.38
932.033	114.39
932.204	139.19
932.374	114.59
932.545	93.85
932.716	130.28
932.886	129.31
933.057	55.88
933.227	44.45
933.398	145.2
933.568	57.43
933.739	4.34
933.909	61.5
934.08	111.68
934.25	26.24
934.421	31.66
934.591	104.9
934.761	5.12
934.932	22.36
935.102	49.29
935.272	58.79
935.443	55.1
935.613	35.92
935.783	96.37
935.953	33.79
936.123	159.73
936.294	22.36
936.464	39.41
936.634	44.84
936.804	18.49
936.974	17.52
937.144	59.17
937.314	42.9
937.484	23.72
937.655	9.19
937.825	67.7
937.995	41.93
938.165	53.75
938.334	24.11
938.504	87.65
938.674	33.6
938.844	73.7
939.014	111.68
939.184	87.65
939.354	143.07
939.524	140.16
939.694	85.52
939.863	68.28
940.033	143.26
940.203	145.39
940.373	79.52
940.542	143.26
940.712	66.73
940.882	106.45
941.051	114.97
941.221	112.26
941.391	131.25
941.56	81.26
941.73	82.42
941.899	168.06
942.069	67.12
942.238	109.16
942.408	75.84
942.577	120.01
942.747	84.36
942.916	26.82
943.086	74.67
943.255	94.63
943.425	88.04
943.594	71.96
943.763	33.21
943.933	33.79
944.102	13.06
944.271	70.41
944.441	79.71
944.61	65.18
944.779	83.59
944.948	153.92
945.117	37.09
945.287	60.34
945.456	1.44
945.625	52.2
945.794	77.97
945.963	51.42
946.132	101.02
946.301	55.49
946.47	89.4
946.639	47.36
946.808	68.86
946.977	94.63
947.146	123.89
947.315	57.24
947.484	88.43
947.653	40.57
947.822	51.42
947.991	48.71
948.16	112.84
948.329	123.69
948.498	58.4
948.666	72.15
948.835	81.45
949.004	23.52
949.173	22.56
949.341	51.42
949.51	59.37
949.679	121.17
949.847	68.86
950.016	125.82
950.185	129.31
950.353	63.63
950.522	53.17
950.69	131.05
950.859	79.13
951.028	102.19
951.196	73.51
951.365	69.25
951.533	79.71
951.701	90.75
951.87	69.83
952.038	33.79
952.207	49.49
952.375	123.5
952.543	58.01
952.712	67.7
952.88	52.2
953.048	101.99
953.217	75.64
953.385	73.7
953.553	125.44
953.721	30.31
953.89	42.51
954.058	31.08
954.226	50.07
954.394	83
954.562	21.2
954.73	66.34
954.898	62.08
955.067	78.74
955.235	21.2
955.403	109.74
955.571	110.13
955.739	107.03
955.907	33.41
956.075	54.33
956.243	52
956.41	87.07
956.578	8.8
956.746	22.56
956.914	48.52
957.082	89.98
957.25	98.5
957.418	38.64
957.585	77.97
957.753	123.69
957.921	41.35
958.089	69.83
958.256	83.78
958.424	82.81
958.592	111.1
958.759	54.33
958.927	83
959.095	41.35
959.262	44.84
959.43	76.8
959.597	43.29
959.765	44.84
959.932	47.55
960.1	87.27
960.267	76.42
960.435	83.59
960.602	117.1
960.77	67.89
960.937	28.17
961.104	90.75
961.272	41.35
961.439	75.06
961.606	74.29
961.774	113.81
961.941	61.5
962.108	94.44
962.275	72.15
962.443	112.26
962.61	103.54
962.777	142.48
962.944	88.04
963.111	110.32
963.278	99.09
963.446	115.36
963.613	83
963.78	83.39
963.947	115.55
964.114	120.01
964.281	162.63
964.448	107.22
964.615	82.81
964.782	90.95
964.949	136.48
965.116	124.66
965.282	145.78
965.449	88.62
965.616	37.09
965.783	129.31
965.95	72.15
966.117	56.46
966.283	103.15
966.45	97.34
966.617	96.95
966.784	114.78
966.95	137.84
967.117	133.38
967.284	102.77
967.45	84.17
967.617	122.53
967.784	102.38
967.95	161.28
968.117	128.34
968.283	137.06
968.45	191.31
968.616	122.92
968.783	137.45
968.949	119.82
969.116	158.57
969.282	95.99
969.449	141.9
969.615	117.49
969.781	60.72
969.948	88.82
970.114	90.56
970.28	151.98
970.447	108.39
970.613	155.47
970.779	118.46
970.945	137.45
971.112	131.05
971.278	122.72
971.444	113.42
971.61	145.97
971.776	109.16
971.942	125.63
972.108	137.25
972.275	86.3
972.441	109.94
972.607	160.5
972.773	103.35
972.939	129.31
973.105	109.16
973.271	58.79
973.437	105.67
973.602	67.7
973.768	122.53
973.934	108.58
974.1	122.53
974.266	44.26
974.432	133.38
974.598	75.06
974.763	155.66
974.929	95.6
975.095	147.52
975.261	74.09
975.426	90.17
975.592	87.27
975.758	145.39
975.923	34.37
976.089	75.64
976.255	154.88
976.42	118.07
976.586	101.8
976.751	125.63
976.917	164.18
977.082	115.75
977.248	80.1
977.413	61.69
977.579	107.42
977.744	87.65
977.91	66.15
978.075	82.42
978.24	120.98
978.406	99.67
978.571	97.73
978.736	70.02
978.902	79.9
979.067	58.79
979.232	51.62
979.397	95.21
979.563	142.1
979.728	49.1
979.893	86.1
980.058	68.09
980.223	130.28
980.388	98.12
980.554	110.71
980.719	90.56
980.884	86.49
981.049	148.88
981.214	89.59
981.379	98.12
981.544	87.65
981.709	79.52
981.874	99.86
982.039	101.99
982.204	116.72
982.368	66.34
982.533	60.72
982.698	137.64
982.863	112.84
983.028	95.4
983.193	108
983.357	104.32
983.522	109.74
983.687	86.69
983.852	64.79
984.016	92.89
984.181	84.36
984.346	102.38
984.51	124.27
984.675	101.99
984.839	101.22
985.004	99.47
985.168	115.75
985.333	104.51
985.498	107.03
985.662	131.64
985.827	118.07
985.991	88.04
986.155	76.42
986.32	126.6
986.484	156.43
986.649	137.25
986.813	44.26
986.977	101.41
987.142	108.77
987.306	65.76
987.47	78.94
987.634	81.07
987.799	101.41
987.963	74.67
988.127	105.29
988.291	145
988.455	105.67
988.62	82.81
988.784	120.59
988.948	115.94
989.112	89.98
989.276	106.06
989.44	84.36
989.604	68.86
989.768	69.05
989.932	177.75
990.096	60.14
990.26	44.06
990.424	79.52
990.588	73.51
990.752	139.58
990.915	127.95
991.079	98.31
991.243	48.91
991.407	147.13
991.571	80.87
991.734	128.73
991.898	121.37
992.062	181.23
992.226	96.37
992.389	72.35
992.553	49.68
992.717	81.07
992.88	93.08
993.044	104.7
993.207	74.48
993.371	93.47
993.535	127.76
993.698	87.27
993.862	124.85
994.025	112.84
994.189	87.65
994.352	103.54
994.515	85.14
994.679	132.41
994.842	61.11
995.006	101.99
995.169	50.26
995.332	46.39
995.496	129.5
995.659	44.06
995.822	55.88
995.985	86.1
996.149	110.9
996.312	74.48
996.475	139.19
996.638	64.6
996.801	123.11
996.964	134.74
997.128	72.54
997.291	59.17
997.454	83.97
997.617	67.89
997.78	100.25
997.943	65.37
998.106	88.82
998.269	40.77
998.432	61.69
998.595	68.67
998.758	44.45
998.92	50.65
999.083	15.77
999.246	60.34
999.409	34.57
999.572	29.72
999.735	50.07
999.897	73.12
1000.06	78.55
1000.223	63.24
1000.386	79.13
1000.548	111.68
1000.711	79.52
1000.874	79.71
1001.036	15.77
1001.199	99.47
1001.361	37.47
1001.524	78.16
1001.687	96.37
1001.849	57.82
1002.012	76.42
1002.174	55.69
1002.337	95.4
1002.499	87.27
1002.661	93.47
1002.824	51.81
1002.986	64.4
1003.149	54.14
1003.311	39.22
1003.473	117.88
1003.636	42.51
1003.798	90.17
1003.96	88.04
1004.123	65.57
1004.285	59.95
1004.447	68.28
1004.609	70.99
1004.771	120.98
1004.933	49.87
1005.096	29.72
1005.258	16.55
1005.42	45.03
1005.582	78.35
1005.744	61.89
1005.906	12.67
1006.068	61.89
1006.23	29.53
1006.392	-7.28
1006.554	19.65
1006.716	94.24
1006.878	81.84
1007.04	25.85
1007.202	48.71
1007.363	66.34
1007.525	87.46
1007.687	62.08
1007.849	99.09
1008.011	25.46
1008.172	20.81
1008.334	41.93
1008.496	74.87
1008.658	-6.89
1008.819	31.86
1008.981	13.64
1009.143	25.66
1009.304	37.47
1009.466	64.79
1009.627	93.08
1009.789	124.47
1009.95	74.48
1010.112	21.59
1010.273	68.09
1010.435	19.65
1010.596	59.17
1010.758	15.58
1010.919	26.62
1011.081	-5.54
1011.242	23.33
1011.403	78.74
1011.565	51.42
1011.726	61.69
1011.887	20.23
1012.049	45.81
1012.21	77.58
1012.371	93.27
1012.532	-2.83
1012.693	65.37
1012.855	8.22
1013.016	41.35
1013.177	64.6
1013.338	63.63
1013.499	102.96
1013.66	58.98
1013.821	49.68
1013.982	47.36
1014.143	63.82
1014.304	52.78
1014.465	58.4
1014.626	76.61
1014.787	20.81
1014.948	120.59
1015.109	-19.1
1015.27	65.76
1015.431	40.57
1015.592	28.37
1015.752	70.8
1015.913	13.26
1016.074	56.27
1016.235	24.49
1016.395	52.39
1016.556	22.36
1016.717	35.92
1016.877	88.62
1017.038	17.32
1017.199	56.27
1017.359	45.22
1017.52	37.28
1017.681	31.47
1017.841	31.27
1018.002	45.42
1018.162	21.59
1018.323	66.73
1018.483	21.01
1018.644	30.11
1018.804	-2.05
1018.964	-12.71
1019.125	3.96
1019.285	38.64
1019.446	2.02
1019.606	13.06
1019.766	-8.06
1019.926	63.44
1020.087	38.06
1020.247	-0.69
1020.407	45.42
1020.567	71.19
1020.728	17.91
1020.888	7.64
1021.048	19.07
1021.208	2.6
1021.368	12.67
1021.528	86.3
1021.688	68.28
1021.848	52.39
1022.008	42.9
1022.168	-2.83
1022.328	16.36
1022.488	56.46
1022.648	19.84
1022.808	32.05
1022.968	39.02
1023.128	25.66
1023.288	26.82
1023.448	0.86
1023.608	36.89
1023.767	59.95
1023.927	27.98
1024.087	4.73
1024.247	-15.23
1024.406	39.22
1024.566	-4.57
1024.726	6.28
1024.885	20.04
1025.045	45.42
1025.205	19.84
1025.364	39.61
1025.524	34.37
1025.683	24.88
1025.843	4.92
1026.003	11.51
1026.162	41.54
1026.321	53.17
1026.481	51.42
1026.64	9.19
1026.8	35.34
1026.959	29.53
1027.119	32.82
1027.278	12.48
1027.437	-1.28
1027.597	16.55
1027.756	47.55
1027.915	30.89
1028.074	39.8
1028.234	12.87
1028.393	42.32
1028.552	40.96
1028.711	-40.02
1028.87	54.72
1029.03	0.47
1029.189	29.34
1029.348	-38.28
1029.507	32.44
1029.666	-2.05
1029.825	11.32
1029.984	11.12
1030.143	27.21
1030.302	21.59
1030.461	-33.24
1030.62	13.45
1030.779	37.86
1030.938	15.19
1031.097	-15.61
1031.255	41.16
1031.414	73.9
1031.573	29.72
1031.732	-41.38
1031.891	15.19
1032.049	49.87
1032.208	46.19
1032.367	2.6
1032.525	21.39
1032.684	13.84
1032.843	33.99
1033.001	-18.13
1033.16	141.32
1033.319	70.02
1033.477	56.07
1033.636	2.41
1033.794	-32.86
1033.953	32.24
1034.111	22.94
1034.27	-8.25
1034.428	33.6
1034.587	-5.54
1034.745	5.51
1034.903	19.84
1035.062	24.69
1035.22	-4.38
1035.378	39.22
1035.537	-15.61
1035.695	34.37
1035.853	0.86
1036.011	15.97
1036.17	27.98
1036.328	-42.74
1036.486	36.7
1036.644	27.79
1036.802	-40.41
1036.96	-1.08
1037.119	14.42
1037.277	2.41
1037.435	0.47
1037.593	-7.86
1037.751	-0.31
1037.909	48.13
1038.067	48.13
