Data from gum_young_FLMT105791__133__17-41-01-040.txt Node

Date: Mon Mar 20 17:41:01 GMT 2023
User: antho
Spectrometer: FLMT10579
Trigger mode: 0
Integration Time (sec): 1.000000E-1
Scans to average: 10
Electric dark correction enabled: true
Nonlinearity correction enabled: false
Boxcar width: 0
XAxis mode: Wavelengths
Number of Pixels in Spectrum: 3648
>>>>>Begin Spectral Data<<<<<
345.248	-139.01
345.464	-139.01
345.681	-139.01
345.898	-140.76
346.114	-134.75
346.331	-71.4
346.548	45.24
346.764	11.53
346.981	-20.44
347.197	-21.02
347.414	18.31
347.631	-15.02
347.847	52.02
348.064	-2.03
348.28	18.89
348.497	-22.18
348.713	6.1
348.93	27.42
349.146	54.35
349.363	6.3
349.579	23.73
349.796	-3.39
350.012	-24.51
350.229	23.15
350.445	19.08
350.661	-26.06
350.878	10.56
351.094	30.9
351.311	27.22
351.527	9.98
351.743	2.23
351.96	42.72
352.176	21.6
352.392	19.47
352.609	43.69
352.825	-5.52
353.041	-0.1
353.257	11.53
353.474	0.48
353.69	-4.17
353.906	11.14
354.122	-21.02
354.339	66.55
354.555	-2.62
354.771	18.89
354.987	54.15
355.203	52.02
355.42	-18.89
355.636	-2.42
355.852	22.77
356.068	21.6
356.284	-52.02
356.5	67.13
356.716	25.28
356.932	12.88
357.148	-2.42
357.364	-7.07
357.58	33.42
357.796	26.64
358.012	38.85
358.228	29.74
358.444	-52.02
358.66	41.17
358.876	33.62
359.092	-15.21
359.308	34
359.524	46.98
359.74	13.27
359.956	-20.83
360.172	-2.42
360.388	23.73
360.604	30.52
360.819	77.4
361.035	23.73
361.251	43.3
361.467	-16.37
361.683	55.31
361.898	15.79
362.114	50.28
362.33	25.67
362.546	48.92
362.762	35.55
362.977	26.64
363.193	-17.73
363.409	48.15
363.624	16.76
363.84	7.07
364.056	3.39
364.271	35.17
364.487	5.72
364.703	16.95
364.918	6.88
365.134	-6.1
365.35	17.73
365.565	120.22
365.781	12.11
365.996	41.56
366.212	54.35
366.427	18.89
366.643	-5.33
366.858	27.61
367.074	3
367.289	70.81
367.505	114.8
367.72	-11.72
367.936	2.81
368.151	21.22
368.367	25.48
368.582	23.35
368.798	21.6
369.013	60.74
369.228	34
369.444	26.83
369.659	76.82
369.874	37.49
370.09	77.98
370.305	-28.77
370.52	28.38
370.736	77.79
370.951	0.48
371.166	74.69
371.381	93.1
371.597	54.35
371.812	-4.94
372.027	16.18
372.242	17.15
372.458	73.72
372.673	11.92
372.888	14.63
373.103	33.42
373.318	110.53
373.533	30.32
373.749	42.33
373.964	-26.83
374.179	73.14
374.394	-11.72
374.609	58.22
374.824	-0.68
375.039	59.96
375.254	27.8
375.469	59.19
375.684	38.65
375.899	52.21
376.114	53.38
376.329	43.5
376.544	79.34
376.759	65
376.974	10.17
377.189	-20.05
377.404	28.38
377.619	56.86
377.834	-19.67
378.049	4.55
378.264	6.88
378.478	61.32
378.693	4.55
378.908	70.04
379.123	18.89
379.338	94.45
379.553	27.8
379.767	68.68
379.982	66.94
380.197	36.33
380.412	40.4
380.626	31.48
380.841	100.46
381.056	47.56
381.271	103.56
381.485	8.23
381.7	-17.34
381.915	38.27
382.129	27.42
382.344	51.05
382.559	31.1
382.773	47.95
382.988	-18.5
383.202	35.36
383.417	-4.55
383.632	106.27
383.846	38.65
384.061	54.35
384.275	4.75
384.49	60.74
384.704	59.77
384.919	17.15
385.133	43.88
385.348	46.4
385.562	6.49
385.777	75.85
385.991	10.56
386.206	10.56
386.42	43.3
386.634	76.63
386.849	58.41
387.063	28.97
387.277	14.24
387.492	40.4
387.706	0.68
387.92	17.53
388.135	41.37
388.349	60.93
388.563	47.18
388.778	52.41
388.992	93.1
389.206	43.88
389.42	93.1
389.635	45.43
389.849	64.23
390.063	96
390.277	50.28
390.491	117.31
390.706	54.93
390.92	72.36
391.134	47.37
391.348	82.83
391.562	38.27
391.776	41.56
391.99	19.47
392.205	71.98
392.419	18.31
392.633	40.98
392.847	97.55
393.061	26.25
393.275	108.01
393.489	38.65
393.703	72.95
393.917	86.31
394.131	26.83
394.345	50.08
394.559	72.75
394.773	50.28
394.986	60.74
395.2	23.35
395.414	80.31
395.628	31.87
395.842	76.24
396.056	39.23
396.27	12.11
396.484	85.73
396.697	71.98
396.911	119.45
397.125	57.06
397.339	88.25
397.553	72.95
397.766	111.89
397.98	83.02
398.194	93.1
398.408	49.11
398.621	100.46
398.835	94.06
399.049	100.07
399.262	118.67
399.476	95.61
399.69	114.6
399.903	154.9
400.117	79.73
400.331	88.64
400.544	68.1
400.758	200.43
400.971	73.72
401.185	132.81
401.398	79.34
401.612	127.2
401.826	123.32
402.039	122.55
402.253	97.75
402.466	120.03
402.68	73.14
402.893	100.85
403.106	110.53
403.32	92.71
403.533	102.2
403.747	87.86
403.96	122.55
404.174	113.25
404.387	83.99
404.6	109.95
404.814	148.89
405.027	122.93
405.24	93.87
405.454	95.61
405.667	132.04
405.88	60.93
406.094	100.26
406.307	132.23
406.52	106.08
406.733	93.29
406.947	82.63
407.16	166.91
407.373	161.49
407.586	53.96
407.799	74.3
408.012	144.44
408.226	132.81
408.439	178.93
408.652	74.5
408.865	147.93
409.078	160.52
409.291	124.29
409.504	91.93
409.717	128.16
409.93	130.49
410.143	144.05
410.357	73.14
410.57	60.16
410.783	123.71
410.996	138.24
411.209	126.61
411.421	151.22
411.634	128.75
411.847	131.46
412.06	129.91
412.273	127.97
412.486	145.02
412.699	223.29
412.912	135.53
413.125	140.76
413.338	132.04
413.55	158.58
413.763	151.03
413.976	158.78
414.189	97.94
414.402	119.64
414.615	184.54
414.827	144.44
415.04	141.53
415.253	158.78
415.466	170.79
415.678	203.53
415.891	139.79
416.104	144.63
416.316	132.81
416.529	145.6
416.742	183.77
416.954	187.64
417.167	148.12
417.38	131.84
417.592	166.53
417.805	111.31
418.017	94.84
418.23	175.83
418.442	142.5
418.655	125.65
418.868	149.48
419.08	179.12
419.293	177.38
419.505	169.82
419.718	175.44
419.93	188.23
420.142	131.84
420.355	169.82
420.567	200.43
420.78	163.04
420.992	154.9
421.205	189.19
421.417	152.38
421.629	137.46
421.842	118.86
422.054	148.51
422.266	188.23
422.479	191.91
422.691	170.79
422.903	179.89
423.115	151.8
423.328	171.56
423.54	156.26
423.752	154.13
423.964	159.55
424.177	173.89
424.389	153.35
424.601	258.94
424.813	164.78
425.025	210.31
425.238	175.05
425.45	170.79
425.662	170.01
425.874	439.13
426.086	180.86
426.298	187.64
426.51	203.34
426.722	203.14
426.934	172.14
427.146	228.52
427.358	137.85
427.57	190.55
427.782	166.91
427.994	168.66
428.206	157.42
428.418	127.2
428.63	203.14
428.842	206.44
429.054	183.38
429.266	208.38
429.478	151.03
429.69	187.26
429.902	143.66
430.114	195.2
430.325	165.56
430.537	163.04
430.749	161.68
430.961	131.26
431.173	151.8
431.384	198.69
431.596	108.6
431.808	189.97
432.02	207.99
432.231	244.41
432.443	231.04
432.655	212.25
432.867	185.9
433.078	211.48
433.29	268.63
433.502	257.2
433.713	241.89
433.925	214.19
434.136	248.09
434.348	169.04
434.56	150.83
434.771	298.86
434.983	153.54
435.194	189.97
435.406	210.31
435.617	266.11
435.829	281.81
436.04	251.39
436.252	256.42
436.463	283.55
436.675	272.51
436.886	250.61
437.098	251.19
437.309	305.83
437.521	241.12
437.732	247.12
437.943	238.6
438.155	258.94
438.366	182.41
438.578	294.79
438.789	239.76
439	257.01
439.211	229.3
439.423	263.59
439.634	268.63
439.845	260.49
440.057	266.5
440.268	291.3
440.479	257.01
440.69	282.19
440.902	257.01
441.113	241.7
441.324	243.64
441.535	269.02
441.746	313.77
441.957	240.34
442.168	266.5
442.38	293.24
442.591	288.2
442.802	257.78
443.013	275.99
443.224	286.46
443.435	282.39
443.646	311.06
443.857	268.24
444.068	270.37
444.279	244.22
444.49	348.65
444.701	307.19
444.912	388.17
445.123	324.04
445.334	302.15
445.545	329.27
445.756	287.42
445.967	282
446.178	317.84
446.388	338.77
446.599	337.8
446.81	324.62
447.021	285.68
447.232	313
447.443	376.94
447.653	292.85
447.864	349.04
448.075	311.45
448.286	347.1
448.496	351.17
448.707	379.84
448.918	310.29
449.129	399.02
449.339	326.75
449.55	360.27
449.761	312.22
449.971	387.59
450.182	330.24
450.393	354.85
450.603	327.14
450.814	372.67
451.024	373.84
451.235	378.68
451.446	388.56
451.656	406.19
451.867	368.6
452.077	395.73
452.288	419.95
452.498	426.34
452.709	359.3
452.919	393.79
453.13	337.8
453.34	400.96
453.55	337.6
453.761	396.7
453.971	358.14
454.182	367.44
454.392	391.08
454.602	413.94
454.813	411.42
455.023	416.65
455.233	348.84
455.444	382.75
455.654	320.17
455.864	373.25
456.075	403.09
456.285	361.82
456.495	369.77
456.705	404.83
456.916	439.32
457.126	443.39
457.336	411.23
457.546	345.16
457.756	381.59
457.967	424.21
458.177	390.69
458.387	430.99
458.597	340.9
458.807	371.7
459.017	397.86
459.227	367.05
459.437	367.25
459.647	416.65
459.857	407.35
460.068	408.52
460.278	442.23
460.488	417.04
460.698	440.87
460.908	407.55
461.117	366.28
461.327	399.02
461.537	427.5
461.747	430.99
461.957	424.21
462.167	505.78
462.377	457.15
462.587	446.68
462.797	462.57
463.007	411.42
463.216	448.82
463.426	498.41
463.636	471.48
463.846	412.58
464.056	428.47
464.265	458.31
464.475	420.14
464.685	468
464.895	460.05
465.104	458.5
465.314	469.55
465.524	432.35
465.733	420.53
465.943	507.33
466.153	519.15
466.362	476.33
466.572	498.8
466.782	473.62
466.991	469.93
467.201	498.8
467.41	409.48
467.62	477.1
467.829	445.52
468.039	451.33
468.249	459.28
468.458	447.07
468.668	482.33
468.877	487.18
469.086	529.22
469.296	551.11
469.505	475.75
469.715	558.86
469.924	512.36
470.134	564.87
470.343	523.21
470.552	490.08
470.762	515.08
470.971	469.35
471.18	486.79
471.39	476.52
471.599	480.4
471.808	531.35
472.018	507.91
472.227	556.35
472.436	563.32
472.645	561.96
472.855	505
473.064	598
473.273	539.88
473.482	558.48
473.691	604.2
473.901	571.07
474.11	540.46
474.319	644.69
474.528	583.28
474.737	620.09
474.946	587.54
475.155	589.28
475.364	632.29
475.573	620.09
475.783	631.13
475.992	626.09
476.201	647.79
476.41	617.76
476.619	566.23
476.828	582.89
477.037	595.48
477.245	604.39
477.454	657.87
477.663	633.46
477.872	616.99
478.081	696.04
478.29	621.64
478.499	704.76
478.708	658.26
478.917	718.71
479.125	628.42
479.334	693.13
479.543	652.83
479.752	676.47
479.961	683.83
480.169	711.92
480.378	684.8
480.587	816.55
480.796	733.43
481.004	687.32
481.213	696.23
481.422	708.63
481.63	713.28
481.839	776.44
482.048	791.17
482.256	747.19
482.465	750.09
482.674	807.05
482.882	793.88
483.091	817.9
483.299	775.67
483.508	823.72
483.716	765.01
483.925	784.77
484.134	764.62
484.342	766.17
484.551	825.46
484.759	804.73
484.967	820.62
485.176	824.49
485.384	837.28
485.593	831.08
485.801	811.7
486.01	820.42
486.218	764.62
486.426	682.09
486.635	717.35
486.843	744.67
487.051	762.69
487.26	766.17
487.468	776.83
487.676	798.72
487.885	808.8
488.093	834.76
488.301	809.77
488.509	880.68
488.717	898.12
488.926	863.05
489.134	851.42
489.342	860.92
489.55	855.1
489.758	866.34
489.967	870.8
490.175	989.37
490.383	920.4
490.591	984.53
490.799	887.65
491.007	962.83
491.215	956.82
491.423	935.7
491.631	923.11
491.839	933.96
492.047	985.11
492.255	901.8
492.463	870.41
492.671	914
492.879	964.76
493.087	914.39
493.295	979.1
493.503	983.75
493.711	1015.14
493.919	1028.89
494.127	1015.14
494.334	1022.5
494.542	942.68
494.75	1009.71
494.958	1020.18
495.166	1046.53
495.374	1021.73
495.581	1048.46
495.789	1025.21
495.997	1061.83
496.205	1030.64
496.412	1042.84
496.62	1022.89
496.828	1063.77
497.035	1044.39
497.243	1087.6
497.451	1073.26
497.658	1082.56
497.866	1077.33
498.074	1132.36
498.281	1038.58
498.489	1135.26
498.696	1112.21
498.904	1099.81
499.112	1042.65
499.319	1168.78
499.527	1095.93
499.734	1124.22
499.942	1075.01
500.149	1089.73
500.357	1157.93
500.564	1061.25
500.771	1141.27
500.979	1084.89
501.186	1096.9
501.394	1137.2
501.601	1098.64
501.808	1145.92
502.016	1117.82
502.223	1088.76
502.43	1146.11
502.638	1110.07
502.845	1125.96
503.052	1218.57
503.26	1180.79
503.467	1210.63
503.674	1181.95
503.881	1192.42
504.089	1270.3
504.296	1204.24
504.503	1178.08
504.71	1192.03
504.917	1164.91
505.125	1209.27
505.332	1195.9
505.539	1242.6
505.746	1310.6
505.953	1282.12
506.16	1296.85
506.367	1339.86
506.574	1367.18
506.781	1371.63
506.988	1321.26
507.195	1346.64
507.402	1341.22
507.609	1362.14
507.816	1325.91
508.023	1342.96
508.23	1345.28
508.437	1285.03
508.644	1364.85
508.851	1415.42
509.058	1429.95
509.265	1420.65
509.472	1438.28
509.679	1533.22
509.885	1421.04
510.092	1454.56
510.299	1464.63
510.506	1466.18
510.713	1464.44
510.92	1463.86
511.126	1489.82
511.333	1559.37
511.54	1539.22
511.746	1571.39
511.953	1577.78
512.16	1621.57
512.367	1540.19
512.573	1583.98
512.78	1584.76
512.987	1594.44
513.193	1587.86
513.4	1546.59
513.606	1591.54
513.813	1626.41
514.02	1627.57
514.226	1653.73
514.433	1674.07
514.639	1614.79
514.846	1676.4
515.052	1654.5
515.259	1653.34
515.465	1682.6
515.672	1681.82
515.878	1753.51
516.085	1738.2
516.291	1767.65
516.497	1708.75
516.704	1699.84
516.91	1704.88
517.117	1588.05
517.323	1543.1
517.529	1582.62
517.736	1598.12
517.942	1633.19
518.148	1652.95
518.354	1736.27
518.561	1698.49
518.767	1726.58
518.973	1757
519.179	1800.4
519.386	1785.87
519.592	1786.25
519.798	1799.04
520.004	1901.92
520.21	1849.8
520.417	1958.69
520.623	1996.27
520.829	2015.65
521.035	2020.3
521.241	2000.73
521.447	2041.03
521.653	2167.16
521.859	2057.5
522.065	2107.1
522.271	2186.73
522.477	2166.77
522.683	2219.86
522.889	2163.28
523.095	2136.16
523.301	2162.7
523.507	2170.65
523.713	2184.4
523.919	2171.62
524.125	2264.81
524.331	2262.48
524.537	2357.42
524.742	2354.9
524.948	2385.9
525.154	2393.46
525.36	2483.55
525.566	2389.78
525.772	2436.86
525.977	2334.17
526.183	2391.33
526.389	2456.23
526.595	2353.16
526.8	2331.07
527.006	2252.6
527.212	2232.06
527.417	2204.75
527.623	2214.63
527.829	2337.27
528.034	2352.19
528.24	2372.92
528.446	2362.65
528.651	2509.9
528.857	2512.8
529.062	2551.55
529.268	2577.52
529.473	2563.95
529.679	2601.73
529.884	2680.78
530.09	2648.62
530.295	2605.22
530.501	2648.82
530.706	2681.17
530.912	2594.37
531.117	2682.72
531.323	2693.76
531.528	2741.81
531.733	2762.74
531.939	2713.72
532.144	2717.98
532.35	2701.13
532.555	2765.06
532.76	2703.84
532.966	2732.51
533.171	2649.78
533.376	2651.33
533.581	2627.89
533.787	2661.22
533.992	2732.71
534.197	2782.11
534.402	2729.41
534.607	2773.98
534.813	2851.28
535.018	2761.19
535.223	2833.46
535.428	2824.93
535.633	2877.82
535.838	2902.24
536.043	2937.5
536.249	2974.31
536.454	2923.16
536.659	2923.94
536.864	2912.89
537.069	2858.84
537.274	2913.47
537.479	2885.38
537.684	2911.54
537.889	2844.5
538.094	3018.29
538.299	2901.46
538.504	2980.32
538.708	2980.7
538.913	3000.47
539.118	2983.22
539.323	2998.72
539.528	2930.72
539.733	2942.54
539.938	2889.26
540.142	2962.49
540.347	2915.02
540.552	2914.25
540.757	2870.66
540.962	2886.93
541.166	2844.69
541.371	2790.25
541.576	2901.66
541.781	2807.88
541.985	2948.54
542.19	2947.38
542.395	3027.2
542.599	3027.98
542.804	2978.77
543.008	3071.57
543.213	2953.19
543.418	2952.61
543.622	3005.31
543.827	2973.15
544.031	3046.97
544.236	3065.95
544.44	3051.81
544.645	3111.29
544.849	3049.29
545.054	3109.93
545.258	3151.59
545.463	3161.86
545.667	3033.21
545.872	3128.15
546.076	3115.94
546.281	3084.94
546.485	3079.32
546.689	3091.92
546.894	3130.28
547.098	3111.68
547.302	3049.29
547.507	3151.78
547.711	3119.81
547.915	3133.57
548.119	3020.62
548.324	3075.45
548.528	3121.95
548.732	3104.51
548.936	3138.03
549.141	3157.79
549.345	3125.24
549.549	3129.5
549.753	3148.88
549.957	3241.29
550.161	3220.56
550.366	3188.98
550.57	3153.72
550.774	3139.38
550.978	3181.43
551.182	3201.19
551.386	3152.75
551.59	3145.2
551.794	3115.94
551.998	3194.02
552.202	3205.84
552.406	3126.6
552.61	3206.42
552.814	3206.42
553.018	3249.63
553.222	3149.46
553.426	3134.73
553.63	3266.09
553.833	3188.21
554.037	3105.09
554.241	3150.43
554.445	3223.86
554.649	3185.69
554.853	3157.6
555.056	3217.85
555.26	3227.73
555.464	3146.36
555.668	3209.91
555.871	3178.91
556.075	3212.23
556.279	3207
556.483	3107.22
556.686	3139.38
556.89	3132.41
557.094	3160.5
557.297	3020.81
557.501	3111.48
557.704	3009.38
557.908	3075.64
558.112	3030.11
558.315	3111.29
558.519	3035.53
558.722	2970.44
558.926	3047.35
559.129	2932.65
559.333	2965.01
559.536	2944.09
559.74	2899.52
559.943	2895.46
560.147	2879.76
560.35	2954.35
560.553	2932.65
560.757	2902.24
560.96	3018.29
561.164	2938.85
561.367	3032.05
561.57	2934.4
561.774	2934.98
561.977	2957.45
562.18	2926.46
562.384	2999.5
562.587	2911.73
562.79	2903.98
562.993	2863.87
563.197	2914.06
563.4	2998.92
563.603	2968.89
563.806	3002.02
564.009	2908.05
564.212	2898.75
564.416	2853.8
564.619	2876.86
564.822	2849.92
565.025	2890.03
565.228	2848.96
565.431	2855.93
565.634	2720.7
565.837	2776.49
566.04	2741.04
566.243	2718.37
566.446	2645.72
566.649	2765.45
566.852	2655.02
567.055	2743.95
567.258	2709.46
567.461	2775.33
567.664	2770.29
567.867	2689.31
568.07	2689.7
568.273	2712.17
568.475	2692.6
568.678	2621.11
568.881	2662.38
569.084	2624.4
569.287	2500.6
569.489	2562.79
569.692	2603.28
569.895	2588.75
570.098	2492.07
570.3	2504.86
570.503	2458.56
570.706	2475.02
570.909	2470.57
571.111	2342.5
571.314	2409.73
571.516	2381.06
571.719	2440.73
571.922	2427.56
572.124	2360.71
572.327	2426.97
572.529	2358
572.732	2387.06
572.935	2410.51
573.137	2498.66
573.34	2370.98
573.542	2414.96
573.745	2415.35
573.947	2431.24
574.15	2378.73
574.352	2339.98
574.554	2421.36
574.757	2365.36
574.959	2304.14
575.162	2315.38
575.364	2288.83
575.566	2367.11
575.769	2287.67
575.971	2263.84
576.173	2172.58
576.376	2261.51
576.578	2247.76
576.78	2352.38
576.982	2184.6
577.185	2228.96
577.387	2209.78
577.589	2225.87
577.791	2280.7
577.993	2253.57
578.196	2208.04
578.398	2192.35
578.6	2204.36
578.802	2108.26
579.004	2147.4
579.206	2104.77
579.408	2174.52
579.61	2111.36
579.812	2193.51
580.014	2114.07
580.216	2141.2
580.418	2128.8
580.62	2124.34
580.822	2095.86
581.024	2171.03
581.226	2187.89
581.428	2160.18
581.63	2243.11
581.832	2116.98
582.034	2207.46
582.236	2143.52
582.438	2195.25
582.64	2242.91
582.841	2216.95
583.043	2247.56
583.245	2202.81
583.447	2195.64
583.649	2201.07
583.85	2170.45
584.052	2234.39
584.254	2194.09
584.456	2235.16
584.657	2139.45
584.859	2187.12
585.061	2169.48
585.262	2137.13
585.464	2122.02
585.666	2170.84
585.867	2118.14
586.069	2163.48
586.27	2144.88
586.472	2123.57
586.674	2127.05
586.875	2086.37
587.077	2120.27
587.278	2121.44
587.48	2090.24
587.681	2188.86
587.883	2090.24
588.084	2048.78
588.285	2076.87
588.487	2049.56
588.688	2027.47
588.89	1932.92
589.091	1881.77
589.292	1860.46
589.494	1840.5
589.695	1805.43
589.896	1733.75
590.098	1748.67
590.299	1747.7
590.5	1753.51
590.702	1844.57
590.903	1847.28
591.104	1912.38
591.305	1898.43
591.507	1918.39
591.708	1922.65
591.909	1866.66
592.11	1905.02
592.311	1935.44
592.512	1896.49
592.714	1842.25
592.915	1857.36
593.116	1879.44
593.317	1877.7
593.518	1877.12
593.719	1871.31
593.92	1948.23
594.121	1927.88
594.322	1877.9
594.523	1889.13
594.724	1806.6
594.925	1885.26
595.126	1854.06
595.327	1894.94
595.528	1834.88
595.729	1877.51
595.929	1868.01
596.13	1856.39
596.331	1891.07
596.532	1917.61
596.733	1982.91
596.934	1933.69
597.135	1932.14
597.335	1897.85
597.536	1875.18
597.737	1872.66
597.938	1858.91
598.138	1901.92
598.339	1884.87
598.54	1905.02
598.74	1868.21
598.941	1861.81
599.142	1932.14
599.342	1877.12
599.543	1866.46
599.744	1909.28
599.944	1877.9
600.145	1888.94
600.345	1881.96
600.546	1920.33
600.746	1943.77
600.947	1961.98
601.147	1889.33
601.348	1887.19
601.548	1852.9
601.749	1876.54
601.949	1835.27
602.15	1876.15
602.35	1835.08
602.551	1881.38
602.751	1834.3
602.951	1834.11
603.152	1765.13
603.352	1878.86
603.552	1852.71
603.753	1872.47
603.953	1913.93
604.153	1858.13
604.354	1863.56
604.554	1876.73
604.754	1854.45
604.954	1866.46
605.155	1880.03
605.355	1853.68
605.555	1865.11
605.755	1950.74
605.955	1818.03
606.155	1885.26
606.356	1841.86
606.556	1875.18
606.756	1854.65
606.956	1853.1
607.156	1872.47
607.356	1811.44
607.556	1849.61
607.756	1877.12
607.956	1903.08
608.156	1829.46
608.356	1808.34
608.556	1858.13
608.756	1808.15
608.956	1779.86
609.156	1804.46
609.356	1784.32
609.556	1779.28
609.755	1763.97
609.955	1764.17
610.155	1756.03
610.355	1801.56
610.555	1741.88
610.755	1733.36
610.954	1689.38
611.154	1782.18
611.354	1770.56
611.554	1733.75
611.753	1744.79
611.953	1697.32
612.153	1750.41
612.352	1770.37
612.552	1691.9
612.752	1667.29
612.951	1730.65
613.151	1698.87
613.351	1699.45
613.55	1688.22
613.75	1721.54
613.949	1690.15
614.149	1676.2
614.348	1682.6
614.548	1639.2
614.747	1596.19
614.947	1652.18
615.146	1586.31
615.346	1695.19
615.545	1649.27
615.745	1640.36
615.944	1647.92
616.144	1610.72
616.343	1632.22
616.542	1592.31
616.742	1610.52
616.941	1585.34
617.14	1552.59
617.34	1603.74
617.539	1541.16
617.738	1555.11
617.938	1633.58
618.137	1601.03
618.336	1585.34
618.535	1622.54
618.734	1602.97
618.934	1601.03
619.133	1604.13
619.332	1610.72
619.531	1510.74
619.73	1547.56
619.929	1609.94
620.128	1608.39
620.328	1609.36
620.527	1539.42
620.726	1543.1
620.925	1592.51
621.124	1571.19
621.323	1576.04
621.522	1511.52
621.721	1549.11
621.92	1465.21
622.119	1559.18
622.318	1508.23
622.517	1509.19
622.715	1522.95
622.914	1498.34
623.113	1498.93
623.312	1470.06
623.511	1499.51
623.71	1464.05
623.909	1437.7
624.107	1524.11
624.306	1445.45
624.505	1454.75
624.704	1439.45
624.902	1454.75
625.101	1475.87
625.3	1449.52
625.499	1436.54
625.697	1431.11
625.896	1385
626.095	1424.14
626.293	1391.59
626.492	1405.93
626.69	1411.55
626.889	1416.97
627.088	1425.11
627.286	1422.78
627.485	1372.02
627.683	1377.06
627.882	1401.66
628.08	1305.95
628.279	1369.7
628.477	1387.13
628.676	1295.1
628.874	1369.5
629.073	1317.77
629.271	1321.45
629.469	1397.98
629.668	1324.94
629.866	1363.3
630.065	1318.16
630.263	1361.56
630.461	1307.5
630.66	1383.84
630.858	1362.91
631.056	1397.98
631.254	1388.68
631.453	1364.27
631.651	1380.35
631.849	1363.3
632.047	1377.64
632.245	1370.08
632.444	1349.93
632.642	1366.01
632.84	1384.42
633.038	1338.5
633.236	1351.1
633.434	1324.55
633.632	1341.99
633.83	1305.76
634.028	1405.73
634.227	1352.07
634.425	1464.83
634.623	1363.88
634.821	1364.46
635.019	1376.67
635.216	1378.61
635.414	1427.05
635.612	1369.31
635.81	1372.02
636.008	1428.6
636.206	1380.55
636.404	1378.61
636.602	1365.82
636.8	1350.32
636.997	1368.34
637.195	1383.06
637.393	1374.35
637.591	1411.16
637.789	1395.66
637.986	1381.9
638.184	1395.08
638.382	1421.23
638.58	1401.28
638.777	1419.3
638.975	1338.12
639.173	1359.43
639.37	1387.13
639.568	1378.8
639.765	1380.55
639.963	1361.75
640.161	1364.85
640.358	1361.36
640.556	1343.93
640.753	1317.97
640.951	1293.17
641.148	1292
641.346	1301.11
641.543	1291.03
641.741	1341.6
641.938	1284.06
642.136	1308.08
642.333	1257.32
642.531	1323.58
642.728	1353.23
642.925	1285.8
643.123	1293.75
643.32	1246.09
643.517	1275.73
643.715	1291.23
643.912	1269.92
644.109	1265.85
644.306	1260.42
644.504	1238.14
644.701	1285.22
644.898	1287.74
645.095	1203.27
645.293	1248.6
645.49	1285.03
645.687	1229.42
645.884	1272.05
646.081	1161.42
646.278	1191.25
646.475	1213.34
646.672	1187.19
646.87	1202.49
647.067	1145.72
647.264	1134.87
647.461	1143.21
647.658	1094.57
647.855	1163.36
648.052	1117.05
648.249	1053.11
648.446	1118.99
648.642	1076.36
648.839	1098.26
649.036	1052.53
649.233	1076.36
649.43	1057.96
649.627	1056.21
649.824	1064.16
650.021	1051.56
650.217	1067.45
650.414	1096.71
650.611	1110.46
650.808	1095.35
651.004	1080.24
651.201	1117.63
651.398	1134.87
651.595	1101.36
651.791	1066.09
651.988	1117.63
652.185	1053.89
652.381	1065.13
652.578	1035.09
652.775	1053.89
652.971	1093.61
653.168	1088.76
653.364	1098.06
653.561	1040.52
653.757	1081.21
653.954	1073.26
654.15	1044.98
654.347	1127.51
654.543	1054.08
654.74	1005.26
654.936	1006.03
655.133	1061.83
655.329	1057.76
655.525	1026.38
655.722	1075.39
655.918	965.54
656.115	1000.61
656.311	914.78
656.507	868.28
656.704	860.14
656.9	931.63
657.096	873.51
657.292	879.52
657.489	991.11
657.685	968.06
657.881	937.06
658.077	946.55
658.273	936.28
658.47	1000.41
658.666	971.35
658.862	1003.9
659.058	978.33
659.254	1001.58
659.45	932.8
659.646	976.78
659.842	939.58
660.038	1018.43
660.234	961.08
660.43	974.06
660.626	1032.19
660.822	1018.04
661.018	1036.06
661.214	973.68
661.41	950.43
661.606	1017.66
661.802	1024.05
661.998	997.51
662.194	955.46
662.39	1004.87
662.586	1004.87
662.781	1015.14
662.977	968.06
663.173	996.54
663.369	970
663.564	961.86
663.76	985.3
663.956	959.92
664.152	994.41
664.347	919.62
664.543	907.42
664.739	924.27
664.934	879.9
665.13	904.9
665.326	975.42
665.521	913.03
665.717	885.72
665.912	918.26
666.108	842.51
666.304	885.72
666.499	876.8
666.695	858.59
666.89	874.28
667.086	937.83
667.281	916.13
667.477	939.58
667.672	876.8
667.867	920.78
668.063	898.7
668.258	846
668.454	880.1
668.649	964.38
668.844	865.57
669.04	889.78
669.235	871.77
669.43	845.8
669.626	807.25
669.821	827.2
670.016	794.27
670.211	857.43
670.407	820.04
670.602	880.1
670.797	833.21
670.992	893.47
671.187	829.53
671.382	853.17
671.578	820.62
671.773	859.37
671.968	777.22
672.163	866.92
672.358	863.24
672.553	805.89
672.748	832.43
672.943	904.32
673.138	814.8
673.333	872.73
673.528	813.84
673.723	819.26
673.918	828.56
674.113	797.17
674.308	904.12
674.503	864.79
674.698	867.5
674.892	854.72
675.087	849.29
675.282	858.2
675.477	804.73
675.672	855.49
675.867	797.56
676.061	780.9
676.256	777.8
676.451	822.94
676.646	836.31
676.84	767.72
677.035	753.77
677.23	770.82
677.424	871.18
677.619	851.03
677.814	862.47
678.008	840.77
678.203	749.9
678.397	784.77
678.592	779.74
678.787	844.64
678.981	789.62
679.176	826.04
679.37	827.79
679.565	794.85
679.759	818.1
679.954	881.26
680.148	859.37
680.342	891.53
680.537	838.83
680.731	831.85
680.926	852.2
681.12	864.6
681.314	795.82
681.509	846.38
681.703	828.17
681.897	870.41
682.092	835.34
682.286	824.49
682.48	892.88
682.674	871.38
682.869	834.18
683.063	834.18
683.257	925.24
683.451	807.83
683.645	852.78
683.839	829.53
684.034	837.67
684.228	855.3
684.422	787.68
684.616	818.29
684.81	839.6
685.004	861.11
685.198	830.3
685.392	850.45
685.586	870.02
685.78	865.76
685.974	890.56
686.168	886.1
686.362	937.64
686.556	794.65
686.75	766.56
686.944	793.69
687.138	789.81
687.331	677.63
687.525	676.27
687.719	626.68
687.913	683.64
688.107	685.57
688.301	669.3
688.494	733.43
688.688	673.56
688.882	706.11
689.076	711.73
689.269	751.64
689.463	808.8
689.657	742.54
689.85	743.7
690.044	757.07
690.238	765.98
690.431	784.58
690.625	790.78
690.818	838.83
691.012	862.85
691.205	877.19
691.399	861.3
691.593	932.99
691.786	983.95
691.98	960.31
692.173	1020.18
692.366	980.07
692.56	1002.55
692.753	1067.06
692.947	972.32
693.14	1071.52
693.333	1081.98
693.527	1025.6
693.72	1062.22
693.914	1071.33
694.107	1074.43
694.3	1076.36
694.493	1092.25
694.687	1123.64
694.88	1097.87
695.073	1173.04
695.266	1193.19
695.46	1200.17
695.653	1210.24
695.846	1271.47
696.039	1227.1
696.232	1242.6
696.425	1321.07
696.618	1328.43
696.812	1390.04
697.005	1433.05
697.198	1536.51
697.391	1434.6
697.584	1500.67
697.777	1556.47
697.97	1546.2
698.163	1560.73
698.356	1573.32
698.549	1641.72
698.742	1580.3
698.935	1562.47
699.127	1613.04
699.32	1570.03
699.513	1589.79
699.706	1634.94
699.899	1695.77
700.092	1670.97
700.285	1720.77
700.477	1647.53
700.67	1746.15
700.863	1726.97
701.056	1814.54
701.248	1760.1
701.441	1834.5
701.634	1793.81
701.826	1882.35
702.019	1806.79
702.212	1846.12
702.404	1826.36
702.597	1849.41
702.79	1890.1
702.982	1909.48
703.175	1995.31
703.367	1984.46
703.56	2018.36
703.752	2090.05
703.945	2035.8
704.137	2083.46
704.33	2133.45
704.522	2081.14
704.715	2143.13
704.907	2180.53
705.1	2228.58
705.292	2233.23
705.484	2229.74
705.677	2277.21
705.869	2288.45
706.061	2304.72
706.254	2385.71
706.446	2358.78
706.638	2346.57
706.831	2411.86
707.023	2393.46
707.215	2501.18
707.407	2528.69
707.599	2478.32
707.792	2530.05
707.984	2474.06
708.176	2579.84
708.368	2580.81
708.56	2640.87
708.752	2565.31
708.944	2576.94
709.136	2631.77
709.329	2634.09
709.521	2749.18
709.713	2682.72
709.905	2706.16
710.097	2792.96
710.289	2740.26
710.481	2763.32
710.672	2755.38
710.864	2833.07
711.056	2873.17
711.248	2840.62
711.44	2850.12
711.632	2885.57
711.824	2927.23
712.016	2942.92
712.207	2952.8
712.399	2970.63
712.591	3012.09
712.783	3008.8
712.975	2989.81
713.166	2960.17
713.358	3000.66
713.55	3039.02
713.741	3068.08
713.933	3057.62
714.125	3081.45
714.316	3055.1
714.508	3159.92
714.7	3104.12
714.891	3103.93
715.083	3191.69
715.274	3078.55
715.466	3136.09
715.657	3180.65
715.849	3082.23
716.04	3132.02
716.232	3081.26
716.423	3059.56
716.615	2976.44
716.806	2899.52
716.998	2820.48
717.189	2754.6
717.381	2657.15
717.572	2582.36
717.763	2578.48
717.955	2567.83
718.146	2473.09
718.337	2469.79
718.528	2359.74
718.72	2268.1
718.911	2338.82
719.102	2299.88
719.293	2337.46
719.485	2271.59
719.676	2261.51
719.867	2215.6
720.058	2241.56
720.249	2186.15
720.44	2276.05
720.632	2353.93
720.823	2431.82
721.014	2545.16
721.205	2659.47
721.396	2667.8
721.587	2845.27
721.778	2866.59
721.969	2970.05
722.16	3026.23
722.351	3052
722.542	3152.56
722.733	3164.76
722.924	3119.81
723.115	3136.86
723.305	3094.05
723.496	3064.02
723.687	2906.89
723.878	2948.54
724.069	2939.82
724.26	2931.69
724.45	2850.31
724.641	2856.71
724.832	2884.22
725.023	2849.73
725.213	2822.03
725.404	2817.76
725.595	2814.47
725.785	2813.11
725.976	2882.47
726.167	2848.18
726.357	2844.69
726.548	2915.8
726.739	2910.18
726.929	2996.01
727.12	2962.49
727.31	2986.32
727.501	2953
727.691	2914.44
727.882	2923.16
728.072	2990.97
728.263	3002.21
728.453	3064.02
728.644	3097.15
728.834	3052.58
729.024	3029.72
729.215	3005.31
729.405	3030.5
729.596	3115.36
729.786	3122.91
729.976	3141.9
730.167	3143.06
730.357	3149.65
730.547	3184.33
730.737	3174.06
730.928	3201.19
731.118	3235.87
731.308	3176.97
731.498	3137.06
731.688	3338.75
731.879	3342.62
732.069	3405.4
732.259	3424.77
732.449	3490.45
732.639	3571.05
732.829	3617.75
733.019	3633.24
733.209	3717.91
733.399	3724.69
733.589	3842.49
733.779	3885.5
733.969	3890.35
734.159	3961.65
734.349	3952.35
734.539	4004.08
734.729	4032.95
734.919	4040.5
735.109	4107.54
735.299	4061.43
735.488	4061.62
735.678	4082.16
735.868	4124.39
736.058	4052.32
736.248	4061.23
736.437	3997.88
736.627	4027.91
736.817	4134.86
737.007	4072.28
737.196	4113.93
737.386	4102.89
737.576	4101.34
737.765	4185.42
737.955	4134.86
738.144	4282.1
738.334	4253.82
738.524	4163.92
738.713	4178.26
738.903	4187.75
739.092	4229.41
739.282	4259.44
739.471	4267.38
739.661	4237.54
739.85	4300.32
740.04	4331.32
740.229	4333.06
740.419	4317.56
740.608	4407.27
740.797	4347.4
740.987	4379.95
741.176	4373.75
741.365	4373.36
741.555	4353.4
741.744	4422.96
741.933	4346.43
742.123	4354.18
742.312	4410.37
742.501	4440.98
742.69	4469.46
742.88	4388.08
743.069	4527
743.258	4520.99
743.447	4524.68
743.636	4520.41
743.825	4508.21
744.014	4508.79
744.204	4481.47
744.393	4426.25
744.582	4570.79
744.771	4595.01
744.96	4538.82
745.149	4567.49
745.338	4578.93
745.527	4605.86
745.716	4573.89
745.905	4532.62
746.094	4607.21
746.283	4591.13
746.471	4545.21
746.66	4638.79
746.849	4608.37
747.038	4614.96
747.227	4575.63
747.416	4576.02
747.604	4541.73
747.793	4513.63
747.982	4539.21
748.171	4554.32
748.359	4532.81
748.548	4609.92
748.737	4556.26
748.926	4574.08
749.114	4469.65
749.303	4501.81
749.491	4548.31
749.68	4434.2
749.869	4585.9
750.057	4522.35
750.246	4514.6
750.434	4535.14
750.623	4453.38
750.811	4451.05
751	4508.79
751.188	4483.41
751.377	4471.4
751.565	4395.64
751.754	4417.92
751.942	4379.95
752.131	4505.11
752.319	4394.87
752.507	4387.5
752.696	4451.44
752.884	4447.76
753.072	4413.08
753.261	4436.91
753.449	4399.9
753.637	4382.08
753.825	4486.31
754.014	4416.76
754.202	4390.41
754.39	4439.43
754.578	4453.57
754.766	4371.81
754.955	4336.93
755.143	4414.43
755.331	4389.44
755.519	4429.74
755.707	4358.25
755.895	4339.26
756.083	4334.22
756.271	4322.4
756.459	4332.48
756.647	4312.33
756.835	4260.79
757.023	4268.15
757.211	4284.24
757.399	4254.59
757.587	4277.45
757.775	4200.54
757.963	4260.4
758.151	4263.12
758.339	4172.83
758.526	4210.61
758.714	4195.89
758.902	4059.1
759.09	3939.56
759.278	3719.27
759.465	3386.22
759.653	2942.92
759.841	2695.51
760.028	2320.61
760.216	2004.8
760.404	1842.83
760.591	1553.37
760.779	1284.06
760.967	1109.88
761.154	916.91
761.342	953.53
761.529	902.96
761.717	966.9
761.905	966.12
762.092	1034.71
762.28	990.92
762.467	972.13
762.655	875.25
762.842	912.07
763.029	917.88
763.217	882.62
763.404	913.42
763.592	918.65
763.779	910.32
763.966	997.9
764.154	965.35
764.341	1020.37
764.528	1063.19
764.716	1118.41
764.903	1210.24
765.09	1332.5
765.277	1353.03
765.465	1515.2
765.652	1623.7
765.839	1714.37
766.026	1875.76
766.213	1909.28
766.4	2021.66
766.588	2276.82
766.775	2314.41
766.962	2482.19
767.149	2600.96
767.336	2767.58
767.523	2720.89
767.71	2921.03
767.897	3035.15
768.084	3102.38
768.271	3225.41
768.458	3297.29
768.645	3361.03
768.832	3400.36
769.019	3412.37
769.206	3439.89
769.392	3550.13
769.579	3587.91
769.766	3598.56
769.953	3583.45
770.14	3651.26
770.327	3617.75
770.513	3742.13
770.7	3764.22
770.887	3724.11
771.073	3727.21
771.26	3738.84
771.447	3748.52
771.634	3686.72
771.82	3834.35
772.007	3684.98
772.193	3764.02
772.38	3795.41
772.567	3754.34
772.753	3748.91
772.94	3825.64
773.126	3804.52
773.313	3791.92
773.499	3813.24
773.686	3813.82
773.872	3704.35
774.059	3792.89
774.245	3699.31
774.432	3760.92
774.618	3674.51
774.804	3730.7
774.991	3673.74
775.177	3735.35
775.363	3672.96
775.55	3724.69
775.736	3645.84
775.922	3723.72
776.109	3683.62
776.295	3695.44
776.481	3705.51
776.667	3743.68
776.853	3673.16
777.04	3631.69
777.226	3686.53
777.412	3731.67
777.598	3592.95
777.784	3628.59
777.97	3592.95
778.156	3652.43
778.342	3630.73
778.528	3596.43
778.715	3563.69
778.901	3543.35
779.087	3593.72
779.272	3522.42
779.458	3596.05
779.644	3564.46
779.83	3537.15
780.016	3626.27
780.202	3576.28
780.388	3551.1
780.574	3494.52
780.76	3532.5
780.946	3534.63
781.131	3542.76
781.317	3466.82
781.503	3481.35
781.689	3465.07
781.874	3583.84
782.06	3477.86
782.246	3451.32
782.432	3445.12
782.617	3444.54
782.803	3527.46
782.989	3393.19
783.174	3403.85
783.36	3373.82
783.545	3440.66
783.731	3398.23
783.916	3299.22
784.102	3384.09
784.288	3328.48
784.473	3394.94
784.659	3326.74
784.844	3374.4
785.029	3331.58
785.215	3329.26
785.4	3254.86
785.586	3339.72
785.771	3261.06
785.956	3304.65
786.142	3276.75
786.327	3264.16
786.512	3255.83
786.698	3249.63
786.883	3157.6
787.068	3224.44
787.254	3220.95
787.439	3206.81
787.624	3166.9
787.809	3125.43
787.994	3129.7
788.18	3169.41
788.365	3095.4
788.55	3137.25
788.735	3134.93
788.92	3142.1
789.105	3080.48
789.29	3087.46
789.475	3024.68
789.66	3045.42
789.845	3021.39
790.03	2980.51
790.215	3041.35
790.4	3029.92
790.585	3038.44
790.77	3008.22
790.955	2947.38
791.14	3010.15
791.325	3076.03
791.51	2912.12
791.695	2989.04
791.879	3016.16
792.064	2946.22
792.249	3059.95
792.434	2981.29
792.618	3003.37
792.803	3011.32
792.988	2964.62
793.173	2987.49
793.357	3022.36
793.542	2934.59
793.727	3002.21
793.911	3045.61
794.096	3004.73
794.281	3084.36
794.465	3083.39
794.65	3036.7
794.834	3115.36
795.019	3053.17
795.203	3096.18
795.388	3088.43
795.572	3104.7
795.757	3080.87
795.941	3046.77
796.126	2976.44
796.31	2958.23
796.494	2971.79
796.679	2988.65
796.863	2966.95
797.048	3055.1
797.232	3003.57
797.416	3009.96
797.601	3057.23
797.785	3073.7
797.969	3132.21
798.153	3042.32
798.338	3022.94
798.522	3073.9
798.706	3127.76
798.89	3136.48
799.074	3222.5
799.258	3173.48
799.443	3096.76
799.627	3115.16
799.811	3148.3
799.995	3087.46
800.179	3055.49
800.363	3037.47
800.547	3116.91
800.731	3106.06
800.915	2965.01
801.099	3000.47
801.283	3025.46
801.467	3012.48
801.651	3002.6
801.835	3091.14
802.019	3069.63
802.202	3047.55
802.386	2987.68
802.57	2971.6
802.754	2971.21
802.938	2967.53
803.121	2958.04
803.305	3017.9
803.489	3005.31
803.673	3077.19
803.856	2991.17
804.04	2995.43
804.224	3050.45
804.407	3029.14
804.591	2969.08
804.775	2993.69
804.958	3029.14
805.142	3087.85
805.326	3046.58
805.509	3041.73
805.693	3071.57
805.876	3089.4
806.06	3073.51
806.243	3074.48
806.427	3136.48
806.61	3106.64
806.794	3072.93
806.977	3122.14
807.16	3030.69
807.344	3089.78
807.527	3043.67
807.71	3060.33
807.894	3056.27
808.077	3060.72
808.26	3029.92
808.444	2967.53
808.627	3064.4
808.81	2958.42
808.993	2956.68
809.177	2918.51
809.36	2975.09
809.543	2974.7
809.726	2884.22
809.909	2848.76
810.092	2842.37
810.276	2844.89
810.459	2835.98
810.642	2877.82
810.825	2771.07
811.008	2802.84
811.191	2721.47
811.374	2708.88
811.557	2726.7
811.74	2767.78
811.923	2627.89
812.106	2678.46
812.289	2615.88
812.472	2612.2
812.654	2615.88
812.837	2584.1
813.02	2500.99
813.203	2453.91
813.386	2313.05
813.569	2304.72
813.751	2275.66
813.934	2315.38
814.117	2252.02
814.3	2235.75
814.482	2156.89
814.665	2150.11
814.848	2106.71
815.03	2062.92
815.213	2024.17
815.396	2008.29
815.578	1977.67
815.761	1949.78
815.943	1992.98
816.126	1868.4
816.309	1851.93
816.491	1802.53
816.674	1719.6
816.856	1757.38
817.039	1808.53
817.221	1883.71
817.403	1811.44
817.586	1814.54
817.768	1818.22
817.951	1726.77
818.133	1741.11
818.315	1758.93
818.498	1844.96
818.68	1876.73
818.862	1862.78
819.045	1841.66
819.227	1863.95
819.409	1854.26
819.591	1846.12
819.774	1850
819.956	1824.61
820.138	1881.38
820.32	1871.89
820.502	1988.14
820.684	2041.81
820.866	2053.82
821.048	2113.69
821.231	2128.8
821.413	2148.95
821.595	2087.72
821.777	2147.2
821.959	2118.34
822.141	2199.32
822.323	2033.67
822.505	1946.48
822.686	1911.61
822.868	1789.16
823.05	1673.88
823.232	1645.79
823.414	1553.95
823.596	1616.92
823.778	1615.17
823.96	1687.83
824.141	1662.45
824.323	1692.09
824.505	1793.42
824.687	1815.9
824.868	1907.15
825.05	2018.17
825.232	1998.6
825.413	2114.85
825.595	2060.02
825.777	2012.16
825.958	2064.28
826.14	2019.72
826.321	2061.57
826.503	2051.69
826.685	2052.85
826.866	2096.83
827.048	2121.05
827.229	2016.23
827.411	1984.84
827.592	1901.92
827.773	1917.03
827.955	1833.91
828.136	1869.95
828.318	1811.44
828.499	1855.23
828.68	1824.81
828.862	1812.41
829.043	1837.21
829.224	1777.73
829.406	1784.51
829.587	1816.28
829.768	1853.48
829.949	1817.25
830.131	1850
830.312	1901.34
830.493	1821.9
830.674	1868.01
830.855	1844.96
831.036	1841.47
831.218	1902.11
831.399	1917.81
831.58	1854.84
831.761	1861.23
831.942	1880.03
832.123	1819.96
832.304	1812.99
832.485	1840.7
832.666	1821.9
832.847	1863.75
833.028	1811.44
833.209	1842.44
833.389	1851.55
833.57	1829.46
833.751	1806.79
833.932	1838.18
834.113	1828.68
834.294	1844.38
834.475	1865.11
834.655	1901.73
834.836	1906.76
835.017	1896.3
835.198	1841.47
835.378	1919.36
835.559	1956.75
835.74	1896.69
835.92	1876.93
836.101	1855.81
836.281	1908.7
836.462	1896.3
836.643	1941.83
836.823	1933.31
837.004	1937.76
837.184	1995.31
837.365	1991.62
837.545	1966.05
837.726	1929.04
837.906	1993.17
838.087	1928.66
838.267	1925.56
838.448	1919.55
838.628	1940.86
838.808	1962.37
838.989	1983.87
839.169	1910.64
839.349	1931.18
839.53	1968.57
839.71	2017.59
839.89	1929.24
840.07	1998.21
840.251	1909.28
840.431	2010.03
840.611	1953.84
840.791	1933.5
840.971	1933.69
841.151	1932.14
841.332	1907.54
841.512	1958.49
841.692	1917.81
841.872	1967.79
842.052	1915.29
842.232	1951.91
842.412	1870.53
842.592	1902.89
842.772	1937.18
842.952	1954.62
843.132	1905.02
843.312	1926.91
843.492	1881.19
843.672	1960.43
843.851	1869.37
844.031	1909.09
844.211	1897.46
844.391	1879.64
844.571	1909.09
844.751	1914.13
844.93	1933.31
845.11	1863.95
845.29	1906.96
845.47	1935.63
845.649	1878.67
845.829	1942.8
846.009	1879.64
846.188	1917.42
846.368	1934.47
846.547	1913.16
846.727	1963.92
846.907	1867.05
847.086	1898.63
847.266	1902.5
847.445	1896.69
847.625	1842.25
847.804	1831.2
847.984	1874.8
848.163	1849.41
848.343	1833.14
848.522	1893.78
848.701	1867.05
848.881	1811.05
849.06	1838.95
849.239	1835.08
849.419	1874.8
849.598	1733.36
849.777	1779.67
849.957	1729.68
850.136	1666.71
850.315	1699.84
850.494	1667.68
850.674	1698.1
850.853	1751.96
851.032	1696.74
851.211	1738.98
851.39	1740.14
851.569	1657.99
851.748	1643.85
851.927	1758.35
852.107	1700.23
852.286	1689.57
852.465	1686.47
852.644	1749.05
852.823	1755.83
853.002	1732
853.181	1748.28
853.359	1742.85
853.538	1641.33
853.717	1704.68
853.896	1574.68
854.075	1539.61
854.254	1506.68
854.433	1433.05
854.611	1493.11
854.79	1389.85
854.969	1463.28
855.148	1499.51
855.327	1492.14
855.505	1540.77
855.684	1537.48
855.863	1519.85
856.041	1531.86
856.22	1567.51
856.399	1527.79
856.577	1655.47
856.756	1634.55
856.934	1716.12
857.113	1733.36
857.291	1640.17
857.47	1593.86
857.648	1651.79
857.827	1649.27
858.005	1675.04
858.184	1594.64
858.362	1696.74
858.541	1627.19
858.719	1631.64
858.898	1633.77
859.076	1636.68
859.254	1656.64
859.433	1611.69
859.611	1592.31
859.789	1564.61
859.967	1610.52
860.146	1685.89
860.324	1581.27
860.502	1583.4
860.68	1552.79
860.859	1588.05
861.037	1563.25
861.215	1582.82
861.393	1563.83
861.571	1573.91
861.749	1534.38
861.927	1583.59
862.105	1601.81
862.283	1590.18
862.461	1563.44
862.639	1531.28
862.817	1535.54
862.995	1531.67
863.173	1532.83
863.351	1543.49
863.529	1570.81
863.707	1578.56
863.885	1544.26
864.063	1501.44
864.241	1503.19
864.418	1554.72
864.596	1463.47
864.774	1454.17
864.952	1481.49
865.129	1487.88
865.307	1483.62
865.485	1442.16
865.663	1519.08
865.84	1385.39
866.018	1431.89
866.196	1267.2
866.373	1317.58
866.551	1310.22
866.728	1238.53
866.906	1289.68
867.084	1277.67
867.261	1299.17
867.439	1306.73
867.616	1383.06
867.794	1363.69
867.971	1391.59
868.149	1389.07
868.326	1429.95
868.503	1416.39
868.681	1421.23
868.858	1374.54
869.035	1333.85
869.213	1422.59
869.39	1370.86
869.567	1421.23
869.745	1382.1
869.922	1430.15
870.099	1405.54
870.276	1463.66
870.454	1387.33
870.631	1390.04
870.808	1364.85
870.985	1410.19
871.162	1448.74
871.339	1429.95
871.517	1368.34
871.694	1341.8
871.871	1345.09
872.048	1345.67
872.225	1343.15
872.402	1369.89
872.579	1319.13
872.756	1372.6
872.933	1312.93
873.11	1345.28
873.287	1373.57
873.463	1287.93
873.64	1323.97
873.817	1321.07
873.994	1340.63
874.171	1303.43
874.348	1309.63
874.524	1271.85
874.701	1323
874.878	1228.84
875.055	1304.98
875.231	1286.97
875.408	1295.49
875.585	1221.87
875.762	1279.99
875.938	1251.9
876.115	1252.67
876.291	1250.93
876.468	1279.02
876.645	1234.27
876.821	1244.34
876.998	1235.24
877.174	1265.85
877.351	1215.86
877.527	1229.23
877.704	1247.25
877.88	1250.54
878.057	1228.07
878.233	1254.22
878.409	1189.9
878.586	1232.91
878.762	1245.31
878.938	1227.87
879.115	1158.71
879.291	1226.13
879.467	1139.52
879.644	1206.37
879.82	1201.91
879.996	1203.07
880.172	1155.61
880.349	1161.81
880.525	1202.69
880.701	1146.31
880.877	1164.91
881.053	1164.71
881.229	1176.34
881.405	1178.66
881.581	1143.98
881.757	1154.64
881.933	1194.74
882.109	1218.38
882.285	1164.32
882.461	1120.15
882.637	1159.48
882.813	1152.12
882.989	1164.71
883.165	1202.69
883.341	1171.88
883.517	1193.58
883.693	1194.16
883.869	1197.84
884.044	1110.66
884.22	1182.15
884.396	1224.58
884.572	1197.45
884.747	1168.01
884.923	1195.13
885.099	1215.86
885.275	1194.55
885.45	1164.32
885.626	1165.29
885.801	1148.44
885.977	1138.56
886.153	1075.39
886.328	1175.56
886.504	1117.24
886.679	1208.5
886.855	1105.23
887.03	1189.51
887.206	1166.07
887.381	1162.39
887.557	1168.78
887.732	1205.98
887.908	1165.29
888.083	1180.4
888.258	1122.28
888.434	1147.47
888.609	1136.04
888.784	1237.37
888.96	1096.12
889.135	1148.82
889.31	1138.75
889.485	1137.97
889.661	1145.53
889.836	1189.12
890.011	1183.5
890.186	1131.97
890.361	1116.08
890.537	1176.72
890.712	1162
890.887	1148.82
891.062	1119.76
891.237	1206.95
891.412	1132.55
891.587	1149.41
891.762	1161.22
891.937	1191.25
892.112	1061.83
892.287	1133.13
892.462	1113.17
892.637	1067.26
892.812	1057.76
892.987	1082.76
893.161	1011.65
893.336	1067.64
893.511	1039.55
893.686	1056.02
893.861	1033.35
894.035	1014.56
894.21	1053.11
894.385	955.08
894.56	997.7
894.734	931.05
894.909	945.2
895.084	989.76
895.258	913.42
895.433	874.09
895.608	901.8
895.782	851.23
895.957	871.96
896.131	854.72
896.306	803.57
896.48	809.19
896.655	790.39
896.829	736.53
897.004	736.14
897.178	778.38
897.353	754.74
897.527	781.87
897.701	759
897.876	724.13
898.05	808.99
898.224	776.64
898.399	765.98
898.573	753.77
898.747	639.27
898.921	691.97
899.096	597.03
899.27	590.06
899.444	585.21
899.618	647.79
899.792	627.64
899.967	668.33
900.141	703.01
900.315	616.99
900.489	616.21
900.663	659.22
900.837	627.26
901.011	608.46
901.185	692.16
901.359	624.35
901.533	644.11
901.707	666.97
901.881	617.76
902.055	626.09
902.229	623.96
902.403	681.51
902.576	644.31
902.75	653.03
902.924	729.94
903.098	716.19
903.272	744.67
903.446	835.15
903.619	776.64
903.793	809.38
903.967	813.25
904.14	871.38
904.314	836.89
904.488	801.82
904.661	843.09
904.835	850.26
905.009	870.02
905.182	887.65
905.356	854.91
905.529	825.07
905.703	818.1
905.876	804.73
906.05	791.75
906.223	744.28
906.397	691.77
906.57	682.47
906.744	625.13
906.917	652.44
907.09	672.98
907.264	658.26
907.437	620.09
907.61	556.15
907.784	617.18
907.957	632.68
908.13	568.55
908.304	616.41
908.477	556.15
908.65	604.78
908.823	547.63
908.996	642.18
909.17	547.63
909.343	567.39
909.516	561.77
909.689	566.42
909.862	541.81
910.035	576.11
910.208	538.52
910.381	541.43
910.554	629.58
910.727	556.73
910.9	529.61
911.073	546.27
911.246	615.24
911.419	623.77
911.592	611.56
911.765	576.49
911.938	562.74
912.11	580.95
912.283	566.81
912.456	613.69
912.629	553.63
912.802	551.5
912.974	507.52
913.147	456.95
913.32	404.45
913.493	452.11
913.665	480.59
913.838	482.53
914.01	472.45
914.183	489.11
914.356	489.89
914.528	529.41
914.701	557.12
914.873	534.84
915.046	469.35
915.218	453.47
915.391	369.57
915.563	429.83
915.736	462.96
915.908	486.01
916.081	479.43
916.253	496.67
916.425	460.63
916.598	508.68
916.77	495.7
916.942	468.38
917.115	406.38
917.287	457.34
917.459	436.03
917.632	414.91
917.804	354.85
917.976	469.74
918.148	458.89
918.32	446.49
918.493	483.5
918.665	520.11
918.837	486.01
919.009	542.4
919.181	543.95
919.353	529.8
919.525	513.72
919.697	519.92
919.869	525.54
920.041	560.8
920.213	626.48
920.385	578.82
920.557	525.73
920.729	555.38
920.901	545.69
921.073	526.7
921.244	533.87
921.416	563.9
921.588	520.31
921.76	535.23
921.932	571.07
922.103	519.53
922.275	543.17
922.447	520.5
922.619	492.6
922.79	490.66
922.962	488.53
923.134	530.58
923.305	465.09
923.477	446.49
923.648	427.12
923.82	444.75
923.991	389.92
924.163	414.91
924.335	438.55
924.506	427.31
924.677	501.32
924.849	421.88
925.02	455.98
925.192	492.6
925.363	431.57
925.535	451.33
925.706	418.78
925.877	476.33
926.049	428.47
926.22	449.78
926.391	465.67
926.562	461.8
926.734	437.38
926.905	444.17
927.076	349.62
927.247	404.83
927.419	367.44
927.59	349.42
927.761	343.8
927.932	347.87
928.103	375.58
928.274	305.25
928.445	302.34
928.616	308.93
928.787	310.09
928.958	347.1
929.129	300.02
929.3	283.36
929.471	236.27
929.642	238.99
929.813	172.92
929.984	267.86
930.155	160.33
930.326	229.11
930.496	174.47
930.667	147.15
930.838	193.26
931.009	155.09
931.18	165.94
931.35	142.89
931.521	154.13
931.692	111.5
931.863	77.4
932.033	141.34
932.204	132.43
932.374	120.22
932.545	76.63
932.716	144.05
932.886	131.07
933.057	50.86
933.227	72.95
933.398	135.14
933.568	66.75
933.739	19.28
933.909	44.66
934.08	91.16
934.25	7.85
934.421	46.6
934.591	54.54
934.761	30.71
934.932	34.78
935.102	49.7
935.272	56.86
935.443	40.59
935.613	47.76
935.783	60.93
935.953	20.25
936.123	164.59
936.294	26.45
936.464	45.43
936.634	31.48
936.804	8.82
936.974	-21.41
937.144	64.61
937.314	31.87
937.484	39.04
937.655	10.37
937.825	67.13
937.995	-17.92
938.165	74.11
938.334	25.48
938.504	86.9
938.674	49.11
938.844	63.84
939.014	128.94
939.184	116.35
939.354	148.51
939.524	151.41
939.694	97.94
939.863	94.84
940.033	137.27
940.203	137.66
940.373	114.21
940.542	122.74
940.712	102.98
940.882	122.35
941.051	134.36
941.221	101.23
941.391	129.52
941.56	96.58
941.73	81.86
941.899	181.25
942.069	96.39
942.238	126.61
942.408	80.89
942.577	124.48
942.747	56.48
942.916	55.7
943.086	54.54
943.255	103.95
943.425	84.76
943.594	58.41
943.763	37.88
943.933	3.78
944.102	34.58
944.271	62.29
944.441	82.05
944.61	72.17
944.779	58.61
944.948	136.3
945.117	39.43
945.287	59.58
945.456	11.72
945.625	39.82
945.794	61.13
945.963	33.23
946.132	84.18
946.301	79.34
946.47	86.51
946.639	19.86
946.808	47.56
946.977	96.78
947.146	104.33
947.315	69.07
947.484	118.48
947.653	78.76
947.822	66.16
947.991	36.13
948.16	145.41
948.329	125.65
948.498	80.11
948.666	94.65
948.835	99.1
949.004	36.72
949.173	65
949.341	71.4
949.51	87.67
949.679	92.9
949.847	84.38
950.016	150.06
950.185	101.04
950.353	84.18
950.522	59.77
950.69	137.08
950.859	68.3
951.028	114.6
951.196	100.46
951.365	62.48
951.533	56.09
951.701	107.24
951.87	91.55
952.038	51.44
952.207	67.71
952.375	127.97
952.543	49.11
952.712	66.75
952.88	45.63
953.048	128.55
953.217	77.4
953.385	60.16
953.553	113.05
953.721	41.56
953.89	72.95
954.058	50.66
954.226	25.28
954.394	84.96
954.562	26.45
954.73	61.13
954.898	76.63
955.067	118.67
955.235	41.56
955.403	99.88
955.571	145.41
955.739	107.43
955.907	33.03
956.075	65.97
956.243	38.07
956.41	80.5
956.578	29.35
956.746	25.67
956.914	53.76
957.082	127.39
957.25	78.37
957.418	51.05
957.585	103.17
957.753	107.82
957.921	50.47
958.089	95.42
958.256	93.29
958.424	102.2
958.592	97.94
958.759	82.25
958.927	72.75
959.095	71.01
959.262	79.92
959.43	83.02
959.597	28.97
959.765	84.57
959.932	43.88
960.1	89.41
960.267	85.93
960.435	85.73
960.602	90.77
960.77	45.05
960.937	48.92
961.104	91.55
961.272	53.76
961.439	51.25
961.606	109.56
961.774	91.16
961.941	61.13
962.108	92.9
962.275	90.96
962.443	138.63
962.61	93.87
962.777	162.65
962.944	126.03
963.111	108.01
963.278	97.16
963.446	106.27
963.613	95.03
963.78	137.27
963.947	116.54
964.114	99.3
964.281	136.3
964.448	113.83
964.615	88.45
964.782	108.21
964.949	123.9
965.116	110.53
965.282	154.13
965.449	96.39
965.616	54.54
965.783	105.11
965.95	97.16
966.117	46.21
966.283	97.94
966.45	117.51
966.617	121.19
966.784	120.41
966.95	127.97
967.117	145.79
967.284	74.3
967.45	111.5
967.617	124.29
967.784	150.06
967.95	158.78
968.117	111.7
968.283	161.68
968.45	217.68
968.616	136.11
968.783	148.51
968.949	112.66
969.116	168.27
969.282	119.25
969.449	156.45
969.615	137.27
969.781	120.8
969.948	121.58
970.114	62.29
970.28	159.94
970.447	130.68
970.613	173.69
970.779	120.03
970.945	141.53
971.112	137.46
971.278	126.61
971.444	120.03
971.61	176.79
971.776	126.23
971.942	139.21
972.108	144.24
972.275	124.87
972.441	99.68
972.607	177.96
972.773	89.22
972.939	158
973.105	127.97
973.271	84.57
973.437	85.73
973.602	81.86
973.768	137.85
973.934	117.9
974.1	119.25
974.266	47.56
974.432	116.73
974.598	112.08
974.763	143.66
974.929	83.02
975.095	175.83
975.261	96.78
975.426	67.91
975.592	109.56
975.758	173.31
975.923	78.56
976.089	99.68
976.255	129.13
976.42	127.58
976.586	104.14
976.751	115.57
976.917	180.67
977.082	130.1
977.248	94.26
977.413	62.68
977.579	98.13
977.744	121.19
977.91	88.45
978.075	93.48
978.24	141.73
978.406	111.7
978.571	103.17
978.736	90.58
978.902	121.38
979.067	75.66
979.232	79.15
979.397	118.09
979.563	138.63
979.728	100.26
979.893	92.32
980.058	92.13
980.223	140.18
980.388	99.3
980.554	112.47
980.719	90.38
980.884	105.88
981.049	148.31
981.214	112.66
981.379	123.9
981.544	92.13
981.709	97.36
981.874	130.3
982.039	108.98
982.204	103.56
982.368	98.13
982.533	98.91
982.698	103.17
982.863	117.31
983.028	102.98
983.193	124.68
983.357	98.71
983.522	90.96
983.687	72.56
983.852	95.03
984.016	91.16
984.181	124.29
984.346	104.53
984.51	109.76
984.675	106.46
984.839	130.88
985.004	118.86
985.168	128.75
985.333	114.99
985.498	92.9
985.662	132.43
985.827	122.93
985.991	85.35
986.155	80.7
986.32	125.26
986.484	137.85
986.649	122.74
986.813	55.31
986.977	105.88
987.142	136.88
987.306	92.51
987.47	86.7
987.634	114.99
987.799	116.93
987.963	117.31
988.127	120.22
988.291	177.57
988.455	129.52
988.62	105.69
988.784	115.38
988.948	158.19
989.112	105.11
989.276	116.54
989.44	94.84
989.604	81.28
989.768	95.23
989.932	159.74
990.096	66.94
990.26	95.23
990.424	88.64
990.588	106.85
990.752	175.05
990.915	126.42
991.079	77.01
991.243	109.56
991.407	126.81
991.571	108.98
991.734	109.18
991.898	123.9
992.062	187.84
992.226	91.35
992.389	107.24
992.553	37.3
992.717	71.98
992.88	119.45
993.044	85.54
993.207	113.05
993.371	105.11
993.535	111.89
993.698	84.57
993.862	120.61
994.025	142.5
994.189	85.35
994.352	99.68
994.515	101.04
994.679	119.83
994.842	84.18
995.006	128.36
995.169	100.65
995.332	71.78
995.496	139.01
995.659	53.76
995.822	65.58
995.985	83.8
996.149	135.53
996.312	95.42
996.475	162.65
996.638	58.03
996.801	131.07
996.964	158.58
997.128	74.88
997.291	85.93
997.454	93.87
997.617	59
997.78	115.96
997.943	74.5
998.106	89.61
998.269	88.06
998.432	96.58
998.595	88.25
998.758	54.93
998.92	67.52
999.083	37.1
999.246	42.72
999.409	51.63
999.572	37.49
999.735	55.51
999.897	92.71
1000.06	57.25
1000.223	45.82
1000.386	96.97
1000.548	96.78
1000.711	106.08
1000.874	87.86
1001.036	44.66
1001.199	79.15
1001.361	66.55
1001.524	66.75
1001.687	88.83
1001.849	79.92
1002.012	80.7
1002.174	105.3
1002.337	70.81
1002.499	33.03
1002.661	100.46
1002.824	38.65
1002.986	53.18
1003.149	84.18
1003.311	48.92
1003.473	121.38
1003.636	27.22
1003.798	96.2
1003.96	109.76
1004.123	90.77
1004.285	63.84
1004.447	60.74
1004.609	47.18
1004.771	100.26
1004.933	54.35
1005.096	43.11
1005.258	14.05
1005.42	30.52
1005.582	100.85
1005.744	71.59
1005.906	32.45
1006.068	56.28
1006.23	15.4
1006.392	25.67
1006.554	26.45
1006.716	117.12
1006.878	67.71
1007.04	20.63
1007.202	43.88
1007.363	49.7
1007.525	60.93
1007.687	61.32
1007.849	104.53
1008.011	29.35
1008.172	-2.03
1008.334	48.92
1008.496	76.24
1008.658	20.05
1008.819	35.94
1008.981	18.89
1009.143	18.7
1009.304	35.55
1009.466	83.41
1009.627	103.17
1009.789	151.22
1009.95	56.86
1010.112	40.01
1010.273	63.45
1010.435	22.38
1010.596	49.31
1010.758	24.51
1010.919	34.78
1011.081	15.98
1011.242	21.02
1011.403	78.56
1011.565	44.08
1011.726	75.85
1011.887	-5.13
1012.049	34.58
1012.21	78.37
1012.371	100.65
1012.532	-11.92
1012.693	61.9
1012.855	22.96
1013.016	43.3
1013.177	79.15
1013.338	55.7
1013.499	97.55
1013.66	45.05
1013.821	68.49
1013.982	63.65
1014.143	41.56
1014.304	44.46
1014.465	45.05
1014.626	64.03
1014.787	24.51
1014.948	98.91
1015.109	-27.22
1015.27	70.81
1015.431	10.95
1015.592	39.82
1015.752	103.75
1015.913	47.37
1016.074	71.01
1016.235	17.73
1016.395	46.79
1016.556	29.35
1016.717	26.64
1016.877	91.35
1017.038	29.16
1017.199	47.37
1017.359	43.88
1017.52	56.09
1017.681	4.36
1017.841	15.21
1018.002	43.88
1018.162	18.7
1018.323	118.09
1018.483	26.06
1018.644	25.87
1018.804	8.43
1018.964	-0.29
1019.125	15.98
1019.285	45.43
1019.446	37.3
1019.606	10.75
1019.766	-16.95
1019.926	54.15
1020.087	47.56
1020.247	-18.12
1020.407	40.01
1020.567	78.95
1020.728	51.05
1020.888	17.34
1021.048	9.59
1021.208	15.6
1021.368	4.75
1021.528	61.9
1021.688	63.65
1021.848	44.46
1022.008	49.7
1022.168	33.23
1022.328	36.13
1022.488	53.57
1022.648	25.87
1022.808	40.98
1022.968	41.95
1023.128	32.84
1023.288	-6.1
1023.448	36.33
1023.608	55.9
1023.767	38.46
1023.927	-5.91
1024.087	-8.04
1024.247	-14.82
1024.406	21.22
1024.566	-8.04
1024.726	-11.33
1024.885	34
1025.045	57.06
1025.205	9.78
1025.364	31.29
1025.524	26.64
1025.683	47.95
1025.843	33.62
1026.003	31.1
1026.162	102.78
1026.321	31.68
1026.481	31.87
1026.64	37.3
1026.8	47.95
1026.959	24.32
1027.119	29.74
1027.278	-9.59
1027.437	26.83
1027.597	32.26
1027.756	25.09
1027.915	60.55
1028.074	43.5
1028.234	-3.39
1028.393	26.45
1028.552	3.2
1028.711	-55.51
1028.87	35.36
1029.03	-6.3
1029.189	20.83
1029.348	-22.38
1029.507	16.95
1029.666	9.59
1029.825	10.56
1029.984	2.42
1030.143	54.35
1030.302	21.02
1030.461	-17.92
1030.62	31.68
1030.779	34
1030.938	12.3
1031.097	-19.47
1031.255	54.15
1031.414	60.93
1031.573	37.68
1031.732	-29.55
1031.891	8.62
1032.049	61.71
1032.208	22.38
1032.367	10.17
1032.525	7.27
1032.684	15.6
1032.843	13.27
1033.001	-27.42
1033.16	123.71
1033.319	40.4
1033.477	49.11
1033.636	-0.87
1033.794	-11.53
1033.953	54.15
1034.111	68.49
1034.27	-7.85
1034.428	24.51
1034.587	-11.92
1034.745	33.03
1034.903	12.69
1035.062	59.96
1035.22	-46.4
1035.378	28.38
1035.537	-6.49
1035.695	52.8
1035.853	-5.33
1036.011	16.95
1036.17	16.57
1036.328	-25.09
1036.486	11.53
1036.644	28
1036.802	-24.32
1036.96	-4.36
1037.119	13.47
1037.277	-5.33
1037.435	-5.72
1037.593	-12.3
1037.751	-20.63
1037.909	21.22
1038.067	21.22
