Data from gum_young_FLMT105791__12__17-38-11-045.txt Node

Date: Mon Mar 20 17:38:11 GMT 2023
User: antho
Spectrometer: FLMT10579
Trigger mode: 0
Integration Time (sec): 1.000000E-1
Scans to average: 10
Electric dark correction enabled: true
Nonlinearity correction enabled: false
Boxcar width: 0
XAxis mode: Wavelengths
Number of Pixels in Spectrum: 3648
>>>>>Begin Spectral Data<<<<<
345.248	-136.38
345.464	-136.38
345.681	-136.38
345.898	-159.63
346.114	-143.94
346.331	-44.35
346.548	25.01
346.764	-4.05
346.981	18.42
347.197	-38.73
347.414	29.47
347.631	-53.65
347.847	61.24
348.064	9.32
348.28	46.13
348.497	-31.76
348.713	-17.03
348.93	25.98
349.146	16.87
349.363	-5.02
349.579	-0.57
349.796	-18.2
350.012	-18.58
350.229	32.18
350.445	25.01
350.661	-26.91
350.878	0.79
351.094	34.31
351.311	7.96
351.527	27.53
351.743	-28.27
351.96	50.58
352.176	30.82
352.392	21.72
352.609	51.17
352.825	26.37
353.041	10.28
353.257	0.4
353.474	10.09
353.69	-4.25
353.906	19.97
354.122	-18.97
354.339	57.95
354.555	-7.54
354.771	1.95
354.987	48.65
355.203	51.75
355.42	-3.28
355.636	6.99
355.852	-13.16
356.068	-5.8
356.284	-33.7
356.5	76.93
356.716	15.13
356.932	-5.22
357.148	28.3
357.364	21.13
357.58	46.71
357.796	68.02
358.012	65.89
358.228	27.14
358.444	-48.61
358.66	40.12
358.876	19
359.092	-7.15
359.308	28.3
359.524	31.4
359.74	19.78
359.956	1.95
360.172	23.85
360.388	38.57
360.604	6.02
360.819	81.58
361.035	39.54
361.251	34.7
361.467	4.67
361.683	38.57
361.898	31.98
362.114	33.15
362.33	28.69
362.546	40.12
362.762	33.15
362.977	12.61
363.193	-23.62
363.409	51.36
363.624	12.42
363.84	0.79
364.056	-16.84
364.271	30.63
364.487	13.77
364.703	12.03
364.918	-36.6
365.134	-9.86
365.35	10.67
365.565	109.68
365.781	4.47
365.996	39.15
366.212	56.01
366.427	10.67
366.643	9.7
366.858	8.35
367.074	14.93
367.289	88.36
367.505	62.02
367.72	-2.89
367.936	12.22
368.151	24.82
368.367	37.41
368.582	23.27
368.798	8.15
369.013	86.04
369.228	24.23
369.444	-1.73
369.659	56.4
369.874	3.12
370.09	67.25
370.305	-36.99
370.52	-6.18
370.736	52.52
370.951	21.91
371.166	34.5
371.381	79.07
371.597	36.83
371.812	0.4
372.027	-35.25
372.242	17.65
372.458	103.48
372.673	-5.22
372.888	14.74
373.103	37.6
373.318	74.61
373.533	44.19
373.749	40.12
373.964	-21.88
374.179	63.37
374.394	6.8
374.609	85.07
374.824	-0.76
375.039	37.6
375.254	2.73
375.469	44.19
375.684	37.6
375.899	70.54
376.114	18.81
376.329	25.01
376.544	50.39
376.759	48.84
376.974	1.76
377.189	26.37
377.404	16.48
377.619	64.92
377.834	-13.93
378.049	8.15
378.264	8.54
378.478	29.66
378.693	-5.8
378.908	31.6
379.123	15.52
379.338	65.12
379.553	29.27
379.767	25.4
379.982	30.05
380.197	75.97
380.412	21.72
380.626	27.53
380.841	79.65
381.056	42.45
381.271	84.49
381.485	9.9
381.7	5.83
381.915	44.58
382.129	-3.28
382.344	46.9
382.559	21.72
382.773	47.48
382.988	-44.35
383.202	33.53
383.417	-4.63
383.632	99.8
383.846	25.01
384.061	51.55
384.275	6.99
384.49	52.52
384.704	44.38
384.919	27.72
385.133	40.51
385.348	53.68
385.562	-20.71
385.777	47.48
385.991	53.1
386.206	32.95
386.42	4.47
386.634	74.8
386.849	63.95
387.063	24.82
387.277	4.67
387.492	15.9
387.706	-9.09
387.92	2.92
388.135	38.57
388.349	53.1
388.563	31.4
388.778	31.02
388.992	80.03
389.206	53.49
389.42	112.58
389.635	23.85
389.849	56.98
390.063	67.05
390.277	46.52
390.491	103.09
390.706	48.65
390.92	93.98
391.134	30.63
391.348	79.84
391.562	-10.83
391.776	40.51
391.99	7.38
392.205	60.85
392.419	11.06
392.633	35.08
392.847	87.4
393.061	19.2
393.275	111.03
393.489	9.51
393.703	23.46
393.917	61.63
394.131	8.35
394.345	64.34
394.559	76.74
394.773	28.11
394.986	51.36
395.2	62.79
395.414	73.45
395.628	23.46
395.842	37.6
396.056	28.5
396.27	-9.09
396.484	47.87
396.697	40.7
396.911	77.52
397.125	67.44
397.339	61.43
397.553	50.58
397.766	108.51
397.98	86.43
398.194	76.74
398.408	48.45
398.621	69.96
398.835	71.7
399.049	64.15
399.262	94.18
399.476	87.2
399.69	68.8
399.903	130.99
400.117	80.61
400.331	95.34
400.544	55.04
400.758	171.68
400.971	64.34
401.185	68.02
401.398	59.11
401.612	123.05
401.826	92.82
402.039	78.1
402.253	57.56
402.466	98.05
402.68	66.86
402.893	88.56
403.106	94.18
403.32	60.66
403.533	91.85
403.747	78.48
403.96	87.78
404.174	91.85
404.387	51.55
404.6	101.93
404.814	126.73
405.027	87.01
405.24	66.67
405.454	54.27
405.667	131.38
405.88	27.33
406.094	68.41
406.307	118.01
406.52	98.83
406.733	51.55
406.947	42.64
407.16	137.77
407.373	138.74
407.586	73.25
407.799	40.32
408.012	122.85
408.226	99.02
408.439	138.55
408.652	55.82
408.865	106.58
409.078	112.58
409.291	103.28
409.504	58.14
409.717	90.5
409.93	98.83
410.143	114.71
410.357	66.47
410.57	45.16
410.783	107.93
410.996	109.48
411.209	93.6
411.421	130.8
411.634	94.37
411.847	75.38
412.06	120.91
412.273	100.38
412.486	121.88
412.699	186.4
412.912	90.88
413.125	111.81
413.338	105.8
413.55	135.06
413.763	123.24
413.976	123.43
414.189	70.54
414.402	103.48
414.615	167.99
414.827	68.22
415.04	154.24
415.253	131.18
415.466	181.17
415.678	167.41
415.891	117.81
416.104	113.55
416.316	94.18
416.529	99.21
416.742	142.42
416.954	156.76
417.167	113.16
417.38	122.85
417.592	157.92
417.805	128.66
418.017	76.35
418.23	137.58
418.442	112.97
418.655	104.06
418.868	144.75
419.08	164.7
419.293	162.38
419.505	117.43
419.718	129.83
419.93	181.36
420.142	107.16
420.355	171.29
420.567	149.4
420.78	136.22
420.992	105.8
421.205	185.24
421.417	80.81
421.629	124.6
421.842	115.1
422.054	83.13
422.266	129.05
422.479	150.75
422.691	145.33
422.903	135.83
423.115	102.51
423.328	137
423.54	140.48
423.752	149.4
423.964	119.17
424.177	140.1
424.389	115.1
424.601	221.66
424.813	145.13
425.025	152.69
425.238	161.41
425.45	134.86
425.662	137.96
425.874	395.45
426.086	109.29
426.298	154.05
426.51	150.36
426.722	159.66
426.934	119.95
427.146	164.31
427.358	115.3
427.57	163.73
427.782	149.01
427.994	162.18
428.206	101.93
428.418	128.66
428.63	160.83
428.842	158.11
429.054	159.47
429.266	204.42
429.478	130.6
429.69	146.49
429.902	99.41
430.114	157.92
430.325	146.1
430.537	115.1
430.749	132.54
430.961	93.98
431.173	118.4
431.384	147.26
431.596	58.53
431.808	99.6
432.02	168.77
432.231	194.93
432.443	179.23
432.655	159.66
432.867	130.41
433.078	181.17
433.29	206.74
433.502	164.31
433.713	197.06
433.925	167.99
434.136	177.88
434.348	123.82
434.56	114.71
434.771	223.41
434.983	119.75
435.194	151.33
435.406	157.92
435.617	196.67
435.829	239.29
436.04	204.23
436.252	200.93
436.463	231.16
436.675	195.12
436.886	183.3
437.098	194.73
437.309	237.36
437.521	193.18
437.732	186.01
437.943	215.27
438.155	203.26
438.366	143.78
438.578	260.02
438.789	194.93
439	196.09
439.211	167.99
439.423	205.97
439.634	225.73
439.845	188.92
440.057	201.51
440.268	198.22
440.479	158.89
440.69	220.69
440.902	184.46
441.113	204.61
441.324	209.84
441.535	216.43
441.746	265.45
441.957	182.91
442.168	199.77
442.38	240.46
442.591	252.28
442.802	186.01
443.013	188.73
443.224	239.68
443.435	212.94
443.646	228.64
443.857	213.33
444.068	178.84
444.279	193.57
444.49	277.46
444.701	221.47
444.912	301.87
445.123	269.13
445.334	240.07
445.545	228.83
445.756	245.3
445.967	207.71
446.178	256.34
446.388	246.08
446.599	267.58
446.81	272.81
447.021	207.13
447.232	280.95
447.443	283.08
447.653	211.39
447.864	272.23
448.075	246.27
448.286	260.02
448.496	275.14
448.707	307.3
448.918	249.76
449.129	328.03
449.339	235.61
449.55	279.59
449.761	274.17
449.971	315.82
450.182	247.43
450.393	295.87
450.603	277.66
450.814	301.49
451.024	287.92
451.235	309.43
451.446	348.95
451.656	333.84
451.867	259.44
452.077	271.84
452.288	325.51
452.498	332.68
452.709	279.79
452.919	304.01
453.13	280.37
453.34	340.04
453.55	230.38
453.761	284.24
453.971	292.19
454.182	295.67
454.392	304.59
454.602	357.67
454.813	337.91
455.023	311.95
455.233	266.03
455.444	326.48
455.654	243.94
455.864	316.99
456.075	298.58
456.285	298.19
456.495	322.02
456.705	310.79
456.916	333.46
457.126	350.31
457.336	307.88
457.546	270.68
457.756	269.32
457.967	356.7
458.177	329.77
458.387	323.96
458.597	285.79
458.807	316.41
459.017	316.02
459.227	313.5
459.437	320.86
459.647	353.41
459.857	334.62
460.068	309.04
460.278	356.7
460.488	333.07
460.698	394.1
460.908	324.35
461.117	314.27
461.327	317.96
461.537	340.62
461.747	341.79
461.957	348.18
462.167	413.86
462.377	366.2
462.587	377.82
462.797	384.6
463.007	355.35
463.216	353.02
463.426	386.93
463.636	391.97
463.846	294.71
464.056	329.58
464.265	381.5
464.475	323.77
464.685	344.3
464.895	360.58
465.104	358.84
465.314	346.24
465.524	352.44
465.733	321.83
465.943	410.18
466.153	408.05
466.362	372.79
466.572	376.66
466.782	329
466.991	365.81
467.201	404.37
467.41	313.31
467.62	369.3
467.829	337.52
468.039	372.01
468.249	368.72
468.458	375.69
468.668	406.11
468.877	378.6
469.086	417.35
469.296	427.42
469.505	346.82
469.715	419.87
469.924	399.14
470.134	414.25
470.343	471.4
470.552	374.72
470.762	367.55
470.971	375.69
471.18	419.09
471.39	406.89
471.599	387.12
471.808	434.2
472.018	370.65
472.227	434.78
472.436	445.83
472.645	415.22
472.855	417.54
473.064	457.84
473.273	425.1
473.482	460.94
473.691	442.34
473.901	461.91
474.11	427.81
474.319	496.59
474.528	414.25
474.737	528.95
474.946	477.02
475.155	448.73
475.364	507.83
475.573	473.53
475.783	495.43
475.992	453.19
476.201	499.69
476.41	454.55
476.619	433.82
476.828	473.92
477.037	452.22
477.245	457.26
477.454	521
477.663	470.05
477.872	480.7
478.081	574.28
478.29	480.51
478.499	567.7
478.708	516.74
478.917	559.17
479.125	528.95
479.334	554.91
479.543	532.63
479.752	529.72
479.961	520.23
480.169	576.22
480.378	504.34
480.587	633.96
480.796	578.74
481.004	548.13
481.213	602.18
481.422	609.74
481.63	573.12
481.839	576.8
482.048	651.2
482.256	599.47
482.465	595.4
482.674	642.29
482.882	649.46
483.091	657.01
483.299	616.33
483.508	644.03
483.716	598.7
483.925	625.24
484.134	607.8
484.342	638.99
484.551	658.18
484.759	640.35
484.967	672.51
485.176	651.98
485.384	634.15
485.593	669.61
485.801	643.64
486.01	607.22
486.218	593.46
486.426	545.8
486.635	601.02
486.843	602.96
487.051	602.18
487.26	585.52
487.468	628.92
487.676	630.08
487.885	633.96
488.093	632.41
488.301	655.85
488.509	661.08
488.717	688.79
488.926	684.72
489.134	658.37
489.342	667.67
489.55	663.99
489.758	691.69
489.967	677.36
490.175	801.94
490.383	715.14
490.591	786.82
490.799	705.45
491.007	762.41
491.215	751.37
491.423	738.77
491.631	746.14
491.839	766.48
492.047	763.77
492.255	696.34
492.463	664.18
492.671	707.58
492.879	787.6
493.087	755.24
493.295	786.82
493.503	779.46
493.711	803.29
493.919	804.65
494.127	825.57
494.334	848.63
494.542	715.33
494.75	807.94
494.958	809.3
495.166	841.85
495.374	824.6
495.581	854.83
495.789	834.1
495.997	844.37
496.205	810.65
496.412	832.74
496.62	821.31
496.828	860.84
497.035	869.55
497.243	871.88
497.451	851.15
497.658	850.95
497.866	861.22
498.074	908.69
498.281	847.08
498.489	916.83
498.696	867.62
498.904	875.37
499.112	865.87
499.319	951.51
499.527	893.38
499.734	929.03
499.942	852.89
500.149	874.01
500.357	914.89
500.564	867.62
500.771	913.34
500.979	857.74
501.186	868.2
501.394	928.65
501.601	884.67
501.808	913.92
502.016	913.73
502.223	905.98
502.43	906.56
502.638	923.61
502.845	927.68
503.052	988.71
503.26	940.08
503.467	1045.09
503.674	965.85
503.881	975.15
504.089	1023.58
504.296	1011.38
504.503	957.71
504.71	969.91
504.917	965.46
505.125	990.45
505.332	995.3
505.539	1027.07
505.746	1097.98
505.953	1064.66
506.16	1065.43
506.367	1107.48
506.574	1138.67
506.781	1095.85
506.988	1050.9
507.195	1107.28
507.402	1113.68
507.609	1158.24
507.816	1091.01
508.023	1074.15
508.23	1103.99
508.437	1081.32
508.644	1126.66
508.851	1146.42
509.058	1199.31
509.265	1183.62
509.472	1215.01
509.679	1265.77
509.885	1176.26
510.092	1193.89
510.299	1204.54
510.506	1193.5
510.713	1215.59
510.92	1212.29
511.126	1245.81
511.333	1298.32
511.54	1258.6
511.746	1325.25
511.953	1338.42
512.16	1319.82
512.367	1276.81
512.573	1280.3
512.78	1310.91
512.987	1322.15
513.193	1308.78
513.4	1242.13
513.606	1348.3
513.813	1330.67
514.02	1305.87
514.226	1396.74
514.433	1381.82
514.639	1340.55
514.846	1378.33
515.052	1336.68
515.259	1355.86
515.465	1417.08
515.672	1385.31
515.878	1488.19
516.085	1467.65
516.291	1486.83
516.497	1417.28
516.704	1406.62
516.91	1327.57
517.117	1298.51
517.323	1253.95
517.529	1331.06
517.736	1305.29
517.942	1384.73
518.148	1379.69
518.354	1385.5
518.561	1430.84
518.767	1427.93
518.973	1456.61
519.179	1490.9
519.386	1463.78
519.592	1473.46
519.798	1467.26
520.004	1613.16
520.21	1541.66
520.417	1614.51
520.623	1656.75
520.829	1648.81
521.035	1663.53
521.241	1641.25
521.447	1682.9
521.653	1786.56
521.859	1693.75
522.065	1741.03
522.271	1803.22
522.477	1781.13
522.683	1810.58
522.889	1763.89
523.095	1763.89
523.301	1762.53
523.507	1725.34
523.713	1772.42
523.919	1731.92
524.125	1849.72
524.331	1870.06
524.537	1921.41
524.742	1876.65
524.948	1935.94
525.154	1901.65
525.36	1992.32
525.566	1929.93
525.772	1999.88
525.977	1932.45
526.183	1955.51
526.389	1974.49
526.595	1893.31
526.8	1882.46
527.006	1781.52
527.212	1798.57
527.417	1770.67
527.623	1836.16
527.829	1843.33
528.034	1881.88
528.24	1912.69
528.446	1909.98
528.651	1992.9
528.857	2020.41
529.062	2074.27
529.268	2044.63
529.473	2083.96
529.679	2095.2
529.884	2166.3
530.09	2133.75
530.295	2138.79
530.501	2125.23
530.706	2153.32
530.912	2135.69
531.117	2154.49
531.323	2160.88
531.528	2221.13
531.733	2242.64
531.939	2148.48
532.144	2223.46
532.35	2193.04
532.555	2223.07
532.76	2177.93
532.966	2179.67
533.171	2147.7
533.376	2134.34
533.581	2114.19
533.787	2169.02
533.992	2190.13
534.197	2217.65
534.402	2181.61
534.607	2224.43
534.813	2317.43
535.018	2238.18
535.223	2251.55
535.428	2270.73
535.633	2294.56
535.838	2351.91
536.043	2315.49
536.249	2410.04
536.454	2318.78
536.659	2362.18
536.864	2313.75
537.069	2305.03
537.274	2327.5
537.479	2343.78
537.684	2307.35
537.889	2303.86
538.094	2372.64
538.299	2337.77
538.504	2406.74
538.708	2367.61
538.913	2380.59
539.118	2383.69
539.323	2368.19
539.528	2321.88
539.733	2307.93
539.938	2388.73
540.142	2336.03
540.347	2327.31
540.552	2318.98
540.757	2265.7
540.962	2298.83
541.166	2279.06
541.371	2255.43
541.576	2290.3
541.781	2248.45
541.985	2382.91
542.19	2377.68
542.395	2414.11
542.599	2426.7
542.804	2417.4
543.008	2404.23
543.213	2360.24
543.418	2357.34
543.622	2418.18
543.827	2341.45
544.031	2453.44
544.236	2463.9
544.44	2454.79
544.645	2534.42
544.849	2444.33
545.054	2459.83
545.258	2547.6
545.463	2483.66
545.667	2415.27
545.872	2479.4
546.076	2454.79
546.281	2477.27
546.485	2466.81
546.689	2481.34
546.894	2480.17
547.098	2473.78
547.302	2465.06
547.507	2465.06
547.711	2499.55
547.915	2536.55
548.119	2397.44
548.324	2434.45
548.528	2535.39
548.732	2471.46
548.936	2573.56
549.141	2512.14
549.345	2482.11
549.549	2497.81
549.753	2529.97
549.957	2563.87
550.161	2584.99
550.366	2552.83
550.57	2518.92
550.774	2528.03
550.978	2533.26
551.182	2559.22
551.386	2491.8
551.59	2507.49
551.794	2488.89
551.998	2530.74
552.202	2510.4
552.406	2465.06
552.61	2560.77
552.814	2567.94
553.018	2578.4
553.222	2518.73
553.426	2545.08
553.63	2600.49
553.833	2511.95
554.037	2434.84
554.241	2514.47
554.445	2568.72
554.649	2521.44
554.853	2491.61
555.056	2562.13
555.26	2602.43
555.464	2561.16
555.668	2587.7
555.871	2586.74
556.075	2559.61
556.279	2530.16
556.483	2509.24
556.686	2476.69
556.89	2462.74
557.094	2493.74
557.297	2450.72
557.501	2511.95
557.704	2394.93
557.908	2514.47
558.112	2452.86
558.315	2488.7
558.519	2463.9
558.722	2403.26
558.926	2422.44
559.129	2349.98
559.333	2345.91
559.536	2375.36
559.74	2328.47
559.943	2349.2
560.147	2346.68
560.35	2351.91
560.553	2391.24
560.757	2303.86
560.96	2426.12
561.164	2398.99
561.367	2413.33
561.57	2400.93
561.774	2379.23
561.977	2354.82
562.18	2352.88
562.384	2453.44
562.587	2349.59
562.79	2352.11
562.993	2321.3
563.197	2373.42
563.4	2387.76
563.603	2375.74
563.806	2418.76
564.009	2318.98
564.212	2335.64
564.416	2289.91
564.619	2334.67
564.822	2264.34
565.025	2346.49
565.228	2307.74
565.431	2314.71
565.634	2189.36
565.837	2229.08
566.04	2200.98
566.243	2187.42
566.446	2137.44
566.649	2252.52
566.852	2168.63
567.055	2185.29
567.258	2199.43
567.461	2254.85
567.664	2283.71
567.867	2173.09
568.07	2189.17
568.273	2185.1
568.475	2206.99
568.678	2138.79
568.881	2135.3
569.084	2127.94
569.287	2045.6
569.489	2108.76
569.692	2120.97
569.895	2119.61
570.098	2054.32
570.3	2062.26
570.503	1998.13
570.706	2040.95
570.909	2005.11
571.111	1989.8
571.314	1934.58
571.516	1974.11
571.719	1966.94
571.922	1953.57
572.124	1952.99
572.327	1952.21
572.529	1935.36
572.732	1960.16
572.935	1966.36
573.137	2049.47
573.34	1969.84
573.542	1999.88
573.745	1938.46
573.947	1974.11
574.15	1941.75
574.352	1923.93
574.554	1996.97
574.757	1890.02
574.959	1876.46
575.162	1876.46
575.364	1887.7
575.566	1963.64
575.769	1836.55
575.971	1880.91
576.173	1777.07
576.376	1866.19
576.578	1874.91
576.78	1925.09
576.982	1815.04
577.185	1847.78
577.387	1797.8
577.589	1833.06
577.791	1835.58
577.993	1828.41
578.196	1809.81
578.398	1825.89
578.6	1853.79
578.802	1799.73
579.004	1766.22
579.206	1777.26
579.408	1807.87
579.61	1798.38
579.812	1856.5
580.014	1801.48
580.216	1812.33
580.418	1777.26
580.62	1786.17
580.822	1768.35
581.024	1784.62
581.226	1856.11
581.428	1792.57
581.63	1906.49
581.832	1802.83
582.034	1852.82
582.236	1802.83
582.438	1874.33
582.64	1908.04
582.841	1893.31
583.043	1933.03
583.245	1858.05
583.447	1896.41
583.649	1848.95
583.85	1852.63
584.052	1869.68
584.254	1797.41
584.456	1883.43
584.657	1785.59
584.859	1811.75
585.061	1790.43
585.262	1800.51
585.464	1774.35
585.666	1805.55
585.867	1752.85
586.069	1824.53
586.27	1768.73
586.472	1762.92
586.674	1757.88
586.875	1778.03
587.077	1738.12
587.278	1765.25
587.48	1732.31
587.681	1881.3
587.883	1764.28
588.084	1687.17
588.285	1719.33
588.487	1717.39
588.688	1710.03
588.89	1597.46
589.091	1554.26
589.292	1567.82
589.494	1547.67
589.695	1548.64
589.896	1483.15
590.098	1475.6
590.299	1506.98
590.5	1505.63
590.702	1537.98
590.903	1543.41
591.104	1611.61
591.305	1591.84
591.507	1637.57
591.708	1645.32
591.909	1601.92
592.11	1630.01
592.311	1628.85
592.512	1587
592.714	1540.31
592.915	1558.52
593.116	1593.39
593.317	1583.12
593.518	1606.18
593.719	1619.36
593.92	1633.5
594.121	1671.09
594.322	1621.1
594.523	1600.37
594.724	1544.38
594.925	1580.22
595.126	1577.51
595.327	1575.57
595.528	1614.9
595.729	1622.07
595.929	1580.22
596.13	1591.46
596.331	1612.77
596.532	1597.46
596.733	1662.17
596.934	1646.67
597.135	1655.97
597.335	1621.1
597.536	1580.02
597.737	1619.16
597.938	1576.73
598.138	1581.77
598.339	1600.76
598.54	1610.25
598.74	1600.17
598.941	1595.91
599.142	1661.59
599.342	1585.84
599.543	1542.24
599.744	1572.27
599.944	1584.29
600.145	1595.33
600.345	1612.77
600.546	1662.95
600.746	1639.12
600.947	1658.3
601.147	1590.49
601.348	1670.31
601.548	1551.93
601.749	1565.88
601.949	1551.16
602.15	1544.18
602.35	1559.1
602.551	1622.26
602.751	1505.24
602.951	1540.89
603.152	1526.16
603.352	1580.41
603.552	1586.61
603.753	1603.47
603.953	1610.25
604.153	1596.3
604.354	1587.58
604.554	1577.51
604.754	1563.75
604.954	1545.34
605.155	1585.64
605.355	1590.49
605.555	1595.33
605.755	1629.62
605.955	1556
606.155	1616.84
606.356	1580.41
606.556	1587.97
606.756	1590.49
606.956	1537.01
607.156	1611.41
607.356	1580.99
607.556	1598.43
607.756	1615.48
607.956	1583.71
608.156	1560.65
608.356	1516.28
608.556	1556.58
608.756	1525.58
608.956	1504.08
609.156	1530.62
609.356	1463.58
609.556	1469.4
609.755	1515.89
609.955	1505.82
610.155	1504.08
610.355	1529.84
610.555	1473.08
610.755	1507.37
610.954	1433.16
611.154	1506.59
611.354	1517.44
611.554	1476.18
611.753	1492.06
611.953	1430.84
612.153	1508.73
612.352	1471.72
612.552	1426.58
612.752	1362.45
612.951	1472.88
613.151	1438.59
613.351	1453.31
613.55	1465.13
613.75	1457
613.949	1418.05
614.149	1457
614.348	1446.53
614.548	1388.99
614.747	1410.88
614.947	1416.89
615.146	1348.69
615.346	1428.51
615.545	1417.66
615.745	1423.67
615.944	1450.02
616.144	1416.5
616.343	1404.1
616.542	1369.42
616.742	1366.52
616.941	1374.85
617.14	1282.82
617.34	1357.8
617.539	1401.58
617.738	1365.35
617.938	1424.83
618.137	1361.87
618.336	1319.82
618.535	1374.85
618.734	1373.3
618.934	1376.4
619.133	1397.32
619.332	1377.37
619.531	1316.72
619.73	1335.9
619.929	1419.8
620.128	1369.23
620.328	1416.89
620.527	1336.48
620.726	1340.94
620.925	1354.7
621.124	1333.77
621.323	1370
621.522	1321.57
621.721	1303.74
621.92	1266.74
622.119	1363.22
622.318	1320.98
622.517	1321.95
622.715	1305.29
622.914	1225.66
623.113	1282.82
623.312	1216.36
623.511	1309.75
623.71	1283.59
623.909	1268.29
624.107	1314.2
624.306	1215.78
624.505	1240.19
624.704	1283.01
624.902	1240
625.101	1303.55
625.3	1258.4
625.499	1231.09
625.697	1232.64
625.896	1210.36
626.095	1278.17
626.293	1215.78
626.492	1212.68
626.69	1239.8
626.889	1232.44
627.088	1251.04
627.286	1209
627.485	1168.31
627.683	1182.84
627.882	1210.16
628.08	1134.99
628.279	1141.57
628.477	1226.24
628.676	1159.01
628.874	1190.98
629.073	1146.03
629.271	1149.52
629.469	1187.88
629.668	1165.79
629.866	1153.2
630.065	1160.56
630.263	1149.71
630.461	1146.03
630.66	1188.27
630.858	1166.37
631.056	1210.55
631.254	1227.21
631.453	1161.72
631.651	1205.32
631.849	1176.26
632.047	1178.39
632.245	1169.09
632.444	1153.2
632.642	1184.78
632.84	1221.2
633.038	1135.37
633.236	1162.31
633.434	1163.66
633.632	1157.66
633.83	1130.72
634.028	1214.42
634.227	1158.04
634.425	1275.07
634.623	1200.28
634.821	1213.84
635.019	1228.18
635.216	1193.11
635.414	1245.62
635.612	1198.34
635.81	1165.21
636.008	1253.37
636.206	1170.44
636.404	1203.19
636.602	1192.14
636.8	1153.39
636.997	1192.53
637.195	1226.63
637.393	1208.61
637.591	1222.56
637.789	1209.97
637.986	1174.71
638.184	1156.11
638.382	1190.79
638.58	1234.96
638.777	1237.48
638.975	1176.64
639.173	1184.97
639.37	1205.9
639.568	1181.29
639.765	1184.59
639.963	1129.56
640.161	1178.39
640.358	1198.92
640.556	1111.35
640.753	1109.03
640.951	1086.55
641.148	1128.01
641.346	1109.99
641.543	1130.34
641.741	1135.18
641.938	1091.78
642.136	1109.8
642.333	1068.53
642.531	1146.03
642.728	1166.18
642.925	1108.06
643.123	1095.46
643.32	1091.01
643.517	1104.76
643.715	1099.14
643.912	1079.96
644.109	1071.05
644.306	1090.43
644.504	1007.31
644.701	1080.74
644.898	1097.79
645.095	1037.34
645.293	1040.05
645.49	1060.59
645.687	1064.66
645.884	1047.03
646.081	993.36
646.278	996.26
646.475	1017.96
646.672	1007.11
646.87	1011.38
647.067	980.96
647.264	985.41
647.461	951.12
647.658	943.95
647.855	948.41
648.052	932.52
648.249	881.76
648.446	929.23
648.642	936.78
648.839	918.96
649.036	924.97
649.233	909.85
649.43	891.45
649.627	859.87
649.824	897.45
650.021	893.38
650.217	885.44
650.414	903.46
650.611	906.17
650.808	923.42
651.004	949.18
651.201	952.48
651.398	964.3
651.595	904.43
651.791	886.02
651.988	937.17
652.185	879.43
652.381	947.44
652.578	894.93
652.775	913.92
652.971	888.93
653.168	893.58
653.364	904.43
653.561	843.01
653.757	904.04
653.954	878.08
654.15	857.54
654.347	912.57
654.543	867.62
654.74	843.4
654.936	802.52
655.133	878.47
655.329	889.32
655.525	834.1
655.722	878.66
655.918	820.15
656.115	834.87
656.311	756.79
656.507	733.74
656.704	724.44
656.9	746.72
657.096	742.07
657.292	740.91
657.489	815.11
657.685	816.27
657.881	791.47
658.077	806.39
658.273	818.4
658.47	846.5
658.666	801.35
658.862	840.88
659.058	813.56
659.254	846.69
659.45	829.25
659.646	807.36
659.842	821.31
660.038	863.55
660.234	821.31
660.43	810.27
660.626	849.21
660.822	857.15
661.018	830.42
661.214	804.45
661.41	772.49
661.606	853.09
661.802	836.42
661.998	827.51
662.194	772.87
662.39	804.65
662.586	808.14
662.781	833.13
662.977	826.93
663.173	837.78
663.369	787.02
663.564	839.72
663.76	790.89
663.956	777.33
664.152	811.24
664.347	735.29
664.543	790.12
664.739	774.04
664.934	737.03
665.13	740.71
665.326	799.03
665.521	781.01
665.717	732.57
665.912	756.21
666.108	682.2
666.304	716.88
666.499	719.59
666.695	673.87
666.89	745.17
667.086	763.57
667.281	744.2
667.477	795.35
667.672	716.88
667.867	728.89
668.063	725.02
668.258	669.61
668.454	719.4
668.649	759.31
668.844	715.72
669.04	720.76
669.235	693.82
669.43	702.35
669.626	690.73
669.821	692.66
670.016	700.22
670.211	700.8
670.407	676.19
670.602	682.2
670.797	686.08
670.992	716.3
671.187	647.91
671.382	723.27
671.578	659.34
671.773	686.46
671.968	637.64
672.163	687.24
672.358	694.99
672.553	663.41
672.748	661.66
672.943	776.36
673.138	685.49
673.333	694.21
673.528	634.34
673.723	680.65
673.918	676
674.113	630.47
674.308	766.29
674.503	707.19
674.698	686.85
674.892	674.84
675.087	697.51
675.282	653.53
675.477	646.16
675.672	675.81
675.867	610.71
676.061	634.93
676.256	632.79
676.451	632.79
676.646	657.98
676.84	612.06
677.035	649.84
677.23	622.72
677.424	681.23
677.619	651.39
677.814	676.78
678.008	655.08
678.203	598.31
678.397	621.94
678.592	650.23
678.787	677.94
678.981	638.8
679.176	656.43
679.37	643.26
679.565	611.87
679.759	646.74
679.954	646.74
680.148	691.89
680.342	710.29
680.537	662.63
680.731	629.31
680.926	697.7
681.12	691.11
681.314	609.93
681.509	654.11
681.703	671.74
681.897	686.27
682.092	658.56
682.286	655.08
682.48	724.63
682.674	693.05
682.869	667.09
683.063	663.6
683.257	724.82
683.451	654.49
683.645	687.24
683.839	664.76
684.034	652.17
684.228	687.43
684.422	655.08
684.616	633.96
684.81	718.82
685.004	689.18
685.198	692.27
685.392	734.9
685.586	687.43
685.78	692.27
685.974	706.03
686.168	710.68
686.362	777.91
686.556	683.94
686.75	628.53
686.944	643.26
687.138	658.76
687.331	529.53
687.525	567.7
687.719	520.23
687.913	589.01
688.107	558.01
688.301	550.65
688.494	624.08
688.688	586.3
688.882	591.72
689.076	554.91
689.269	647.13
689.463	683.36
689.657	638.8
689.85	641.9
690.044	680.84
690.238	674.45
690.431	692.47
690.625	685.11
690.818	722.69
691.012	729.67
691.205	758.92
691.399	716.49
691.593	798.06
691.786	851.34
691.98	861.22
692.173	853.47
692.366	845.14
692.56	889.12
692.753	945.7
692.947	847.85
693.14	931.55
693.333	914.31
693.527	907.14
693.72	953.06
693.914	953.06
694.107	927.1
694.3	964.3
694.493	957.9
694.687	1035.21
694.88	973.01
695.073	1052.26
695.266	1044.7
695.46	1046.06
695.653	1102.05
695.846	1068.14
696.039	1068.92
696.232	1097.98
696.425	1165.21
696.618	1148.55
696.812	1178.77
697.005	1261.31
697.198	1331.83
697.391	1274.68
697.584	1285.72
697.777	1344.62
697.97	1324.67
698.163	1361.28
698.356	1316.53
698.549	1420.18
698.742	1399.84
698.935	1381.43
699.127	1400.23
699.32	1364.97
699.513	1396.35
699.706	1391.7
699.899	1447.89
700.092	1406.43
700.285	1439.95
700.477	1387.44
700.67	1458.74
700.863	1444.4
701.056	1546.31
701.248	1520.93
701.441	1542.24
701.634	1517.25
701.826	1598.82
702.019	1491.48
702.212	1576.73
702.404	1520.54
702.597	1552.9
702.79	1556
702.982	1601.34
703.175	1650.55
703.367	1665.66
703.56	1696.08
703.752	1751.3
703.945	1736.38
704.137	1746.07
704.33	1744.9
704.522	1772.22
704.715	1813.49
704.907	1817.75
705.1	1857.86
705.292	1860.38
705.484	1816.01
705.677	1876.07
705.869	1907.26
706.061	1934
706.254	1974.69
706.446	1903.97
706.638	1932.45
706.831	2016.73
707.023	1979.92
707.215	2079.89
707.407	2026.61
707.599	2011.89
707.792	2081.06
707.984	2064.2
708.176	2094.23
708.368	2080.47
708.56	2103.92
708.752	2100.82
708.944	2096.75
709.136	2151
709.329	2161.46
709.521	2249.42
709.713	2212.42
709.905	2216.48
710.097	2240.51
710.289	2180.64
710.481	2222.49
710.672	2256.2
710.864	2254.07
711.056	2309.68
711.248	2328.08
711.44	2291.85
711.632	2289.53
711.824	2340.68
712.016	2340.48
712.207	2382.33
712.399	2356.18
712.591	2435.61
712.783	2429.03
712.975	2410.62
713.166	2400.93
713.358	2447.62
713.55	2494.9
713.741	2483.47
713.933	2490.64
714.125	2478.82
714.316	2464.48
714.508	2533.07
714.7	2494.12
714.891	2498.77
715.083	2551.47
715.274	2481.92
715.466	2532.49
715.657	2526.67
715.849	2456.73
716.04	2437.55
716.232	2432.13
716.423	2416.24
716.615	2350.17
716.806	2337.96
716.998	2268.21
717.189	2163.59
717.381	2099.65
717.572	2076.99
717.763	2071.37
717.955	2018.47
718.146	2010.72
718.337	1936.52
718.528	1908.81
718.72	1840.03
718.911	1901.26
719.102	1821.43
719.293	1867.55
719.485	1865.22
719.676	1837.9
719.867	1830.93
720.058	1830.93
720.249	1810
720.44	1839.84
720.632	1917.92
720.823	1954.73
721.014	2086.67
721.205	2103.72
721.396	2173.28
721.587	2331.96
721.778	2352.3
721.969	2352.11
722.16	2415.08
722.351	2455.18
722.542	2555.15
722.733	2620.25
722.924	2488.7
723.115	2499.74
723.305	2470.49
723.496	2462.54
723.687	2360.24
723.878	2389.11
724.069	2367.03
724.26	2412.36
724.45	2332.35
724.641	2330.8
724.832	2312.39
725.023	2309.29
725.213	2314.52
725.404	2284.88
725.595	2279.26
725.785	2278.1
725.976	2326.34
726.167	2300.76
726.357	2345.33
726.548	2396.86
726.739	2339.32
726.929	2428.25
727.12	2430.96
727.31	2443.94
727.501	2400.74
727.691	2396.09
727.882	2429.22
728.072	2456.73
728.263	2448.79
728.453	2496.84
728.644	2520.47
728.834	2498
729.024	2455.96
729.215	2435.61
729.405	2502.84
729.596	2559.42
729.786	2531.32
729.976	2574.14
730.167	2560.19
730.357	2547.21
730.547	2595.26
730.737	2606.69
730.928	2627.03
731.118	2657.84
731.308	2624.52
731.498	2651.25
731.688	2732.24
731.879	2713.25
732.069	2776.03
732.259	2832.79
732.449	2859.73
732.639	2972.68
732.829	2951.37
733.019	2979.85
733.209	3067.62
733.399	3028.29
733.589	3141.63
733.779	3203.43
733.969	3208.08
734.159	3234.82
734.349	3278.22
734.539	3306.51
734.729	3265.63
734.919	3358.82
735.109	3378.19
735.299	3312.9
735.488	3307.67
735.678	3322.59
735.868	3348.36
736.058	3313.87
736.248	3322.39
736.437	3286.16
736.627	3242.96
736.817	3403.96
737.007	3338.28
737.196	3387.11
737.386	3380.52
737.576	3323.75
737.765	3466.74
737.955	3393.89
738.144	3497.54
738.334	3508.2
738.524	3415.39
738.713	3459.18
738.903	3490.37
739.092	3544.43
739.282	3463.83
739.471	3480.88
739.661	3499.09
739.85	3565.55
740.04	3516.72
740.229	3526.22
740.419	3626.77
740.608	3598.1
740.797	3559.93
740.987	3672.88
741.176	3638.78
741.365	3581.24
741.555	3589.57
741.744	3686.06
741.933	3610.88
742.123	3658.16
742.312	3701.94
742.501	3700.2
742.69	3732.56
742.88	3630.45
743.069	3769.56
743.258	3687.8
743.447	3751.35
743.636	3736.43
743.825	3737.79
744.014	3732.56
744.204	3801.92
744.393	3696.33
744.582	3839.7
744.771	3813.35
744.96	3779.64
745.149	3812.19
745.338	3752.12
745.527	3788.94
745.716	3733.14
745.905	3764.52
746.094	3816.26
746.283	3802.89
746.471	3809.47
746.66	3820.13
746.849	3830.4
747.038	3827.88
747.227	3754.84
747.416	3777.89
747.604	3756.77
747.793	3815.87
747.982	3808.31
748.171	3815.48
748.359	3825.75
748.548	3802.5
748.737	3823.62
748.926	3820.52
749.114	3694.39
749.303	3753.29
749.491	3815.29
749.68	3730.81
749.869	3804.44
750.057	3768.79
750.246	3690.32
750.434	3770.72
750.623	3767.24
750.811	3706.79
751	3803.27
751.188	3739.53
751.377	3741.86
751.565	3726.36
751.754	3689.54
751.942	3692.26
752.131	3780.61
752.319	3690.32
752.507	3693.42
752.696	3756.77
752.884	3750.96
753.072	3675.21
753.261	3658.35
753.449	3689.16
753.637	3674.04
753.825	3772.27
754.014	3690.13
754.202	3711.83
754.39	3766.66
754.578	3707.56
754.766	3654.86
754.955	3627.16
755.143	3746.31
755.331	3668.23
755.519	3666.68
755.707	3673.27
755.895	3627.35
756.083	3670.36
756.271	3618.44
756.459	3635.88
756.647	3669.2
756.835	3610.88
757.023	3592.67
757.211	3586.66
757.399	3592.09
757.587	3628.32
757.775	3514.59
757.963	3548.69
758.151	3541.52
758.339	3498.51
758.526	3526.02
758.714	3516.92
758.902	3412.68
759.09	3271.63
759.278	3080.98
759.465	2842.48
759.653	2444.72
759.841	2243.8
760.028	1929.93
760.216	1663.34
760.404	1548.25
760.591	1269.06
760.779	1056.71
760.967	936.78
761.154	771.32
761.342	800.58
761.529	816.27
761.717	875.75
761.905	848.24
762.092	874.98
762.28	847.85
762.467	833.71
762.655	753.89
762.842	768.22
763.029	796.51
763.217	783.34
763.404	796.32
763.592	818.99
763.779	786.24
763.966	841.46
764.154	883.12
764.341	914.31
764.528	948.99
764.716	1013.12
764.903	1039.08
765.09	1126.85
765.277	1198.73
765.465	1321.37
765.652	1408.95
765.839	1500.59
766.026	1631.37
766.213	1698.6
766.4	1767.77
766.588	1972.17
766.775	2037.27
766.962	2160.49
767.149	2204.08
767.336	2342.81
767.523	2308.13
767.71	2461.77
767.897	2601.85
768.084	2659.58
768.271	2713.45
768.458	2787.85
768.645	2828.14
768.832	2850.62
769.019	2865.54
769.206	2887.24
769.392	2945.36
769.579	3060.25
769.766	3023.64
769.953	3028.29
770.14	3099.2
770.327	3095.52
770.513	3142.01
770.7	3212.15
770.887	3172.43
771.073	3178.44
771.26	3149.38
771.447	3141.24
771.634	3123.61
771.82	3243.73
772.007	3101.72
772.193	3158.87
772.38	3214.48
772.567	3181.35
772.753	3154.61
772.94	3226.29
773.126	3198.59
773.313	3210.21
773.499	3216.41
773.686	3219.13
773.872	3148.02
774.059	3191.03
774.245	3158.29
774.432	3157.9
774.618	3073.04
774.804	3149.38
774.991	3123.03
775.177	3147.25
775.363	3133.68
775.55	3169.53
775.736	3103.65
775.922	3120.7
776.109	3091.83
776.295	3110.82
776.481	3112.18
776.667	3128.07
776.853	3128.65
777.04	3080.4
777.226	3107.92
777.412	3083.89
777.598	3074.59
777.784	3064.71
777.97	3048.24
778.156	3066.45
778.342	3018.6
778.528	3081.95
778.715	3016.47
778.901	2992.64
779.087	3025.57
779.272	3014.53
779.458	2994.38
779.644	3029.84
779.83	2955.24
780.016	3101.33
780.202	2979.27
780.388	2972.68
780.574	2912.42
780.76	2955.63
780.946	3001.94
781.131	2966.29
781.317	2960.86
781.503	2880.07
781.689	2947.69
781.874	3110.24
782.06	2914.36
782.246	2978.3
782.432	2939.55
782.617	2932.96
782.803	2986.82
782.989	2864.38
783.174	2882.78
783.36	2859.34
783.545	2847.52
783.731	2920.95
783.916	2825.63
784.102	2887.62
784.288	2823.11
784.473	2862.05
784.659	2801.41
784.844	2871.74
785.029	2827.76
785.215	2824.08
785.4	2801.41
785.586	2865.73
785.771	2770.6
785.956	2811.48
786.142	2801.02
786.327	2738.05
786.512	2724.3
786.698	2753.94
786.883	2655.9
787.068	2719.84
787.254	2726.62
787.439	2733.01
787.624	2696.4
787.809	2704.92
787.994	2657.45
788.18	2762.66
788.365	2658.42
788.55	2657.07
788.735	2671.98
788.92	2658.03
789.105	2587.51
789.29	2652.22
789.475	2597.59
789.66	2564.84
789.845	2575.69
790.03	2573.37
790.215	2597.39
790.4	2627.23
790.585	2626.45
790.77	2569.3
790.955	2490.06
791.14	2563.1
791.325	2613.86
791.51	2450.92
791.695	2534.42
791.879	2536.94
792.064	2494.32
792.249	2579.57
792.434	2497.81
792.618	2541.59
792.803	2554.38
792.988	2526.87
793.173	2563.87
793.357	2585.38
793.542	2482.69
793.727	2558.84
793.911	2588.67
794.096	2552.64
794.281	2591.97
794.465	2661.72
794.65	2564.07
794.834	2583.25
795.019	2611.73
795.203	2623.93
795.388	2626.84
795.572	2664.04
795.757	2597.78
795.941	2603.01
796.126	2598.17
796.31	2544.11
796.494	2595.45
796.679	2576.08
796.863	2502.46
797.048	2650.09
797.232	2563.49
797.416	2607.08
797.601	2572.98
797.785	2653.58
797.969	2638.27
798.153	2543.34
798.338	2633.62
798.522	2601.85
798.706	2660.36
798.89	2642.92
799.074	2739.21
799.258	2643.31
799.443	2592.94
799.627	2614.05
799.811	2666.56
799.995	2587.51
800.179	2563.29
800.363	2594.1
800.547	2609.6
800.731	2612.12
800.915	2586.74
801.099	2554.38
801.283	2525.9
801.467	2581.89
801.651	2555.93
801.835	2643.31
802.019	2592.16
802.202	2586.35
802.386	2555.35
802.57	2533.07
802.754	2522.61
802.938	2495.87
803.121	2526.67
803.305	2595.45
803.489	2565.23
803.673	2525.32
803.856	2574.53
804.04	2552.05
804.224	2590.03
804.407	2543.14
804.591	2545.08
804.775	2541.59
804.958	2547.4
805.142	2678.57
805.326	2604.56
805.509	2589.06
805.693	2647.38
805.876	2640.02
806.06	2621.22
806.243	2659.58
806.427	2662.1
806.61	2646.41
806.794	2579.37
806.977	2622.77
807.16	2588.67
807.344	2630.72
807.527	2634.2
807.71	2592.55
807.894	2610.95
808.077	2621.42
808.26	2560.97
808.444	2577.63
808.627	2622.97
808.81	2558.64
808.993	2506.72
809.177	2485.99
809.36	2469.71
809.543	2510.79
809.726	2396.48
809.909	2432.13
810.092	2426.51
810.276	2436.78
810.459	2450.14
810.642	2421.08
810.825	2367.99
811.008	2377.1
811.191	2276.16
811.374	2298.83
811.557	2318.98
811.74	2378.84
811.923	2252.13
812.106	2282.36
812.289	2188
812.472	2227.72
812.654	2218.42
812.837	2195.17
813.02	2120.39
813.203	2091.9
813.386	2022.54
813.569	1997.74
813.751	1943.69
813.934	1962.68
814.117	1918.31
814.3	1891.38
814.482	1817.56
814.665	1837.51
814.848	1797.02
815.03	1739.29
815.213	1691.82
815.396	1744.32
815.578	1704.22
815.761	1636.41
815.943	1729.99
816.126	1637.76
816.309	1603.66
816.491	1527.52
816.674	1469.01
816.856	1557.94
817.039	1534.11
817.221	1628.85
817.403	1521.9
817.586	1582.74
817.768	1572.66
817.951	1478.5
818.133	1493.03
818.315	1528.68
818.498	1567.62
818.68	1635.82
818.862	1604.05
819.045	1597.27
819.227	1587.19
819.409	1599.98
819.591	1599.4
819.774	1562.01
819.956	1527.13
820.138	1645.12
820.32	1623.81
820.502	1707.51
820.684	1750.91
820.866	1749.17
821.048	1835.96
821.231	1822.98
821.413	1862.7
821.595	1793.92
821.777	1833.25
821.959	1787.14
822.141	1862.51
822.323	1714.49
822.505	1664.69
822.686	1599.01
822.868	1545.93
823.05	1401
823.232	1417.66
823.414	1346.37
823.596	1425.8
823.778	1394.61
823.96	1431.03
824.141	1440.72
824.323	1465.71
824.505	1573.05
824.687	1573.63
824.868	1643.57
825.05	1731.15
825.232	1749.17
825.413	1846.43
825.595	1761.76
825.777	1721.85
825.958	1788.3
826.14	1739.09
826.321	1798.18
826.503	1756.53
826.685	1789.47
826.866	1761.57
827.048	1764.47
827.229	1735.6
827.411	1699.95
827.592	1630.59
827.773	1637.76
827.955	1602.89
828.136	1606.76
828.318	1583.51
828.499	1622.26
828.68	1540.69
828.862	1587.19
829.043	1604.63
829.224	1586.42
829.406	1523.84
829.587	1556.58
829.768	1564.53
829.949	1586.81
830.131	1599.4
830.312	1634.08
830.493	1605.79
830.674	1619.74
830.855	1573.05
831.036	1571.89
831.218	1606.96
831.399	1632.14
831.58	1619.55
831.761	1589.71
831.942	1585.84
832.123	1604.05
832.304	1551.16
832.485	1554.26
832.666	1600.95
832.847	1619.16
833.028	1567.62
833.209	1576.34
833.389	1557.16
833.57	1522.09
833.751	1527.71
833.932	1598.62
834.113	1609.86
834.294	1575.37
834.475	1615.48
834.655	1598.62
834.836	1619.16
835.017	1629.62
835.198	1563.17
835.378	1605.6
835.559	1665.47
835.74	1590.1
835.92	1631.95
836.101	1620.52
836.281	1658.69
836.462	1649.39
836.643	1672.44
836.823	1691.62
837.004	1682.32
837.184	1732.31
837.365	1660.04
837.545	1671.47
837.726	1674.57
837.906	1704.22
838.087	1666.05
838.267	1651.52
838.448	1642.8
838.628	1684.07
838.808	1663.92
838.989	1720.69
839.169	1642.41
839.349	1692.59
839.53	1672.25
839.71	1691.62
839.89	1642.61
840.07	1718.17
840.251	1683.29
840.431	1705.38
840.611	1646.48
840.791	1643.77
840.971	1704.6
841.151	1631.56
841.332	1631.17
841.512	1671.67
841.692	1625.56
841.872	1667.79
842.052	1660.43
842.232	1677.29
842.412	1615.29
842.592	1616.84
842.772	1632.53
842.952	1683.29
843.132	1620.32
843.312	1609.28
843.492	1586.81
843.672	1634.08
843.851	1555.42
844.031	1608.7
844.211	1634.27
844.391	1620.52
844.571	1637.57
844.751	1622.46
844.93	1636.79
845.11	1610.25
845.29	1606.76
845.47	1647.64
845.649	1601.72
845.829	1639.31
846.009	1600.76
846.188	1636.6
846.368	1633.89
846.547	1613.35
846.727	1608.7
846.907	1595.14
847.086	1591.84
847.266	1648.42
847.445	1570.92
847.625	1592.04
847.804	1587.19
847.984	1604.82
848.163	1555.23
848.343	1585.64
848.522	1573.05
848.701	1595.52
848.881	1539.53
849.06	1568.4
849.239	1579.25
849.419	1584.87
849.598	1518.61
849.777	1508.53
849.957	1500.01
850.136	1438.78
850.315	1439.95
850.494	1423.48
850.674	1469.01
850.853	1473.66
851.032	1472.3
851.211	1475.79
851.39	1445.56
851.569	1428.9
851.748	1415.92
851.927	1500.59
852.107	1504.66
852.286	1416.7
852.465	1430.65
852.644	1471.72
852.823	1465.52
853.002	1446.92
853.181	1455.83
853.359	1454.28
853.538	1402.55
853.717	1459.9
853.896	1338.03
854.075	1274.87
854.254	1274.49
854.433	1240.19
854.611	1285.72
854.79	1224.5
854.969	1285.34
855.148	1332.42
855.327	1258.02
855.505	1322.92
855.684	1258.79
855.863	1335.71
856.041	1309.94
856.22	1324.08
856.399	1289.4
856.577	1408.95
856.756	1381.82
856.934	1500.01
857.113	1502.72
857.291	1412.82
857.47	1372.33
857.648	1428.9
857.827	1420.96
858.005	1450.6
858.184	1383.18
858.362	1463
858.541	1429.1
858.719	1396.55
858.898	1382.4
859.076	1358.77
859.254	1419.6
859.433	1365.93
859.611	1360.51
859.789	1297.54
859.967	1405.65
860.146	1446.34
860.324	1351.4
860.502	1347.92
860.68	1306.65
860.859	1326.99
861.037	1316.72
861.215	1351.21
861.393	1347.14
861.571	1343.27
861.749	1302
861.927	1359.35
862.105	1335.71
862.283	1338.23
862.461	1303.74
862.639	1275.45
862.817	1324.47
862.995	1299.48
863.173	1294.83
863.351	1292.12
863.529	1290.57
863.707	1333
863.885	1361.48
864.063	1241.35
864.241	1279.52
864.418	1350.05
864.596	1263.44
864.774	1243.87
864.952	1290.57
865.129	1319.82
865.307	1238.06
865.485	1224.69
865.663	1281.46
865.84	1217.33
866.018	1207.26
866.196	1089.07
866.373	1128.21
866.551	1094.11
866.728	1049.54
866.906	1091.2
867.084	1112.9
867.261	1128.59
867.439	1145.84
867.616	1150.29
867.794	1202.41
867.971	1174.9
868.149	1175.67
868.326	1248.72
868.503	1205.51
868.681	1169.47
868.858	1170.06
869.035	1162.69
869.213	1195.82
869.39	1158.24
869.567	1251.62
869.745	1184.78
869.922	1184.59
870.099	1177.03
870.276	1209.39
870.454	1214.81
870.631	1196.6
870.808	1184.39
870.985	1195.63
871.162	1243.87
871.339	1224.89
871.517	1135.18
871.694	1142.16
871.871	1167.54
872.048	1170.83
872.225	1161.92
872.402	1176.84
872.579	1130.72
872.756	1193.89
872.933	1112.32
873.11	1143.12
873.287	1190.21
873.463	1120.84
873.64	1122.01
873.817	1136.15
873.994	1155.33
874.171	1111.93
874.348	1140.41
874.524	1063.88
874.701	1099.53
874.878	1063.88
875.055	1100.5
875.231	1093.33
875.408	1109.8
875.585	1057.29
875.762	1081.13
875.938	1069.89
876.115	1090.43
876.291	1068.34
876.468	1077.83
876.645	1054.58
876.821	1065.43
876.998	1090.04
877.174	1049.54
877.351	1041.21
877.527	1052.64
877.704	1073.57
877.88	1069.89
878.057	1041.21
878.233	1063.3
878.409	1033.08
878.586	1065.63
878.762	1050.71
878.938	1058.84
879.115	998.2
879.291	1022.81
879.467	1004.98
879.644	999.95
879.82	1040.83
879.996	1005.37
880.172	964.88
880.349	1036.76
880.525	1010.41
880.701	995.68
880.877	967.4
881.053	1010.99
881.229	982.9
881.405	1047.22
881.581	957.51
881.757	954.41
881.933	1008.47
882.109	1044.89
882.285	981.93
882.461	964.88
882.637	986
882.813	989.87
882.989	966.81
883.165	1038.11
883.341	967.98
883.517	1008.08
883.693	1017
883.869	1001.69
884.044	944.53
884.22	1004.98
884.396	1040.05
884.572	997.23
884.747	1033.85
884.923	991.42
885.099	1037.34
885.275	1008.66
885.45	947.44
885.626	976.31
885.801	964.88
885.977	984.06
886.153	940.85
886.328	1014.28
886.504	953.64
886.679	984.06
886.855	958.29
887.03	1006.15
887.206	1011.96
887.381	986.77
887.557	967.4
887.732	983.09
887.908	984.25
888.083	1004.79
888.258	981.93
888.434	993.94
888.609	992.97
888.784	999.56
888.96	980.96
889.135	944.34
889.31	960.81
889.485	1011.57
889.661	1002.85
889.836	1017.77
890.011	1011.18
890.186	948.02
890.361	967.4
890.537	998.01
890.712	987.93
890.887	978.63
891.062	983.09
891.237	1045.28
891.412	946.28
891.587	1015.06
891.762	986.38
891.937	1014.67
892.112	930.39
892.287	961.78
892.462	924.77
892.637	905.4
892.812	884.08
892.987	898.03
893.161	898.62
893.336	892.42
893.511	898.62
893.686	880.4
893.861	885.44
894.035	876.33
894.21	878.85
894.385	801.35
894.56	868
894.734	835.07
894.909	796.12
895.084	803.29
895.258	809.3
895.433	794.57
895.608	783.92
895.782	750.4
895.957	773.65
896.131	767.45
896.306	681.62
896.48	679.49
896.655	667.48
896.829	653.33
897.004	639.58
897.178	652.75
897.353	622.91
897.527	673.48
897.701	644.81
897.876	612.45
898.05	678.52
898.224	650.62
898.399	673.29
898.573	620.78
898.747	543.09
898.921	561.88
899.096	496.59
899.27	540.57
899.444	523.13
899.618	544.45
899.792	562.66
899.967	565.95
900.141	600.83
900.315	541.73
900.489	526.23
900.663	566.15
900.837	553.36
901.011	537.47
901.185	578.35
901.359	550.06
901.533	576.8
901.707	576.61
901.881	515
902.055	528.95
902.229	560.72
902.403	592.5
902.576	557.04
902.75	579.51
902.924	652.36
903.098	604.31
903.272	666.12
903.446	708.55
903.619	666.89
903.793	712.04
903.967	693.44
904.14	737.81
904.314	702.74
904.488	673.68
904.661	730.44
904.835	709.13
905.009	728.7
905.182	772.49
905.356	715.14
905.529	736.06
905.703	665.15
905.876	677.94
906.05	644.81
906.223	640.54
906.397	583
906.57	576.41
906.744	556.65
906.917	555.3
907.09	554.71
907.264	538.63
907.437	525.26
907.61	497.75
907.784	514.61
907.957	549.87
908.13	510.73
908.304	550.26
908.477	480.9
908.65	514.42
908.823	452.61
908.996	522.16
909.17	496.98
909.343	471.6
909.516	484.77
909.689	496.4
909.862	477.99
910.035	497.37
910.208	463.46
910.381	461.72
910.554	543.86
910.727	506.28
910.9	461.91
911.073	460.94
911.246	529.14
911.419	529.33
911.592	508.8
911.765	484.19
911.938	445.44
912.11	486.32
912.283	501.43
912.456	531.08
912.629	486.32
912.802	456.29
912.974	428.97
913.147	399.14
913.32	349.73
913.493	427.62
913.665	430.72
913.838	401.65
914.01	419.67
914.183	460.36
914.356	408.05
914.528	474.12
914.701	474.12
914.873	462.68
915.046	415.02
915.218	377.82
915.391	341.59
915.563	372.79
915.736	412.5
915.908	425.1
916.081	390.42
916.253	422
916.425	412.7
916.598	446.6
916.77	418.32
916.942	390.22
917.115	311.17
917.287	427.23
917.459	373.37
917.632	332.49
917.804	319.51
917.976	394.68
918.148	389.25
918.32	404.75
918.493	418.32
918.665	463.07
918.837	433.82
919.009	479.93
919.181	473.34
919.353	467.72
919.525	466.37
919.697	448.93
919.869	459.78
920.041	501.63
920.213	536.7
920.385	513.45
920.557	454.35
920.729	487.87
920.901	454.35
921.073	453.77
921.244	425.29
921.416	490.97
921.588	442.15
921.76	425.87
921.932	512.48
922.103	424.71
922.275	468.88
922.447	459
922.619	405.34
922.79	429.75
922.962	415.22
923.134	441.18
923.305	382.09
923.477	390.61
923.648	385.77
923.82	420.45
923.991	347.02
924.163	343.14
924.335	388.67
924.506	368.91
924.677	418.32
924.849	363.68
925.02	369.1
925.192	408.24
925.363	377.05
925.535	377.24
925.706	371.04
925.877	411.92
926.049	363.87
926.22	400.69
926.391	402.62
926.562	411.92
926.734	373.95
926.905	424.13
927.076	324.74
927.247	328.42
927.419	327.06
927.59	289.47
927.761	322.61
927.932	311.17
928.103	332.49
928.274	240.84
928.445	268.55
928.616	293.93
928.787	255.57
928.958	279.4
929.129	259.83
929.3	261.57
929.471	213.14
929.642	175.55
929.813	135.83
929.984	243.17
930.155	170.51
930.326	200.74
930.496	187.56
930.667	114.91
930.838	178.26
931.009	118.78
931.18	139.71
931.35	148.43
931.521	134.86
931.692	110.45
931.863	65.5
932.033	109.68
932.204	112
932.374	101.73
932.545	69.38
932.716	135.64
932.886	127.89
933.057	48.65
933.227	59.69
933.398	148.23
933.568	46.32
933.739	29.66
933.909	63.95
934.08	89.72
934.25	3.31
934.421	35.86
934.591	63.57
934.761	34.31
934.932	13.58
935.102	62.4
935.272	34.7
935.443	48.65
935.613	49.62
935.783	57.37
935.953	0.02
936.123	173.42
936.294	7.77
936.464	27.14
936.634	24.62
936.804	-4.44
936.974	-1.92
937.144	67.25
937.314	36.83
937.484	34.7
937.655	14.93
937.825	70.93
937.995	-2.7
938.165	79.65
938.334	33.53
938.504	52.33
938.674	55.23
938.844	54.65
939.014	93.79
939.184	87.01
939.354	126.73
939.524	115.68
939.694	81.2
939.863	83.13
940.033	149.2
940.203	118.2
940.373	111.61
940.542	113.36
940.712	75.58
940.882	110.06
941.051	127.7
941.221	96.7
941.391	147.26
941.56	79.45
941.73	74.61
941.899	146.88
942.069	66.86
942.238	77.52
942.408	25.98
942.577	106
942.747	109.68
942.916	42.64
943.086	63.18
943.255	110.26
943.425	122.46
943.594	46.32
943.763	22.68
943.933	56.4
944.102	-9.86
944.271	55.23
944.441	61.63
944.61	48.84
944.779	60.47
944.948	143.2
945.117	29.47
945.287	68.02
945.456	18.62
945.625	30.24
945.794	54.07
945.963	21.91
946.132	81
946.301	47.68
946.47	67.83
946.639	-2.31
946.808	61.05
946.977	69.57
947.146	124.4
947.315	34.31
947.484	100.76
947.653	51.36
947.822	51.55
947.991	31.4
948.16	105.61
948.329	88.17
948.498	69.96
948.666	88.17
948.835	99.99
949.004	28.11
949.173	9.12
949.341	49.62
949.51	74.42
949.679	84.3
949.847	50
950.016	160.25
950.185	118.78
950.353	48.84
950.522	67.63
950.69	126.15
950.859	65.5
951.028	92.24
951.196	79.65
951.365	38.96
951.533	64.15
951.701	114.71
951.87	78.29
952.038	18.03
952.207	67.63
952.375	118.98
952.543	42.45
952.712	57.37
952.88	49.23
953.048	125.95
953.217	60.27
953.385	63.95
953.553	98.44
953.721	31.21
953.89	68.99
954.058	31.4
954.226	47.29
954.394	68.22
954.562	14.35
954.73	46.32
954.898	48.07
955.067	88.17
955.235	29.66
955.403	112.2
955.571	126.92
955.739	76.35
955.907	35.86
956.075	43.8
956.243	37.22
956.41	91.27
956.578	23.65
956.746	18.81
956.914	45.93
957.082	76.74
957.25	82.94
957.418	58.92
957.585	52.33
957.753	85.26
957.921	39.35
958.089	50
958.256	90.3
958.424	95.53
958.592	77.9
958.759	31.98
958.927	85.65
959.095	46.32
959.262	49.62
959.43	74.61
959.597	25.98
959.765	61.82
959.932	32.57
960.1	100.38
960.267	68.6
960.435	57.17
960.602	97.28
960.77	48.45
960.937	21.91
961.104	80.42
961.272	46.9
961.439	77.52
961.606	45.93
961.774	99.99
961.941	48.84
962.108	65.12
962.275	65.89
962.443	93.21
962.61	114.91
962.777	157.53
962.944	92.82
963.111	87.78
963.278	100.96
963.446	86.62
963.613	88.56
963.78	70.15
963.947	88.56
964.114	93.6
964.281	132.54
964.448	103.09
964.615	45.35
964.782	66.47
964.949	108.13
965.116	96.7
965.282	129.83
965.449	70.15
965.616	61.24
965.783	125.37
965.95	72.87
966.117	62.98
966.283	101.35
966.45	97.86
966.617	83.71
966.784	117.81
966.95	86.43
967.117	143.39
967.284	48.45
967.45	88.56
967.617	139.9
967.784	101.54
967.95	157.73
968.117	100.18
968.283	118.4
968.45	181.17
968.616	93.4
968.783	134.28
968.949	114.91
969.116	168.58
969.282	108.71
969.449	100.57
969.615	83.71
969.781	56.01
969.948	84.1
970.114	67.63
970.28	165.28
970.447	116.46
970.613	134.67
970.779	97.28
970.945	127.89
971.112	109.1
971.278	105.8
971.444	119.36
971.61	154.05
971.776	114.52
971.942	115.3
972.108	108.71
972.275	106.38
972.441	122.85
972.607	166.25
972.773	86.04
972.939	106.19
973.105	93.79
973.271	54.65
973.437	80.61
973.602	68.8
973.768	117.62
973.934	99.99
974.1	129.25
974.266	43.8
974.432	106
974.598	61.43
974.763	101.54
974.929	96.11
975.095	171.29
975.261	64.73
975.426	69.18
975.592	96.7
975.758	132.54
975.923	41.09
976.089	65.31
976.255	133.9
976.42	115.68
976.586	87.59
976.751	100.76
976.917	170.13
977.082	111.61
977.248	53.3
977.413	45.16
977.579	58.14
977.744	89.14
977.91	69.96
978.075	69.18
978.24	96.5
978.406	81.39
978.571	69.18
978.736	81.97
978.902	128.66
979.067	72.28
979.232	50.2
979.397	87.59
979.563	150.56
979.728	59.69
979.893	105.61
980.058	82.75
980.223	118.4
980.388	106.38
980.554	111.42
980.719	82.16
980.884	90.5
981.049	96.7
981.214	89.91
981.379	104.06
981.544	85.26
981.709	90.88
981.874	78.29
982.039	91.66
982.204	102.7
982.368	96.31
982.533	59.3
982.698	116.26
982.863	120.53
983.028	82.16
983.193	98.83
983.357	71.9
983.522	98.25
983.687	46.52
983.852	84.68
984.016	74.8
984.181	100.38
984.346	101.73
984.51	131.38
984.675	98.05
984.839	105.03
985.004	96.5
985.168	113.36
985.333	81.58
985.498	88.95
985.662	104.06
985.827	120.33
985.991	118.01
986.155	89.33
986.32	106.58
986.484	152.88
986.649	110.45
986.813	55.82
986.977	86.23
987.142	96.31
987.306	52.33
987.47	72.87
987.634	88.17
987.799	73.64
987.963	96.89
988.127	114.33
988.291	151.91
988.455	98.25
988.62	91.08
988.784	124.98
988.948	85.85
989.112	60.27
989.276	100.76
989.44	106.19
989.604	51.17
989.768	79.84
989.932	157.53
990.096	62.4
990.26	48.26
990.424	49.23
990.588	75.58
990.752	138.55
990.915	110.45
991.079	57.95
991.243	72.87
991.407	110.06
991.571	52.33
991.734	111.03
991.898	140.29
992.062	172.26
992.226	75.19
992.389	64.53
992.553	10.48
992.717	64.92
992.88	77.71
993.044	64.92
993.207	52.91
993.371	95.34
993.535	78.1
993.698	82.16
993.862	105.22
994.025	146.3
994.189	94.56
994.352	67.83
994.515	100.38
994.679	100.18
994.842	54.46
995.006	91.08
995.169	52.91
995.332	88.17
995.496	81
995.659	37.02
995.822	73.06
995.985	73.45
996.149	109.87
996.312	87.01
996.475	152.3
996.638	67.63
996.801	106.58
996.964	149.4
997.128	85.26
997.291	63.76
997.454	89.33
997.617	46.13
997.78	106.96
997.943	54.85
998.106	80.42
998.269	44.38
998.432	69.57
998.595	85.26
998.758	33.73
998.92	32.18
999.083	44.58
999.246	61.24
999.409	29.85
999.572	21.91
999.735	45.74
999.897	78.29
1000.06	76.93
1000.223	48.07
1000.386	92.05
1000.548	61.05
1000.711	104.45
1000.874	87.78
1001.036	28.69
1001.199	116.26
1001.361	49.42
1001.524	67.83
1001.687	74.61
1001.849	26.17
1002.012	77.9
1002.174	75
1002.337	54.46
1002.499	50.58
1002.661	91.08
1002.824	15.52
1002.986	47.68
1003.149	89.72
1003.311	34.89
1003.473	97.28
1003.636	52.72
1003.798	101.15
1003.96	107.16
1004.123	64.34
1004.285	38.18
1004.447	75.58
1004.609	53.68
1004.771	103.67
1004.933	10.09
1005.096	40.32
1005.258	-0.57
1005.42	41.48
1005.582	101.15
1005.744	51.17
1005.906	10.48
1006.068	73.45
1006.23	19.2
1006.392	47.1
1006.554	44.77
1006.716	80.03
1006.878	82.55
1007.04	15.52
1007.202	9.12
1007.363	63.95
1007.525	47.1
1007.687	78.29
1007.849	75.77
1008.011	30.43
1008.172	18.81
1008.334	24.82
1008.496	40.32
1008.658	-13.35
1008.819	24.04
1008.981	16.29
1009.143	-9.28
1009.304	19.97
1009.466	41.48
1009.627	112.58
1009.789	126.53
1009.95	54.07
1010.112	37.22
1010.273	60.47
1010.435	2.92
1010.596	42.45
1010.758	42.64
1010.919	23.65
1011.081	19.2
1011.242	35.86
1011.403	71.12
1011.565	38.77
1011.726	65.31
1011.887	13
1012.049	28.88
1012.21	53.88
1012.371	85.26
1012.532	-13.16
1012.693	49.81
1012.855	-4.05
1013.016	22.88
1013.177	71.12
1013.338	31.79
1013.499	107.93
1013.66	63.37
1013.821	66.86
1013.982	33.73
1014.143	65.7
1014.304	23.65
1014.465	46.71
1014.626	48.07
1014.787	17.26
1014.948	116.46
1015.109	-33.11
1015.27	73.25
1015.431	34.89
1015.592	31.98
1015.752	83.13
1015.913	57.56
1016.074	61.43
1016.235	39.73
1016.395	19.58
1016.556	49.62
1016.717	30.63
1016.877	56.78
1017.038	22.3
1017.199	18.62
1017.359	43.22
1017.52	33.53
1017.681	22.49
1017.841	54.46
1018.002	19.2
1018.162	23.85
1018.323	80.42
1018.483	31.02
1018.644	10.67
1018.804	21.13
1018.964	-4.44
1019.125	17.07
1019.285	45.93
1019.446	-28.85
1019.606	-7.73
1019.766	-29.05
1019.926	72.09
1020.087	24.23
1020.247	-11.8
1020.407	56.59
1020.567	50.2
1020.728	43.8
1020.888	11.25
1021.048	30.63
1021.208	2.73
1021.368	-19.75
1021.528	48.45
1021.688	53.68
1021.848	24.43
1022.008	3.7
1022.168	11.64
1022.328	54.65
1022.488	49.42
1022.648	10.28
1022.808	16.68
1022.968	58.53
1023.128	7.77
1023.288	0.6
1023.448	7.57
1023.608	19.58
1023.767	31.21
1023.927	3.5
1024.087	-6.18
1024.247	-34.66
1024.406	33.34
1024.566	-6.77
1024.726	-12.77
1024.885	54.27
1025.045	43.03
1025.205	17.65
1025.364	23.65
1025.524	23.07
1025.683	7.18
1025.843	29.08
1026.003	20.17
1026.162	78.48
1026.321	43.03
1026.481	27.33
1026.64	13
1026.8	25.4
1026.959	54.07
1027.119	11.45
1027.278	1.57
1027.437	-22.65
1027.597	6.8
1027.756	30.24
1027.915	51.94
1028.074	40.12
1028.234	7.96
1028.393	35.28
1028.552	12.22
1028.711	-30.79
1028.87	51.17
1029.03	-7.15
1029.189	23.27
1029.348	-13.55
1029.507	-38.93
1029.666	0.4
1029.825	9.32
1029.984	-4.05
1030.143	25.59
1030.302	18.42
1030.461	-43.77
1030.62	27.53
1030.779	23.07
1030.938	17.84
1031.097	-5.8
1031.255	38.77
1031.414	67.25
1031.573	58.92
1031.732	-9.48
1031.891	15.9
1032.049	84.49
1032.208	18.62
1032.367	9.32
1032.525	-24.4
1032.684	28.5
1032.843	24.43
1033.001	-37.18
1033.16	152.69
1033.319	74.8
1033.477	41.09
1033.636	-10.83
1033.794	-25.75
1033.953	21.13
1034.111	38.77
1034.27	1.18
1034.428	22.1
1034.587	5.83
1034.745	21.91
1034.903	13.77
1035.062	42.25
1035.22	-23.43
1035.378	42.83
1035.537	-16.26
1035.695	39.35
1035.853	18.23
1036.011	48.45
1036.17	20.36
1036.328	-50.75
1036.486	24.82
1036.644	23.07
1036.802	-61.98
1036.96	-10.45
1037.119	25.2
1037.277	10.28
1037.435	-24.59
1037.593	-41.83
1037.751	21.52
1037.909	43.61
1038.067	43.61
