Data from gum_young_FLMT105791__109__17-40-37-041.txt Node

Date: Mon Mar 20 17:40:37 GMT 2023
User: antho
Spectrometer: FLMT10579
Trigger mode: 0
Integration Time (sec): 1.000000E-1
Scans to average: 10
Electric dark correction enabled: true
Nonlinearity correction enabled: false
Boxcar width: 0
XAxis mode: Wavelengths
Number of Pixels in Spectrum: 3648
>>>>>Begin Spectral Data<<<<<
345.248	-151.99
345.464	-151.99
345.681	-151.99
345.898	-158
346.114	-120.61
346.331	-42.14
346.548	34.97
346.764	1.45
346.981	-26.64
347.197	-8.62
347.414	19.08
347.631	-38.27
347.847	57.45
348.064	6.1
348.28	40.4
348.497	-47.18
348.713	3.39
348.93	19.08
349.146	34.2
349.363	-11.33
349.579	1.07
349.796	5.91
350.012	7.65
350.229	28.58
350.445	26.64
350.661	-4.36
350.878	9.4
351.094	15.21
351.311	10.75
351.527	-14.43
351.743	-3.58
351.96	51.63
352.176	43.5
352.392	35.55
352.609	38.85
352.825	0.48
353.041	-5.91
353.257	-3.97
353.474	5.33
353.69	27.8
353.906	8.04
354.122	-7.07
354.339	64.03
354.555	-10.17
354.771	4.17
354.987	60.35
355.203	62.1
355.42	9.59
355.636	-9.98
355.852	0.1
356.068	4.55
356.284	-13.85
356.5	42.72
356.716	-16.18
356.932	3.2
357.148	36.72
357.364	30.13
357.58	35.17
357.796	57.64
358.012	53.96
358.228	40.4
358.444	-36.13
358.66	37.1
358.876	38.65
359.092	17.92
359.308	34.39
359.524	29.74
359.74	6.3
359.956	-17.73
360.172	6.88
360.388	32.26
360.604	1.84
360.819	77.01
361.035	28.19
361.251	48.34
361.467	-13.47
361.683	50.28
361.898	32.65
362.114	44.66
362.33	4.36
362.546	49.89
362.762	6.68
362.977	-0.29
363.193	12.69
363.409	43.5
363.624	-28.97
363.84	-8.04
364.056	9.2
364.271	9.98
364.487	15.79
364.703	24.12
364.918	-33.42
365.134	10.37
365.35	-6.88
365.565	114.21
365.781	34.58
365.996	8.04
366.212	66.75
366.427	18.89
366.643	-0.68
366.858	34.39
367.074	-3
367.289	65.58
367.505	121.96
367.72	-3.2
367.936	21.99
368.151	61.9
368.367	28.58
368.582	29.55
368.798	-13.08
369.013	93.1
369.228	31.87
369.444	15.6
369.659	68.49
369.874	37.49
370.09	53.38
370.305	-13.27
370.52	23.35
370.736	59.77
370.951	29.55
371.166	45.82
371.381	77.98
371.597	42.33
371.812	6.3
372.027	-10.95
372.242	16.18
372.458	70.62
372.673	14.82
372.888	35.17
373.103	54.93
373.318	90.38
373.533	55.9
373.749	20.63
373.964	-16.76
374.179	62.29
374.394	5.52
374.609	46.6
374.824	-9.2
375.039	67.33
375.254	7.85
375.469	76.82
375.684	38.46
375.899	69.65
376.114	32.84
376.329	45.63
376.544	63.45
376.759	47.37
376.974	29.55
377.189	-0.87
377.404	13.27
377.619	59.19
377.834	-9.2
378.049	-15.21
378.264	-1.07
378.478	19.86
378.693	10.17
378.908	25.28
379.123	17.34
379.338	60.55
379.553	28.77
379.767	33.42
379.982	43.3
380.197	44.85
380.412	28.38
380.626	60.55
380.841	103.95
381.056	44.66
381.271	72.36
381.485	26.83
381.7	14.43
381.915	50.66
382.129	21.6
382.344	55.9
382.559	11.72
382.773	64.03
382.988	-9.2
383.202	36.72
383.417	15.98
383.632	99.49
383.846	21.8
384.061	55.7
384.275	-9.01
384.49	56.67
384.704	37.68
384.919	16.37
385.133	40.98
385.348	41.17
385.562	-0.68
385.777	83.21
385.991	44.27
386.206	33.62
386.42	24.32
386.634	55.31
386.849	49.31
387.063	47.56
387.277	14.05
387.492	35.75
387.706	-11.72
387.92	16.76
388.135	59.19
388.349	45.43
388.563	14.82
388.778	73.33
388.992	67.33
389.206	65.39
389.42	109.37
389.635	44.27
389.849	59.77
390.063	80.11
390.277	56.09
390.491	99.88
390.706	25.48
390.92	67.91
391.134	80.89
391.348	68.3
391.562	9.78
391.776	46.01
391.99	32.65
392.205	77.4
392.419	52.6
392.633	42.14
392.847	106.66
393.061	25.28
393.275	108.01
393.489	33.42
393.703	33.42
393.917	86.9
394.131	23.54
394.345	62.87
394.559	102.01
394.773	56.28
394.986	68.68
395.2	38.07
395.414	85.54
395.628	27.61
395.842	58.41
396.056	55.12
396.27	22.38
396.484	58.41
396.697	58.41
396.911	72.95
397.125	66.16
397.339	88.45
397.553	56.28
397.766	97.75
397.98	71.2
398.194	110.34
398.408	72.36
398.621	64.42
398.835	97.36
399.049	90.58
399.262	126.23
399.476	98.52
399.69	84.76
399.903	132.43
400.117	70.62
400.331	106.46
400.544	80.31
400.758	201.98
400.971	88.45
401.185	116.15
401.398	78.37
401.612	124.1
401.826	97.55
402.039	139.59
402.253	93.68
402.466	117.12
402.68	92.71
402.893	101.62
403.106	94.65
403.32	81.86
403.533	105.88
403.747	90.96
403.96	103.95
404.174	117.7
404.387	70.81
404.6	114.99
404.814	122.74
405.027	83.6
405.24	120.61
405.454	101.81
405.667	119.06
405.88	40.4
406.094	112.28
406.307	133.59
406.52	113.83
406.733	96
406.947	50.47
407.16	159.74
407.373	158
407.586	91.16
407.799	87.86
408.012	117.31
408.226	100.65
408.439	157.03
408.652	57.64
408.865	126.81
409.078	148.7
409.291	132.62
409.504	91.74
409.717	130.1
409.93	110.53
410.143	123.13
410.357	39.23
410.57	69.26
410.783	104.91
410.996	125.26
411.209	99.3
411.421	161.1
411.634	126.03
411.847	108.98
412.06	128.16
412.273	124.68
412.486	129.91
412.699	187.06
412.912	148.51
413.125	132.23
413.338	128.16
413.55	158.19
413.763	123.32
413.976	160.13
414.189	91.16
414.402	114.21
414.615	172.73
414.827	109.18
415.04	154.32
415.253	153.93
415.466	156.06
415.678	198.3
415.891	133.39
416.104	119.64
416.316	117.31
416.529	112.28
416.742	140.95
416.954	154.71
417.167	140.18
417.38	143.28
417.592	157.42
417.805	125.45
418.017	80.5
418.23	164.59
418.442	141.34
418.655	135.72
418.868	140.56
419.08	170.98
419.293	174.47
419.505	169.43
419.718	143.47
419.93	195.39
420.142	164.2
420.355	178.73
420.567	171.18
420.78	168.46
420.992	139.79
421.205	170.98
421.417	144.83
421.629	150.06
421.842	144.44
422.054	109.95
422.266	201.4
422.479	177.38
422.691	139.4
422.903	189.19
423.115	134.36
423.328	148.12
423.54	174.66
423.752	162.07
423.964	120.03
424.177	155.87
424.389	138.24
424.601	248.29
424.813	200.43
425.025	166.14
425.238	186.48
425.45	121.19
425.662	160.52
425.874	449.2
426.086	159.94
426.298	177.96
426.51	197.72
426.722	158.39
426.934	162.07
427.146	189.39
427.358	134.36
427.57	209.34
427.782	157.23
427.994	176.79
428.206	148.12
428.418	144.24
428.63	198.11
428.842	219.03
429.054	176.41
429.266	174.28
429.478	153.74
429.69	179.7
429.902	143.47
430.114	206.63
430.325	165.94
430.537	143.28
430.749	162.26
430.961	101.43
431.173	151.8
431.384	156.84
431.596	101.04
431.808	150.44
432.02	198.3
432.231	207.6
432.443	234.72
432.655	208.96
432.867	182.8
433.078	195.78
433.29	269.99
433.502	197.91
433.713	250.22
433.925	198.11
434.136	248.87
434.348	158.19
434.56	163.23
434.771	271.73
434.983	132.62
435.194	207.79
435.406	206.63
435.617	241.12
435.829	282.77
436.04	214.96
436.252	257.97
436.463	283.36
436.675	255.26
436.886	228.91
437.098	243.44
437.309	293.04
437.521	241.7
437.732	255.46
437.943	247.32
438.155	217.29
438.366	161.29
438.578	287.23
438.789	211.67
439	237.24
439.211	206.83
439.423	241.31
439.634	254.87
439.845	236.66
440.057	239.76
440.268	261.07
440.479	220.19
440.69	229.49
440.902	231.82
441.113	232.59
441.324	232.79
441.535	288.2
441.746	294.79
441.957	213.22
442.168	262.62
442.38	304.47
442.591	298.66
442.802	256.81
443.013	247.51
443.224	283.16
443.435	260.88
443.646	258.75
443.857	242.67
444.068	246.16
444.279	256.62
444.49	326.95
444.701	251.39
444.912	360.66
445.123	334.12
445.334	289.17
445.545	292.27
445.756	270.76
445.967	262.82
446.178	286.84
446.388	300.41
446.599	320.94
446.81	314.94
447.021	275.8
447.232	327.14
447.443	310.29
447.653	278.12
447.864	324.62
448.075	303.12
448.286	323.46
448.496	350.39
448.707	390.5
448.918	288.78
449.129	382.55
449.339	279.87
449.55	338.38
449.761	324.82
449.971	386.04
450.182	299.63
450.393	340.32
450.603	321.52
450.814	374.61
451.024	355.04
451.235	395.53
451.446	384.49
451.656	403.48
451.867	315.32
452.077	349.42
452.288	399.02
452.498	372.09
452.709	355.04
452.919	340.12
453.13	328.69
453.34	369.77
453.55	276.38
453.761	383.91
453.971	362.4
454.182	364.92
454.392	358.34
454.602	418.4
454.813	357.56
455.023	389.34
455.233	315.13
455.444	360.85
455.654	277.74
455.864	359.89
456.075	377.9
456.285	301.76
456.495	364.15
456.705	370.15
456.916	385.65
457.126	432.54
457.336	368.6
457.546	342.84
457.756	376.94
457.967	380.81
458.177	353.49
458.387	396.89
458.597	375
458.807	395.73
459.017	370.74
459.227	377.13
459.437	350.2
459.647	400.57
459.857	398.05
460.068	366.28
460.278	418.01
460.488	388.37
460.698	444.75
460.908	391.66
461.117	348.26
461.327	364.92
461.537	396.89
461.747	378.68
461.957	385.85
462.167	504.61
462.377	417.04
462.587	415.88
462.797	452.69
463.007	409.68
463.216	441.65
463.426	452.88
463.636	453.08
463.846	380.23
464.056	361.24
464.265	426.15
464.475	371.9
464.685	416.27
464.895	445.52
465.104	439.32
465.314	445.72
465.524	407.55
465.733	405.42
465.943	495.51
466.153	479.04
466.362	476.72
466.572	452.11
466.782	415.3
466.991	457.92
467.201	476.33
467.41	383.91
467.62	437.77
467.829	444.55
468.039	455.79
468.249	431.18
468.458	454.24
468.668	465.87
468.877	481.75
469.086	497.25
469.296	529.61
469.505	449.78
469.715	491.63
469.924	483.5
470.134	500.55
470.343	488.73
470.552	462.77
470.762	462.38
470.971	417.23
471.18	473.42
471.39	461.6
471.599	422.08
471.808	517.79
472.018	454.82
472.227	514.11
472.436	528.45
472.645	506.55
472.855	473.42
473.064	543.56
473.273	527.67
473.482	536.39
473.691	548.98
473.901	542.98
474.11	498.41
474.319	592.19
474.528	530.38
474.737	576.49
474.946	544.53
475.155	519.34
475.364	564.29
475.573	563.51
475.783	572.43
475.992	586.57
476.201	593.74
476.41	566.23
476.619	553.44
476.828	539.49
477.037	563.9
477.245	574.36
477.454	616.02
477.663	569.52
477.872	602.26
478.081	652.64
478.29	587.34
478.499	674.34
478.708	626.48
478.917	659.22
479.125	635.59
479.334	668.52
479.543	607.49
479.752	680.15
479.961	649.93
480.169	719.09
480.378	645.08
480.587	763.07
480.796	691.58
481.004	677.63
481.213	701.46
481.422	697.01
481.63	672.21
481.839	719.87
482.048	768.5
482.256	687.9
482.465	724.52
482.674	731.3
482.882	757.07
483.091	792.72
483.299	703.79
483.508	746.41
483.716	734.21
483.925	730.91
484.134	711.54
484.342	736.92
484.551	776.44
484.759	763.65
484.967	759.2
485.176	760.94
485.384	794.27
485.593	769.85
485.801	748.15
486.01	743.5
486.218	693.91
486.426	661.55
486.635	669.69
486.843	656.9
487.051	683.06
487.26	722.19
487.468	731.3
487.676	750.09
487.885	736.53
488.093	766.17
488.301	790.78
488.509	801.24
488.717	823.72
488.926	782.64
489.134	805.7
489.342	822.75
489.55	743.31
489.758	820.23
489.967	816.74
490.175	925.43
490.383	829.14
490.591	915.17
490.799	834.57
491.007	897.15
491.215	877
491.423	860.72
491.631	877
491.839	864.6
492.047	903.15
492.255	842.7
492.463	822.17
492.671	833.79
492.879	910.13
493.087	877.58
493.295	892.5
493.503	898.5
493.711	928.15
493.919	957.98
494.127	946.36
494.334	935.9
494.542	891.72
494.75	920.59
494.958	929.89
495.166	981.04
495.374	988.21
495.581	997.51
495.789	940.55
495.997	1021.53
496.205	927.56
496.412	971.74
496.62	978.52
496.828	994.41
497.035	974.26
497.243	1028.7
497.451	1010.88
497.658	1027.15
497.866	992.86
498.074	1054.66
498.281	983.17
498.489	1065.51
498.696	1022.69
498.904	954.3
499.112	1017.46
499.319	1084.69
499.527	1040.13
499.734	1070.36
499.942	991.7
500.149	1030.83
500.357	1047.88
500.564	1029.86
500.771	1035.87
500.979	997.12
501.186	981.43
501.394	1045.94
501.601	994.02
501.808	1062.22
502.016	1034.32
502.223	1047.49
502.43	1075.78
502.638	1056.21
502.845	1047.49
503.052	1150.18
503.26	1057.96
503.467	1147.47
503.674	1097.67
503.881	1105.81
504.089	1206.37
504.296	1117.63
504.503	1095.35
504.71	1109.3
504.917	1089.15
505.125	1140.88
505.332	1147.66
505.539	1141.46
505.746	1259.26
505.953	1231.36
506.16	1210.05
506.367	1247.83
506.574	1256.16
506.781	1298.4
506.988	1204.62
507.195	1244.73
507.402	1224
507.609	1276.7
507.816	1214.89
508.023	1247.25
508.23	1228.45
508.437	1198.62
508.644	1281.73
508.851	1328.04
509.058	1335.21
509.265	1347.8
509.472	1367.56
509.679	1413.29
509.885	1361.95
510.092	1375.51
510.299	1371.44
510.506	1385.2
510.713	1347.22
510.92	1388.49
511.126	1417.36
511.333	1441
511.54	1450.1
511.746	1500.86
511.953	1523.92
512.16	1510.74
512.367	1486.33
512.573	1492.92
512.78	1471.41
512.987	1492.92
513.193	1465.41
513.4	1409.61
513.606	1480.71
513.813	1522.18
514.02	1524.31
514.226	1581.07
514.433	1533.8
514.639	1509.39
514.846	1548.72
515.052	1511.13
515.259	1546.78
515.465	1583.21
515.672	1621.18
515.878	1668.45
516.085	1642.88
516.291	1675.24
516.497	1620.79
516.704	1624.86
516.91	1579.52
517.117	1504.16
517.323	1495.83
517.529	1484.78
517.736	1520.04
517.942	1543.1
518.148	1553.95
518.354	1627.57
518.561	1630.48
518.767	1589.79
518.973	1683.95
519.179	1699.65
519.386	1726
519.592	1716.7
519.798	1718.63
520.004	1825.39
520.21	1810.66
520.417	1858.33
520.623	1893.98
520.829	1903.47
521.035	1899.79
521.241	1922.07
521.447	1956.75
521.653	2060.6
521.859	1977.67
522.065	2008.48
522.271	2094.31
522.477	2060.6
522.683	2071.25
522.889	2064.67
523.095	2064.28
523.301	2077.84
523.507	2039.87
523.713	2080.17
523.919	2050.72
524.125	2185.57
524.331	2166.77
524.537	2253.38
524.742	2230.51
524.948	2260.74
525.154	2285.73
525.36	2352.19
525.566	2261.71
525.772	2322.74
525.977	2256.48
526.183	2261.71
526.389	2287.86
526.595	2215.4
526.8	2214.82
527.006	2167.93
527.212	2122.21
527.417	2114.65
527.623	2127.83
527.829	2227.61
528.034	2264.81
528.24	2217.15
528.446	2298.52
528.651	2373.69
528.857	2421.16
529.062	2453.13
529.268	2475.22
529.473	2482.77
529.679	2514.94
529.884	2563.57
530.09	2566.86
530.295	2535.86
530.501	2522.49
530.706	2556.59
530.912	2541.87
531.117	2577.13
531.323	2593.79
531.528	2632.35
531.733	2628.86
531.939	2619.17
532.144	2632.73
532.35	2614.72
532.555	2654.43
532.76	2631.57
532.966	2570.15
533.171	2590.3
533.376	2504.09
533.581	2540.7
533.787	2569.38
533.992	2641.84
534.197	2650.56
534.402	2631.38
534.607	2649.98
534.813	2745.69
535.018	2644.17
535.223	2690.47
535.428	2668
535.633	2773.59
535.838	2772.81
536.043	2788.51
536.249	2872.98
536.454	2806.72
536.659	2830.55
536.864	2741.62
537.069	2763.13
537.274	2761.96
537.479	2761.19
537.684	2755.57
537.889	2724.76
538.094	2827.45
538.299	2787.15
538.504	2847.79
538.708	2838.11
538.913	2881.31
539.118	2859.61
539.323	2848.57
539.528	2802.26
539.733	2806.33
539.938	2850.89
540.142	2813.5
540.347	2811.37
540.552	2772.43
540.757	2751.31
540.962	2789.67
541.166	2699.38
541.371	2734.84
541.576	2747.43
541.781	2664.7
541.985	2817.18
542.19	2798.19
542.395	2856.51
542.599	2903.01
542.804	2854.38
543.008	2935.75
543.213	2853.99
543.418	2815.83
543.622	2889.26
543.827	2798.39
544.031	2899.14
544.236	2910.18
544.44	2931.3
544.645	3006.47
544.849	2966.17
545.054	2988.84
545.258	3047.74
545.463	3020.03
545.667	2920.26
545.872	2966.37
546.076	2964.24
546.281	2957.84
546.485	2941.18
546.689	2984.39
546.894	3003.76
547.098	2968.3
547.302	2903.01
547.507	2965.98
547.711	3010.15
547.915	3006.28
548.119	2905.72
548.324	2905.53
548.528	3031.66
548.732	2954.55
548.936	3032.05
549.141	3041.73
549.345	3002.79
549.549	3029.92
549.753	3002.79
549.957	3102.96
550.161	3086.68
550.366	3010.74
550.57	3004.92
550.774	3003.37
550.978	3046
551.182	3021.2
551.386	3043.87
551.59	2996.79
551.794	2996.4
551.998	3043.09
552.202	3025.07
552.406	2969.85
552.61	3058.98
552.814	3024.3
553.018	3062.08
553.222	2979.35
553.426	3003.18
553.63	3063.82
553.833	3048.52
554.037	2988.07
554.241	3019.84
554.445	3045.42
554.649	3056.27
554.853	3038.44
555.056	3068.86
555.26	3082.81
555.464	3008.41
555.668	3032.43
555.871	3077.58
556.075	3074.28
556.279	2993.3
556.483	2984
556.686	3002.99
556.89	2985.74
557.094	2990.59
557.297	2928.2
557.501	3017.71
557.704	2913.28
557.908	2950.48
558.112	2905.92
558.315	2964.04
558.519	2914.25
558.722	2866.39
558.926	2866.59
559.129	2789.48
559.333	2825.51
559.536	2813.69
559.74	2794.32
559.943	2790.06
560.147	2757.31
560.35	2811.76
560.553	2822.03
560.757	2780.95
560.96	2881.12
561.164	2824.35
561.367	2961.33
561.57	2825.51
561.774	2842.56
561.977	2802.46
562.18	2747.82
562.384	2866.01
562.587	2778.82
562.79	2741.81
562.993	2767.97
563.197	2805.75
563.4	2848.18
563.603	2824.74
563.806	2858.26
564.009	2755.18
564.212	2809.43
564.416	2703.26
564.619	2744.33
564.822	2689.11
565.025	2791.99
565.228	2734.84
565.431	2760.41
565.634	2606.19
565.837	2656.37
566.04	2631.57
566.243	2619.37
566.446	2502.34
566.649	2606.38
566.852	2550.97
567.055	2598.83
567.258	2620.33
567.461	2670.9
567.664	2653.27
567.867	2582.75
568.07	2610.26
568.273	2598.25
568.475	2610.07
568.678	2517.26
568.881	2518.62
569.084	2433.37
569.287	2411.47
569.489	2428.72
569.692	2466.5
569.895	2475.22
570.098	2371.18
570.3	2381.25
570.503	2311.11
570.706	2359.74
570.909	2306.08
571.111	2276.43
571.314	2260.74
571.516	2294.26
571.719	2277.6
571.922	2290.58
572.124	2279.73
572.327	2312.47
572.529	2247.56
572.732	2248.92
572.935	2273.14
573.137	2348.51
573.34	2276.63
573.542	2323.32
573.745	2296.58
573.947	2283.41
574.15	2255.31
574.352	2252.99
574.554	2270.43
574.757	2176.85
574.959	2173.94
575.162	2172.39
575.364	2159.8
575.566	2261.13
575.769	2156.89
575.971	2169.29
576.173	2053.24
576.376	2105.16
576.578	2107.68
576.78	2169.87
576.982	2073
577.185	2159.6
577.387	2073.97
577.589	2096.05
577.791	2103.8
577.993	2111.94
578.196	2100.9
578.398	2099.15
578.6	2106.52
578.802	2032.12
579.004	2018.17
579.206	1995.69
579.408	2081.91
579.61	2007.9
579.812	2072.61
580.014	2028.82
580.216	2022.62
580.418	2067.77
580.62	2008.09
580.822	2002.67
581.024	2072.22
581.226	2104.77
581.428	2046.65
581.63	2153.98
581.832	2044.91
582.034	2111.55
582.236	2054.4
582.438	2106.71
582.64	2133.64
582.841	2129.96
583.043	2199.32
583.245	2076.29
583.447	2125.7
583.649	2108.65
583.85	2101.09
584.052	2101.87
584.254	2061.18
584.456	2102.45
584.657	2029.99
584.859	2089.85
585.061	2066.22
585.262	2026.69
585.464	2003.06
585.666	2087.14
585.867	2001.89
586.069	2038.51
586.27	2029.79
586.472	2007.32
586.674	1954.04
586.875	1988.72
587.077	1993.56
587.278	2001.7
587.48	1945.13
587.681	2075.71
587.883	1974.96
588.084	1951.33
588.285	1933.5
588.487	1951.13
588.688	1932.92
588.89	1826.36
589.091	1780.63
589.292	1773.47
589.494	1700.81
589.695	1688.41
589.896	1600.26
590.098	1626.6
590.299	1680.08
590.5	1694.61
590.702	1721.15
590.903	1719.99
591.104	1783.93
591.305	1784.32
591.507	1846.9
591.708	1847.86
591.909	1794.2
592.11	1868.4
592.311	1786.25
592.512	1757.97
592.714	1710.3
592.915	1756.61
593.116	1785.67
593.317	1791.1
593.518	1803.69
593.719	1805.05
593.92	1804.46
594.121	1803.69
594.322	1783.15
594.523	1805.05
594.724	1751.18
594.925	1742.66
595.126	1760.29
595.327	1767.65
595.528	1802.33
595.729	1790.9
595.929	1768.23
596.13	1743.63
596.331	1800.78
596.532	1803.5
596.733	1878.48
596.934	1815.51
597.135	1825.39
597.335	1830.23
597.536	1765.13
597.737	1822.1
597.938	1805.05
598.138	1826.55
598.339	1756.22
598.54	1823.45
598.74	1771.72
598.941	1812.02
599.142	1850.77
599.342	1781.02
599.543	1771.72
599.744	1787.22
599.944	1799.04
600.145	1773.85
600.345	1797.68
600.546	1837.21
600.746	1813.18
600.947	1844.38
601.147	1802.14
601.348	1835.46
601.548	1785.28
601.749	1778.7
601.949	1731.62
602.15	1768.62
602.35	1723.48
602.551	1760.1
602.751	1713.79
602.951	1726.77
603.152	1665.94
603.352	1775.79
603.552	1762.81
603.753	1820.74
603.953	1785.09
604.153	1776.18
604.354	1791.1
604.554	1744.98
604.754	1766.88
604.954	1744.6
605.155	1793.03
605.355	1751.96
605.555	1786.45
605.755	1820.55
605.955	1764.75
606.155	1772.5
606.356	1743.24
606.556	1731.23
606.756	1775.6
606.956	1733.75
607.156	1808.92
607.356	1690.74
607.556	1778.12
607.756	1742.08
607.956	1768.43
608.156	1757
608.356	1711.47
608.556	1730.65
608.756	1721.73
608.956	1704.68
609.156	1704.49
609.356	1682.79
609.556	1679.69
609.755	1712.43
609.955	1671.94
610.155	1672.33
610.355	1683.95
610.555	1632.8
610.755	1664.39
610.954	1605.49
611.154	1652.57
611.354	1686.09
611.554	1593.47
611.753	1635.52
611.953	1597.35
612.153	1650.05
612.352	1622.92
612.552	1618.66
612.752	1567.71
612.951	1627.96
613.151	1607.23
613.351	1583.4
613.55	1602
613.75	1636.49
613.949	1578.36
614.149	1589.6
614.348	1563.06
614.548	1537.48
614.747	1522.95
614.947	1555.69
615.146	1458.63
615.346	1594.64
615.545	1569.64
615.745	1558.41
615.944	1566.93
616.144	1530.89
616.343	1551.82
616.542	1497.96
616.742	1487.69
616.941	1491.37
617.14	1464.83
617.34	1489.82
617.539	1503.96
617.738	1468.31
617.938	1529.73
618.137	1481.49
618.336	1459.98
618.535	1485.17
618.734	1460.56
618.934	1503.58
619.133	1498.73
619.332	1515.39
619.531	1470.25
619.73	1475.48
619.929	1493.31
620.128	1510.55
620.328	1532.64
620.527	1450.29
620.726	1498.73
620.925	1470.06
621.124	1448.16
621.323	1465.02
621.522	1416.39
621.721	1450.88
621.92	1410.19
622.119	1489.43
622.318	1429.37
622.517	1437.12
622.715	1426.08
622.914	1405.35
623.113	1427.43
623.312	1368.34
623.511	1430.53
623.71	1383.06
623.909	1376.28
624.107	1463.08
624.306	1353.03
624.505	1382.87
624.704	1368.34
624.902	1366.21
625.101	1427.63
625.3	1378.8
625.499	1321.84
625.697	1350.32
625.896	1326.88
626.095	1358.46
626.293	1304.4
626.492	1347.8
626.69	1332.3
626.889	1322.23
627.088	1336.95
627.286	1332.88
627.485	1311.57
627.683	1310.02
627.882	1319.32
628.08	1229.62
628.279	1242.02
628.477	1346.83
628.676	1223.42
628.874	1304.21
629.073	1238.53
629.271	1253.84
629.469	1250.15
629.668	1263.52
629.866	1271.08
630.065	1263.72
630.263	1273.6
630.461	1212.57
630.66	1281.15
630.858	1278.63
631.056	1338.12
631.254	1349.55
631.453	1256.16
631.651	1329.98
631.849	1285.8
632.047	1294.72
632.245	1273.6
632.444	1296.27
632.642	1282.32
632.84	1303.82
633.038	1259.65
633.236	1228.07
633.434	1269.53
633.632	1207.92
633.83	1266.82
634.028	1321.07
634.227	1290.45
634.425	1354.58
634.623	1296.85
634.821	1287.55
635.019	1284.06
635.216	1260.42
635.414	1349.16
635.612	1281.15
635.81	1257.32
636.008	1351.48
636.206	1297.43
636.404	1305.18
636.602	1269.14
636.8	1291.81
636.997	1287.16
637.195	1313.51
637.393	1283.48
637.591	1337.53
637.789	1296.65
637.986	1294.72
638.184	1284.06
638.382	1296.46
638.58	1316.61
638.777	1311.38
638.975	1251.32
639.173	1295.49
639.37	1280.57
639.568	1275.53
639.765	1274.76
639.963	1255.19
640.161	1307.31
640.358	1293.36
640.556	1208.89
640.753	1209.47
640.951	1169.17
641.148	1231.55
641.346	1207.53
641.543	1222.25
641.741	1247.44
641.938	1157.74
642.136	1184.67
642.333	1180.99
642.531	1211.99
642.728	1257.13
642.925	1193.58
643.123	1177.31
643.32	1236.2
643.517	1133.13
643.715	1195.9
643.912	1139.72
644.109	1181.95
644.306	1182.34
644.504	1124.41
644.701	1204.24
644.898	1173.43
645.095	1140.88
645.293	1158.32
645.49	1163.74
645.687	1162.77
645.884	1131.39
646.081	1067.06
646.278	1107.56
646.475	1086.44
646.672	1075.39
646.87	1077.14
647.067	1094.19
647.264	1093.99
647.461	1040.52
647.658	1041.1
647.855	1062.03
648.052	1022.5
648.249	974.45
648.446	1004.68
648.642	1008.94
648.839	990.15
649.036	1017.27
649.233	974.84
649.43	980.46
649.627	951.01
649.824	968.64
650.021	973.87
650.217	973.48
650.414	957.21
650.611	1018.82
650.808	1008.16
651.004	988.98
651.201	990.92
651.398	1051.95
651.595	1026.38
651.791	989.37
651.988	1044.98
652.185	944.42
652.381	1018.04
652.578	942.68
652.775	986.08
652.971	990.73
653.168	990.92
653.364	1016.88
653.561	954.3
653.757	979.88
653.954	1009.33
654.15	953.14
654.347	1007
654.543	981.04
654.74	918.46
654.936	939.58
655.133	944.81
655.329	952.36
655.525	933.76
655.722	970.58
655.918	914.97
656.115	903.93
656.311	836.12
656.507	825.46
656.704	771.02
656.9	830.69
657.096	818.49
657.292	836.31
657.489	879.32
657.685	869.25
657.881	859.75
658.077	882.42
658.273	873.51
658.47	943.06
658.666	881.45
658.862	911.68
659.058	885.52
659.254	965.15
659.45	892.5
659.646	902.96
659.842	881.84
660.038	960.31
660.234	871.18
660.43	905.09
660.626	976
660.822	922.14
661.018	919.04
661.214	912.84
661.41	859.37
661.606	961.08
661.802	927.37
661.998	901.22
662.194	868.08
662.39	926.01
662.586	894.24
662.781	905.48
662.977	911.48
663.173	928.92
663.369	883.58
663.564	885.33
663.76	914.97
663.956	856.27
664.152	883
664.347	856.27
664.543	864.4
664.739	869.83
664.934	834.37
665.13	831.66
665.326	893.08
665.521	862.08
665.717	801.24
665.912	827.01
666.108	749.9
666.304	819.07
666.499	834.95
666.695	768.89
666.89	811.32
667.086	840.18
667.281	832.43
667.477	897.53
667.672	847.93
667.867	811.12
668.063	821.78
668.258	789.04
668.454	806.67
668.649	878.93
668.844	808.6
669.04	843.87
669.235	799.89
669.43	802.6
669.626	761.33
669.821	773.54
670.016	759.97
670.211	791.36
670.407	754.16
670.602	764.04
670.797	776.25
670.992	806.28
671.187	780.7
671.382	823.14
671.578	766.75
671.773	791.36
671.968	740.02
672.163	779.54
672.358	818.49
672.553	731.49
672.748	751.06
672.943	852.2
673.138	778.19
673.333	847.35
673.528	752.42
673.723	811.9
673.918	771.4
674.113	746.22
674.308	834.18
674.503	803.37
674.698	819.84
674.892	797.56
675.087	783.03
675.282	824.3
675.477	742.73
675.672	807.83
675.867	769.85
676.061	760.36
676.256	756.87
676.451	736.92
676.646	774.12
676.84	737.31
677.035	705.72
677.23	745.83
677.424	818.49
677.619	820.81
677.814	806.86
678.008	799.69
678.203	704.76
678.397	770.24
678.592	750.67
678.787	820.42
678.981	766.75
679.176	821.2
679.37	776.25
679.565	754.16
679.759	756.1
679.954	784.58
680.148	815
680.342	852.2
680.537	811.9
680.731	777.22
680.926	813.45
681.12	831.66
681.314	782.45
681.509	782.64
681.703	794.07
681.897	809.38
682.092	780.9
682.286	771.6
682.48	867.7
682.674	810.74
682.869	788.26
683.063	817.32
683.257	862.47
683.451	778.77
683.645	843.87
683.839	822.36
684.034	816.74
684.228	865.76
684.422	787.68
684.616	762.88
684.81	842.9
685.004	808.41
685.198	803.18
685.392	839.99
685.586	808.02
685.78	829.72
685.974	886.88
686.168	851.03
686.362	864.98
686.556	801.63
686.75	740.21
686.944	731.49
687.138	726.46
687.331	662.52
687.525	661.16
687.719	607.3
687.913	674.34
688.107	667.36
688.301	666.78
688.494	689.84
688.688	662.32
688.882	663.29
689.076	651.67
689.269	701.07
689.463	774.12
689.657	704.56
689.85	695.84
690.044	739.44
690.238	748.93
690.431	743.12
690.625	771.4
690.818	784.97
691.012	822.17
691.205	818.1
691.399	822.55
691.593	866.92
691.786	885.52
691.98	907.61
692.173	947.13
692.366	949.65
692.56	994.8
692.753	993.83
692.947	935.31
693.14	1018.63
693.333	1023.86
693.527	959.73
693.72	1002.35
693.914	1033.16
694.107	1052.53
694.3	1065.32
694.493	1043.62
694.687	1074.81
694.88	1075.78
695.073	1151.15
695.266	1122.47
695.46	1120.34
695.653	1180.99
695.846	1187.77
696.039	1159.29
696.232	1182.34
696.425	1290.65
696.618	1266.04
696.812	1296.07
697.005	1340.83
697.198	1441.38
697.391	1392.36
697.584	1456.3
697.777	1476.64
697.97	1427.05
698.163	1456.11
698.356	1464.05
698.549	1543.49
698.742	1546.39
698.935	1516.75
699.127	1528.96
699.32	1494.66
699.513	1547.56
699.706	1559.18
699.899	1599.87
700.092	1564.02
700.285	1614.01
700.477	1573.32
700.67	1652.76
700.863	1646.17
701.056	1738.78
701.248	1712.43
701.441	1703.52
701.634	1678.72
701.826	1783.93
702.019	1704.49
702.212	1770.56
702.404	1700.81
702.597	1770.95
702.79	1797.68
702.982	1832.36
703.175	1843.99
703.367	1905.41
703.56	1916.26
703.752	1987.56
703.945	1975.35
704.137	1995.31
704.33	2028.24
704.522	2045.29
704.715	2037.16
704.907	2109.81
705.1	2138.49
705.292	2135.39
705.484	2107.49
705.677	2180.33
705.869	2182.66
706.061	2245.24
706.254	2289.8
706.446	2243.11
706.638	2223.93
706.831	2330.1
707.023	2245.82
707.215	2402.18
707.407	2406.82
707.599	2375.24
707.792	2462.24
707.984	2436.66
708.176	2479.29
708.368	2441.89
708.56	2476.38
708.752	2480.06
708.944	2447.71
709.136	2534.31
709.329	2518.42
709.521	2634.67
709.713	2618.59
709.905	2609.29
710.097	2661.6
710.289	2679.62
710.481	2618.78
710.672	2647.27
710.864	2701.13
711.056	2725.93
711.248	2737.16
711.44	2780.95
711.632	2753.83
711.824	2800.33
712.016	2815.83
712.207	2833.26
712.399	2822.61
712.591	2914.83
712.783	2905.92
712.975	2872.01
713.166	2844.89
713.358	2862.91
713.55	2965.4
713.741	2946.99
713.933	2985.74
714.125	2971.79
714.316	2923.74
714.508	3036.12
714.7	2997.75
714.891	2999.5
715.083	3033.4
715.274	3006.28
715.466	3061.11
715.657	3072.35
715.849	2978.19
716.04	2986.71
716.232	2918.9
716.423	2978.57
716.615	2839.27
716.806	2785.02
716.998	2741.62
717.189	2578.87
717.381	2558.34
717.572	2527.53
717.763	2527.53
717.955	2452.94
718.146	2389.97
718.337	2384.35
718.528	2283.8
718.72	2199.32
718.911	2291.93
719.102	2198.74
719.293	2297.75
719.485	2209.01
719.676	2233.03
719.867	2161.54
720.058	2176.27
720.249	2228
720.44	2224.51
720.632	2283.41
720.823	2313.05
721.014	2484.32
721.205	2539.35
721.396	2625.18
721.587	2748.79
721.778	2808.27
721.969	2887.71
722.16	2932.46
722.351	2966.17
722.542	3117.88
722.733	3076.42
722.924	2978.19
723.115	3048.9
723.305	2979.93
723.496	2999.11
723.687	2852.64
723.878	2892.74
724.069	2872.21
724.26	2874.53
724.45	2797.61
724.641	2800.13
724.832	2772.62
725.023	2795.48
725.213	2829.58
725.404	2761.38
725.595	2710.23
725.785	2697.45
725.976	2803.81
726.167	2772.23
726.357	2796.45
726.548	2921.42
726.739	2797.23
726.929	2872.59
727.12	2932.07
727.31	2932.85
727.501	2872.4
727.691	2813.5
727.882	2868.33
728.072	2947.19
728.263	2922.97
728.453	3016.74
728.644	3039.22
728.834	2988.26
729.024	2926.65
729.215	2941.57
729.405	2967.72
729.596	3023.13
729.786	3054.91
729.976	3126.21
730.167	3058.98
730.357	3063.43
730.547	3080.29
730.737	3125.24
730.928	3124.85
731.118	3221.34
731.308	3057.04
731.498	3135.12
731.688	3243.81
731.879	3252.53
732.069	3279.46
732.259	3338.17
732.449	3403.85
732.639	3451.32
732.829	3518.55
733.019	3549.16
733.209	3628.21
733.399	3632.28
733.589	3718.69
733.779	3733.02
733.969	3765.38
734.159	3880.66
734.349	3896.74
734.539	3921.35
734.729	3932.39
734.919	3958.55
735.109	4024.23
735.299	3960.48
735.488	3974.05
735.678	3967.65
735.868	4004.27
736.058	3970.75
736.248	3932.39
736.437	3925.8
736.627	3888.99
736.817	4009.89
737.007	3942.47
737.196	4039.92
737.386	4009.5
737.576	3978.5
737.765	4113.35
737.955	4047.86
738.144	4122.65
738.334	4106.18
738.524	4042.05
738.713	4129.24
738.903	4106.38
739.092	4209.06
739.282	4097.08
739.471	4144.74
739.661	4147.64
739.85	4232.51
740.04	4200.73
740.229	4244.32
740.419	4249.17
740.608	4189.69
740.797	4278.62
740.987	4309.23
741.176	4268.93
741.365	4278.81
741.555	4241.42
741.744	4359.99
741.933	4233.86
742.123	4311.55
742.312	4297.22
742.501	4347.78
742.69	4348.75
742.88	4286.37
743.069	4401.26
743.258	4398.35
743.447	4356.89
743.636	4398.35
743.825	4382.27
744.014	4393.9
744.204	4449.31
744.393	4384.6
744.582	4466.55
744.771	4461.32
744.96	4379.17
745.149	4464.23
745.338	4403.2
745.527	4435.36
745.716	4468.49
745.905	4428.19
746.094	4478.56
746.283	4479.73
746.471	4427.03
746.66	4470.81
746.849	4492.13
747.038	4506.46
747.227	4447.56
747.416	4534.75
747.604	4418.11
747.793	4385.37
747.982	4443.5
748.171	4475.66
748.359	4475.27
748.548	4466.16
748.737	4422.57
748.926	4447.95
749.114	4375.88
749.303	4457.64
749.491	4421.6
749.68	4314.65
749.869	4420.44
750.057	4380.72
750.246	4369.87
750.434	4394.48
750.623	4380.53
750.811	4333.25
751	4435.94
751.188	4382.47
751.377	4356.5
751.565	4340.62
751.754	4320.47
751.942	4336.55
752.131	4376.85
752.319	4302.84
752.507	4270.09
752.696	4308.26
752.884	4372.78
753.072	4296.64
753.261	4343.33
753.449	4311.36
753.637	4265.44
753.825	4362.32
754.014	4287.92
754.202	4349.72
754.39	4361.35
754.578	4377.04
754.766	4286.17
754.955	4262.92
755.143	4299.93
755.331	4287.92
755.519	4259.63
755.707	4205.77
755.895	4155.39
756.083	4225.34
756.271	4166.82
756.459	4206.35
756.647	4226.5
756.835	4156.56
757.023	4209.06
757.211	4167.99
757.399	4157.14
757.587	4142.8
757.775	4108.7
757.963	4153.46
758.151	4148.23
758.339	4073.83
758.526	4053.68
758.714	4142.22
758.902	3946.15
759.09	3881.82
759.278	3595.85
759.465	3344.17
759.653	2914.06
759.841	2627.12
760.028	2254.35
760.216	1971.28
760.404	1825.2
760.591	1508.23
760.779	1276.7
760.967	1102.52
761.154	903.54
761.342	922.14
761.529	885.91
761.717	939.96
761.905	960.5
762.092	1021.53
762.28	950.43
762.467	948.1
762.655	869.63
762.842	873.12
763.029	882.81
763.217	908.77
763.404	913.62
763.592	945.58
763.779	919.23
763.966	930.66
764.154	946.36
764.341	1042.65
764.528	1046.33
764.716	1114.53
764.903	1166.07
765.09	1281.35
765.277	1317.97
765.465	1477.81
765.652	1528.96
765.839	1668.45
766.026	1821.9
766.213	1904.44
766.4	2033.09
766.588	2225.67
766.775	2281.86
766.962	2383.58
767.149	2506.8
767.336	2679.81
767.523	2675.75
767.71	2826.68
767.897	2970.05
768.084	3030.5
768.271	3126.6
768.458	3158.95
768.645	3230.25
768.832	3250.59
769.019	3286.05
769.206	3368.2
769.392	3444.73
769.579	3522.42
769.766	3519.13
769.953	3495.3
770.14	3574.15
770.327	3554.78
770.513	3632.28
770.7	3640.03
770.887	3631.11
771.073	3585.97
771.26	3610.38
771.447	3612.9
771.634	3579.19
771.82	3682.84
772.007	3612.13
772.193	3661.14
772.38	3669.09
772.567	3630.53
772.753	3662.31
772.94	3691.18
773.126	3707.45
773.313	3662.89
773.499	3663.28
773.686	3720.62
773.872	3632.47
774.059	3672.38
774.245	3630.14
774.432	3672.96
774.618	3573.57
774.804	3588.49
774.991	3573.38
775.177	3603.02
775.363	3606.9
775.55	3602.83
775.736	3567.76
775.922	3634.6
776.109	3555.16
776.295	3604.57
776.481	3584.81
776.667	3620.46
776.853	3575.31
777.04	3529.98
777.226	3546.83
777.412	3572.8
777.598	3480.77
777.784	3514.87
777.97	3456.16
778.156	3512.35
778.342	3515.83
778.528	3496.85
778.715	3429.23
778.901	3458.48
779.087	3482.7
779.272	3454.42
779.458	3372.85
779.644	3461.39
779.83	3405.98
780.016	3484.45
780.202	3441.63
780.388	3430
780.574	3355.02
780.76	3398.81
780.946	3401.91
781.131	3413.92
781.317	3371.49
781.503	3324.41
781.689	3354.83
781.874	3460.03
782.06	3313.76
782.246	3403.07
782.432	3398.04
782.617	3353.28
782.803	3378.27
782.989	3290.89
783.174	3285.66
783.36	3276.56
783.545	3290.51
783.731	3356.77
783.916	3170.77
784.102	3302.13
784.288	3219.59
784.473	3281.98
784.659	3206.03
784.844	3301.55
785.029	3206.23
785.215	3231.22
785.4	3118.65
785.586	3238.97
785.771	3155.08
785.956	3224.44
786.142	3160.89
786.327	3182.59
786.512	3146.75
786.698	3158.76
786.883	3106.83
787.068	3146.94
787.254	3097.73
787.439	3115.94
787.624	3080.48
787.809	3082.62
787.994	3032.43
788.18	3131.25
788.365	3040.18
788.55	3032.43
788.735	2990.97
788.92	3024.88
789.105	2993.88
789.29	2995.62
789.475	2911.92
789.66	2933.04
789.845	2912.51
790.03	2910.37
790.215	2980.32
790.4	2938.66
790.585	2980.7
790.77	2912.12
790.955	2890.42
791.14	2903.59
791.325	2971.79
791.51	2903.21
791.695	2887.71
791.879	2873.56
792.064	2836.56
792.249	2960.75
792.434	2892.74
792.618	2931.3
792.803	2951.84
792.988	2887.32
793.173	2937.69
793.357	2946.41
793.542	2897.78
793.727	2924.32
793.911	2964.43
794.096	2885.19
794.281	2949.12
794.465	3008.22
794.65	2931.49
794.834	2979.74
795.019	2982.25
795.203	2994.85
795.388	2992.91
795.572	2997.17
795.757	2974.31
795.941	2969.47
796.126	2963.07
796.31	2877.63
796.494	2895.46
796.679	2906.31
796.863	2864.26
797.048	2976.25
797.232	2932.27
797.416	2966.95
797.601	2956.87
797.785	2983.42
797.969	2979.93
798.153	2924.13
798.338	2985.94
798.522	3029.72
798.706	3027.2
798.89	2997.17
799.074	3050.26
799.258	3041.15
799.443	3013.45
799.627	2938.08
799.811	3059.95
799.995	2987.68
800.179	2974.7
800.363	2951.25
800.547	2985.94
800.731	2982.64
800.915	2898.94
801.099	2894.29
801.283	2954.55
801.467	2908.82
801.651	2889.84
801.835	2989.04
802.019	2955.13
802.202	2992.72
802.386	2931.49
802.57	2898.56
802.754	2914.25
802.938	2905.34
803.121	2927.42
803.305	2969.66
803.489	2895.65
803.673	2959.39
803.856	2950.48
804.04	2923.36
804.224	2947.77
804.407	2921.42
804.591	2867.94
804.775	2891.97
804.958	2929.36
805.142	3026.04
805.326	2908.63
805.509	2958.62
805.693	2996.98
805.876	3002.21
806.06	3015.58
806.243	2983.42
806.427	3017.13
806.61	2995.62
806.794	2998.53
806.977	2981.09
807.16	2996.98
807.344	2954.94
807.527	2976.64
807.71	2954.74
807.894	2948.15
808.077	3030.69
808.26	2959.97
808.444	2947.96
808.627	3010.35
808.81	2921.22
808.993	2884.99
809.177	2869.69
809.36	2872.4
809.543	2895.84
809.726	2796.45
809.909	2796.26
810.092	2756.93
810.276	2767.39
810.459	2773.39
810.642	2752.86
810.825	2693.76
811.008	2706.55
811.191	2628.86
811.374	2647.46
811.557	2668.77
811.74	2676.71
811.923	2639.71
812.106	2595.15
812.289	2526.95
812.472	2523.46
812.654	2521.14
812.837	2511.25
813.02	2471.92
813.203	2408.57
813.386	2270.62
813.569	2303.56
813.751	2208.62
813.934	2277.4
814.117	2187.5
814.3	2166
814.482	2125.31
814.665	2070.09
814.848	2006.74
815.03	1942.61
815.213	1949.39
815.396	1924.78
815.578	1910.06
815.761	1860.46
815.943	1928.08
816.126	1856
816.309	1823.26
816.491	1747.89
816.674	1681.24
816.856	1736.07
817.039	1730.07
817.221	1794.58
817.403	1785.48
817.586	1794.58
817.768	1766.49
817.951	1690.35
818.133	1729.48
818.315	1709.53
818.498	1766.3
818.68	1831.59
818.862	1818.41
819.045	1826.36
819.227	1789.55
819.409	1780.63
819.591	1860.65
819.774	1788.38
819.956	1745.76
820.138	1862.01
820.32	1807.18
820.502	1910.64
820.684	1986.2
820.866	1957.14
821.048	2040.45
821.231	2097.6
821.413	2110
821.595	2035.22
821.777	2053.04
821.959	2041.03
822.141	2104
822.323	1969.92
822.505	1886.61
822.686	1837.21
822.868	1732.78
823.05	1618.85
823.232	1581.85
823.414	1521.79
823.596	1568.29
823.778	1557.63
823.96	1586.31
824.141	1639.59
824.323	1661.67
824.505	1718.63
824.687	1773.27
824.868	1844.76
825.05	1944.74
825.232	2006.16
825.413	2051.88
825.595	2044.13
825.777	1951.33
825.958	2006.35
826.14	1963.53
826.321	2013.52
826.503	1999.96
826.685	2039.48
826.866	2062.15
827.048	2026.11
827.229	1924.98
827.411	1942.61
827.592	1879.83
827.773	1871.7
827.955	1807.37
828.136	1853.29
828.318	1762.81
828.499	1808.53
828.68	1777.73
828.862	1818.61
829.043	1806.6
829.224	1771.92
829.406	1747.7
829.587	1765.13
829.768	1774.43
829.949	1768.62
830.131	1792.45
830.312	1847.28
830.493	1794.58
830.674	1809.89
830.855	1800.78
831.036	1777.15
831.218	1830.62
831.399	1875.18
831.58	1824.81
831.761	1802.33
831.942	1816.48
832.123	1806.6
832.304	1731.62
832.485	1755.64
832.666	1793.23
832.847	1811.44
833.028	1819.19
833.209	1812.6
833.389	1769.2
833.57	1741.69
833.751	1746.92
833.932	1805.24
834.113	1781.8
834.294	1793.61
834.475	1802.91
834.655	1879.25
834.836	1854.84
835.017	1857.94
835.198	1812.02
835.378	1891.26
835.559	1859.1
835.74	1816.09
835.92	1856.2
836.101	1833.91
836.281	1898.43
836.462	1903.28
836.643	1880.22
836.823	1914.13
837.004	1897.08
837.184	1938.54
837.365	1856.39
837.545	1906.76
837.726	1890.29
837.906	1957.91
838.087	1896.11
838.267	1913.16
838.448	1848.25
838.628	1893.39
838.808	1884.68
838.989	1947.06
839.169	1856.97
839.349	1883.51
839.53	1945.13
839.71	1911.61
839.89	1890.29
840.07	1966.05
840.251	1893.01
840.431	1911.99
840.611	1878.67
840.791	1884.87
840.971	1924.2
841.151	1869.76
841.332	1893.98
841.512	1917.61
841.692	1821.71
841.872	1890.49
842.052	1846.9
842.232	1916.06
842.412	1827.33
842.592	1857.94
842.772	1910.06
842.952	1883.51
843.132	1869.18
843.312	1866.85
843.492	1851.35
843.672	1889.33
843.851	1821.71
844.031	1855.61
844.211	1863.36
844.391	1819.96
844.571	1862.4
844.751	1857.55
844.93	1845.73
845.11	1818.41
845.29	1862.01
845.47	1863.75
845.649	1838.56
845.829	1880.41
846.009	1812.02
846.188	1849.22
846.368	1844.38
846.547	1819.77
846.727	1860.07
846.907	1807.95
847.086	1818.8
847.266	1833.72
847.445	1803.3
847.625	1783.93
847.804	1807.37
847.984	1821.51
848.163	1780.83
848.343	1778.31
848.522	1793.03
848.701	1787.8
848.881	1758.16
849.06	1789.93
849.239	1750.41
849.419	1744.21
849.598	1732.78
849.777	1691.12
849.957	1674.85
850.136	1648.5
850.315	1599.87
850.494	1617.3
850.674	1659.93
850.853	1692.48
851.032	1653.92
851.211	1705.65
851.39	1675.82
851.569	1625.05
851.748	1640.17
851.927	1652.57
852.107	1704.88
852.286	1682.02
852.465	1627.19
852.644	1681.63
852.823	1684.34
853.002	1663.03
853.181	1628.35
853.359	1675.82
853.538	1566.74
853.717	1694.03
853.896	1532.83
854.075	1469.48
854.254	1463.28
854.433	1376.48
854.611	1437.7
854.79	1402.25
854.969	1452.43
855.148	1462.69
855.327	1410.77
855.505	1486.91
855.684	1464.63
855.863	1499.89
856.041	1471.61
856.22	1518.49
856.399	1486.91
856.577	1579.72
856.756	1573.13
856.934	1675.62
857.113	1699.26
857.291	1602.97
857.47	1550.85
857.648	1608.97
857.827	1590.96
858.005	1637.07
858.184	1570.22
858.362	1622.15
858.541	1554.92
858.719	1586.11
858.898	1557.24
859.076	1564.02
859.254	1603.36
859.433	1575.07
859.611	1498.34
859.789	1530.12
859.967	1588.82
860.146	1575.46
860.324	1514.43
860.502	1548.33
860.68	1496.41
860.859	1547.17
861.037	1540.77
861.215	1521.21
861.393	1547.17
861.571	1540.97
861.749	1526.63
861.927	1540.77
862.105	1514.62
862.283	1521.4
862.461	1496.02
862.639	1447.97
862.817	1495.83
862.995	1478.78
863.173	1489.63
863.351	1528.18
863.529	1502.41
863.707	1528.57
863.885	1509.39
864.063	1427.05
864.241	1465.21
864.418	1519.85
864.596	1450.29
864.774	1400.11
864.952	1476.45
865.129	1499.89
865.307	1435.96
865.485	1403.21
865.663	1444.48
865.84	1387.33
866.018	1392.17
866.196	1270.3
866.373	1288.9
866.551	1237.56
866.728	1179.44
866.906	1247.83
867.084	1250.15
867.261	1328.04
867.439	1325.91
867.616	1309.44
867.794	1317.19
867.971	1374.15
868.149	1351.29
868.326	1384.42
868.503	1379
868.681	1370.47
868.858	1338.7
869.035	1280.57
869.213	1374.54
869.39	1344.12
869.567	1431.7
869.745	1347.03
869.922	1355.55
870.099	1362.91
870.276	1387.91
870.454	1356.52
870.631	1353.62
870.808	1333.66
870.985	1357.49
871.162	1412.9
871.339	1367.18
871.517	1289.87
871.694	1300.72
871.871	1328.43
872.048	1317.38
872.225	1318.35
872.402	1311.77
872.579	1285.42
872.756	1306.92
872.933	1269.33
873.11	1285.03
873.287	1310.41
873.463	1266.62
873.64	1235.24
873.817	1293.94
873.994	1272.24
874.171	1272.63
874.348	1309.44
874.524	1227.1
874.701	1259.26
874.878	1199
875.055	1256.16
875.231	1228.45
875.408	1280.38
875.585	1176.14
875.762	1242.6
875.938	1227.87
876.115	1239.3
876.291	1202.3
876.468	1208.3
876.645	1207.14
876.821	1194.35
876.998	1183.31
877.174	1192.22
877.351	1174.79
877.527	1157.54
877.704	1183.12
877.88	1197.07
878.057	1170.72
878.233	1209.27
878.409	1162.97
878.586	1211.79
878.762	1204.62
878.938	1167.42
879.115	1126.16
879.291	1220.51
879.467	1125.77
879.644	1139.33
879.82	1157.93
879.996	1172.85
880.172	1116.27
880.349	1157.16
880.525	1175.56
880.701	1068.42
880.877	1081.21
881.053	1105.23
881.229	1134.29
881.405	1193.58
881.581	1135.07
881.757	1128.48
881.933	1142.62
882.109	1197.07
882.285	1121.7
882.461	1094.19
882.637	1145.72
882.813	1102.52
882.989	1137.97
883.165	1153.09
883.341	1095.93
883.517	1166.26
883.693	1141.27
883.869	1149.02
884.044	1099.03
884.22	1142.62
884.396	1155.8
884.572	1151.73
884.747	1207.34
884.923	1152.89
885.099	1145.72
885.275	1143.4
885.45	1060.86
885.626	1104.26
885.801	1112.59
885.977	1104.65
886.153	1057.18
886.328	1166.65
886.504	1108.72
886.679	1106.39
886.855	1081.4
887.03	1107.75
887.206	1141.85
887.381	1077.14
887.557	1148.63
887.732	1143.4
887.908	1116.86
888.083	1115.31
888.258	1090.89
888.434	1107.75
888.609	1098.06
888.784	1192.42
888.96	1078.11
889.135	1103.87
889.31	1063.77
889.485	1141.46
889.661	1103.29
889.836	1163.94
890.011	1128.48
890.186	1098.64
890.361	1083.14
890.537	1115.5
890.712	1118.21
890.887	1109.88
891.062	1110.27
891.237	1175.56
891.412	1093.61
891.587	1110.46
891.762	1124.61
891.937	1159.67
892.112	1047.88
892.287	1088.18
892.462	1056.02
892.637	1011.65
892.812	1013.39
892.987	1011.65
893.161	1008.94
893.336	1017.66
893.511	998.67
893.686	1036.64
893.861	1009.52
894.035	989.95
894.21	956.05
894.385	938.61
894.56	976.97
894.734	908.58
894.909	906.06
895.084	904.32
895.258	904.7
895.433	893.27
895.608	853.36
895.782	846
895.957	853.75
896.131	841.15
896.306	786.32
896.48	750.67
896.655	777.22
896.829	720.06
897.004	697.39
897.178	732.27
897.353	709.6
897.527	769.66
897.701	717.54
897.876	663.87
898.05	767.53
898.224	757.07
898.399	787.1
898.573	701.85
898.747	621.44
898.921	628.23
899.096	564.1
899.27	548.21
899.444	576.3
899.618	632.1
899.792	662.13
899.967	662.32
900.141	655.54
900.315	608.66
900.489	618.73
900.663	602.84
900.837	606.91
901.011	538.52
901.185	683.83
901.359	613.11
901.533	621.06
901.707	652.44
901.881	626.29
902.055	613.31
902.229	595.09
902.403	704.56
902.576	619.51
902.75	607.11
902.924	737.5
903.098	691.58
903.272	731.11
903.446	777.02
903.619	759.39
903.793	814.03
903.967	805.31
904.14	848.13
904.314	811.9
904.488	771.02
904.661	783.22
904.835	773.34
905.009	807.44
905.182	847.74
905.356	845.03
905.529	775.67
905.703	750.09
905.876	749.7
906.05	761.33
906.223	736.14
906.397	638.11
906.57	635.39
906.744	636.56
906.917	633.07
907.09	637.72
907.264	610.21
907.437	569.91
907.61	581.53
907.784	606.33
907.957	609.43
908.13	553.05
908.304	583.66
908.477	556.15
908.65	575.14
908.823	533.48
908.996	622.03
909.17	531.16
909.343	555.18
909.516	539.68
909.689	537.36
909.862	526.12
910.035	569.13
910.208	522.25
910.381	490.86
910.554	611.76
910.727	557.9
910.9	508.3
911.073	505.2
911.246	603.62
911.419	598.97
911.592	579.59
911.765	551.7
911.938	548.4
912.11	558.48
912.283	576.3
912.456	597.03
912.629	565.06
912.802	512.95
912.974	484.08
913.147	438.16
913.32	401.93
913.493	442.81
913.665	456.37
913.838	458.31
914.01	498.61
914.183	493.18
914.356	468.38
914.528	540.07
914.701	516.05
914.873	518.37
915.046	446.3
915.218	439.71
915.391	368.41
915.563	413.36
915.736	436.42
915.908	484.46
916.081	477.88
916.253	458.12
916.425	459.08
916.598	494.15
916.77	458.12
916.942	444.94
917.115	393.4
917.287	423.24
917.459	419.56
917.632	374.8
917.804	374.61
917.976	431.57
918.148	434.28
918.32	432.73
918.493	475.75
918.665	512.56
918.837	458.31
919.009	536.58
919.181	523.02
919.353	493.18
919.525	486.79
919.697	484.08
919.869	503.06
920.041	572.62
920.213	577.85
920.385	539.68
920.557	519.15
920.729	527.48
920.901	528.45
921.073	507.91
921.244	484.85
921.416	562.93
921.588	515.46
921.76	498.61
921.932	572.81
922.103	500.55
922.275	526.12
922.447	526.12
922.619	449.01
922.79	519.92
922.962	474.97
923.134	522.25
923.305	472.07
923.477	444.94
923.648	411.23
923.82	435.64
923.991	381.59
924.163	409.68
924.335	413.36
924.506	410.65
924.677	467.61
924.849	390.11
925.02	451.33
925.192	452.11
925.363	433.32
925.535	410.84
925.706	412.39
925.877	452.69
926.049	422.27
926.22	439.9
926.391	448.23
926.562	436.61
926.734	421.5
926.905	463.35
927.076	387.98
927.247	407.35
927.419	334.5
927.59	372.67
927.761	336.44
927.932	320.75
928.103	332.57
928.274	264.56
928.445	306.6
928.616	299.44
928.787	303.7
928.958	317.26
929.129	305.06
929.3	286.07
929.471	245.38
929.642	207.6
929.813	158.19
929.984	244.8
930.155	177.96
930.326	210.7
930.496	194.62
930.667	130.88
930.838	197.33
931.009	160.91
931.18	151.61
931.35	167.11
931.521	166.91
931.692	103.95
931.863	76.05
932.033	136.49
932.204	110.92
932.374	116.35
932.545	93.29
932.716	127.2
932.886	133.01
933.057	50.47
933.227	46.98
933.398	128.75
933.568	64.23
933.739	27.22
933.909	36.13
934.08	63.26
934.25	29.55
934.421	32.26
934.591	74.88
934.761	14.63
934.932	2.42
935.102	47.95
935.272	45.82
935.443	47.18
935.613	43.69
935.783	48.92
935.953	27.03
936.123	162.65
936.294	5.52
936.464	37.88
936.634	22.77
936.804	16.37
936.974	0.68
937.144	59.19
937.314	41.17
937.484	43.69
937.655	20.83
937.825	50.47
937.995	35.17
938.165	99.88
938.334	35.55
938.504	55.51
938.674	43.69
938.844	64.81
939.014	126.42
939.184	94.65
939.354	118.86
939.524	123.13
939.694	51.05
939.863	110.34
940.033	151.8
940.203	122.35
940.373	105.3
940.542	122.35
940.712	90.19
940.882	112.66
941.051	102.2
941.221	127.78
941.391	149.09
941.56	108.79
941.73	89.03
941.899	166.14
942.069	73.72
942.238	110.53
942.408	78.56
942.577	87.28
942.747	57.64
942.916	34.2
943.086	49.7
943.255	112.47
943.425	105.11
943.594	53.76
943.763	23.54
943.933	24.32
944.102	5.33
944.271	51.83
944.441	91.35
944.61	44.46
944.779	55.7
944.948	144.44
945.117	48.34
945.287	48.34
945.456	8.82
945.625	39.82
945.794	76.43
945.963	23.35
946.132	64.23
946.301	58.03
946.47	69.46
946.639	20.25
946.808	46.79
946.977	73.33
947.146	105.3
947.315	48.53
947.484	100.46
947.653	76.43
947.822	46.79
947.991	49.5
948.16	162.65
948.329	104.53
948.498	70.43
948.666	73.53
948.835	88.64
949.004	29.74
949.173	25.87
949.341	79.73
949.51	69.46
949.679	104.33
949.847	69.26
950.016	145.79
950.185	125.06
950.353	55.9
950.522	62.29
950.69	90.96
950.859	59.77
951.028	105.11
951.196	85.15
951.365	52.41
951.533	57.06
951.701	86.12
951.87	74.88
952.038	23.93
952.207	82.05
952.375	128.16
952.543	41.37
952.712	53.38
952.88	66.55
953.048	114.99
953.217	82.63
953.385	70.23
953.553	105.3
953.721	58.8
953.89	81.86
954.058	45.05
954.226	23.73
954.394	85.54
954.562	38.65
954.73	74.5
954.898	85.93
955.067	97.16
955.235	66.94
955.403	95.03
955.571	104.14
955.739	95.03
955.907	49.7
956.075	57.06
956.243	44.85
956.41	89.8
956.578	25.87
956.746	36.33
956.914	58.61
957.082	102.4
957.25	67.33
957.418	53.18
957.585	77.01
957.753	127.2
957.921	23.73
958.089	53.18
958.256	90.38
958.424	82.83
958.592	88.64
958.759	49.5
958.927	101.62
959.095	62.87
959.262	45.63
959.43	71.01
959.597	40.59
959.765	51.25
959.932	47.76
960.1	113.63
960.267	103.95
960.435	58.8
960.602	105.88
960.77	64.03
960.937	49.89
961.104	74.69
961.272	28.77
961.439	77.98
961.606	110.73
961.774	115.18
961.941	62.68
962.108	90.77
962.275	88.45
962.443	121.38
962.61	101.62
962.777	113.63
962.944	100.26
963.111	96.39
963.278	128.36
963.446	114.02
963.613	120.8
963.78	129.91
963.947	118.09
964.114	104.33
964.281	152.58
964.448	103.36
964.615	59.19
964.782	117.9
964.949	118.48
965.116	100.07
965.282	125.84
965.449	73.91
965.616	57.83
965.783	99.3
965.95	78.56
966.117	41.17
966.283	54.54
966.45	107.24
966.617	114.02
966.784	139.98
966.95	116.54
967.117	124.1
967.284	97.94
967.45	107.63
967.617	150.83
967.784	139.59
967.95	154.32
968.117	125.84
968.283	130.68
968.45	208.57
968.616	134.36
968.783	137.27
968.949	121.77
969.116	173.11
969.282	124.68
969.449	147.73
969.615	110.73
969.781	79.34
969.948	132.23
970.114	90.58
970.28	179.7
970.447	131.84
970.613	167.3
970.779	106.85
970.945	131.07
971.112	96.39
971.278	115.76
971.444	129.13
971.61	135.72
971.776	123.71
971.942	130.49
972.108	113.83
972.275	114.6
972.441	127.39
972.607	163.04
972.773	80.89
972.939	124.87
973.105	118.48
973.271	56.09
973.437	102.98
973.602	99.88
973.768	130.1
973.934	116.15
974.1	133.98
974.266	40.59
974.432	116.54
974.598	71.98
974.763	157.61
974.929	84.76
975.095	159.16
975.261	71.01
975.426	79.92
975.592	82.25
975.758	153.16
975.923	75.27
976.089	77.79
976.255	131.65
976.42	120.41
976.586	129.13
976.751	113.05
976.917	180.48
977.082	136.49
977.248	68.88
977.413	70.43
977.579	69.26
977.744	119.25
977.91	71.98
978.075	89.03
978.24	147.54
978.406	102.59
978.571	78.56
978.736	91.35
978.902	119.45
979.067	90.38
979.232	65.97
979.397	103.36
979.563	139.79
979.728	59.77
979.893	96.2
980.058	79.92
980.223	134.56
980.388	103.36
980.554	102.2
980.719	88.25
980.884	109.95
981.049	138.24
981.214	100.07
981.379	118.86
981.544	93.68
981.709	101.04
981.874	79.73
982.039	112.66
982.204	118.48
982.368	116.54
982.533	72.17
982.698	116.73
982.863	148.51
983.028	76.43
983.193	121
983.357	97.55
983.522	103.95
983.687	96.97
983.852	97.94
984.016	82.63
984.181	112.47
984.346	127.97
984.51	110.34
984.675	109.18
984.839	118.28
985.004	114.99
985.168	116.15
985.333	129.13
985.498	88.64
985.662	122.35
985.827	103.36
985.991	84.38
986.155	95.03
986.32	134.56
986.484	165.56
986.649	133.2
986.813	63.06
986.977	108.98
987.142	134.36
987.306	86.7
987.47	71.2
987.634	87.48
987.799	81.28
987.963	101.23
988.127	118.67
988.291	158.97
988.455	108.4
988.62	101.43
988.784	111.89
988.948	99.1
989.112	67.71
989.276	124.68
989.44	104.33
989.604	66.94
989.768	114.41
989.932	153.54
990.096	69.46
990.26	57.83
990.424	44.66
990.588	118.48
990.752	133.2
990.915	124.29
991.079	81.86
991.243	76.24
991.407	117.7
991.571	93.87
991.734	122.55
991.898	117.51
992.062	158.97
992.226	96.2
992.389	78.76
992.553	47.18
992.717	55.7
992.88	81.66
993.044	86.12
993.207	77.79
993.371	93.48
993.535	90.19
993.698	68.3
993.862	124.29
994.025	145.99
994.189	93.87
994.352	94.65
994.515	101.23
994.679	124.48
994.842	59.58
995.006	105.3
995.169	48.34
995.332	56.28
995.496	102.78
995.659	37.49
995.822	58.03
995.985	95.61
996.149	132.23
996.312	93.1
996.475	130.68
996.638	68.68
996.801	109.56
996.964	138.04
997.128	86.12
997.291	68.3
997.454	91.16
997.617	41.37
997.78	119.64
997.943	55.51
998.106	132.62
998.269	73.14
998.432	61.71
998.595	81.47
998.758	50.86
998.92	35.75
999.083	18.31
999.246	81.28
999.409	34.2
999.572	5.52
999.735	50.08
999.897	68.68
1000.06	42.72
1000.223	79.73
1000.386	111.31
1000.548	81.66
1000.711	100.65
1000.874	100.07
1001.036	28.58
1001.199	110.92
1001.361	33.81
1001.524	74.3
1001.687	95.03
1001.849	59.96
1002.012	69.26
1002.174	82.05
1002.337	101.62
1002.499	66.55
1002.661	113.44
1002.824	37.68
1002.986	43.69
1003.149	84.76
1003.311	46.98
1003.473	101.81
1003.636	43.69
1003.798	64.42
1003.96	65
1004.123	43.11
1004.285	66.16
1004.447	65.39
1004.609	79.34
1004.771	79.53
1004.933	36.33
1005.096	21.6
1005.258	5.72
1005.42	38.07
1005.582	92.13
1005.744	65.2
1005.906	31.1
1006.068	52.6
1006.23	14.63
1006.392	5.72
1006.554	26.64
1006.716	77.4
1006.878	65.39
1007.04	11.53
1007.202	2.62
1007.363	58.03
1007.525	53.38
1007.687	84.96
1007.849	74.11
1008.011	6.49
1008.172	40.78
1008.334	77.6
1008.496	71.59
1008.658	19.28
1008.819	15.98
1008.981	13.66
1009.143	16.57
1009.304	15.6
1009.466	92.51
1009.627	99.1
1009.789	146.57
1009.95	88.45
1010.112	25.87
1010.273	59.96
1010.435	37.88
1010.596	27.03
1010.758	18.89
1010.919	23.54
1011.081	7.27
1011.242	59
1011.403	59
1011.565	39.82
1011.726	45.63
1011.887	24.7
1012.049	59.19
1012.21	39.23
1012.371	97.16
1012.532	-26.25
1012.693	42.53
1012.855	37.88
1013.016	29.55
1013.177	78.95
1013.338	32.84
1013.499	81.08
1013.66	48.73
1013.821	69.85
1013.982	42.33
1014.143	45.24
1014.304	20.44
1014.465	47.18
1014.626	37.1
1014.787	40.4
1014.948	101.23
1015.109	-38.85
1015.27	103.56
1015.431	31.87
1015.592	13.08
1015.752	73.33
1015.913	64.61
1016.074	28
1016.235	38.07
1016.395	30.9
1016.556	28.58
1016.717	40.2
1016.877	86.31
1017.038	23.15
1017.199	46.01
1017.359	31.87
1017.52	45.63
1017.681	11.53
1017.841	36.52
1018.002	33.03
1018.162	21.22
1018.323	74.88
1018.483	14.05
1018.644	27.8
1018.804	-11.72
1018.964	3.78
1019.125	47.56
1019.285	47.18
1019.446	2.42
1019.606	4.75
1019.766	-21.8
1019.926	57.25
1020.087	40.01
1020.247	-8.82
1020.407	44.85
1020.567	63.45
1020.728	12.3
1020.888	-4.17
1021.048	14.63
1021.208	6.88
1021.368	20.05
1021.528	69.07
1021.688	81.28
1021.848	20.44
1022.008	36.33
1022.168	34.78
1022.328	18.7
1022.488	39.62
1022.648	32.84
1022.808	22.38
1022.968	38.46
1023.128	-22.77
1023.288	37.49
1023.448	15.21
1023.608	46.4
1023.767	30.32
1023.927	-6.68
1024.087	4.75
1024.247	-8.43
1024.406	25.67
1024.566	1.45
1024.726	-12.5
1024.885	23.35
1025.045	36.52
1025.205	33.62
1025.364	32.45
1025.524	30.71
1025.683	15.4
1025.843	31.48
1026.003	17.15
1026.162	49.89
1026.321	44.66
1026.481	18.5
1026.64	31.48
1026.8	45.63
1026.959	3
1027.119	45.43
1027.278	17.15
1027.437	8.62
1027.597	32.65
1027.756	16.95
1027.915	30.32
1028.074	53.57
1028.234	-25.87
1028.393	19.67
1028.552	9.01
1028.711	-45.82
1028.87	48.15
1029.03	-23.35
1029.189	5.33
1029.348	-18.89
1029.507	10.37
1029.666	3.78
1029.825	5.33
1029.984	22.96
1030.143	17.92
1030.302	11.33
1030.461	-39.23
1030.62	7.65
1030.779	43.88
1030.938	1.65
1031.097	-4.75
1031.255	66.36
1031.414	67.33
1031.573	62.68
1031.732	-20.44
1031.891	-6.49
1032.049	47.95
1032.208	27.61
1032.367	-1.45
1032.525	6.3
1032.684	6.1
1032.843	3
1033.001	-26.83
1033.16	135.91
1033.319	50.47
1033.477	36.13
1033.636	0.48
1033.794	-23.54
1033.953	11.72
1034.111	49.31
1034.27	-1.65
1034.428	26.45
1034.587	-25.28
1034.745	7.27
1034.903	34.58
1035.062	24.7
1035.22	-24.9
1035.378	41.56
1035.537	-21.8
1035.695	44.46
1035.853	2.23
1036.011	46.6
1036.17	20.25
1036.328	-28.97
1036.486	16.37
1036.644	3.78
1036.802	-63.45
1036.96	-10.75
1037.119	6.3
1037.277	-20.63
1037.435	-24.9
1037.593	-12.11
1037.751	7.07
1037.909	28.19
1038.067	28.19
