Data from gum_young_FLMT105791__81__17-39-39-042.txt Node

Date: Mon Mar 20 17:39:39 GMT 2023
User: antho
Spectrometer: FLMT10579
Trigger mode: 0
Integration Time (sec): 1.000000E-1
Scans to average: 10
Electric dark correction enabled: true
Nonlinearity correction enabled: false
Boxcar width: 0
XAxis mode: Wavelengths
Number of Pixels in Spectrum: 3648
>>>>>Begin Spectral Data<<<<<
345.248	-152.56
345.464	-152.56
345.681	-152.56
345.898	-143.26
346.114	-135.51
346.331	-30.89
346.548	27.43
346.764	-20.42
346.981	-13.45
347.197	9.22
347.414	2.24
347.631	-27.98
347.847	58.43
348.064	12.71
348.28	11.16
348.497	-36.12
348.713	7.67
348.93	47
349.146	26.46
349.363	5.15
349.579	28.79
349.796	21.62
350.012	-6.67
350.229	31.69
350.445	26.08
350.661	-16.36
350.878	8.06
351.094	20.65
351.311	30.53
351.527	43.51
351.743	-1.05
351.96	32.28
352.176	50.68
352.392	44.09
352.609	33.83
352.825	-22.36
353.041	26.08
353.257	11.35
353.474	-9.19
353.69	34.02
353.906	1.86
354.122	-10.54
354.339	59.79
354.555	7.28
354.771	-8.99
354.987	86.72
355.203	54.17
355.42	-9.96
355.636	-4.92
355.852	11.35
356.068	-3.76
356.284	-18.68
356.5	38.86
356.716	14.26
356.932	22.39
357.148	26.27
357.364	12.51
357.58	70.44
357.796	59.21
358.012	71.41
358.228	21.43
358.444	-35.73
358.66	39.06
358.876	35.57
359.092	0.31
359.308	8.64
359.524	59.01
359.74	0.31
359.956	-9.19
360.172	3.79
360.388	55.72
360.604	-4.34
360.819	93.89
361.035	28.21
361.251	20.65
361.467	-22.56
361.683	33.83
361.898	34.79
362.114	66.18
362.33	5.93
362.546	57.46
362.762	32.66
362.977	27.43
363.193	-18.1
363.409	64.24
363.624	-19.46
363.84	-2.6
364.056	22.39
364.271	28.59
364.487	13.68
364.703	2.05
364.918	-15.19
365.134	16
365.35	10.77
365.565	74.32
365.781	29.56
365.996	47.58
366.212	71.99
366.427	19.68
366.643	1.47
366.858	17.55
367.074	3.6
367.289	79.36
367.505	107.26
367.72	-7.44
367.936	26.85
368.151	58.82
368.367	48.16
368.582	39.64
368.798	2.83
369.013	72.19
369.228	23.75
369.444	8.44
369.659	57.46
369.874	36.92
370.09	46.42
370.305	-27.4
370.52	14.06
370.736	67.54
370.951	5.54
371.166	76.64
371.381	73.35
371.597	44.48
371.812	9.99
372.027	10.96
372.242	38.67
372.458	70.83
372.673	21.62
372.888	17.94
373.103	50.29
373.318	97.76
373.533	51.84
373.749	48.55
373.964	-20.42
374.179	74.32
374.394	1.66
374.609	66.76
374.824	4.38
375.039	65.6
375.254	15.23
375.469	68.89
375.684	30.73
375.899	59.59
376.114	31.11
376.329	20.46
376.544	72.96
376.759	51.65
376.974	51.65
377.189	29.56
377.404	25.11
377.619	62.31
377.834	-42.51
378.049	-0.86
378.264	12.32
378.478	46.42
378.693	12.9
378.908	60.95
379.123	28.4
379.338	64.82
379.553	38.67
379.767	42.35
379.982	46.61
380.197	51.46
380.412	31.11
380.626	42.93
380.841	97.57
381.056	48.74
381.271	72.77
381.485	13.68
381.7	4.18
381.915	33.05
382.129	5.73
382.344	39.44
382.559	22.2
382.773	77.61
382.988	-27.4
383.202	53.39
383.417	6.51
383.632	126.63
383.846	26.66
384.061	40.02
384.275	16.97
384.49	47.39
384.704	72.96
384.919	33.83
385.133	32.66
385.348	59.98
385.562	16
385.777	82.46
385.991	22.59
386.206	2.63
386.42	3.21
386.634	68.89
386.849	96.41
387.063	61.72
387.277	16.78
387.492	4.57
387.706	-4.34
387.92	15.03
388.135	67.34
388.349	53.78
388.563	33.83
388.778	68.51
388.992	47
389.206	60.76
389.42	110.16
389.635	23.17
389.849	75.67
390.063	96.41
390.277	8.25
390.491	102.99
390.706	67.73
390.92	53.39
391.134	30.92
391.348	74.71
391.562	26.46
391.776	36.54
391.99	16.97
392.205	49.32
392.419	32.86
392.633	52.23
392.847	63.66
393.061	28.01
393.275	118.11
393.489	46.22
393.703	61.14
393.917	68.12
394.131	34.02
394.345	73.54
394.559	78.19
394.773	32.08
394.986	61.14
395.2	61.14
395.414	51.65
395.628	55.33
395.842	51.65
396.056	26.46
396.27	0.69
396.484	78.58
396.697	69.47
396.911	76.45
397.125	65.41
397.339	56.3
397.553	81.49
397.766	107.64
397.98	86.91
398.194	91.17
398.408	81.29
398.621	76.84
398.835	111.91
399.049	69.86
399.262	91.95
399.476	89.24
399.69	67.92
399.903	140.77
400.117	71.61
400.331	91.17
400.544	46.03
400.758	174.1
400.971	57.85
401.185	92.92
401.398	48.55
401.612	130.89
401.826	79.16
402.039	90.79
402.253	55.52
402.466	100.47
402.68	80.71
402.893	79.16
403.106	97.76
403.32	92.34
403.533	88.27
403.747	79.74
403.96	76.45
404.174	99.12
404.387	50.1
404.6	95.82
404.814	139.42
405.027	80.71
405.24	98.73
405.454	96.41
405.667	130.7
405.88	55.52
406.094	100.47
406.307	121.59
406.52	92.14
406.733	60.17
406.947	48.74
407.16	133.8
407.373	122.56
407.586	71.8
407.799	95.44
408.012	122.17
408.226	102.99
408.439	143.68
408.652	44.29
408.865	88.46
409.078	115.39
409.291	119.85
409.504	71.41
409.717	124.11
409.93	106.09
410.143	106.29
410.357	45.45
410.57	90.59
410.783	76.26
410.996	97.96
411.209	84.78
411.421	126.44
411.634	90.01
411.847	87.11
412.06	134.19
412.273	106.48
412.486	96.99
412.699	190.37
412.912	113.07
413.125	125.47
413.338	116.75
413.55	149.49
413.763	122.17
413.976	150.85
414.189	93.11
414.402	87.49
414.615	142.13
414.827	96.21
415.04	140.39
415.253	119.46
415.466	142.13
415.678	180.1
415.891	100.09
416.104	94.47
416.316	107.26
416.529	106.29
416.742	140.77
416.954	171.58
417.167	123.53
417.38	99.31
417.592	164.41
417.805	78.97
418.017	75.29
418.23	169.06
418.442	109.58
418.655	92.72
418.868	130.89
419.08	143.68
419.293	178.94
419.505	115.2
419.718	134.38
419.93	165.38
420.142	110.36
420.355	157.24
420.567	170.22
420.78	146.97
420.992	130.31
421.205	193.47
421.417	77.03
421.629	133.41
421.842	82.07
422.054	83.42
422.266	135.15
422.479	167.51
422.691	121.4
422.903	186.11
423.115	110.94
423.328	105.51
423.54	155.3
423.752	102.02
423.964	105.32
424.177	153.37
424.389	117.91
424.601	215.17
424.813	153.75
425.025	164.02
425.238	181.65
425.45	128.18
425.662	121.98
425.874	411.24
426.086	139.03
426.298	183.01
426.51	164.6
426.722	151.82
426.934	123.14
427.146	173.9
427.358	123.34
427.57	176.62
427.782	150.85
427.994	139.61
428.206	117.72
428.418	106.67
428.63	183.59
428.842	183.4
429.054	181.46
429.266	161.12
429.478	126.82
429.69	134.19
429.902	93.69
430.114	171.77
430.325	159.18
430.537	106.87
430.749	133.41
430.961	80.91
431.173	127.02
431.384	175.26
431.596	82.84
431.808	111.71
432.02	170.03
432.231	171.39
432.443	188.24
432.655	168.67
432.867	128.76
433.078	185.34
433.29	213.04
433.502	212.27
433.713	201.22
433.925	179.52
434.136	189.6
434.348	86.52
434.56	125.27
434.771	260.51
434.983	135.15
435.194	147.75
435.406	166.35
435.617	197.35
435.829	236.87
436.04	230.28
436.252	203.55
436.463	192.12
436.675	213.43
436.886	211.1
437.098	191.73
437.309	238.62
437.521	186.89
437.732	197.93
437.943	151.82
438.155	196.38
438.366	171
438.578	251.4
438.789	173.9
439	207.81
439.211	185.34
439.423	180.69
439.634	220.79
439.845	209.36
440.057	202.39
440.268	241.33
440.479	189.99
440.69	215.95
440.902	207.42
441.113	202.97
441.324	167.7
441.535	226.6
441.746	269.42
441.957	170.61
442.168	181.27
442.38	211.68
442.591	222.92
442.802	189.4
443.013	185.14
443.224	239.2
443.435	195.02
443.646	215.17
443.857	209.94
444.068	195.22
444.279	191.34
444.49	307.4
444.701	217.88
444.912	316.7
445.123	249.27
445.334	251.98
445.545	254.12
445.756	239
445.967	202.19
446.178	256.44
446.388	264.97
446.599	262.25
446.81	263.61
447.021	224.08
447.232	262.83
447.443	269.42
447.653	229.7
447.864	274.46
448.075	252.95
448.286	275.82
448.496	253.73
448.707	296.74
448.918	256.83
449.129	333.55
449.339	259.54
449.55	263.42
449.761	239.97
449.971	296.55
450.182	241.33
450.393	290.93
450.603	242.88
450.814	326.38
451.024	276.4
451.235	320.96
451.446	300.61
451.656	342.85
451.867	244.04
452.077	304.3
452.288	322.31
452.498	298.1
452.709	270
452.919	285.7
453.13	255.28
453.34	325.61
453.55	239.2
453.761	278.33
453.971	288.8
454.182	298.87
454.392	301.78
454.602	358.74
454.813	328.32
455.023	326.19
455.233	278.92
455.444	313.79
455.654	235.52
455.864	280.47
456.075	310.69
456.285	298.68
456.495	289.77
456.705	302.94
456.916	341.88
457.126	345.56
457.336	311.08
457.546	258.77
457.756	268.84
457.967	347.89
458.177	298.87
458.387	292.48
458.597	267.1
458.807	293.83
459.017	277.75
459.227	279.3
459.437	296.55
459.647	337.23
459.857	337.23
460.068	319.99
460.278	337.62
460.488	324.06
460.698	357.77
460.908	296.93
461.117	283.37
461.327	288.8
461.537	304.1
461.747	333.36
461.957	355.06
462.167	430.43
462.377	370.56
462.587	333.36
462.797	364.55
463.007	331.03
463.216	373.46
463.426	405.04
463.636	373.66
463.846	293.25
464.056	308.56
464.265	366.49
464.475	328.13
464.685	335.1
464.895	352.35
465.104	329.1
465.314	374.63
465.524	323.67
465.733	306.23
465.943	398.84
466.153	410.28
466.362	384.12
466.572	349.25
466.782	346.15
466.991	358.55
467.201	413.18
467.41	322.12
467.62	361.26
467.829	340.91
468.039	399.43
468.249	384.12
468.458	362.42
468.668	403.49
468.877	405.63
469.086	424.42
469.296	402.91
469.505	355.25
469.715	436.63
469.924	376.37
470.134	427.13
470.343	418.99
470.552	366.88
470.762	366.49
470.971	348.47
471.18	371.72
471.39	387.8
471.599	331.81
471.808	436.82
472.018	360.87
472.227	416.67
472.436	439.73
472.645	389.35
472.855	377.15
473.064	452.51
473.273	416.86
473.482	436.24
473.691	479.06
473.901	442.83
474.11	409.69
474.319	521.1
474.528	455.61
474.737	476.54
474.946	447.48
475.155	447.48
475.364	489.71
475.573	443.41
475.783	466.85
475.992	459.68
476.201	477.51
476.41	470.92
476.619	429.65
476.828	471.69
477.037	460.65
477.245	452.13
477.454	502.31
477.663	447.67
477.872	475.57
478.081	541.25
478.29	462.59
478.499	548.81
478.708	507.54
478.917	559.46
479.125	486.42
479.334	526.91
479.543	484.09
479.752	533.69
479.961	539.12
480.169	536.6
480.378	532.14
480.587	604.8
480.796	556.56
481.004	547.84
481.213	567.21
481.422	556.56
481.63	549
481.839	575.93
482.048	603.83
482.256	569.15
482.465	601.7
482.674	591.62
482.882	590.46
483.091	630.57
483.299	553.07
483.508	589.49
483.716	592.2
483.925	596.85
484.134	546.29
484.342	603.83
484.551	616.81
484.759	619.52
484.967	623.98
485.176	617.2
485.384	621.46
485.593	636.19
485.801	627.08
486.01	601.5
486.218	578.25
486.426	501.34
486.635	550.74
486.843	546.87
487.051	567.21
487.26	545.51
487.468	581.74
487.676	646.65
487.885	608.29
488.093	620.3
488.301	615.07
488.509	627.47
488.717	661.76
488.926	664.67
489.134	631.92
489.342	675.9
489.55	606.15
489.758	669.7
489.967	656.92
490.175	762.51
490.383	665.25
490.591	729.18
490.799	652.07
491.007	752.05
491.215	682.88
491.423	685.98
491.631	667.38
491.839	691.21
492.047	723.95
492.255	655.37
492.463	638.7
492.671	677.65
492.879	699.73
493.087	731.51
493.295	707.68
493.503	713.49
493.711	752.82
493.919	755.53
494.127	759.21
494.334	771.42
494.542	726.28
494.75	742.36
494.958	738.48
495.166	761.73
495.374	743.33
495.581	765.41
495.789	790.41
495.997	822.57
496.205	735.77
496.412	778.78
496.62	784.01
496.828	789.83
497.035	769.87
497.243	847.37
497.451	786.15
497.658	796.61
497.866	827.61
498.074	894.64
498.281	797.19
498.489	884.18
498.696	798.74
498.904	824.31
499.112	817.92
499.319	869.46
499.527	823.93
499.734	880.69
499.942	817.15
500.149	824.51
500.357	871.2
500.564	814.82
500.771	834.58
500.979	813.85
501.186	803.2
501.394	826.44
501.601	852.99
501.808	869.46
502.016	821.8
502.223	856.86
502.43	863.06
502.638	869.65
502.845	831.87
503.052	934.36
503.26	880.31
503.467	949.47
503.674	911.89
503.881	917.12
504.089	982.02
504.296	954.9
504.503	882.83
504.71	915.57
504.917	874.88
505.125	927.77
505.332	939.79
505.539	939.79
505.746	1000.62
505.953	992.87
506.16	1002.95
506.367	1036.66
506.574	1029.3
506.781	1049.45
506.988	986.09
507.195	1010.12
507.402	1027.55
507.609	1062.24
507.816	961.68
508.023	1004.69
508.23	992.87
508.437	1008.37
508.644	1068.05
508.851	1092.07
509.058	1085.29
509.265	1082.97
509.472	1086.84
509.679	1203.67
509.885	1095.37
510.092	1135.28
510.299	1106.41
510.506	1128.5
510.713	1159.5
510.92	1120.75
511.126	1162.98
511.333	1171.51
511.54	1167.05
511.746	1243
511.953	1241.45
512.16	1214.33
512.367	1209.87
512.573	1205.61
512.78	1190.88
512.987	1232.93
513.193	1230.21
513.4	1180.03
513.606	1207.74
513.813	1260.83
514.02	1231.38
514.226	1307.33
514.433	1285.82
514.639	1233.51
514.846	1269.16
515.052	1254.63
515.259	1286.79
515.465	1295.51
515.672	1309.84
515.878	1383.08
516.085	1329.8
516.291	1373.59
516.497	1305.78
516.704	1326.89
516.91	1283.69
517.117	1244.94
517.323	1227.11
517.529	1217.43
517.736	1247.26
517.942	1317.21
518.148	1290.08
518.354	1374.94
518.561	1334.06
518.767	1370.29
518.973	1390.25
519.179	1413.5
519.386	1419.7
519.592	1429
519.798	1416.21
520.004	1519.87
520.21	1513.09
520.417	1515.02
520.623	1616.16
520.829	1595.23
521.035	1602.98
521.241	1580.9
521.447	1660.53
521.653	1746.55
521.859	1632.43
522.065	1672.54
522.271	1783.36
522.477	1716.52
522.683	1763.41
522.889	1697.92
523.095	1718.84
523.301	1718.65
523.507	1697.53
523.713	1721.75
523.919	1726.98
524.125	1820.56
524.331	1776.78
524.537	1886.24
524.742	1846.14
524.948	1879.07
525.154	1888.18
525.36	1974.01
525.566	1936.04
525.772	1970.52
525.977	1880.43
526.183	1926.93
526.389	1949.21
526.595	1863.57
526.8	1860.47
527.006	1827.54
527.212	1749.84
527.417	1732.02
527.623	1741.13
527.829	1864.93
528.034	1902.32
528.24	1915.3
528.446	1897.87
528.651	2001.33
528.857	2008.11
529.062	2070.5
529.268	2034.46
529.473	2078.63
529.679	2068.56
529.884	2126.3
530.09	2122.81
530.295	2131.91
530.501	2160.59
530.706	2110.21
530.912	2098.01
531.117	2108.66
531.323	2139.66
531.528	2194.11
531.733	2179.19
531.939	2177.64
532.144	2170.86
532.35	2217.74
532.555	2191.2
532.76	2181.13
532.966	2180.93
533.171	2163.3
533.376	2148.58
533.581	2135.01
533.787	2156.71
533.992	2235.57
534.197	2216.97
534.402	2227.82
534.607	2208.44
534.813	2307.45
535.018	2212.51
535.223	2275.67
535.428	2293.5
535.633	2323.14
535.838	2315
536.043	2353.37
536.249	2444.82
536.454	2346.39
536.659	2411.49
536.864	2322.56
537.069	2339.03
537.274	2309.77
537.479	2346.78
537.684	2316.55
537.889	2288.27
538.094	2450.43
538.299	2348.72
538.504	2378.36
538.708	2332.64
538.913	2376.42
539.118	2353.75
539.323	2422.53
539.528	2365.19
539.733	2398.12
539.938	2370.42
540.142	2371.77
540.347	2319.07
540.552	2304.35
540.757	2309.58
540.962	2354.92
541.166	2242.16
541.371	2286.91
541.576	2321.98
541.781	2253.59
541.985	2352.79
542.19	2377
542.395	2460.9
542.599	2448.88
542.804	2420.4
543.008	2464.38
543.213	2409.55
543.418	2336.51
543.622	2425.25
543.827	2384.75
544.031	2456.05
544.236	2501.58
544.44	2478.33
544.645	2535.49
544.849	2451.4
545.054	2492.67
545.258	2582.96
545.463	2520.18
545.667	2499.65
545.872	2511.66
546.076	2532
546.281	2498.48
546.485	2459.93
546.689	2505.26
546.894	2551.76
547.098	2506.04
547.302	2516.11
547.507	2511.46
547.711	2599.62
547.915	2570.56
548.119	2479.69
548.324	2531.23
548.528	2557.38
548.732	2551.38
548.936	2569.4
549.141	2571.53
549.345	2517.86
549.549	2589.35
549.753	2590.71
549.957	2615.12
550.161	2617.25
550.366	2622.68
550.57	2591.09
550.774	2606.79
550.978	2543.82
551.182	2594
551.386	2576.37
551.59	2568.43
551.794	2527.35
551.998	2615.31
552.202	2575.59
552.406	2555.83
552.61	2595.16
552.814	2603.88
553.018	2673.05
553.222	2601.36
553.426	2568.23
553.63	2666.66
553.833	2595.36
554.037	2539.17
554.241	2603.88
554.445	2597.88
554.649	2609.5
554.853	2621.32
555.056	2622.29
555.26	2695.91
555.464	2649.99
555.668	2655.03
555.871	2651.16
556.075	2652.71
556.279	2573.85
556.483	2560.48
556.686	2595.74
556.89	2575.59
557.094	2590.51
557.297	2506.04
557.501	2576.76
557.704	2460.7
557.908	2545.56
558.112	2550.41
558.315	2585.67
558.519	2558.35
558.722	2513.01
558.926	2511.27
559.129	2404.71
559.333	2413.04
559.536	2441.72
559.74	2330.5
559.943	2382.04
560.147	2371.77
560.35	2386.11
560.553	2423.12
560.757	2373.71
560.96	2475.04
561.164	2425.05
561.367	2478.72
561.57	2418.66
561.774	2459.35
561.977	2431.25
562.18	2392.89
562.384	2468.84
562.587	2405.68
562.79	2405.87
562.993	2363.83
563.197	2436.87
563.4	2466.9
563.603	2439.2
563.806	2461.09
564.009	2377.97
564.212	2409.75
564.416	2328.57
564.619	2382.24
564.822	2307.84
565.025	2435.9
565.228	2349.88
565.431	2364.8
565.634	2285.56
565.837	2275.09
566.04	2233.05
566.243	2257.07
566.446	2136.18
566.649	2264.82
566.852	2195.46
567.055	2235.18
567.258	2244.29
567.461	2269.67
567.664	2285.75
567.867	2212.9
568.07	2216.78
568.273	2237.31
568.475	2268.7
568.678	2184.42
568.881	2193.72
569.084	2160.39
569.287	2091.03
569.489	2111.57
569.692	2161.36
569.895	2153.42
570.098	2086.77
570.3	2066.23
570.503	2020.12
570.706	2014.5
570.909	2002.1
571.111	1941.07
571.314	1925.96
571.516	1967.62
571.719	1989.12
571.922	1985.44
572.124	1952.5
572.327	2017.02
572.529	1974.2
572.732	1972.46
572.935	1993.38
573.137	2091.23
573.34	1968.39
573.542	1978.47
573.745	1983.31
573.947	1987.18
574.15	1971.49
574.352	1928.29
574.554	2003.85
574.757	1878.49
574.959	1889.54
575.162	1912.2
575.364	1848.27
575.566	1955.02
575.769	1828.89
575.971	1848.85
576.173	1781.04
576.376	1823.86
576.578	1898.84
576.78	1917.44
576.982	1779.88
577.185	1817.66
577.387	1811.26
577.589	1807.77
577.791	1840.13
577.993	1844.78
578.196	1831.61
578.398	1813.78
578.6	1810.49
578.802	1772.9
579.004	1753.91
579.206	1747.71
579.408	1768.25
579.61	1751.39
579.812	1845.75
580.014	1763.6
580.216	1742.29
580.418	1812.62
580.62	1753.14
580.822	1714
581.024	1771.74
581.226	1823.66
581.428	1771.93
581.63	1830.44
581.832	1765.15
582.034	1831.8
582.236	1803.51
582.438	1821.14
582.64	1833.54
582.841	1830.25
583.043	1857.57
583.245	1795.57
583.447	1836.26
583.649	1791.11
583.85	1824.82
584.052	1834.32
584.254	1763.99
584.456	1828.7
584.657	1769.61
584.859	1791.69
585.061	1762.44
585.262	1762.44
585.464	1736.28
585.666	1759.73
585.867	1731.24
586.069	1807.19
586.27	1735.7
586.472	1738.99
586.674	1705.28
586.875	1728.92
587.077	1726.98
587.278	1745.78
587.48	1683.78
587.681	1791.11
587.883	1721.94
588.084	1657.62
588.285	1669.63
588.487	1660.91
588.688	1671.38
588.89	1559.39
589.091	1552.03
589.292	1572.37
589.494	1475.3
589.695	1485.96
589.896	1392.77
590.098	1423.77
590.299	1473.95
590.5	1451.28
590.702	1468.72
590.903	1536.92
591.104	1594.65
591.305	1581.28
591.507	1588.45
591.708	1599.5
591.909	1530.91
592.11	1633.98
592.311	1597.95
592.512	1556.87
592.714	1493.32
592.915	1519.29
593.116	1502.24
593.317	1583.22
593.518	1545.05
593.719	1567.72
593.92	1572.18
594.121	1586.32
594.322	1567.33
594.523	1541.18
594.724	1501.27
594.925	1533.04
595.126	1524.52
595.327	1510.37
595.528	1533.04
595.729	1544.86
595.929	1504.75
596.13	1551.45
596.331	1532.65
596.532	1533.23
596.733	1601.24
596.934	1564.04
597.135	1595.04
597.335	1548.93
597.536	1511.73
597.737	1498.94
597.938	1537.88
598.138	1555.13
598.339	1526.65
598.54	1538.66
598.74	1513.28
598.941	1516.38
599.142	1585.55
599.342	1553
599.543	1502.82
599.744	1505.72
599.944	1505.92
600.145	1511.15
600.345	1539.05
600.546	1593.68
600.746	1552.61
600.947	1605.7
601.147	1534.78
601.348	1583.8
601.548	1520.84
601.749	1523.74
601.949	1461.74
602.15	1525.29
602.35	1504.17
602.551	1535.75
602.751	1477.82
602.951	1507.47
603.152	1457.09
603.352	1513.47
603.552	1493.52
603.753	1541.37
603.953	1514.05
604.153	1533.43
604.354	1509.21
604.554	1517.74
604.754	1522.19
604.954	1495.65
605.155	1534.2
605.355	1457.48
605.555	1512.12
605.755	1553.77
605.955	1492.35
606.155	1529.75
606.356	1503.98
606.556	1523.55
606.756	1525.1
606.956	1462.9
607.156	1527.81
607.356	1453.41
607.556	1506.69
607.756	1472.98
607.956	1528.39
608.156	1477.82
608.356	1450.7
608.556	1469.1
608.756	1457.48
608.956	1430.16
609.156	1471.04
609.356	1446.63
609.556	1420.47
609.755	1481.12
609.955	1415.82
610.155	1482.09
610.355	1465.23
610.555	1411.17
610.755	1398.39
610.954	1385.99
611.154	1413.31
611.354	1484.6
611.554	1406.33
611.753	1381.14
611.953	1340.07
612.153	1412.72
612.352	1406.52
612.552	1349.17
612.752	1325.93
612.951	1395.87
613.151	1384.05
613.351	1362.54
613.55	1364.48
613.75	1412.14
613.949	1340.07
614.149	1342.01
614.348	1324.38
614.548	1339.29
614.747	1276.91
614.947	1325.34
615.146	1235.45
615.346	1376.3
615.545	1363.12
615.745	1341.04
615.944	1323.21
616.144	1348.21
616.343	1335.42
616.542	1279.04
616.742	1293.38
616.941	1266.25
617.14	1231.96
617.34	1296.48
617.539	1300.16
617.738	1274.78
617.938	1334.64
618.137	1285.63
618.336	1233.12
618.535	1289.69
618.734	1275.55
618.934	1264.89
619.133	1274.58
619.332	1295.7
619.531	1244.75
619.73	1252.3
619.929	1301.51
620.128	1318.18
620.328	1310.62
620.527	1241.45
620.726	1239.13
620.925	1267.99
621.124	1268.19
621.323	1243
621.522	1232.93
621.721	1238.16
621.92	1218.98
622.119	1247.26
622.318	1206.19
622.517	1218.2
622.715	1224.01
622.914	1146.71
623.113	1214.13
623.312	1124.62
623.511	1195.53
623.71	1209.87
623.909	1165.31
624.107	1241.45
624.306	1130.43
624.505	1157.37
624.704	1163.95
624.902	1174.22
625.101	1212.97
625.3	1158.33
625.499	1140.12
625.697	1171.51
625.896	1124.04
626.095	1135.28
626.293	1100.21
626.492	1196.7
626.69	1170.93
626.889	1154.85
627.088	1164.53
627.286	1130.24
627.485	1103.5
627.683	1112.42
627.882	1113.38
628.08	1058.75
628.279	1080.06
628.477	1131.02
628.676	1066.11
628.874	1116.68
629.073	1076.96
629.271	1042.47
629.469	1078.32
629.668	1103.5
629.866	1064.17
630.065	1042.86
630.263	1103.12
630.461	1082.19
630.66	1080.45
630.858	1097.69
631.056	1138.57
631.254	1151.36
631.453	1071.54
631.651	1102.92
631.849	1102.34
632.047	1082.58
632.245	1089.55
632.444	1110.48
632.642	1127.92
632.84	1134.5
633.038	1095.56
633.236	1067.85
633.434	1063.59
633.632	1090.52
633.83	1068.05
634.028	1141.87
634.227	1084.32
634.425	1193.01
634.623	1130.05
634.821	1128.69
635.019	1114.55
635.216	1086.65
635.414	1137.6
635.612	1106.41
635.81	1098.85
636.008	1158.33
636.206	1112.42
636.404	1112.8
636.602	1064.75
636.8	1088.2
636.997	1149.42
637.195	1133.53
637.393	1128.3
637.591	1123.07
637.789	1099.43
637.986	1083.55
638.184	1086.84
638.382	1125.78
638.58	1116.48
638.777	1151.17
638.975	1088
639.173	1103.12
639.37	1100.4
639.568	1085.48
639.765	1095.56
639.963	1104.47
640.161	1125.59
640.358	1094.2
640.556	1033.75
640.753	1026.59
640.951	996.56
641.148	1036.08
641.346	1034.92
641.543	1035.69
641.741	1057.78
641.938	975.05
642.136	1007.99
642.333	991.91
642.531	1031.43
642.728	1058.75
642.925	1012.64
643.123	962.26
643.32	979.89
643.517	969.43
643.715	994.42
643.912	966.33
644.109	998.1
644.306	979.51
644.504	958.19
644.701	975.63
644.898	983.77
645.095	959.36
645.293	981.25
645.49	965.75
645.687	954.71
645.884	979.31
646.081	863.45
646.278	888.06
646.475	908.59
646.672	900.26
646.87	906.27
647.067	908.79
647.264	885.73
647.461	842.72
647.658	859.77
647.855	911.31
648.052	878.95
648.249	793.7
648.446	856.86
648.642	839.23
648.839	816.18
649.036	827.8
649.233	778.59
649.43	793.7
649.627	776.46
649.824	807.46
650.021	786.34
650.217	800.68
650.414	793.31
650.611	844.85
650.808	858.22
651.004	825.48
651.201	840.98
651.398	887.67
651.595	836.13
651.791	796.8
651.988	839.62
652.185	784.79
652.381	840.39
652.578	770.26
652.775	784.21
652.971	819.47
653.168	824.31
653.364	847.56
653.561	772.97
653.757	804.55
653.954	810.95
654.15	808.62
654.347	861.9
654.543	807.85
654.74	760.57
654.936	771.23
655.133	783.43
655.329	796.03
655.525	780.14
655.722	811.53
655.918	713.68
656.115	763.86
656.311	658.85
656.507	691.6
656.704	652.07
656.9	673.58
657.096	673.77
657.292	699.54
657.489	710.97
657.685	697.02
657.881	717.37
658.077	724.73
658.273	719.11
658.47	781.3
658.666	733.25
658.862	738.29
659.058	692.18
659.254	779.36
659.45	718.53
659.646	745.46
659.842	742.55
660.038	785.37
660.234	723.76
660.43	759.21
660.626	777.04
660.822	760.38
661.018	760.96
661.214	742.55
661.41	703.8
661.606	741.97
661.802	754.37
661.998	748.36
662.194	687.53
662.39	755.15
662.586	731.7
662.781	780.14
662.977	768.51
663.173	712.52
663.369	727.05
663.564	731.7
663.76	732.87
663.956	721.43
664.152	746.04
664.347	646.65
664.543	701.48
664.739	710.39
664.934	661.76
665.13	661.37
665.326	724.15
665.521	735.96
665.717	654.2
665.912	669.7
666.108	586.59
666.304	714.65
666.499	670.67
666.695	615.84
666.89	697.22
667.086	702.64
667.281	685.4
667.477	710.97
667.672	663.89
667.867	696.05
668.063	675.71
668.258	616.04
668.454	654.59
668.649	727.25
668.844	657.11
669.04	684.43
669.235	649.94
669.43	648.2
669.626	602.09
669.821	640.84
670.016	607.51
670.211	632.7
670.407	586.59
670.602	621.27
670.797	636.96
670.992	681.13
671.187	610.8
671.382	674.55
671.578	621.07
671.773	645.87
671.968	598.4
672.163	629.99
672.358	640.64
672.553	618.75
672.748	601.5
672.943	692.18
673.138	600.73
673.333	637.54
673.528	591.62
673.723	651.88
673.918	607.51
674.113	578.06
674.308	672.03
674.503	625.92
674.698	637.54
674.892	621.07
675.087	650.33
675.282	604.22
675.477	588.33
675.672	637.54
675.867	580.58
676.061	559.46
676.256	581.94
676.451	573.99
676.646	614.87
676.84	578.06
677.035	553.65
677.23	572.83
677.424	602.47
677.619	625.14
677.814	619.14
678.008	596.85
678.203	570.31
678.397	573.22
678.592	599.95
678.787	676.48
678.981	588.91
679.176	614.49
679.37	604.99
679.565	578.25
679.759	593.56
679.954	620.88
680.148	657.3
680.342	638.9
680.537	597.05
680.731	599.95
680.926	629.79
681.12	637.15
681.314	582.71
681.509	588.52
681.703	590.65
681.897	621.85
682.092	604.41
682.286	618.75
682.48	654.01
682.674	648.97
682.869	604.99
683.063	590.27
683.257	699.73
683.451	574.96
683.645	631.92
683.839	626.89
684.034	612.74
684.228	658.08
684.422	568.18
684.616	593.37
684.81	645.1
685.004	595.69
685.198	611
685.392	652.85
685.586	613.71
685.78	653.62
685.974	649.55
686.168	669.32
686.362	692.57
686.556	596.27
686.75	577.87
686.944	556.17
687.138	592.79
687.331	495.14
687.525	509.67
687.719	462.2
687.913	519.55
688.107	543.38
688.301	514.12
688.494	543.96
688.688	511.02
688.882	506.57
689.076	527.69
689.269	555.78
689.463	616.42
689.657	545.71
689.85	583.49
690.044	574.38
690.238	600.92
690.431	625.72
690.625	620.3
690.818	646.26
691.012	662.73
691.205	685.98
691.399	645.29
691.593	705.55
691.786	749.53
691.98	783.24
692.173	787.89
692.366	794.86
692.56	792.15
692.753	841.36
692.947	772.2
693.14	852.79
693.333	868.1
693.527	792.73
693.72	846.59
693.914	822.18
694.107	864.81
694.3	885.73
694.493	851.24
694.687	942.5
694.88	888.83
695.073	968.46
695.266	985.32
695.46	979.51
695.653	1030.65
695.846	1015.93
696.039	984.35
696.232	1005.66
696.425	1096.53
696.618	1087.81
696.812	1140.9
697.005	1201.35
697.198	1290.28
697.391	1241.06
697.584	1215.3
697.777	1297.06
697.97	1289.69
698.163	1322.05
698.356	1289.31
698.549	1417.18
698.742	1365.64
698.935	1327.48
699.127	1340.46
699.32	1338.71
699.513	1334.06
699.706	1349.37
699.899	1413.5
700.092	1394.71
700.285	1407.69
700.477	1367.39
700.67	1467.17
700.863	1460.97
701.056	1549.32
701.248	1503.01
701.441	1516.57
701.634	1481.7
701.826	1633.79
702.019	1544.08
702.212	1576.63
702.404	1567.33
702.597	1545.05
702.79	1616.35
702.982	1627.78
703.175	1676.22
703.367	1728.34
703.56	1723.49
703.752	1781.04
703.945	1773.29
704.137	1804.67
704.33	1802.16
704.522	1845.56
704.715	1855.82
704.907	1876.36
705.1	1902.52
705.292	1900.97
705.484	1905.62
705.677	1949.02
705.869	1977.69
706.061	1982.34
706.254	2033.3
706.446	2003.85
706.638	1999.39
706.831	2085.41
707.023	2040.47
707.215	2156.91
707.407	2141.21
707.599	2181.71
707.792	2191.39
707.984	2143.54
708.176	2213.87
708.368	2192.75
708.56	2233.05
708.752	2234.21
708.944	2245.64
709.136	2257.85
709.329	2315
709.521	2391.54
709.713	2345.04
709.905	2379.72
710.097	2414.59
710.289	2344.07
710.481	2380.3
710.672	2433
710.864	2482.02
711.056	2500.81
711.248	2522.9
711.44	2520.96
711.632	2497.13
711.824	2565.13
712.016	2531.23
712.207	2554.09
712.399	2560.29
712.591	2655.03
712.783	2613.76
712.975	2643.02
713.166	2593.42
713.358	2641.28
713.55	2696.11
713.741	2729.43
713.933	2712.96
714.125	2659.87
714.316	2653.09
714.508	2791.04
714.7	2727.88
714.891	2720.52
715.083	2798.99
715.274	2708.31
715.466	2771.86
715.657	2759.27
715.849	2703.86
716.04	2723.42
716.232	2684.09
716.423	2677.31
716.615	2601.17
716.806	2544.98
716.998	2476.98
717.189	2386.5
717.381	2315
717.572	2263.08
717.763	2295.63
717.955	2238.67
718.146	2188.68
718.337	2129.98
718.528	2110.8
718.72	2066.43
718.911	2116.03
719.102	2039.88
719.293	2087.35
719.485	2059.45
719.676	2052.48
719.867	1988.54
720.058	1999
720.249	2010.05
720.44	2019.35
720.632	2076.11
720.823	2135.4
721.014	2260.37
721.205	2340.19
721.396	2434.35
721.587	2570.94
721.778	2586.64
721.969	2639.53
722.16	2735.44
722.351	2728.85
722.542	2859.24
722.733	2900.51
722.924	2761.2
723.115	2847.42
723.305	2790.46
723.496	2810.22
723.687	2647.86
723.878	2635.66
724.069	2647.48
724.26	2625
724.45	2565.91
724.641	2566.68
724.832	2584.31
725.023	2571.72
725.213	2569.59
725.404	2544.98
725.595	2540.72
725.785	2538.01
725.976	2584.7
726.167	2574.82
726.357	2619.77
726.548	2678.86
726.739	2612.21
726.929	2726.52
727.12	2727.88
727.31	2712.77
727.501	2668.01
727.691	2679.06
727.882	2680.8
728.072	2708.51
728.263	2759.07
728.453	2820.69
728.644	2789.69
728.834	2785.23
729.024	2778.06
729.215	2750.55
729.405	2736.02
729.596	2842.58
729.786	2869.9
729.976	2843.74
730.167	2870.48
730.357	2835.41
730.547	2878.42
730.737	2913.3
730.928	2954.56
731.118	2964.25
731.308	2932.09
731.498	2903.42
731.688	3004.75
731.879	3040.01
732.069	3150.64
732.259	3201.79
732.449	3238.21
732.639	3261.65
732.829	3278.12
733.019	3351.75
733.209	3425.18
733.399	3456.95
733.589	3521.28
733.779	3573.78
733.969	3541.42
734.159	3656.51
734.349	3681.7
734.539	3728.2
734.729	3712.5
734.919	3730.72
735.109	3816.74
735.299	3724.9
735.488	3748.93
735.678	3804.15
735.868	3733.43
736.058	3768.69
736.248	3736.72
736.437	3715.22
736.627	3726.84
736.817	3823.71
737.007	3728.58
737.196	3835.92
737.386	3852.2
737.576	3846.96
737.765	3869.83
737.955	3810.54
738.144	3976.58
738.334	3892.88
738.524	3869.44
738.713	3923.49
738.903	3903.15
739.092	3956.63
739.282	3962.44
739.471	3951.78
739.661	3986.66
739.85	4027.15
740.04	4032.38
740.229	4012.62
740.419	4031.99
740.608	4100.58
740.797	4054.86
740.987	4117.05
741.176	4102.32
741.365	4081.01
741.555	4048.07
741.744	4132.55
741.933	4069.39
742.123	4122.47
742.312	4127.12
742.501	4213.92
742.69	4191.25
742.88	4119.18
743.069	4235.62
743.258	4123.44
743.447	4251.12
743.636	4239.88
743.825	4184.86
744.014	4190.48
744.204	4263.71
744.393	4172.65
744.582	4310.02
744.771	4266.04
744.96	4221.87
745.149	4249.57
745.338	4245.7
745.527	4248.41
745.716	4239.69
745.905	4207.14
746.094	4266.81
746.283	4315.64
746.471	4300.14
746.66	4306.34
746.849	4342.96
747.038	4299.95
747.227	4308.28
747.416	4321.06
747.604	4301.11
747.793	4263.71
747.982	4306.15
748.171	4314.67
748.359	4322.42
748.548	4270.88
748.737	4303.82
748.926	4280.76
749.114	4183.89
749.303	4281.54
749.491	4301.5
749.68	4196.1
749.869	4303.82
750.057	4248.41
750.246	4224.38
750.434	4271.85
750.623	4228.84
750.811	4205.59
751	4265.46
751.188	4217.02
751.377	4187.38
751.565	4217.8
751.754	4157.54
751.942	4187.77
752.131	4240.27
752.319	4160.25
752.507	4141.46
752.696	4231.16
752.884	4224.19
753.072	4139.52
753.261	4199.58
753.449	4186.41
753.637	4175.56
753.825	4207.33
754.014	4174.01
754.202	4191.64
754.39	4230.39
754.578	4186.8
754.766	4160.83
754.955	4136.81
755.143	4171.3
755.331	4143.78
755.519	4107.55
755.707	4104.84
755.895	4144.17
756.083	4153.28
756.271	4109.49
756.459	4090.89
756.647	4120.92
756.835	4049.24
757.023	4051.76
757.211	4107.94
757.399	4063.19
757.587	4079.46
757.775	3977.74
757.963	4061.05
758.151	4059.89
758.339	3995.37
758.526	3963.6
758.714	3981.23
758.902	3865.18
759.09	3759.39
759.278	3524.76
759.465	3249.64
759.653	2806.93
759.841	2557.38
760.028	2216.58
760.216	1884.5
760.404	1727.56
760.591	1479.76
760.779	1186.81
760.967	1050.42
761.154	850.66
761.342	886.51
761.529	892.13
761.717	927.97
761.905	899.49
762.092	975.24
762.28	907.43
762.467	892.71
762.655	825.28
762.842	877.79
763.029	842.53
763.217	869.26
763.404	877.79
763.592	888.44
763.779	842.53
763.966	931.46
764.154	932.81
764.341	1005.47
764.528	1035.3
764.716	1086.45
764.903	1188.75
765.09	1215.1
765.277	1304.23
765.465	1482.67
765.652	1554.55
765.839	1635.92
766.026	1805.64
766.213	1843.62
766.4	1991.45
766.588	2187.33
766.775	2243.32
766.962	2358.99
767.149	2472.52
767.336	2661.23
767.523	2609.5
767.71	2775.93
767.897	2927.25
768.084	2972
768.271	3045.24
768.458	3106.85
768.645	3160.52
768.832	3192.87
769.019	3240.73
769.206	3235.3
769.392	3377.9
769.579	3424.98
769.766	3407.74
769.953	3419.75
770.14	3525.73
770.327	3486.4
770.513	3530.77
770.7	3574.75
770.887	3532.71
771.073	3566.81
771.26	3533.29
771.447	3551.31
771.634	3533.09
771.82	3614.66
772.007	3534.26
772.193	3579.98
772.38	3601.49
772.567	3547.82
772.753	3554.79
772.94	3616.21
773.126	3630.35
773.313	3604.59
773.499	3590.06
773.686	3614.08
773.872	3556.92
774.059	3589.86
774.245	3577.85
774.432	3542.59
774.618	3472.64
774.804	3514.49
774.991	3469.16
775.177	3506.55
775.363	3486.4
775.55	3561.96
775.736	3485.24
775.922	3500.74
776.109	3473.61
776.295	3554.99
776.481	3534.84
776.667	3551.89
776.853	3455.01
777.04	3447.26
777.226	3456.56
777.412	3508.68
777.598	3453.66
777.784	3439.51
777.97	3423.63
778.156	3457.53
778.342	3442.81
778.528	3440.29
778.715	3353.3
778.901	3389.33
779.087	3438.93
779.272	3379.65
779.458	3381.97
779.644	3383.91
779.83	3353.88
780.016	3418.98
780.202	3351.94
780.388	3382.55
780.574	3319
780.76	3337.99
780.946	3362.4
781.131	3344.97
781.317	3325.59
781.503	3319.97
781.689	3331.21
781.874	3446.49
782.06	3278.12
782.246	3358.91
782.432	3315.71
782.617	3274.44
782.803	3359.3
782.989	3222.52
783.174	3314.16
783.36	3208.57
783.545	3248.87
783.731	3262.82
783.916	3133.97
784.102	3198.69
784.288	3229.3
784.473	3194.62
784.659	3150.06
784.844	3232.98
785.029	3176.02
785.215	3166.33
785.4	3150.06
785.586	3180.47
785.771	3156.84
785.956	3210.5
786.142	3137.27
786.327	3127.39
786.512	3132.42
786.698	3077.01
786.883	3054.34
787.068	3068.49
787.254	3079.73
787.439	3025.28
787.624	3037.68
787.809	3027.41
787.994	2990.99
788.18	3080.89
788.365	2984.4
788.55	2987.5
788.735	2972.78
788.92	2933.64
789.105	2933.45
789.29	2981.5
789.475	2909.42
789.66	2937.51
789.845	2922.4
790.03	2899.35
790.215	2896.05
790.4	2935.77
790.585	2935.19
790.77	2915.82
790.955	2811.19
791.14	2869.12
791.325	2906.71
791.51	2778.84
791.695	2902.64
791.879	2870.28
792.064	2799.95
792.249	2944.49
792.434	2825.34
792.618	2860.6
792.803	2879.2
792.988	2821.46
793.173	2846.45
793.357	2889.08
793.542	2826.69
793.727	2853.04
793.911	2925.5
794.096	2905.55
794.281	2925.7
794.465	2965.03
794.65	2878.62
794.834	2901.28
795.019	2963.48
795.203	2962.7
795.388	2950.69
795.572	2953.79
795.757	2896.44
795.941	2917.95
796.126	2889.08
796.31	2837.35
796.494	2821.85
796.679	2868.15
796.863	2819.33
797.048	2943.52
797.232	2877.07
797.416	2897.6
797.601	2868.54
797.785	2967.55
797.969	2930.73
798.153	2888.69
798.338	2916.2
798.522	2964.06
798.706	2997.19
798.89	2952.05
799.074	3037.68
799.258	3006.3
799.443	2972.39
799.627	2977.23
799.811	2954.37
799.995	2937.51
800.179	2913.3
800.363	2901.87
800.547	2965.61
800.731	2990.02
800.915	2864.67
801.099	2895.86
801.283	2902.83
801.467	2905.55
801.651	2896.05
801.835	2996.03
802.019	2930.93
802.202	2878.42
802.386	2891.79
802.57	2854.78
802.754	2871.83
802.938	2853.82
803.121	2870.67
803.305	2951.46
803.489	2865.83
803.673	2928.8
803.856	2895.47
804.04	2848.58
804.224	2897.02
804.407	2854.2
804.591	2856.53
804.775	2873.77
804.958	2871.06
805.142	3001.26
805.326	2862.15
805.509	2903.42
805.693	2953.4
805.876	2938.29
806.06	2898.77
806.243	2970.84
806.427	2964.06
806.61	2959.21
806.794	2943.52
806.977	2955.15
807.16	2952.82
807.344	2972.39
807.527	2948.56
807.71	2953.6
807.894	2940.23
808.077	2980.91
808.26	2857.11
808.444	2876.29
808.627	2943.33
808.81	2861.76
808.993	2798.4
809.177	2791.04
809.36	2845.87
809.543	2827.08
809.726	2730.98
809.909	2748.8
810.092	2761.79
810.276	2735.44
810.459	2714.32
810.642	2709.86
810.825	2681.38
811.008	2710.25
811.191	2592.26
811.374	2622.09
811.557	2614.54
811.74	2675.76
811.923	2548.66
812.106	2546.15
812.289	2501.78
812.472	2496.74
812.654	2503.71
812.837	2454.89
813.02	2402.19
813.203	2390.57
813.386	2241.77
813.569	2250.68
813.751	2186.36
813.934	2231.11
814.117	2175.31
814.3	2131.53
814.482	2085.61
814.665	2053.83
814.848	2009.47
815.03	1932.74
815.213	1931.19
815.396	1918.6
815.578	1927.12
815.761	1866.87
815.943	1949.02
816.126	1828.12
816.309	1773.29
816.491	1738.41
816.674	1647.93
816.856	1705.09
817.039	1713.61
817.221	1776.78
817.403	1751.59
817.586	1780.26
817.768	1796.15
817.951	1679.32
818.133	1640.96
818.315	1685.52
818.498	1739.38
818.68	1822.31
818.862	1766.31
819.045	1788.59
819.227	1798.67
819.409	1748.29
819.591	1781.62
819.774	1795.76
819.956	1767.28
820.138	1825.02
820.32	1835.09
820.502	1906.39
820.684	1993.77
820.866	1989.12
821.048	2020.9
821.231	2083.48
821.413	2040.66
821.595	1991.83
821.777	2016.63
821.959	2030.39
822.141	2068.36
822.323	1937.78
822.505	1905.42
822.686	1822.11
822.868	1715.36
823.05	1602.02
823.232	1588.07
823.414	1506.11
823.596	1597.75
823.778	1562.68
823.96	1582.64
824.141	1641.93
824.323	1606.08
824.505	1707.8
824.687	1742.09
824.868	1838.97
825.05	1956.38
825.232	1967.62
825.413	2040.27
825.595	1981.37
825.777	1945.92
825.958	1957.54
826.14	1961.42
826.321	2004.43
826.503	1972.27
826.685	2012.57
826.866	2001.13
827.048	2011.21
827.229	1937.59
827.411	1928.67
827.592	1850.4
827.773	1868.81
827.955	1796.34
828.136	1820.56
828.318	1781.81
828.499	1784.91
828.68	1722.72
828.862	1750.81
829.043	1791.69
829.224	1754.69
829.406	1736.28
829.587	1738.99
829.768	1735.7
829.949	1774.26
830.131	1757.98
830.312	1815.14
830.493	1779.88
830.674	1799.64
830.855	1733.96
831.036	1782.01
831.218	1830.44
831.399	1824.05
831.58	1776.78
831.761	1783.17
831.942	1781.62
832.123	1781.43
832.304	1695.6
832.485	1775.42
832.666	1765.73
832.847	1813.97
833.028	1773.09
833.209	1807.58
833.389	1747.91
833.57	1735.7
833.751	1770.19
833.932	1804.29
834.113	1796.54
834.294	1769.8
834.475	1805.26
834.655	1809.91
834.836	1862.99
835.017	1845.56
835.198	1787.82
835.378	1805.64
835.559	1904.84
835.74	1826.37
835.92	1810.68
836.101	1819.79
836.281	1870.16
836.462	1831.8
836.643	1865.71
836.823	1891.28
837.004	1881.01
837.184	1921.7
837.365	1889.73
837.545	1872.29
837.726	1870.74
837.906	1892.83
838.087	1865.51
838.267	1858.54
838.448	1808.36
838.628	1873.07
838.808	1875.39
838.989	1887.99
839.169	1846.91
839.349	1902.71
839.53	1926.74
839.71	1933.52
839.89	1864.74
840.07	1944.37
840.251	1877.91
840.431	1912.98
840.611	1851.37
840.791	1872.68
840.971	1893.8
841.151	1847.88
841.332	1863.19
841.512	1924.99
841.692	1814.94
841.872	1888.37
842.052	1857.57
842.232	1878.1
842.412	1799.64
842.592	1858.73
842.772	1868.81
842.952	1840.13
843.132	1835.87
843.312	1819.98
843.492	1815.91
843.672	1892.44
843.851	1769.8
844.031	1833.16
844.211	1825.02
844.391	1811.07
844.571	1855.44
844.751	1858.73
844.93	1808.36
845.11	1830.64
845.29	1829.67
845.47	1868.81
845.649	1808.94
845.829	1850.79
846.009	1815.14
846.188	1827.92
846.368	1796.15
846.547	1823.27
846.727	1855.44
846.907	1785.49
847.086	1811.26
847.266	1825.6
847.445	1815.33
847.625	1815.91
847.804	1767.28
847.984	1785.11
848.163	1785.3
848.343	1728.92
848.522	1836.26
848.701	1796.54
848.881	1731.44
849.06	1754.3
849.239	1751.98
849.419	1760.89
849.598	1686.1
849.777	1682.42
849.957	1659.56
850.136	1605.89
850.315	1605.89
850.494	1610.15
850.674	1594.27
850.853	1670.02
851.032	1648.9
851.211	1674.09
851.39	1661.69
851.569	1622.55
851.748	1604.92
851.927	1704.31
852.107	1631.46
852.286	1621.78
852.465	1615.19
852.644	1654.33
852.823	1635.15
853.002	1638.63
853.181	1665.95
853.359	1673.31
853.538	1563.27
853.717	1635.92
853.896	1532.46
854.075	1480.73
854.254	1445.66
854.433	1374.36
854.611	1431.52
854.79	1374.75
854.969	1465.23
855.148	1444.69
855.327	1395.29
855.505	1499.72
855.684	1470.85
855.863	1491.97
856.041	1503.98
856.22	1536.72
856.399	1493.9
856.577	1552.03
856.756	1558.42
856.934	1659.17
857.113	1643.09
857.291	1580.12
857.47	1567.33
857.648	1622.36
857.827	1581.67
858.005	1611.31
858.184	1550.87
858.362	1619.06
858.541	1599.69
858.719	1559.39
858.898	1582.45
859.076	1557.84
859.254	1588.07
859.433	1577.22
859.611	1532.85
859.789	1487.12
859.967	1589.23
860.146	1603.18
860.324	1510.57
860.502	1538.47
860.68	1529.94
860.859	1501.46
861.037	1500.49
861.215	1566.37
861.393	1517.93
861.571	1508.44
861.749	1514.83
861.927	1499.14
862.105	1489.84
862.283	1468.52
862.461	1487.32
862.639	1459.42
862.817	1471.62
862.995	1490.03
863.173	1467.55
863.351	1460.77
863.529	1484.41
863.707	1505.72
863.885	1517.15
864.063	1401.1
864.241	1435.59
864.418	1511.73
864.596	1469.1
864.774	1458.45
864.952	1444.3
865.129	1464.84
865.307	1402.65
865.485	1368.16
865.663	1473.37
865.84	1321.28
866.018	1383.47
866.196	1239.51
866.373	1282.14
866.551	1227.11
866.728	1208.32
866.906	1235.83
867.084	1269.16
867.261	1305.58
867.439	1350.34
867.616	1328.25
867.794	1361.96
867.971	1330.38
868.149	1342.01
868.326	1396.26
868.503	1327.86
868.681	1350.53
868.858	1337.74
869.035	1318.37
869.213	1356.34
869.39	1327.48
869.567	1400.52
869.745	1332.32
869.922	1363.9
870.099	1343.75
870.276	1374.17
870.454	1332.13
870.631	1357.7
870.808	1353.82
870.985	1363.51
871.162	1395.48
871.339	1357.7
871.517	1258.5
871.694	1288.73
871.871	1354.21
872.048	1301.51
872.225	1283.69
872.402	1308.88
872.579	1276.52
872.756	1313.72
872.933	1257.34
873.11	1260.24
873.287	1289.5
873.463	1261.41
873.64	1288.53
873.817	1285.04
873.994	1280.59
874.171	1250.56
874.348	1290.47
874.524	1162.98
874.701	1282.53
874.878	1197.08
875.055	1278.26
875.231	1228.08
875.408	1259.47
875.585	1176.74
875.762	1252.5
875.938	1221.88
876.115	1219.56
876.291	1181.97
876.468	1210.84
876.645	1168.22
876.821	1178.1
876.998	1212.97
877.174	1201.54
877.351	1202.7
877.527	1148.65
877.704	1196.89
877.88	1201.93
878.057	1190.88
878.233	1244.75
878.409	1187.98
878.586	1207.74
878.762	1173.83
878.938	1177.51
879.115	1118.23
879.291	1165.7
879.467	1090.91
879.644	1150.58
879.82	1149.81
879.996	1163.95
880.172	1112.61
880.349	1124.04
880.525	1175.19
880.701	1118.42
880.877	1097.69
881.053	1115.71
881.229	1105.83
881.405	1151.36
881.581	1132.76
881.757	1100.6
881.933	1113
882.109	1152.72
882.285	1105.25
882.461	1101.18
882.637	1134.7
882.813	1133.92
882.989	1097.11
883.165	1168.02
883.341	1085.29
883.517	1148.84
883.693	1108.35
883.869	1146.52
884.044	1103.7
884.22	1153.88
884.396	1149.42
884.572	1140.9
884.747	1168.8
884.923	1183.33
885.099	1159.3
885.275	1168.6
885.45	1106.02
885.626	1127.53
885.801	1090.13
885.977	1129.47
886.153	1010.31
886.328	1110.48
886.504	1109.32
886.679	1104.47
886.855	1097.69
887.03	1149.42
887.206	1112.42
887.381	1146.13
887.557	1123.46
887.732	1128.11
887.908	1153.49
888.083	1157.75
888.258	1090.33
888.434	1090.13
888.609	1098.85
888.784	1160.47
888.96	1089.17
889.135	1140.7
889.31	1088.78
889.485	1114.16
889.661	1097.69
889.836	1115.52
890.011	1084.52
890.186	1109.32
890.361	1052.16
890.537	1110.67
890.712	1113
890.887	1120.94
891.062	1115.52
891.237	1161.82
891.412	1061.85
891.587	1143.42
891.762	1125.4
891.937	1185.26
892.112	1052.35
892.287	1075.22
892.462	1040.15
892.637	1008.37
892.812	990.36
892.987	1021.94
893.161	1017.67
893.336	1053.9
893.511	993.65
893.686	1023.1
893.861	1010.12
894.035	1006.05
894.21	998.88
894.385	924.87
894.56	991.13
894.734	911.31
894.909	907.43
895.084	904.53
895.258	862.09
895.433	872.36
895.608	882.83
895.782	847.37
895.957	871.98
896.131	820.25
896.306	785.76
896.48	768.71
896.655	756.5
896.829	710.78
897.004	695.67
897.178	716.2
897.353	694.12
897.527	752.24
897.701	758.83
897.876	676.68
898.05	798.55
898.224	728.6
898.399	762.12
898.573	707.68
898.747	613.13
898.921	658.66
899.096	580.19
899.27	570.7
899.444	587.55
899.618	639.48
899.792	639.87
899.967	671.06
900.141	661.95
900.315	568.76
900.489	613.71
900.663	636.19
900.837	616.42
901.011	579.03
901.185	672.03
901.359	610.42
901.533	622.04
901.707	639.09
901.881	624.17
902.055	590.27
902.229	606.74
902.403	682.68
902.576	630.95
902.75	639.48
902.924	744.88
903.098	702.83
903.272	736.93
903.446	776.26
903.619	752.82
903.793	769.1
903.967	750.69
904.14	833.81
904.314	790.99
904.488	791.96
904.661	820.05
904.835	795.45
905.009	832.26
905.182	827.22
905.356	818.5
905.529	787.5
905.703	779.17
905.876	785.18
906.05	733.83
906.223	733.25
906.397	670.87
906.57	635.02
906.744	637.35
906.917	626.11
907.09	662.53
907.264	625.14
907.437	575.54
907.61	560.43
907.784	585.23
907.957	586.39
908.13	524.59
908.304	589.3
908.477	569.15
908.65	586.59
908.823	511.22
908.996	575.74
909.17	554.42
909.343	515.67
909.516	555.78
909.689	558.49
909.862	514.51
910.035	538.92
910.208	510.83
910.381	510.06
910.554	619.91
910.727	566.82
910.9	531.37
911.073	512.96
911.246	631.15
911.419	611.39
911.592	568.57
911.765	537.18
911.938	524.97
912.11	543.96
912.283	545.9
912.456	606.54
912.629	539.31
912.802	506.96
912.974	449.99
913.147	456
913.32	391.29
913.493	424.23
913.665	444.96
913.838	477.7
914.01	443.41
914.183	479.25
914.356	476.34
914.528	511.02
914.701	580.58
914.873	496.11
915.046	463.94
915.218	443.99
915.391	383.15
915.563	395.16
915.736	431.01
915.908	462.98
916.081	434.69
916.253	461.81
916.425	466.27
916.598	484.67
916.77	460.84
916.942	453.48
917.115	382.76
917.287	446.31
917.459	411.83
917.632	406.21
917.804	368.81
917.976	439.73
918.148	431.98
918.32	455.61
918.493	480.41
918.665	502.31
918.837	488.16
919.009	502.11
919.181	521.87
919.353	520.32
919.525	484.29
919.697	504.24
919.869	487.19
920.041	556.75
920.213	629.21
920.385	559.27
920.557	526.52
920.729	509.67
920.901	514.71
921.073	527.69
921.244	490.49
921.416	536.21
921.588	508.89
921.76	526.72
921.932	564.11
922.103	493.01
922.275	530.98
922.447	504.44
922.619	454.64
922.79	484.87
922.962	466.08
923.134	482.16
923.305	445.34
923.477	431.2
923.648	451.35
923.82	447.67
923.991	401.75
924.163	377.53
924.335	429.84
924.506	413.38
924.677	448.06
924.849	427.52
925.02	418.03
925.192	450.96
925.363	433.53
925.535	444.76
925.706	397.29
925.877	466.66
926.049	407.37
926.22	428.29
926.391	435.27
926.562	448.83
926.734	411.24
926.905	475.57
927.076	374.05
927.247	383.35
927.419	367.65
927.59	342.66
927.761	347.7
927.932	357.96
928.103	332.97
928.274	300.03
928.445	301.58
928.616	310.5
928.787	272.91
928.958	328.13
929.129	282.02
929.3	282.98
929.471	252.57
929.642	232.03
929.813	158.02
929.984	257.41
930.155	158.6
930.326	227.57
930.496	211.3
930.667	148.52
930.838	200.45
931.009	143.1
931.18	138.25
931.35	160.15
931.521	181.07
931.692	86.14
931.863	102.02
932.033	123.34
932.204	100.67
932.374	121.01
932.545	103.19
932.716	125.47
932.886	123.53
933.057	36.15
933.227	57.85
933.398	132.25
933.568	23.94
933.739	15.03
933.909	54.17
934.08	87.11
934.25	24.53
934.421	36.15
934.591	65.21
934.761	69.47
934.932	4.18
935.102	73.35
935.272	45.06
935.443	26.66
935.613	55.52
935.783	34.99
935.953	30.92
936.123	172.94
936.294	39.64
936.464	19.1
936.634	35.96
936.804	27.24
936.974	8.83
937.144	80.91
937.314	44.09
937.484	23.17
937.655	13.48
937.825	73.74
937.995	7.28
938.165	99.12
938.334	26.66
938.504	84.97
938.674	44.87
938.844	84.97
939.014	120.24
939.184	95.05
939.354	133.8
939.524	117.14
939.694	89.24
939.863	101.64
940.033	143.1
940.203	147.17
940.373	114.23
940.542	134.57
940.712	84.78
940.882	108.22
941.051	138.64
941.221	129.92
941.391	124.5
941.56	88.27
941.73	87.69
941.899	174.1
942.069	101.83
942.238	97.57
942.408	73.74
942.577	104.16
942.747	99.31
942.916	43.32
943.086	53.59
943.255	96.99
943.425	91.56
943.594	74.51
943.763	51.65
943.933	52.23
944.102	-2.41
944.271	93.5
944.441	76.84
944.61	63.47
944.779	62.69
944.948	163.44
945.117	33.83
945.287	40.02
945.456	10.19
945.625	27.24
945.794	86.52
945.963	38.28
946.132	84.97
946.301	56.69
946.47	92.53
946.639	22.39
946.808	88.27
946.977	89.62
947.146	121.59
947.315	55.91
947.484	91.95
947.653	56.88
947.822	55.72
947.991	50.87
948.16	124.3
948.329	113.26
948.498	79.36
948.666	54.56
948.835	90.98
949.004	51.46
949.173	40.22
949.341	68.31
949.51	96.99
949.679	104.54
949.847	98.15
950.016	122.95
950.185	118.69
950.353	48.36
950.522	61.53
950.69	104.54
950.859	49.71
951.028	99.89
951.196	68.7
951.365	67.15
951.533	69.28
951.701	78.39
951.87	99.31
952.038	56.49
952.207	65.79
952.375	103.96
952.543	84.01
952.712	65.21
952.88	65.21
953.048	123.92
953.217	84.78
953.385	78
953.553	121.4
953.721	32.66
953.89	61.53
954.058	41.38
954.226	47.97
954.394	73.16
954.562	27.04
954.73	76.45
954.898	38.28
955.067	125.66
955.235	60.56
955.403	110.16
955.571	129.54
955.739	81.87
955.907	57.66
956.075	36.92
956.243	25.3
956.41	88.27
956.578	23.75
956.746	24.91
956.914	40.22
957.082	62.11
957.25	93.69
957.418	66.96
957.585	91.76
957.753	104.93
957.921	34.41
958.089	77.61
958.256	91.56
958.424	89.43
958.592	92.34
958.759	70.83
958.927	132.25
959.095	58.82
959.262	59.01
959.43	75.29
959.597	59.98
959.765	41.57
959.932	61.72
960.1	111.71
960.267	58.62
960.435	58.62
960.602	104.35
960.77	50.49
960.937	25.11
961.104	73.35
961.272	31.31
961.439	45.06
961.606	106.29
961.774	104.54
961.941	66.96
962.108	96.21
962.275	105.9
962.443	108.81
962.61	87.11
962.777	152.2
962.944	95.63
963.111	107.84
963.278	115.97
963.446	95.44
963.613	79.55
963.78	101.44
963.947	111.71
964.114	96.99
964.281	165.57
964.448	100.47
964.615	93.31
964.782	110.16
964.949	127.79
965.116	114.62
965.282	111.71
965.449	67.15
965.616	76.64
965.783	129.92
965.95	101.44
966.117	58.62
966.283	100.28
966.45	109.97
966.617	93.5
966.784	151.43
966.95	148.72
967.117	121.98
967.284	62.5
967.45	98.73
967.617	98.92
967.784	143.87
967.95	140.58
968.117	109
968.283	163.44
968.45	207.04
968.616	120.04
968.783	151.24
968.949	121.79
969.116	160.73
969.282	147.75
969.449	142.71
969.615	132.83
969.781	68.51
969.948	81.68
970.114	80.71
970.28	171.77
970.447	135.74
970.613	168.67
970.779	107.26
970.945	130.12
971.112	119.85
971.278	130.5
971.444	140.77
971.61	171
971.776	106.67
971.942	142.13
972.108	128.57
972.275	96.79
972.441	112.68
972.607	174.1
972.773	108.22
972.939	136.12
973.105	110.94
973.271	102.41
973.437	116.17
973.602	92.92
973.768	141.74
973.934	100.67
974.1	125.85
974.266	59.01
974.432	128.57
974.598	95.24
974.763	170.61
974.929	95.05
975.095	145.23
975.261	50.87
975.426	82.07
975.592	119.27
975.758	139.42
975.923	22.78
976.089	97.37
976.255	123.53
976.42	99.12
976.586	140.19
976.751	126.05
976.917	185.34
977.082	121.59
977.248	71.22
977.413	44.87
977.579	97.76
977.744	109.77
977.91	49.13
978.075	95.82
978.24	125.66
978.406	92.72
978.571	70.44
978.736	78.39
978.902	122.95
979.067	93.31
979.232	80.71
979.397	117.72
979.563	175.65
979.728	91.76
979.893	103.96
980.058	91.56
980.223	120.82
980.388	101.06
980.554	94.08
980.719	99.7
980.884	80.91
981.049	131.28
981.214	70.06
981.379	102.22
981.544	104.35
981.709	130.31
981.874	70.25
982.039	109.19
982.204	113.46
982.368	83.42
982.533	105.12
982.698	123.34
982.863	127.99
983.028	82.46
983.193	120.82
983.357	94.08
983.522	116.17
983.687	104.74
983.852	88.46
984.016	87.11
984.181	111.91
984.346	73.16
984.51	139.61
984.675	74.12
984.839	118.49
985.004	113.26
985.168	121.21
985.333	111.91
985.498	97.18
985.662	139.03
985.827	108.42
985.991	96.6
986.155	94.47
986.32	119.66
986.484	142.71
986.649	111.91
986.813	54.56
986.977	126.63
987.142	113.26
987.306	59.21
987.47	71.99
987.634	89.24
987.799	122.37
987.963	110.36
988.127	137.87
988.291	146.39
988.455	76.06
988.62	101.64
988.784	111.13
988.948	133.41
989.112	89.43
989.276	111.71
989.44	107.84
989.604	74.32
989.768	100.47
989.932	159.76
990.096	75.67
990.26	80.71
990.424	49.71
990.588	85.17
990.752	120.43
990.915	115.97
991.079	96.99
991.243	105.12
991.407	118.3
991.571	98.92
991.734	122.76
991.898	105.12
992.062	195.22
992.226	76.26
992.389	100.09
992.553	33.05
992.717	60.37
992.88	73.93
993.044	100.86
993.207	76.84
993.371	96.21
993.535	107.45
993.698	104.54
993.862	112.49
994.025	101.64
994.189	89.04
994.352	105.32
994.515	118.69
994.679	115.78
994.842	61.53
995.006	130.7
995.169	80.32
995.332	57.27
995.496	128.37
995.659	34.79
995.822	78.39
995.985	75.29
996.149	126.24
996.312	87.3
996.475	118.49
996.638	63.27
996.801	144.07
996.964	141.35
997.128	78.77
997.291	102.61
997.454	70.64
997.617	33.05
997.78	113.26
997.943	69.28
998.106	117.91
998.269	51.65
998.432	81.49
998.595	100.09
998.758	24.72
998.92	41.96
999.083	6.31
999.246	66.18
999.409	22.78
999.572	41.96
999.735	58.62
999.897	71.02
1000.06	68.51
1000.223	65.02
1000.386	85.17
1000.548	83.42
1000.711	74.51
1000.874	67.54
1001.036	26.27
1001.199	106.67
1001.361	53.01
1001.524	56.49
1001.687	90.4
1001.849	34.99
1002.012	86.72
1002.174	82.65
1002.337	62.69
1002.499	60.56
1002.661	91.56
1002.824	27.24
1002.986	55.72
1003.149	81.1
1003.311	53.78
1003.473	142.9
1003.636	50.68
1003.798	67.73
1003.96	82.46
1004.123	75.09
1004.285	43.71
1004.447	68.89
1004.609	78.58
1004.771	119.46
1004.933	25.88
1005.096	46.61
1005.258	29.56
1005.42	56.88
1005.582	73.35
1005.744	62.5
1005.906	16.97
1006.068	65.79
1006.23	19.1
1006.392	8.44
1006.554	37.12
1006.716	78.77
1006.878	77.03
1007.04	8.64
1007.202	58.43
1007.363	67.92
1007.525	66.37
1007.687	59.79
1007.849	79.16
1008.011	0.89
1008.172	31.11
1008.334	51.46
1008.496	80.71
1008.658	-19.07
1008.819	45.06
1008.981	12.51
1009.143	20.65
1009.304	47.77
1009.466	80.71
1009.627	113.07
1009.789	128.37
1009.95	46.61
1010.112	32.66
1010.273	65.99
1010.435	45.45
1010.596	42.54
1010.758	58.04
1010.919	38.67
1011.081	-0.66
1011.242	68.89
1011.403	74.12
1011.565	36.54
1011.726	76.06
1011.887	25.11
1012.049	14.84
1012.21	56.11
1012.371	114.62
1012.532	-8.41
1012.693	37.89
1012.855	24.14
1013.016	15.23
1013.177	40.22
1013.338	41.57
1013.499	81.87
1013.66	71.99
1013.821	91.17
1013.982	73.35
1014.143	29.37
1014.304	23.94
1014.465	48.74
1014.626	47.58
1014.787	21.04
1014.948	123.92
1015.109	-0.27
1015.27	61.53
1015.431	23.94
1015.592	42.74
1015.752	54.17
1015.913	47.77
1016.074	65.21
1016.235	55.52
1016.395	33.24
1016.556	31.5
1016.717	34.21
1016.877	66.76
1017.038	8.25
1017.199	58.24
1017.359	23.75
1017.52	55.52
1017.681	13.29
1017.841	16.19
1018.002	21.23
1018.162	19.1
1018.323	82.46
1018.483	45.06
1018.644	18.52
1018.804	-8.99
1018.964	1.66
1019.125	33.05
1019.285	23.75
1019.446	26.27
1019.606	9.8
1019.766	16.19
1019.926	42.93
1020.087	53.2
1020.247	14.84
1020.407	41.77
1020.567	62.89
1020.728	24.91
1020.888	14.45
1021.048	9.41
1021.208	-4.15
1021.368	9.99
1021.528	56.11
1021.688	60.17
1021.848	65.6
1022.008	49.52
1022.168	37.89
1022.328	30.34
1022.488	65.99
1022.648	40.61
1022.808	47.97
1022.968	35.57
1023.128	29.95
1023.288	-2.02
1023.448	28.79
1023.608	47.39
1023.767	34.41
1023.927	7.09
1024.087	-5.31
1024.247	-1.44
1024.406	16.58
1024.566	24.53
1024.726	8.64
1024.885	37.12
1025.045	51.46
1025.205	26.46
1025.364	-7.44
1025.524	33.83
1025.683	3.41
1025.843	54.36
1026.003	-8.22
1026.162	78
1026.321	50.29
1026.481	38.28
1026.64	3.79
1026.8	8.25
1026.959	7.67
1027.119	22.2
1027.278	17.16
1027.437	19.1
1027.597	21.81
1027.756	51.46
1027.915	33.63
1028.074	49.32
1028.234	14.06
1028.393	17.94
1028.552	45.64
1028.711	-42.9
1028.87	57.85
1029.03	-18.68
1029.189	40.22
1029.348	-50.46
1029.507	-6.28
1029.666	15.03
1029.825	-11.32
1029.984	7.09
1030.143	44.87
1030.302	14.64
1030.461	-43.67
1030.62	21.23
1030.779	61.34
1030.938	10.38
1031.097	-29.72
1031.255	59.59
1031.414	68.89
1031.573	67.54
1031.732	-8.99
1031.891	39.83
1032.049	85.56
1032.208	28.4
1032.367	-9.19
1032.525	7.48
1032.684	10.38
1032.843	13.48
1033.001	-18.87
1033.16	153.56
1033.319	73.74
1033.477	55.72
1033.636	8.64
1033.794	-22.36
1033.953	48.94
1034.111	47
1034.27	13.87
1034.428	39.83
1034.587	-12.48
1034.745	28.98
1034.903	5.93
1035.062	36.15
1035.22	-19.65
1035.378	49.32
1035.537	2.24
1035.695	37.89
1035.853	23.17
1036.011	43.32
1036.17	16.97
1036.328	-27.59
1036.486	38.09
1036.644	19.29
1036.802	-46.97
1036.96	-12.09
1037.119	7.48
1037.277	-4.92
1037.435	-19.07
1037.593	-11.12
1037.751	13.48
1037.909	39.06
1038.067	39.06
