Data from gum_young_FLMT105791__99__17-39-57-042.txt Node

Date: Mon Mar 20 17:39:57 GMT 2023
User: antho
Spectrometer: FLMT10579
Trigger mode: 0
Integration Time (sec): 1.000000E-1
Scans to average: 10
Electric dark correction enabled: true
Nonlinearity correction enabled: false
Boxcar width: 0
XAxis mode: Wavelengths
Number of Pixels in Spectrum: 3648
>>>>>Begin Spectral Data<<<<<
345.248	-129.7
345.464	-129.7
345.681	-129.7
345.898	-143.45
346.114	-143.26
346.331	-30.89
346.548	23.56
346.764	22.01
346.981	1.66
347.197	-23.33
347.414	1.08
347.631	-10.93
347.847	52.62
348.064	-15.39
348.28	26.08
348.497	-50.26
348.713	3.79
348.93	30.14
349.146	9.41
349.363	20.07
349.579	22.59
349.796	-4.54
350.012	2.83
350.229	1.08
350.445	4.76
350.661	-10.16
350.878	6.89
351.094	5.54
351.311	12.9
351.527	30.92
351.743	-6.47
351.96	19.88
352.176	37.31
352.392	21.23
352.609	41.19
352.825	-27.59
353.041	10.77
353.257	1.47
353.474	13.87
353.69	14.26
353.906	-1.05
354.122	-17.71
354.339	46.03
354.555	18.71
354.771	-39.61
354.987	42.16
355.203	47.77
355.42	-3.18
355.636	-9.96
355.852	-18.1
356.068	2.63
356.284	-17.71
356.5	49.71
356.716	27.24
356.932	18.13
357.148	52.62
357.364	7.86
357.58	59.98
357.796	50.1
358.012	47.19
358.228	24.14
358.444	-40.57
358.66	51.46
358.876	35.57
359.092	-32.82
359.308	9.8
359.524	35.96
359.74	10.96
359.956	-25.07
360.172	8.25
360.388	33.63
360.604	-17.71
360.819	79.94
361.035	11.74
361.251	26.08
361.467	-31.47
361.683	59.59
361.898	50.29
362.114	14.84
362.33	21.04
362.546	39.06
362.762	-0.08
362.977	20.07
363.193	-14.61
363.409	39.64
363.624	-18.29
363.84	-13.45
364.056	11.54
364.271	31.11
364.487	24.53
364.703	16
364.918	-33.02
365.134	-4.34
365.35	4.38
365.565	89.62
365.781	59.98
365.996	24.14
366.212	53.39
366.427	11.54
366.643	-5.12
366.858	-3.18
367.074	-12.87
367.289	62.5
367.505	82.84
367.72	-16.36
367.936	-12.87
368.151	56.11
368.367	35.38
368.582	12.13
368.798	13.87
369.013	30.14
369.228	5.54
369.444	30.14
369.659	42.54
369.874	26.27
370.09	51.65
370.305	-28.76
370.52	-17.71
370.736	74.12
370.951	15.03
371.166	72.96
371.381	76.26
371.597	41.96
371.812	-21.59
372.027	3.79
372.242	25.3
372.458	59.4
372.673	-3.18
372.888	-5.31
373.103	47.58
373.318	62.69
373.533	42.35
373.749	35.18
373.964	-31.66
374.179	56.3
374.394	-18.49
374.609	67.34
374.824	-45.03
375.039	52.81
375.254	16.19
375.469	72.19
375.684	7.86
375.899	67.54
376.114	9.22
376.329	19.29
376.544	57.85
376.759	36.15
376.974	2.44
377.189	21.43
377.404	17.55
377.619	59.79
377.834	-5.89
378.049	-18.1
378.264	-27.79
378.478	19.88
378.693	-5.12
378.908	25.3
379.123	1.86
379.338	27.43
379.553	40.22
379.767	19.49
379.982	27.63
380.197	55.72
380.412	34.99
380.626	19.29
380.841	99.51
381.056	22.01
381.271	66.76
381.485	-4.34
381.7	3.02
381.915	27.24
382.129	19.49
382.344	41.96
382.559	4.57
382.773	60.17
382.988	-58.4
383.202	14.26
383.417	-21.78
383.632	100.47
383.846	23.56
384.061	27.24
384.275	13.48
384.49	45.26
384.704	55.72
384.919	17.94
385.133	3.99
385.348	35.96
385.562	-4.15
385.777	34.41
385.991	23.17
386.206	22.98
386.42	21.43
386.634	57.46
386.849	47.19
387.063	44.48
387.277	-14.81
387.492	3.21
387.706	-15
387.92	9.03
388.135	45.26
388.349	59.4
388.563	31.11
388.778	42.16
388.992	52.23
389.206	57.07
389.42	89.82
389.635	49.52
389.849	39.83
390.063	67.54
390.277	44.67
390.491	102.22
390.706	47
390.92	83.81
391.134	37.89
391.348	90.21
391.562	0.69
391.776	10.77
391.99	27.82
392.205	61.53
392.419	4.57
392.633	57.66
392.847	85.17
393.061	8.64
393.275	72.57
393.489	15.23
393.703	36.34
393.917	86.91
394.131	18.71
394.345	36.15
394.559	67.34
394.773	15.03
394.986	46.03
395.2	13.29
395.414	68.7
395.628	23.36
395.842	47.77
396.056	29.76
396.27	6.51
396.484	41.19
396.697	31.11
396.911	86.14
397.125	52.81
397.339	46.22
397.553	54.75
397.766	78.58
397.98	66.57
398.194	75.09
398.408	23.56
398.621	66.76
398.835	88.07
399.049	41.38
399.262	92.53
399.476	74.71
399.69	64.63
399.903	137.48
400.117	55.33
400.331	60.37
400.544	39.25
400.758	171.19
400.971	45.26
401.185	73.74
401.398	53.01
401.612	96.02
401.826	81.49
402.039	92.72
402.253	36.92
402.466	77.81
402.68	51.84
402.893	70.06
403.106	72.19
403.32	92.92
403.533	92.92
403.747	64.44
403.96	65.02
404.174	85.56
404.387	29.95
404.6	81.87
404.814	100.47
405.027	63.66
405.24	71.22
405.454	67.15
405.667	100.86
405.88	4.38
406.094	88.85
406.307	107.45
406.52	92.72
406.733	52.23
406.947	17.74
407.16	132.44
407.373	129.73
407.586	63.86
407.799	56.11
408.012	105.12
408.226	72.96
408.439	109
408.652	33.44
408.865	100.86
409.078	130.31
409.291	93.31
409.504	29.76
409.717	102.02
409.93	100.67
410.143	67.92
410.357	52.04
410.57	12.71
410.783	76.45
410.996	78.77
411.209	93.11
411.421	96.79
411.634	64.63
411.847	68.51
412.06	91.95
412.273	99.7
412.486	88.46
412.699	179.72
412.912	84.01
413.125	102.22
413.338	78.39
413.55	99.31
413.763	109.77
413.976	89.82
414.189	73.93
414.402	63.66
414.615	131.09
414.827	75.09
415.04	112.1
415.253	95.44
415.466	108.61
415.678	144.26
415.891	117.72
416.104	109.19
416.316	117.33
416.529	94.86
416.742	113.84
416.954	124.69
417.167	101.44
417.38	92.53
417.592	98.34
417.805	78.19
418.017	46.42
418.23	134.38
418.442	75.09
418.655	106.87
418.868	102.99
419.08	144.65
419.293	156.85
419.505	131.09
419.718	98.15
419.93	134.96
420.142	91.76
420.355	141.94
420.567	158.02
420.78	117.33
420.992	108.81
421.205	165.19
421.417	60.17
421.629	94.27
421.842	78.39
422.054	62.11
422.266	166.35
422.479	150.85
422.691	70.64
422.903	148.52
423.115	99.7
423.328	87.3
423.54	110.55
423.752	89.04
423.964	101.64
424.177	103.77
424.389	117.14
424.601	229.32
424.813	92.53
425.025	153.56
425.238	143.29
425.45	117.14
425.662	102.99
425.874	389.35
426.086	100.67
426.298	122.37
426.51	134.57
426.722	120.62
426.934	102.02
427.146	157.82
427.358	102.41
427.57	145.81
427.782	95.05
427.994	115.59
428.206	86.52
428.418	73.54
428.63	122.95
428.842	171.58
429.054	135.54
429.266	146
429.478	99.7
429.69	124.11
429.902	86.52
430.114	165.38
430.325	126.24
430.537	92.34
430.749	102.61
430.961	50.1
431.173	78.58
431.384	122.37
431.596	69.67
431.808	129.92
432.02	105.9
432.231	175.26
432.443	153.17
432.655	152.79
432.867	115.2
433.078	160.73
433.29	188.44
433.502	158.4
433.713	134.57
433.925	131.67
434.136	182.04
434.348	89.82
434.56	90.21
434.771	201.03
434.983	98.34
435.194	100.09
435.406	116.36
435.617	189.4
435.829	205.68
436.04	151.24
436.252	169.64
436.463	185.53
436.675	190.57
436.886	192.12
437.098	167.12
437.309	223.31
437.521	160.92
437.732	173.9
437.943	146.2
438.155	167.7
438.366	130.5
438.578	228.15
438.789	168.29
439	196.77
439.211	141.94
439.423	193.47
439.634	161.7
439.845	176.23
440.057	161.5
440.268	194.25
440.479	149.1
440.69	190.76
440.902	149.3
441.113	151.62
441.324	164.99
441.535	186.11
441.746	203.35
441.957	140.58
442.168	152.59
442.38	172.35
442.591	215.17
442.802	178.55
443.013	154.72
443.224	212.65
443.435	164.99
443.646	179.91
443.857	202.58
444.068	190.37
444.279	157.63
444.49	226.6
444.701	199.87
444.912	260.51
445.123	199.67
445.334	201.03
445.545	203.94
445.756	183.98
445.967	159.18
446.178	184.17
446.388	241.72
446.599	229.9
446.81	199.09
447.021	200.45
447.232	219.24
447.443	247.33
447.653	171.19
447.864	223.89
448.075	209.36
448.286	246.95
448.496	218.66
448.707	242.1
448.918	192.12
449.129	277.95
449.339	214.98
449.55	227.77
449.761	196.77
449.971	250.43
450.182	222.53
450.393	235.9
450.603	196.96
450.814	262.83
451.024	231.83
451.235	242.49
451.446	295.97
451.656	292.87
451.867	232.8
452.077	240.17
452.288	297.13
452.498	304.3
452.709	239.58
452.919	280.08
453.13	230.87
453.34	273.49
453.55	189.02
453.761	251.98
453.971	243.46
454.182	278.33
454.392	266.52
454.602	298.68
454.813	277.75
455.023	298.87
455.233	219.82
455.444	227.18
455.654	189.02
455.864	255.28
456.075	231.64
456.285	239.78
456.495	253.15
456.705	276.01
456.916	288.02
457.126	290.93
457.336	242.1
457.546	224.08
457.756	250.63
457.967	282.02
458.177	265.93
458.387	278.14
458.597	235.52
458.807	227.38
459.017	247.14
459.227	271.55
459.437	259.15
459.647	286.28
459.857	282.79
460.068	230.87
460.278	323.48
460.488	285.12
460.698	323.48
460.908	276.78
461.117	225.44
461.327	243.27
461.537	261.09
461.747	287.05
461.957	274.65
462.167	361.65
462.377	300.03
462.587	301.58
462.797	314.37
463.007	296.16
463.216	295
463.426	338.2
463.636	336.46
463.846	236.87
464.056	272.91
464.265	319.8
464.475	271.36
464.685	307.4
464.895	317.08
465.104	268.65
465.314	322.51
465.524	261.09
465.733	261.67
465.943	380.63
466.153	339.75
466.362	317.08
466.572	299.26
466.782	276.98
466.991	314.95
467.201	354.09
467.41	259.35
467.62	320.18
467.829	311.66
468.039	342.08
468.249	299.26
468.458	305.85
468.668	337.43
468.877	320.96
469.086	360.1
469.296	360.48
469.505	314.76
469.715	368.62
469.924	340.33
470.134	345.56
470.343	350.02
470.552	321.35
470.762	322.9
470.971	307.78
471.18	319.8
471.39	343.05
471.599	311.46
471.808	352.93
472.018	335.49
472.227	405.63
472.436	370.36
472.645	348.28
472.855	327.93
473.064	401.56
473.273	365.13
473.482	375.98
473.691	372.11
473.901	384.31
474.11	344.6
474.319	424.03
474.528	391.09
474.737	430.81
474.946	394.97
475.155	389.16
475.364	431.98
475.573	400.01
475.783	401.56
475.992	419.38
476.201	412.21
476.41	386.64
476.619	345.56
476.828	408.53
477.037	378.7
477.245	422.87
477.454	429.65
477.663	400.98
477.872	401.36
478.081	468.21
478.29	380.63
478.499	506.76
478.708	418.22
478.917	501.53
479.125	443.99
479.334	432.36
479.543	436.82
479.752	468.21
479.961	444.96
480.169	482.16
480.378	396.52
480.587	554.04
480.796	465.69
481.004	464.53
481.213	509.86
481.422	453.68
481.63	469.95
481.839	511.41
482.048	561.4
482.256	444.38
482.465	505.99
482.674	497.07
482.882	525.36
483.091	563.14
483.299	511.99
483.508	522.07
483.716	493.39
483.925	522.65
484.134	470.14
484.342	499.4
484.551	547.06
484.759	527.49
484.967	540.28
485.176	526.91
485.384	533.5
485.593	538.54
485.801	523.62
486.01	518.97
486.218	489.13
486.426	454.64
486.635	475.18
486.843	454.26
487.051	515.09
487.26	477.12
487.468	504.24
487.676	522.26
487.885	491.26
488.093	523.04
488.301	527.11
488.509	551.71
488.717	576.7
488.926	551.71
489.134	565.08
489.342	544.54
489.55	511.41
489.758	553.07
489.967	550.55
490.175	660.6
490.383	581.94
490.591	633.47
490.799	563.72
491.007	661.57
491.215	610.03
491.423	586.78
491.631	608.48
491.839	608.48
492.047	643.35
492.255	578.45
492.463	559.07
492.671	567.6
492.879	646.26
493.087	622.82
493.295	618.75
493.503	633.09
493.711	657.88
493.919	672.03
494.127	674.74
494.334	661.57
494.542	615.26
494.75	664.67
494.958	641.22
495.166	684.43
495.374	681.33
495.581	662.92
495.789	665.63
495.997	705.55
496.205	687.14
496.412	688.3
496.62	667.38
496.828	735.77
497.035	684.23
497.243	695.47
497.451	703.8
497.658	690.05
497.866	695.67
498.074	768.13
498.281	683.07
498.489	763.28
498.696	723.76
498.904	689.66
499.112	705.93
499.319	762.7
499.527	708.65
499.734	784.6
499.942	723.57
500.149	699.15
500.357	734.22
500.564	715.23
500.771	748.17
500.979	707.1
501.186	716.4
501.394	749.72
501.601	731.51
501.808	760.57
502.016	730.73
502.223	764.64
502.43	767.16
502.638	717.75
502.845	723.57
503.052	818.31
503.26	751.66
503.467	849.5
503.674	789.05
503.881	800.87
504.089	852.99
504.296	806.49
504.503	742.16
504.71	811.33
504.917	771.61
505.125	836.52
505.332	807.46
505.539	846.01
505.746	866.16
505.953	877.01
506.16	872.36
506.367	912.27
506.574	939.4
506.781	933.78
506.988	855.7
507.195	895.42
507.402	881.66
507.609	929.71
507.816	876.43
508.023	895.23
508.23	876.43
508.437	872.75
508.644	899.88
508.851	951.41
509.058	949.67
509.265	951.61
509.472	1001.79
509.679	1035.3
509.885	973.11
510.092	951.02
510.299	965.56
510.506	993.46
510.713	995.97
510.92	974.27
511.126	1035.5
511.333	1063.98
511.54	1056.42
511.746	1075.6
511.953	1094.98
512.16	1075.41
512.367	1076.96
512.573	1065.72
512.78	1065.53
512.987	1069.02
513.193	1082
513.4	1015.15
513.606	1040.34
513.813	1085.68
514.02	1102.92
514.226	1142.45
514.433	1130.63
514.639	1091.68
514.846	1121.52
515.052	1069.79
515.259	1138.96
515.465	1131.79
515.672	1150
515.878	1241.84
516.085	1157.56
516.291	1230.99
516.497	1195.15
516.704	1168.8
516.91	1142.25
517.117	1082.58
517.323	1077.15
517.529	1129.47
517.736	1080.45
517.942	1140.9
518.148	1160.27
518.354	1199.6
518.561	1165.5
518.767	1168.99
518.973	1207.16
519.179	1244.75
519.386	1217.62
519.592	1233.9
519.798	1250.17
520.004	1334.06
520.21	1296.67
520.417	1321.66
520.623	1406.91
520.829	1410.59
521.035	1421.25
521.241	1420.67
521.447	1421.83
521.653	1508.82
521.859	1435.59
522.065	1434.62
522.271	1558.81
522.477	1513.86
522.683	1532.07
522.889	1492.94
523.095	1506.5
523.301	1489.84
523.507	1506.5
523.713	1511.54
523.919	1485.57
524.125	1598.92
524.331	1577.99
524.537	1660.72
524.742	1639.21
524.948	1656.85
525.154	1636.89
525.36	1737.64
525.566	1668.66
525.772	1695.6
525.977	1634.56
526.183	1688.43
526.389	1733.57
526.595	1659.36
526.8	1658.98
527.006	1572.57
527.212	1550.28
527.417	1547.38
527.623	1537.69
527.829	1624.1
528.034	1664.01
528.24	1685.71
528.446	1681.84
528.651	1743.64
528.857	1783.56
529.062	1827.92
529.268	1782.98
529.473	1818.82
529.679	1812.23
529.884	1863.19
530.09	1854.08
530.295	1868.42
530.501	1876.75
530.706	1875.59
530.912	1828.7
531.117	1875.97
531.323	1877.91
531.528	1943.98
531.733	1925.38
531.939	1877.14
532.144	1951.54
532.35	1914.53
532.555	1920.54
532.76	1903.87
532.966	1884.89
533.171	1887.02
533.376	1862.22
533.581	1825.99
533.787	1878.49
533.992	1938.75
534.197	1940.49
534.402	1931
534.607	1958.9
534.813	2023.61
535.018	1949.99
535.223	1931.97
535.428	2030
535.633	2048.8
535.838	2094.91
536.043	2047.05
536.249	2134.24
536.454	2056.55
536.659	2083.48
536.864	2029.81
537.069	2041.05
537.274	2050.35
537.479	2045.12
537.684	2061.78
537.889	2006.75
538.094	2120.1
538.299	2034.07
538.504	2133.08
538.708	2100.53
538.913	2144.31
539.118	2082.12
539.323	2102.08
539.528	2084.06
539.733	2067.59
539.938	2116.8
540.142	2108.08
540.347	2042.4
540.552	2018.57
540.757	2046.28
540.962	2070.11
541.166	2021.28
541.371	1999
541.576	2065.07
541.781	2002.88
541.985	2093.94
542.19	2086.96
542.395	2148.58
542.599	2166.01
542.804	2100.53
543.008	2156.91
543.213	2105.56
543.418	2063.33
543.622	2163.69
543.827	2091.03
544.031	2189.65
544.236	2187.71
544.44	2178.61
544.645	2262.31
544.849	2163.11
545.054	2229.17
545.258	2291.17
545.463	2208.25
545.667	2199.53
545.872	2230.14
546.076	2226.27
546.281	2185.39
546.485	2184.03
546.689	2241.19
546.894	2260.37
547.098	2224.72
547.302	2172.41
547.507	2200.5
547.711	2227.04
547.915	2240.61
548.119	2187.71
548.324	2213.68
548.528	2271.61
548.732	2211.93
548.936	2253.01
549.141	2275.29
549.345	2257.85
549.549	2224.91
549.753	2332.64
549.957	2329.92
550.161	2305.51
550.366	2290.01
550.57	2283.81
550.774	2258.62
550.978	2254.17
551.182	2263.66
551.386	2251.26
551.59	2209.99
551.794	2240.41
551.998	2304.35
552.202	2284.01
552.406	2251.46
552.61	2290.98
552.814	2282.26
553.018	2344.07
553.222	2284.2
553.426	2287.3
553.63	2338.06
553.833	2283.81
554.037	2213.29
554.241	2303.38
554.445	2300.67
554.649	2293.31
554.853	2270.06
555.056	2314.62
555.26	2361.89
555.464	2309
555.668	2280.13
555.871	2342.9
556.075	2295.24
556.279	2297.57
556.483	2235.18
556.686	2225.88
556.89	2277.61
557.094	2271.8
557.297	2211.35
557.501	2241.77
557.704	2187.33
557.908	2251.46
558.112	2189.65
558.315	2288.27
558.519	2208.83
558.722	2191.59
558.926	2201.66
559.129	2126.49
559.333	2101.88
559.536	2111.96
559.74	2129.01
559.943	2104.01
560.147	2096.85
560.35	2098.78
560.553	2133.46
560.757	2081.73
560.96	2178.61
561.164	2138.69
561.367	2198.56
561.57	2131.91
561.774	2116.03
561.977	2128.43
562.18	2116.22
562.384	2183.45
562.587	2085.03
562.79	2099.75
562.993	2091.81
563.197	2115.45
563.4	2139.28
563.603	2116.8
563.806	2160.98
564.009	2099.75
564.212	2096.65
564.416	2061
564.619	2062.36
564.822	2028.26
565.025	2096.46
565.228	2044.92
565.431	2068.95
565.634	1995.13
565.837	2020.32
566.04	1962.97
566.243	1997.07
566.446	1886.05
566.649	1965.68
566.852	1931.77
567.055	1959.28
567.258	1954.05
567.461	2045.5
567.664	2000.94
567.867	1947.66
568.07	1970.33
568.273	1955.99
568.475	2019.35
568.678	1903.1
568.881	1900.77
569.084	1878.88
569.287	1798.28
569.489	1814.17
569.692	1884.5
569.895	1925.19
570.098	1806.81
570.3	1821.92
570.503	1785.11
570.706	1790.34
570.909	1772.32
571.111	1733.38
571.314	1737.83
571.516	1776.39
571.719	1753.53
571.922	1764.96
572.124	1715.74
572.327	1717.29
572.529	1705.09
572.732	1735.7
572.935	1717.88
573.137	1808.74
573.34	1720.39
573.542	1741.71
573.745	1751.01
573.947	1754.88
574.15	1706.83
574.352	1680.48
574.554	1752.36
574.757	1651.81
574.959	1637.08
575.162	1666.92
575.364	1612.86
575.566	1742.09
575.769	1619.26
575.971	1641.35
576.173	1505.92
576.376	1598.53
576.578	1650.26
576.78	1691.72
576.982	1536.33
577.185	1589.42
577.387	1559.58
577.589	1550.28
577.791	1613.83
577.993	1629.72
578.196	1564.04
578.398	1580.7
578.6	1628.75
578.802	1551.64
579.004	1542.92
579.206	1569.47
579.408	1548.54
579.61	1543.31
579.812	1589.81
580.014	1590.39
580.216	1560.94
580.418	1554.16
580.62	1525.1
580.822	1475.11
581.024	1556.68
581.226	1587.48
581.428	1548.73
581.63	1639.99
581.832	1541.95
582.034	1578.77
582.236	1602.02
582.438	1604.34
582.64	1629.33
582.841	1625.46
583.043	1708.38
583.245	1603.57
583.447	1590.97
583.649	1624.1
583.85	1576.05
584.052	1630.69
584.254	1540.6
584.456	1593.88
584.657	1525.1
584.859	1562.49
585.061	1566.56
585.262	1566.17
585.464	1516.96
585.666	1568.69
585.867	1498.17
586.069	1582.64
586.27	1520.45
586.472	1561.52
586.674	1507.47
586.875	1526.84
587.077	1497.97
587.278	1546.41
587.48	1505.72
587.681	1584
587.883	1514.05
588.084	1436.75
588.285	1488.09
588.487	1475.89
588.688	1463.1
588.89	1367.58
589.091	1353.82
589.292	1346.46
589.494	1308.1
589.695	1281.17
589.896	1224.79
590.098	1241.45
590.299	1280.2
590.5	1272.84
590.702	1309.26
590.903	1332.9
591.104	1385.02
591.305	1363.9
591.507	1385.79
591.708	1394.12
591.909	1342.2
592.11	1422.61
592.311	1377.85
592.512	1367.97
592.714	1303.45
592.915	1315.85
593.116	1336.19
593.317	1364.87
593.518	1355.18
593.719	1340.07
593.92	1429.39
594.121	1409.62
594.322	1374.56
594.523	1373.01
594.724	1329.8
594.925	1321.86
595.126	1337.36
595.327	1364.48
595.528	1338.33
595.729	1374.94
595.929	1350.34
596.13	1372.81
596.331	1355.18
596.532	1366.42
596.733	1398.58
596.934	1402.65
597.135	1399.16
597.335	1381.92
597.536	1361.38
597.737	1332.51
597.938	1305.78
598.138	1352.08
598.339	1353.05
598.54	1363.12
598.74	1354.02
598.941	1353.05
599.142	1422.61
599.342	1359.83
599.543	1324.18
599.744	1332.13
599.944	1351.11
600.145	1335.03
600.345	1335.23
600.546	1411.76
600.746	1402.84
600.947	1397.22
601.147	1373.2
601.348	1386.76
601.548	1336.78
601.749	1342.01
601.949	1306.94
602.15	1291.24
602.35	1291.05
602.551	1321.47
602.751	1297.44
602.951	1301.32
603.152	1264.51
603.352	1355.96
603.552	1351.5
603.753	1351.69
603.953	1337.16
604.153	1330.58
604.354	1345.3
604.554	1284.27
604.754	1314.88
604.954	1304.23
605.155	1335.81
605.355	1296.67
605.555	1359.64
605.755	1390.25
605.955	1312.56
606.155	1341.43
606.356	1313.72
606.556	1340.26
606.756	1305.78
606.956	1315.08
607.156	1358.67
607.356	1300.35
607.556	1316.04
607.756	1277.68
607.956	1359.25
608.156	1302.87
608.356	1266.64
608.556	1291.63
608.756	1298.03
608.956	1249.2
609.156	1282.14
609.356	1247.85
609.556	1234.28
609.755	1246.68
609.955	1245.13
610.155	1278.26
610.355	1288.53
610.555	1243.97
610.755	1269.74
610.954	1204.25
611.154	1245.52
611.354	1285.63
611.554	1202.7
611.753	1228.86
611.953	1181.78
612.153	1231.57
612.352	1255.21
612.552	1216.85
612.752	1145.74
612.951	1205.03
613.151	1238.74
613.351	1162.98
613.55	1183.33
613.75	1222.85
613.949	1160.08
614.149	1186.81
614.348	1180.03
614.548	1122.49
614.747	1117.26
614.947	1164.53
615.146	1122.3
615.346	1198.05
615.545	1176.93
615.745	1149.42
615.944	1168.41
616.144	1147.48
616.343	1157.56
616.542	1091.88
616.742	1119.97
616.941	1132.18
617.14	1063.98
617.34	1089.94
617.539	1101.57
617.738	1088.39
617.938	1159.88
618.137	1134.31
618.336	1075.6
618.535	1130.43
618.734	1103.89
618.934	1129.66
619.133	1094.2
619.332	1111.06
619.531	1092.27
619.73	1089.17
619.929	1161.05
620.128	1130.82
620.328	1167.44
620.527	1071.92
620.726	1082
620.925	1136.05
621.124	1076.96
621.323	1120.55
621.522	1067.66
621.721	1048.87
621.92	1057.2
622.119	1110.28
622.318	1066.3
622.517	1065.92
622.715	1075.8
622.914	1016.12
623.113	1054.68
623.312	989.58
623.511	1090.33
623.71	1035.3
623.909	990.74
624.107	1119.2
624.306	1000.24
624.505	1002.75
624.704	1026.2
624.902	1037.82
625.101	1102.92
625.3	1018.84
625.499	958.77
625.697	1022.52
625.896	975.63
626.095	1036.47
626.293	930.29
626.492	972.72
626.69	1005.66
626.889	980.67
627.088	1023.49
627.286	966.72
627.485	971.17
627.683	970.21
627.882	974.08
628.08	905.3
628.279	929.71
628.477	1012.83
628.676	932.62
628.874	979.7
629.073	896.78
629.271	933.97
629.469	973.69
629.668	944.44
629.866	939.79
630.065	950.44
630.263	963.62
630.461	961.29
630.66	950.64
630.858	938.82
631.056	999.65
631.254	1016.12
631.453	932.81
631.651	960.52
631.849	952.77
632.047	961.68
632.245	945.21
632.444	927.39
632.642	996.56
632.84	986.29
633.038	958.19
633.236	919.25
633.434	938.04
633.632	922.54
633.83	905.88
634.028	969.24
634.227	958
634.425	1001.4
634.623	958.58
634.821	984.54
635.019	947.34
635.216	959.55
635.414	992.87
635.612	971.56
635.81	951.61
636.008	1039.37
636.206	964.01
636.404	968.27
636.602	922.54
636.8	953.16
636.997	964.97
637.195	965.36
637.393	962.84
637.591	1012.83
637.789	978.34
637.986	958.39
638.184	972.92
638.382	1003.53
638.58	993.84
638.777	1023.68
638.975	975.24
639.173	934.17
639.37	977.18
639.568	966.33
639.765	982.61
639.963	919.83
640.161	948.89
640.358	963.81
640.556	865.19
640.753	896.39
640.951	884.18
641.148	902.2
641.346	876.82
641.543	897.74
641.741	902.59
641.938	867.52
642.136	869.46
642.333	874.49
642.531	877.01
642.728	928.55
642.925	903.56
643.123	864.23
643.32	880.5
643.517	827.03
643.715	860.35
643.912	856.48
644.109	856.09
644.306	866.16
644.504	813.46
644.701	854.34
644.898	856.48
645.095	816.76
645.293	831.09
645.49	865.58
645.687	865.97
645.884	856.48
646.081	759.6
646.278	775.1
646.475	801.45
646.672	776.46
646.87	832.64
647.067	799.71
647.264	778.98
647.461	751.46
647.658	744.1
647.855	798.55
648.052	760.38
648.249	684.43
648.446	755.34
648.642	754.56
648.839	690.63
649.036	701.28
649.233	682.88
649.43	718.72
649.627	689.85
649.824	677.26
650.021	698.77
650.217	672.61
650.414	694.31
650.611	745.85
650.808	730.15
651.004	736.55
651.201	728.41
651.398	745.07
651.595	711.36
651.791	714.85
651.988	746.23
652.185	674.93
652.381	718.92
652.578	671.64
652.775	685.4
652.971	714.27
653.168	703.8
653.364	731.9
653.561	648.78
653.757	697.41
653.954	703.61
654.15	698.96
654.347	748.17
654.543	719.11
654.74	653.82
654.936	642.77
655.133	659.43
655.329	685.2
655.525	654.2
655.722	719.5
655.918	632.12
656.115	693.73
656.311	619.72
656.507	581.35
656.704	542.41
656.9	566.82
657.096	577.09
657.292	581.35
657.489	632.89
657.685	628.24
657.881	601.89
658.077	643.55
658.273	616.23
658.47	681.91
658.666	617.78
658.862	670.09
659.058	620.69
659.254	637.54
659.45	633.28
659.646	665.44
659.842	652.07
660.038	685.98
660.234	606.93
660.43	644.9
660.626	683.46
660.822	641.42
661.018	637.74
661.214	605.57
661.41	597.24
661.606	646.26
661.802	683.46
661.998	625.14
662.194	601.12
662.39	614.49
662.586	630.18
662.781	621.85
662.977	638.9
663.173	650.33
663.369	618.94
663.564	645.68
663.76	657.69
663.956	583.49
664.152	652.46
664.347	556.94
664.543	610.03
664.739	581.94
664.934	557.14
665.13	538.34
665.326	626.89
665.521	583.29
665.717	563.92
665.912	536.02
666.108	508.89
666.304	568.57
666.499	552.1
666.695	513.16
666.89	549.97
667.086	577.29
667.281	598.4
667.477	626.3
667.672	529.62
667.867	541.25
668.063	596.08
668.258	545.51
668.454	531.17
668.649	629.4
668.844	541.64
669.04	578.25
669.235	557.14
669.43	545.32
669.626	499.21
669.821	547.84
670.016	527.88
670.211	547.06
670.407	507.73
670.602	513.93
670.797	526.52
670.992	568.18
671.187	499.59
671.382	525.94
671.578	515.87
671.773	522.46
671.968	513.54
672.163	524.2
672.358	574.38
672.553	511.22
672.748	520.52
672.943	585.23
673.138	519.36
673.333	552.49
673.528	486.61
673.723	534.27
673.918	521.68
674.113	491.46
674.308	566.63
674.503	547.06
674.698	568.37
674.892	555.01
675.087	546.48
675.282	530.59
675.477	505.79
675.672	518.77
675.867	511.22
676.061	483.32
676.256	496.49
676.451	483.51
676.646	518.97
676.84	481.38
677.035	480.02
677.23	463.17
677.424	508.89
677.619	509.47
677.814	541.25
678.008	562.17
678.203	471.5
678.397	483.51
678.592	514.12
678.787	549.39
678.981	490.49
679.176	513.54
679.37	485.84
679.565	500.17
679.759	483.32
679.954	526.14
680.148	542.61
680.342	537.18
680.537	536.99
680.731	523.81
680.926	548.81
681.12	551.52
681.314	487.19
681.509	511.22
681.703	511.99
681.897	532.53
682.092	513.74
682.286	469.56
682.48	576.7
682.674	549.58
682.869	509.28
683.063	492.23
683.257	579.8
683.451	522.65
683.645	530.59
683.839	493.39
684.034	532.92
684.228	555.01
684.422	488.55
684.616	513.16
684.81	548.42
685.004	542.41
685.198	532.53
685.392	575.35
685.586	509.47
685.78	543.38
685.974	574.77
686.168	567.4
686.362	617.59
686.556	509.86
686.75	495.33
686.944	526.52
687.138	499.01
687.331	416.28
687.525	446.12
687.719	406.79
687.913	427.91
688.107	463.17
688.301	445.93
688.494	468.98
688.688	444.76
688.882	429.84
689.076	464.33
689.269	468.98
689.463	542.22
689.657	500.56
689.85	479.44
690.044	495.33
690.238	511.02
690.431	550.16
690.625	506.37
690.818	586.97
691.012	601.89
691.205	608.09
691.399	553.07
691.593	599.57
691.786	652.46
691.98	694.12
692.173	724.73
692.366	692.95
692.56	703.8
692.753	740.23
692.947	671.45
693.14	753.6
693.333	760.76
693.527	707.48
693.72	752.24
693.914	768.32
694.107	730.54
694.3	769.68
694.493	770.45
694.687	811.72
694.88	744.68
695.073	873.91
695.266	848.92
695.46	827.22
695.653	880.69
695.846	918.47
696.039	893.09
696.232	881.66
696.425	964.2
696.618	974.47
696.812	956.84
697.005	1018.84
697.198	1088
697.391	1054.29
697.584	1107.57
697.777	1130.43
697.97	1097.3
698.163	1159.69
698.356	1123.27
698.549	1174.61
698.742	1186.43
698.935	1159.69
699.127	1177.13
699.32	1155.23
699.513	1200.57
699.706	1209.48
699.899	1218.2
700.092	1215.1
700.285	1245.91
700.477	1224.01
700.67	1253.27
700.863	1292.79
701.056	1354.41
701.248	1345.11
701.441	1350.14
701.634	1326.7
701.826	1438.49
702.019	1322.44
702.212	1386.57
702.404	1372.42
702.597	1379.79
702.79	1403.81
702.982	1439.27
703.175	1498.55
703.367	1495.65
703.56	1495.26
703.752	1599.11
703.945	1566.95
704.137	1610.35
704.33	1600.66
704.522	1619.84
704.715	1652.78
704.907	1668.86
705.1	1669.83
705.292	1691.33
705.484	1689.98
705.677	1729.5
705.869	1748.68
706.061	1781.04
706.254	1784.72
706.446	1776.58
706.638	1778.13
706.831	1866.67
707.023	1819.98
707.215	1906
707.407	1881.2
707.599	1902.71
707.792	1940.88
707.984	1930.42
708.176	1962.77
708.368	1960.06
708.56	1991.06
708.752	1965.68
708.944	1955.22
709.136	1998.81
709.329	2026.32
709.521	2146.64
709.713	2089.29
709.905	2072.82
710.097	2125.52
710.289	2060.81
710.481	2131.14
710.672	2110.8
710.864	2158.26
711.056	2186.94
711.248	2191.78
711.44	2173.18
711.632	2203.6
711.824	2216.39
712.016	2277.81
712.207	2296.41
712.399	2271.22
712.591	2323.72
712.783	2321.01
712.975	2299.31
713.166	2306.29
713.358	2346.39
713.55	2395.02
713.741	2389.02
713.933	2417.88
714.125	2355.69
714.316	2362.86
714.508	2460.12
714.7	2453.92
714.891	2400.64
715.083	2434.93
715.274	2414.2
715.466	2425.05
715.657	2470.58
715.849	2363.83
716.04	2430.67
716.232	2378.55
716.423	2448.5
716.615	2348.91
716.806	2285.36
716.998	2212.51
717.189	2150.13
717.381	2060.81
717.572	2007.92
717.763	2043.37
717.955	2031.55
718.146	1946.69
718.337	1909.49
718.528	1853.69
718.72	1797.31
718.911	1833.54
719.102	1785.49
719.293	1835.67
719.485	1792.08
719.676	1784.52
719.867	1760.5
720.058	1763.6
720.249	1763.79
720.44	1783.17
720.632	1875
720.823	1927.51
721.014	2000.94
721.205	2074.37
721.396	2153.42
721.587	2247
721.778	2269.28
721.969	2344.26
722.16	2406.65
722.351	2433.97
722.542	2559.32
722.733	2541.69
722.924	2512.43
723.115	2507.98
723.305	2494.41
723.496	2485.11
723.687	2333.99
723.878	2338.45
724.069	2338.64
724.26	2369.45
724.45	2314.04
724.641	2299.7
724.832	2282.26
725.023	2285.75
725.213	2261.92
725.404	2276.45
725.595	2280.13
725.785	2253.01
725.976	2288.66
726.167	2300.09
726.357	2304.16
726.548	2430.48
726.739	2312.29
726.929	2389.99
727.12	2417.5
727.31	2424.47
727.501	2356.08
727.691	2388.82
727.882	2371.58
728.072	2460.51
728.263	2445.98
728.453	2515.53
728.644	2533.94
728.834	2480.27
729.024	2485.5
729.215	2433.19
729.405	2462.83
729.596	2555.25
729.786	2545.37
729.976	2575.79
730.167	2587.61
730.357	2552.35
730.547	2583.93
730.737	2609.11
730.928	2628.68
731.118	2662.39
731.308	2620.93
731.498	2646.12
731.688	2723.23
731.879	2748.22
732.069	2828.24
732.259	2823.59
732.449	2870.87
732.639	2931.7
732.829	2965.8
733.019	2994.09
733.209	3046.4
733.399	3099.29
733.589	3174.86
733.779	3208.95
733.969	3187.84
734.159	3233.95
734.349	3309.51
734.539	3341.09
734.729	3332.95
734.919	3355.62
735.109	3410.84
735.299	3333.92
735.488	3389.72
735.678	3356.98
735.868	3368.6
736.058	3361.43
736.248	3358.91
736.437	3337.22
736.627	3314.93
736.817	3462.76
737.007	3375.58
737.196	3463.93
737.386	3414.71
737.576	3381.58
737.765	3495.12
737.955	3455.59
738.144	3569.91
738.334	3564.48
738.524	3455.21
738.713	3490.47
738.903	3494.34
739.092	3581.72
739.282	3577.46
739.471	3566.81
739.661	3548.4
739.85	3577.46
740.04	3571.46
740.229	3623.19
740.419	3651.47
740.608	3632.87
740.797	3664.26
740.987	3715.8
741.176	3640.62
741.365	3651.28
741.555	3620.47
741.744	3700.1
741.933	3687.7
742.123	3683.44
742.312	3716.57
742.501	3764.23
742.69	3747.57
742.88	3669.3
743.069	3805.31
743.258	3784.58
743.447	3860.14
743.636	3797.95
743.825	3778.96
744.014	3820.81
744.204	3819.65
744.393	3775.86
744.582	3860.33
744.771	3891.53
744.96	3825.85
745.149	3849.48
745.338	3787.48
745.527	3862.85
745.716	3859.17
745.905	3833.01
746.094	3890.17
746.283	3922.91
746.471	3876.8
746.66	3946.16
746.849	3905.09
747.038	3911.87
747.227	3854.91
747.416	3909.74
747.604	3873.7
747.793	3845.22
747.982	3855.1
748.171	3924.85
748.359	3897.53
748.548	3905.28
748.737	3906.06
748.926	3876.8
749.114	3775.86
749.303	3847.93
749.491	3903.54
749.68	3778.38
749.869	3865.76
750.057	3802.4
750.246	3845.8
750.434	3768.69
750.623	3779.73
750.811	3783.8
751	3871.96
751.188	3792.72
751.377	3823.71
751.565	3749.51
751.754	3775.67
751.942	3727.81
752.131	3845.61
752.319	3741.76
752.507	3725.1
752.696	3803.56
752.884	3806.28
753.072	3763.27
753.261	3799.88
753.449	3756.87
753.637	3721.61
753.825	3836.89
754.014	3758.42
754.202	3742.92
754.39	3793.68
754.578	3786.13
754.766	3713.67
754.955	3704.95
755.143	3764.04
755.331	3739.63
755.519	3730.52
755.707	3721.61
755.895	3696.04
756.083	3715.99
756.271	3676.66
756.459	3680.34
756.647	3741.76
756.835	3647.4
757.023	3702.82
757.211	3650.5
757.399	3647.02
757.587	3700.1
757.775	3580.37
757.963	3600.91
758.151	3631.71
758.339	3568.94
758.526	3575.72
758.714	3587.73
758.902	3474.19
759.09	3395.34
759.278	3162.46
759.465	2919.88
759.653	2560.29
759.841	2264.82
760.028	1998.62
760.216	1709.54
760.404	1590.39
760.591	1279.04
760.779	1102.34
760.967	925.64
761.154	760.38
761.342	786.15
761.529	780.53
761.717	832.84
761.905	821.6
762.092	906.08
762.28	827.22
762.467	820.25
762.655	739.45
762.842	774.91
763.029	788.86
763.217	809.4
763.404	775.68
763.592	829.93
763.779	780.14
763.966	806.68
764.154	821.02
764.341	912.86
764.528	895.42
764.716	953.74
764.903	1055.26
765.09	1116.68
765.277	1180.23
765.465	1326.89
765.652	1380.56
765.839	1443.14
766.026	1627.78
766.213	1674.09
766.4	1764.18
766.588	1954.44
766.775	2006.56
766.962	2151.87
767.149	2214.64
767.336	2370.22
767.523	2387.08
767.71	2521.54
767.897	2613.18
768.084	2691.26
768.271	2701.72
768.458	2772.83
768.645	2915.23
768.832	2823.98
769.019	2870.87
769.206	2948.56
769.392	3029.74
769.579	3112.86
769.766	3077.59
769.953	3089.41
770.14	3152.96
770.327	3125.45
770.513	3206.44
770.7	3294.98
770.887	3141.53
771.073	3193.65
771.26	3223.1
771.447	3192.87
771.634	3191.52
771.82	3291.49
772.007	3174.47
772.193	3248.87
772.38	3229.49
772.567	3225.23
772.753	3213.99
772.94	3271.15
773.126	3272.89
773.313	3298.85
773.499	3237.63
773.686	3289.36
773.872	3159.74
774.059	3248.48
774.245	3213.02
774.432	3211.86
774.618	3164.01
774.804	3202.56
774.991	3144.82
775.177	3155.48
775.363	3137.46
775.55	3193.65
775.736	3150.64
775.922	3155.29
776.109	3170.01
776.295	3155.48
776.481	3189.58
776.667	3193.07
776.853	3185.7
777.04	3141.34
777.226	3164.78
777.412	3226.39
777.598	3129.71
777.784	3131.65
777.97	3113.24
778.156	3104.33
778.342	3094.64
778.528	3093.68
778.715	3062.09
778.901	3086.89
779.087	3108.98
779.272	3052.02
779.458	3005.13
779.644	3055.89
779.83	3056.09
780.016	3126.42
780.202	3033.81
780.388	3058.8
780.574	2942.16
780.76	3054.54
780.946	3039.23
781.131	3016.95
781.317	2987.31
781.503	2979.95
781.689	2982.27
781.874	3113.05
782.06	2942.36
782.246	2990.6
782.432	2984.4
782.617	2990.21
782.803	3038.46
782.989	2905.16
783.174	2911.94
783.36	2894.31
783.545	2926.08
783.731	2909.81
783.916	2863.12
784.102	2940.42
784.288	2877.26
784.473	2867.57
784.659	2906.52
784.844	2922.01
785.029	2832.5
785.215	2833.86
785.4	2782.13
785.586	2912.91
785.771	2796.85
785.956	2836.77
786.142	2798.21
786.327	2827.85
786.512	2817.2
786.698	2818.94
786.883	2738.73
787.068	2786
787.254	2770.31
787.439	2758.3
787.624	2724.59
787.809	2713.16
787.994	2739.51
788.18	2800.15
788.365	2662.97
788.55	2684.87
788.735	2712.77
788.92	2692.62
789.105	2673.63
789.29	2650.77
789.475	2615.7
789.66	2634.11
789.845	2594.19
790.03	2623.84
790.215	2628.49
790.4	2671.11
790.585	2654.26
790.77	2605.43
790.955	2549.05
791.14	2556.61
791.325	2672.08
791.51	2500.03
791.695	2564.75
791.879	2560.48
792.064	2561.65
792.249	2599.43
792.434	2529.87
792.618	2552.15
792.803	2583.73
792.988	2555.06
793.173	2554.09
793.357	2626.16
793.542	2539.95
793.727	2572.69
793.911	2611.83
794.096	2594.39
794.281	2608.53
794.465	2724.39
794.65	2605.04
794.834	2646.89
795.019	2630.81
795.203	2646.31
795.388	2654.45
795.572	2686.42
795.757	2657.55
795.941	2642.83
796.126	2611.44
796.31	2540.33
796.494	2560.68
796.679	2574.04
796.863	2541.5
797.048	2630.43
797.232	2593.61
797.416	2611.63
797.601	2612.21
797.785	2669.95
797.969	2682.35
798.153	2577.92
798.338	2619.77
798.522	2704.24
798.706	2707.34
798.89	2683.12
799.074	2784.07
799.258	2729.43
799.443	2686.81
799.627	2689.52
799.811	2696.3
799.995	2626.16
800.179	2638.37
800.363	2607.76
800.547	2660.65
800.731	2681.77
800.915	2597.49
801.099	2621.51
801.283	2637.98
801.467	2639.73
801.651	2607.56
801.835	2666.07
802.019	2635.66
802.202	2608.53
802.386	2568.62
802.57	2585.67
802.754	2620.74
802.938	2543.43
803.121	2553.7
803.305	2638.56
803.489	2610.08
803.673	2629.26
803.856	2635.27
804.04	2606.59
804.224	2634.3
804.407	2610.47
804.591	2564.55
804.775	2604.85
804.958	2606.21
805.142	2726.91
805.326	2642.83
805.509	2645.93
805.693	2669.95
805.876	2683.32
806.06	2668.21
806.243	2653.87
806.427	2667.43
806.61	2687.77
806.794	2643.79
806.977	2692.81
807.16	2665.11
807.344	2647.86
807.527	2615.7
807.71	2638.95
807.894	2646.12
808.077	2652.13
808.26	2612.6
808.444	2625.78
808.627	2643.41
808.81	2557.96
808.993	2499.84
809.177	2562.61
809.36	2549.05
809.543	2547.7
809.726	2450.63
809.909	2453.15
810.092	2464.77
810.276	2512.43
810.459	2479.69
810.642	2467.48
810.825	2409.17
811.008	2454.7
811.191	2326.05
811.374	2339.61
811.557	2367.32
811.74	2412.46
811.923	2297.37
812.106	2308.03
812.289	2247.97
812.472	2267.54
812.654	2281.87
812.837	2222.78
813.02	2182.48
813.203	2147.41
813.386	2035.62
813.569	2024.97
813.751	1996.87
813.934	2009.85
814.117	1982.53
814.3	1946.3
814.482	1871.9
814.665	1857.37
814.848	1807.19
815.03	1749.46
815.213	1734.93
815.396	1732.02
815.578	1719.62
815.761	1674.86
815.943	1693.85
816.126	1595.43
816.309	1617.32
816.491	1559.78
816.674	1515.02
816.856	1564.82
817.039	1521.22
817.221	1607.44
817.403	1579.15
817.586	1563.07
817.768	1586.32
817.951	1506.5
818.133	1499.52
818.315	1531.68
818.498	1585.74
818.68	1626.04
818.862	1608.6
819.045	1627.59
819.227	1605.12
819.409	1614.8
819.591	1603.57
819.774	1610.15
819.956	1551.45
820.138	1654.91
820.32	1650.26
820.502	1707.8
820.684	1768.06
820.866	1799.83
821.048	1844.01
821.231	1874.23
821.413	1831.41
821.595	1797.31
821.777	1844.01
821.959	1841.29
822.141	1915.11
822.323	1758.56
822.505	1678.93
822.686	1660.72
822.868	1550.28
823.05	1406.72
823.232	1443.14
823.414	1340.46
823.596	1430.36
823.778	1407.49
823.96	1456.51
824.141	1481.7
824.323	1485.19
824.505	1546.02
824.687	1591.17
824.868	1613.25
825.05	1735.89
825.232	1769.03
825.413	1846.72
825.595	1821.53
825.777	1714
825.958	1774.26
826.14	1790.72
826.321	1791.69
826.503	1787.24
826.685	1788.98
826.866	1835.09
827.048	1822.69
827.229	1754.49
827.411	1737.06
827.592	1660.14
827.773	1685.33
827.955	1615.38
828.136	1619.65
828.318	1572.37
828.499	1623.71
828.68	1560.36
828.862	1604.92
829.043	1643.48
829.224	1584.19
829.406	1576.63
829.587	1555.9
829.768	1556.68
829.949	1596.98
830.131	1594.07
830.312	1666.15
830.493	1606.47
830.674	1618.48
830.855	1583.42
831.036	1579.35
831.218	1676.8
831.399	1654.71
831.58	1634.37
831.761	1611.9
831.942	1622.16
832.123	1622.75
832.304	1561.91
832.485	1588.65
832.666	1618.68
832.847	1618.29
833.028	1585.74
833.209	1632.05
833.389	1605.89
833.57	1545.44
833.751	1573.34
833.932	1616.16
834.113	1587.48
834.294	1594.07
834.475	1637.08
834.655	1667.11
834.836	1645.61
835.017	1643.48
835.198	1575.47
835.378	1656.65
835.559	1665.56
835.74	1639.8
835.92	1621.39
836.101	1612.86
836.281	1677.58
836.462	1644.83
836.643	1662.27
836.823	1703.73
837.004	1735.89
837.184	1704.51
837.365	1674.86
837.545	1710.9
837.726	1676.61
837.906	1714.19
838.087	1709.16
838.267	1688.62
838.448	1671.76
838.628	1691.72
838.808	1695.01
838.989	1717.68
839.169	1646.38
839.349	1687.46
839.53	1737.25
839.71	1724.85
839.89	1670.99
840.07	1727.95
840.251	1673.51
840.431	1699.47
840.611	1709.16
840.791	1669.63
840.971	1720.2
841.151	1696.56
841.332	1634.37
841.512	1733.96
841.692	1639.21
841.872	1698.31
842.052	1663.82
842.232	1694.24
842.412	1622.36
842.592	1668.28
842.772	1699.47
842.952	1665.76
843.132	1663.63
843.312	1676.61
843.492	1632.05
843.672	1664.6
843.851	1603.76
844.031	1629.53
844.211	1633.6
844.391	1610.73
844.571	1669.25
844.751	1657.81
844.93	1640.57
845.11	1621.2
845.29	1650.84
845.47	1655.3
845.649	1637.66
845.829	1657.04
846.009	1602.79
846.188	1646.19
846.368	1627.59
846.547	1658.01
846.727	1674.28
846.907	1638.44
847.086	1629.53
847.266	1647.35
847.445	1641.15
847.625	1603.37
847.804	1548.54
847.984	1628.95
848.163	1576.05
848.343	1592.33
848.522	1599.88
848.701	1643.28
848.881	1542.34
849.06	1614.41
849.239	1590.39
849.419	1588.07
849.598	1477.82
849.777	1488.09
849.957	1514.64
850.136	1431.13
850.315	1445.08
850.494	1474.72
850.674	1438.69
850.853	1529.17
851.032	1475.89
851.211	1522.77
851.39	1484.99
851.569	1428.22
851.748	1472.98
851.927	1537.11
852.107	1498.36
852.286	1438.49
852.465	1449.34
852.644	1498.75
852.823	1494.29
853.002	1477.82
853.181	1472.01
853.359	1472.2
853.538	1413.89
853.717	1486.93
853.896	1394.12
854.075	1328.25
854.254	1292.79
854.433	1208.32
854.611	1291.44
854.79	1214.91
854.969	1300.54
855.148	1283.88
855.327	1257.15
855.505	1324.96
855.684	1304.61
855.863	1322.44
856.041	1327.28
856.22	1351.31
856.399	1335.23
856.577	1452.05
856.756	1428.42
856.934	1507.27
857.113	1504.75
857.291	1437.72
857.47	1438.88
857.648	1403.04
857.827	1467.75
858.005	1453.22
858.184	1375.33
858.362	1470.07
858.541	1396.64
858.719	1416.79
858.898	1420.28
859.076	1349.95
859.254	1461.74
859.433	1375.33
859.611	1366.61
859.789	1342.59
859.967	1435.78
860.146	1469.3
860.324	1361.38
860.502	1381.53
860.68	1329.22
860.859	1353.24
861.037	1358.28
861.215	1339.29
861.393	1354.99
861.571	1400.71
861.749	1350.34
861.927	1379.59
862.105	1348.4
862.283	1381.14
862.461	1355.57
862.639	1324.57
862.817	1360.41
862.995	1330.58
863.173	1309.84
863.351	1344.72
863.529	1355.57
863.707	1389.86
863.885	1354.02
864.063	1298.99
864.241	1303.45
864.418	1373.01
864.596	1319.34
864.774	1277.29
864.952	1308.29
865.129	1299.77
865.307	1249.59
865.485	1233.31
865.663	1320.89
865.84	1204.25
866.018	1243.2
866.196	1119.78
866.373	1154.85
866.551	1131.4
866.728	1087.62
866.906	1118.62
867.084	1150.97
867.261	1196.5
867.439	1188.36
867.616	1202.7
867.794	1208.71
867.971	1197.86
868.149	1188.56
868.326	1238.55
868.503	1236.41
868.681	1225.56
868.858	1217.62
869.035	1204.64
869.213	1241.06
869.39	1225.18
869.567	1295.31
869.745	1187.4
869.922	1217.81
870.099	1235.45
870.276	1212.78
870.454	1250.75
870.631	1242.81
870.808	1203.09
870.985	1215.49
871.162	1267.22
871.339	1217.62
871.517	1169.77
871.694	1156.2
871.871	1172.48
872.048	1170.93
872.225	1140.12
872.402	1177.9
872.579	1116.29
872.756	1213.36
872.933	1124.23
873.11	1144
873.287	1186.43
873.463	1142.06
873.64	1123.27
873.817	1153.68
873.994	1194.18
874.171	1108.93
874.348	1155.62
874.524	1085.48
874.701	1159.88
874.878	1074.25
875.055	1156.01
875.231	1139.15
875.408	1112.22
875.585	1054.68
875.762	1136.83
875.938	1094.78
876.115	1090.33
876.291	1064.95
876.468	1082.77
876.645	1047.9
876.821	1072.89
876.998	1088
877.174	1104.28
877.351	1064.56
877.527	1036.08
877.704	1083.35
877.88	1092.27
878.057	1063.4
878.233	1130.82
878.409	1085.68
878.586	1105.83
878.762	1056.81
878.938	1044.41
879.115	1024.84
879.291	1063.01
879.467	1033.75
879.644	1046.35
879.82	1048.29
879.996	1028.91
880.172	993.46
880.349	1039.76
880.525	1022.9
880.701	1028.33
880.877	1001.59
881.053	1023.29
881.229	1032.59
881.405	1027.36
881.581	986.29
881.757	1029.1
881.933	1012.44
882.109	1048.09
882.285	1034.72
882.461	991.13
882.637	1025.81
882.813	964.01
882.989	994.42
883.165	1050.22
883.341	998.1
883.517	1049.64
883.693	1014.96
883.869	1030.65
884.044	988.42
884.22	1026.97
884.396	1055.45
884.572	1031.24
884.747	1057.78
884.923	1009.54
885.099	1030.07
885.275	1064.75
885.45	1013.99
885.626	997.14
885.801	961.68
885.977	1011.67
886.153	945.02
886.328	1008.37
886.504	989.58
886.679	976.79
886.855	979.89
887.03	993.26
887.206	1009.15
887.381	995.78
887.557	986.29
887.732	1026.97
887.908	1018.45
888.083	1024.26
888.258	967.69
888.434	981.44
888.609	1017.48
888.784	1058.55
888.96	1000.24
889.135	983.57
889.31	989.58
889.485	1008.76
889.661	998.3
889.836	1029.69
890.011	1006.24
890.186	980.28
890.361	979.31
890.537	1002.56
890.712	1019.8
890.887	1032.2
891.062	1000.04
891.237	1059.52
891.412	974.66
891.587	1009.15
891.762	995.01
891.937	1037.82
892.112	932.81
892.287	970.98
892.462	942.69
892.637	912.86
892.812	902.01
892.987	917.12
893.161	899.49
893.336	880.5
893.511	890.58
893.686	918.67
893.861	897.36
894.035	911.31
894.21	918.47
894.385	844.66
894.56	878.18
894.734	800.87
894.909	822.18
895.084	820.25
895.258	811.33
895.433	783.05
895.608	776.46
895.782	722.02
895.957	747.98
896.131	744.88
896.306	700.9
896.48	673
896.655	682.49
896.829	624.75
897.004	640.45
897.178	655.95
897.353	628.44
897.527	697.41
897.701	681.52
897.876	658.66
898.05	693.92
898.224	657.69
898.399	694.31
898.573	636.57
898.747	559.27
898.921	614.1
899.096	494.56
899.27	515.87
899.444	492.62
899.618	585.04
899.792	563.72
899.967	580
900.141	620.3
900.315	527.69
900.489	540.28
900.663	579.61
900.837	522.07
901.011	497.07
901.185	593.95
901.359	560.82
901.533	582.52
901.707	573.99
901.881	558.11
902.055	497.46
902.229	554.23
902.403	615.84
902.576	554.62
902.75	565.08
902.924	635.8
903.098	646.84
903.272	644.71
903.446	681.52
903.619	702.06
903.793	706.32
903.967	692.18
904.14	762.7
904.314	731.12
904.488	727.05
904.661	715.62
904.835	709.81
905.009	766.96
905.182	764.25
905.356	751.27
905.529	721.82
905.703	693.34
905.876	683.85
906.05	668.15
906.223	637.54
906.397	583.87
906.57	590.65
906.744	566.05
906.917	577.09
907.09	552.49
907.264	572.44
907.437	517.61
907.61	524.78
907.784	530.01
907.957	535.44
908.13	499.98
908.304	557.72
908.477	492.42
908.65	517.81
908.823	450.38
908.996	537.37
909.17	469.76
909.343	480.02
909.516	511.61
909.689	501.14
909.862	475.76
910.035	477.89
910.208	444.18
910.381	465.49
910.554	566.44
910.727	481.96
910.9	455.23
911.073	460.26
911.246	538.15
911.419	553.65
911.592	527.69
911.765	469.37
911.938	477.89
912.11	471.5
912.283	516.26
912.456	499.98
912.629	481.38
912.802	485.64
912.974	421.32
913.147	392.45
913.32	340.91
913.493	362.03
913.665	397.29
913.838	428.29
914.01	417.83
914.183	422.68
914.356	406.01
914.528	450.58
914.701	500.95
914.873	440.31
915.046	399.23
915.218	392.26
915.391	327.16
915.563	348.66
915.736	373.08
915.908	429.84
916.081	423.64
916.253	415.12
916.425	437.4
916.598	432.56
916.77	435.66
916.942	388.58
917.115	347.11
917.287	395.74
917.459	375.79
917.632	345.95
917.804	322.9
917.976	399.81
918.148	402.91
918.32	395.94
918.493	429.07
918.665	449.8
918.837	433.53
919.009	489.32
919.181	496.49
919.353	463.36
919.525	461.43
919.697	476.34
919.869	441.28
920.041	497.85
920.213	567.6
920.385	489.13
920.557	441.08
920.729	463.94
920.901	469.56
921.073	451.54
921.244	441.08
921.416	485.64
921.588	452.32
921.76	431.39
921.932	511.61
922.103	444.38
922.275	454.45
922.447	468.21
922.619	414.73
922.79	425.39
922.962	431.98
923.134	445.73
923.305	383.73
923.477	400.01
923.648	377.15
923.82	396.52
923.991	367.26
924.163	337.81
924.335	371.91
924.506	368.43
924.677	406.01
924.849	377.15
925.02	389.16
925.192	408.73
925.363	381.41
925.535	370.95
925.706	347.31
925.877	435.46
926.049	372.3
926.22	371.72
926.391	386.25
926.562	412.79
926.734	335.88
926.905	410.86
927.076	323.86
927.247	351.38
927.419	305.85
927.59	321.35
927.761	312.63
927.932	302.55
928.103	326.19
928.274	251.98
928.445	256.25
928.616	256.44
928.787	275.43
928.958	298.1
929.129	261.28
929.3	224.86
929.471	208.78
929.642	192.5
929.813	126.63
929.984	224.47
930.155	183.79
930.326	186.69
930.496	192.12
930.667	127.02
930.838	158.02
931.009	132.64
931.18	115.59
931.35	160.73
931.521	130.31
931.692	90.98
931.863	61.92
932.033	99.12
932.204	109.58
932.374	112.49
932.545	81.29
932.716	113.26
932.886	98.73
933.057	38.28
933.227	22.01
933.398	145.23
933.568	54.94
933.739	14.64
933.909	24.72
934.08	70.25
934.25	26.66
934.421	17.36
934.591	66.76
934.761	31.31
934.932	5.73
935.102	47
935.272	23.36
935.443	57.27
935.613	29.95
935.783	70.83
935.953	11.35
936.123	143.29
936.294	10.58
936.464	16.58
936.634	32.47
936.804	-2.21
936.974	-7.06
937.144	43.9
937.314	39.64
937.484	-1.44
937.655	19.1
937.825	65.41
937.995	-11.9
938.165	81.87
938.334	-0.27
938.504	71.8
938.674	38.47
938.844	46.22
939.014	98.34
939.184	72.19
939.354	124.5
939.524	115.01
939.694	79.36
939.863	85.17
940.033	123.14
940.203	100.28
940.373	93.5
940.542	123.72
940.712	79.94
940.882	115.01
941.051	104.35
941.221	96.41
941.391	113.26
941.56	44.87
941.73	73.74
941.899	173.71
942.069	92.53
942.238	82.65
942.408	69.47
942.577	100.09
942.747	36.34
942.916	24.53
943.086	36.92
943.255	88.07
943.425	75.87
943.594	62.69
943.763	10.19
943.933	43.51
944.102	9.22
944.271	47.19
944.441	67.34
944.61	39.44
944.779	71.02
944.948	130.12
945.117	25.11
945.287	37.89
945.456	8.83
945.625	43.9
945.794	51.26
945.963	10.96
946.132	72.96
946.301	30.14
946.47	67.73
946.639	1.66
946.808	46.22
946.977	94.86
947.146	91.76
947.315	56.11
947.484	58.24
947.653	63.86
947.822	24.53
947.991	16.97
948.16	120.43
948.329	108.61
948.498	38.28
948.666	31.89
948.835	95.05
949.004	13.87
949.173	26.08
949.341	69.28
949.51	60.76
949.679	92.14
949.847	70.64
950.016	117.72
950.185	122.76
950.353	48.94
950.522	34.41
950.69	100.47
950.859	46.81
951.028	77.42
951.196	84.39
951.365	39.64
951.533	40.61
951.701	82.46
951.87	83.42
952.038	27.63
952.207	44.67
952.375	118.49
952.543	40.8
952.712	42.74
952.88	38.47
953.048	94.47
953.217	67.92
953.385	62.31
953.553	89.43
953.721	16.78
953.89	60.56
954.058	28.4
954.226	27.63
954.394	100.28
954.562	13.09
954.73	47.39
954.898	42.93
955.067	93.31
955.235	54.75
955.403	72.19
955.571	127.99
955.739	80.13
955.907	43.71
956.075	51.84
956.243	51.65
956.41	69.86
956.578	19.68
956.746	5.73
956.914	36.15
957.082	107.64
957.25	95.05
957.418	54.75
957.585	71.99
957.753	113.84
957.921	47.39
958.089	60.37
958.256	65.41
958.424	64.82
958.592	62.5
958.759	16
958.927	62.5
959.095	58.43
959.262	66.96
959.43	40.61
959.597	43.32
959.765	40.61
959.932	46.42
960.1	107.26
960.267	61.72
960.435	69.28
960.602	92.34
960.77	55.52
960.937	19.68
961.104	57.46
961.272	13.29
961.439	45.64
961.606	88.07
961.774	98.92
961.941	56.69
962.108	76.06
962.275	63.47
962.443	94.86
962.61	62.5
962.777	132.05
962.944	111.13
963.111	93.31
963.278	62.11
963.446	90.79
963.613	59.4
963.78	87.69
963.947	79.36
964.114	77.22
964.281	157.24
964.448	95.05
964.615	48.94
964.782	61.34
964.949	109.39
965.116	93.89
965.282	147.36
965.449	77.61
965.616	65.41
965.783	90.79
965.95	55.72
966.117	26.27
966.283	64.05
966.45	108.61
966.617	94.27
966.784	127.4
966.95	91.37
967.117	86.72
967.284	69.67
967.45	83.04
967.617	120.04
967.784	110.94
967.95	131.67
968.117	85.17
968.283	133.02
968.45	208.78
968.616	102.8
968.783	118.3
968.949	100.86
969.116	121.01
969.282	94.86
969.449	120.62
969.615	94.08
969.781	56.69
969.948	83.04
970.114	76.26
970.28	141.74
970.447	108.81
970.613	170.03
970.779	97.96
970.945	132.64
971.112	112.68
971.278	90.4
971.444	109.97
971.61	128.95
971.776	84.59
971.942	120.62
972.108	140.77
972.275	77.42
972.441	114.04
972.607	163.44
972.773	72.19
972.939	100.67
973.105	89.24
973.271	66.57
973.437	89.43
973.602	72.57
973.768	107.84
973.934	89.04
974.1	108.03
974.266	34.6
974.432	104.35
974.598	86.33
974.763	114.81
974.929	70.44
975.095	145.62
975.261	60.17
975.426	68.31
975.592	96.02
975.758	152.98
975.923	30.92
976.089	60.17
976.255	110.36
976.42	99.51
976.586	116.17
976.751	92.14
976.917	161.5
977.082	120.24
977.248	45.45
977.413	34.02
977.579	83.04
977.744	92.92
977.91	64.82
978.075	71.61
978.24	96.6
978.406	93.11
978.571	75.87
978.736	33.83
978.902	98.92
979.067	58.82
979.232	19.49
979.397	92.92
979.563	112.29
979.728	37.89
979.893	80.71
980.058	59.79
980.223	111.52
980.388	75.29
980.554	98.92
980.719	56.88
980.884	99.51
981.049	117.52
981.214	67.15
981.379	105.32
981.544	83.62
981.709	82.07
981.874	49.13
982.039	111.71
982.204	116.36
982.368	76.84
982.533	52.42
982.698	117.91
982.863	115.97
983.028	60.37
983.193	119.85
983.357	68.51
983.522	77.42
983.687	70.06
983.852	76.06
984.016	86.52
984.181	76.45
984.346	102.41
984.51	102.99
984.675	84.97
984.839	98.34
985.004	91.56
985.168	118.88
985.333	106.87
985.498	76.45
985.662	84.78
985.827	96.02
985.991	63.08
986.155	68.31
986.32	128.37
986.484	129.92
986.649	111.52
986.813	51.26
986.977	86.33
987.142	89.62
987.306	35.57
987.47	64.24
987.634	89.82
987.799	96.41
987.963	95.44
988.127	97.96
988.291	180.3
988.455	80.91
988.62	63.08
988.784	119.66
988.948	105.51
989.112	69.09
989.276	83.81
989.44	84.97
989.604	38.28
989.768	77.81
989.932	137.87
990.096	43.32
990.26	55.72
990.424	-6.09
990.588	82.46
990.752	137.87
990.915	104.93
991.079	67.54
991.243	77.42
991.407	112.49
991.571	84.01
991.734	77.22
991.898	85.94
992.062	175.45
992.226	72.96
992.389	66.57
992.553	-11.32
992.717	56.49
992.88	79.74
993.044	83.04
993.207	79.36
993.371	97.18
993.535	97.96
993.698	70.64
993.862	110.16
994.025	91.76
994.189	69.09
994.352	83.81
994.515	97.57
994.679	102.61
994.842	54.75
995.006	122.76
995.169	50.29
995.332	68.12
995.496	77.42
995.659	36.54
995.822	65.99
995.985	87.69
996.149	108.61
996.312	92.53
996.475	126.05
996.638	44.87
996.801	121.01
996.964	152.79
997.128	54.17
997.291	71.22
997.454	44.48
997.617	22.98
997.78	84.97
997.943	38.47
998.106	101.64
998.269	47.19
998.432	81.49
998.595	84.97
998.758	1.28
998.92	40.22
999.083	17.16
999.246	59.59
999.409	41.38
999.572	18.13
999.735	42.35
999.897	89.43
1000.06	62.5
1000.223	48.74
1000.386	80.91
1000.548	74.9
1000.711	72.57
1000.874	58.43
1001.036	37.51
1001.199	108.03
1001.361	23.94
1001.524	61.14
1001.687	66.37
1001.849	46.03
1002.012	65.21
1002.174	63.27
1002.337	104.54
1002.499	58.43
1002.661	105.12
1002.824	42.93
1002.986	36.54
1003.149	52.23
1003.311	28.98
1003.473	121.79
1003.636	33.63
1003.798	65.41
1003.96	64.05
1004.123	53.97
1004.285	31.31
1004.447	48.94
1004.609	56.11
1004.771	109.19
1004.933	10.19
1005.096	-4.54
1005.258	-3.57
1005.42	32.28
1005.582	58.04
1005.744	64.05
1005.906	3.99
1006.068	26.66
1006.23	-0.66
1006.392	-8.02
1006.554	44.09
1006.716	60.76
1006.878	62.11
1007.04	18.33
1007.202	44.67
1007.363	43.12
1007.525	65.6
1007.687	51.46
1007.849	81.1
1008.011	35.38
1008.172	4.57
1008.334	55.52
1008.496	56.3
1008.658	-6.28
1008.819	10.96
1008.981	-13.45
1009.143	0.31
1009.304	39.44
1009.466	55.14
1009.627	96.6
1009.789	150.85
1009.95	47
1010.112	36.54
1010.273	49.13
1010.435	24.14
1010.596	16.97
1010.758	32.47
1010.919	12.9
1011.081	-18.1
1011.242	19.68
1011.403	51.65
1011.565	45.06
1011.726	77.22
1011.887	28.01
1012.049	22.98
1012.21	83.81
1012.371	103.57
1012.532	-33.6
1012.693	31.5
1012.855	9.61
1013.016	19.88
1013.177	61.53
1013.338	28.59
1013.499	98.92
1013.66	60.95
1013.821	51.07
1013.982	34.6
1014.143	63.08
1014.304	-4.15
1014.465	38.86
1014.626	62.31
1014.787	9.8
1014.948	112.87
1015.109	-23.91
1015.27	71.22
1015.431	16.39
1015.592	14.45
1015.752	41.57
1015.913	38.47
1016.074	57.07
1016.235	9.8
1016.395	3.79
1016.556	18.33
1016.717	32.86
1016.877	71.41
1017.038	0.89
1017.199	49.13
1017.359	29.95
1017.52	59.4
1017.681	-1.63
1017.841	32.08
1018.002	4.38
1018.162	26.46
1018.323	58.24
1018.483	12.9
1018.644	-7.44
1018.804	-34.96
1018.964	-18.49
1019.125	39.64
1019.285	42.93
1019.446	-16.55
1019.606	-8.41
1019.766	-30.11
1019.926	47.19
1020.087	31.5
1020.247	-2.02
1020.407	38.67
1020.567	60.17
1020.728	12.13
1020.888	18.71
1021.048	-4.92
1021.208	7.86
1021.368	12.32
1021.528	46.61
1021.688	63.47
1021.848	28.98
1022.008	14.06
1022.168	-7.06
1022.328	36.73
1022.488	45.45
1022.648	2.63
1022.808	22.59
1022.968	50.1
1023.128	6.7
1023.288	22.78
1023.448	22.39
1023.608	19.1
1023.767	19.68
1023.927	-1.44
1024.087	21.04
1024.247	-12.87
1024.406	-11.32
1024.566	-1.82
1024.726	19.49
1024.885	-3.18
1025.045	40.41
1025.205	14.26
1025.364	12.9
1025.524	26.46
1025.683	5.54
1025.843	27.63
1026.003	14.45
1026.162	69.86
1026.321	36.34
1026.481	8.64
1026.64	26.27
1026.8	37.89
1026.959	9.22
1027.119	24.14
1027.278	16
1027.437	10.77
1027.597	10.58
1027.756	6.7
1027.915	43.71
1028.074	20.65
1028.234	9.22
1028.393	9.03
1028.552	-6.86
1028.711	-72.15
1028.87	74.32
1029.03	-22.75
1029.189	0.31
1029.348	-51.42
1029.507	-14.22
1029.666	8.25
1029.825	8.44
1029.984	-32.44
1030.143	27.04
1030.302	-5.31
1030.461	-26.82
1030.62	15.03
1030.779	39.06
1030.938	-5.31
1031.097	-10.35
1031.255	20.65
1031.414	58.62
1031.573	68.31
1031.732	-57.04
1031.891	-9.77
1032.049	54.36
1032.208	31.11
1032.367	14.26
1032.525	-4.92
1032.684	15.61
1032.843	9.22
1033.001	-35.54
1033.16	135.93
1033.319	62.69
1033.477	14.06
1033.636	-1.63
1033.794	-38.06
1033.953	51.46
1034.111	40.8
1034.27	7.28
1034.428	3.79
1034.587	-12.48
1034.745	26.27
1034.903	-8.02
1035.062	38.47
1035.22	-21.01
1035.378	34.02
1035.537	-17.71
1035.695	35.96
1035.853	1.28
1036.011	30.34
1036.17	14.45
1036.328	-46.39
1036.486	30.34
1036.644	16.97
1036.802	-38.25
1036.96	-22.75
1037.119	7.86
1037.277	-2.6
1037.435	-30.69
1037.593	-3.96
1037.751	25.3
1037.909	36.15
1038.067	36.15
