Data from gum_young_FLMT105791__35__17-38-34-044.txt Node

Date: Mon Mar 20 17:38:34 GMT 2023
User: antho
Spectrometer: FLMT10579
Trigger mode: 0
Integration Time (sec): 1.000000E-1
Scans to average: 10
Electric dark correction enabled: true
Nonlinearity correction enabled: false
Boxcar width: 0
XAxis mode: Wavelengths
Number of Pixels in Spectrum: 3648
>>>>>Begin Spectral Data<<<<<
345.248	-152.35
345.464	-152.35
345.681	-152.35
345.898	-138.21
346.114	-132.98
346.331	-40.17
346.548	19.89
346.764	2.84
346.981	-17.31
347.197	-0.84
347.414	20.67
347.631	-16.53
347.847	43.14
348.064	-2
348.28	16.99
348.497	-35.91
348.713	9.24
348.93	17.57
349.146	25.32
349.363	22.99
349.579	19.12
349.796	12.53
350.012	-2.78
350.229	33.07
350.445	10.98
350.661	-11.88
350.878	19.7
351.094	56.7
351.311	35.97
351.527	36.94
351.743	-3.16
351.96	39.65
352.176	34.81
352.392	47.21
352.609	22.99
352.825	-1.42
353.041	21.83
353.257	-11.69
353.474	33.26
353.69	8.65
353.906	16.6
354.122	-21.96
354.339	54.96
354.555	8.07
354.771	9.04
354.987	61.16
355.203	57.67
355.42	0.52
355.636	4
355.852	-15.95
356.068	24.15
356.284	-34.36
356.5	51.28
356.716	15.24
356.932	18.34
357.148	8.07
357.364	18.92
357.58	39.65
357.796	63.29
358.012	41.59
358.228	28.8
358.444	-34.16
358.66	47.21
358.876	24.93
359.092	-15.37
359.308	25.51
359.524	17.76
359.74	16.21
359.956	9.62
360.172	13.89
360.388	63.68
360.604	19.7
360.819	97.58
361.035	41.4
361.251	23.38
361.467	3.04
361.683	58.83
361.898	22.6
362.114	35.39
362.33	32.1
362.546	32.29
362.762	9.82
362.977	37.91
363.193	-1.42
363.409	38.1
363.624	-11.69
363.84	1.68
364.056	-14.01
364.271	37.72
364.487	34.23
364.703	-10.91
364.918	-18.28
365.134	22.6
365.35	3.42
365.565	107.66
365.781	-2.97
365.996	32.68
366.212	66.2
366.427	34.03
366.643	15.82
366.858	20.28
367.074	-9.75
367.289	49.92
367.505	87.9
367.72	-39.59
367.936	-3.16
368.151	50.31
368.367	40.62
368.582	35.58
368.798	2.84
369.013	60.58
369.228	-20.21
369.444	37.91
369.659	75.3
369.874	35.97
370.09	66.58
370.305	-22.15
370.52	1.49
370.736	65.62
370.951	27.06
371.166	75.69
371.381	62.13
371.597	69.88
371.812	-20.99
372.027	-2
372.242	11.75
372.458	85.18
372.673	20.86
372.888	4.97
373.103	28.22
373.318	82.08
373.533	42.37
373.749	41.98
373.964	-23.7
374.179	61.35
374.394	-19.83
374.609	67.75
374.824	-1.61
375.039	62.9
375.254	5.36
375.469	82.28
375.684	48.37
375.899	60.97
376.114	3.42
376.329	30.35
376.544	61.35
376.759	72.59
376.974	15.44
377.189	23.96
377.404	-11.3
377.619	73.37
377.834	-21.76
378.049	-5.49
378.264	-3.75
378.478	23.77
378.693	4.2
378.908	62.71
379.123	26.87
379.338	68.13
379.553	50.12
379.767	27.25
379.982	30.16
380.197	24.15
380.412	14.47
380.626	42.75
380.841	83.44
381.056	26.09
381.271	87.51
381.485	5.55
381.7	6.33
381.915	18.34
382.129	-1.42
382.344	39.65
382.559	24.74
382.773	62.71
382.988	-7.04
383.202	23.38
383.417	-2
383.632	96.23
383.846	29.38
384.061	50.31
384.275	37.72
384.49	35.58
384.704	53.41
384.919	23.19
385.133	22.41
385.348	43.53
385.562	16.21
385.777	71.23
385.991	-5.3
386.206	32.48
386.42	16.99
386.634	63.29
386.849	34.81
387.063	42.17
387.277	2.45
387.492	12.53
387.706	3.23
387.92	0.13
388.135	65.03
388.349	47.4
388.563	31.9
388.778	43.33
388.992	57.67
389.206	37.13
389.42	118.12
389.635	39.65
389.849	49.53
390.063	92.74
390.277	30.16
390.491	97.58
390.706	46.43
390.92	75.5
391.134	43.33
391.348	58.06
391.562	6.52
391.776	26.29
391.99	12.72
392.205	53.99
392.419	36.94
392.633	34.81
392.847	78.79
393.061	8.85
393.275	82.08
393.489	41.78
393.703	55.15
393.917	58.64
394.131	29.77
394.345	64.45
394.559	48.76
394.773	39.27
394.986	51.67
395.2	18.92
395.414	55.93
395.628	24.74
395.842	41.01
396.056	25.12
396.27	-11.3
396.484	69.68
396.697	30.16
396.911	86.93
397.125	78.79
397.339	79.76
397.553	67.36
397.766	102.04
397.98	86.35
398.194	84.6
398.408	40.82
398.621	68.72
398.835	68.13
399.049	87.51
399.262	121.41
399.476	71.04
399.69	86.35
399.903	106.88
400.117	68.52
400.331	76.85
400.544	34.42
400.758	176.83
400.971	63.87
401.185	89.83
401.398	28.61
401.612	110.18
401.826	77.63
402.039	108.82
402.253	53.6
402.466	80.53
402.68	80.53
402.893	96.62
403.106	77.43
403.32	51.67
403.533	79.95
403.747	78.79
403.96	88.67
404.174	80.73
404.387	45.66
404.6	75.3
404.814	99.72
405.027	85.38
405.24	79.37
405.454	65.62
405.667	111.34
405.88	30.93
406.094	70.27
406.307	90.03
406.52	98.55
406.733	50.31
406.947	44.11
407.16	142.34
407.373	112.7
407.586	39.85
407.799	58.45
408.012	114.83
408.226	76.66
408.439	99.72
408.652	10.98
408.865	109.98
409.078	131.88
409.291	96.62
409.504	87.12
409.717	106.3
409.93	101.65
410.143	84.02
410.357	47.6
410.57	58.83
410.783	80.15
410.996	115.8
411.209	114.44
411.421	133.04
411.634	107.08
411.847	65.42
412.06	90.61
412.273	106.5
412.486	79.95
412.699	207.05
412.912	85.57
413.125	116.38
413.338	89.06
413.55	114.25
413.763	96.03
413.976	130.52
414.189	73.17
414.402	110.76
414.615	151.06
414.827	60
415.04	121.41
415.253	114.83
415.466	123.16
415.678	161.91
415.891	100.88
416.104	101.27
416.316	106.69
416.529	97.39
416.742	119.09
416.954	143.11
417.167	97.78
417.38	110.95
417.592	160.75
417.805	67.36
418.017	66
418.23	144.47
418.442	81.89
418.655	104.56
418.868	118.9
419.08	142.53
419.293	137.5
419.505	118.12
419.718	125.68
419.93	176.44
420.142	106.11
420.355	131.88
420.567	168.88
420.78	134.98
420.992	101.65
421.205	165.78
421.417	82.08
421.629	109.98
421.842	84.41
422.054	70.46
422.266	145.83
422.479	151.25
422.691	106.5
422.903	156.87
423.115	100.49
423.328	118.31
423.54	123.93
423.752	141.56
423.964	107.27
424.177	136.72
424.389	97
424.601	242.31
424.813	129.75
425.025	166.56
425.238	149.7
425.45	103.2
425.662	105.33
425.874	406.42
426.086	129.55
426.298	146.99
426.51	178.57
426.722	128.58
426.934	131.88
427.146	165.59
427.358	109.6
427.57	157.45
427.782	113.86
427.994	122.19
428.206	96.03
428.418	105.33
428.63	164.43
428.842	159.58
429.054	142.53
429.266	195.81
429.478	109.21
429.69	133.04
429.902	103.78
430.114	141.95
430.325	150.28
430.537	116.76
430.749	138.27
430.961	78.79
431.173	109.98
431.384	120.25
431.596	84.41
431.808	134.59
432.02	155.32
432.231	171.98
432.443	191.55
432.655	178.38
432.867	159
433.078	169.66
433.29	214.99
433.502	163.07
433.713	177.8
433.925	159.58
434.136	186.32
434.348	134.98
434.56	118.7
434.771	249.68
434.983	90.8
435.194	150.48
435.406	143.11
435.617	186.51
435.829	229.14
436.04	190.78
436.252	188.45
436.463	214.03
436.675	213.64
436.886	165.78
437.098	196.78
437.309	239.99
437.521	192.33
437.732	198.53
437.943	196.59
438.155	169.08
438.366	119.67
438.578	229.72
438.789	191.75
439	196.59
439.211	183.41
439.423	207.05
439.634	187.1
439.845	207.24
440.057	170.05
440.268	189.03
440.479	170.05
440.69	184.38
440.902	179.35
441.113	169.66
441.324	176.25
441.535	227.98
441.746	257.43
441.957	162.3
442.168	189.23
442.38	228.36
442.591	230.11
442.802	208.02
443.013	194.65
443.224	236.5
443.435	188.45
443.646	195.43
443.857	204.73
444.068	192.33
444.279	190
444.49	289.98
444.701	213.25
444.912	340.16
445.123	249.87
445.334	264.98
445.545	247.93
445.756	190.97
445.967	199.11
446.178	245.41
446.388	234.95
446.599	270.79
446.81	267.31
447.021	229.72
447.232	277.38
447.443	276.8
447.653	213.83
447.864	286.88
448.075	239.6
448.286	265.37
448.496	243.28
448.707	264.59
448.918	254.52
449.129	316.13
449.339	257.23
449.55	277.19
449.761	250.84
449.971	308.19
450.182	250.26
450.393	291.72
450.603	268.47
450.814	293.85
451.024	303.54
451.235	311.09
451.446	307.8
451.656	324.07
451.867	273.51
452.077	328.34
452.288	333.18
452.498	318.65
452.709	246.77
452.919	306.83
453.13	272.54
453.34	319.81
453.55	242.12
453.761	302.18
453.971	301.02
454.182	303.54
454.392	297.34
454.602	350.42
454.813	302.37
455.023	338.8
455.233	258.2
455.444	285.33
455.654	231.46
455.864	304.12
456.075	300.24
456.285	290.17
456.495	280.09
456.705	337.06
456.916	366.7
457.126	341.12
457.336	334.54
457.546	242.12
457.756	283.97
457.967	343.45
458.177	285.52
458.387	308.96
458.597	305.86
458.807	312.45
459.017	303.15
459.227	281.84
459.437	304.89
459.647	328.14
459.857	328.14
460.068	301.79
460.278	354.88
460.488	324.46
460.698	376.39
460.908	332.6
461.117	287.84
461.327	290.17
461.537	332.99
461.747	354.69
461.957	356.24
462.167	417.07
462.377	342.29
462.587	338.99
462.797	376.97
463.007	354.69
463.216	361.08
463.426	398.86
463.636	344.03
463.846	306.06
464.056	307.41
464.265	353.52
464.475	326.4
464.685	336.28
464.895	356.43
465.104	348.49
465.314	376
465.524	323.3
465.733	302.37
465.943	402.74
466.153	408.74
466.362	375.22
466.572	382.97
466.782	320.39
466.991	353.33
467.201	419.01
467.41	314
467.62	366.12
467.829	362.63
468.039	357.01
468.249	360.5
468.458	350.23
468.668	366.51
468.877	400.41
469.086	398.86
469.296	432.96
469.505	372.12
469.715	448.27
469.924	409.71
470.134	445.75
470.343	426.18
470.552	390.14
470.762	370.96
470.971	371.93
471.18	375.03
471.39	383.17
471.599	338.02
471.808	418.82
472.018	398.09
472.227	457.95
472.436	422.89
472.645	407.19
472.855	395.37
473.064	443.62
473.273	440.71
473.482	428.89
473.691	454.66
473.901	456.6
474.11	441.68
474.319	516.27
474.528	471.13
474.737	513.75
474.946	464.54
475.155	477.13
475.364	497.48
475.573	459.5
475.783	475.78
475.992	477.91
476.201	501.16
476.41	464.54
476.619	433.35
476.828	458.54
477.037	466.67
477.245	469
477.454	511.62
477.663	477.13
477.872	459.7
478.081	557.73
478.29	487.98
478.499	542.04
478.708	517.63
478.917	578.46
479.125	497.67
479.334	552.12
479.543	503.87
479.752	536.42
479.961	530.03
480.169	568.78
480.378	496.12
480.587	647.24
480.796	589.12
481.004	552.89
481.213	588.15
481.422	606.36
481.63	585.63
481.839	610.63
482.048	628.84
482.256	614.5
482.465	600.55
482.674	625.74
482.882	620.7
483.091	644.92
483.299	615.08
483.508	638.72
483.716	620.12
483.925	637.36
484.134	578.66
484.342	591.64
484.551	647.83
484.759	651.89
484.967	621.48
485.176	645.31
485.384	654.99
485.593	648.41
485.801	617.02
486.01	615.47
486.218	611.98
486.426	547.47
486.635	566.06
486.843	570.52
487.051	579.24
487.26	588.93
487.468	599
487.676	637.17
487.885	628.26
488.093	655.38
488.301	663.33
488.509	683.67
488.717	687.74
488.926	657.71
489.134	662.16
489.342	681.15
489.55	665.65
489.758	708.08
489.967	694.71
490.175	787.91
490.383	700.53
490.591	784.22
490.799	686.19
491.007	788.68
491.215	732.11
491.423	735.79
491.631	741.99
491.839	733.07
492.047	757.29
492.255	697.23
492.463	692.97
492.671	712.34
492.879	772.79
493.087	724.16
493.295	770.86
493.503	783.64
493.711	832.85
493.919	794.69
494.127	790.62
494.334	840.6
494.542	755.55
494.75	804.96
494.958	804.18
495.166	836.54
495.374	822.78
495.581	836.73
495.789	820.07
495.997	875.67
496.205	812.32
496.412	818.13
496.62	842.93
496.828	866.18
497.035	824.33
497.243	868.7
497.451	870.64
497.658	861.92
497.866	843.51
498.074	920.62
498.281	826.65
498.489	918.49
498.696	881.49
498.904	858.24
499.112	864.44
499.319	947.75
499.527	873.74
499.734	943.48
499.942	878.77
500.149	864.82
500.357	921.98
500.564	865.02
500.771	899.7
500.979	881.1
501.186	889.43
501.394	921.01
501.601	903.57
501.808	920.82
502.016	892.92
502.223	885.75
502.43	913.26
502.638	920.62
502.845	919.46
503.052	1011.49
503.26	947.75
503.467	1014.98
503.674	966.93
503.881	958.98
504.089	1019.43
504.296	964.41
504.503	931.08
504.71	957.05
504.917	935.54
505.125	999.48
505.332	1003.93
505.539	1043.65
505.746	1076.4
505.953	1060.12
506.16	1060.51
506.367	1114.37
506.574	1126.58
506.781	1101.58
506.988	1055.66
507.195	1106.04
507.402	1066.71
507.609	1134.71
507.816	1096.16
508.023	1078.14
508.23	1111.66
508.437	1053.15
508.644	1128.13
508.851	1187.8
509.058	1175.21
509.265	1142.27
509.472	1195.55
509.679	1280.02
509.885	1159.71
510.092	1203.88
510.299	1170.75
510.506	1197.68
510.713	1233.14
510.92	1209.31
511.126	1238.95
511.333	1273.63
511.54	1318.77
511.746	1302.69
511.953	1308.12
512.16	1311.6
512.367	1265.3
512.573	1289.32
512.78	1252.51
512.987	1294.17
513.193	1288.74
513.4	1251.35
513.606	1284.87
513.813	1306.76
514.02	1310.05
514.226	1383.87
514.433	1362.37
514.639	1289.32
514.846	1332.53
515.052	1319.35
515.259	1357.13
515.465	1374.57
515.672	1394.72
515.878	1460.6
516.085	1419.13
516.291	1449.75
516.497	1376.32
516.704	1373.8
516.91	1333.5
517.117	1284.29
517.323	1262.59
517.529	1284.67
517.736	1291.26
517.942	1351.13
518.148	1349.19
518.354	1375.35
518.561	1410.61
518.767	1383.87
518.973	1431.15
519.179	1423.01
519.386	1455.95
519.592	1435.21
519.798	1448
520.004	1583.04
520.21	1509.81
520.417	1571.23
520.623	1587.11
520.829	1629.35
521.035	1643.49
521.241	1641.75
521.447	1677.4
521.653	1741.14
521.859	1650.66
522.065	1705.3
522.271	1774.66
522.477	1721.77
522.683	1742.69
522.889	1768.07
523.095	1699.68
523.301	1741.53
523.507	1699.87
523.713	1750.25
523.919	1721.19
524.125	1809.73
524.331	1792.29
524.537	1914.16
524.742	1879.86
524.948	1885.1
525.154	1913.19
525.36	1987.2
525.566	1898.08
525.772	1950.58
525.977	1848.28
526.183	1912.22
526.389	1944
526.595	1860.3
526.8	1861.65
527.006	1815.15
527.212	1757.42
527.417	1761.87
527.623	1774.27
527.829	1842.08
528.034	1849.06
528.24	1899.24
528.446	1875.21
528.651	2003.48
528.857	2000.76
529.062	2070.32
529.268	2042.03
529.473	2038.74
529.679	2058.89
529.884	2143.17
530.09	2096.47
530.295	2086.79
530.501	2137.94
530.706	2100.74
530.912	2085.82
531.117	2119.53
531.323	2139.87
531.528	2186.37
531.733	2150.34
531.939	2151.11
532.144	2149.17
532.35	2134.06
532.555	2225.32
532.76	2130.57
532.966	2131.35
533.171	2121.27
533.376	2090.86
533.581	2082.14
533.787	2119.72
533.992	2143.55
534.197	2149.56
534.402	2178.82
534.607	2211.37
534.813	2260.19
535.018	2188.31
535.223	2213.69
535.428	2241.4
535.633	2309.6
535.838	2241.59
536.043	2297.58
536.249	2362.68
536.454	2298.94
536.659	2304.75
536.864	2266.39
537.069	2255.35
537.274	2266
537.479	2258.25
537.684	2282.08
537.889	2219.31
538.094	2352.41
538.299	2273.37
538.504	2334.98
538.708	2305.14
538.913	2334.78
539.118	2315.6
539.323	2311.92
539.528	2281.31
539.733	2333.43
539.938	2320.83
540.142	2329.16
540.347	2284.6
540.552	2266.39
540.757	2198.19
540.962	2264.84
541.166	2256.9
541.371	2275.11
541.576	2248.37
541.781	2209.04
541.985	2341.95
542.19	2303.2
542.395	2394.07
542.599	2372.56
542.804	2335.95
543.008	2407.24
543.213	2327.61
543.418	2317.35
543.622	2328.78
543.827	2327.81
544.031	2408.21
544.236	2439.6
544.44	2404.73
544.645	2470.02
544.849	2408.21
545.054	2449.48
545.258	2469.44
545.463	2491.14
545.667	2411.51
545.872	2457.23
546.076	2458.39
546.281	2456.07
546.485	2406.86
546.689	2436.69
546.894	2456.84
547.098	2439.21
547.302	2422.74
547.507	2457.43
547.711	2480.29
547.915	2476.8
548.119	2418.09
548.324	2408.02
548.528	2489.01
548.732	2441.15
548.936	2467.69
549.141	2473.12
549.345	2447.74
549.549	2458.01
549.753	2476.22
549.957	2550.42
550.161	2531.05
550.366	2485.91
550.57	2481.26
550.774	2466.34
550.978	2460.14
551.182	2539.57
551.386	2466.73
551.59	2463.04
551.794	2486.1
551.998	2485.52
552.202	2510.51
552.406	2468.08
552.61	2506.44
552.814	2509.93
553.018	2528.92
553.222	2463.82
553.426	2454.71
553.63	2553.14
553.833	2481.06
554.037	2429.91
554.241	2526.79
554.445	2500.82
554.649	2486.68
554.853	2443.48
555.056	2513.42
555.26	2509.35
555.464	2490.56
555.668	2509.54
555.871	2516.71
556.075	2543.64
556.279	2484.94
556.483	2438.63
556.686	2487.84
556.89	2454.91
557.094	2479.12
557.297	2399.11
557.501	2492.69
557.704	2358.23
557.908	2497.92
558.112	2393.29
558.315	2487.07
558.519	2405.5
558.722	2376.44
558.926	2350.09
559.129	2307.27
559.333	2302.04
559.536	2303.4
559.74	2289.45
559.943	2323.16
560.147	2319.86
560.35	2328
560.553	2305.14
560.757	2273.56
560.96	2367.72
561.164	2342.34
561.367	2455.29
561.57	2367.33
561.774	2338.85
561.977	2334.78
562.18	2284.6
562.384	2372.95
562.587	2301.46
562.79	2275.11
562.993	2294.1
563.197	2336.33
563.4	2344.86
563.603	2353
563.806	2393.1
564.009	2284.02
564.212	2302.43
564.416	2241.01
564.619	2294.48
564.822	2220.08
565.025	2307.27
565.228	2227.83
565.431	2279.37
565.634	2200.13
565.837	2179.59
566.04	2145.88
566.243	2191.22
566.446	2085.82
566.649	2201.1
566.852	2136.97
567.055	2167.97
567.258	2185.6
567.461	2228.22
567.664	2201.29
567.867	2123.02
568.07	2154.79
568.273	2170.1
568.475	2199.35
568.678	2095.7
568.881	2091.82
569.084	2072.26
569.287	2011.23
569.489	2029.63
569.692	2093.96
569.895	2075.74
570.098	2010.84
570.3	2015.88
570.503	1988.36
570.706	1974.99
570.909	1957.17
571.111	1912.03
571.314	1924.62
571.516	1932.37
571.719	1960.27
571.922	1900.4
572.124	1920.36
572.327	1977.9
572.529	1910.48
572.732	1885.68
572.935	1919.58
573.137	1993.79
573.34	1921.52
573.542	1990.88
573.745	1930.05
573.947	1939.54
574.15	1890.52
574.352	1908.93
574.554	1968.6
574.757	1885.68
574.959	1895.36
575.162	1872.89
575.364	1835.69
575.566	1942.83
575.769	1834.33
575.971	1854.87
576.173	1738.43
576.376	1832.2
576.578	1841.7
576.78	1857.39
576.982	1789.38
577.185	1814.38
577.387	1784.54
577.589	1806.05
577.791	1798.49
577.993	1807.98
578.196	1793.84
578.398	1801.59
578.6	1823.87
578.802	1757.03
579.004	1752.19
579.206	1736.1
579.408	1807.98
579.61	1739.79
579.812	1818.06
580.014	1749.28
580.216	1733
580.418	1795
580.62	1757.42
580.822	1730.68
581.024	1774.27
581.226	1798.68
581.428	1803.14
581.63	1856.23
581.832	1744.05
582.034	1821.55
582.236	1773.5
582.438	1835.3
582.64	1839.57
582.841	1844.02
583.043	1883.93
583.245	1810.31
583.447	1839.57
583.649	1814.77
583.85	1813.99
584.052	1840.53
584.254	1776.79
584.456	1850.42
584.657	1794.23
584.859	1811.67
585.061	1764.2
585.262	1744.44
585.464	1731.45
585.666	1821.74
585.867	1746.76
586.069	1780.67
586.27	1753.35
586.472	1748.89
586.674	1721.77
586.875	1696.58
587.077	1710.53
587.278	1748.7
587.48	1749.28
587.681	1815.93
587.883	1725.25
588.084	1666.74
588.285	1732.62
588.487	1648.14
588.688	1682.05
588.89	1599.51
589.091	1564.44
589.292	1536.74
589.494	1476.48
589.695	1501.28
589.896	1433.66
590.098	1452.46
590.299	1488.3
590.5	1516.59
590.702	1517.56
590.903	1529.18
591.104	1573.16
591.305	1578.01
591.507	1610.36
591.708	1593.89
591.909	1556.5
592.11	1650.66
592.311	1604.74
592.512	1565.41
592.714	1542.16
592.915	1563.09
593.116	1555.92
593.317	1607.84
593.518	1579.36
593.719	1573.94
593.92	1611.33
594.121	1624.7
594.322	1575.49
594.523	1585.56
594.724	1523.76
594.925	1530.15
595.126	1591.38
595.327	1565.61
595.528	1600.29
595.729	1557.28
595.929	1565.61
596.13	1588.86
596.331	1588.86
596.532	1584.79
596.733	1652.99
596.934	1621.6
597.135	1615.79
597.335	1606.29
597.536	1596.61
597.737	1592.34
597.938	1530.54
598.138	1583.43
598.339	1573.94
598.54	1599.13
598.74	1547.59
598.941	1595.44
599.142	1634.58
599.342	1599.51
599.543	1541.39
599.744	1616.56
599.944	1587.89
600.145	1588.66
600.345	1591.76
600.546	1663.26
600.746	1624.89
600.947	1672.17
601.147	1579.94
601.348	1634.58
601.548	1542.55
601.749	1590.79
601.949	1529.96
602.15	1531.51
602.35	1558.63
602.551	1615.01
602.751	1541.58
602.951	1580.14
603.152	1504
603.352	1608.62
603.552	1556.69
603.753	1577.43
603.953	1580.33
604.153	1590.41
604.354	1582.46
604.554	1574.71
604.754	1561.93
604.954	1524.14
605.155	1589.24
605.355	1578.78
605.555	1565.8
605.755	1593.31
605.955	1582.66
606.155	1575.49
606.356	1553.4
606.556	1557.47
606.756	1618.11
606.956	1491.21
607.156	1591.38
607.356	1504.38
607.556	1584.98
607.756	1586.34
607.956	1593.51
608.156	1568.32
608.356	1530.93
608.556	1565.8
608.756	1525.5
608.956	1497.02
609.156	1530.73
609.356	1490.05
609.556	1483.46
609.755	1533.06
609.955	1473
610.155	1490.05
610.355	1476.29
610.555	1463.89
610.755	1450.71
610.954	1438.7
611.154	1489.46
611.354	1522.59
611.554	1446.26
611.753	1474.55
611.953	1455.75
612.153	1500.31
612.352	1472.8
612.552	1425.92
612.752	1413.9
612.951	1462.15
613.151	1447.81
613.351	1435.02
613.55	1444.71
613.75	1452.46
613.949	1425.92
614.149	1442.96
614.348	1379.42
614.548	1371.28
614.747	1347.45
614.947	1359.46
615.146	1353.65
615.346	1427.85
615.545	1415.07
615.745	1416.42
615.944	1422.23
616.144	1389.68
616.343	1382.71
616.542	1376.51
616.742	1359.07
616.941	1358.49
617.14	1261.62
617.34	1372.25
617.539	1337.37
617.738	1331.95
617.938	1406.54
618.137	1341.05
618.336	1342.41
618.535	1362.95
618.734	1401.31
618.934	1378.25
619.133	1365.27
619.332	1353.65
619.531	1334.66
619.73	1346.67
619.929	1410.22
620.128	1391.04
620.328	1376.12
620.527	1346.28
620.726	1347.64
620.925	1353.84
621.124	1340.28
621.323	1335.44
621.522	1301.72
621.721	1313.54
621.92	1295.52
622.119	1341.63
622.318	1282.35
622.517	1317.22
622.715	1307.34
622.914	1268.01
623.113	1285.06
623.312	1219.19
623.511	1325.55
623.71	1287.19
623.909	1279.64
624.107	1296.49
624.306	1232.17
624.505	1245.15
624.704	1222.87
624.902	1224.03
625.101	1295.33
625.3	1277.31
625.499	1215.31
625.697	1232.36
625.896	1209.89
626.095	1255.03
626.293	1206.21
626.492	1191.09
626.69	1249.41
626.889	1217.06
627.088	1281.19
627.286	1196.52
627.485	1205.43
627.683	1165.32
627.882	1207.95
628.08	1142.46
628.279	1145.76
628.477	1205.04
628.676	1119.41
628.874	1167.07
629.073	1141.88
629.271	1149.24
629.469	1162.61
629.668	1150.21
629.866	1136.26
630.065	1137.04
630.263	1179.08
630.461	1135.1
630.66	1163.39
630.858	1196.32
631.056	1187.8
631.254	1207.76
631.453	1119.99
631.651	1172.3
631.849	1156.22
632.047	1176.37
632.245	1149.83
632.444	1196.71
632.642	1203.69
632.84	1213.76
633.038	1186.25
633.236	1154.67
633.434	1156.99
633.632	1121.34
633.83	1152.15
634.028	1176.17
634.227	1150.99
634.425	1227.52
634.623	1228.87
634.821	1203.49
635.019	1223.64
635.216	1192.45
635.414	1235.66
635.612	1177.34
635.81	1174.04
636.008	1246.12
636.206	1164.74
636.404	1212.6
636.602	1144.59
636.8	1166.1
636.997	1201.36
637.195	1186.06
637.393	1184.12
637.591	1226.94
637.789	1173.85
637.986	1190.51
638.184	1165.71
638.382	1209.89
638.58	1184.31
638.777	1204.07
638.975	1175.59
639.173	1180.44
639.37	1183.34
639.568	1164.36
639.765	1173.66
639.963	1129.68
640.161	1176.56
640.358	1173.27
640.556	1122.7
640.753	1102.16
640.951	1067.48
641.148	1146.34
641.346	1092.67
641.543	1109.72
641.741	1144.79
641.938	1084.92
642.136	1091.7
642.333	1058.38
642.531	1133.36
642.728	1133.36
642.925	1094.61
643.123	1075.62
643.32	1114.56
643.517	1066.71
643.715	1100.23
643.912	1034.16
644.109	1082.79
644.306	1073.88
644.504	1060.7
644.701	1062.83
644.898	1086.86
645.095	1063.61
645.293	1064
645.49	1089.57
645.687	1032.41
645.884	1058.57
646.081	958.21
646.278	973.32
646.475	975.45
646.672	976.03
646.87	1020.98
647.067	983.2
647.264	977.39
647.461	941.16
647.658	911.13
647.855	991.53
648.052	926.24
648.249	877.8
648.446	912.68
648.642	908.61
648.839	909.19
649.036	918.49
649.233	869.28
649.43	899.89
649.627	893.11
649.824	884.59
650.021	878.58
650.217	882.65
650.414	894.66
650.611	960.34
650.808	940.19
651.004	920.62
651.201	938.45
651.398	939.22
651.595	926.63
651.791	886.52
651.988	913.65
652.185	878.19
652.381	911.13
652.578	891.95
652.775	891.75
652.971	909.19
653.168	872.19
653.364	936.9
653.561	871.22
653.757	895.05
653.954	920.82
654.15	869.67
654.347	933.41
654.543	881.49
654.74	862.11
654.936	855.14
655.133	847.19
655.329	893.89
655.525	810.38
655.722	864.63
655.918	832.47
656.115	833.44
656.311	771.82
656.507	735.79
656.704	729.01
656.9	766.4
657.096	751.67
657.292	724.94
657.489	810.57
657.685	800.31
657.881	772.6
658.077	789.26
658.273	814.26
658.47	879.55
658.666	795.07
658.862	862.3
659.058	785.19
659.254	849.71
659.45	809.99
659.646	807.86
659.842	811.93
660.038	865.21
660.234	790.62
660.43	839.05
660.626	866.95
660.822	848.74
661.018	865.4
661.214	825.69
661.41	751.67
661.606	831.69
661.802	858.62
661.998	802.24
662.194	774.15
662.39	826.46
662.586	810.19
662.781	836.15
662.977	832.27
663.173	833.05
663.369	810.77
663.564	805.92
663.76	803.6
663.956	797.21
664.152	811.93
664.347	749.16
664.543	766.59
664.739	776.47
664.934	741.02
665.13	706.34
665.326	784.22
665.521	772.02
665.717	729.78
665.912	714.86
666.108	692
666.304	766.21
666.499	740.63
666.695	693.55
666.89	729.01
667.086	783.06
667.281	771.82
667.477	755.16
667.672	758.07
667.867	736.95
668.063	775.31
668.258	703.63
668.454	741.41
668.649	817.74
668.844	736.17
669.04	777.44
669.235	713.7
669.43	692.58
669.626	664.49
669.821	687.74
670.016	674.37
670.211	709.05
670.407	703.43
670.602	702.08
670.797	702.27
670.992	727.65
671.187	684.64
671.382	730.94
671.578	647.05
671.773	685.99
671.968	648.41
672.163	685.41
672.358	709.05
672.553	677.47
672.748	685.99
672.943	736.37
673.138	670.69
673.333	694.33
673.528	625.55
673.723	685.61
673.918	670.11
674.113	650.15
674.308	742.76
674.503	691.23
674.698	709.24
674.892	674.37
675.087	716.61
675.282	684.06
675.477	654.41
675.672	692
675.867	671.08
676.061	660.03
676.256	591.64
676.451	644.73
676.646	696.07
676.84	597.06
677.035	614.7
677.23	628.26
677.424	674.76
677.619	670.88
677.814	678.83
678.008	705.76
678.203	608.88
678.397	649.18
678.592	635.62
678.787	714.28
678.981	649.18
679.176	638.72
679.37	646.86
679.565	642.4
679.759	615.47
679.954	657.32
680.148	694.91
680.342	700.33
680.537	677.66
680.731	638.14
680.926	689.68
681.12	658.68
681.314	624
681.509	658.29
681.703	652.67
681.897	668.36
682.092	668.94
682.286	636.98
682.48	713.7
682.674	694.13
682.869	671.85
683.063	671.85
683.257	733.85
683.451	640.85
683.645	674.95
683.839	682.89
684.034	647.05
684.228	708.28
684.422	643.37
684.616	655.96
684.81	695.29
685.004	706.14
685.198	684.06
685.392	709.83
685.586	670.11
685.78	698.2
685.974	713.12
686.168	721.26
686.362	734.82
686.556	664.68
686.75	637.75
686.944	630.39
687.138	623.03
687.331	534.29
687.525	555.8
687.719	505.23
687.913	555.99
688.107	576.33
688.301	581.56
688.494	602.1
688.688	593.58
688.882	603.65
689.076	579.82
689.269	622.64
689.463	673.59
689.657	646.08
689.85	643.95
690.044	683.67
690.238	663.52
690.431	691.61
690.625	667.39
690.818	710.6
691.012	744.51
691.205	770.86
691.399	749.16
691.593	785.77
691.786	822.39
691.98	829.56
692.173	897.37
692.366	838.86
692.56	878
692.753	923.72
692.947	863.47
693.14	959.76
693.333	925.47
693.527	862.89
693.72	906.48
693.914	915.58
694.107	936.9
694.3	957.82
694.493	918.3
694.687	1035.71
694.88	990.76
695.073	1026.99
695.266	1028.93
695.46	1038.03
695.653	1082.4
695.846	1098.68
696.039	1043.46
696.232	1067.68
696.425	1139.94
696.618	1133.16
696.812	1180.24
697.005	1185.28
697.198	1284.67
697.391	1258.9
697.584	1316.06
697.777	1347.06
697.97	1305.6
698.163	1339.31
698.356	1347.64
698.549	1395.5
698.742	1393.37
698.935	1341.05
699.127	1371.67
699.32	1340.86
699.513	1359.07
699.706	1415.84
699.899	1406.15
700.092	1394.14
700.285	1417.39
700.477	1361.2
700.67	1446.26
700.863	1445.1
701.056	1546.23
701.248	1505.74
701.441	1537.13
701.634	1479.39
701.826	1562.51
702.019	1503.03
702.212	1552.43
702.404	1520.46
702.597	1509.42
702.79	1556.11
702.982	1577.62
703.175	1646.01
703.367	1652.79
703.56	1655.51
703.752	1726.03
703.945	1683.21
704.137	1743.85
704.33	1755.09
704.522	1783.57
704.715	1768.46
704.907	1819.42
705.1	1834.92
705.292	1853.9
705.484	1850.03
705.677	1873.66
705.869	1874.83
706.061	1882.19
706.254	1964.14
706.446	1879.86
706.638	1877.54
706.831	1970.93
707.023	1958.91
707.215	2043.39
707.407	1986.04
707.599	2011.61
707.792	2061.79
707.984	2013.55
708.176	2086.4
708.368	2028.08
708.56	2090.08
708.752	2077.29
708.944	2091.82
709.136	2116.82
709.329	2092.99
709.521	2258.45
709.713	2210.59
709.905	2195.87
710.097	2219.12
710.289	2169.52
710.481	2225.51
710.672	2238.88
710.864	2247.79
711.056	2296.03
711.248	2266.39
711.44	2232.68
711.632	2249.73
711.824	2303.59
712.016	2377.41
712.207	2354.74
712.399	2333.43
712.591	2423.71
712.783	2388.64
712.975	2397.56
713.166	2408.02
713.358	2381.86
713.55	2391.74
713.741	2472.15
713.933	2484.55
714.125	2426.62
714.316	2433.59
714.508	2479.9
714.7	2485.91
714.891	2440.38
715.083	2527.17
715.274	2479.51
715.466	2476.02
715.657	2519.42
715.849	2417.71
716.04	2461.69
716.232	2443.67
716.423	2422.55
716.615	2328.39
716.806	2320.45
716.998	2232.1
717.189	2157.31
717.381	2091.05
717.572	2065.47
717.763	2039.32
717.955	2025.18
718.146	1969.57
718.337	1933.92
718.528	1901.56
718.72	1819.61
718.911	1863.78
719.102	1824.45
719.293	1869.98
719.485	1827.55
719.676	1835.88
719.867	1784.73
720.058	1786.87
720.249	1784.35
720.44	1850.03
720.632	1891.49
720.823	1928.88
721.014	2064.51
721.205	2086.4
721.396	2193.35
721.587	2264.84
721.778	2306.69
721.969	2351.83
722.16	2390
722.351	2449.09
722.542	2551.59
722.733	2541.12
722.924	2444.25
723.115	2520.97
723.305	2443.48
723.496	2468.28
723.687	2346.41
723.878	2356.87
724.069	2350.48
724.26	2383.03
724.45	2251.28
724.641	2287.12
724.832	2315.6
725.023	2257.87
725.213	2255.35
725.404	2266
725.595	2263.48
725.785	2219.89
725.976	2296.42
726.167	2261.35
726.357	2327.23
726.548	2406.86
726.739	2332.85
726.929	2399.3
727.12	2414.61
727.31	2437.66
727.501	2350.48
727.691	2363.65
727.882	2368.11
728.072	2455.68
728.263	2429.91
728.453	2487.07
728.644	2472.34
728.834	2501.41
729.024	2436.89
729.215	2447.35
729.405	2451.61
729.596	2566.31
729.786	2502.57
729.976	2563.4
730.167	2580.45
730.357	2538.99
730.547	2542.67
730.737	2598.86
730.928	2560.69
731.118	2643.42
731.308	2565.54
731.498	2610.68
731.688	2705.81
731.879	2707.17
732.069	2764.13
732.259	2811.4
732.449	2839.49
732.639	2902.66
732.829	2968.53
733.019	2972.99
733.209	3021.42
733.399	3033.05
733.589	3135.73
733.779	3117.72
733.969	3145.42
734.159	3191.53
734.349	3224.47
734.539	3258.76
734.729	3307.78
734.919	3272.52
735.109	3347.89
735.299	3244.43
735.488	3326.96
735.678	3340.53
735.868	3275.43
736.058	3335.29
736.248	3306.43
736.437	3214.78
736.627	3253.53
736.817	3351.96
737.007	3300.42
737.196	3348.08
737.386	3394.58
737.576	3334.13
737.765	3406.4
737.955	3364.36
738.144	3507.54
738.334	3432.75
738.524	3393.42
738.713	3461.23
738.903	3409.5
739.092	3445.54
739.282	3443.21
739.471	3452.32
739.661	3469.75
739.85	3538.92
740.04	3481.96
740.229	3546.87
740.419	3560.23
740.608	3577.09
740.797	3581.55
740.987	3595.69
741.176	3629.98
741.365	3597.05
741.555	3497.07
741.744	3651.3
741.933	3582.13
742.123	3685.4
742.312	3623.2
742.501	3658.66
742.69	3684.23
742.88	3618.94
743.069	3716.01
743.258	3675.13
743.447	3741
743.636	3735.96
743.825	3685.59
744.014	3737.71
744.204	3735.96
744.393	3656.33
744.582	3792.34
744.771	3773.94
744.96	3728.21
745.149	3794.47
745.338	3732.86
745.527	3758.24
745.716	3761.93
745.905	3747.39
746.094	3802.22
746.283	3824.51
746.471	3768.51
746.66	3829.35
746.849	3772.19
747.038	3822.96
747.227	3766.77
747.416	3792.54
747.604	3755.14
747.793	3759.99
747.982	3789.63
748.171	3773.55
748.359	3818.69
748.548	3797.57
748.737	3798.16
748.926	3815.59
749.114	3695.66
749.303	3777.81
749.491	3738.87
749.68	3733.64
749.869	3821.02
750.057	3756.89
750.246	3691.79
750.434	3762.31
750.623	3714.65
750.811	3708.64
751	3755.14
751.188	3703.03
751.377	3711.16
751.565	3717.75
751.754	3677.26
751.942	3653.81
752.131	3731.31
752.319	3704.58
752.507	3660.01
752.696	3705.74
752.884	3713.49
753.072	3679.58
753.261	3683.85
753.449	3658.85
753.637	3628.43
753.825	3742.36
754.014	3656.14
754.202	3693.34
754.39	3702.06
754.578	3693.73
754.766	3621.85
754.955	3625.14
755.143	3753.4
755.331	3640.83
755.519	3636.38
755.707	3655.75
755.895	3627.08
756.083	3652.46
756.271	3555.58
756.459	3595.3
756.647	3634.25
756.835	3600.92
757.023	3571.86
757.211	3524.39
757.399	3535.24
757.587	3542.8
757.775	3519.16
757.963	3554.81
758.151	3575.73
758.339	3447.67
758.526	3471.5
758.714	3472.27
758.902	3408.53
759.09	3308.56
759.278	3071.22
759.465	2809.66
759.653	2459.36
759.841	2223.38
760.028	1890.71
760.216	1648.14
760.404	1529.96
760.591	1256.58
760.779	1057.41
760.967	924.88
761.154	776.28
761.342	809.61
761.529	812.32
761.717	826.07
761.905	796.82
762.092	881.68
762.28	830.72
762.467	822.78
762.655	774.15
762.842	784.22
763.029	785.39
763.217	785.58
763.404	776.86
763.592	816.19
763.779	758.84
763.966	826.85
764.154	879.74
764.341	925.85
764.528	937.87
764.716	1009.16
764.903	1048.3
765.09	1105.26
765.277	1197.1
765.465	1351.32
765.652	1370.31
765.839	1482.3
766.026	1602.22
766.213	1647.56
766.4	1776.98
766.588	1925.78
766.775	1979.84
766.962	2074.58
767.149	2157.7
767.336	2320.83
767.523	2316.76
767.71	2451.42
767.897	2591.11
768.084	2631.8
768.271	2711.62
768.458	2769.75
768.645	2821.48
768.832	2864.29
769.019	2862.36
769.206	2873.21
769.392	2929.39
769.579	3038.28
769.766	3024.72
769.953	3043.7
770.14	3062.11
770.327	3095.43
770.513	3117.13
770.7	3174.68
770.887	3114.81
771.073	3163.05
771.26	3105.51
771.447	3112.68
771.634	3111.9
771.82	3193.66
772.007	3117.52
772.193	3163.05
772.38	3144.26
772.567	3163.05
772.753	3152.4
772.94	3218.46
773.126	3242.88
773.313	3180.3
773.499	3161.12
773.686	3215.36
773.872	3150.65
774.059	3199.09
774.245	3084.2
774.432	3150.85
774.618	3060.56
774.804	3099.7
774.991	3072.77
775.177	3135.73
775.363	3106.67
775.55	3121.01
775.736	3077.8
775.922	3120.62
776.109	3122.56
776.295	3086.33
776.481	3146.97
776.667	3131.86
776.853	3062.89
777.04	3065.99
777.226	3085.17
777.412	3086.33
777.598	3034.02
777.784	3065.4
777.97	3032.27
778.156	3081.29
778.342	3045.06
778.528	3007.09
778.715	2947.8
778.901	2981.71
779.087	3052.42
779.272	2997.59
779.458	2921.64
779.644	3019.87
779.83	2942.37
780.016	3059.2
780.202	2974.34
780.388	2978.22
780.574	2888.71
780.76	2969.69
780.946	3017.16
781.131	2953.81
781.317	2978.8
781.503	2920.67
781.689	2940.44
781.874	3058.82
782.06	2921.84
782.246	2896.07
782.432	2878.05
782.617	2899.17
782.803	2935.4
782.989	2876.11
783.174	2886.38
783.36	2864.49
783.545	2850.34
783.731	2850.34
783.916	2786.21
784.102	2862.36
784.288	2803.26
784.473	2837.36
784.659	2815.86
784.844	2890.26
785.029	2787.76
785.215	2813.53
785.4	2776.91
785.586	2853.44
785.771	2724.99
785.956	2809.85
786.142	2769.75
786.327	2747.46
786.512	2767.23
786.698	2742.81
786.883	2641.29
787.068	2739.52
787.254	2701.93
787.439	2713.95
787.624	2689.73
787.809	2653.11
787.994	2680.62
788.18	2709.68
788.365	2640.52
788.55	2663.57
788.735	2628.7
788.92	2652.92
789.105	2617.07
789.29	2632.96
789.475	2551.39
789.66	2568.83
789.845	2571.93
790.03	2532.21
790.215	2568.25
790.4	2586.07
790.585	2607.77
790.77	2529.69
790.955	2506.25
791.14	2519.62
791.325	2575.42
791.51	2460.33
791.695	2525.82
791.879	2533.76
792.064	2487.65
792.249	2561.47
792.434	2511.87
792.618	2496.56
792.803	2535.7
792.988	2508.96
793.173	2536.09
793.357	2525.24
793.542	2488.42
793.727	2550.23
793.911	2577.35
794.096	2560.31
794.281	2572.7
794.465	2615.33
794.65	2547.32
794.834	2592.85
795.019	2627.15
795.203	2605.64
795.388	2608.55
795.572	2611.07
795.757	2574.45
795.941	2571.93
796.126	2562.24
796.31	2489.2
796.494	2490.56
796.679	2515.16
796.863	2501.79
797.048	2633.54
797.232	2537.25
797.416	2539.96
797.601	2550.42
797.785	2666.09
797.969	2583.17
798.153	2528.92
798.338	2631.8
798.522	2596.15
798.706	2575.03
798.89	2663.18
799.074	2680.04
799.258	2634.7
799.443	2631.22
799.627	2637.8
799.811	2673.07
799.995	2567.28
800.179	2576.77
800.363	2582.97
800.547	2634.51
800.731	2630.05
800.915	2538.22
801.099	2536.47
801.283	2560.89
801.467	2571.15
801.651	2530.47
801.835	2606.42
802.019	2562.63
802.202	2540.16
802.386	2504.12
802.57	2504.51
802.754	2514.39
802.938	2508.96
803.121	2540.93
803.305	2561.27
803.489	2525.82
803.673	2515.55
803.856	2575.61
804.04	2558.56
804.224	2591.3
804.407	2533.57
804.591	2556.82
804.775	2539.38
804.958	2573.87
805.142	2629.86
805.326	2569.99
805.509	2563.6
805.693	2643.62
805.876	2593.63
806.06	2600.02
806.243	2618.24
806.427	2600.02
806.61	2643.81
806.794	2575.03
806.977	2612.62
807.16	2604.29
807.344	2606.22
807.527	2612.62
807.71	2572.32
807.894	2585.3
808.077	2635.87
808.26	2543.26
808.444	2583.55
808.627	2618.43
808.81	2531.44
808.993	2486.87
809.177	2452.58
809.36	2493.07
809.543	2514.19
809.726	2399.11
809.909	2441.15
810.092	2420.23
810.276	2420.42
810.459	2384
810.642	2411.7
810.825	2332.46
811.008	2400.27
811.191	2275.69
811.374	2316.96
811.557	2320.64
811.74	2372.37
811.923	2276.08
812.106	2265.62
812.289	2211.37
812.472	2238.68
812.654	2191.6
812.837	2186.76
813.02	2102.29
813.203	2126.12
813.386	2005.22
813.569	1954.26
813.751	1959.49
813.934	1957.17
814.117	1962.01
814.3	1845.96
814.482	1850.8
814.665	1803.72
814.848	1774.66
815.03	1697.55
815.213	1696.39
815.396	1698.71
815.578	1662.87
815.761	1633.03
815.943	1735.72
816.126	1615.4
816.309	1577.23
816.491	1531.89
816.674	1455.36
816.856	1552.82
817.039	1525.89
817.221	1613.46
817.403	1538.48
817.586	1565.03
817.768	1597.19
817.951	1475.13
818.133	1518.91
818.315	1499.54
818.498	1554.37
818.68	1586.53
818.862	1601.45
819.045	1590.02
819.227	1604.55
819.409	1581.69
819.591	1562.51
819.774	1579.56
819.956	1536.54
820.138	1632.64
820.32	1648.72
820.502	1702.97
820.684	1728.55
820.866	1766.14
821.048	1800.43
821.231	1813.8
821.413	1815.73
821.595	1773.11
821.777	1815.35
821.959	1805.85
822.141	1811.08
822.323	1697.55
822.505	1653.18
822.686	1583.43
822.868	1497.99
823.05	1418.94
823.232	1378.06
823.414	1336.79
823.596	1448.78
823.778	1410.61
823.96	1420.68
824.141	1425.92
824.323	1454.01
824.505	1514.46
824.687	1558.24
824.868	1616.95
825.05	1727.58
825.232	1750.64
825.413	1807.6
825.595	1749.28
825.777	1737.07
825.958	1744.24
826.14	1747.54
826.321	1787.45
826.503	1771.17
826.685	1750.44
826.866	1828.91
827.048	1786.09
827.229	1726.61
827.411	1658.41
827.592	1642.91
827.773	1640.59
827.955	1583.43
828.136	1571.61
828.318	1558.05
828.499	1594.48
828.68	1537.71
828.862	1533.06
829.043	1611.14
829.224	1530.34
829.406	1504.96
829.587	1547.59
829.768	1566.58
829.949	1597.77
830.131	1544.29
830.312	1614.24
830.493	1570.26
830.674	1584.59
830.855	1577.43
831.036	1559.02
831.218	1617.14
831.399	1597.58
831.58	1586.14
831.761	1554.18
831.942	1579.94
832.123	1564.64
832.304	1510.39
832.485	1512.91
832.666	1582.66
832.847	1584.98
833.028	1567.35
833.209	1550.3
833.389	1539.26
833.57	1523.56
833.751	1521.43
833.932	1620.63
834.113	1590.41
834.294	1568.9
834.475	1570.84
834.655	1610.36
834.836	1619.66
835.017	1628.57
835.198	1534.41
835.378	1642.14
835.559	1630.51
835.74	1621.41
835.92	1595.06
836.101	1601.64
836.281	1649.5
836.462	1579.36
836.643	1669.46
836.823	1695.03
837.004	1661.32
837.184	1724.09
837.365	1673.14
837.545	1676.62
837.726	1624.51
837.906	1698.71
838.087	1664.03
838.267	1659.38
838.448	1614.43
838.628	1681.86
838.808	1677.79
838.989	1677.4
839.169	1626.64
839.349	1643.3
839.53	1675.46
839.71	1703.55
839.89	1650.47
840.07	1742.3
840.251	1607.84
840.431	1695.03
840.611	1655.7
840.791	1631.48
840.971	1653.57
841.151	1643.3
841.332	1647.76
841.512	1727.19
841.692	1596.03
841.872	1643.69
842.052	1625.67
842.232	1682.44
842.412	1607.07
842.592	1639.81
842.772	1654.34
842.952	1673.72
843.132	1623.73
843.312	1602.22
843.492	1596.41
843.672	1650.47
843.851	1569.48
844.031	1583.82
844.211	1607.65
844.391	1600.68
844.571	1619.08
844.751	1611.14
844.93	1627.8
845.11	1584.4
845.29	1626.25
845.47	1609.97
845.649	1603.77
845.829	1644.66
846.009	1621.21
846.188	1598.74
846.368	1626.44
846.547	1597.77
846.727	1634.58
846.907	1532.09
847.086	1578.39
847.266	1602.81
847.445	1607.84
847.625	1557.66
847.804	1567.93
847.984	1586.14
848.163	1525.31
848.343	1535.77
848.522	1562.31
848.701	1591.38
848.881	1534.03
849.06	1559.02
849.239	1522.79
849.419	1585.18
849.598	1502.64
849.777	1495.86
849.957	1468.15
850.136	1420.88
850.315	1432.89
850.494	1428.82
850.674	1432.31
850.853	1487.33
851.032	1448.39
851.211	1501.48
851.39	1473.38
851.569	1438.51
851.748	1433.28
851.927	1461.56
852.107	1479.97
852.286	1422.43
852.465	1392.01
852.644	1481.13
852.823	1469.12
853.002	1459.05
853.181	1422.43
853.359	1469.31
853.538	1415.65
853.717	1437.73
853.896	1336.02
854.075	1282.54
854.254	1249.02
854.433	1183.92
854.611	1262.2
854.79	1211.82
854.969	1271.5
855.148	1308.7
855.327	1241.47
855.505	1294.36
855.684	1299.2
855.863	1296.69
856.041	1263.55
856.22	1331.75
856.399	1326.14
856.577	1393.75
856.756	1404.02
856.934	1484.81
857.113	1465.25
857.291	1391.23
857.47	1361.98
857.648	1399.37
857.827	1406.54
858.005	1405.18
858.184	1366.63
858.362	1429.6
858.541	1360.62
858.719	1376.7
858.898	1400.34
859.076	1372.44
859.254	1408.28
859.433	1404.6
859.611	1316.84
859.789	1333.5
859.967	1399.76
860.146	1419.33
860.324	1339.89
860.502	1374.38
860.68	1316.45
860.859	1319.55
861.037	1333.5
861.215	1346.87
861.393	1362.75
861.571	1334.85
861.749	1320.71
861.927	1355.97
862.105	1326.52
862.283	1324.97
862.461	1277.89
862.639	1267.43
862.817	1283.51
862.995	1328.07
863.173	1296.3
863.351	1315.87
863.529	1316.06
863.707	1357.33
863.885	1303.66
864.063	1260.65
864.241	1278.86
864.418	1334.66
864.596	1294.75
864.774	1275.37
864.952	1287
865.129	1287.77
865.307	1219.57
865.485	1209.5
865.663	1279.25
865.84	1230.42
866.018	1225.77
866.196	1119.02
866.373	1133.55
866.551	1054.5
866.728	1039.58
866.906	1112.24
867.084	1084.34
867.261	1163.39
867.439	1136.07
867.616	1154.86
867.794	1146.34
867.971	1169.01
868.149	1116.5
868.326	1201.56
868.503	1188.38
868.681	1174.43
868.858	1182.18
869.035	1139.17
869.213	1176.76
869.39	1151.57
869.567	1247.67
869.745	1158.16
869.922	1177.14
870.099	1185.86
870.276	1226.36
870.454	1201.56
870.631	1205.82
870.808	1191.09
870.985	1191.48
871.162	1207.17
871.339	1197.87
871.517	1112.43
871.694	1144.21
871.871	1154.28
872.048	1168.62
872.225	1126.58
872.402	1154.67
872.579	1105.26
872.756	1202.33
872.933	1105.84
873.11	1132.19
873.287	1135.29
873.463	1128.32
873.64	1112.43
873.817	1143.04
873.994	1103.71
874.171	1090.34
874.348	1146.92
874.524	1046.36
874.701	1125.99
874.878	1053.92
875.055	1128.51
875.231	1096.35
875.408	1112.04
875.585	1035.13
875.762	1085.5
875.938	1069.81
876.115	1085.89
876.291	1055.47
876.468	1054.89
876.645	1039.78
876.821	1033.38
876.998	1052.56
877.174	1063.61
877.351	1065.55
877.527	1024.86
877.704	1076.78
877.88	1078.53
878.057	1055.86
878.233	1060.12
878.409	1059.73
878.586	1062.83
878.762	1044.62
878.938	1045.4
879.115	939.42
879.291	1007.81
879.467	984.56
879.644	1010.13
879.82	1011.68
879.996	1022.15
880.172	993.66
880.349	1006.45
880.525	1037.26
880.701	966.35
880.877	986.11
881.053	1015.36
881.229	967.51
881.405	1043.26
881.581	981.07
881.757	1004.51
881.933	1028.35
882.109	1008.58
882.285	985.53
882.461	956.66
882.637	972.55
882.813	976.42
882.989	958.79
883.165	1023.7
883.341	948.13
883.517	1018.85
883.693	1007.81
883.869	1011.68
884.044	946.39
884.22	1013.81
884.396	1024.08
884.572	1000.25
884.747	1031.64
884.923	1035.9
885.099	1001.22
885.275	1030.86
885.45	979.72
885.626	979.72
885.801	947.55
885.977	960.53
886.153	925.27
886.328	987.27
886.504	905.12
886.679	976.62
886.855	926.24
887.03	979.91
887.206	996.96
887.381	986.11
887.557	1003.93
887.732	987.66
887.908	1006.26
888.083	994.44
888.258	970.61
888.434	960.92
888.609	972.16
888.784	1008.78
888.96	987.85
889.135	972.16
889.31	969.06
889.485	978.94
889.661	962.86
889.836	994.83
890.011	973.9
890.186	949.49
890.361	957.43
890.537	998.31
890.712	981.27
890.887	983.4
891.062	977.78
891.237	999.09
891.412	934.57
891.587	958.98
891.762	1005.1
891.937	1008.39
892.112	961.31
892.287	947.75
892.462	935.54
892.637	898.73
892.812	873.54
892.987	877.22
893.161	863.85
893.336	896.6
893.511	926.43
893.686	874.7
893.861	869.86
894.035	883.62
894.21	910.74
894.385	821.04
894.56	859.4
894.734	787.71
894.909	793.14
895.084	812.12
895.258	788.1
895.433	837.89
895.608	757.29
895.782	727.84
895.957	775.7
896.131	756.71
896.306	679.21
896.48	694.13
896.655	716.99
896.829	633.3
897.004	616.44
897.178	642.21
897.353	628.84
897.527	679.6
897.701	610.63
897.876	620.9
898.05	694.71
898.224	650.93
898.399	679.41
898.573	615.86
898.747	520.34
898.921	602.49
899.096	495.54
899.27	487.6
899.444	515.5
899.618	548.82
899.792	552.31
899.967	550.37
900.141	586.02
900.315	524.41
900.489	558.12
900.663	547.27
900.837	544.17
901.011	507.94
901.185	589.12
901.359	544.37
901.533	582.92
901.707	569.75
901.881	580.01
902.055	537
902.229	513.75
902.403	584.08
902.576	547.85
902.75	580.6
902.924	639.11
903.098	605.78
903.272	663.13
903.446	695.29
903.619	661.78
903.793	715.64
903.967	683.86
904.14	738.5
904.314	728.04
904.488	697.43
904.661	757.87
904.835	713.51
905.009	716.03
905.182	763.49
905.356	729.01
905.529	693.94
905.703	661.78
905.876	680.18
906.05	664.68
906.223	627.87
906.397	562.96
906.57	592.22
906.744	554.44
906.917	543.01
907.09	549.79
907.264	543.59
907.437	510.07
907.61	495.35
907.784	506.2
907.957	561.41
908.13	501.74
908.304	498.25
908.477	492.05
908.65	512.01
908.823	467.64
908.996	543.01
909.17	479.27
909.343	461.44
909.516	463.96
909.689	481.59
909.862	456.21
910.035	476.75
910.208	446.14
910.381	464.15
910.554	546.88
910.727	483.72
910.9	444.97
911.073	471.13
911.246	517.63
911.419	543.01
911.592	523.25
911.765	466.28
911.938	423.66
912.11	488.76
912.283	512.59
912.456	532.16
912.629	486.24
912.802	473.65
912.974	428.31
913.147	385.49
913.32	344.03
913.493	385.49
913.665	408.55
913.838	410.29
914.01	416.69
914.183	432.19
914.356	436.64
914.528	458.73
914.701	496.9
914.873	460.47
915.046	391.11
915.218	356.04
915.391	307.8
915.563	345.77
915.736	383.55
915.908	409.52
916.081	421.34
916.253	430.44
916.425	408.94
916.598	448.85
916.77	432.77
916.942	389.37
917.115	319.04
917.287	383.36
917.459	388.79
917.632	354.49
917.804	326.01
917.976	388.59
918.148	406.42
918.32	370.57
918.493	427.34
918.665	452.34
918.837	424.82
919.009	496.12
919.181	481.59
919.353	448.65
919.525	459.12
919.697	415.14
919.869	414.94
920.041	497.87
920.213	544.95
920.385	495.15
920.557	440.9
920.729	451.95
920.901	484.69
921.073	450.01
921.244	429.09
921.416	473.65
921.588	446.33
921.76	429.86
921.932	506
922.103	451.75
922.275	435.87
922.447	478.68
922.619	412.23
922.79	446.52
922.962	405.45
923.134	436.84
923.305	391.89
923.477	387.24
923.648	363.02
923.82	390.14
923.991	367.28
924.163	329.31
924.335	386.65
924.506	371.93
924.677	432.77
924.849	356.24
925.02	396.34
925.192	395.37
925.363	367.47
925.535	382.39
925.706	384.91
925.877	409.9
926.049	362.44
926.22	397.7
926.391	394.4
926.562	417.85
926.734	366.12
926.905	384.14
927.076	327.76
927.247	333.57
927.419	306.25
927.59	322.91
927.761	325.62
927.932	289.39
928.103	293.66
928.274	254.52
928.445	272.73
928.616	264.79
928.787	261.49
928.958	281.45
929.129	269.24
929.3	243.28
929.471	221.97
929.642	166.75
929.813	138.46
929.984	218.09
930.155	125.87
930.326	181.67
930.496	170.63
930.667	140.79
930.838	135.75
931.009	144.08
931.18	129.75
931.35	150.48
931.521	128
931.692	102.04
931.863	62.52
932.033	135.75
932.204	111.15
932.374	102.82
932.545	73.95
932.716	114.83
932.886	101.65
933.057	46.43
933.227	37.33
933.398	126.45
933.568	47.4
933.739	42.56
933.909	47.02
934.08	69.88
934.25	10.59
934.421	11.75
934.591	52.83
934.761	25.7
934.932	-5.3
935.102	39.46
935.272	46.63
935.443	47.4
935.613	25.51
935.783	61.16
935.953	13.3
936.123	165.4
936.294	19.89
936.464	25.32
936.634	42.56
936.804	1.87
936.974	-12.85
937.144	66.2
937.314	43.92
937.484	-12.27
937.655	-7.43
937.825	61.16
937.995	-14.21
938.165	89.45
938.334	46.82
938.504	72.01
938.674	29.38
938.844	61.74
939.014	94.48
939.184	92.16
939.354	123.16
939.524	115.6
939.694	58.45
939.863	63.1
940.033	135.75
940.203	120.45
940.373	89.83
940.542	97.39
940.712	52.05
940.882	116.18
941.051	137.3
941.221	99.33
941.391	121.22
941.56	57.09
941.73	65.03
941.899	173.53
942.069	66.58
942.238	112.89
942.408	65.03
942.577	109.4
942.747	66.2
942.916	45.27
943.086	48.95
943.255	99.72
943.425	87.9
943.594	54.96
943.763	16.6
943.933	46.05
944.102	-10.53
944.271	44.11
944.441	80.34
944.61	55.35
944.779	84.8
944.948	150.67
945.117	15.44
945.287	38.68
945.456	-6.85
945.625	24.35
945.794	57.48
945.963	54.77
946.132	46.82
946.301	40.04
946.47	73.75
946.639	8.46
946.808	41.4
946.977	88.87
947.146	111.15
947.315	43.53
947.484	68.33
947.653	66.58
947.822	26.29
947.991	16.21
948.16	114.44
948.329	78.6
948.498	35.58
948.666	69.49
948.835	99.13
949.004	33.65
949.173	27.64
949.341	71.62
949.51	64.45
949.679	94.48
949.847	88.67
950.016	134.4
950.185	116.18
950.353	63.87
950.522	80.73
950.69	113.47
950.859	45.27
951.028	85.77
951.196	73.56
951.365	13.5
951.533	50.89
951.701	101.27
951.87	82.28
952.038	31.32
952.207	56.9
952.375	139.82
952.543	44.5
952.712	44.5
952.88	48.37
953.048	140.98
953.217	100.49
953.385	62.9
953.553	108.05
953.721	32.68
953.89	64.26
954.058	25.51
954.226	34.23
954.394	79.37
954.562	13.5
954.73	59.61
954.898	43.72
955.067	94.48
955.235	42.56
955.403	96.23
955.571	103.59
955.739	72.98
955.907	45.85
956.075	77.63
956.243	37.13
956.41	85.57
956.578	29
956.746	16.6
956.914	34.62
957.082	70.65
957.25	99.52
957.418	32.48
957.585	58.64
957.753	111.15
957.921	24.35
958.089	61.93
958.256	65.81
958.424	60.19
958.592	82.86
958.759	22.8
958.927	89.06
959.095	54.38
959.262	49.34
959.43	73.37
959.597	25.51
959.765	81.7
959.932	51.67
960.1	91.58
960.267	59.42
960.435	97.58
960.602	105.14
960.77	63.68
960.937	20.86
961.104	80.73
961.272	29
961.439	53.41
961.606	76.27
961.774	109.02
961.941	66.97
962.108	71.82
962.275	72.78
962.443	125.48
962.61	82.28
962.777	134.2
962.944	89.64
963.111	82.67
963.278	99.72
963.446	57.48
963.613	86.73
963.78	96.23
963.947	84.6
964.114	91.97
964.281	161.52
964.448	111.53
964.615	66.2
964.782	87.9
964.949	105.14
965.116	86.73
965.282	127.61
965.449	71.82
965.616	66.2
965.783	91.97
965.95	88.48
966.117	51.08
966.283	115.41
966.45	96.23
966.617	99.72
966.784	106.5
966.95	119.67
967.117	121.22
967.284	79.95
967.45	62.71
967.617	159.58
967.784	96.62
967.95	133.43
968.117	119.09
968.283	140.4
968.45	173.92
968.616	118.7
968.783	127.03
968.949	128.39
969.116	132.46
969.282	109.6
969.449	109.6
969.615	98.75
969.781	88.28
969.948	68.33
970.114	63.48
970.28	154.74
970.447	116.57
970.613	136.14
970.779	105.92
970.945	112.89
971.112	112.31
971.278	123.93
971.444	102.23
971.61	143.89
971.776	92.35
971.942	116.18
972.108	122.58
972.275	86.35
972.441	119.09
972.607	141.56
972.773	75.3
972.939	115.02
973.105	103.98
973.271	75.5
973.437	80.92
973.602	70.65
973.768	123.93
973.934	94.29
974.1	112.89
974.266	46.24
974.432	114.25
974.598	95.07
974.763	97
974.929	96.23
975.095	157.06
975.261	57.48
975.426	77.24
975.592	60
975.758	139.82
975.923	40.04
976.089	105.92
976.255	135.95
976.42	111.73
976.586	100.88
976.751	103.4
976.917	188.45
977.082	102.62
977.248	51.08
977.413	38.68
977.579	83.05
977.744	99.52
977.91	64.45
978.075	55.54
978.24	103.4
978.406	81.7
978.571	68.72
978.736	40.62
978.902	84.02
979.067	63.87
979.232	62.52
979.397	98.55
979.563	129.75
979.728	55.54
979.893	98.36
980.058	56.9
980.223	108.05
980.388	105.72
980.554	111.53
980.719	83.83
980.884	116.18
981.049	119.09
981.214	53.22
981.379	106.5
981.544	83.83
981.709	77.43
981.874	69.3
982.039	81.12
982.204	112.7
982.368	91.77
982.533	64.26
982.698	132.26
982.863	114.83
983.028	60.97
983.193	92.93
983.357	91
983.522	81.89
983.687	57.67
983.852	74.14
984.016	92.16
984.181	99.13
984.346	102.43
984.51	129.36
984.675	109.02
984.839	112.31
985.004	115.02
985.168	118.51
985.333	81.5
985.498	79.37
985.662	121.61
985.827	126.65
985.991	81.31
986.155	48.95
986.32	100.49
986.484	133.81
986.649	115.99
986.813	28.8
986.977	124.13
987.142	109.98
987.306	60.38
987.47	87.7
987.634	74.53
987.799	106.88
987.963	91.38
988.127	128.97
988.291	148.54
988.455	101.27
988.62	77.43
988.784	121.8
988.948	110.57
989.112	63.87
989.276	120.06
989.44	110.18
989.604	78.6
989.768	87.7
989.932	141.95
990.096	48.57
990.26	60
990.424	44.5
990.588	69.68
990.752	152.03
990.915	127.23
991.079	70.85
991.243	65.62
991.407	104.95
991.571	68.33
991.734	112.12
991.898	95.84
992.062	148.15
992.226	78.21
992.389	63.87
992.553	32.87
992.717	39.46
992.88	75.3
993.044	85.96
993.207	73.17
993.371	106.69
993.535	93.32
993.698	61.35
993.862	76.85
994.025	115.99
994.189	72.2
994.352	96.23
994.515	112.89
994.679	83.63
994.842	76.27
995.006	132.65
995.169	46.24
995.332	59.22
995.496	103.59
995.659	25.51
995.822	98.55
995.985	79.57
996.149	103.98
996.312	65.03
996.475	138.08
996.638	99.91
996.801	132.46
996.964	159.97
997.128	95.65
997.291	55.93
997.454	88.67
997.617	42.75
997.78	95.65
997.943	39.85
998.106	123.55
998.269	59.03
998.432	55.93
998.595	80.92
998.758	32.29
998.92	34.42
999.083	32.1
999.246	67.17
999.409	21.44
999.572	19.31
999.735	64.07
999.897	97.39
1000.06	47.21
1000.223	38.1
1000.386	85.57
1000.548	93.52
1000.711	66.97
1000.874	81.89
1001.036	29.77
1001.199	112.5
1001.361	55.93
1001.524	63.87
1001.687	93.13
1001.849	25.7
1002.012	76.47
1002.174	51.47
1002.337	85.18
1002.499	60.58
1002.661	91.38
1002.824	25.9
1002.986	52.05
1003.149	74.33
1003.311	48.76
1003.473	103.01
1003.636	42.56
1003.798	77.43
1003.96	71.43
1004.123	69.88
1004.285	60.58
1004.447	45.47
1004.609	50.89
1004.771	102.04
1004.933	38.3
1005.096	31.71
1005.258	17.76
1005.42	72.4
1005.582	81.5
1005.744	72.2
1005.906	21.05
1006.068	83.25
1006.23	4.97
1006.392	-4.33
1006.554	35.2
1006.716	59.22
1006.878	78.21
1007.04	15.63
1007.202	47.98
1007.363	49.15
1007.525	77.24
1007.687	68.33
1007.849	87.7
1008.011	33.26
1008.172	38.3
1008.334	25.51
1008.496	48.57
1008.658	-19.63
1008.819	26.09
1008.981	9.24
1009.143	45.85
1009.304	24.15
1009.466	39.65
1009.627	95.84
1009.789	150.09
1009.95	57.87
1010.112	35.58
1010.273	61.16
1010.435	13.89
1010.596	45.85
1010.758	34.42
1010.919	29.77
1011.081	1.1
1011.242	52.44
1011.403	66
1011.565	18.73
1011.726	51.67
1011.887	38.1
1012.049	24.93
1012.21	92.35
1012.371	90.03
1012.532	-28.16
1012.693	51.86
1012.855	29
1013.016	51.67
1013.177	84.02
1013.338	38.3
1013.499	104.56
1013.66	61.35
1013.821	65.23
1013.982	41.59
1014.143	52.44
1014.304	29
1014.465	48.37
1014.626	70.27
1014.787	15.63
1014.948	115.6
1015.109	-35.91
1015.27	74.33
1015.431	12.72
1015.592	-2.78
1015.752	56.51
1015.913	54.57
1016.074	39.07
1016.235	34.23
1016.395	37.33
1016.556	42.17
1016.717	24.35
1016.877	67.36
1017.038	0.9
1017.199	26.09
1017.359	13.3
1017.52	57.87
1017.681	42.17
1017.841	24.54
1018.002	29.19
1018.162	16.6
1018.323	82.28
1018.483	-0.65
1018.644	29
1018.804	7.88
1018.964	12.92
1019.125	9.04
1019.285	30.93
1019.446	16.21
1019.606	-5.1
1019.766	-15.37
1019.926	54.38
1020.087	51.86
1020.247	-19.63
1020.407	38.1
1020.567	64.45
1020.728	34.23
1020.888	-2.97
1021.048	22.02
1021.208	-6.46
1021.368	1.49
1021.528	76.66
1021.688	42.17
1021.848	53.02
1022.008	54.18
1022.168	55.73
1022.328	53.41
1022.488	70.07
1022.648	-3.36
1022.808	44.3
1022.968	39.65
1023.128	-16.92
1023.288	7.1
1023.448	47.79
1023.608	36.36
1023.767	42.56
1023.927	3.04
1024.087	-1.03
1024.247	-10.53
1024.406	3.04
1024.566	-16.15
1024.726	6.14
1024.885	30.35
1025.045	30.16
1025.205	15.63
1025.364	1.1
1025.524	36.75
1025.683	6.52
1025.843	16.99
1026.003	6.91
1026.162	76.85
1026.321	39.65
1026.481	33.45
1026.64	1.1
1026.8	49.53
1026.959	19.7
1027.119	36.94
1027.278	25.7
1027.437	-20.02
1027.597	29.58
1027.756	29
1027.915	15.05
1028.074	38.68
1028.234	-6.26
1028.393	35.39
1028.552	28.03
1028.711	-42.88
1028.87	65.62
1029.03	-14.79
1029.189	21.05
1029.348	-28.35
1029.507	-3.16
1029.666	3.23
1029.825	-33.2
1029.984	-5.3
1030.143	39.65
1030.302	-17.7
1030.461	-45.98
1030.62	17.95
1030.779	57.09
1030.938	3.23
1031.097	-18.28
1031.255	29.58
1031.414	27.64
1031.573	73.75
1031.732	-34.94
1031.891	8.65
1032.049	21.83
1032.208	56.32
1032.367	-17.11
1032.525	-12.66
1032.684	10.01
1032.843	33.07
1033.001	-50.44
1033.16	153.38
1033.319	78.4
1033.477	21.83
1033.636	-11.69
1033.794	-1.61
1033.953	54.57
1034.111	12.34
1034.27	-3.16
1034.428	17.76
1034.587	-4.13
1034.745	14.27
1034.903	9.24
1035.062	25.32
1035.22	-46.76
1035.378	21.64
1035.537	-15.56
1035.695	33.07
1035.853	9.43
1036.011	36.36
1036.17	33.07
1036.328	-46.76
1036.486	33.45
1036.644	15.05
1036.802	-53.54
1036.96	6.33
1037.119	16.6
1037.277	-0.65
1037.435	-25.83
1037.593	-6.65
1037.751	-17.11
1037.909	34.81
1038.067	34.81
