Data from gum_young_FLMT105791__134__17-41-02-040.txt Node

Date: Mon Mar 20 17:41:02 GMT 2023
User: antho
Spectrometer: FLMT10579
Trigger mode: 0
Integration Time (sec): 1.000000E-1
Scans to average: 10
Electric dark correction enabled: true
Nonlinearity correction enabled: false
Boxcar width: 0
XAxis mode: Wavelengths
Number of Pixels in Spectrum: 3648
>>>>>Begin Spectral Data<<<<<
345.248	-150.59
345.464	-150.59
345.681	-150.59
345.898	-183.14
346.114	-156.79
346.331	-30.47
346.548	13.13
346.764	5.38
346.981	-8.38
347.197	-11.29
347.414	20.3
347.631	-3.92
347.847	40.44
348.064	11.38
348.28	6.54
348.497	-21.36
348.713	-21.75
348.93	21.07
349.146	23.98
349.363	-4.5
349.579	-4.7
349.796	-7.99
350.012	-21.75
350.229	36.96
350.445	8.48
350.661	-45.58
350.878	3.25
351.094	9.83
351.311	15.45
351.527	3.83
351.743	-4.12
351.96	11.77
352.176	30.56
352.392	28.24
352.609	36.76
352.825	-13.03
353.041	-4.5
353.257	10.8
353.474	20.1
353.69	-0.05
353.906	8.28
354.122	-10.51
354.339	57.3
354.555	7.7
354.771	-9.35
354.987	49.16
355.203	48
355.42	-2.76
355.636	-2.95
355.852	-11.29
356.068	12.35
356.284	-29.11
356.5	54.01
356.716	37.15
356.932	0.15
357.148	19.71
357.364	5.76
357.58	32.5
357.796	40.64
358.012	58.27
358.228	21.26
358.444	-74.06
358.66	41.03
358.876	1.31
359.092	12.16
359.308	22.81
359.524	25.72
359.74	-5.67
359.956	21.07
360.172	-1.4
360.388	50.71
360.604	-15.74
360.819	57.11
361.035	-1.21
361.251	41.8
361.467	-0.63
361.683	34.05
361.898	15.06
362.114	44.71
362.33	-0.05
362.546	40.06
362.762	12.74
362.977	-0.63
363.193	-9.54
363.409	50.33
363.624	-26.79
363.84	5.76
364.056	-1.79
364.271	35.41
364.487	16.81
364.703	9.64
364.918	-23.1
365.134	14.29
365.35	23.78
365.565	93.53
365.781	15.26
365.996	54.2
366.212	34.63
366.427	21.84
366.643	-9.54
366.858	29.59
367.074	-26.2
367.289	22.81
367.505	114.26
367.72	-5.47
367.936	2.08
368.151	57.11
368.367	26.69
368.582	48.78
368.798	0.73
369.013	46.84
369.228	4.99
369.444	0.34
369.659	68.34
369.874	44.9
370.09	33.66
370.305	-17.29
370.52	-9.35
370.736	50.33
370.951	6.73
371.166	47.03
371.381	71.25
371.597	63.31
371.812	-15.74
372.027	7.31
372.242	6.93
372.458	86.36
372.673	19.33
372.888	-1.21
373.103	57.88
373.318	90.24
373.533	42.96
373.749	40.44
373.964	-0.24
374.179	51.29
374.394	-1.21
374.609	61.76
374.824	-9.93
375.039	57.49
375.254	-8.38
375.469	74.16
375.684	32.31
375.899	57.3
376.114	28.04
376.329	39.67
376.544	57.11
376.759	83.07
376.974	-1.99
377.189	35.99
377.404	18.36
377.619	51.29
377.834	-27.95
378.049	-12.25
378.264	-42.48
378.478	38.51
378.693	-1.21
378.908	58.08
379.123	24.75
379.338	50.52
379.553	29.21
379.767	33.66
379.982	68.73
380.197	48.58
380.412	36.57
380.626	49.55
380.841	92.37
381.056	57.88
381.271	92.56
381.485	12.93
381.7	9.64
381.915	45.68
382.129	30.76
382.344	54.59
382.559	17.58
382.773	28.43
382.988	15.65
383.202	42.96
383.417	17.39
383.632	129.37
383.846	18.94
384.061	16.23
384.275	-4.31
384.49	38.12
384.704	46.64
384.919	33.47
385.133	17
385.348	62.34
385.562	23.39
385.777	71.44
385.991	31.14
386.206	22.23
386.42	28.24
386.634	67.57
386.849	57.49
387.063	45.09
387.277	1.89
387.492	36.57
387.706	9.64
387.92	29.79
388.135	47.23
388.349	37.54
388.563	41.61
388.778	38.12
388.992	70.67
389.206	42.96
389.42	118.14
389.635	50.71
389.849	78.23
390.063	56.53
390.277	29.21
390.491	106.51
390.706	53.43
390.92	73.38
391.134	54.59
391.348	96.24
391.562	-1.02
391.776	47.23
391.99	47.23
392.205	66.41
392.419	4.21
392.633	40.06
392.847	98.38
393.061	21.07
393.275	116.97
393.489	47.23
393.703	34.44
393.917	94.89
394.131	27.85
394.345	68.54
394.559	66.02
394.773	20.68
394.986	37.54
395.2	43.93
395.414	81.13
395.628	38.12
395.842	63.31
396.056	50.71
396.27	11.38
396.484	63.69
396.697	54.98
396.911	68.34
397.125	80.74
397.339	78.23
397.553	81.33
397.766	101.86
397.98	102.64
398.194	103.99
398.408	53.81
398.621	79.58
398.835	81.52
399.049	69.51
399.262	106.13
399.476	95.28
399.69	136.16
399.903	130.34
400.117	90.43
400.331	120.46
400.544	71.44
400.758	169.29
400.971	91.21
401.185	121.43
401.398	37.73
401.612	152.43
401.826	88.49
402.039	106.71
402.253	75.9
402.466	126.66
402.68	87.72
402.893	95.28
403.106	111.74
403.32	105.74
403.533	109.81
403.747	117.75
403.96	87.14
404.174	108.45
404.387	58.66
404.6	91.79
404.814	137.9
405.027	92.95
405.24	90.43
405.454	106.51
405.667	121.62
405.88	47.81
406.094	102.64
406.307	128.02
406.52	108.64
406.733	83.84
406.947	44.51
407.16	147.59
407.373	131.51
407.586	85.39
407.799	58.85
408.012	113.1
408.226	112.32
408.439	154.95
408.652	69.12
408.865	107.29
409.078	157.27
409.291	124.14
409.504	78.03
409.717	106.9
409.93	128.6
410.143	125.69
410.357	63.31
410.57	79.19
410.783	105.54
410.996	119.69
411.209	111.74
411.421	144.1
411.634	101.48
411.847	107.29
412.06	115.23
412.273	112.71
412.486	120.27
412.699	190.21
412.912	144.87
413.125	146.62
413.338	137.51
413.55	172.58
413.763	124.92
413.976	152.04
414.189	95.28
414.402	134.22
414.615	159.99
414.827	108.26
415.04	168.12
415.253	163.09
415.466	194.67
415.678	163.09
415.891	137.71
416.104	145.26
416.316	105.54
416.529	129.76
416.742	169.67
416.954	153.98
417.167	163.09
417.38	141.39
417.592	167.16
417.805	112.13
418.017	106.32
418.23	170.45
418.442	109.81
418.655	118.52
418.868	167.35
419.08	186.53
419.293	175.1
419.505	140.22
419.718	154.95
419.93	178.01
420.142	129.18
420.355	186.14
420.567	177.04
420.78	182.85
420.992	168.9
421.205	221.6
421.417	119.88
421.629	160.96
421.842	122.21
422.054	110.97
422.266	177.62
422.479	218.5
422.691	123.95
422.903	167.74
423.115	135.38
423.328	164.25
423.54	174.91
423.752	143.13
423.964	160.57
424.177	134.22
424.389	169.29
424.601	284.37
424.813	213.46
425.025	182.85
425.238	202.22
425.45	153.79
425.662	164.64
425.874	419.03
426.086	169.67
426.298	201.45
426.51	190.6
426.722	165.99
426.934	140.81
427.146	194.09
427.358	146.04
427.57	196.8
427.782	178.2
427.994	169.09
428.206	148.36
428.418	127.24
428.63	175.49
428.842	200.48
429.054	173.16
429.266	222.76
429.478	170.45
429.69	190.79
429.902	140.42
430.114	207.45
430.325	165.99
430.537	127.05
430.749	162.51
430.961	112.13
431.173	115.42
431.384	175.1
431.596	81.71
431.808	158.24
432.02	164.25
432.231	216.95
432.443	221.02
432.655	215.01
432.867	189.63
433.078	216.95
433.29	255.31
433.502	234.77
433.713	239.04
433.925	198.15
434.136	252.99
434.348	173.16
434.56	142.55
434.771	287.08
434.983	151.66
435.194	202.22
435.406	204.35
435.617	238.45
435.829	271.39
436.04	228.57
436.252	254.15
436.463	275.46
436.675	276.04
436.886	269.84
437.098	241.55
437.309	298.13
437.521	249.5
437.732	247.95
437.943	239.23
438.155	243.3
438.366	205.52
438.578	280.11
438.789	256.28
439	274.49
439.211	241.36
439.423	257.83
439.634	251.05
439.845	253.57
440.057	242.52
440.268	267.52
440.479	213.46
440.69	269.26
440.902	234
441.113	246.79
441.324	238.65
441.535	270.81
441.746	301.81
441.957	209.78
442.168	270.42
442.38	282.44
442.591	321.77
442.802	260.15
443.013	246.79
443.224	289.41
443.435	252.21
443.646	287.28
443.857	238.84
444.068	291.54
444.279	242.52
444.49	351.02
444.701	296
444.912	362.26
445.123	328.93
445.334	288.44
445.545	332.81
445.756	277.2
445.967	261.7
446.178	307.43
446.388	319.83
446.599	340.95
446.81	308.59
447.021	273.72
447.232	348.12
447.443	345.21
447.653	253.57
447.864	342.11
448.075	334.75
448.286	340.17
448.496	311.11
448.707	339.01
448.918	303.36
449.129	387.83
449.339	309.95
449.55	350.44
449.761	310.14
449.971	368.85
450.182	309.37
450.393	364.58
450.603	336.49
450.814	375.43
451.024	336.1
451.235	373.11
451.446	414.38
451.656	396.16
451.867	343.27
452.077	363.42
452.288	422.13
452.498	410.31
452.709	339.98
452.919	374.66
453.13	328.35
453.34	371.75
453.55	293.87
453.761	401.2
453.971	347.34
454.182	375.05
454.392	373.5
454.602	412.05
454.813	386.86
455.023	410.7
455.233	334.75
455.444	404.5
455.654	326.61
455.864	329.32
456.075	369.23
456.285	339.98
456.495	363.23
456.705	364.58
456.916	424.84
457.126	452.74
457.336	371.95
457.546	344.43
457.756	339.4
457.967	424.84
458.177	387.45
458.387	390.74
458.597	369.04
458.807	375.82
459.017	376.98
459.227	362.84
459.437	385.12
459.647	403.53
459.857	425.81
460.068	351.41
460.278	424.06
460.488	416.31
460.698	433.36
460.908	402.56
461.117	339.4
461.327	374.85
461.537	420.19
461.747	406.24
461.957	411.66
462.167	522.29
462.377	440.53
462.587	411.86
462.797	451.58
463.007	432.4
463.216	448.86
463.426	479.86
463.636	441.31
463.846	378.73
464.056	424.84
464.265	458.36
464.475	403.72
464.685	406.63
464.895	470.56
465.104	411.86
465.314	464.56
465.524	411.86
465.733	389.77
465.943	476.38
466.153	493.23
466.362	469.59
466.572	474.44
466.782	442.47
466.991	453.71
467.201	494.01
467.41	394.03
467.62	457.39
467.829	447.12
468.039	481.8
468.249	432.59
468.458	449.64
468.668	479.09
468.877	480.64
469.086	526.94
469.296	508.54
469.505	439.76
469.715	543.03
469.924	506.41
470.134	511.06
470.343	520.94
470.552	479.67
470.762	486.84
470.971	445.76
471.18	486.84
471.39	501.56
471.599	446.93
471.808	516.48
472.018	481.41
472.227	567.24
472.436	577.12
472.645	493.62
472.855	501.95
473.064	588.17
473.273	524.04
473.482	543.41
473.691	578.09
473.901	555.42
474.11	533.53
474.319	625.37
474.528	561.04
474.737	593.01
474.946	570.54
475.155	562.01
475.364	615.29
475.573	603.09
475.783	599.79
475.992	612
476.201	639.51
476.41	574.61
476.619	563.95
476.828	600.57
477.037	548.64
477.245	590.88
477.454	644.35
477.663	571.51
477.872	625.37
478.081	672.45
478.29	596.5
478.499	691.44
478.708	652.88
478.917	730.18
479.125	654.43
479.334	648.62
479.543	653.27
479.752	664.5
479.961	685.43
480.169	696.47
480.378	686.59
480.587	773
480.796	715.07
481.004	670.9
481.213	698.41
481.422	719.53
481.63	720.88
481.839	731.15
482.048	765.45
482.256	721.66
482.465	762.73
482.674	766.03
482.882	775.33
483.091	809.81
483.299	766.8
483.508	760.8
483.716	759.44
483.925	788.7
484.134	724.95
484.342	742.58
484.551	804.58
484.759	767.58
484.967	809.23
485.176	826.67
485.384	781.72
485.593	815.63
485.801	809.04
486.01	755.18
486.218	738.32
486.426	671.09
486.635	695.12
486.843	681.36
487.051	752.85
487.26	727.28
487.468	763.7
487.676	802.84
487.885	755.76
488.093	810.59
488.301	854.18
488.509	822.99
488.717	864.45
488.926	826.86
489.134	832.1
489.342	836.75
489.55	816.98
489.758	829.77
489.967	881.11
490.175	984.57
490.383	872.2
490.591	977.99
490.799	887.31
491.007	924.32
491.215	911.53
491.423	897.97
491.631	920.06
491.839	893.32
492.047	956.29
492.255	856.51
492.463	869.1
492.671	878.6
492.879	940.4
493.087	930.33
493.295	934.39
493.503	926.84
493.711	987.29
493.919	1008.99
494.127	984.57
494.334	984.38
494.542	933.81
494.75	1004.72
494.958	979.54
495.166	1006.08
495.374	1014.22
495.581	994.26
495.789	1006.27
495.997	1048.9
496.205	975.86
496.412	977.79
496.62	1000.07
496.828	1014.22
497.035	1026.81
497.243	1065.95
497.451	1046.19
497.658	1044.44
497.866	1038.24
498.074	1097.14
498.281	1039.02
498.489	1105.09
498.696	1071.18
498.904	1016.74
499.112	1032.43
499.319	1130.08
499.527	1093.85
499.734	1094.62
499.942	1043.47
500.149	1090.17
500.357	1097.72
500.564	1060.14
500.771	1092.69
500.979	1053.16
501.186	1059.17
501.394	1079.32
501.601	1090.75
501.808	1124.27
502.016	1091.52
502.223	1079.9
502.43	1077.19
502.638	1110.51
502.845	1087.07
503.052	1158.56
503.26	1106.44
503.467	1194.6
503.674	1165.15
503.881	1169.99
504.089	1222.69
504.296	1184.91
504.503	1136.86
504.71	1146.16
504.917	1120.39
505.125	1183.55
505.332	1206.22
505.539	1230.05
505.746	1262.41
505.953	1252.33
506.16	1238.19
506.367	1315.69
506.574	1340.68
506.781	1328.86
506.988	1255.43
507.195	1299.8
507.402	1222.11
507.609	1337
507.816	1271.32
508.023	1279.85
508.23	1259.11
508.437	1269.58
508.644	1331.77
508.851	1368.78
509.058	1400.74
509.265	1348.04
509.472	1350.76
509.679	1453.83
509.885	1412.18
510.092	1391.25
510.299	1410.82
510.506	1404.43
510.713	1424.19
510.92	1399.58
511.126	1486.96
511.333	1481.15
511.54	1469.72
511.746	1524.35
511.953	1545.28
512.16	1598.75
512.367	1507.69
512.573	1521.84
512.78	1563.3
512.987	1566.2
513.193	1547.02
513.4	1449.76
513.606	1531.33
513.813	1583.45
514.02	1545.28
514.226	1588.1
514.433	1609.22
514.639	1554.58
514.846	1610.57
515.052	1543.92
515.259	1617.16
515.465	1634.98
515.672	1652.42
515.878	1739.22
516.085	1659.4
516.291	1729.34
516.497	1684
516.704	1655.52
516.91	1585.39
517.117	1561.94
517.323	1528.62
517.529	1552.06
517.736	1562.14
517.942	1566.01
518.148	1624.52
518.354	1664.43
518.561	1640.6
518.767	1672.77
518.973	1694.46
519.179	1757.43
519.386	1747.75
519.592	1763.83
519.798	1737.86
520.004	1848.88
520.21	1853.14
520.417	1909.33
520.623	1944.59
520.829	1994.77
521.035	1938.97
521.241	1914.76
521.447	2001.36
521.653	2108.5
521.859	1987.02
522.065	2039.53
522.271	2164.11
522.477	2126.91
522.683	2184.45
522.889	2113.54
523.095	2077.7
523.301	2105.98
523.507	2077.7
523.713	2148.22
523.919	2101.33
524.125	2198.01
524.331	2176.51
524.537	2286.75
524.742	2309.03
524.948	2317.56
525.154	2320.07
525.36	2402.42
525.566	2326.86
525.772	2372
525.977	2296.05
526.183	2385.75
526.389	2384.2
526.595	2264.86
526.8	2314.46
527.006	2184.45
527.212	2165.46
527.417	2135.82
527.623	2203.44
527.829	2252.84
528.034	2291.21
528.24	2296.05
528.446	2344.49
528.651	2426.83
528.857	2480.88
529.062	2501.62
529.268	2487.67
529.473	2540.17
529.679	2552.57
529.884	2602.17
530.09	2553.73
530.295	2564.58
530.501	2582.21
530.706	2566.91
530.912	2589.19
531.117	2592.68
531.323	2626.2
531.528	2710.86
531.733	2681.03
531.939	2615.35
532.144	2669.59
532.35	2648.09
532.555	2673.47
532.76	2644.79
532.966	2617.48
533.171	2587.83
533.376	2530.48
533.581	2564.39
533.787	2614.57
533.992	2680.44
534.197	2648.86
534.402	2673.66
534.607	2675.02
534.813	2755.23
535.018	2701.18
535.223	2733.92
535.428	2753.1
535.633	2761.82
535.838	2808.32
536.043	2878.45
536.249	2928.83
536.454	2816.84
536.659	2911.58
536.864	2849
537.069	2852.49
537.274	2806.38
537.479	2806.38
537.684	2785.46
537.889	2827.3
538.094	2915.65
538.299	2861.4
538.504	2916.04
538.708	2902.87
538.913	2944.91
539.118	2914.49
539.323	2910.03
539.528	2868.77
539.733	2873.42
539.938	2871.29
540.142	2881.75
540.347	2824.2
540.552	2799.6
540.757	2795.92
540.962	2801.34
541.166	2770.92
541.371	2793.98
541.576	2825.75
541.781	2767.82
541.985	2883.1
542.19	2877.68
542.395	2976.88
542.599	2956.34
542.804	2902.48
543.008	2964.48
543.213	2887.75
543.418	2857.72
543.622	2936.19
543.827	2865.86
544.031	2946.07
544.236	3013.69
544.44	3017.95
544.645	3027.45
544.849	2938.52
545.054	3055.15
545.258	3074.72
545.463	3041.59
545.667	2937.35
545.872	3027.64
546.076	3022.99
546.281	2999.74
546.485	2983.85
546.689	3002.06
546.894	3023.18
547.098	3040.43
547.302	3039.26
547.507	3010.2
547.711	3041.98
547.915	3096.03
548.119	2965.64
548.324	2989.47
548.528	3059.03
548.732	3046.63
548.936	3075.11
549.141	3081.11
549.345	3031.13
549.549	3090.41
549.753	3138.85
549.957	3155.13
550.161	3153.96
550.366	3112.69
550.57	3080.34
550.774	3059.03
550.978	3136.91
551.182	3110.95
551.386	3063.48
551.59	3036.55
551.794	3070.65
551.998	3119.28
552.202	3111.73
552.406	3070.85
552.61	3127.61
552.814	3102.23
553.018	3136.33
553.222	3103.2
553.426	3069.88
553.63	3204.34
553.833	3083.83
554.037	3041.01
554.241	3108.63
554.445	3102.43
554.649	3115.21
554.853	3078.6
555.056	3146.21
555.26	3162.1
555.464	3116.57
555.668	3135.75
555.871	3161.52
556.075	3135.75
556.279	3097.39
556.483	3069.88
556.686	3066.39
556.89	3061.55
557.094	3028.61
557.297	2996.45
557.501	3061.74
557.704	2986.57
557.908	3020.86
558.112	3022.41
558.315	3063.29
558.519	3020.86
558.722	3010.2
558.926	2966.03
559.129	2887.17
559.333	2880.2
559.536	2910.23
559.74	2870.7
559.943	2831.18
560.147	2827.69
560.35	2863.92
560.553	2877.87
560.757	2824.98
560.96	2922.05
561.164	2871.09
561.367	2950.72
561.57	2899.57
561.774	2889.11
561.977	2887.17
562.18	2866.64
562.384	2940.45
562.587	2858.11
562.79	2829.24
562.993	2814.13
563.197	2891.82
563.4	2883.88
563.603	2902.87
563.806	2932.51
564.009	2819.17
564.212	2860.44
564.416	2774.02
564.619	2845.52
564.822	2751.16
565.025	2858.11
565.228	2804.44
565.431	2797.08
565.634	2697.3
565.837	2725.2
566.04	2674.63
566.243	2655.84
566.446	2600.23
566.649	2684.71
566.852	2626.39
567.055	2664.17
567.258	2664.75
567.461	2728.49
567.664	2718.81
567.867	2640.92
568.07	2649.83
568.273	2650.22
568.475	2668.04
568.678	2571.36
568.881	2568.46
569.084	2572.72
569.287	2474.68
569.489	2469.65
569.692	2552.96
569.895	2570.59
570.098	2467.32
570.3	2467.52
570.503	2422.37
570.706	2431.67
570.909	2430.32
571.111	2328.6
571.314	2352.24
571.516	2358.44
571.719	2390.4
571.922	2351.66
572.124	2337.9
572.327	2352.82
572.529	2337.9
572.732	2307.29
572.935	2365.41
573.137	2403.97
573.34	2308.84
573.542	2403.77
573.745	2321.43
573.947	2355.72
574.15	2302.25
574.352	2283.84
574.554	2339.45
574.757	2245.09
574.959	2246.64
575.162	2244.13
575.364	2221.26
575.566	2303.8
575.769	2161.2
575.971	2234.24
576.173	2122.65
576.376	2194.33
576.578	2248.78
576.78	2268.93
576.982	2131.56
577.185	2187.94
577.387	2119.93
577.589	2152.48
577.791	2160.43
577.993	2199.95
578.196	2142.21
578.398	2177.09
578.6	2131.75
578.802	2107.73
579.004	2079.05
579.206	2071.11
579.408	2111.22
579.61	2082.93
579.812	2149.77
580.014	2088.93
580.216	2115.48
580.418	2127.3
580.62	2107.53
580.822	2087.38
581.024	2102.11
581.226	2157.52
581.428	2127.49
581.63	2199.95
581.832	2109.08
582.034	2163.14
582.236	2094.94
582.438	2150.16
582.64	2180.38
582.841	2215.84
583.043	2280.94
583.245	2159.26
583.447	2174.76
583.649	2169.15
583.85	2180.96
584.052	2201.89
584.254	2078.28
584.456	2168.76
584.657	2116.64
584.859	2148.41
585.061	2090.68
585.262	2117.61
585.464	2032.17
585.666	2130.2
585.867	2052.51
586.069	2129.23
586.27	2060.45
586.472	2083.32
586.674	2069.75
586.875	2022.09
587.077	2080.41
587.278	2063.17
587.48	2029.26
587.681	2142.8
587.883	2052.7
588.084	2019.57
588.285	1989.93
588.487	1959.32
588.688	2007.17
588.89	1904.49
589.091	1812.84
589.292	1820.59
589.494	1797.93
589.695	1795.21
589.896	1703.96
590.098	1680.71
590.299	1752.4
590.5	1729.73
590.702	1769.45
590.903	1820.4
591.104	1868.45
591.305	1860.12
591.507	1896.35
591.708	1874.07
591.909	1838.23
592.11	1869.03
592.311	1889.18
592.512	1803.16
592.714	1787.46
592.915	1820.21
593.116	1793.86
593.317	1876.2
593.518	1839.19
593.719	1833.19
593.92	1895.38
594.121	1867.67
594.322	1829.51
594.523	1869.61
594.724	1771.58
594.925	1820.01
595.126	1783.01
595.327	1832.03
595.528	1854.69
595.729	1803.93
595.929	1876.01
596.13	1802.96
596.331	1871.16
596.532	1847.14
596.733	1902.74
596.934	1918.44
597.135	1894.8
597.335	1893.83
597.536	1833.77
597.737	1865.54
597.938	1803.54
598.138	1867.67
598.339	1862.64
598.54	1875.81
598.74	1832.8
598.941	1844.81
599.142	1882.98
599.342	1895.19
599.543	1837.45
599.744	1869.03
599.944	1846.75
600.145	1814.39
600.345	1880.85
600.546	1921.92
600.746	1918.44
600.947	1926.19
601.147	1832.8
601.348	1893.44
601.548	1815.17
601.749	1812.07
601.949	1846.36
602.15	1816.91
602.35	1781.46
602.551	1868.06
602.751	1774.68
602.951	1828.93
603.152	1751.62
603.352	1854.31
603.552	1842.1
603.753	1846.56
603.953	1876.01
604.153	1849.27
604.354	1859.34
604.554	1825.05
604.754	1824.66
604.954	1831.83
605.155	1829.7
605.355	1819.82
605.555	1862.83
605.755	1878.52
605.955	1840.94
606.155	1859.54
606.356	1820.4
606.556	1819.63
606.756	1841.52
606.956	1783.78
607.156	1874.46
607.356	1784.75
607.556	1813.43
607.756	1793.66
607.956	1812.07
608.156	1803.93
608.356	1778.36
608.556	1798.31
608.756	1745.42
608.956	1750.26
609.156	1733.6
609.356	1731.86
609.556	1703.96
609.755	1751.43
609.955	1693.88
610.155	1732.63
610.355	1737.86
610.555	1720.43
610.755	1726.43
610.954	1664.43
611.154	1732.83
611.354	1735.54
611.554	1695.63
611.753	1656.88
611.953	1682.06
612.153	1721.59
612.352	1706.48
612.552	1643.32
612.752	1592.17
612.951	1666.95
613.151	1647.38
613.351	1619.68
613.55	1636.92
613.75	1670.63
613.949	1632.85
614.149	1632.27
614.348	1609.8
614.548	1601.27
614.747	1566.79
614.947	1599.53
615.146	1559.04
615.346	1662.69
615.545	1613.67
615.745	1620.84
615.944	1610.77
616.144	1605.53
616.343	1603.98
616.542	1535.79
616.742	1548.96
616.941	1545.86
617.14	1493.55
617.34	1578.41
617.539	1527.07
617.738	1521.84
617.938	1568.53
618.137	1518.74
618.336	1474.56
618.535	1586.55
618.734	1547.02
618.934	1571.24
619.133	1547.02
619.332	1577.05
619.531	1518.74
619.73	1547.6
619.929	1544.89
620.128	1578.22
620.328	1578.41
620.527	1516.41
620.726	1529
620.925	1556.9
621.124	1544.7
621.323	1547.41
621.522	1483.86
621.721	1499.75
621.92	1457.71
622.119	1485.41
622.318	1496.84
622.517	1480.96
622.715	1491.22
622.914	1431.74
623.113	1471.07
623.312	1416.24
623.511	1478.44
623.71	1460.42
623.909	1449.18
624.107	1498.01
624.306	1391.25
624.505	1408.11
624.704	1425.54
624.902	1413.53
625.101	1473.79
625.3	1421.28
625.499	1413.34
625.697	1404.23
625.896	1368.19
626.095	1406.36
626.293	1356.18
626.492	1432.71
626.69	1429.03
626.889	1390.48
627.088	1403.26
627.286	1377.3
627.485	1373.23
627.683	1348.43
627.882	1345.33
628.08	1310.46
628.279	1318.79
628.477	1370.13
628.676	1265.51
628.874	1364.13
629.073	1294.76
629.271	1283.72
629.469	1331.77
629.668	1326.93
629.866	1311.23
630.065	1289.15
630.263	1333.13
630.461	1276.16
630.66	1308.71
630.858	1349.21
631.056	1362.38
631.254	1361.22
631.453	1270.35
631.651	1323.25
631.849	1305.03
632.047	1321.7
632.245	1343.78
632.444	1338.16
632.642	1361.99
632.84	1355.6
633.038	1323.44
633.236	1323.05
633.434	1317.82
633.632	1330.03
633.83	1278.3
634.028	1372.26
634.227	1340.49
634.425	1388.93
634.623	1333.9
634.821	1353.86
635.019	1361.61
635.216	1348.04
635.414	1379.43
635.612	1330.61
635.81	1340.68
636.008	1407.14
636.206	1315.3
636.404	1403.84
636.602	1335.45
636.8	1327.9
636.997	1360.64
637.195	1342.23
637.393	1358.31
637.591	1417.79
637.789	1363.16
637.986	1318.01
638.184	1349.21
638.382	1377.49
638.58	1356.38
638.777	1376.33
638.975	1352.89
639.173	1310.85
639.37	1326.73
639.568	1343.39
639.765	1313.75
639.963	1313.36
640.161	1363.74
640.358	1337.97
640.556	1286.82
640.753	1282.75
640.951	1255.24
641.148	1291.08
641.346	1283.72
641.543	1249.23
641.741	1300.38
641.938	1232.96
642.136	1281.98
642.333	1229.67
642.531	1280.43
642.728	1299.03
642.925	1267.25
643.123	1266.48
643.32	1279.07
643.517	1203.51
643.715	1273.45
643.912	1234.12
644.109	1222.11
644.306	1238
644.504	1194.6
644.701	1202.35
644.898	1241.87
645.095	1213
645.293	1202.73
645.49	1199.05
645.687	1203.9
645.884	1209.71
646.081	1128.92
646.278	1142.87
646.475	1096.17
646.672	1126.4
646.87	1157.78
647.067	1136.28
647.264	1126.59
647.461	1077.77
647.658	1041.15
647.855	1127.56
648.052	1075.05
648.249	990.97
648.446	1067.31
648.642	1033.01
648.839	1034.37
649.036	1046.38
649.233	1021.19
649.43	1029.52
649.627	982.44
649.824	1072.54
650.021	993.1
650.217	1049.48
650.414	1033.98
650.611	1044.25
650.808	1035.14
651.004	1054.71
651.201	1085.71
651.398	1108.57
651.595	1067.11
651.791	1000.85
651.988	1041.15
652.185	1014.8
652.381	1025.07
652.578	985.35
652.775	1014.8
652.971	1033.79
653.168	1038.63
653.364	1076.99
653.561	994.65
653.757	1024.1
653.954	1014.22
654.15	985.35
654.347	1079.32
654.543	988.26
654.74	951.25
654.936	950.67
655.133	1006.08
655.329	1014.8
655.525	965.01
655.722	1014.02
655.918	930.91
656.115	971.21
656.311	863.87
656.507	832.48
656.704	810.2
656.9	861.55
657.096	883.25
657.292	859.41
657.489	941.56
657.685	923.74
657.881	884.02
658.077	914.44
658.273	916.18
658.47	1006.47
658.666	936.14
658.862	975.08
659.058	923.54
659.254	968.49
659.45	921.99
659.646	928.97
659.842	920.06
660.038	977.21
660.234	933.43
660.43	940.59
660.626	988.06
660.822	979.73
661.018	981.86
661.214	949.12
661.41	891.77
661.606	942.14
661.802	985.74
661.998	954.35
662.194	923.74
662.39	947.96
662.586	948.54
662.781	947.18
662.977	950.67
663.173	959.58
663.369	936.72
663.564	952.41
663.76	950.28
663.956	916.96
664.152	940.98
664.347	874.14
664.543	934.98
664.739	882.47
664.934	861.55
665.13	847.79
665.326	931.49
665.521	924.13
665.717	866.2
665.912	884.21
666.108	821.44
666.304	888.09
666.499	875.3
666.695	809.04
666.89	863.48
667.086	915.21
667.281	861.16
667.477	927.23
667.672	872.78
667.867	867.94
668.063	891.38
668.258	819.7
668.454	824.15
668.649	915.6
668.844	850.11
669.04	916.57
669.235	860.19
669.43	849.15
669.626	793.15
669.821	853.6
670.016	813.3
670.211	834.81
670.407	820.47
670.602	824.54
670.797	813.88
670.992	848.37
671.187	838.49
671.382	854.57
671.578	798.19
671.773	857.09
671.968	777.65
672.163	815.24
672.358	844.69
672.553	807.68
672.748	795.67
672.943	893.9
673.138	820.28
673.333	859.41
673.528	787.53
673.723	834.61
673.918	822.21
674.113	784.82
674.308	865.23
674.503	824.93
674.698	831.9
674.892	820.86
675.087	821.63
675.282	823.57
675.477	773.2
675.672	852.63
675.867	798.58
676.061	792.96
676.256	760.6
676.451	791.02
676.646	803.42
676.84	762.93
677.035	769.52
677.23	734.06
677.424	806.33
677.619	813.3
677.814	846.24
678.008	840.23
678.203	743.36
678.397	784.43
678.592	777.46
678.787	833.65
678.981	793.54
679.176	814.85
679.37	833.84
679.565	777.27
679.759	806.91
679.954	796.06
680.148	842.36
680.342	870.85
680.537	836.94
680.731	805.55
680.926	817.76
681.12	838.3
681.314	807.88
681.509	809.23
681.703	837.91
681.897	838.3
682.092	817.18
682.286	798.19
682.48	862.13
682.674	833.45
682.869	799.55
683.063	816.98
683.257	884.21
683.451	810.2
683.645	866
683.839	811.17
684.034	835.78
684.228	850.11
684.422	796.45
684.616	816.6
684.81	849.34
685.004	818.15
685.198	820.08
685.392	849.73
685.586	789.47
685.78	835.58
685.974	875.5
686.168	841.98
686.362	888.86
686.556	790.83
686.75	763.7
686.944	747.62
687.138	731.93
687.331	635.05
687.525	683.69
687.719	587.39
687.913	666.44
688.107	698.99
688.301	675.94
688.494	723.98
688.688	703.45
688.882	643.19
689.076	672.45
689.269	699.19
689.463	785.21
689.657	715.46
689.85	720.5
690.044	735.61
690.238	750.92
690.431	755.57
690.625	771.45
690.818	828.8
691.012	787.92
691.205	867.55
691.399	830.93
691.593	897.58
691.786	935.56
691.98	936.33
692.173	974.69
692.366	934.98
692.56	969.08
692.753	1032.24
692.947	992.71
693.14	1036.5
693.333	1011.51
693.527	989.03
693.72	1046.57
693.914	1033.98
694.107	1030.49
694.3	1100.24
694.493	1053.94
694.687	1124.85
694.88	1049.29
695.073	1151
695.266	1192.66
695.46	1153.72
695.653	1225.98
695.846	1208.35
696.039	1174.45
696.232	1235.87
696.425	1330.8
696.618	1305.03
696.812	1333.71
697.005	1419.73
697.198	1471.46
697.391	1440.07
697.584	1463.13
697.777	1531.33
697.97	1526.49
698.163	1517.96
698.356	1497.42
698.549	1591
698.742	1565.82
698.935	1537.92
699.127	1592.17
699.32	1555.35
699.513	1565.24
699.706	1601.08
699.899	1625.49
700.092	1598.75
700.285	1632.47
700.477	1566.98
700.67	1670.63
700.863	1693.88
701.056	1787.46
701.248	1716.55
701.441	1777.78
701.634	1756.85
701.826	1828.34
702.019	1755.3
702.212	1822.53
702.404	1781.65
702.597	1799.09
702.79	1850.24
702.982	1890.15
703.175	1927.74
703.367	1929.87
703.56	1984.5
703.752	2047.08
703.945	1991.87
704.137	2036.43
704.33	2075.76
704.522	2106.18
704.715	2127.49
704.907	2116.06
705.1	2191.23
705.292	2190.65
705.484	2183.1
705.677	2194.72
705.869	2221.26
706.061	2248.58
706.254	2325.5
706.446	2310.97
706.638	2261.37
706.831	2353.79
707.023	2355.53
707.215	2462.67
707.407	2412.3
707.599	2429.93
707.792	2511.69
707.984	2459.57
708.176	2514.6
708.368	2513.05
708.56	2557.22
708.752	2525.45
708.944	2564.97
709.136	2604.88
709.329	2591.9
709.521	2733.53
709.713	2656.81
709.905	2687.03
710.097	2740.89
710.289	2672.31
710.481	2728.69
710.672	2789.14
710.864	2752.13
711.056	2847.07
711.248	2842.03
711.44	2818.59
711.632	2842.42
711.824	2832.73
712.016	2915.85
712.207	2932.7
712.399	2892.21
712.591	2987.92
712.783	2969.9
712.975	2980.37
713.166	2939.29
713.358	2957.5
713.55	3014.27
713.741	3031.13
713.933	3051.66
714.125	3043.33
714.316	3007.1
714.508	3099.33
714.7	3062.71
714.891	3049.53
715.083	3108.63
715.274	3028.61
715.466	3121.22
715.657	3136.33
715.849	3046.63
716.04	3068.33
716.232	3017.18
716.423	3016.4
716.615	2937.55
716.806	2884.27
716.998	2818
717.189	2710.09
717.381	2589.19
717.572	2537.07
717.763	2530.29
717.955	2504.91
718.146	2459.96
718.337	2415.4
718.528	2394.09
718.72	2266.21
718.911	2338.67
719.102	2256.72
719.293	2327.05
719.485	2287.53
719.676	2244.51
719.867	2216.42
720.058	2240.83
720.249	2190.46
720.44	2246.26
720.632	2335.19
720.823	2388.08
721.014	2518.47
721.205	2575.43
721.396	2686.26
721.587	2796.5
721.778	2843.97
721.969	2923.4
722.16	3028.22
722.351	3028.41
722.542	3130.13
722.733	3187.29
722.924	3069.49
723.115	3124.13
723.305	3034.42
723.496	3084.21
723.687	2907.13
723.878	2928.25
724.069	2900.35
724.26	2926.31
724.45	2844.16
724.641	2829.63
724.832	2879.04
725.023	2849.39
725.213	2810.45
725.404	2802.12
725.595	2784.49
725.785	2760.46
725.976	2870.7
726.167	2834.28
726.357	2877.29
726.548	2948.2
726.739	2831.37
726.929	2973.2
727.12	3022.21
727.31	2979.4
727.501	2919.72
727.691	2903.64
727.882	2932.7
728.072	3009.43
728.263	3021.63
728.453	3063.48
728.644	3097
728.834	3065.42
729.024	2979.98
729.215	2966.22
729.405	3027.83
729.596	3099.13
729.786	3103.39
729.976	3124.13
730.167	3125.68
730.357	3089.44
730.547	3080.92
730.737	3171.4
730.928	3159.97
731.118	3213.44
731.308	3148.93
731.498	3193.49
731.688	3304.7
731.879	3293.85
732.069	3351.78
732.259	3395.57
732.449	3462.99
732.639	3510.65
732.829	3575.94
733.019	3629.03
733.209	3712.54
733.399	3688.9
733.589	3802.24
733.779	3857.85
733.969	3893.69
734.159	3931.47
734.349	3975.26
734.539	3990.56
734.729	4021.76
734.919	4083.17
735.109	4092.86
735.299	4008.39
735.488	4049.07
735.678	4078.72
735.868	4107.78
736.058	4030.09
736.248	4019.43
736.437	4019.82
736.627	3948.52
736.817	4093.64
737.007	4050.43
737.196	4112.04
737.386	4155.64
737.576	4049.27
737.765	4164.16
737.955	4123.09
738.144	4233.72
738.334	4193.8
738.524	4127.35
738.713	4189.74
738.903	4156.41
739.092	4170.55
739.282	4211.05
739.471	4201.55
739.661	4220.73
739.85	4289.9
740.04	4276.73
740.229	4345.51
740.419	4306.76
740.608	4393.94
740.797	4340.28
740.987	4377.09
741.176	4378.45
741.365	4366.82
741.555	4297.85
741.744	4390.07
741.933	4346.86
742.123	4403.63
742.312	4389.68
742.501	4415.06
742.69	4455.94
742.88	4391.04
743.069	4509.61
743.258	4449.55
743.447	4472.22
743.636	4489.46
743.825	4469.31
744.014	4485.97
744.204	4489.27
744.393	4444.32
744.582	4563.86
744.771	4580.91
744.96	4534.8
745.149	4519.69
745.338	4500.51
745.527	4577.42
745.716	4490.62
745.905	4526.86
746.094	4581.69
746.283	4571.03
746.471	4519.11
746.66	4568.32
746.849	4584.98
747.038	4606.87
747.227	4505.16
747.416	4549.14
747.604	4498.37
747.793	4488.88
747.982	4542.74
748.171	4607.26
748.359	4546.42
748.548	4570.84
748.737	4552.43
748.926	4565.02
749.114	4434.05
749.303	4573.35
749.491	4500.31
749.68	4476.09
749.869	4535.77
750.057	4436.96
750.246	4487.33
750.434	4445.68
750.623	4440.06
750.811	4423.59
751	4521.43
751.188	4468.15
751.377	4406.73
751.565	4397.63
751.754	4426.49
751.942	4385.81
752.131	4463.89
752.319	4444.32
752.507	4390.26
752.696	4427.08
752.884	4417.78
753.072	4407.89
753.261	4432.31
753.449	4403.63
753.637	4366.43
753.825	4454.59
754.014	4411.38
754.202	4358.88
754.39	4472.99
754.578	4423.98
754.766	4375.35
754.955	4384.06
755.143	4417.78
755.331	4379.8
755.519	4349.19
755.707	4342.99
755.895	4301.14
756.083	4356.36
756.271	4312.18
756.459	4343.57
756.647	4349.19
756.835	4287.77
757.023	4256.19
757.211	4293.78
757.399	4231.78
757.587	4270.53
757.775	4153.31
757.963	4218.6
758.151	4224.61
758.339	4160.48
758.526	4184.89
758.714	4214.34
758.902	4101.19
759.09	3954.33
759.278	3706.53
759.465	3415.33
759.653	2963.7
759.841	2694.01
760.028	2265.83
760.216	2012.6
760.404	1861.09
760.591	1527.45
760.779	1267.83
760.967	1110.7
761.154	911.34
761.342	930.52
761.529	913.28
761.717	971.21
761.905	944.28
762.092	1009.96
762.28	964.43
762.467	933.04
762.655	868.91
762.842	878.4
763.029	909.59
763.217	920.06
763.404	894.29
763.592	947.57
763.779	858.64
763.966	937.49
764.154	963.26
764.341	1042.7
764.528	1071.76
764.716	1119.04
764.903	1207.19
765.09	1267.45
765.277	1361.8
765.465	1494.91
765.652	1575.5
765.839	1708.8
766.026	1857.21
766.213	1942.46
766.4	2056.77
766.588	2244.9
766.775	2328.6
766.962	2440.2
767.149	2575.63
767.336	2731.98
767.523	2750.19
767.71	2884.65
767.897	3015.05
768.084	3103.39
768.271	3146.79
768.458	3263.24
768.645	3323.1
768.832	3327.95
769.019	3398.28
769.206	3397.31
769.392	3532.35
769.579	3583.89
769.766	3567.81
769.953	3546.69
770.14	3672.43
770.327	3655.77
770.513	3672.43
770.7	3776.86
770.887	3669.14
771.073	3712.15
771.26	3745.86
771.447	3701.88
771.634	3712.73
771.82	3817.93
772.007	3631.16
772.193	3755.16
772.38	3820.26
772.567	3722.22
772.753	3702.65
772.94	3801.66
773.126	3787.71
773.313	3778.02
773.499	3776.86
773.686	3756.52
773.872	3766.2
774.059	3761.94
774.245	3731.14
774.432	3741.4
774.618	3653.64
774.804	3712.92
774.991	3668.36
775.177	3744.31
775.363	3698
775.55	3659.06
775.736	3632.32
775.922	3714.67
776.109	3628.84
776.295	3710.21
776.481	3675.53
776.667	3684.83
776.853	3673.4
777.04	3627.48
777.226	3672.04
777.412	3702.85
777.598	3565.87
777.784	3603.26
777.97	3590.86
778.156	3629.22
778.342	3622.25
778.528	3570.52
778.715	3549.79
778.901	3558.51
779.087	3584.66
779.272	3517.82
779.458	3525.76
779.644	3554.63
779.83	3487.6
780.016	3616.63
780.202	3497.28
780.388	3537.19
780.574	3438.38
780.76	3461.05
780.946	3501.55
781.131	3537.58
781.317	3494.57
781.503	3439.55
781.689	3467.83
781.874	3578.85
782.06	3447.3
782.246	3477.33
782.432	3437.22
782.617	3499.03
782.803	3508.13
782.989	3388.2
783.174	3442.84
783.36	3371.54
783.545	3414.94
783.731	3385.1
783.916	3322.91
784.102	3382
784.288	3363.21
784.473	3327.95
784.659	3319.42
784.844	3321.94
785.029	3277.57
785.215	3265.95
785.4	3239.79
785.586	3324.85
785.771	3248.9
785.956	3320
786.142	3207.05
786.327	3274.28
786.512	3228.94
786.698	3221.19
786.883	3144.86
787.068	3199.88
787.254	3218.67
787.439	3209.18
787.624	3155.13
787.809	3187.67
787.994	3114.24
788.18	3216.74
788.365	3087.89
788.55	3102.04
788.735	3089.83
788.92	3085.18
789.105	3120.64
789.29	3072.59
789.475	3030.35
789.66	3047.4
789.845	3017.95
790.03	2968.35
790.215	3043.14
790.4	3035.58
790.585	3081.5
790.77	3005.75
790.955	2942.78
791.14	2984.63
791.325	3060.38
791.51	2878.45
791.695	2966.22
791.879	2969.52
792.064	2886.98
792.249	3024.93
792.434	2979.78
792.618	2963.12
792.803	3051.47
792.988	2968.74
793.173	2977.65
793.357	3015.43
793.542	2978.62
793.727	3007.1
793.911	3007.88
794.096	3009.81
794.281	3054.38
794.465	3070.07
794.65	3006.33
794.834	3083.63
795.019	3075.88
795.203	3114.83
795.388	3090.03
795.572	3082.66
795.757	3100.29
795.941	3050.31
796.126	2978.04
796.31	2994.51
796.494	3015.82
796.679	2978.23
796.863	2985.98
797.048	3079.37
797.232	3037.91
797.416	3005.94
797.601	3032.48
797.785	3103.2
797.969	3096.03
798.153	2990.25
798.338	3080.34
798.522	3090.99
798.706	3133.81
798.89	3084.41
799.074	3174.89
799.258	3187.67
799.443	3053.41
799.627	3073.95
799.811	3159.19
799.995	3071.62
800.179	3021.83
800.363	3022.6
800.547	3029.19
800.731	3101.07
800.915	3016.79
801.099	3029.19
801.283	3010.59
801.467	3028.22
801.651	3010.59
801.835	3065.81
802.019	3049.53
802.202	3038.49
802.386	2972.23
802.57	2978.82
802.754	3003.81
802.938	2933.28
803.121	2976.68
803.305	3057.09
803.489	2988.5
803.673	3009.62
803.856	3053.02
804.04	3002.06
804.224	3002.65
804.407	2979.01
804.591	2961.96
804.775	3009.62
804.958	3007.88
805.142	3080.73
805.326	3062.32
805.509	3028.61
805.693	3072.2
805.876	3048.37
806.06	3061.74
806.243	3111.73
806.427	3078.98
806.61	3096.03
806.794	3055.73
806.977	3084.41
807.16	3079.76
807.344	3100.68
807.527	3034.03
807.71	3011.36
807.894	3053.41
808.077	3047.79
808.26	2986.95
808.444	3006.71
808.627	3042.95
808.81	2992.76
808.993	2939.1
809.177	2902.29
809.36	2955.18
809.543	2966.22
809.726	2860.63
809.909	2853.27
810.092	2824.4
810.276	2848.62
810.459	2838.93
810.642	2818.97
810.825	2786.04
811.008	2756.78
811.191	2697.88
811.374	2687.03
811.557	2735.08
811.74	2782.94
811.923	2656.81
812.106	2649.64
812.289	2604.11
812.472	2586.09
812.654	2612.83
812.837	2557.22
813.02	2477.59
813.203	2444.07
813.386	2354.95
813.569	2287.14
813.751	2260.21
813.934	2280.94
814.117	2254.2
814.3	2212.74
814.482	2127.49
814.665	2125.94
814.848	2078.86
815.03	1996.52
815.213	2011.44
815.396	1988.57
815.578	1993.42
815.761	1936.65
815.943	1957.38
816.126	1868.06
816.309	1875.04
816.491	1797.54
816.674	1747.75
816.856	1784.17
817.039	1771.77
817.221	1872.71
817.403	1808.58
817.586	1795.21
817.768	1842.49
817.951	1753.95
818.133	1745.42
818.315	1765.76
818.498	1817.49
818.68	1883.37
818.862	1829.7
819.045	1902.36
819.227	1836.29
819.409	1835.71
819.591	1855.47
819.774	1827.57
819.956	1838.61
820.138	1941.69
820.32	1847.72
820.502	1950.21
820.684	2071.11
820.866	2026.55
821.048	2126.13
821.231	2133.11
821.413	2118.96
821.595	2068.78
821.777	2103.08
821.959	2100.37
822.141	2150.55
822.323	2016.67
822.505	1927.54
822.686	1852.37
822.868	1777.19
823.05	1649.32
823.232	1607.28
823.414	1549.15
823.596	1617.16
823.778	1599.92
823.96	1647.58
824.141	1640.6
824.323	1693.11
824.505	1776.03
824.687	1843.84
824.868	1870.39
825.05	1976.37
825.232	2068.2
825.413	2076.92
825.595	2038.75
825.777	2013.76
825.958	2049.6
826.14	2013.57
826.321	2064.33
826.503	2024.8
826.685	2095.52
826.866	2078.67
827.048	2072.08
827.229	2050.57
827.411	2003.69
827.592	1908.94
827.773	1909.72
827.955	1856.24
828.136	1864.19
828.318	1806.84
828.499	1864.19
828.68	1790.18
828.862	1845.2
829.043	1838.42
829.224	1789.59
829.406	1779.52
829.587	1802.38
829.768	1773.9
829.949	1811.49
830.131	1829.12
830.312	1881.62
830.493	1839.19
830.674	1874.65
830.855	1842.68
831.036	1814.78
831.218	1885.31
831.399	1892.86
831.58	1877.56
831.761	1836.29
831.942	1842.1
832.123	1840.55
832.304	1777
832.485	1821.95
832.666	1838.42
832.847	1847.33
833.028	1829.31
833.209	1836.29
833.389	1816.91
833.57	1795.02
833.751	1802.96
833.932	1873.49
834.113	1801.99
834.294	1811.29
834.475	1858.37
834.655	1917.66
834.836	1878.14
835.017	1849.66
835.198	1856.82
835.378	1873.87
835.559	1913.21
835.74	1857.6
835.92	1877.17
836.101	1868.84
836.281	1915.92
836.462	1905.84
836.643	1997.1
836.823	1948.66
837.004	1951.18
837.184	1968.04
837.365	1956.02
837.545	1987.8
837.726	1907.01
837.906	1975.59
838.087	1924.44
838.267	1981.6
838.448	1918.63
838.628	1929.67
838.808	1932.39
838.989	1972.3
839.169	1905.46
839.349	1968.23
839.53	1981.79
839.71	1964.35
839.89	1944.01
840.07	2006.79
840.251	1931.61
840.431	1977.53
840.611	1939.17
840.791	1903.71
840.971	1971.72
841.151	1942.27
841.332	1927.16
841.512	1952.54
841.692	1896.35
841.872	1947.11
842.052	1904.49
842.232	1981.6
842.412	1885.69
842.592	1915.34
842.772	1926.77
842.952	1946.72
843.132	1891.31
843.312	1902.55
843.492	1868.06
843.672	1893.44
843.851	1838.23
844.031	1887.44
844.211	1873.49
844.391	1858.76
844.571	1891.31
844.751	1893.83
844.93	1879.11
845.11	1848.88
845.29	1870.77
845.47	1899.45
845.649	1896.74
845.829	1931.61
846.009	1885.31
846.188	1887.24
846.368	1897.12
846.547	1862.06
846.727	1927.74
846.907	1839
847.086	1877.94
847.266	1933.16
847.445	1844.62
847.625	1874.26
847.804	1876.01
847.984	1876.01
848.163	1851.01
848.343	1820.59
848.522	1832.99
848.701	1888.21
848.881	1784.75
849.06	1825.44
849.239	1797.93
849.419	1814.2
849.598	1749.49
849.777	1706.67
849.957	1734.38
850.136	1672.38
850.315	1693.11
850.494	1666.76
850.674	1710.35
850.853	1718.68
851.032	1721.78
851.211	1764.8
851.39	1708.41
851.569	1668.12
851.748	1651.84
851.927	1718.3
852.107	1660.95
852.286	1675.28
852.465	1691.95
852.644	1747.75
852.823	1740.19
853.002	1708.03
853.181	1726.05
853.359	1700.08
853.538	1652.03
853.717	1686.71
853.896	1621.42
854.075	1529.97
854.254	1503.24
854.433	1406.56
854.611	1491.22
854.79	1366.45
854.969	1494.32
855.148	1509.24
855.327	1454.61
855.505	1494.13
855.684	1518.15
855.863	1541.4
856.041	1494.91
856.22	1584.8
856.399	1566.79
856.577	1644.28
856.756	1630.92
856.934	1737.48
857.113	1737.67
857.291	1599.14
857.47	1608.05
857.648	1629.75
857.827	1655.91
858.005	1689.23
858.184	1555.74
858.362	1687.1
858.541	1619.48
858.719	1621.03
858.898	1579.38
859.076	1597.98
859.254	1644.09
859.433	1608.05
859.611	1588.87
859.789	1519.9
859.967	1601.66
860.146	1686.91
860.324	1551.09
860.502	1610.77
860.68	1541.99
860.859	1552.25
861.037	1537.34
861.215	1566.01
861.393	1551.67
861.571	1550.32
861.749	1546.05
861.927	1540.63
862.105	1550.12
862.283	1532.49
862.461	1567.95
862.639	1484.06
862.817	1525.71
862.995	1532.1
863.173	1517.77
863.351	1558.65
863.529	1505.76
863.707	1556.52
863.885	1546.44
864.063	1453.25
864.241	1482.89
864.418	1530.17
864.596	1489.29
864.774	1463.71
864.952	1480.57
865.129	1542.76
865.307	1468.94
865.485	1446.86
865.663	1489.48
865.84	1398.42
866.018	1449.18
866.196	1288.18
866.373	1317.05
866.551	1290.31
866.728	1251.56
866.906	1296.12
867.084	1303.29
867.261	1342.04
867.439	1347.85
867.616	1368
867.794	1333.32
867.971	1362.77
868.149	1390.48
868.326	1406.36
868.503	1419.15
868.681	1391.44
868.858	1395.13
869.035	1369.55
869.213	1437.17
869.39	1412.18
869.567	1443.37
869.745	1390.86
869.922	1381.95
870.099	1384.08
870.276	1411.79
870.454	1401.33
870.631	1385.24
870.808	1385.44
870.985	1396.09
871.162	1452.67
871.339	1387.96
871.517	1361.41
871.694	1322.08
871.871	1339.91
872.048	1334.29
872.225	1371.68
872.402	1362.38
872.579	1309.68
872.756	1368.39
872.933	1297.86
873.11	1288.95
873.287	1371.1
873.463	1353.86
873.64	1320.92
873.817	1326.15
873.994	1347.46
874.171	1305.23
874.348	1306
874.524	1281.98
874.701	1292.83
874.878	1231.8
875.055	1309.1
875.231	1285.27
875.408	1297.67
875.585	1220.75
875.762	1294.38
875.938	1273.84
876.115	1264.15
876.291	1227.73
876.468	1245.75
876.645	1216.3
876.821	1237.61
876.998	1225.98
877.174	1252.53
877.351	1234.9
877.527	1199.25
877.704	1259.5
877.88	1247.68
878.057	1243.03
878.233	1244.39
878.409	1204.09
878.586	1251.75
878.762	1183.36
878.938	1205.64
879.115	1161.66
879.291	1190.14
879.467	1150.23
879.644	1155.85
879.82	1184.13
879.996	1175.03
880.172	1142.48
880.349	1185.3
880.525	1193.82
880.701	1105.09
880.877	1166.5
881.053	1155.46
881.229	1173.87
881.405	1194.79
881.581	1144.8
881.757	1170.38
881.933	1153.72
882.109	1198.28
882.285	1167.08
882.461	1129.89
882.637	1180.65
882.813	1093.65
882.989	1143.84
883.165	1208.55
883.341	1157.59
883.517	1155.65
883.693	1160.5
883.869	1186.27
884.044	1145.39
884.22	1184.72
884.396	1194.6
884.572	1175.61
884.747	1202.73
884.923	1184.33
885.099	1179.87
885.275	1182.39
885.45	1147.71
885.626	1148.29
885.801	1125.43
885.977	1125.82
886.153	1081.84
886.328	1162.05
886.504	1099.66
886.679	1165.15
886.855	1118.07
887.03	1156.82
887.206	1154.49
887.381	1155.07
887.557	1148.29
887.732	1145.97
887.908	1148.87
888.083	1162.05
888.258	1124.07
888.434	1125.43
888.609	1136.09
888.784	1177.55
888.96	1158.75
889.135	1129.5
889.31	1125.62
889.485	1149.26
889.661	1147.13
889.836	1158.17
890.011	1176.77
890.186	1146.55
890.361	1091.14
890.537	1149.07
890.712	1160.5
890.887	1157.4
891.062	1112.06
891.237	1202.73
891.412	1095.2
891.587	1159.53
891.762	1201.77
891.937	1144.61
892.112	1112.45
892.287	1109.35
892.462	1081.25
892.637	1060.72
892.812	1040.57
892.987	1059.17
893.161	1059.94
893.336	1058.97
893.511	1041.92
893.686	1052.58
893.861	1039.02
894.035	1006.66
894.21	1025.46
894.385	975.28
894.56	1003.76
894.734	957.26
894.909	934.2
895.084	903.78
895.258	909.4
895.433	902.04
895.608	877.24
895.782	854.38
895.957	857.86
896.131	876.08
896.306	800.52
896.48	781.14
896.655	791.99
896.829	722.43
897.004	726.7
897.178	732.7
897.353	729.99
897.527	786.37
897.701	764.09
897.876	709.65
898.05	766.61
898.224	777.65
898.399	774.94
898.573	730.96
898.747	637.19
898.921	657.72
899.096	563.76
899.27	593.4
899.444	587.78
899.618	623.62
899.792	660.05
899.967	647.26
900.141	718.95
900.315	646.1
900.489	665.09
900.663	631.57
900.837	630.41
901.011	621.3
901.185	673.42
901.359	634.47
901.533	652.3
901.707	665.67
901.881	661.21
902.055	593.01
902.229	634.28
902.403	679.42
902.576	652.88
902.75	658.3
902.924	740.07
903.098	701.9
903.272	750.53
903.446	761.38
903.619	765.45
903.793	816.01
903.967	805.75
904.14	854.18
904.314	834.81
904.488	801.68
904.661	849.73
904.835	792.18
905.009	871.62
905.182	860.19
905.356	830.93
905.529	810.01
905.703	794.51
905.876	798.38
906.05	748.78
906.223	778.23
906.397	674.58
906.57	663.92
906.744	649.78
906.917	616.07
907.09	671.29
907.264	613.94
907.437	603.09
907.61	573.64
907.784	617.23
907.957	604.25
908.13	568.02
908.304	630.41
908.477	563.37
908.65	570.15
908.823	529.66
908.996	597.66
909.17	537.6
909.343	551.16
909.516	543.61
909.689	534.11
909.862	526.75
910.035	546.51
910.208	548.64
910.381	505.83
910.554	613.74
910.727	564.34
910.9	540.31
911.073	531.98
911.246	573.06
911.419	604.64
911.592	569.96
911.765	556.2
911.938	542.44
912.11	542.25
912.283	552.13
912.456	607.16
912.629	532.95
912.802	535.47
912.974	499.63
913.147	457.58
913.32	395.58
913.493	458.94
913.665	432.2
913.838	473.08
914.01	475.79
914.183	492.65
914.356	468.82
914.528	525.78
914.701	562.01
914.873	517.84
915.046	452.93
915.218	449.25
915.391	381.83
915.563	375.82
915.736	437.82
915.908	457.58
916.081	452.93
916.253	486.84
916.425	484.13
916.598	466.69
916.77	487.42
916.942	434.33
917.115	378.73
917.287	460.88
917.459	407.21
917.632	384.15
917.804	365.75
917.976	425.23
918.148	436.46
918.32	417.86
918.493	474.44
918.665	504.47
918.837	479.86
919.009	569.37
919.181	535.28
919.353	550
919.525	485.48
919.697	516.48
919.869	541.09
920.041	567.24
920.213	614.13
920.385	550.97
920.557	547.87
920.729	545.54
920.901	505.44
921.073	532.76
921.244	499.63
921.416	540.31
921.588	517.64
921.76	497.88
921.932	587.59
922.103	495.94
922.275	525.59
922.447	543.99
922.619	444.21
922.79	509.31
922.962	476.18
923.134	523.26
923.305	485.09
923.477	427.36
923.648	441.5
923.82	452.35
923.991	382.21
924.163	405.66
924.335	423.29
924.506	429.88
924.677	463.78
924.849	417.48
925.02	453.71
925.192	467.08
925.363	437.24
925.535	428.91
925.706	413.99
925.877	481.03
926.049	424.65
926.22	438.98
926.391	442.47
926.562	457.78
926.734	423.29
926.905	483.74
927.076	376.6
927.247	400.43
927.419	351.22
927.59	358
927.761	353.73
927.932	323.51
928.103	333.78
928.274	314.02
928.445	276.82
928.616	335.72
928.787	289.41
928.958	300.26
929.129	301.23
929.3	293.09
929.471	246.2
929.642	214.04
929.813	172.58
929.984	258.02
930.155	168.9
930.326	230.12
930.496	201.84
930.667	120.46
930.838	174.71
931.009	143.91
931.18	153.21
931.35	140.42
931.521	142.94
931.692	104.19
931.863	80.55
932.033	85.2
932.204	126.27
932.374	124.14
932.545	28.24
932.716	128.21
932.886	128.41
933.057	51.49
933.227	59.63
933.398	135.38
933.568	60.98
933.739	26.69
933.909	30.56
934.08	75.9
934.25	-6.44
934.421	11.38
934.591	54.39
934.761	37.54
934.932	11.58
935.102	48
935.272	50.33
935.443	41.41
935.613	33.66
935.783	50.52
935.953	12.55
936.123	168.9
936.294	7.9
936.464	-1.79
936.634	43.16
936.804	2.47
936.974	-7.6
937.144	58.27
937.314	21.65
937.484	11.77
937.655	-8.57
937.825	84.43
937.995	5.38
938.165	67.76
938.334	30.95
938.504	41.8
938.674	34.05
938.844	41.8
939.014	102.44
939.184	92.76
939.354	143.52
939.524	115.81
939.694	91.4
939.863	85.39
940.033	129.18
940.203	139.26
940.373	98.38
940.542	119.88
940.712	97.79
940.882	106.32
941.051	122.79
941.221	103.99
941.391	126.66
941.56	58.27
941.73	74.35
941.899	172.58
942.069	92.37
942.238	117.94
942.408	68.34
942.577	115.23
942.747	91.4
942.916	48
943.086	60.01
943.255	108.45
943.425	89.08
943.594	64.86
943.763	15.06
943.933	20.1
944.102	10.03
944.271	52.46
944.441	65.24
944.61	57.69
944.779	66.21
944.948	143.13
945.117	40.64
945.287	55.36
945.456	15.06
945.625	44.51
945.794	72.99
945.963	41.03
946.132	55.17
946.301	43.54
946.47	90.24
946.639	6.54
946.808	45.29
946.977	58.66
947.146	111.74
947.315	50.71
947.484	89.66
947.653	60.98
947.822	41.8
947.991	27.85
948.16	120.46
948.329	92.37
948.498	71.25
948.666	57.88
948.835	81.13
949.004	22.62
949.173	13.51
949.341	61.76
949.51	62.34
949.679	90.82
949.847	85.59
950.016	140.42
950.185	109.42
950.353	45.68
950.522	45.29
950.69	131.31
950.859	69.7
951.028	96.63
951.196	81.52
951.365	40.83
951.533	74.54
951.701	114.65
951.87	88.3
952.038	18.16
952.207	67.18
952.375	106.51
952.543	70.28
952.712	52.26
952.88	70.48
953.048	135.77
953.217	51.49
953.385	43.35
953.553	95.28
953.721	19.33
953.89	76.48
954.058	20.3
954.226	43.35
954.394	56.91
954.562	35.02
954.73	49.94
954.898	56.53
955.067	89.08
955.235	45.09
955.403	106.9
955.571	120.07
955.739	87.14
955.907	32.5
956.075	41.61
956.243	41.41
956.41	82.1
956.578	21.84
956.746	10.22
956.914	47.03
957.082	109.81
957.25	84.81
957.418	58.66
957.585	75.9
957.753	108.45
957.921	54.78
958.089	59.63
958.256	81.91
958.424	84.23
958.592	71.44
958.759	35.21
958.927	89.46
959.095	40.06
959.262	44.32
959.43	77.45
959.597	61.37
959.765	60.79
959.932	30.37
960.1	100.89
960.267	59.43
960.435	49.16
960.602	82.1
960.77	63.31
960.937	36.76
961.104	97.41
961.272	30.18
961.439	89.27
961.606	69.51
961.774	125.31
961.941	73.96
962.108	94.31
962.275	87.14
962.443	104.58
962.61	111.16
962.777	139.64
962.944	104.19
963.111	96.24
963.278	88.49
963.446	86.36
963.613	89.46
963.78	99.34
963.947	111.16
964.114	95.28
964.281	156.5
964.448	112.13
964.615	79.19
964.782	95.28
964.949	105.74
965.116	134.8
965.282	127.24
965.449	81.71
965.616	61.18
965.783	131.12
965.95	88.3
966.117	68.34
966.283	69.7
966.45	110
966.617	109.81
966.784	133.25
966.95	118.33
967.117	151.27
967.284	80.55
967.45	80.74
967.617	140.81
967.784	139.26
967.95	166.57
968.117	120.85
968.283	165.41
968.45	176.84
968.616	119.3
968.783	161.15
968.949	135.19
969.116	169.48
969.282	122.98
969.449	136.16
969.615	106.71
969.781	79
969.948	116.59
970.114	74.54
970.28	149.33
970.447	124.92
970.613	195.25
970.779	119.11
970.945	158.63
971.112	141.97
971.278	145.84
971.444	129.37
971.61	168.12
971.776	116.97
971.942	152.24
972.108	140.22
972.275	104.38
972.441	136.54
972.607	196.8
972.773	94.89
972.939	130.92
973.105	99.15
973.271	89.27
973.437	127.44
973.602	105.74
973.768	122.98
973.934	102.25
974.1	122.01
974.266	30.56
974.432	107.48
974.598	81.91
974.763	134.41
974.929	99.34
975.095	149.52
975.261	66.99
975.426	70.09
975.592	80.74
975.758	161.34
975.923	53.81
976.089	84.81
976.255	123.37
976.42	133.25
976.586	142.55
976.751	100.89
976.917	173.55
977.082	121.43
977.248	62.53
977.413	47.03
977.579	82.29
977.744	73.77
977.91	71.64
978.075	94.11
978.24	112.32
978.406	96.63
978.571	69.12
978.736	73.19
978.902	127.24
979.067	88.3
979.232	50.71
979.397	108.45
979.563	142.74
979.728	80.55
979.893	101.67
980.058	83.84
980.223	99.34
980.388	114.07
980.554	107.09
980.719	81.71
980.884	99.34
981.049	135.57
981.214	74.93
981.379	101.28
981.544	95.28
981.709	93.34
981.874	65.83
982.039	89.46
982.204	109.61
982.368	102.06
982.533	68.34
982.698	111.94
982.863	127.24
983.028	82.1
983.193	109.22
983.357	104.38
983.522	114.26
983.687	79.97
983.852	68.15
984.016	89.27
984.181	102.83
984.346	114.26
984.51	148.17
984.675	112.71
984.839	134.02
985.004	111.36
985.168	123.37
985.333	114.26
985.498	116.2
985.662	136.93
985.827	122.59
985.991	82.49
986.155	79
986.32	122.59
986.484	157.08
986.649	106.13
986.813	63.69
986.977	115.23
987.142	128.79
987.306	74.74
987.47	86.75
987.634	92.56
987.799	91.21
987.963	81.91
988.127	134.22
988.291	184.01
988.455	82.68
988.62	99.34
988.784	118.14
988.948	133.44
989.112	64.66
989.276	102.83
989.44	94.89
989.604	90.43
989.768	77.06
989.932	146.23
990.096	83.65
990.26	71.83
990.424	43.54
990.588	70.28
990.752	123.95
990.915	96.05
991.079	105.74
991.243	66.6
991.407	111.94
991.571	108.06
991.734	83.26
991.898	119.3
992.062	152.04
992.226	75.71
992.389	80.36
992.553	40.83
992.717	33.66
992.88	65.83
993.044	80.55
993.207	89.85
993.371	98.38
993.535	89.46
993.698	70.48
993.862	99.15
994.025	119.88
994.189	96.83
994.352	85.98
994.515	92.95
994.679	97.6
994.842	80.36
995.006	110.97
995.169	65.24
995.332	66.02
995.496	109.42
995.659	42.19
995.822	54.59
995.985	79
996.149	122.59
996.312	82.1
996.475	139.45
996.638	77.45
996.801	101.28
996.964	158.63
997.128	57.11
997.291	72.61
997.454	66.02
997.617	58.85
997.78	127.63
997.943	62.14
998.106	104.19
998.269	63.69
998.432	95.66
998.595	82.49
998.758	30.95
998.92	81.52
999.083	26.88
999.246	70.48
999.409	51.88
999.572	24.36
999.735	68.54
999.897	108.64
1000.06	57.88
1000.223	65.44
1000.386	108.84
1000.548	80.94
1000.711	104.96
1000.874	92.37
1001.036	41.61
1001.199	88.3
1001.361	31.14
1001.524	76.87
1001.687	78.81
1001.849	32.31
1002.012	68.93
1002.174	64.47
1002.337	88.3
1002.499	66.6
1002.661	92.95
1002.824	39.67
1002.986	25.53
1003.149	50.33
1003.311	37.34
1003.473	112.71
1003.636	58.08
1003.798	65.24
1003.96	75.51
1004.123	59.24
1004.285	52.84
1004.447	46.45
1004.609	51.1
1004.771	109.81
1004.933	36.18
1005.096	27.66
1005.258	18.55
1005.42	21.07
1005.582	93.34
1005.744	55.94
1005.906	3.44
1006.068	44.71
1006.23	23.2
1006.392	10.8
1006.554	11.77
1006.716	92.76
1006.878	96.63
1007.04	16.03
1007.202	46.26
1007.363	78.81
1007.525	60.98
1007.687	61.37
1007.849	83.46
1008.011	-19.23
1008.172	40.44
1008.334	40.83
1008.496	70.09
1008.658	-1.99
1008.819	28.63
1008.981	10.22
1009.143	30.18
1009.304	33.28
1009.466	74.74
1009.627	86.75
1009.789	162.31
1009.95	78.42
1010.112	18.36
1010.273	45.68
1010.435	22.04
1010.596	28.43
1010.758	26.88
1010.919	16.42
1011.081	26.11
1011.242	45.48
1011.403	60.59
1011.565	35.41
1011.726	74.93
1011.887	20.3
1012.049	54.2
1012.21	65.83
1012.371	77.45
1012.532	-26.79
1012.693	43.93
1012.855	26.49
1013.016	54.59
1013.177	60.21
1013.338	61.37
1013.499	101.09
1013.66	34.83
1013.821	60.59
1013.982	22.43
1014.143	40.44
1014.304	24.75
1014.465	52.26
1014.626	68.34
1014.787	36.18
1014.948	86.17
1015.109	-32.02
1015.27	75.71
1015.431	7.51
1015.592	13.51
1015.752	91.79
1015.913	18.16
1016.074	60.21
1016.235	34.05
1016.395	38.31
1016.556	47.42
1016.717	3.25
1016.877	62.14
1017.038	14.87
1017.199	49.94
1017.359	39.28
1017.52	45.87
1017.681	23.59
1017.841	46.06
1018.002	23.39
1018.162	23.01
1018.323	61.56
1018.483	20.1
1018.644	19.91
1018.804	-7.99
1018.964	5.57
1019.125	-1.6
1019.285	20.49
1019.446	-17.1
1019.606	2.28
1019.766	-20.78
1019.926	47.81
1020.087	35.41
1020.247	-9.35
1020.407	39.48
1020.567	36.57
1020.728	31.73
1020.888	-19.23
1021.048	16.03
1021.208	-7.22
1021.368	-18.26
1021.528	71.06
1021.688	51.88
1021.848	36.96
1022.008	23.2
1022.168	35.79
1022.328	24.36
1022.488	37.93
1022.648	28.63
1022.808	8.48
1022.968	44.13
1023.128	3.63
1023.288	3.44
1023.448	35.99
1023.608	54.2
1023.767	43.74
1023.927	30.56
1024.087	11.77
1024.247	-3.73
1024.406	30.18
1024.566	-15.35
1024.726	-10.12
1024.885	38.7
1025.045	40.44
1025.205	17.78
1025.364	27.08
1025.524	25.14
1025.683	1.5
1025.843	25.14
1026.003	29.59
1026.162	79
1026.321	33.86
1026.481	31.92
1026.64	-13.61
1026.8	13.71
1026.959	11
1027.119	18.16
1027.278	-14.97
1027.437	17.58
1027.597	25.91
1027.756	38.7
1027.915	43.16
1028.074	32.69
1028.234	3.44
1028.393	34.24
1028.552	-4.12
1028.711	-52.17
1028.87	45.09
1029.03	10.41
1029.189	3.25
1029.348	-56.43
1029.507	27.85
1029.666	17.97
1029.825	-11.67
1029.984	-1.4
1030.143	29.21
1030.302	-3.73
1030.461	-38.6
1030.62	21.46
1030.779	35.02
1030.938	13.71
1031.097	-13.42
1031.255	49.94
1031.414	56.33
1031.573	46.84
1031.732	-14.58
1031.891	9.83
1032.049	67.18
1032.208	23.2
1032.367	-15.74
1032.525	23.59
1032.684	17.2
1032.843	2.08
1033.001	-43.64
1033.16	148.17
1033.319	49.94
1033.477	53.81
1033.636	-1.4
1033.794	-26.79
1033.953	3.63
1034.111	32.31
1034.27	-15.74
1034.428	45.48
1034.587	-24.27
1034.745	16.61
1034.903	9.83
1035.062	11.96
1035.22	-36.47
1035.378	30.76
1035.537	-35.31
1035.695	23.2
1035.853	31.92
1036.011	23.59
1036.17	17
1036.328	-56.43
1036.486	14.29
1036.644	17.58
1036.802	-31.82
1036.96	23.98
1037.119	-6.44
1037.277	2.86
1037.435	-18.65
1037.593	14.1
1037.751	16.61
1037.909	19.91
1038.067	19.91
