Data from gum_young_FLMT105791__11__17-38-10-045.txt Node

Date: Mon Mar 20 17:38:10 GMT 2023
User: antho
Spectrometer: FLMT10579
Trigger mode: 0
Integration Time (sec): 1.000000E-1
Scans to average: 10
Electric dark correction enabled: true
Nonlinearity correction enabled: false
Boxcar width: 0
XAxis mode: Wavelengths
Number of Pixels in Spectrum: 3648
>>>>>Begin Spectral Data<<<<<
345.248	-149.91
345.464	-149.91
345.681	-149.91
345.898	-148.36
346.114	-153.98
346.331	-27.08
346.548	28.34
346.764	0.05
346.981	-14.1
347.197	1.99
347.414	3.34
347.631	-10.61
347.847	38.02
348.064	0.63
348.28	18.84
348.497	-43.35
348.713	3.92
348.93	16.13
349.146	13.03
349.363	-15.45
349.579	5.86
349.796	9.93
350.012	-3.63
350.229	46.35
350.445	0.82
350.661	-11
350.878	-2.86
351.094	14.39
351.311	29.11
351.527	27.75
351.743	-21.07
351.96	6.25
352.176	33.18
352.392	30.66
352.609	36.86
352.825	-3.05
353.041	37.64
353.257	18.26
353.474	9.93
353.69	5.86
353.906	21.17
354.122	-1.11
354.339	56.04
354.555	7.02
354.771	-3.63
354.987	49.84
355.203	27.75
355.42	1.6
355.636	-20.1
355.852	-3.44
356.068	5.28
356.284	-27.85
356.5	63.79
356.716	30.27
356.932	10.9
357.148	54.49
357.364	-4.21
357.58	76.58
357.796	63.21
358.012	50.81
358.228	25.82
358.444	-35.6
358.66	51
358.876	25.82
359.092	-28.04
359.308	3.34
359.524	23.88
359.74	0.82
359.956	10.32
360.172	32.79
360.388	43.64
360.604	5.67
360.819	70.38
361.035	24.07
361.251	25.43
361.467	-7.51
361.683	52.75
361.898	7.8
362.114	20.59
362.33	3.73
362.546	38.99
362.762	17.49
362.977	41.51
363.193	2.37
363.409	27.75
363.624	11.29
363.84	1.02
364.056	-1.11
364.271	28.34
364.487	33.95
364.703	-0.73
364.918	-27.46
365.134	23.88
365.35	22.14
365.565	91.11
365.781	14.58
365.996	38.41
366.212	67.08
366.427	32.6
366.643	17.29
366.858	-13.71
367.074	-18.36
367.289	63.4
367.505	81.42
367.72	-48.58
367.936	10.7
368.151	39.38
368.367	35.31
368.582	25.43
368.798	4.89
369.013	53.91
369.228	14
369.444	14.77
369.659	48.49
369.874	27.95
370.09	45.77
370.305	-45.29
370.52	0.44
370.736	36.09
370.951	17.1
371.166	61.85
371.381	71.93
371.597	50.62
371.812	-9.06
372.027	-1.5
372.242	29.69
372.458	80.26
372.673	-13.9
372.888	10.7
373.103	21.94
373.318	95.76
373.533	41.9
373.749	45
373.964	-3.25
374.179	65.34
374.394	-8.48
374.609	62.05
374.824	-15.06
375.039	54.3
375.254	11.29
375.469	58.95
375.684	27.17
375.899	59.53
376.114	25.04
376.329	26.2
376.544	44.61
376.759	56.43
376.974	0.82
377.189	12.64
377.404	13.22
377.619	68.63
377.834	-35.79
378.049	4.31
378.264	-11
378.478	25.82
378.693	-1.31
378.908	42.48
379.123	22.52
379.338	52.55
379.553	32.02
379.767	55.46
379.982	42.29
380.197	54.69
380.412	10.51
380.626	57.2
380.841	100.99
381.056	42.48
381.271	106.8
381.485	16.32
381.7	21.17
381.915	28.92
382.129	11.48
382.344	27.56
382.559	3.15
382.773	92.66
382.988	-35.02
383.202	35.31
383.417	7.22
383.632	107.77
383.846	38.99
384.061	41.9
384.275	4.7
384.49	50.81
384.704	49.07
384.919	40.93
385.133	65.54
385.348	56.43
385.562	6.83
385.777	59.92
385.991	31.82
386.206	5.28
386.42	30.27
386.634	82.2
386.849	50.62
387.063	25.43
387.277	2.18
387.492	27.37
387.706	13.03
387.92	12.84
388.135	45.97
388.349	54.49
388.563	38.22
388.778	33.57
388.992	74.45
389.206	83.17
389.42	100.22
389.635	38.99
389.849	55.85
390.063	63.99
390.277	33.37
390.491	102.15
390.706	60.69
390.92	58.17
391.134	44.42
391.348	58.95
391.562	-6.54
391.776	51
391.99	21.94
392.205	60.5
392.419	24.07
392.633	11.09
392.847	72.9
393.061	12.45
393.275	54.49
393.489	44.61
393.703	45.19
393.917	101.96
394.131	39.96
394.345	63.4
394.559	68.83
394.773	26.2
394.986	57.2
395.2	51.39
395.414	78.13
395.628	40.35
395.842	31.44
396.056	32.79
396.27	18.26
396.484	48.87
396.697	43.25
396.911	71.35
397.125	45.97
397.339	76.77
397.553	50.81
397.766	98.47
397.98	84.52
398.194	79.1
398.408	51
398.621	73.48
398.835	69.8
399.049	65.15
399.262	107.97
399.476	82
399.69	100.02
399.903	138
400.117	77.93
400.331	87.04
400.544	42.48
400.758	159.31
400.971	67.08
401.185	133.73
401.398	32.99
401.612	125.6
401.826	106.42
402.039	96.34
402.253	47.32
402.466	103.32
402.68	75.61
402.893	96.92
403.106	90.53
403.32	53.33
403.533	75.22
403.747	63.79
403.96	81.42
404.174	97.89
404.387	48.49
404.6	68.44
404.814	101.38
405.027	90.53
405.24	105.25
405.454	92.66
405.667	112.23
405.88	37.05
406.094	122.11
406.307	116.68
406.52	106.42
406.733	65.34
406.947	46.16
407.16	121.33
407.373	129.28
407.586	51.2
407.799	64.37
408.012	105.64
408.226	74.06
408.439	144.58
408.652	70.77
408.865	127.73
409.078	130.05
409.291	128.5
409.504	72.12
409.717	120.75
409.93	121.72
410.143	101.38
410.357	34.54
410.57	90.33
410.783	86.85
410.996	104.48
411.209	103.9
411.421	135.09
411.634	93.43
411.847	78.9
412.06	129.08
412.273	117.85
412.486	120.56
412.699	185.27
412.912	118.62
413.125	133.73
413.338	106.22
413.55	145.17
413.763	109.52
413.976	134.9
414.189	95.57
414.402	109.71
414.615	151.37
414.827	77.74
415.04	159.11
415.253	139.93
415.466	132.77
415.678	143.62
415.891	128.31
416.104	113.78
416.316	130.05
416.529	87.82
416.742	136.25
416.954	155.82
417.167	126.18
417.38	97.31
417.592	165.9
417.805	112.03
418.017	71.73
418.23	144.39
418.442	106.8
418.655	132.96
418.868	127.92
419.08	166.09
419.293	176.55
419.505	126.76
419.718	141.29
419.93	147.49
420.142	97.7
420.355	150.78
420.567	182.56
420.78	162.02
420.992	143.81
421.205	211.81
421.417	100.02
421.629	126.95
421.842	136.83
422.054	104.87
422.266	167.06
422.479	201.35
422.691	119.01
422.903	145.55
423.115	102.15
423.328	153.11
423.54	146.72
423.752	134.51
423.964	136.64
424.177	140.32
424.389	131.02
424.601	234.48
424.813	164.73
425.025	179.65
425.238	195.54
425.45	163.18
425.662	137.22
425.874	410.21
426.086	161.25
426.298	190.11
426.51	147.49
426.722	155.63
426.934	150.2
427.146	159.89
427.358	114.94
427.57	192.05
427.782	121.33
427.994	154.27
428.206	146.91
428.418	123.47
428.63	183.91
428.842	161.44
429.054	150.4
429.266	181.98
429.478	137.22
429.69	160.28
429.902	106.42
430.114	175.58
430.325	187.01
430.537	123.66
430.749	148.07
430.961	91.3
431.173	138.77
431.384	141.29
431.596	82.58
431.808	148.46
432.02	150.01
432.231	203.87
432.443	211.81
432.655	174.23
432.867	143.62
433.078	182.75
433.29	226.15
433.502	195.15
433.713	224.21
433.925	166.67
434.136	249.4
434.348	148.65
434.56	121.33
434.771	263.93
434.983	134.51
435.194	152.53
435.406	185.66
435.617	201.93
435.829	244.94
436.04	221.11
436.252	203.29
436.463	239.13
436.675	208.33
436.886	208.52
437.098	221.11
437.309	247.08
437.521	190.89
437.732	231.38
437.943	205.81
438.155	229.06
438.366	175.2
438.578	258.31
438.789	225.18
439	241.07
439.211	188.37
439.423	212.59
439.634	209.88
439.845	211.81
440.057	217.82
440.268	235.65
440.479	204.06
440.69	221.11
440.902	222.66
441.113	224.02
441.324	207.36
441.535	236.23
441.746	280.01
441.957	195.73
442.168	212.98
442.38	286.21
442.591	268.78
442.802	206.39
443.013	251.53
443.224	266.45
443.435	219.37
443.646	246.88
443.857	225.76
444.068	238.16
444.279	203.68
444.49	295.9
444.701	230.41
444.912	335.04
445.123	292.61
445.334	270.33
445.545	280.4
445.756	244.75
445.967	245.14
446.178	268.19
446.388	270.71
446.599	277.88
446.81	274.01
447.021	246.88
447.232	313.34
447.443	317.79
447.653	253.66
447.864	298.81
448.075	262.96
448.286	322.06
448.496	290.28
448.707	331.16
448.918	265.29
449.129	356.54
449.339	260.44
449.55	310.43
449.761	281.95
449.971	324.38
450.182	275.56
450.393	303.65
450.603	270.91
450.814	323.03
451.024	318.96
451.235	335.04
451.446	358.09
451.656	362.55
451.867	282.34
452.077	313.14
452.288	352.47
452.498	357.9
452.709	309.08
452.919	313.34
453.13	309.66
453.34	362.36
453.55	260.25
453.761	332.91
453.971	324.96
454.182	325.74
454.392	347.82
454.602	383.28
454.813	351.89
455.023	359.64
455.233	303.07
455.444	308.3
455.654	259.48
455.864	297.84
456.075	352.86
456.285	342.01
456.495	347.24
456.705	357.32
456.916	375.14
457.126	402.66
457.336	361
457.546	328.26
457.756	333.49
457.967	388.51
458.177	338.72
458.387	299.97
458.597	316.83
458.807	336.78
459.017	344.72
459.227	334.65
459.437	325.35
459.647	386.96
459.857	361.58
460.068	351.31
460.278	390.45
460.488	372.24
460.698	431.33
460.908	366.23
461.117	337.36
461.327	352.86
461.537	358.67
461.747	391.81
461.957	352.09
462.167	448.38
462.377	397.81
462.587	407.31
462.797	440.63
463.007	377.66
463.216	389.87
463.426	437.53
463.636	420.29
463.846	335.62
464.056	345.89
464.265	420.87
464.475	364.87
464.685	402.27
464.895	419.7
465.104	389.67
465.314	408.27
465.524	404.79
465.733	384.06
465.943	460.2
466.153	437.72
466.362	461.75
466.572	403.04
466.782	378.05
466.991	405.95
467.201	454.77
467.41	341.43
467.62	397.23
467.829	389.48
468.039	420.09
468.249	401.11
468.458	410.02
468.668	409.05
468.877	452.45
469.086	490.81
469.296	485
469.505	411.96
469.715	482.09
469.924	443.92
470.134	460.59
470.343	481.51
470.552	430.17
470.762	423.58
470.971	414.47
471.18	416.02
471.39	449.54
471.599	420.09
471.808	462.14
472.018	419.51
472.227	510.18
472.436	491.2
472.645	450.7
472.855	444.5
473.064	507.28
473.273	489.65
473.482	511.35
473.691	538.47
473.901	461.55
474.11	460.59
474.319	572.57
474.528	511.15
474.737	556.68
474.946	520.65
475.155	525.3
475.364	561.72
475.573	538.67
475.783	498.95
475.992	531.3
476.201	579.55
476.41	511.15
476.619	481.51
476.828	547.38
477.037	505.34
477.245	514.06
477.454	564.43
477.663	529.56
477.872	541.18
478.081	611.32
478.29	524.13
478.499	620.23
478.708	571.99
478.917	635.93
479.125	584
479.334	580.9
479.543	563.08
479.752	614.03
479.961	629.34
480.169	626.05
480.378	583.23
480.587	703.54
480.796	633.8
481.004	622.95
481.213	635.73
481.422	666.93
481.63	654.91
481.839	656.85
482.048	705.29
482.256	633.41
482.465	693.28
482.674	699.09
482.882	671.19
483.091	735.9
483.299	674.1
483.508	717.49
483.716	699.67
483.925	713.81
484.134	683.59
484.342	684.94
484.551	720.79
484.759	703.54
484.967	710.13
485.176	722.53
485.384	712.65
485.593	743.46
485.801	704.9
486.01	702.38
486.218	664.8
486.426	610.16
486.635	637.09
486.843	615.2
487.051	662.66
487.26	663.44
487.468	694.63
487.676	720.79
487.885	708.97
488.093	717.49
488.301	746.56
488.509	741.13
488.717	779.11
488.926	742.88
489.134	746.36
489.342	762.83
489.55	699.09
489.758	779.49
489.967	780.66
490.175	844.4
490.383	783.76
490.591	864.35
490.799	779.3
491.007	869.39
491.215	837.62
491.423	830.06
491.631	809.72
491.839	792.09
492.047	847.11
492.255	795.96
492.463	799.26
492.671	801.39
492.879	846.53
493.087	823.09
493.295	846.72
493.503	848.86
493.711	898.07
493.919	886.64
494.127	917.25
494.334	911.24
494.542	825.02
494.75	887.8
494.958	868.04
495.166	938.95
495.374	931.2
495.581	915.7
495.789	904.07
495.997	996.3
496.205	897.1
496.412	914.34
496.62	912.6
496.828	948.44
497.035	916.67
497.243	971.5
497.451	943.79
497.658	967.82
497.866	941.66
498.074	1003.66
498.281	920.54
498.489	1023.81
498.696	974.02
498.904	943.6
499.112	962.2
499.319	1046.28
499.527	981.77
499.734	1043.96
499.942	978.86
500.149	995.91
500.357	989.71
500.564	961.81
500.771	1018
500.979	994.55
501.186	960.26
501.394	999.98
501.601	954.83
501.808	1015.67
502.016	980.8
502.223	978.47
502.43	1012.18
502.638	1024.78
502.845	1021.1
503.052	1108.28
503.26	994.55
503.467	1122.04
503.674	1086.97
503.881	1070.89
504.089	1118.94
504.296	1090.85
504.503	1033.88
504.71	1078.25
504.917	1045.12
505.125	1124.94
505.332	1088.91
505.539	1114.29
505.746	1190.82
505.953	1197.99
506.16	1176.29
506.367	1254.76
506.574	1230.54
506.781	1234.99
506.988	1171.06
507.195	1197.99
507.402	1209.03
507.609	1246.23
507.816	1183.84
508.023	1207.67
508.23	1207.87
508.437	1149.74
508.644	1245.84
508.851	1282.27
509.058	1256.5
509.265	1266.77
509.472	1259.02
509.679	1392.7
509.885	1297.57
510.092	1356.86
510.299	1309.78
510.506	1304.16
510.713	1325.67
510.92	1345.43
511.126	1358.6
511.333	1402.58
511.54	1397.35
511.746	1464.39
511.953	1432.62
512.16	1451.99
512.367	1447.53
512.573	1402.97
512.78	1395.03
512.987	1431.84
513.193	1411.11
513.4	1384.18
513.606	1448.31
513.813	1432.23
514.02	1442.69
514.226	1513.02
514.433	1492.1
514.639	1408.4
514.846	1460.9
515.052	1457.42
515.259	1485.51
515.465	1522.51
515.672	1556.42
515.878	1613.77
516.085	1546.54
516.291	1588
516.497	1524.26
516.704	1537.24
516.91	1478.53
517.117	1421.57
517.323	1372.55
517.529	1431.26
517.736	1412.47
517.942	1496.94
518.148	1518.06
518.354	1545.18
518.561	1539.95
518.767	1522.9
518.973	1606.41
519.179	1604.86
519.386	1594.78
519.592	1601.76
519.798	1587.61
520.004	1730.21
520.21	1684.29
520.417	1743.77
520.623	1788.34
520.829	1782.33
521.035	1787.17
521.241	1808.1
521.447	1800.93
521.653	1923.96
521.859	1827.08
522.065	1872.42
522.271	1941.2
522.477	1934.81
522.683	1941.78
522.889	1872.23
523.095	1890.25
523.301	1927.64
523.507	1894.51
523.713	1954.76
523.919	1929.96
524.125	1971.23
524.331	1994.29
524.537	2089.61
524.742	2048.34
524.948	2098.72
525.154	2083.22
525.36	2180.48
525.566	2103.37
525.772	2166.53
525.977	2054.16
526.183	2157.23
526.389	2153.74
526.595	2053.58
526.8	2021.8
527.006	1988.28
527.212	1944.88
527.417	1909.62
527.623	1935.58
527.829	2074.11
528.034	2055.13
528.24	2070.24
528.446	2111.51
528.651	2170.79
528.857	2186.29
529.062	2230.47
529.268	2252.55
529.473	2293.05
529.679	2276.77
529.884	2378.49
530.09	2316.49
530.295	2294.4
530.501	2324.24
530.706	2275.8
530.912	2301.77
531.117	2313.2
531.323	2353.88
531.528	2411.43
531.733	2372.87
531.939	2362.41
532.144	2393.21
532.35	2376.75
532.555	2367.06
532.76	2355.43
532.966	2356.6
533.171	2334.51
533.376	2291.11
533.581	2289.75
533.787	2326.95
533.992	2397.67
534.197	2390.7
534.402	2393.6
534.607	2405.42
534.813	2472.46
535.018	2408.33
535.223	2392.05
535.428	2419.56
535.633	2509.27
535.838	2557.71
536.043	2509.46
536.249	2555.96
536.454	2544.72
536.659	2559.84
536.864	2522.25
537.069	2488.15
537.274	2525.93
537.479	2488.15
537.684	2512.17
537.889	2474.2
538.094	2581.34
538.299	2527.87
538.504	2606.34
538.708	2611.95
538.913	2588.9
539.118	2582.7
539.323	2555.96
539.528	2545.89
539.733	2525.54
539.938	2601.88
540.142	2512.37
540.347	2517.02
540.552	2498.23
540.757	2460.44
540.962	2456.18
541.166	2429.25
541.371	2463.35
541.576	2489.31
541.781	2441.46
541.985	2556.35
542.19	2526.9
542.395	2623.19
542.599	2653.42
542.804	2584.44
543.008	2638.11
543.213	2562.55
543.418	2560.42
543.622	2620.29
543.827	2582.89
544.031	2633.46
544.236	2639.85
544.44	2649.93
544.645	2702.24
544.849	2688.1
545.054	2681.32
545.258	2700.5
545.463	2706.31
545.667	2593.55
545.872	2682.48
546.076	2692.17
546.281	2634.04
546.485	2638.11
546.689	2678.41
546.894	2693.91
547.098	2731.3
547.302	2614.28
547.507	2688.29
547.711	2696.04
547.915	2705.15
548.119	2619.51
548.324	2630.55
548.528	2709.99
548.732	2672.4
548.936	2689.26
549.141	2690.23
549.345	2658.84
549.549	2728.01
549.753	2736.73
549.957	2802.41
550.161	2788.26
550.366	2789.43
550.57	2713.48
550.774	2734.4
550.978	2735.18
551.182	2784.78
551.386	2709.99
551.59	2697.2
551.794	2677.83
551.998	2708.83
552.202	2730.72
552.406	2699.53
552.61	2771.22
552.814	2730.33
553.018	2782.06
553.222	2667.75
553.426	2718.13
553.63	2811.71
553.833	2722.2
554.037	2663.3
554.241	2750.87
554.445	2783.61
554.649	2717.35
554.853	2726.85
555.056	2794.08
555.26	2771.8
555.464	2765.98
555.668	2753.2
555.871	2753.58
556.075	2776.45
556.279	2716.38
556.483	2666.79
556.686	2698.37
556.89	2699.33
557.094	2683.45
557.297	2594.32
557.501	2693.13
557.704	2594.71
557.908	2658.84
558.112	2608.47
558.315	2691
558.519	2649.93
558.722	2613.31
558.926	2598.78
559.129	2525.16
559.333	2553.25
559.536	2506.36
559.74	2539.11
559.943	2506.75
560.147	2511.21
560.35	2527.67
560.553	2576.5
560.757	2551.7
560.96	2603.62
561.164	2566.62
561.367	2646.64
561.57	2568.75
561.774	2571.66
561.977	2537.36
562.18	2514.5
562.384	2653.03
562.587	2508.11
562.79	2573.59
562.993	2505.98
563.197	2558.48
563.4	2609.05
563.603	2611.37
563.806	2572.62
564.009	2479.43
564.212	2523.8
564.416	2440.88
564.619	2525.54
564.822	2461.99
565.025	2500.94
565.228	2454.24
565.431	2527.67
565.634	2382.56
565.837	2441.65
566.04	2431.58
566.243	2394.38
566.446	2288.98
566.649	2424.21
566.852	2299.44
567.055	2339.55
567.258	2398.83
567.461	2422.47
567.664	2399.8
567.867	2350.01
568.07	2336.64
568.273	2339.16
568.475	2369.38
568.678	2313.39
568.881	2339.35
569.084	2264.95
569.287	2167.11
569.489	2225.43
569.692	2260.69
569.895	2275.22
570.098	2194.24
570.3	2171.76
570.503	2158.01
570.706	2148.12
570.909	2137.47
571.111	2107.63
571.314	2062.29
571.516	2114.41
571.719	2134.56
571.922	2089.61
572.124	2112.47
572.327	2142.12
572.529	2084.57
572.732	2117.9
572.935	2171.18
573.137	2177.77
573.34	2125.26
573.542	2149.29
573.745	2134.17
573.947	2123.52
574.15	2101.04
574.352	2094.07
574.554	2144.64
574.757	2040.01
574.959	2036.53
575.162	2079.73
575.364	2045.83
575.566	2126.62
575.769	2000.49
575.971	2065.98
576.173	1909.43
576.376	1996.61
576.578	2003.39
576.78	2038.08
576.982	1962.32
577.185	1992.16
577.387	1969.68
577.589	1979.18
577.791	1990.22
577.993	1991.96
578.196	2001.65
578.398	2003.59
578.6	1980.34
578.802	1887.73
579.004	1914.08
579.206	1908.26
579.408	1963.68
579.61	1916.01
579.812	1976.66
580.014	1915.63
580.216	1929.58
580.418	1960
580.62	1933.06
580.822	1885.98
581.024	1919.11
581.226	1996.03
581.428	1947.79
581.63	2023.16
581.832	1985.76
582.034	2014.83
582.236	1950.31
582.438	1984.99
582.64	2018.89
582.841	2017.54
583.043	2077.79
583.245	1966.58
583.447	1998.36
583.649	2011.14
583.85	1994.09
584.052	2022.38
584.254	1932.29
584.456	2003.39
584.657	1970.07
584.859	1994.48
585.061	1963.1
585.262	1947.4
585.464	1912.53
585.666	1940.43
585.867	1903.61
586.069	1983.05
586.27	1934.61
586.472	1918.15
586.674	1900.32
586.875	1898.38
587.077	1941.98
587.278	1908.65
587.48	1894.32
587.681	1979.76
587.883	1896.25
588.084	1827.86
588.285	1827.86
588.487	1812.75
588.688	1842.78
588.89	1730.6
589.091	1715.1
589.292	1726.92
589.494	1660.07
589.695	1635.47
589.896	1556.81
590.098	1563.39
590.299	1658.91
590.5	1654.65
590.702	1645.74
590.903	1685.84
591.104	1745.13
591.305	1729.24
591.507	1752.88
591.708	1718.01
591.909	1687.39
592.11	1783.49
592.311	1732.92
592.512	1705.99
592.714	1721.69
592.915	1704.06
593.116	1702.89
593.317	1717.81
593.518	1703.09
593.719	1751.91
593.92	1779.81
594.121	1750.17
594.322	1777.49
594.523	1757.14
594.724	1648.64
594.925	1695.14
595.126	1731.95
595.327	1700.18
595.528	1723.43
595.729	1730.79
595.929	1708.9
596.13	1737.57
596.331	1726.72
596.532	1710.45
596.733	1797.44
596.934	1765.47
597.135	1771.09
597.335	1753.65
597.536	1681.39
597.737	1719.36
597.938	1708.71
598.138	1764.89
598.339	1697.27
598.54	1737.38
598.74	1714.32
598.941	1725.37
599.142	1779.81
599.342	1721.49
599.543	1738.74
599.744	1730.6
599.944	1705.02
600.145	1695.34
600.345	1770.7
600.546	1802.09
600.746	1758.3
600.947	1798.8
601.147	1776.13
601.348	1773.61
601.548	1713.74
601.749	1734.47
601.949	1705.41
602.15	1703.67
602.35	1715.87
602.551	1728.47
602.751	1668.21
602.951	1684.87
603.152	1645.54
603.352	1722.27
603.552	1706.38
603.753	1761.02
603.953	1738.15
604.153	1758.5
604.354	1735.83
604.554	1712.39
604.754	1715.29
604.954	1699.02
605.155	1727.69
605.355	1719.94
605.555	1753.07
605.755	1740.09
605.955	1674.99
606.155	1752.49
606.356	1728.66
606.556	1714.32
606.756	1725.17
606.956	1666.47
607.156	1754.82
607.356	1674.41
607.556	1712.39
607.756	1697.86
607.956	1747.07
608.156	1698.82
608.356	1615.13
608.556	1696.69
608.756	1656.59
608.956	1641.28
609.156	1698.24
609.356	1633.73
609.556	1631.21
609.755	1661.24
609.955	1632.76
610.155	1619
610.355	1640.7
610.555	1604.47
610.755	1636.24
610.954	1597.11
611.154	1617.26
611.354	1642.44
611.554	1611.83
611.753	1583.74
611.953	1558.74
612.153	1612.8
612.352	1606.79
612.552	1574.05
612.752	1516.12
612.951	1582.96
613.151	1602.34
613.351	1547.12
613.55	1562.43
613.75	1602.73
613.949	1570.56
614.149	1571.53
614.348	1553.32
614.548	1495.97
614.747	1486.48
614.947	1532.59
615.146	1471.56
615.346	1563.39
615.545	1562.43
615.745	1546.54
615.944	1582.19
616.144	1514.18
616.343	1561.65
616.542	1523.87
616.742	1539.76
616.941	1477.37
617.14	1477.37
617.34	1488.22
617.539	1471.75
617.738	1455.87
617.938	1543.44
618.137	1464
618.336	1462.65
618.535	1511.08
618.734	1492.48
618.934	1502.95
619.133	1483.57
619.332	1525.81
619.531	1500.04
619.73	1490.93
619.929	1485.31
620.128	1474.27
620.328	1555.26
620.527	1458.77
620.726	1449.28
620.925	1517.28
621.124	1466.71
621.323	1498.68
621.522	1417.89
621.721	1431.07
621.92	1401.03
622.119	1475.05
622.318	1430.48
622.517	1445.02
622.715	1430.48
622.914	1366.55
623.113	1409.17
623.312	1372.94
623.511	1415.57
623.71	1380.69
623.909	1398.71
624.107	1497.71
624.306	1355.31
624.505	1367.71
624.704	1391.93
624.902	1341.75
625.101	1416.92
625.3	1359.77
625.499	1352.6
625.697	1382.43
625.896	1333.61
626.095	1374.1
626.293	1319.85
626.492	1306.87
626.69	1365.39
626.889	1336.71
627.088	1378.37
627.286	1315.2
627.485	1269.67
627.683	1318.11
627.882	1308.81
628.08	1241.77
628.279	1277.04
628.477	1288.86
628.676	1263.09
628.874	1291.18
629.073	1252.82
629.271	1209.42
629.469	1278.01
629.668	1272.58
629.866	1249.72
630.065	1233.44
630.263	1287.5
630.461	1222.79
630.66	1256.11
630.858	1300.09
631.056	1356.86
631.254	1320.44
631.453	1279.36
631.651	1313.46
631.849	1276.46
632.047	1296.02
632.245	1266.57
632.444	1288.47
632.642	1330.32
632.84	1323.54
633.038	1285.76
633.236	1246.81
633.434	1253.59
633.632	1275.49
633.83	1271.03
634.028	1330.32
634.227	1288.08
634.425	1356.28
634.623	1303
634.821	1306.49
635.019	1331.29
635.216	1265.41
635.414	1334.58
635.612	1301.25
635.81	1306.49
636.008	1337.68
636.206	1296.41
636.404	1322.18
636.602	1275.68
636.8	1271.42
636.997	1328.57
637.195	1291.57
637.393	1288.47
637.591	1322.37
637.789	1316.56
637.986	1266.57
638.184	1287.5
638.382	1330.7
638.58	1296.02
638.777	1355.89
638.975	1275.87
639.173	1287.89
639.37	1293.7
639.568	1308.62
639.765	1344.07
639.963	1267.74
640.161	1298.54
640.358	1307.45
640.556	1228.21
640.753	1247.97
640.951	1203.99
641.148	1243.71
641.346	1227.05
641.543	1249.33
641.741	1233.83
641.938	1200.12
642.136	1222.79
642.333	1173.58
642.531	1264.83
642.728	1260.76
642.925	1186.94
643.123	1193.73
643.32	1222.01
643.517	1171.06
643.715	1151.1
643.912	1200.31
644.109	1202.83
644.306	1154.39
644.504	1149.74
644.701	1184.43
644.898	1183.46
645.095	1113.13
645.293	1172.99
645.49	1167.18
645.687	1152.84
645.884	1159.04
646.081	1075.15
646.278	1078.64
646.475	1114.29
646.672	1054.23
646.87	1124.17
647.067	1093.56
647.264	1108.86
647.461	1047.64
647.658	999.78
647.855	1078.45
648.052	1047.83
648.249	979.63
648.446	1028.85
648.642	1038.34
648.839	981.38
649.036	984.87
649.233	958.71
649.43	992.62
649.627	966.27
649.824	1010.63
650.021	970.14
650.217	979.63
650.414	999.59
650.611	1013.54
650.808	996.1
651.004	1009.08
651.201	1017.03
651.398	1064.69
651.595	999.4
651.791	969.75
651.988	1009.86
652.185	963.94
652.381	1009.28
652.578	911.05
652.775	995.52
652.971	974.4
653.168	971.69
653.364	1027.49
653.561	946.89
653.757	995.13
653.954	961.81
654.15	957.93
654.347	1052.1
654.543	969.37
654.74	921.32
654.936	901.36
655.133	946.89
655.329	962.78
655.525	926.94
655.722	947.47
655.918	881.6
656.115	903.3
656.311	843.82
656.507	799.26
656.704	768.84
656.9	816.5
657.096	824.44
657.292	823.86
657.489	881.4
657.685	897.68
657.881	853.31
658.077	859.7
658.273	893.42
658.47	962.39
658.666	887.8
658.862	918.6
659.058	888.38
659.254	918.02
659.45	882.76
659.646	906.4
659.842	885.86
660.038	922.48
660.234	883.73
660.43	877.72
660.626	983.32
660.822	932.17
661.018	940.88
661.214	888.38
661.41	854.09
661.606	918.41
661.802	911.24
661.998	869.97
662.194	846.34
662.39	897.49
662.586	908.34
662.781	894.97
662.977	935.65
663.173	877.34
663.369	867.26
663.564	860.29
663.76	919.77
663.956	859.32
664.152	904.46
664.347	805.46
664.543	881.79
664.739	823.86
664.934	783.95
665.13	796.74
665.326	891.29
665.521	846.72
665.717	793.06
665.912	783.56
666.108	771.94
666.304	806.04
666.499	804.87
666.695	738.42
666.89	838.97
667.086	853.12
667.281	788.02
667.477	838.59
667.672	811.27
667.867	838.39
668.063	794.61
668.258	784.92
668.454	796.74
668.649	849.82
668.844	804.1
669.04	809.91
669.235	787.24
669.43	770.19
669.626	749.08
669.821	772.32
670.016	720.98
670.211	766.12
670.407	738.23
670.602	770.58
670.797	728.93
670.992	788.02
671.187	721.95
671.382	781.82
671.578	739.78
671.773	766.12
671.968	702.19
672.163	776.97
672.358	755.86
672.553	750.24
672.748	722.92
672.943	816.69
673.138	746.94
673.333	759.15
673.528	686.88
673.723	776.39
673.918	707.61
674.113	711.29
674.308	797.9
674.503	766.9
674.698	773.49
674.892	745.2
675.087	757.21
675.282	724.08
675.477	742.29
675.672	757.41
675.867	765.93
676.061	694.83
676.256	690.37
676.451	715.75
676.646	751.59
676.84	721.18
677.035	703.54
677.23	726.6
677.424	736.48
677.619	739.97
677.814	780.85
678.008	773.49
678.203	675.06
678.397	690.18
678.592	698.51
678.787	766.51
678.981	727.96
679.176	757.21
679.37	730.48
679.565	695.02
679.759	680.29
679.954	748.11
680.148	792.09
680.342	772.91
680.537	729.31
680.731	704.32
680.926	748.11
681.12	706.64
681.314	704.32
681.509	701.99
681.703	704.32
681.897	734.74
682.092	697.15
682.286	726.41
682.48	780.66
682.674	754.11
682.869	722.53
683.063	743.65
683.257	786.08
683.451	703.93
683.645	788.99
683.839	714.98
684.034	740.36
684.228	774.84
684.422	709.36
684.616	725.05
684.81	776.39
685.004	738.03
685.198	749.85
685.392	777.17
685.586	766.9
685.78	800.61
685.974	801.77
686.168	796.16
686.362	825.99
686.556	746.36
686.75	690.37
686.944	698.31
687.138	711.49
687.331	576.06
687.525	596.6
687.719	564.24
687.913	616.94
688.107	658.98
688.301	640.58
688.494	672.16
688.688	622.56
688.882	658.6
689.076	618.49
689.269	673.51
689.463	751.01
689.657	706.06
689.85	703.93
690.044	704.9
690.238	744.62
690.431	720.59
690.625	758.96
690.818	795.57
691.012	793.64
691.205	846.53
691.399	847.5
691.593	877.72
691.786	915.89
691.98	933.91
692.173	940.3
692.366	961.42
692.56	987
692.753	1013.93
692.947	940.11
693.14	1028.65
693.333	1015.87
693.527	988.74
693.72	1032.53
693.914	1024.2
694.107	1021.68
694.3	1047.45
694.493	1020.52
694.687	1102.86
694.88	1030.2
695.073	1142.96
695.266	1135.99
695.46	1154.39
695.653	1146.64
695.846	1208.26
696.039	1153.62
696.232	1179.19
696.425	1244.1
696.618	1280.91
696.812	1317.14
697.005	1327.6
697.198	1451.6
697.391	1371.59
697.584	1419.44
697.777	1460.32
697.97	1438.82
698.163	1459.93
698.356	1457.03
698.549	1571.53
698.742	1489.77
698.935	1465.75
699.127	1490.55
699.32	1446.95
699.513	1452.57
699.706	1510.31
699.899	1554.48
700.092	1522.71
700.285	1546.54
700.477	1477.18
700.67	1565.33
700.863	1585.09
701.056	1645.74
701.248	1609.12
701.441	1659.88
701.634	1628.88
701.826	1742.61
702.019	1625.01
702.212	1702.12
702.404	1668.02
702.597	1670.73
702.79	1695.92
702.982	1729.82
703.175	1773.8
703.367	1788.72
703.56	1835.42
703.752	1913.88
703.945	1854.21
704.137	1900.51
704.33	1856.92
704.522	1921.05
704.715	1930.74
704.907	1957.67
705.1	1960.58
705.292	1960
705.484	1977.82
705.677	2031.68
705.869	2029.55
706.061	2081.47
706.254	2121.58
706.446	2066.56
706.638	2060.94
706.831	2155.29
707.023	2114.99
707.215	2183.39
707.407	2208.38
707.599	2168.27
707.792	2247.32
707.984	2203.92
708.176	2258.75
708.368	2219.62
708.56	2280.45
708.752	2257.01
708.944	2247.52
709.136	2325.4
709.329	2282
709.521	2438.36
709.713	2337.8
709.905	2338.77
710.097	2446.88
710.289	2354.66
710.481	2401.35
710.672	2433.71
710.864	2450.18
711.056	2467.61
711.248	2449.4
711.44	2481.18
711.632	2448.24
711.824	2508.88
712.016	2568.75
712.207	2547.63
712.399	2551.12
712.591	2586.38
712.783	2568.56
712.975	2601.88
713.166	2544.72
713.358	2595.1
713.55	2672.79
713.741	2647.6
713.933	2656.32
714.125	2659.23
714.316	2621.06
714.508	2689.45
714.7	2679.77
714.891	2673.76
715.083	2719.68
715.274	2672.6
715.466	2665.43
715.657	2716.77
715.849	2618.74
716.04	2668.14
716.232	2598.59
716.423	2609.63
716.615	2540.07
716.806	2481.76
716.998	2442.81
717.189	2332.77
717.381	2284.52
717.572	2183.39
717.763	2230.85
717.955	2191.52
718.146	2123.52
718.337	2082.44
718.528	2038.85
718.72	2001.65
718.911	1996.03
719.102	1965.42
719.293	1994.09
719.485	1971.04
719.676	1967.94
719.867	1927.64
720.058	1949.53
720.249	1947.21
720.44	1950.7
720.632	2016.76
720.823	2093.1
721.014	2210.12
721.205	2257.78
721.396	2352.91
721.587	2429.25
721.778	2489.12
721.969	2542.4
722.16	2597.42
722.351	2596.46
722.542	2758.62
722.733	2749.32
722.924	2676.67
723.115	2659.42
723.305	2657.29
723.496	2644.89
723.687	2500.36
723.878	2551.51
724.069	2520.89
724.26	2539.88
724.45	2445.72
724.641	2455.79
724.832	2449.21
725.023	2472.84
725.213	2457.34
725.404	2402.13
725.595	2435.26
725.785	2427.12
725.976	2459.86
726.167	2464.51
726.357	2459.09
726.548	2586.96
726.739	2467.61
726.929	2586.57
727.12	2578.05
727.31	2560.22
727.501	2515.86
727.691	2580.76
727.882	2536.01
728.072	2586.96
728.263	2626.49
728.453	2674.54
728.644	2659.42
728.834	2666.01
729.024	2616.8
729.215	2621.45
729.405	2645.09
729.596	2721.62
729.786	2731.11
729.976	2728.78
730.167	2725.68
730.357	2709.99
730.547	2725.88
730.737	2735.37
730.928	2810.16
731.118	2829.53
731.308	2794.27
731.498	2805.12
731.688	2849.88
731.879	2919.82
732.069	2928.54
732.259	3002.16
732.449	3043.82
732.639	3079.27
732.829	3129.84
733.019	3175.57
733.209	3284.06
733.399	3237.95
733.589	3320.49
733.779	3355.17
733.969	3339.48
734.159	3437.51
734.349	3439.64
734.539	3516.75
734.729	3498.93
734.919	3516.95
735.109	3564.8
735.299	3505.52
735.488	3553.76
735.678	3505.32
735.868	3541.55
736.058	3500.29
736.248	3553.95
736.437	3486.72
736.627	3471.61
736.817	3617.31
737.007	3528.77
737.196	3610.72
737.386	3628.74
737.576	3556.86
737.765	3641.72
737.955	3600.84
738.144	3721.55
738.334	3676.98
738.524	3573.52
738.713	3652.76
738.903	3639.2
739.092	3672.91
739.282	3718.06
739.471	3725.81
739.661	3666.13
739.85	3772.89
740.04	3760.68
740.229	3800.21
740.419	3769.79
740.608	3812.41
740.797	3772.69
740.987	3822.87
741.176	3831.01
741.365	3776.57
741.555	3770.18
741.744	3886.81
741.933	3814.16
742.123	3839.34
742.312	3863.76
742.501	3943.97
742.69	3904.25
742.88	3850.39
743.069	3997.63
743.258	3904.64
743.447	3938.74
743.636	3970.9
743.825	3937.19
744.014	3973.22
744.204	3981.55
744.393	3936.6
744.582	3996.67
744.771	4047.23
744.96	3971.87
745.149	3990.08
745.338	3950.55
745.527	4051.3
745.716	3985.04
745.905	3941.25
746.094	4051.69
746.283	4003.06
746.471	4005
746.66	4084.24
746.849	4068.93
747.038	4029.8
747.227	3986.4
747.416	4031.54
747.604	3985.82
747.793	4005.58
747.982	3994.34
748.171	4042
748.359	4016.23
748.548	4011.2
748.737	3974.77
748.926	3978.65
749.114	3937.77
749.303	3972.64
749.491	4027.08
749.68	3955.59
749.869	3988.53
750.057	3977.29
750.246	3973.42
750.434	3959.66
750.623	3962.37
750.811	3943.19
751	3966.05
751.188	3911.42
751.377	3924.01
751.565	3916.65
751.754	3909.67
751.942	3850.39
752.131	3957.14
752.319	3885.07
752.507	3856.2
752.696	3972.45
752.884	3910.06
753.072	3845.16
753.261	3910.45
753.449	3906.19
753.637	3880.42
753.825	3935.44
754.014	3868.02
754.202	3899.6
754.39	3941.64
754.578	3877.12
754.766	3844.19
754.955	3831.21
755.143	3969.74
755.331	3868.21
755.519	3841.47
755.707	3849.22
755.895	3850
756.083	3844.38
756.271	3779.09
756.459	3841.47
756.647	3855.23
756.835	3801.18
757.023	3802.34
757.211	3816.29
757.399	3787.03
757.587	3776.18
757.775	3715.73
757.963	3743.05
758.151	3742.66
758.339	3687.64
758.526	3717.67
758.714	3698.88
758.902	3602.2
759.09	3456.89
759.278	3286
759.465	2975.62
759.653	2583.28
759.841	2352.53
760.028	2027.03
760.216	1754.43
760.404	1627.91
760.591	1328.77
760.779	1104.8
760.967	975.37
761.154	828.51
761.342	830.64
761.529	844.59
761.717	906.2
761.905	883.73
762.092	955.03
762.28	889.15
762.467	839.17
762.655	773.29
762.842	803.71
763.029	811.66
763.217	842.85
763.404	828.32
763.592	868.04
763.779	817.08
763.966	869.97
764.154	925
764.341	956.38
764.528	985.06
764.716	1046.28
764.903	1113.9
765.09	1195.47
765.277	1219.11
765.465	1422.73
765.652	1481.25
765.839	1561.46
766.026	1706.96
766.213	1780.59
766.4	1876.68
766.588	2066.56
766.775	2127.78
766.962	2195.4
767.149	2334.32
767.336	2472.07
767.523	2461.99
767.71	2612.73
767.897	2699.14
768.084	2791.36
768.271	2833.41
768.458	2944.43
768.645	3035.68
768.832	2966.71
769.019	3038.2
769.206	3091.09
769.392	3124.03
769.579	3246.48
769.766	3174.6
769.953	3193.2
770.14	3252.1
770.327	3211.41
770.513	3307.89
770.7	3350.71
770.887	3307.31
771.073	3310.99
771.26	3340.25
771.447	3274.57
771.634	3304.21
771.82	3445.07
772.007	3321.26
772.193	3404.19
772.38	3348.58
772.567	3289.49
772.753	3338.89
772.94	3360.4
773.126	3332.5
773.313	3413.87
773.499	3348
773.686	3365.63
773.872	3309.44
774.059	3358.27
774.245	3330.76
774.432	3315.84
774.618	3221.29
774.804	3319.13
774.991	3276.12
775.177	3302.66
775.363	3300.34
775.55	3315.26
775.736	3284.65
775.922	3279.61
776.109	3273.41
776.295	3256.94
776.481	3284.06
776.667	3304.6
776.853	3264.11
777.04	3267.98
777.226	3261.98
777.412	3335.02
777.598	3232.14
777.784	3221.87
777.97	3188.16
778.156	3221.87
778.342	3211.99
778.528	3154.45
778.715	3128.48
778.901	3165.49
779.087	3199.4
779.272	3133.72
779.458	3150.57
779.644	3151.93
779.83	3149.8
780.016	3213.73
780.202	3142.24
780.388	3177.7
780.574	3022.31
780.76	3102.52
780.946	3125
781.131	3132.36
781.317	3100
781.503	3124.8
781.689	3103.3
781.874	3205.21
782.06	3072.1
782.246	3152.51
782.432	3061.84
782.617	3071.72
782.803	3141.85
782.989	3041.88
783.174	3075.59
783.36	3009.91
783.545	3039.75
783.731	3014.56
783.916	2935.9
784.102	3050.02
784.288	2985.69
784.473	3007.01
784.659	2977.56
784.844	3010.3
785.029	2941.13
785.215	2973.29
785.4	2898.7
785.586	2995.19
785.771	2924.08
785.956	2973.1
786.142	2951.59
786.327	2916.33
786.512	2898.51
786.698	2932.61
786.883	2821.59
787.068	2868.09
787.254	2884.56
787.439	2831.66
787.624	2800.66
787.809	2840.58
787.994	2823.33
788.18	2881.65
788.365	2763.47
788.55	2789.04
788.735	2797.76
788.92	2762.3
789.105	2739.63
789.29	2735.76
789.475	2686.16
789.66	2733.63
789.845	2697.4
790.03	2659.04
790.215	2723.55
790.4	2733.82
790.585	2745.64
790.77	2708.25
790.955	2616.6
791.14	2670.08
791.325	2714.45
791.51	2654.39
791.695	2666.01
791.879	2659.23
792.064	2637.92
792.249	2748.93
792.434	2659.81
792.618	2665.82
792.803	2718.13
792.988	2652.06
793.173	2668.92
793.357	2698.95
793.542	2654.97
793.727	2647.99
793.911	2702.43
794.096	2700.88
794.281	2688.1
794.465	2758.62
794.65	2704.18
794.834	2739.83
795.019	2759.98
795.203	2781.48
795.388	2764.43
795.572	2784
795.757	2747.97
795.941	2745.25
796.126	2719.68
796.31	2617.96
796.494	2682.48
796.679	2679.57
796.863	2638.3
797.048	2729.95
797.232	2711.73
797.416	2738.28
797.601	2716.58
797.785	2745.45
797.969	2762.5
798.153	2711.15
798.338	2763.08
798.522	2796.98
798.706	2780.9
798.89	2796.4
799.074	2858.01
799.258	2778.58
799.443	2752.62
799.627	2737.31
799.811	2811.13
799.995	2755.33
800.179	2717.16
800.363	2721.62
800.547	2736.15
800.731	2751.07
800.915	2671.63
801.099	2699.14
801.283	2732.66
801.467	2727.62
801.651	2664.27
801.835	2799.31
802.019	2755.33
802.202	2737.31
802.386	2665.04
802.57	2678.41
802.754	2700.88
802.938	2655.16
803.121	2651.48
803.305	2747
803.489	2697.4
803.673	2707.28
803.856	2705.53
804.04	2665.62
804.224	2724.52
804.407	2676.09
804.591	2671.63
804.775	2723.55
804.958	2739.25
805.142	2750.68
805.326	2728.2
805.509	2721.23
805.693	2753.97
805.876	2748.16
806.06	2744.09
806.243	2772.38
806.427	2818.49
806.61	2790.2
806.794	2729.95
806.977	2749.13
807.16	2737.12
807.344	2743.51
807.527	2753.97
807.71	2703.98
807.894	2711.35
808.077	2737.7
808.26	2732.08
808.444	2733.43
808.627	2718.9
808.81	2657.68
808.993	2617.96
809.177	2612.54
809.36	2646.25
809.543	2655.35
809.726	2534.84
809.909	2587.54
810.092	2555.19
810.276	2560.81
810.459	2549.57
810.642	2568.36
810.825	2490.28
811.008	2515.27
811.191	2370.74
811.374	2462.96
811.557	2418.21
811.74	2515.86
811.923	2389.34
812.106	2380.04
812.289	2348.85
812.472	2338.96
812.654	2362.41
812.837	2323.08
813.02	2247.9
813.203	2225.62
813.386	2088.06
813.569	2091.94
813.751	2067.91
813.934	2068.69
814.117	2046.21
814.3	1994.48
814.482	1942.56
814.665	1895.67
814.848	1865.06
815.03	1860.22
815.213	1818.56
815.396	1798.22
815.578	1776.9
815.761	1759.08
815.943	1825.15
816.126	1688.56
816.309	1695.34
816.491	1623.65
816.674	1571.53
816.856	1604.08
817.039	1632.95
817.221	1708.12
817.403	1658.33
817.586	1645.16
817.768	1666.66
817.951	1582.96
818.133	1563.59
818.315	1595.17
818.498	1653.29
818.68	1714.13
818.862	1686.04
819.045	1711.81
819.227	1704.64
819.409	1657.94
819.591	1699.6
819.774	1687.78
819.956	1636.24
820.138	1720.52
820.32	1697.86
820.502	1777.1
820.684	1842.97
820.866	1849.75
821.048	1940.23
821.231	1916.01
821.413	1920.47
821.595	1887.34
821.777	1898.77
821.959	1887.73
822.141	1955.15
822.323	1812.17
822.505	1781.55
822.686	1708.32
822.868	1581.22
823.05	1508.56
823.232	1472.72
823.414	1389.8
823.596	1489.38
823.778	1469.62
823.96	1507.79
824.141	1513.21
824.323	1549.25
824.505	1618.03
824.687	1686.04
824.868	1736.02
825.05	1795.7
825.232	1785.43
825.413	1893.54
825.595	1849.37
825.777	1804.8
825.958	1841.62
826.14	1835.61
826.321	1864.48
826.503	1836
826.685	1901.87
826.866	1903.42
827.048	1871.45
827.229	1839.1
827.411	1815.07
827.592	1720.72
827.773	1708.12
827.955	1694.76
828.136	1683.13
828.318	1642.83
828.499	1701.34
828.68	1647.29
828.862	1679.45
829.043	1668.79
829.224	1617.64
829.406	1625.39
829.587	1623.46
829.768	1650.39
829.949	1667.82
830.131	1661.04
830.312	1699.6
830.493	1661.04
830.674	1648.84
830.855	1684.29
831.036	1616.87
831.218	1730.99
831.399	1746.1
831.58	1662.01
831.761	1633.73
831.942	1688.94
832.123	1646.12
832.304	1625.01
832.485	1649.22
832.666	1653.29
832.847	1709.09
833.028	1650.77
833.209	1702.89
833.389	1630.04
833.57	1584.9
833.751	1616.48
833.932	1671.12
834.113	1662.4
834.294	1667.44
834.475	1709.87
834.655	1712.58
834.836	1707.16
835.017	1714.71
835.198	1664.72
835.378	1699.79
835.559	1757.14
835.74	1696.11
835.92	1700.18
836.101	1698.82
836.281	1735.44
836.462	1735.44
836.643	1723.04
836.823	1756.95
837.004	1754.24
837.184	1784.07
837.365	1790.66
837.545	1751.52
837.726	1756.95
837.906	1819.72
838.087	1754.24
838.267	1760.24
838.448	1702.7
838.628	1764.5
838.808	1771.87
838.989	1806.35
839.169	1733.12
839.349	1775.55
839.53	1749
839.71	1781.36
839.89	1718.2
840.07	1803.64
840.251	1751.72
840.431	1763.54
840.611	1749.39
840.791	1695.14
840.971	1771.48
841.151	1729.63
841.332	1730.99
841.512	1800.74
841.692	1712
841.872	1758.5
842.052	1736.02
842.232	1749.39
842.412	1688.75
842.592	1757.14
842.772	1767.02
842.952	1770.7
843.132	1705.02
843.312	1694.37
843.492	1713.94
843.672	1719.94
843.851	1689.14
844.031	1701.54
844.211	1706.38
844.391	1720.91
844.571	1738.35
844.751	1685.26
844.93	1738.54
845.11	1701.15
845.29	1707.16
845.47	1749.39
845.649	1733.12
845.829	1702.31
846.009	1686.81
846.188	1722.27
846.368	1696.5
846.547	1704.06
846.727	1722.27
846.907	1659.49
847.086	1680.03
847.266	1723.04
847.445	1686.23
847.625	1642.83
847.804	1650.19
847.984	1668.99
848.163	1641.47
848.343	1640.7
848.522	1656.97
848.701	1687.01
848.881	1631.21
849.06	1647.29
849.239	1654.07
849.419	1658.52
849.598	1552.16
849.777	1563.01
849.957	1545.57
850.136	1503.14
850.315	1495
850.494	1492.87
850.674	1501.59
850.853	1560.29
851.032	1540.34
851.211	1593.81
851.39	1539.56
851.569	1506.24
851.748	1541.5
851.927	1564.94
852.107	1541.7
852.286	1517.67
852.465	1497.71
852.644	1575.41
852.823	1529.68
853.002	1529.88
853.181	1551.96
853.359	1537.05
853.538	1471.95
853.717	1521.74
853.896	1435.91
854.075	1346.4
854.254	1367.32
854.433	1303.97
854.611	1353.18
854.79	1284.01
854.969	1355.7
855.148	1398.52
855.327	1321.21
855.505	1362.09
855.684	1358.22
855.863	1417.31
856.041	1378.56
856.22	1429.71
856.399	1414.98
856.577	1481.44
856.756	1453.93
856.934	1567.08
857.113	1554.09
857.291	1478.73
857.47	1473.88
857.648	1499.26
857.827	1484.54
858.005	1479.89
858.184	1432.03
858.362	1524.65
858.541	1457.22
858.719	1440.37
858.898	1469.62
859.076	1436.1
859.254	1497.71
859.433	1435.13
859.611	1431.45
859.789	1364.03
859.967	1470.01
860.146	1513.41
860.324	1419.83
860.502	1423.9
860.68	1383.6
860.859	1410.33
861.037	1400.65
861.215	1405.49
861.393	1425.45
861.571	1425.83
861.749	1384.57
861.927	1445.98
862.105	1422.35
862.283	1387.08
862.461	1372.36
862.639	1375.46
862.817	1401.23
862.995	1391.73
863.173	1330.7
863.351	1377.98
863.529	1403.94
863.707	1439.59
863.885	1391.93
864.063	1314.62
864.241	1328.38
864.418	1392.32
864.596	1357.83
864.774	1306.49
864.952	1321.79
865.129	1356.86
865.307	1300.48
865.485	1274.91
865.663	1341.94
865.84	1265.61
866.018	1291.95
866.196	1153.43
866.373	1161.76
866.551	1109.06
866.728	1103.83
866.906	1156.72
867.084	1175.9
867.261	1212.52
867.439	1199.15
867.616	1241.97
867.794	1221.04
867.971	1246.04
868.149	1263.28
868.326	1304.74
868.503	1299.12
868.681	1278.97
868.858	1259.41
869.035	1235.96
869.213	1259.6
869.39	1229.96
869.567	1286.34
869.745	1250.49
869.922	1275.29
870.099	1266.57
870.276	1276.07
870.454	1266.77
870.631	1277.62
870.808	1255.14
870.985	1275.1
871.162	1304.94
871.339	1218.52
871.517	1207.67
871.694	1212.13
871.871	1215.23
872.048	1219.11
872.225	1229.96
872.402	1244.29
872.579	1188.3
872.756	1251.27
872.933	1179.58
873.11	1208.26
873.287	1206.32
873.463	1176.48
873.64	1201.09
873.817	1205.16
873.994	1203.61
874.171	1162.14
874.348	1194.31
874.524	1124.75
874.701	1153.62
874.878	1089.88
875.055	1137.93
875.231	1154.59
875.408	1201.28
875.585	1118.16
875.762	1135.6
875.938	1167.38
876.115	1141.22
876.291	1133.47
876.468	1113.13
876.645	1093.95
876.821	1110.61
876.998	1133.28
877.174	1121.84
877.351	1139.28
877.527	1094.91
877.704	1104.8
877.88	1112.16
878.057	1086
878.233	1141.61
878.409	1110.03
878.586	1126.88
878.762	1117
878.938	1095.5
879.115	1029.81
879.291	1107.31
879.467	1059.46
879.644	1079.22
879.82	1099.56
879.996	1066.24
880.172	1022.45
880.349	1062.56
880.525	1069.53
880.701	1019.55
880.877	1055.97
881.053	1049.38
881.229	1032.33
881.405	1083.1
881.581	1017.22
881.757	1042.8
881.933	1058.3
882.109	1086.97
882.285	1019.74
882.461	1035.24
882.637	1049.58
882.813	1000.75
882.989	1016.25
883.165	1096.66
883.341	1009.08
883.517	1082.51
883.693	1067.6
883.869	1066.63
884.044	1056.55
884.22	1055.78
884.396	1066.24
884.572	1076.7
884.747	1056.36
884.923	1083.48
885.099	1066.43
885.275	1075.35
885.45	1015.67
885.626	1040.86
885.801	984.67
885.977	1009.47
886.153	967.04
886.328	1040.66
886.504	1009.67
886.679	1020.32
886.855	1018.77
887.03	1044.54
887.206	1042.21
887.381	1047.45
887.557	1047.45
887.732	1034.08
887.908	1045.51
888.083	1068.18
888.258	1044.35
888.434	1028.07
888.609	1011.99
888.784	1099.95
888.96	1049.96
889.135	1011.02
889.31	1016.83
889.485	1032.33
889.661	1042.8
889.836	1061.4
890.011	1038.73
890.186	1017.03
890.361	997.65
890.537	1077.09
890.712	1019.74
890.887	1029.23
891.062	1025.94
891.237	1105.18
891.412	997.27
891.587	1023.42
891.762	1059.07
891.937	1041.83
892.112	967.04
892.287	1006.76
892.462	962.2
892.637	969.37
892.812	934.1
892.987	961.62
893.161	949.22
893.336	962.39
893.511	954.45
893.686	951.73
893.861	936.04
894.035	929.84
894.21	946.5
894.385	876.56
894.56	914.54
894.734	851.57
894.909	856.41
895.084	840.72
895.258	830.26
895.433	823.28
895.608	842.46
895.782	783.17
895.957	792.28
896.131	764.19
896.306	731.83
896.48	723.11
896.655	724.47
896.829	652.01
897.004	682.81
897.178	673.13
897.353	665.18
897.527	691.14
897.701	710.71
897.876	635.73
898.05	715.56
898.224	692.31
898.399	728.73
898.573	656.08
898.747	569.28
898.921	601.25
899.096	537.89
899.27	543.9
899.444	541.96
899.618	606.67
899.792	606.48
899.967	593.69
900.141	623.72
900.315	580.32
900.489	583.42
900.663	612.29
900.837	580.13
901.011	535.76
901.185	631.66
901.359	582.26
901.533	622.36
901.707	601.05
901.881	607.64
902.055	555.13
902.229	582.45
902.403	648.91
902.576	590.4
902.75	601.83
902.924	656.46
903.098	627.21
903.272	697.15
903.446	746.56
903.619	714.78
903.793	715.17
903.967	731.64
904.14	774.84
904.314	759.34
904.488	736.87
904.661	788.79
904.835	772.32
905.009	768.45
905.182	842.27
905.356	775.62
905.529	744.81
905.703	715.17
905.876	714.78
906.05	710.33
906.223	651.23
906.397	624.3
906.57	610.74
906.744	590.01
906.917	598.73
907.09	607.25
907.264	547.77
907.437	556.1
907.61	509.02
907.784	569.86
907.957	529.37
908.13	534.4
908.304	591.56
908.477	504.95
908.65	498.95
908.823	482.29
908.996	542.93
909.17	498.95
909.343	515.8
909.516	531.69
909.689	496.82
909.862	503.79
910.035	532.08
910.208	509.8
910.381	470.47
910.554	557.65
910.727	506.89
910.9	497.98
911.073	512.7
911.246	565.79
911.419	553.2
911.592	542.54
911.765	501.08
911.938	483.45
912.11	521.62
912.283	511.54
912.456	573.35
912.629	504.95
912.802	479.77
912.974	429.78
913.147	393.94
913.32	373.59
913.493	421.84
913.665	437.14
913.838	460.78
914.01	424.16
914.183	468.53
914.356	438.3
914.528	482.67
914.701	530.14
914.873	480.54
915.046	427.45
915.218	419.9
915.391	340.27
915.563	383.28
915.736	408.86
915.908	437.92
916.081	444.89
916.253	419.7
916.425	460
916.598	456.9
916.77	454.39
916.942	418.35
917.115	330.19
917.287	442.76
917.459	398.59
917.632	392.97
917.804	360.03
917.976	423.97
918.148	419.32
918.32	445.67
918.493	454.19
918.665	479.38
918.837	455.55
919.009	526.07
919.181	513.09
919.353	458.84
919.525	466.4
919.697	463.49
919.869	468.14
920.041	540.6
920.213	587.49
920.385	521.62
920.557	487.71
920.729	513.28
920.901	500.69
921.073	492.17
921.244	469.69
921.416	529.75
921.588	450.51
921.76	462.91
921.932	549.13
922.103	497.59
922.275	466.98
922.447	495.65
922.619	415.25
922.79	466.4
922.962	453.03
923.134	474.92
923.305	405.37
923.477	413.89
923.648	391.42
923.82	400.52
923.991	366.23
924.163	373.59
924.335	386.57
924.506	367.2
924.677	433.65
924.849	373.01
925.02	416.02
925.192	444.12
925.363	431.52
925.535	411.76
925.706	379.41
925.877	441.99
926.049	367.97
926.22	411.57
926.391	403.62
926.562	420.29
926.734	363.13
926.905	401.88
927.076	351.31
927.247	362.36
927.419	342.4
927.59	336.97
927.761	308.11
927.932	292.61
928.103	318.18
928.274	296.68
928.445	279.82
928.616	303.84
928.787	279.04
928.958	287.57
929.129	282.53
929.3	259.67
929.471	225.57
929.642	201.55
929.813	160.47
929.984	228.67
930.155	148.46
930.326	227.9
930.496	172.48
930.667	123.85
930.838	169
931.009	141.48
931.18	134.32
931.35	136.83
931.521	158.92
931.692	118.04
931.863	95.57
932.033	123.85
932.204	115.91
932.374	125.6
932.545	85.49
932.716	132.57
932.886	115.91
933.057	58.56
933.227	82.58
933.398	122.88
933.568	51.97
933.739	36.47
933.909	46.55
934.08	64.37
934.25	-4.99
934.421	33.95
934.591	59.34
934.761	23.69
934.932	-1.89
935.102	59.72
935.272	37.64
935.443	19.81
935.613	17.29
935.783	78.9
935.953	-0.53
936.123	165.7
936.294	-11.58
936.464	16.71
936.634	40.74
936.804	4.12
936.974	11.29
937.144	65.15
937.314	54.69
937.484	27.95
937.655	25.62
937.825	62.05
937.995	7.02
938.165	85.1
938.334	57.01
938.504	69.02
938.674	49.84
938.844	59.72
939.014	106.22
939.184	101.96
939.354	114.17
939.524	139.74
939.694	77.74
939.863	84.52
940.033	148.27
940.203	151.75
940.373	112.23
940.542	113.78
940.712	86.85
940.882	123.27
941.051	126.57
941.221	120.95
941.391	143.03
941.56	80.26
941.73	82.2
941.899	169.96
942.069	76.77
942.238	107.77
942.408	56.24
942.577	118.23
942.747	96.53
942.916	16.13
943.086	64.95
943.255	106.8
943.425	93.63
943.594	60.3
943.763	8.57
943.933	50.04
944.102	8.38
944.271	58.95
944.441	59.92
944.61	53.33
944.779	41.51
944.948	153.11
945.117	31.82
945.287	63.79
945.456	32.99
945.625	35.12
945.794	82.97
945.963	31.44
946.132	89.37
946.301	54.3
946.47	91.88
946.639	-7.9
946.808	20.39
946.977	75.03
947.146	119.01
947.315	55.07
947.484	112.23
947.653	53.33
947.822	50.42
947.991	37.25
948.16	118.04
948.329	88.4
948.498	69.8
948.666	91.3
948.835	77.35
949.004	44.8
949.173	42.67
949.341	78.13
949.51	98.28
949.679	75.22
949.847	83.75
950.016	150.01
950.185	120.95
950.353	57.01
950.522	39.38
950.69	110.29
950.859	42.87
951.028	103.32
951.196	76.77
951.365	45.58
951.533	55.85
951.701	104.87
951.87	108.16
952.038	48.87
952.207	71.35
952.375	117.85
952.543	68.44
952.712	45.58
952.88	38.6
953.048	136.83
953.217	69.41
953.385	41.51
953.553	125.79
953.721	30.47
953.89	62.82
954.058	44.61
954.226	37.83
954.394	50.23
954.562	38.22
954.73	46.94
954.898	31.24
955.067	104.28
955.235	56.04
955.403	92.08
955.571	108.74
955.739	83.75
955.907	32.79
956.075	43.06
956.243	33.57
956.41	85.1
956.578	50.62
956.746	33.57
956.914	55.65
957.082	85.88
957.25	68.83
957.418	58.37
957.585	77.55
957.753	92.47
957.921	34.54
958.089	61.08
958.256	88.59
958.424	73.87
958.592	66.7
958.759	48.68
958.927	100.22
959.095	43.45
959.262	69.22
959.43	64.57
959.597	56.24
959.765	83.94
959.932	41.32
960.1	89.17
960.267	44.8
960.435	58.17
960.602	95.37
960.77	40.74
960.937	36.47
961.104	97.7
961.272	22.72
961.439	42.29
961.606	88.98
961.774	80.84
961.941	57.79
962.108	56.82
962.275	61.08
962.443	91.11
962.61	74.83
962.777	136.83
962.944	94.21
963.111	95.76
963.278	86.85
963.446	83.36
963.613	94.21
963.78	104.67
963.947	96.53
964.114	57.59
964.281	136.06
964.448	95.57
964.615	69.8
964.782	65.15
964.949	106.03
965.116	121.33
965.282	126.95
965.449	84.52
965.616	40.74
965.783	121.72
965.95	127.53
966.117	67.47
966.283	66.89
966.45	99.05
966.617	105.45
966.784	134.9
966.95	146.52
967.117	104.28
967.284	89.95
967.45	67.08
967.617	137.22
967.784	105.25
967.95	168.61
968.117	83.94
968.283	136.64
968.45	211.23
968.616	131.8
968.783	159.31
968.949	97.89
969.116	154.08
969.282	133.73
969.449	130.05
969.615	115.52
969.781	83.36
969.948	81.62
970.114	74.25
970.28	162.8
970.447	109.13
970.613	162.21
970.779	123.66
970.945	117.85
971.112	133.35
971.278	119.4
971.444	98.28
971.61	167.83
971.776	104.48
971.942	136.83
972.108	153.11
972.275	110.29
972.441	133.15
972.607	164.54
972.773	85.88
972.939	114.75
973.105	99.63
973.271	109.52
973.437	76.77
973.602	67.86
973.768	120.37
973.934	104.28
974.1	125.6
974.266	40.35
974.432	109.71
974.598	85.1
974.763	102.54
974.929	76.77
975.095	165.31
975.261	55.46
975.426	53.72
975.592	88.59
975.758	132.96
975.923	43.06
976.089	82.78
976.255	95.95
976.42	94.21
976.586	120.37
976.751	116.1
976.917	167.06
977.082	119.4
977.248	69.02
977.413	44.61
977.579	82.97
977.744	94.98
977.91	52.94
978.075	89.17
978.24	107.58
978.406	106.03
978.571	90.72
978.736	68.63
978.902	116.88
979.067	26.59
979.232	62.44
979.397	119.4
979.563	138.97
979.728	64.76
979.893	75.03
980.058	69.8
980.223	100.41
980.388	113.58
980.554	103.12
980.719	63.02
980.884	81.23
981.049	136.83
981.214	47.71
981.379	120.56
981.544	71.54
981.709	91.5
981.874	91.69
982.039	117.46
982.204	135.28
982.368	107.19
982.533	67.08
982.698	130.44
982.863	140.32
983.028	93.24
983.193	127.53
983.357	78.71
983.522	96.34
983.687	80.07
983.852	103.9
984.016	67.28
984.181	110.87
984.346	114.17
984.51	152.53
984.675	85.3
984.839	94.79
985.004	85.49
985.168	119.98
985.333	107.38
985.498	99.83
985.662	130.05
985.827	98.47
985.991	81.81
986.155	103.51
986.32	114.55
986.484	126.57
986.649	111.07
986.813	62.63
986.977	125.6
987.142	129.47
987.306	53.33
987.47	83.36
987.634	70.57
987.799	80.45
987.963	92.47
988.127	119.4
988.291	152.33
988.455	89.17
988.62	108.93
988.784	109.13
988.948	102.15
989.112	72.12
989.276	98.47
989.44	72.12
989.604	63.79
989.768	80.07
989.932	135.87
990.096	61.85
990.26	70.77
990.424	58.17
990.588	72.7
990.752	158.34
990.915	117.85
991.079	86.46
991.243	65.15
991.407	97.31
991.571	90.53
991.734	89.17
991.898	98.67
992.062	144.78
992.226	91.11
992.389	40.54
992.553	46.74
992.717	61.66
992.88	73.09
993.044	77.35
993.207	90.92
993.371	112.23
993.535	100.6
993.698	70.96
993.862	113.58
994.025	113
994.189	90.33
994.352	98.08
994.515	83.36
994.679	94.02
994.842	65.73
995.006	120.95
995.169	75.03
995.332	45.39
995.496	101.38
995.659	32.21
995.822	63.21
995.985	104.28
996.149	112.42
996.312	69.41
996.475	134.51
996.638	65.92
996.801	130.05
996.964	126.76
997.128	54.3
997.291	80.45
997.454	83.17
997.617	38.8
997.78	121.72
997.943	55.85
998.106	92.08
998.269	56.43
998.432	60.3
998.595	91.88
998.758	43.45
998.92	47.13
999.083	24.27
999.246	54.49
999.409	12.45
999.572	37.83
999.735	63.99
999.897	81.81
1000.06	29.11
1000.223	61.66
1000.386	94.02
1000.548	94.98
1000.711	77.55
1000.874	88.4
1001.036	49.84
1001.199	110.48
1001.361	70.38
1001.524	43.64
1001.687	102.15
1001.849	68.05
1002.012	74.25
1002.174	65.34
1002.337	100.22
1002.499	39.96
1002.661	78.9
1002.824	27.75
1002.986	64.18
1003.149	59.34
1003.311	38.22
1003.473	99.63
1003.636	54.1
1003.798	88.4
1003.96	69.6
1004.123	68.25
1004.285	43.45
1004.447	46.74
1004.609	61.47
1004.771	103.51
1004.933	28.92
1005.096	24.07
1005.258	-12.93
1005.42	24.46
1005.582	113.2
1005.744	37.25
1005.906	-8.86
1006.068	55.27
1006.23	11.67
1006.392	21.36
1006.554	12.25
1006.716	95.95
1006.878	81.42
1007.04	11.09
1007.202	55.27
1007.363	64.57
1007.525	73.48
1007.687	71.54
1007.849	96.15
1008.011	12.84
1008.172	-11.77
1008.334	32.6
1008.496	67.47
1008.658	4.12
1008.819	42.87
1008.981	1.79
1009.143	15.55
1009.304	49.07
1009.466	76.77
1009.627	111.07
1009.789	142.26
1009.95	45.39
1010.112	23.69
1010.273	66.5
1010.435	43.84
1010.596	53.91
1010.758	26.79
1010.919	36.28
1011.081	1.21
1011.242	38.8
1011.403	80.07
1011.565	42.09
1011.726	65.53
1011.887	6.64
1012.049	10.51
1012.21	70.96
1012.371	92.47
1012.532	-19.91
1012.693	25.04
1012.855	5.47
1013.016	57.59
1013.177	63.79
1013.338	40.15
1013.499	96.15
1013.66	51
1013.821	81.62
1013.982	73.28
1014.143	51.2
1014.304	34.34
1014.465	57.59
1014.626	57.79
1014.787	22.91
1014.948	130.63
1015.109	-38.12
1015.27	69.02
1015.431	24.65
1015.592	19.23
1015.752	91.5
1015.913	49.45
1016.074	53.33
1016.235	33.57
1016.395	23.49
1016.556	28.34
1016.717	21.75
1016.877	82.78
1017.038	17.29
1017.199	56.62
1017.359	59.72
1017.52	64.37
1017.681	26.2
1017.841	53.52
1018.002	3.73
1018.162	12.06
1018.323	52.94
1018.483	35.5
1018.644	31.63
1018.804	-3.83
1018.964	20
1019.125	17.1
1019.285	12.45
1019.446	26.01
1019.606	-24.75
1019.766	-5.96
1019.926	70.57
1020.087	55.65
1020.247	-2.86
1020.407	71.35
1020.567	84.72
1020.728	36.47
1020.888	-4.41
1021.048	26.59
1021.208	6.05
1021.368	22.52
1021.528	56.82
1021.688	64.57
1021.848	51.39
1022.008	20.59
1022.168	-11
1022.328	44.8
1022.488	57.01
1022.648	26.2
1022.808	50.81
1022.968	36.67
1023.128	19.04
1023.288	11.48
1023.448	14
1023.608	57.2
1023.767	26.4
1023.927	16.32
1024.087	-1.89
1024.247	-7.12
1024.406	20.39
1024.566	0.44
1024.726	-14.87
1024.885	35.5
1025.045	49.26
1025.205	13.22
1025.364	5.67
1025.524	36.28
1025.683	-2.66
1025.843	44.22
1026.003	14.77
1026.162	80.26
1026.321	67.28
1026.481	23.1
1026.64	12.64
1026.8	28.53
1026.959	25.04
1027.119	35.12
1027.278	-4.02
1027.437	-15.06
1027.597	20
1027.756	37.05
1027.915	47.52
1028.074	35.31
1028.234	-18.94
1028.393	35.31
1028.552	10.12
1028.711	-59.82
1028.87	39.57
1029.03	-12.16
1029.189	32.21
1029.348	-18.36
1029.507	29.3
1029.666	-3.05
1029.825	-7.9
1029.984	16.52
1030.143	11.48
1030.302	4.7
1030.461	-40.64
1030.62	7.02
1030.779	54.69
1030.938	-18.75
1031.097	0.82
1031.255	57.01
1031.414	54.49
1031.573	54.49
1031.732	-12.93
1031.891	11.48
1032.049	69.02
1032.208	33.95
1032.367	-10.41
1032.525	8.77
1032.684	28.53
1032.843	21.17
1033.001	-27.08
1033.16	142.26
1033.319	46.55
1033.477	23.69
1033.636	-12.93
1033.794	-22.62
1033.953	17.68
1034.111	33.18
1034.27	11.67
1034.428	17.68
1034.587	-22.81
1034.745	31.44
1034.903	11.29
1035.062	53.72
1035.22	-31.92
1035.378	57.4
1035.537	-14.48
1035.695	17.1
1035.853	1.79
1036.011	62.63
1036.17	33.76
1036.328	-25.33
1036.486	29.69
1036.644	10.7
1036.802	-29.21
1036.96	-11.58
1037.119	9.15
1037.277	4.12
1037.435	-22.23
1037.593	-15.84
1037.751	22.33
1037.909	38.02
1038.067	38.02
