Data from gum_young_FLMT105791__94__17-39-52-042.txt Node

Date: Mon Mar 20 17:39:52 GMT 2023
User: antho
Spectrometer: FLMT10579
Trigger mode: 0
Integration Time (sec): 1.000000E-1
Scans to average: 10
Electric dark correction enabled: true
Nonlinearity correction enabled: false
Boxcar width: 0
XAxis mode: Wavelengths
Number of Pixels in Spectrum: 3648
>>>>>Begin Spectral Data<<<<<
345.248	-132.1
345.464	-132.1
345.681	-132.1
345.898	-139.08
346.114	-137.72
346.331	-37.36
346.548	5.65
346.764	1.97
346.981	7.39
347.197	-11.01
347.414	23.67
347.631	-6.94
347.847	42.85
348.064	-1.52
348.28	31.61
348.497	-30.97
348.713	-25.35
348.93	19.99
349.146	17.86
349.363	3.71
349.579	19.02
349.796	7.59
350.012	-2.49
350.229	44.59
350.445	3.52
350.661	-9.07
350.878	12.82
351.094	-7.52
351.311	12.24
351.527	-5.59
351.743	1.78
351.96	35.68
352.176	28.71
352.392	34.13
352.609	18.24
352.825	-5.78
353.041	1.78
353.257	1.78
353.474	0.23
353.69	-6.17
353.906	23.67
354.122	-30.97
354.339	53.7
354.555	6.04
354.771	-1.52
354.987	40.72
355.203	59.13
355.42	-4.23
355.636	-13.53
355.852	-26.12
356.068	-5.78
356.284	-56.74
356.5	60.48
356.716	29.29
356.932	1.78
357.148	24.64
357.364	0.81
357.58	29.48
357.796	59.51
358.012	35.1
358.228	30.84
358.444	-40.46
358.66	69.59
358.876	9.53
359.092	-19.54
359.308	29.29
359.524	39.94
359.74	5.65
359.956	-22.83
360.172	1.19
360.388	41.49
360.604	0.42
360.819	75.98
361.035	-0.55
361.251	15.34
361.467	2.16
361.683	35.29
361.898	25.8
362.114	14.95
362.33	21.93
362.546	43.04
362.762	17.66
362.977	29.29
363.193	-45.3
363.409	49.63
363.624	-9.66
363.84	-8.49
364.056	6.23
364.271	22.31
364.487	27.54
364.703	16.5
364.918	-8.88
365.134	24.64
365.35	2.36
365.565	106.21
365.781	13.4
365.996	35.1
366.212	78.5
366.427	26.96
366.643	-7.72
366.858	-15.08
367.074	-4.04
367.289	29.29
367.505	95.36
367.72	-24.38
367.936	-0.74
368.151	52.15
368.367	34.71
368.582	7.78
368.798	13.59
369.013	47.89
369.228	12.04
369.444	16.89
369.659	58.74
369.874	35.88
370.09	84.31
370.305	-38.72
370.52	-21.28
370.736	56.03
370.951	-12.56
371.166	48.47
371.381	58.35
371.597	19.6
371.812	-18.95
372.027	-8.69
372.242	18.63
372.458	88.96
372.673	-16.44
372.888	9.91
373.103	21.15
373.318	80.24
373.533	46.73
373.749	27.16
373.964	-42.59
374.179	47.89
374.394	-13.53
374.609	53.7
374.824	-37.17
375.039	77.34
375.254	-10.24
375.469	44.21
375.684	44.79
375.899	56.61
376.114	-3.46
376.329	22.89
376.544	41.49
376.759	37.23
376.974	-5.59
377.189	-0.94
377.404	29.09
377.619	50.21
377.834	-9.27
378.049	-20.31
378.264	-2.29
378.478	33.16
378.693	-5.01
378.908	47.31
379.123	-2.29
379.338	46.73
379.553	22.31
379.767	24.64
379.982	37.23
380.197	54.28
380.412	21.73
380.626	25.03
380.841	63.97
381.056	18.83
381.271	81.79
381.485	-25.93
381.7	-12.17
381.915	34.33
382.129	5.07
382.344	39.94
382.559	18.05
382.773	79.66
382.988	-19.15
383.202	16.11
383.417	9.14
383.632	93.03
383.846	16.5
384.061	15.73
384.275	11.08
384.49	45.95
384.704	46.73
384.919	30.84
385.133	15.73
385.348	59.13
385.562	2.74
385.777	66.1
385.991	21.93
386.206	22.12
386.42	-22.05
386.634	49.44
386.849	40.72
387.063	33.55
387.277	1.58
387.492	-13.72
387.706	-14.89
387.92	10.49
388.135	60.87
388.349	47.89
388.563	42.66
388.778	46.14
388.992	49.05
389.206	39.94
389.42	92.26
389.635	32.58
389.849	42.66
390.063	77.92
390.277	45.18
390.491	78.31
390.706	48.08
390.92	34.13
391.134	30.45
391.348	77.14
391.562	-26.32
391.776	44.79
391.99	5.65
392.205	33.55
392.419	0.42
392.633	38.78
392.847	83.54
393.061	15.53
393.275	37.23
393.489	32.58
393.703	69.78
393.917	58.16
394.131	19.79
394.345	22.31
394.559	44.21
394.773	51.18
394.986	27.74
395.2	13.21
395.414	53.12
395.628	2.55
395.842	44.79
396.056	-3.46
396.27	-1.13
396.484	22.89
396.697	33.94
396.911	85.09
397.125	55.64
397.339	68.81
397.553	45.76
397.766	80.63
397.98	62.81
398.194	50.99
398.408	27.54
398.621	89.93
398.835	66.29
399.049	49.05
399.262	45.37
399.476	69.01
399.69	83.73
399.903	87.61
400.117	43.82
400.331	69.78
400.544	28.51
400.758	137.59
400.971	75.79
401.185	40.14
401.398	19.21
401.612	118.02
401.826	54.86
402.039	65.91
402.253	24.64
402.466	72.69
402.68	47.5
402.893	95.55
403.106	41.11
403.32	45.37
403.533	80.82
403.747	56.41
403.96	69.39
404.174	73.66
404.387	38.98
404.6	65.52
404.814	102.72
405.027	75.21
405.24	57.58
405.454	50.41
405.667	91.29
405.88	16.31
406.094	56.41
406.307	93.81
406.52	69.78
406.733	31.61
406.947	15.14
407.16	117.83
407.373	102.52
407.586	25.61
407.799	37.81
408.012	102.14
408.226	54.67
408.439	119.19
408.652	27.54
408.865	80.05
409.078	103.49
409.291	75.59
409.504	3.13
409.717	95.94
409.93	85.09
410.143	81.41
410.357	28.9
410.57	53.31
410.783	27.35
410.996	53.7
411.209	60.87
411.421	87.61
411.634	59.32
411.847	43.43
412.06	65.91
412.273	66.68
412.486	71.14
412.699	147.67
412.912	53.51
413.125	113.57
413.338	60.68
413.55	90.9
413.763	69.2
413.976	85.28
414.189	64.16
414.402	78.89
414.615	128.49
414.827	86.06
415.04	98.84
415.253	94.58
415.466	116.86
415.678	161.23
415.891	88.19
416.104	94.77
416.316	95.16
416.529	79.86
416.742	103.49
416.954	116.28
417.167	80.05
417.38	69.78
417.592	118.99
417.805	57.58
418.017	39.36
418.23	106.01
418.442	59.13
418.655	63
418.868	96.13
419.08	135.66
419.293	126.16
419.505	113.76
419.718	91.29
419.93	122.29
420.142	82.76
420.355	120.93
420.567	127.32
420.78	105.04
420.992	90.51
421.205	142.82
421.417	75.79
421.629	69.59
421.842	55.64
422.054	68.62
422.266	116.67
422.479	110.86
422.691	79.27
422.903	114.54
423.115	71.72
423.328	95.74
423.54	107.56
423.752	67.65
423.964	62.81
424.177	116.86
424.389	63.39
424.601	180.22
424.813	111.63
425.025	138.95
425.238	141.47
425.45	92.45
425.662	87.8
425.874	362.73
426.086	116.86
426.298	117.06
426.51	112.41
426.722	85.86
426.934	81.99
427.146	111.82
427.358	54.86
427.57	143.6
427.782	106.21
427.994	106.79
428.206	75.21
428.418	60.68
428.63	102.72
428.842	124.81
429.054	118.61
429.266	114.73
429.478	85.86
429.69	113.96
429.902	54.67
430.114	133.91
430.325	110.86
430.537	63.19
430.749	131.01
430.961	35.49
431.173	85.67
431.384	136.82
431.596	27.74
431.808	86.64
432.02	94.58
432.231	110.86
432.443	145.92
432.655	123.26
432.867	84.7
433.078	131.59
433.29	133.14
433.502	144.96
433.713	153.67
433.925	119.38
434.136	187.39
434.348	78.31
434.56	27.16
434.771	183.7
434.983	65.13
435.194	81.41
435.406	124.61
435.617	162.2
435.829	173.24
436.04	131.01
436.252	135.27
436.463	175.76
436.675	163.17
436.886	143.6
437.098	132.94
437.309	192.23
437.521	120.74
437.732	131.01
437.943	140.11
438.155	152.12
438.366	79.86
438.578	168.79
438.789	174.6
439	138.17
439.211	120.16
439.423	150.57
439.634	136.04
439.845	143.02
440.057	147.86
440.268	178.47
440.479	115.89
440.69	138.17
440.902	125
441.113	126.55
441.324	119.77
441.535	149.41
441.746	201.34
441.957	131.39
442.168	136.82
442.38	160.07
442.591	159.1
442.802	114.34
443.013	138.37
443.224	174.79
443.435	150.77
443.646	143.6
443.857	150.19
444.068	141.86
444.279	143.6
444.49	227.1
444.701	143.79
444.912	267.6
445.123	155.03
445.334	216.25
445.545	185.25
445.756	137.79
445.967	153.67
446.178	185.64
446.388	179.05
446.599	186.42
446.81	185.45
447.021	166.07
447.232	207.92
447.443	230.59
447.653	135.27
447.864	178.47
448.075	159.29
448.286	202.11
448.496	181.19
448.707	224.78
448.918	158.91
449.129	271.08
449.339	154.26
449.55	178.67
449.761	196.88
449.971	229.43
450.182	179.25
450.393	202.5
450.603	161.81
450.814	224.39
451.024	198.24
451.235	212.96
451.446	247.06
451.656	240.09
451.867	166.46
452.077	202.11
452.288	247.06
452.498	236.02
452.709	174.79
452.919	217.61
453.13	186.03
453.34	261.98
453.55	152.51
453.761	198.82
453.971	187.19
454.182	235.24
454.392	239.31
454.602	272.83
454.813	210.64
455.023	235.82
455.233	169.56
455.444	187.39
455.654	148.44
455.864	204.63
456.075	176.92
456.285	191.84
456.495	198.82
456.705	216.64
456.916	257.72
457.126	251.32
457.336	209.86
457.546	167.43
457.756	188.35
457.967	239.12
458.177	204.63
458.387	210.05
458.597	182.54
458.807	202.89
459.017	169.17
459.227	218.58
459.437	202.5
459.647	246.09
459.857	235.05
460.068	231.37
460.278	261.01
460.488	235.44
460.698	267.79
460.908	233.3
461.117	196.88
461.327	197.85
461.537	238.34
461.747	214.9
461.957	241.64
462.167	326.3
462.377	257.13
462.587	234.66
462.797	253.45
463.007	236.4
463.216	259.65
463.426	286.2
463.636	234.27
463.846	199.59
464.056	226.33
464.265	268.76
464.475	229.62
464.685	252.1
464.895	280.38
465.104	222.84
465.314	262.75
465.524	255.58
465.733	230.01
465.943	305.18
466.153	287.55
466.362	276.12
466.572	277.09
466.782	237.18
466.991	263.53
467.201	315.84
467.41	162.39
467.62	267.21
467.829	263.72
468.039	279.22
468.249	249
468.458	251.52
468.668	305.96
468.877	270.5
469.086	312.93
469.296	301.7
469.505	234.47
469.715	314.48
469.924	271.08
470.134	286.78
470.343	316.03
470.552	283.48
470.762	271.47
470.971	239.12
471.18	261.01
471.39	265.85
471.599	247.06
471.808	289.88
472.018	258.49
472.227	340.06
472.436	284.26
472.645	265.27
472.855	237.18
473.064	313.71
473.273	289.88
473.482	300.53
473.691	329.21
473.901	317
474.11	304.99
474.319	391.4
474.528	310.8
474.737	335.6
474.946	330.18
475.155	326.69
475.364	358.66
475.573	281.93
475.783	332.89
475.992	332.7
476.201	360.21
476.41	314.48
476.619	291.43
476.828	326.69
477.037	294.72
477.245	321.46
477.454	355.56
477.663	339.48
477.872	317.2
478.081	403.22
478.29	295.3
478.499	410.39
478.708	366.02
478.917	431.12
479.125	335.6
479.334	339.86
479.543	358.85
479.752	366.6
479.961	380.36
480.169	412.52
480.378	355.75
480.587	455.73
480.796	379.39
481.004	409.03
481.213	369.51
481.422	398.57
481.63	401.09
481.839	395.47
482.048	420.66
482.256	414.85
482.465	414.26
482.674	423.18
482.882	448.36
483.091	483.82
483.299	427.05
483.508	409.42
483.716	410.39
483.925	410.58
484.134	417.95
484.342	424.73
484.551	462.51
484.759	453.21
484.967	452.63
485.176	468.32
485.384	445.84
485.593	464.44
485.801	458.24
486.01	432.28
486.218	429.57
486.426	344.51
486.635	395.28
486.843	378.81
487.051	404
487.26	407.87
487.468	412.52
487.676	478.39
487.885	413.1
488.093	437.71
488.301	471.42
488.509	430.34
488.717	485.95
488.926	444.49
489.134	445.26
489.342	485.18
489.55	413.49
489.758	463.09
489.967	475.1
490.175	552.41
490.383	436.74
490.591	528.19
490.799	455.73
491.007	515.59
491.215	477.62
491.423	486.73
491.631	501.26
491.839	478.39
492.047	532.06
492.255	458.83
492.463	446.23
492.671	495.64
492.879	535.55
493.087	486.53
493.295	530.71
493.503	549.31
493.711	529.93
493.919	551.82
494.127	549.89
494.334	575.07
494.542	511.52
494.75	540.01
494.958	518.11
495.166	562.67
495.374	563.26
495.581	565.97
495.789	550.86
495.997	604.14
496.205	537.87
496.412	541.75
496.62	558.02
496.828	556.67
497.035	575.07
497.243	585.15
497.451	563.45
497.658	589.8
497.866	586.89
498.074	614.79
498.281	563.06
498.489	661.29
498.696	608.2
498.904	572.94
499.112	582.82
499.319	655.09
499.527	607.62
499.734	640.17
499.942	552.99
500.149	584.18
500.357	615.57
500.564	601.23
500.771	607.43
500.979	599.68
501.186	594.45
501.394	610.14
501.601	620.41
501.808	649.09
502.016	574.11
502.223	620.02
502.43	612.85
502.638	636.49
502.845	629.71
503.052	687.45
503.26	627
503.467	703.92
503.674	634.55
503.881	671.56
504.089	721.35
504.296	670.01
504.503	604.72
504.71	654.32
504.917	620.99
505.125	674.47
505.332	665.36
505.539	715.73
505.746	737.24
505.953	728.13
506.16	710.5
506.367	775.8
506.574	749.83
506.781	798.27
506.988	686.87
507.195	710.31
507.402	725.03
507.609	770.95
507.816	736.85
508.023	735.69
508.23	742.28
508.437	726.2
508.644	775.02
508.851	814.35
509.058	797.3
509.265	781.61
509.472	831.79
509.679	874.99
509.885	797.3
510.092	799.24
510.299	793.62
510.506	773.08
510.713	833.34
510.92	820.94
511.126	849.03
511.333	888.36
511.54	910.06
511.746	918.39
511.953	931.96
512.16	936.61
512.367	874.8
512.573	875.58
512.78	899.79
512.987	907.35
513.193	911.23
513.4	842.06
513.606	902.31
513.813	933.51
514.02	916.07
514.226	981.36
514.433	984.07
514.639	913.36
514.846	930.02
515.052	938.35
515.259	957.53
515.465	948.04
515.672	955.21
515.878	1062.93
516.085	992.79
516.291	1026.51
516.497	964.7
516.704	987.95
516.91	954.24
517.117	944.16
517.323	904.83
517.529	944.36
517.736	939.71
517.942	958.69
518.148	975.36
518.354	991.82
518.561	1006.74
518.767	1005.58
518.973	1017.79
519.179	1058.28
519.386	1010.42
519.592	1056.34
519.798	1055.18
520.004	1133.26
520.21	1107.3
520.417	1140.43
520.623	1170.46
520.829	1196.62
521.035	1199.52
521.241	1194.87
521.447	1214.63
521.653	1290.78
521.859	1233.23
522.065	1241.76
522.271	1343.67
522.477	1277.21
522.683	1317.13
522.889	1269.66
523.095	1287.29
523.301	1282.64
523.507	1270.24
523.713	1313.64
523.919	1256.48
524.125	1361.88
524.331	1337.28
524.537	1405.09
524.742	1418.46
524.948	1411.29
525.154	1392.3
525.36	1540.52
525.566	1403.73
525.772	1474.45
525.977	1417.29
526.183	1456.04
526.389	1442.67
526.595	1388.42
526.8	1408.77
527.006	1354.91
527.212	1338.24
527.417	1309.38
527.623	1335.73
527.829	1396.17
528.034	1396.76
528.24	1422.91
528.446	1404.89
528.651	1511.07
528.857	1504.29
529.062	1565.7
529.268	1528.7
529.473	1543.42
529.679	1553.89
529.884	1610.07
530.09	1608.33
530.295	1581.4
530.501	1593.41
530.706	1641.07
530.912	1557.76
531.117	1627.32
531.323	1609.68
531.528	1641.27
531.733	1647.46
531.939	1627.7
532.144	1688.93
532.35	1656.76
532.555	1674.98
532.76	1664.71
532.966	1647.08
533.171	1630.61
533.376	1584.5
533.581	1536.45
533.787	1635.45
533.992	1659.67
534.197	1674.2
534.402	1654.63
534.607	1668.39
534.813	1755.38
535.018	1703.46
535.223	1705.59
535.428	1724.38
535.633	1747.44
535.838	1736.01
536.043	1742.79
536.249	1833.66
536.454	1739.69
536.659	1768.56
536.864	1772.82
537.069	1769.72
537.274	1760.23
537.479	1762.74
537.684	1705.59
537.889	1731.36
538.094	1869.89
538.299	1798.2
538.504	1793.36
538.708	1835.01
538.913	1838.11
539.118	1785.03
539.323	1855.16
539.528	1754.61
539.733	1831.33
539.938	1789.48
540.142	1812.93
540.347	1743.95
540.552	1766.43
540.757	1770.69
540.962	1764.88
541.166	1736.59
541.371	1727.87
541.576	1762.16
541.781	1654.83
541.985	1806.92
542.19	1813.31
542.395	1829.2
542.599	1889.26
542.804	1823.58
543.008	1908.83
543.213	1820.48
543.418	1768.17
543.622	1850.51
543.827	1812.73
544.031	1900.89
544.236	1909.41
544.44	1865.62
544.645	1966.76
544.849	1877.25
545.054	1910.96
545.258	1953.78
545.463	1953.39
545.667	1849.16
545.872	1916.39
546.076	1923.55
546.281	1917.35
546.485	1889.07
546.689	1919.68
546.894	1961.92
547.098	1914.84
547.302	1879.19
547.507	1917.16
547.711	1940.8
547.915	1943.7
548.119	1868.34
548.324	1864.66
548.528	1988.07
548.732	1937.89
548.936	1950.1
549.141	1970.44
549.345	1930.53
549.549	1928.2
549.753	1947
549.957	2024.11
550.161	2002.8
550.366	1954.75
550.57	1943.32
550.774	1965.02
550.978	1947.39
551.182	1955.72
551.386	1925.1
551.59	1941.96
551.794	1940.41
551.998	1999.31
552.202	1963.47
552.406	1951.26
552.61	1975.48
552.814	1981.1
553.018	2009.77
553.222	1979.94
553.426	1945.06
553.63	2033.02
553.833	1950.68
554.037	1930.34
554.241	1967.54
554.445	1982.26
554.649	1978.77
554.853	1960.75
555.056	1998.15
555.26	2015.58
555.464	1995.63
555.668	1996.79
555.871	2002.22
556.075	1984.39
556.279	1944.67
556.483	1907.47
556.686	1951.65
556.89	1941.77
557.094	1956.3
557.297	1870.66
557.501	1977.42
557.704	1879.19
557.908	1948.35
558.112	1919.29
558.315	1971.8
558.519	1915.42
558.722	1914.64
558.926	1854.39
559.129	1814.67
559.333	1845.86
559.536	1846.06
559.74	1812.73
559.943	1842.96
560.147	1783.86
560.35	1844.7
560.553	1805.37
560.757	1761.39
560.96	1882.67
561.164	1843.92
561.367	1912.51
561.57	1862.72
561.774	1856.13
561.977	1803.82
562.18	1817.38
562.384	1897.4
562.587	1806.14
562.79	1784.06
562.993	1784.06
563.197	1824.74
563.4	1899.92
563.603	1836.37
563.806	1872.21
564.009	1794.33
564.212	1793.74
564.416	1733.1
564.619	1797.43
564.822	1759.45
565.025	1829.78
565.228	1767.01
565.431	1801.11
565.634	1682.73
565.837	1700.36
566.04	1723.8
566.243	1705.59
566.446	1614.92
566.649	1710.05
566.852	1659.09
567.055	1691.45
567.258	1715.47
567.461	1751.31
567.664	1756.93
567.867	1647.66
568.07	1684.47
568.273	1672.26
568.475	1719.15
568.678	1658.12
568.881	1648.82
569.084	1628.28
569.287	1542.84
569.489	1558.34
569.692	1644.37
569.895	1634.29
570.098	1553.3
570.3	1563.18
570.503	1490.53
570.706	1519.4
570.909	1533.15
571.111	1468.06
571.314	1478.71
571.516	1494.4
571.719	1521.72
571.922	1479.49
572.124	1463.21
572.327	1498.86
572.529	1460.31
572.732	1488.59
572.935	1514.55
573.137	1535.67
573.34	1459.53
573.542	1467.28
573.745	1495.95
573.947	1506.8
574.15	1454.11
574.352	1429.11
574.554	1522.89
574.757	1423.88
574.959	1441.9
575.162	1407.99
575.364	1416.91
575.566	1478.32
575.769	1384.94
575.971	1432.6
576.173	1322.36
576.376	1392.69
576.578	1422.33
576.78	1434.54
576.982	1349.09
577.185	1360.33
577.387	1338.24
577.589	1330.88
577.791	1379.51
577.993	1364.4
578.196	1375.06
578.398	1389.97
578.6	1376.8
578.802	1304.14
579.004	1309.96
579.206	1310.15
579.408	1333.01
579.61	1302.59
579.812	1341.54
580.014	1312.09
580.216	1320.81
580.418	1322.36
580.62	1317.32
580.822	1240.01
581.024	1339.79
581.226	1369.63
581.428	1309.57
581.63	1369.83
581.832	1320.81
582.034	1379.9
582.236	1341.73
582.438	1350.64
582.64	1374.48
582.841	1402.37
583.043	1435.31
583.245	1370.21
583.447	1372.73
583.649	1352.78
583.85	1352.97
584.052	1371.76
584.254	1357.04
584.456	1376.8
584.657	1327.98
584.859	1330.88
585.061	1311.51
585.262	1311.51
585.464	1282.64
585.666	1357.43
585.867	1297.17
586.069	1328.56
586.27	1333.01
586.472	1278.96
586.674	1281.67
586.875	1290.78
587.077	1271.4
587.278	1271.6
587.48	1281.67
587.681	1385.32
587.883	1320.81
588.084	1217.15
588.285	1255.71
588.487	1213.08
588.688	1250.86
588.89	1173.95
589.091	1136.17
589.292	1133.65
589.494	1147.98
589.695	1107.3
589.896	1036.77
590.098	1036.77
590.299	1133.07
590.5	1085.99
590.702	1083.08
590.903	1126.48
591.104	1178.79
591.305	1144.3
591.507	1214.63
591.708	1204.37
591.909	1154.57
592.11	1187.7
592.311	1170.65
592.512	1141.4
592.714	1114.27
592.915	1165.23
593.116	1117.57
593.317	1162.52
593.518	1154.57
593.719	1148.37
593.92	1172.59
594.121	1216.96
594.322	1153.6
594.523	1154.77
594.724	1118.54
594.925	1152.44
595.126	1134.42
595.327	1126.48
595.528	1147.21
595.729	1142.37
595.929	1118.54
596.13	1170.65
596.331	1158.83
596.532	1173.95
596.733	1182.28
596.934	1196.23
597.135	1177.43
597.335	1160.58
597.536	1135.2
597.737	1137.91
597.938	1127.83
598.138	1169.3
598.339	1175.69
598.54	1141.98
598.74	1138.68
598.941	1159.03
599.142	1189.64
599.342	1143.14
599.543	1131.71
599.744	1139.85
599.944	1157.67
600.145	1131.32
600.345	1183.63
600.546	1216.18
600.746	1201.07
600.947	1226.06
601.147	1167.55
601.348	1176.27
601.548	1102.07
601.749	1149.34
601.949	1117.37
602.15	1102.84
602.35	1117.37
602.551	1177.24
602.751	1072.04
602.951	1129.77
603.152	1057.12
603.352	1128.03
603.552	1098.97
603.753	1153.02
603.953	1132.87
604.153	1143.72
604.354	1130.16
604.554	1150.5
604.754	1095.48
604.954	1090.44
605.155	1147.4
605.355	1137.91
605.555	1169.3
605.755	1159.8
605.955	1122.99
606.155	1175.69
606.356	1148.18
606.556	1161.35
606.756	1125.9
606.956	1099.55
607.156	1162.71
607.356	1089.67
607.556	1116.4
607.756	1109.24
607.956	1171.62
608.156	1134.42
608.356	1101.87
608.556	1132.1
608.756	1087.34
608.956	1060.8
609.156	1093.74
609.356	1063.9
609.556	1052.85
609.755	1108.07
609.955	1051.89
610.155	1109.43
610.355	1092.19
610.555	1051.89
610.755	1047.82
610.954	1031.54
611.154	1099.16
611.354	1079.4
611.554	1035.22
611.753	1046.07
611.953	978.26
612.153	1069.13
612.352	1044.91
612.552	1033.29
612.752	972.26
612.951	1038.52
613.151	1028.25
613.351	1026.12
613.55	1004.03
613.75	1020.11
613.949	985.24
614.149	1023.41
614.348	1001.71
614.548	969.16
614.747	937.38
614.947	1019.53
615.146	943.97
615.346	993.37
615.545	1000.16
615.745	1001.12
615.944	1022.44
616.144	974.58
616.343	994.73
616.542	968.19
616.742	976.52
616.941	942.42
617.14	877.32
617.34	975.16
617.539	961.02
617.738	921.49
617.938	995.51
618.137	946.68
618.336	889.14
618.535	959.47
618.734	958.11
618.934	934.86
619.133	952.88
619.332	925.76
619.531	947.46
619.73	936.41
619.929	977.68
620.128	959.66
620.328	963.73
620.527	904.83
620.726	905.03
620.925	962.96
621.124	928.86
621.323	956.37
621.522	872.48
621.721	908.13
621.92	867.63
622.119	922.66
622.318	889.91
622.517	888.94
622.715	906.19
622.914	850.97
623.113	898.44
623.312	844.77
623.511	924.59
623.71	869.38
623.909	852.71
624.107	933.31
624.306	828.88
624.505	834.11
624.704	866.28
624.902	874.61
625.101	908.32
625.3	864.14
625.499	821.52
625.697	859.69
625.896	832.56
626.095	870.15
626.293	825.01
626.492	813.58
626.69	861.43
626.889	823.85
627.088	880.61
627.286	829.85
627.485	815.13
627.683	832.56
627.882	823.07
628.08	769.98
628.279	764.37
628.477	879.84
628.676	761.65
628.874	841.28
629.073	791.3
629.271	787.03
629.469	808.15
629.668	802.34
629.866	772.31
630.065	793.04
630.263	848.06
630.461	752.74
630.66	829.08
630.858	831.6
631.056	863.56
631.254	855.23
631.453	790.52
631.651	853.1
631.849	801.56
632.047	819.97
632.245	802.34
632.444	794.59
632.642	819.2
632.84	833.34
633.038	814.35
633.236	772.5
633.434	779.48
633.632	776.76
633.83	787.23
634.028	851.55
634.227	807.57
634.425	894.37
634.623	800.6
634.821	810.86
635.019	800.98
635.216	797.69
635.414	826.95
635.612	824.43
635.81	803.7
636.008	866.08
636.206	800.79
636.404	814.55
636.602	810.28
636.8	833.53
636.997	813
637.195	825.4
637.393	815.71
637.591	829.85
637.789	813.77
637.986	793.23
638.184	819.2
638.382	860.27
638.58	802.73
638.777	843.03
638.975	810.86
639.173	795.75
639.37	788.97
639.568	812.8
639.765	804.28
639.963	772.11
640.161	820.16
640.358	801.37
640.556	735.5
640.753	750.61
640.951	740.92
641.148	780.25
641.346	730.46
641.543	753.71
641.741	762.62
641.938	723.29
642.136	775.41
642.333	745.57
642.531	778.7
642.728	783.93
642.925	750.42
643.123	726.78
643.32	763.59
643.517	725.81
643.715	727.94
643.912	741.7
644.109	745.18
644.306	712.83
644.504	685.51
644.701	716.7
644.898	746.54
645.095	671.75
645.293	715.73
645.49	742.67
645.687	679.31
645.884	724.26
646.081	642.3
646.278	679.5
646.475	658.39
646.672	670.4
646.87	666.52
647.067	690.16
647.264	673.69
647.461	611.89
647.658	612.47
647.855	648.12
648.052	617.31
648.249	537.68
648.446	599.87
648.642	598.71
648.839	609.17
649.036	584.96
649.233	573.14
649.43	546.98
649.627	541.56
649.824	581.66
650.021	574.11
650.217	572.36
650.414	597.16
650.611	620.6
650.808	602.97
651.004	611.69
651.201	623.7
651.398	648.7
651.595	587.28
651.791	595.22
651.988	601.23
652.185	572.36
652.381	589.02
652.578	550.27
652.775	581.08
652.971	559.19
653.168	574.11
653.364	596.58
653.561	542.52
653.757	569.84
653.954	626.22
654.15	563.45
654.347	625.06
654.543	526.06
654.74	531.29
654.936	559.96
655.133	577.01
655.329	571.01
655.525	564.22
655.722	624.29
655.918	487.5
656.115	569.07
656.311	499.71
656.507	470.26
656.704	458.44
656.9	490.79
657.096	483.04
657.292	493.31
657.489	548.92
657.685	507.26
657.881	544.46
658.077	516.56
658.273	512.11
658.47	568.1
658.666	507.84
658.862	553.18
659.058	547.17
659.254	565.39
659.45	538.07
659.646	565.58
659.842	512.3
660.038	582.05
660.234	496.22
660.43	554.34
660.626	590.77
660.822	571.78
661.018	557.44
661.214	500.68
661.41	481.69
661.606	559.96
661.802	560.74
661.998	534.97
662.194	499.9
662.39	515.98
662.586	517.53
662.781	532.84
662.977	541.94
663.173	518.89
663.369	530.12
663.564	511.33
663.76	564.61
663.956	517.53
664.152	544.07
664.347	450.49
664.543	496.41
664.739	487.69
664.934	456.31
665.13	453.4
665.326	528.96
665.521	515.21
665.717	446.62
665.912	442.74
666.108	427.05
666.304	447.01
666.499	479.75
666.695	414.07
666.89	458.83
667.086	483.63
667.281	466.96
667.477	528.38
667.672	459.6
667.867	493.7
668.063	490.21
668.258	427.63
668.454	466.38
668.649	538.84
668.844	470.26
669.04	466.38
669.235	439.06
669.43	424.73
669.626	395.08
669.821	425.11
670.016	402.06
670.211	465.22
670.407	422.98
670.602	445.65
670.797	442.36
670.992	471.03
671.187	404
671.382	458.83
671.578	438.09
671.773	460.18
671.968	370.86
672.163	452.63
672.358	470.64
672.553	419.5
672.748	393.92
672.943	481.11
673.138	454.56
673.333	474.33
673.528	421.82
673.723	458.63
673.918	416.98
674.113	384.43
674.308	502.81
674.503	446.81
674.698	452.82
674.892	438.09
675.087	468.51
675.282	462.7
675.477	430.73
675.672	456.69
675.867	415.04
676.061	417.36
676.256	390.63
676.451	406.32
676.646	409.61
676.84	400.12
677.035	400.9
677.23	400.7
677.424	441.97
677.619	442.74
677.814	457.28
678.008	426.47
678.203	388.69
678.397	388.5
678.592	456.5
678.787	467.35
678.981	393.15
679.176	416.59
679.37	399.93
679.565	402.06
679.759	395.28
679.954	417.56
680.148	496.8
680.342	453.59
680.537	439.64
680.731	403.22
680.926	459.99
681.12	433.06
681.314	403.8
681.509	433.64
681.703	425.11
681.897	452.24
682.092	410
682.286	397.21
682.48	471.03
682.674	444.29
682.869	437.32
683.063	425.5
683.257	513.85
683.451	419.3
683.645	415.81
683.839	453.01
684.034	427.83
684.228	468.71
684.422	402.45
684.616	410.58
684.81	468.51
685.004	437.71
685.198	443.52
685.392	465.8
685.586	433.44
685.78	470.06
685.974	484.21
686.168	454.95
686.362	498.35
686.556	442.94
686.75	399.73
686.944	416.01
687.138	432.28
687.331	382.3
687.525	392.76
687.719	314.48
687.913	363.11
688.107	418.91
688.301	387.53
688.494	429.57
688.688	394.31
688.882	375.32
689.076	365.25
689.269	370.09
689.463	464.25
689.657	406.13
689.85	413.1
690.044	445.84
690.238	440.42
690.431	478.01
690.625	416.2
690.818	488.08
691.012	525.67
691.205	521.41
691.399	455.14
691.593	530.9
691.786	566.16
691.98	583.99
692.173	620.99
692.366	578.76
692.56	610.92
692.753	652.38
692.947	575.66
693.14	674.08
693.333	668.07
693.527	593.48
693.72	657.8
693.914	642.3
694.107	654.9
694.3	653.54
694.493	663.23
694.687	724.45
694.88	672.53
695.073	728.52
695.266	750.22
695.46	741.12
695.653	775.8
695.846	781.41
696.039	739.95
696.232	760.88
696.425	837.99
696.618	855.81
696.812	831.79
697.005	873.83
697.198	956.76
697.391	922.66
697.584	959.66
697.777	980.78
697.97	975.74
698.163	996.86
698.356	980.59
698.549	1057.89
698.742	1037.35
698.935	1023.21
699.127	1040.07
699.32	1034.45
699.513	1012.75
699.706	1068.74
699.899	1074.17
700.092	1041.04
700.285	1127.25
700.477	1044.14
700.67	1126.09
700.863	1090.05
701.056	1188.48
701.248	1165.42
701.441	1197.58
701.634	1153.41
701.826	1229.75
702.019	1164.45
702.212	1231.49
702.404	1181.12
702.597	1180.53
702.79	1233.04
702.982	1253.38
703.175	1320.23
703.367	1318.29
703.56	1316.16
703.752	1464.37
703.945	1367.89
704.137	1353.36
704.33	1414
704.522	1414
704.715	1460.69
704.907	1462.63
705.1	1487.24
705.292	1471.15
705.484	1523.08
705.677	1527.73
705.869	1552.53
706.061	1580.23
706.254	1595.15
706.446	1565.32
706.638	1557.95
706.831	1603.68
707.023	1579.85
707.215	1678.46
707.407	1695.9
707.599	1637.2
707.792	1717.02
707.984	1722.06
708.176	1739.49
708.368	1713.92
708.56	1756.16
708.752	1750.34
708.944	1729.81
709.136	1797.04
709.329	1797.62
709.521	1915.42
709.713	1877.83
709.905	1858.26
710.097	1886.74
710.289	1829.59
710.481	1901.47
710.672	1913.48
710.864	1907.47
711.056	1966.57
711.248	1931.5
711.44	1956.49
711.632	1957.27
711.824	1985.55
712.016	2038.83
712.207	2043.48
712.399	2032.44
712.591	2064.99
712.783	2112.26
712.975	2090.95
713.166	2058.02
713.358	2075.26
713.55	2139
713.741	2131.64
713.933	2110.91
714.125	2137.65
714.316	2134.35
714.508	2176.78
714.7	2189.18
714.891	2131.64
715.083	2202.55
715.274	2185.5
715.466	2191.89
715.657	2209.72
715.849	2137.84
716.04	2172.13
716.232	2126.8
716.423	2186.47
716.615	2069.25
716.806	2028.37
716.998	1981.87
717.189	1901.08
717.381	1842.96
717.572	1825.71
717.763	1849.54
717.955	1799.17
718.146	1754.99
718.337	1702.1
718.528	1695.71
718.72	1631.77
718.911	1669.75
719.102	1601.55
719.293	1694.74
719.485	1660.25
719.676	1633.13
719.867	1599.03
720.058	1626.35
720.249	1629.45
720.44	1639.52
720.632	1704.43
720.823	1702.49
721.014	1832.11
721.205	1850.71
721.396	1923.55
721.587	2072.93
721.778	2097.54
721.969	2112.65
722.16	2175.43
722.351	2182.59
722.542	2322.09
722.733	2322.29
722.924	2250.99
723.115	2258.54
723.305	2217.66
723.496	2255.83
723.687	2103.55
723.878	2164.38
724.069	2156.05
724.26	2134.16
724.45	2077.58
724.641	2038.06
724.832	2094.25
725.023	2058.6
725.213	2059.95
725.404	2086.11
725.595	2028.37
725.785	2066.35
725.976	2094.44
726.167	2080.49
726.357	2091.15
726.548	2184.53
726.739	2111.68
726.929	2196.35
727.12	2223.28
727.31	2224.25
727.501	2194.8
727.691	2182.98
727.882	2189.76
728.072	2211.66
728.263	2246.92
728.453	2316.09
728.644	2269.2
728.834	2259.32
729.024	2266.87
729.215	2257.96
729.405	2247.31
729.596	2340.89
729.786	2325
729.976	2338.76
730.167	2386.42
730.357	2332.56
730.547	2345.54
730.737	2372.47
730.928	2427.49
731.118	2450.74
731.308	2371.89
731.498	2389.52
731.688	2495.11
731.879	2477.67
732.069	2548.2
732.259	2583.26
732.449	2615.23
732.639	2665.99
732.829	2716.56
733.019	2707.84
733.209	2812.47
733.399	2820.22
733.589	2880.28
733.779	2946.54
733.969	2904.69
734.159	3023.65
734.349	3000.98
734.539	3065.69
734.729	3083.52
734.919	3096.89
735.109	3123.63
735.299	3002.92
735.488	3132.73
735.678	3118.2
735.868	3071.51
736.058	3090.69
736.248	3075.38
736.437	3068.41
736.627	3063.56
736.817	3120.14
737.007	3091.08
737.196	3155.4
737.386	3112.78
737.576	3073.83
737.765	3177.1
737.955	3195.7
738.144	3259.64
738.334	3237.55
738.524	3185.82
738.713	3256.73
738.903	3229.6
739.092	3237.35
739.282	3253.24
739.471	3229.02
739.661	3259.05
739.85	3261.57
740.04	3280.95
740.229	3337.33
740.419	3404.75
740.608	3354.57
740.797	3363.48
740.987	3402.04
741.176	3319.89
741.365	3334.81
741.555	3320.08
741.744	3413.66
741.933	3348.37
742.123	3409.98
742.312	3380.34
742.501	3424.71
742.69	3513.25
742.88	3354.38
743.069	3493.1
743.258	3493.29
743.447	3495.62
743.636	3519.45
743.825	3449.9
744.014	3526.04
744.204	3544.83
744.393	3456.87
744.582	3525.26
744.771	3556.84
744.96	3472.95
745.149	3540.18
745.338	3472.95
745.527	3554.91
745.716	3496.98
745.905	3493.29
746.094	3540.96
746.283	3563.43
746.471	3550.64
746.66	3618.46
746.849	3578.74
747.038	3571.18
747.227	3519.45
747.416	3565.56
747.604	3482.25
747.793	3519.26
747.982	3543.28
748.171	3576.8
748.359	3567.11
748.548	3578.54
748.737	3527.39
748.926	3572.73
749.114	3463.26
749.303	3541.54
749.491	3534.95
749.68	3476.83
749.869	3574.09
750.057	3506.28
750.246	3499.88
750.434	3499.69
750.623	3512.67
750.811	3484.77
751	3553.55
751.188	3474.7
751.377	3501.63
751.565	3452.22
751.754	3474.5
751.942	3474.11
752.131	3517.13
752.319	3470.43
752.507	3435.36
752.696	3464.62
752.884	3543.48
753.072	3453.19
753.261	3517.51
753.449	3500.08
753.637	3460.55
753.825	3522.74
754.014	3451.83
754.202	3508.79
754.39	3535.73
754.578	3483.61
754.766	3427.61
754.955	3404.17
755.143	3510.73
755.331	3466.95
755.519	3414.44
755.707	3457.06
755.895	3423.35
756.083	3387.9
756.271	3388.09
756.459	3399.71
756.647	3453.77
756.835	3362.9
757.023	3391.97
757.211	3371.23
757.399	3406.69
757.587	3389.45
757.775	3309.62
757.963	3338.1
758.151	3320.28
758.339	3283.47
758.526	3281.92
758.714	3317.37
758.902	3166.83
759.09	3104.83
759.278	2962.04
759.465	2655.73
759.653	2329.84
759.841	2083.4
760.028	1836.17
760.216	1569.58
760.404	1463.99
760.591	1240.4
760.779	1022.63
760.967	850.2
761.154	689.77
761.342	759.13
761.529	738.21
761.717	789.16
761.905	747.51
762.092	821.52
762.28	765.14
762.467	762.43
762.655	698.68
762.842	711.67
763.029	742.08
763.217	738.21
763.404	725.42
763.592	761.46
763.779	722.32
763.966	765.92
764.154	796.33
764.341	842.45
764.528	832.18
764.716	899.21
764.903	976.71
765.09	1031.93
765.277	1076.88
765.465	1229.55
765.652	1302.4
765.839	1370.79
766.026	1507.77
766.213	1520.95
766.4	1636.42
766.588	1801.3
766.775	1867.76
766.962	1959.59
767.149	2023.72
767.336	2195.96
767.523	2153.53
767.71	2306.4
767.897	2422.65
768.084	2487.55
768.271	2562.15
768.458	2597.8
768.645	2634.22
768.832	2652.24
769.019	2645.26
769.206	2725.47
769.392	2771.2
769.579	2849.47
769.766	2835.72
769.953	2825.84
770.14	2903.53
770.327	2890.35
770.513	2980.06
770.7	3022.3
770.887	2916.32
771.073	2936.08
771.26	2953.9
771.447	2967.85
771.634	2917.67
771.82	3005.63
772.007	2913.22
772.193	2963.98
772.38	3008.54
772.567	2987.61
772.753	2985.1
772.94	3028.88
773.126	2997.88
773.313	3004.08
773.499	3017.45
773.686	3011.64
773.872	2966.88
774.059	3006.99
774.245	2928.91
774.432	2926.78
774.618	2923.68
774.804	2967.66
774.991	2897.33
775.177	2955.65
775.363	2900.62
775.55	2967.46
775.736	2887.45
775.922	2943.63
776.109	2922.52
776.295	2940.92
776.481	2958.75
776.667	2965.53
776.853	2912.63
777.04	2892.48
777.226	2890.55
777.412	2960.49
777.598	2851.8
777.784	2899.46
777.97	2858.58
778.156	2919.03
778.342	2882.02
778.528	2841.72
778.715	2799.68
778.901	2796.58
779.087	2819.83
779.272	2849.09
779.458	2766.74
779.644	2855.87
779.83	2839.2
780.016	2903.92
780.202	2815.95
780.388	2797.74
780.574	2748.53
780.76	2787.67
780.946	2797.35
781.131	2802
781.317	2771.97
781.503	2758.02
781.689	2749.31
781.874	2846.18
782.06	2775.66
782.246	2745.24
782.432	2748.14
782.617	2744.46
782.803	2811.3
782.989	2698.74
783.174	2705.32
783.36	2696.02
783.545	2715.21
783.731	2691.18
783.916	2590.24
784.102	2700.48
784.288	2659.79
784.473	2678.78
784.659	2641.58
784.844	2681.88
785.029	2690.02
785.215	2627.63
785.4	2572.03
785.586	2721.21
785.771	2597.8
785.956	2647.2
786.142	2583.26
786.327	2586.75
786.512	2609.81
786.698	2586.36
786.883	2507.7
787.068	2555.75
787.254	2546.26
787.439	2546.06
787.624	2545.68
787.809	2520.49
787.994	2461.01
788.18	2551.3
788.365	2459.85
788.55	2481.35
788.735	2480
788.92	2477.67
789.105	2457.91
789.29	2435.82
789.475	2394.17
789.66	2419.35
789.845	2378.09
790.03	2386.61
790.215	2437.76
790.4	2439.89
790.585	2494.53
790.77	2424.59
790.955	2342.44
791.14	2382.15
791.325	2433.69
791.51	2293.22
791.695	2406.76
791.879	2334.88
792.064	2320.93
792.249	2418.97
792.434	2392.23
792.618	2359.68
792.803	2404.05
792.988	2353.67
793.173	2332.17
793.357	2433.5
793.542	2350.77
793.727	2362.78
793.911	2396.69
794.096	2377.89
794.281	2413.93
794.465	2463.14
794.65	2427.49
794.834	2441.63
795.019	2450.35
795.203	2455.2
795.388	2491.82
795.572	2491.62
795.757	2463.53
795.941	2430.79
796.126	2404.24
796.31	2373.63
796.494	2391.65
796.679	2389.32
796.863	2349.22
797.048	2469.34
797.232	2400.56
797.416	2442.02
797.601	2396.1
797.785	2472.63
797.969	2457.52
798.153	2388.55
798.338	2447.06
798.522	2448.03
798.706	2469.92
798.89	2491.04
799.074	2541.61
799.258	2519.33
799.443	2460.04
799.627	2445.7
799.811	2513.9
799.995	2431.75
800.179	2411.22
800.363	2425.75
800.547	2424.97
800.731	2479.42
800.915	2399.4
801.099	2378.67
801.283	2408.7
801.467	2418.19
801.651	2384.67
801.835	2477.67
802.019	2432.72
802.202	2427.88
802.386	2364.52
802.57	2378.28
802.754	2370.34
802.938	2382.93
803.121	2386.42
803.305	2469.34
803.489	2388.94
803.673	2448.03
803.856	2403.27
804.04	2387.39
804.224	2400.56
804.407	2380.22
804.591	2359.29
804.775	2392.42
804.958	2378.86
805.142	2499.57
805.326	2419.35
805.509	2431.37
805.693	2476.7
805.876	2428.07
806.06	2461.2
806.243	2457.72
806.427	2461.01
806.61	2475.15
806.794	2453.45
806.977	2486.78
807.16	2442.8
807.344	2431.75
807.527	2434.47
807.71	2411.41
807.894	2463.53
808.077	2461.01
808.26	2386.8
808.444	2400.75
808.627	2424
808.81	2393.59
808.993	2353.48
809.177	2380.41
809.36	2353.48
809.543	2332.94
809.726	2319.57
809.909	2285.67
810.092	2276.56
810.276	2295.55
810.459	2282.37
810.642	2254.48
810.825	2196.35
811.008	2238.01
811.191	2195.38
811.374	2165.35
811.557	2178.91
811.74	2254.09
811.923	2114.59
812.106	2108.2
812.289	2105.1
812.472	2068.48
812.654	2084.95
812.837	2028.76
813.02	1991.75
813.203	1974.9
813.386	1891.2
813.569	1861.94
813.751	1876.28
813.934	1842.18
814.117	1823.39
814.3	1738.33
814.482	1730
814.665	1695.71
814.848	1647.27
815.03	1611.43
815.213	1623.05
815.396	1599.61
815.578	1593.22
815.761	1559.5
815.943	1596.9
816.126	1519.2
816.309	1504.87
816.491	1423.3
816.674	1386.49
816.856	1482.2
817.039	1449.65
817.221	1525.6
817.403	1446.16
817.586	1473.29
817.768	1461.47
817.951	1393.27
818.133	1392.88
818.315	1452.75
818.498	1474.25
818.68	1530.05
818.862	1497.7
819.045	1485.69
819.227	1488.98
819.409	1475.22
819.591	1511.26
819.774	1463.6
819.956	1458.56
820.138	1531.41
820.32	1500.02
820.502	1590.7
820.684	1648.63
820.866	1645.14
821.048	1678.27
821.231	1695.71
821.413	1717.8
821.595	1659.67
821.777	1699.78
821.959	1679.24
822.141	1738.14
822.323	1619.18
822.505	1561.63
822.686	1513.97
822.868	1410.12
823.05	1363.43
823.232	1316.74
823.414	1236.91
823.596	1325.65
823.778	1280.9
823.96	1305.11
824.141	1324.49
824.323	1372.15
824.505	1439.57
824.687	1461.47
824.868	1541.29
825.05	1577.52
825.232	1657.15
825.413	1699.78
825.595	1631.38
825.777	1573.45
825.958	1658.7
826.14	1622.28
826.321	1657.73
826.503	1637.39
826.685	1643.59
826.866	1669.16
827.048	1649.01
827.229	1625.18
827.411	1584.5
827.592	1536.64
827.773	1514.94
827.955	1488.01
828.136	1527.15
828.318	1448.29
828.499	1478.32
828.68	1442.48
828.862	1497.89
829.043	1494.6
829.224	1440.35
829.406	1434.92
829.587	1460.5
829.768	1469.02
829.949	1498.86
830.131	1481.62
830.312	1549.82
830.493	1444.61
830.674	1482.59
830.855	1436.28
831.036	1449.65
831.218	1568.8
831.399	1543.23
831.58	1485.69
831.761	1484.33
831.942	1479.1
832.123	1483.55
832.304	1419.81
832.485	1469.8
832.666	1494.02
832.847	1507
833.028	1486.46
833.209	1478.13
833.389	1473.48
833.57	1400.44
833.751	1462.05
833.932	1498.47
834.113	1468.06
834.294	1469.61
834.475	1520.95
834.655	1552.14
834.836	1510.49
835.017	1511.26
835.198	1483.94
835.378	1514.36
835.559	1535.67
835.74	1506.22
835.92	1509.9
836.101	1456.04
836.281	1544
836.462	1572.1
836.643	1572.87
836.823	1557.76
837.004	1585.27
837.184	1620.92
837.365	1586.63
837.545	1608.52
837.726	1558.34
837.906	1635.07
838.087	1588.95
838.267	1536.64
838.448	1531.41
838.628	1543.42
838.808	1500.99
838.989	1619.76
839.169	1514.75
839.349	1602.32
839.53	1577.91
839.71	1590.5
839.89	1554.08
840.07	1591.28
840.251	1542.07
840.431	1585.08
840.611	1559.5
840.791	1526.57
840.971	1566.67
841.151	1541.1
841.332	1519.98
841.512	1605.81
841.692	1510.29
841.872	1563.57
842.052	1564.15
842.232	1561.63
842.412	1490.14
842.592	1531.99
842.772	1580.62
842.952	1565.12
843.132	1536.84
843.312	1523.85
843.492	1516.69
843.672	1561.44
843.851	1500.6
844.031	1534.32
844.211	1536.45
844.391	1491.89
844.571	1525.6
844.751	1565.51
844.93	1534.32
845.11	1500.99
845.29	1553.89
845.47	1532.96
845.649	1540.52
845.829	1555.63
846.009	1491.69
846.188	1532.38
846.368	1490.92
846.547	1481.81
846.727	1522.11
846.907	1454.49
847.086	1501.77
847.266	1548.27
847.445	1475.22
847.625	1506.8
847.804	1460.11
847.984	1502.54
848.163	1449.84
848.343	1476.58
848.522	1450.23
848.701	1469.8
848.881	1472.32
849.06	1489.37
849.239	1488.79
849.419	1457.21
849.598	1427.56
849.777	1402.18
849.957	1393.66
850.136	1345.8
850.315	1312.86
850.494	1323.91
850.674	1332.04
850.853	1412.45
851.032	1383.58
851.211	1397.92
851.39	1394.82
851.569	1370.99
851.748	1344.44
851.927	1378.93
852.107	1346.58
852.286	1314.22
852.465	1302.4
852.644	1400.24
852.823	1385.71
853.002	1343.86
853.181	1354.33
853.359	1387.26
853.538	1341.73
853.717	1351.81
853.896	1288.45
854.075	1227.23
854.254	1178.98
854.433	1145.08
854.611	1185.57
854.79	1141.59
854.969	1219.86
855.148	1214.05
855.327	1182.08
855.505	1227.03
855.684	1205.92
855.863	1241.56
856.041	1207.47
856.22	1272.95
856.399	1237.88
856.577	1302.59
856.756	1284
856.934	1392.69
857.113	1400.24
857.291	1319.06
857.47	1305.31
857.648	1306.47
857.827	1328.36
858.005	1349.48
858.184	1254.74
858.362	1364.01
858.541	1330.49
858.719	1285.16
858.898	1295.04
859.076	1296.78
859.254	1380.87
859.433	1258.42
859.611	1263.65
859.789	1236.72
859.967	1309.96
860.146	1339.21
860.324	1236.33
860.502	1279.35
860.68	1211.15
860.859	1263.85
861.037	1257.06
861.215	1295.23
861.393	1280.12
861.571	1244.66
861.749	1251.64
861.927	1273.73
862.105	1278.57
862.283	1253.19
862.461	1214.83
862.639	1216.18
862.817	1228
862.995	1229.16
863.173	1210.18
863.351	1249.51
863.529	1229.75
863.707	1284.58
863.885	1256.29
864.063	1176.47
864.241	1195.07
864.418	1236.14
864.596	1210.76
864.774	1158.64
864.952	1223.93
865.129	1225.29
865.307	1186.93
865.485	1143.92
865.663	1185.57
865.84	1123.96
866.018	1157.28
866.196	1015.66
866.373	1052.47
866.551	1037.74
866.728	989.69
866.906	1038.52
867.084	1060.41
867.261	1084.05
867.439	1084.44
867.616	1085.4
867.794	1112.34
867.971	1073.2
868.149	1097.8
868.326	1147.4
868.503	1179.76
868.681	1116.02
868.858	1106.91
869.035	1077.07
869.213	1117.57
869.39	1102.26
869.567	1183.25
869.745	1088.31
869.922	1107.69
870.099	1150.31
870.276	1142.56
870.454	1134.42
870.631	1123.77
870.808	1127.25
870.985	1127.06
871.162	1149.53
871.339	1101.87
871.517	1067.39
871.694	1073
871.871	1095.87
872.048	1060.99
872.225	1056.92
872.402	1105.17
872.579	1071.07
872.756	1094.51
872.933	1059.44
873.11	1058.28
873.287	1074.17
873.463	1074.17
873.64	1055.37
873.817	1090.83
873.994	1037.74
874.171	1003.26
874.348	1047.82
874.524	994.15
874.701	1067.77
874.878	978.46
875.055	1051.11
875.231	1043.36
875.408	1029.22
875.585	980.59
875.762	1018.56
875.938	1029.41
876.115	1004.61
876.291	978.46
876.468	1017.59
876.645	993.57
876.821	1007.91
876.998	994.73
877.174	1015.46
877.351	968.77
877.527	978.26
877.704	990.86
877.88	968.77
878.057	979.42
878.233	1048.2
878.409	967.02
878.586	1009.26
878.762	992.79
878.938	987.37
879.115	921.11
879.291	998.61
879.467	905.61
879.644	936.99
879.82	976.32
879.996	945.91
880.172	909.68
880.349	930.21
880.525	949.97
880.701	928.86
880.877	906.38
881.053	939.51
881.229	941.64
881.405	1008.87
881.581	919.75
881.757	939.32
881.933	949.78
882.109	987.76
882.285	938.35
882.461	907.54
882.637	945.13
882.813	914.71
882.989	915.49
883.165	966.06
883.341	900.96
883.517	947.07
883.693	977.1
883.869	957.92
884.044	924.01
884.22	927.31
884.396	963.92
884.572	963.92
884.747	960.05
884.923	938.16
885.099	947.07
885.275	962.76
885.45	899.02
885.626	904.06
885.801	919.36
885.977	929.44
886.153	852.71
886.328	939.71
886.504	891.66
886.679	939.71
886.855	920.53
887.03	918.39
887.206	968.19
887.381	942.23
887.557	944.94
887.732	923.82
887.908	939.13
888.083	937.58
888.258	933.31
888.434	908.32
888.609	934.86
888.784	955.01
888.96	918.2
889.135	901.34
889.31	922.66
889.485	924.98
889.661	913.36
889.836	971.67
890.011	948.04
890.186	897.66
890.361	889.91
890.537	936.8
890.712	904.25
890.887	932.73
891.062	874.03
891.237	968.77
891.412	892.63
891.587	944.55
891.762	935.44
891.937	939.32
892.112	883.33
892.287	879.06
892.462	845.93
892.637	858.33
892.812	824.81
892.987	846.13
893.161	803.5
893.336	833.34
893.511	846.32
893.686	837.21
893.861	813.96
894.035	807.38
894.21	813
894.385	769.98
894.56	823.85
894.734	740.34
894.909	754.87
895.084	768.24
895.258	725.62
895.433	752.93
895.608	713.02
895.782	666.33
895.957	681.64
896.131	704.3
896.306	637.46
896.48	645.79
896.655	628.94
896.829	569.46
897.004	588.44
897.178	587.09
897.353	584.18
897.527	607.24
897.701	606.46
897.876	569.84
898.05	635.33
898.224	610.53
898.399	601.62
898.573	579.53
898.747	501.06
898.921	538.07
899.096	463.09
899.27	458.44
899.444	461.34
899.618	498.35
899.792	525.86
899.967	543.49
900.141	553.18
900.315	517.14
900.489	490.41
900.663	516.76
900.837	495.64
901.011	463.09
901.185	534.39
901.359	523.73
901.533	523.15
901.707	522.37
901.881	503.19
902.055	485.37
902.229	509.97
902.403	552.21
902.576	522.96
902.75	537.1
902.924	631.84
903.098	537.87
903.272	612.27
903.446	617.7
903.619	623.9
903.793	644.05
903.967	644.24
904.14	662.07
904.314	652.96
904.488	663.42
904.661	694.62
904.835	662.84
905.009	720.58
905.182	731.43
905.356	695.97
905.529	671.56
905.703	651.02
905.876	647.73
906.05	591.74
906.223	613.63
906.397	568.1
906.57	540.2
906.744	511.72
906.917	530.71
907.09	512.69
907.264	509.78
907.437	484.4
907.61	459.6
907.784	492.73
907.957	513.66
908.13	453.79
908.304	486.53
908.477	453.01
908.65	468.71
908.823	439.64
908.996	529.35
909.17	436.93
909.343	417.95
909.516	469.87
909.689	443.91
909.862	414.26
910.035	449.72
910.208	466.77
910.381	437.9
910.554	516.17
910.727	464.44
910.9	436.74
911.073	451.85
911.246	493.89
911.419	491.38
911.592	459.6
911.765	458.24
911.938	429.38
912.11	471.23
912.283	445.84
912.456	480.72
912.629	462.7
912.802	427.05
912.974	386.75
913.147	366.99
913.32	310.61
913.493	366.99
913.665	380.75
913.838	396.83
914.01	387.91
914.183	382.49
914.356	378.81
914.528	425.5
914.701	455.34
914.873	465.41
915.046	385.59
915.218	356.53
915.391	275.54
915.563	323.59
915.736	353.04
915.908	379
916.081	390.24
916.253	376.87
916.425	397.21
916.598	405.16
916.77	406.32
916.942	358.46
917.115	300.15
917.287	386.36
917.459	329.21
917.632	338.9
917.804	284.45
917.976	354.4
918.148	375.32
918.32	381.71
918.493	378.23
918.665	424.92
918.837	377.06
919.009	445.65
919.181	439.06
919.353	404.58
919.525	384.04
919.697	398.38
919.869	399.93
920.041	483.04
920.213	503.78
920.385	444.68
920.557	406.51
920.729	430.54
920.901	447.98
921.073	409.03
921.244	387.33
921.416	473.16
921.588	398.38
921.76	410.39
921.932	472.78
922.103	418.14
922.275	377.65
922.447	460.76
922.619	345.29
922.79	391.4
922.962	373.38
923.134	432.48
923.305	382.1
923.477	350.71
923.648	342.96
923.82	377.26
923.991	344.9
924.163	325.72
924.335	362.92
924.506	314.29
924.677	393.53
924.849	350.91
925.02	350.91
925.192	368.54
925.363	347.81
925.535	359.43
925.706	313.9
925.877	391.4
926.049	331.53
926.22	355.36
926.391	356.91
926.562	360.98
926.734	314.1
926.905	358.08
927.076	287.17
927.247	317.97
927.419	270.5
927.59	286.97
927.761	284.07
927.932	276.51
928.103	253.84
928.274	242.99
928.445	267.02
928.616	241.83
928.787	229.24
928.958	270.7
929.129	244.15
929.3	229.82
929.471	198.04
929.642	132.36
929.813	152.32
929.984	199.98
930.155	129.46
930.326	179.83
930.496	117.64
930.667	100.78
930.838	160.65
931.009	130.23
931.18	113.57
931.35	140.11
931.521	149.02
931.692	84.7
931.863	64.94
932.033	94.19
932.204	112.21
932.374	83.34
932.545	50.99
932.716	125.39
932.886	95.36
933.057	30.06
933.227	53.7
933.398	120.74
933.568	31.81
933.739	10.88
933.909	42.46
934.08	39.17
934.25	9.91
934.421	2.74
934.591	50.6
934.761	34.33
934.932	-29.42
935.102	17.86
935.272	10.3
935.443	32.78
935.613	21.73
935.783	36.65
935.953	-5.39
936.123	154.84
936.294	-11.4
936.464	10.88
936.634	19.41
936.804	-6.56
936.974	-13.14
937.144	44.4
937.314	23.86
937.484	20.76
937.655	-6.56
937.825	58.16
937.995	-9.07
938.165	69.2
938.334	28.51
938.504	53.89
938.674	28.71
938.844	21.93
939.014	84.89
939.184	75.4
939.354	136.04
939.524	119.38
939.694	58.74
939.863	38.2
940.033	111.63
940.203	87.22
940.373	83.15
940.542	114.15
940.712	70.56
940.882	109.11
941.051	110.27
941.221	103.69
941.391	84.31
941.56	77.34
941.73	51.57
941.899	163.75
942.069	76.56
942.238	90.51
942.408	72.69
942.577	84.51
942.747	53.12
942.916	19.6
943.086	54.86
943.255	92.64
943.425	62.42
943.594	62.23
943.763	0.03
943.933	9.53
944.102	15.14
944.271	64.16
944.441	79.86
944.61	62.03
944.779	63.58
944.948	109.5
945.117	18.63
945.287	34.91
945.456	-17.99
945.625	22.51
945.794	72.49
945.963	45.56
946.132	55.06
946.301	45.56
946.47	67.65
946.639	-8.49
946.808	55.64
946.977	69.78
947.146	100.59
947.315	33.74
947.484	71.33
947.653	57.58
947.822	35.88
947.991	18.44
948.16	117.25
948.329	81.41
948.498	45.56
948.666	88.19
948.835	86.44
949.004	22.51
949.173	6.62
949.341	50.02
949.51	67.07
949.679	89.16
949.847	71.72
950.016	138.56
950.185	94.97
950.353	35.29
950.522	26.77
950.69	78.5
950.859	51.38
951.028	81.21
951.196	65.52
951.365	42.27
951.533	15.73
951.701	97.49
951.87	64.74
952.038	23.86
952.207	45.76
952.375	98.84
952.543	36.07
952.712	27.35
952.88	38.98
953.048	73.27
953.217	72.49
953.385	39.56
953.553	94.19
953.721	6.04
953.89	51.96
954.058	32.19
954.226	31.61
954.394	66.88
954.562	3.71
954.73	35.88
954.898	53.31
955.067	88.57
955.235	50.41
955.403	76.56
955.571	106.59
955.739	54.28
955.907	26.96
956.075	32.97
956.243	15.73
956.41	68.04
956.578	17.66
956.746	-5.39
956.914	50.21
957.082	85.47
957.25	74.04
957.418	19.21
957.585	64.74
957.753	79.08
957.921	34.13
958.089	73.85
958.256	71.91
958.424	60.87
958.592	82.57
958.759	27.54
958.927	75.01
959.095	6.23
959.262	57.58
959.43	54.28
959.597	34.52
959.765	63.97
959.932	32.39
960.1	99.62
960.267	57.96
960.435	33.55
960.602	79.08
960.77	45.76
960.937	-13.92
961.104	46.92
961.272	20.76
961.439	45.37
961.606	47.11
961.774	80.82
961.941	24.64
962.108	89.16
962.275	84.31
962.443	92.84
962.61	73.85
962.777	136.43
962.944	94.77
963.111	63.78
963.278	101.17
963.446	73.85
963.613	63.39
963.78	86.83
963.947	85.09
964.114	70.94
964.281	131.78
964.448	114.92
964.615	56.8
964.782	84.51
964.949	94
965.116	105.82
965.282	97.1
965.449	82.18
965.616	64.16
965.783	106.01
965.95	91.87
966.117	56.61
966.283	78.89
966.45	57.19
966.617	72.11
966.784	90.32
966.95	100.01
967.117	82.57
967.284	44.98
967.45	63.19
967.617	131.78
967.784	111.82
967.95	145.34
968.117	100.01
968.283	114.15
968.45	173.63
968.616	90.32
968.783	119.19
968.949	102.14
969.116	112.21
969.282	90.51
969.449	98.46
969.615	104.66
969.781	61.06
969.948	75.59
970.114	41.69
970.28	143.41
970.447	84.31
970.613	146.31
970.779	100.01
970.945	95.74
971.112	93.42
971.278	91.48
971.444	90.9
971.61	105.43
971.776	66.68
971.942	123.64
972.108	124.81
972.275	69.01
972.441	90.71
972.607	138.17
972.773	70.75
972.939	99.62
973.105	81.21
973.271	63.39
973.437	58.16
973.602	73.66
973.768	85.86
973.934	89.74
974.1	119.96
974.266	12.43
974.432	106.21
974.598	99.42
974.763	96.71
974.929	61.26
975.095	121.9
975.261	77.53
975.426	49.63
975.592	96.71
975.758	130.23
975.923	24.83
976.089	86.83
976.255	121.9
976.42	90.12
976.586	99.23
976.751	102.33
976.917	177.12
977.082	113.96
977.248	36.26
977.413	20.18
977.579	82.37
977.744	93.22
977.91	50.21
978.075	76.56
978.24	112.02
978.406	49.05
978.571	59.71
978.736	51.57
978.902	95.16
979.067	33.36
979.232	12.04
979.397	77.92
979.563	113.57
979.728	66.88
979.893	90.12
980.058	51.38
980.223	100.01
980.388	83.15
980.554	91.67
980.719	70.94
980.884	77.72
981.049	114.34
981.214	66.88
981.379	90.32
981.544	55.25
981.709	77.14
981.874	71.14
982.039	70.94
982.204	94
982.368	44.59
982.533	30.26
982.698	94.97
982.863	136.43
983.028	64.94
983.193	63.19
983.357	67.65
983.522	78.11
983.687	84.31
983.852	80.05
984.016	67.46
984.181	100.78
984.346	83.73
984.51	98.84
984.675	43.24
984.839	85.47
985.004	90.9
985.168	125.77
985.333	101.36
985.498	60.29
985.662	84.7
985.827	74.62
985.991	75.01
986.155	102.33
986.32	98.26
986.484	134.88
986.649	85.47
986.813	27.93
986.977	71.14
987.142	85.67
987.306	50.21
987.47	56.22
987.634	89.35
987.799	64.16
987.963	99.04
988.127	92.26
988.291	138.56
988.455	78.5
988.62	57.19
988.784	95.36
988.948	77.53
989.112	58.54
989.276	86.83
989.44	58.16
989.604	31.03
989.768	61.06
989.932	144.96
990.096	26.96
990.26	31.23
990.424	50.21
990.588	90.9
990.752	100.97
990.915	81.6
991.079	85.09
991.243	77.72
991.407	97.29
991.571	92.06
991.734	88.57
991.898	94.97
992.062	152.32
992.226	64.55
992.389	54.48
992.553	38.2
992.717	46.73
992.88	56.61
993.044	48.47
993.207	53.51
993.371	95.94
993.535	72.88
993.698	42.08
993.862	104.66
994.025	111.82
994.189	62.81
994.352	75.98
994.515	88.77
994.679	105.82
994.842	46.92
995.006	94.39
995.169	32.58
995.332	47.69
995.496	90.32
995.659	42.08
995.822	73.27
995.985	57.58
996.149	112.99
996.312	52.34
996.475	113.37
996.638	51.38
996.801	88.57
996.964	115.31
997.128	51.18
997.291	46.34
997.454	91.29
997.617	0.61
997.78	95.55
997.943	46.53
998.106	99.81
998.269	37.62
998.432	75.59
998.595	50.21
998.758	27.93
998.92	30.64
999.083	21.93
999.246	50.99
999.409	26.77
999.572	-1.32
999.735	41.88
999.897	79.86
1000.06	49.63
1000.223	40.33
1000.386	52.54
1000.548	91.09
1000.711	80.44
1000.874	57.77
1001.036	3.52
1001.199	63
1001.361	19.41
1001.524	42.46
1001.687	78.69
1001.849	24.25
1002.012	54.28
1002.174	67.46
1002.337	95.36
1002.499	31.03
1002.661	82.96
1002.824	41.69
1002.986	31.42
1003.149	31.81
1003.311	18.83
1003.473	108.53
1003.636	30.45
1003.798	90.71
1003.96	39.36
1004.123	51.57
1004.285	16.5
1004.447	51.76
1004.609	47.69
1004.771	92.26
1004.933	22.51
1005.096	16.11
1005.258	1
1005.42	23.09
1005.582	82.76
1005.744	42.66
1005.906	9.91
1006.068	65.13
1006.23	20.18
1006.392	14.56
1006.554	19.79
1006.716	75.21
1006.878	75.21
1007.04	-11.98
1007.202	12.24
1007.363	43.24
1007.525	30.06
1007.687	26.96
1007.849	70.75
1008.011	-22.05
1008.172	16.69
1008.334	26.58
1008.496	55.64
1008.658	-6.75
1008.819	32.78
1008.981	-2.87
1009.143	0.42
1009.304	53.31
1009.466	92.26
1009.627	87.8
1009.789	123.26
1009.95	48.08
1010.112	1.97
1010.273	70.56
1010.435	35.1
1010.596	22.89
1010.758	28.9
1010.919	33.16
1011.081	-0.55
1011.242	27.54
1011.403	38.39
1011.565	33.55
1011.726	46.73
1011.887	5.46
1012.049	22.7
1012.21	58.74
1012.371	80.63
1012.532	-33.68
1012.693	42.08
1012.855	-0.74
1013.016	11.85
1013.177	61.45
1013.338	-0.94
1013.499	84.89
1013.66	78.5
1013.821	61.26
1013.982	56.41
1014.143	13.59
1014.304	12.63
1014.465	35.68
1014.626	53.31
1014.787	21.15
1014.948	108.72
1015.109	-28.64
1015.27	68.43
1015.431	2.36
1015.592	9.33
1015.752	84.51
1015.913	16.69
1016.074	50.21
1016.235	40.33
1016.395	14.76
1016.556	31.23
1016.717	12.04
1016.877	63.39
1017.038	5.65
1017.199	58.93
1017.359	25.8
1017.52	38.59
1017.681	14.95
1017.841	27.35
1018.002	23.48
1018.162	23.48
1018.323	68.23
1018.483	8.36
1018.644	21.93
1018.804	18.63
1018.964	9.53
1019.125	39.94
1019.285	25.8
1019.446	0.03
1019.606	-0.55
1019.766	2.36
1019.926	39.94
1020.087	46.14
1020.247	-1.52
1020.407	61.45
1020.567	67.84
1020.728	13.21
1020.888	15.14
1021.048	-11.98
1021.208	-24.96
1021.368	19.41
1021.528	66.68
1021.688	45.37
1021.848	57.58
1022.008	30.64
1022.168	18.24
1022.328	29.09
1022.488	59.32
1022.648	13.01
1022.808	19.21
1022.968	25.8
1023.128	2.55
1023.288	-26.51
1023.448	8.94
1023.608	30.84
1023.767	64.36
1023.927	15.73
1024.087	-19.34
1024.247	-43.75
1024.406	-0.16
1024.566	2.74
1024.726	3.33
1024.885	0.03
1025.045	36.07
1025.205	13.4
1025.364	9.91
1025.524	35.29
1025.683	19.41
1025.843	-2.87
1026.003	31.42
1026.162	58.74
1026.321	32.78
1026.481	6.04
1026.64	-6.94
1026.8	18.24
1026.959	25.03
1027.119	16.69
1027.278	5.65
1027.437	-34.65
1027.597	-14.11
1027.756	48.08
1027.915	25.61
1028.074	53.51
1028.234	-25.35
1028.393	34.33
1028.552	22.12
1028.711	-60.8
1028.87	45.56
1029.03	-26.7
1029.189	-21.09
1029.348	-37.94
1029.507	2.74
1029.666	1
1029.825	-41.82
1029.984	-9.85
1030.143	18.05
1030.302	13.79
1030.461	-27.87
1030.62	19.41
1030.779	33.94
1030.938	-27.48
1031.097	-20.31
1031.255	34.33
1031.414	63
1031.573	27.35
1031.732	-44.72
1031.891	22.7
1032.049	60.87
1032.208	40.14
1032.367	1.19
1032.525	-1.91
1032.684	-2.1
1032.843	-0.94
1033.001	-23.99
1033.16	148.44
1033.319	54.28
1033.477	35.49
1033.636	-36
1033.794	-36.59
1033.953	41.69
1034.111	18.44
1034.27	-5.78
1034.428	11.66
1034.587	-14.5
1034.745	7.01
1034.903	32
1035.062	23.28
1035.22	-21.28
1035.378	26.38
1035.537	-11.01
1035.695	31.03
1035.853	12.24
1036.011	43.82
1036.17	6.23
1036.328	-55.19
1036.486	21.73
1036.644	10.3
1036.802	-57.12
1036.96	-17.6
1037.119	5.07
1037.277	-22.64
1037.435	-23.6
1037.593	-28.06
1037.751	-9.85
1037.909	49.05
1038.067	49.05
