Data from gum_young_FLMT105791__18__17-38-17-045.txt Node

Date: Mon Mar 20 17:38:17 GMT 2023
User: antho
Spectrometer: FLMT10579
Trigger mode: 0
Integration Time (sec): 1.000000E-1
Scans to average: 10
Electric dark correction enabled: true
Nonlinearity correction enabled: false
Boxcar width: 0
XAxis mode: Wavelengths
Number of Pixels in Spectrum: 3648
>>>>>Begin Spectral Data<<<<<
345.248	-123.95
345.464	-123.95
345.681	-123.95
345.898	-161.34
346.114	-150.3
346.331	-31.73
346.548	20
346.764	5.09
346.981	-3.44
347.197	-37.93
347.414	5.28
347.631	-15.45
347.847	63.6
348.064	-16.23
348.28	38.8
348.497	-34.24
348.713	6.25
348.93	26.98
349.146	37.25
349.363	19.62
349.579	17.68
349.796	-6.54
350.012	-2.86
350.229	15.16
350.445	-11.96
350.661	-28.04
350.878	0.82
351.094	17.87
351.311	23.69
351.527	37.64
351.743	10.51
351.96	11.09
352.176	35.12
352.392	14.39
352.609	18.65
352.825	-23.78
353.041	19.42
353.257	3.34
353.474	-9.64
353.69	10.32
353.906	16.13
354.122	16.13
354.339	52.36
354.555	22.91
354.771	15.16
354.987	49.84
355.203	82.58
355.42	14.77
355.636	9.35
355.852	-14.68
356.068	23.88
356.284	-11.19
356.5	36.47
356.716	14.58
356.932	-7.12
357.148	22.14
357.364	11.48
357.58	40.74
357.796	38.02
358.012	58.37
358.228	17.68
358.444	-40.44
358.66	81.81
358.876	-0.53
359.092	-16.03
359.308	33.57
359.524	40.54
359.74	2.18
359.956	-8.86
360.172	23.3
360.388	52.17
360.604	4.7
360.819	72.32
361.035	20.2
361.251	15.16
361.467	-12.74
361.683	33.57
361.898	10.9
362.114	40.74
362.33	47.13
362.546	34.54
362.762	16.32
362.977	26.98
363.193	6.44
363.409	44.8
363.624	-32.11
363.84	13.22
364.056	-17.97
364.271	24.46
364.487	27.95
364.703	7.99
364.918	-5.96
365.134	-11.19
365.35	5.86
365.565	120.75
365.781	20.78
365.996	38.8
366.212	55.65
366.427	31.63
366.643	19.81
366.858	-6.15
367.074	-25.91
367.289	70.96
367.505	105.06
367.72	-31.73
367.936	-10.22
368.151	38.6
368.367	30.08
368.582	-0.15
368.798	-6.93
369.013	50.42
369.228	18.65
369.444	-5.76
369.659	71.93
369.874	55.46
370.09	51.39
370.305	-24.36
370.52	16.52
370.736	45
370.951	17.1
371.166	51.97
371.381	81.03
371.597	35.89
371.812	-26.88
372.027	3.92
372.242	13.61
372.458	70.18
372.673	25.82
372.888	41.32
373.103	57.2
373.318	88.78
373.533	59.14
373.749	4.89
373.964	-9.06
374.179	50.81
374.394	-35.02
374.609	87.62
374.824	-11
375.039	66.89
375.254	23.49
375.469	34.34
375.684	35.7
375.899	61.47
376.114	17.87
376.329	28.53
376.544	49.07
376.759	43.06
376.974	-2.86
377.189	24.27
377.404	23.1
377.619	65.34
377.834	-33.86
378.049	-35.02
378.264	13.61
378.478	38.02
378.693	-9.83
378.908	30.85
379.123	19.04
379.338	80.84
379.553	3.34
379.767	35.31
379.982	47.52
380.197	58.56
380.412	20.78
380.626	74.83
380.841	106.8
381.056	32.02
381.271	62.82
381.485	0.82
381.7	-13.13
381.915	36.86
382.129	-4.41
382.344	50.81
382.559	10.12
382.773	51.97
382.988	-24.56
383.202	37.83
383.417	14.77
383.632	97.5
383.846	43.06
384.061	28.34
384.275	20.97
384.49	41.12
384.704	44.22
384.919	29.3
385.133	47.13
385.348	49.07
385.562	-15.65
385.777	38.8
385.991	34.54
386.206	13.42
386.42	54.49
386.634	82.58
386.849	20.39
387.063	25.62
387.277	7.02
387.492	13.8
387.706	-14.87
387.92	3.73
388.135	50.81
388.349	23.69
388.563	26.98
388.778	46.16
388.992	49.07
389.206	36.86
389.42	87.62
389.635	42.87
389.849	54.88
390.063	65.34
390.277	41.51
390.491	91.3
390.706	24.65
390.92	59.72
391.134	42.09
391.348	43.84
391.562	1.99
391.776	32.79
391.99	-0.73
392.205	47.32
392.419	17.29
392.633	16.52
392.847	48.68
393.061	6.83
393.275	80.65
393.489	29.5
393.703	53.33
393.917	77.35
394.131	8.57
394.345	83.36
394.559	85.49
394.773	15.35
394.986	50.62
395.2	46.16
395.414	82.97
395.628	22.14
395.842	42.29
396.056	35.12
396.27	-7.31
396.484	54.69
396.697	49.65
396.911	95.37
397.125	63.21
397.339	60.3
397.553	48.29
397.766	112.03
397.98	58.75
398.194	84.72
398.408	51.2
398.621	64.57
398.835	69.02
399.049	50.62
399.262	101.96
399.476	88.59
399.69	65.73
399.903	122.3
400.117	45.58
400.331	88.2
400.544	45.39
400.758	161.44
400.971	83.36
401.185	109.71
401.398	35.12
401.612	100.41
401.826	93.05
402.039	74.64
402.253	8.77
402.466	91.88
402.68	64.37
402.893	86.46
403.106	75.22
403.32	63.6
403.533	99.05
403.747	41.7
403.96	64.95
404.174	97.12
404.387	24.46
404.6	66.12
404.814	118.62
405.027	35.31
405.24	51
405.454	68.63
405.667	113
405.88	24.46
406.094	82.97
406.307	96.92
406.52	113.58
406.733	41.51
406.947	32.79
407.16	114.75
407.373	121.14
407.586	35.12
407.799	51.2
408.012	110.48
408.226	74.64
408.439	121.14
408.652	29.3
408.865	85.68
409.078	92.85
409.291	118.23
409.504	45.97
409.717	105.83
409.93	79.1
410.143	104.28
410.357	15.35
410.57	20
410.783	60.11
410.996	97.89
411.209	96.92
411.421	118.23
411.634	80.84
411.847	83.36
412.06	85.49
412.273	116.68
412.486	94.6
412.699	163.38
412.912	89.17
413.125	111.45
413.338	87.82
413.55	111.45
413.763	107
413.976	107.19
414.189	95.57
414.402	79.29
414.615	136.45
414.827	64.95
415.04	138.97
415.253	117.27
415.466	129.08
415.678	156.21
415.891	95.57
416.104	83.36
416.316	72.12
416.529	78.32
416.742	102.15
416.954	129.28
417.167	97.31
417.38	82.97
417.592	122.11
417.805	73.87
418.017	64.76
418.23	114.94
418.442	93.63
418.655	74.83
418.868	110.87
419.08	143.23
419.293	155.63
419.505	120.56
419.718	114.36
419.93	144
420.142	122.3
420.355	164.93
420.567	178.3
420.78	112.03
420.992	112.42
421.205	156.79
421.417	90.92
421.629	99.05
421.842	79.87
422.054	66.89
422.266	154.08
422.479	184.69
422.691	98.08
422.903	141.68
423.115	98.47
423.328	97.31
423.54	115.72
423.752	81.03
423.964	118.43
424.177	132.96
424.389	103.32
424.601	227.12
424.813	131.99
425.025	158.73
425.238	155.24
425.45	136.25
425.662	123.47
425.874	366.42
426.086	122.69
426.298	147.88
426.51	139.74
426.722	142.26
426.934	119.78
427.146	159.5
427.358	92.85
427.57	155.05
427.782	128.12
427.994	125.21
428.206	102.73
428.418	113.58
428.63	175
428.842	178.1
429.054	121.53
429.266	169.58
429.478	120.75
429.69	132.57
429.902	80.07
430.114	152.72
430.325	137.22
430.537	105.83
430.749	108.55
430.961	83.36
431.173	124.43
431.384	150.98
431.596	53.33
431.808	115.91
432.02	157.56
432.231	171.32
432.443	161.25
432.655	139.35
432.867	125.21
433.078	161.44
433.29	209.88
433.502	162.6
433.713	171.51
433.925	146.91
434.136	180.23
434.348	112.23
434.56	108.55
434.771	212.59
434.983	134.51
435.194	124.24
435.406	148.07
435.617	200.77
435.829	220.15
436.04	204.84
436.252	181.98
436.463	213.56
436.675	193.41
436.886	160.66
437.098	207.36
437.309	214.33
437.521	149.23
437.732	186.63
437.943	182.17
438.155	183.53
438.366	120.95
438.578	200.19
438.789	177.71
439	194.57
439.211	155.43
439.423	178.49
439.634	169.19
439.845	185.46
440.057	182.36
440.268	203.1
440.479	173.84
440.69	188.18
440.902	170.35
441.113	162.41
441.324	165.7
441.535	196.51
441.746	224.41
441.957	147.68
442.168	147.49
442.38	209.88
442.591	203.87
442.802	169.96
443.013	191.28
443.224	227.7
443.435	195.73
443.646	192.25
443.857	212.98
444.068	190.7
444.279	175.39
444.49	235.84
444.701	195.73
444.912	275.75
445.123	227.12
445.334	213.56
445.545	200.96
445.756	198.25
445.967	169
446.178	223.05
446.388	239.91
446.599	257.54
446.81	271.49
447.021	192.05
447.232	248.04
447.443	273.62
447.653	203.1
447.864	272.26
448.075	247.85
448.286	257.54
448.496	240.68
448.707	276.72
448.918	239.71
449.129	276.33
449.339	217.82
449.55	274.01
449.761	221.5
449.971	308.11
450.182	238.36
450.393	249.79
450.603	239.13
450.814	285.24
451.024	252.5
451.235	290.09
451.446	312.37
451.656	293.19
451.867	279.24
452.077	238.94
452.288	330.39
452.498	300.94
452.709	266.06
452.919	294.74
453.13	264.9
453.34	303.26
453.55	212.78
453.761	299.19
453.971	295.32
454.182	284.66
454.392	293.19
454.602	328.64
454.813	299.19
455.023	303.84
455.233	231
455.444	293.77
455.654	201.93
455.864	279.24
456.075	274.39
456.285	251.14
456.495	275.17
456.705	308.3
456.916	317.41
457.126	344.14
457.336	288.34
457.546	212.01
457.756	274.39
457.967	333.68
458.177	299.39
458.387	269.94
458.597	256.38
458.807	299.39
459.017	261.8
459.227	289.89
459.437	269.16
459.647	333.1
459.857	323.61
460.068	262.77
460.278	355.77
460.488	297.06
460.698	334.07
460.908	296.48
461.117	268.78
461.327	316.83
461.537	301.13
461.747	290.28
461.957	316.05
462.167	423.97
462.377	337.56
462.587	294.93
462.797	345.5
463.007	336.2
463.216	314.89
463.426	353.83
463.636	353.06
463.846	274.59
464.056	306.94
464.265	341.82
464.475	266.26
464.685	308.3
464.895	342.79
465.104	322.64
465.314	342.98
465.524	325.54
465.733	292.61
465.943	390.84
466.153	375.14
466.362	353.64
466.572	330.19
466.782	313.14
466.991	358.87
467.201	398.97
467.41	317.6
467.62	328.06
467.829	335.81
468.039	371.85
468.249	336.2
468.458	344.92
468.668	361.19
468.877	364.68
469.086	379.6
469.296	382.31
469.505	361.39
469.715	410.6
469.924	390.06
470.134	388.9
470.343	397.04
470.552	362.16
470.762	372.43
470.971	345.5
471.18	376.11
471.39	363.13
471.599	357.9
471.808	412.92
472.018	345.89
472.227	395.1
472.436	413.51
472.645	398.78
472.855	351.89
473.064	438.89
473.273	424.55
473.482	408.27
473.691	418.35
473.901	409.82
474.11	392
474.319	466.98
474.528	413.51
474.737	470.08
474.946	442.95
475.155	424.74
475.364	472.21
475.573	419.7
475.783	444.89
475.992	471.24
476.201	468.14
476.41	420.09
476.619	419.9
476.828	434.82
477.037	421.84
477.245	426.49
477.454	504.76
477.663	455.16
477.872	427.65
478.081	498.56
478.29	436.37
478.499	516.58
478.708	480.54
478.917	515.61
479.125	474.54
479.334	492.75
479.543	447.6
479.752	525.1
479.961	505.53
480.169	517.74
480.378	491
480.587	615.2
480.796	504.18
481.004	521.23
481.213	496.62
481.422	558.04
481.63	532.27
481.839	546.42
482.048	603.18
482.256	532.47
482.465	557.65
482.674	580.52
482.882	556.3
483.091	645.42
483.299	557.07
483.508	633.02
483.716	584.58
483.925	598.53
484.134	547
484.342	582.65
484.551	622.36
484.759	588.65
484.967	588.65
485.176	607.25
485.384	626.24
485.593	618.88
485.801	584
486.01	596.4
486.218	547
486.426	533.05
486.635	541.96
486.843	504.76
487.051	557.27
487.26	548.16
487.468	574.12
487.676	598.92
487.885	574.12
488.093	599.89
488.301	606.09
488.509	630.89
488.717	640.96
488.926	657.24
489.134	612.87
489.342	642.32
489.55	624.5
489.758	663.05
489.967	647.16
490.175	783.56
490.383	642.9
490.591	728.93
490.799	638.45
491.007	703.93
491.215	716.72
491.423	690.56
491.631	703.54
491.839	705.29
492.047	722.34
492.255	664.41
492.463	619.65
492.671	688.82
492.879	722.14
493.087	668.67
493.295	729.31
493.503	738.61
493.711	750.43
493.919	765.16
494.127	767.48
494.334	788.02
494.542	681.84
494.75	770.97
494.958	735.9
495.166	803.32
495.374	787.63
495.581	802.36
495.789	789.57
495.997	822.12
496.205	770.39
496.412	775.23
496.62	791.7
496.828	796.35
497.035	783.56
497.243	813.59
497.451	823.86
497.658	826.77
497.866	814.37
498.074	869
498.281	788.6
498.489	863.58
498.696	832.97
498.904	819.21
499.112	784.72
499.319	894
499.527	862.03
499.734	880.63
499.942	797.51
500.149	825.61
500.357	835.68
500.564	813.79
500.771	852.73
500.979	807.97
501.186	826.38
501.394	868.81
501.601	846.14
501.808	887.22
502.016	870.36
502.223	820.96
502.43	845.95
502.638	858.54
502.845	848.47
503.052	947.86
503.26	847.89
503.467	946.7
503.674	906.98
503.881	912.79
504.089	977.89
504.296	959.29
504.503	888.96
504.71	893.22
504.917	898.65
505.125	922.67
505.332	971.88
505.539	975.95
505.746	1055
505.953	1006.18
506.16	1009.28
506.367	1053.26
506.574	1054.03
506.781	1084.65
506.988	1020.9
507.195	1037.18
507.402	1044.35
507.609	1050.55
507.816	1012.77
508.023	1039.11
508.23	1013.15
508.437	987.58
508.644	1067.01
508.851	1121.07
509.058	1129.01
509.265	1078.25
509.472	1087.94
509.679	1193.92
509.885	1113.32
510.092	1109.64
510.299	1111.58
510.506	1117.78
510.713	1156.33
510.92	1104.99
511.126	1161.18
511.333	1188.3
511.54	1201.48
511.746	1241.77
511.953	1240.81
512.16	1255.34
512.367	1210.97
512.573	1209.61
512.78	1241.39
512.987	1222.59
513.193	1265.61
513.4	1180.16
513.606	1207.87
513.813	1259.79
514.02	1262.31
514.226	1321.99
514.433	1309.2
514.639	1234.61
514.846	1266.57
515.052	1266.57
515.259	1271.22
515.465	1315.2
515.672	1293.5
515.878	1409.95
516.085	1313.65
516.291	1405.88
516.497	1342.14
516.704	1319.47
516.91	1301.45
517.117	1213.1
517.323	1198.18
517.529	1259.41
517.736	1273.94
517.942	1270.64
518.148	1286.14
518.354	1337.68
518.561	1324.12
518.767	1348.34
518.973	1360.35
519.179	1403.75
519.386	1360.54
519.592	1374.1
519.798	1375.07
520.004	1490.16
520.21	1476.98
520.417	1484.54
520.623	1557
520.829	1540.34
521.035	1547.31
521.241	1552.74
521.447	1600.59
521.653	1682.55
521.859	1572.89
522.065	1659.11
522.271	1714.32
522.477	1657.75
522.683	1715.49
522.889	1656.78
523.095	1663.95
523.301	1691.66
523.507	1630.82
523.713	1692.82
523.919	1671.89
524.125	1721.88
524.331	1743
524.537	1842.39
524.742	1811.78
524.948	1786.98
525.154	1811.39
525.36	1930.35
525.566	1821.66
525.772	1862.35
525.977	1816.82
526.183	1853.82
526.389	1863.12
526.595	1746.87
526.8	1772.84
527.006	1695.34
527.212	1676.93
527.417	1670.34
527.623	1704.25
527.829	1791.24
528.034	1813.91
528.24	1804.42
528.446	1815.85
528.651	1873.58
528.857	1916.79
529.062	1951.08
529.268	1936.36
529.473	1971.81
529.679	1961.93
529.884	2011.92
530.09	1970.65
530.295	2002.04
530.501	2013.86
530.706	2040.21
530.912	2023.16
531.117	2050.86
531.323	2033.23
531.528	2071.59
531.733	2079.15
531.939	2064.81
532.144	2090.19
532.35	2069.27
532.555	2108.21
532.76	2061.71
532.966	2064.81
533.171	2025.48
533.376	1969.3
533.581	1966.2
533.787	2052.61
533.992	2102.59
534.197	2113.44
534.402	2094.84
534.607	2095.23
534.813	2153.55
535.018	2111.12
535.223	2115.96
535.428	2164.01
535.633	2188.81
535.838	2199.47
536.043	2210.7
536.249	2302.54
536.454	2197.72
536.659	2213.8
536.864	2169.05
537.069	2151.42
537.274	2197.72
537.479	2222.14
537.684	2188.04
537.889	2114.41
538.094	2285.3
538.299	2189
538.504	2229.69
538.708	2221.17
538.913	2327.34
539.118	2227.75
539.323	2234.54
539.528	2231.63
539.733	2221.75
539.938	2216.9
540.142	2223.3
540.347	2237.25
540.552	2171.37
540.757	2145.41
540.962	2194.24
541.166	2115.77
541.371	2114.02
541.576	2149.29
541.781	2108.99
541.985	2240.93
542.19	2214.39
542.395	2294.02
542.599	2278.13
542.804	2284.52
543.008	2314.75
543.213	2255.07
543.418	2244.03
543.622	2275.42
543.827	2224.85
544.031	2332.77
544.236	2310.48
544.44	2279.87
544.645	2374.03
544.849	2307.97
545.054	2330.63
545.258	2414.91
545.463	2383.53
545.667	2299.25
545.872	2357.18
546.076	2342.06
546.281	2341.87
546.485	2298.86
546.689	2321.92
546.894	2383.33
547.098	2317.27
547.302	2287.43
547.507	2343.81
547.711	2377.91
547.915	2383.72
548.119	2286.07
548.324	2325.4
548.528	2387.4
548.732	2324.05
548.936	2383.91
549.141	2385.66
549.345	2370.93
549.549	2357.18
549.753	2399.22
549.957	2443.98
550.161	2437.39
550.366	2369.96
550.57	2383.14
550.774	2401.35
550.978	2401.55
551.182	2391.28
551.386	2374.23
551.59	2358.92
551.794	2397.86
551.998	2436.23
552.202	2398.83
552.406	2357.76
552.61	2428.09
552.814	2408.13
553.018	2429.06
553.222	2387.79
553.426	2409.88
553.63	2437.97
553.833	2371.9
554.037	2346.71
554.241	2407.55
554.445	2455.02
554.649	2385.08
554.853	2405.42
555.056	2439.33
555.26	2435.84
555.464	2450.37
555.668	2419.95
555.871	2398.25
556.075	2454.05
556.279	2336.25
556.483	2344.78
556.686	2385.85
556.89	2378.68
557.094	2356.4
557.297	2304.87
557.501	2402.9
557.704	2280.07
557.908	2373.26
558.112	2299.83
558.315	2385.46
558.519	2345.55
558.722	2311.26
558.926	2315.13
559.129	2235.12
559.333	2250.04
559.536	2261.66
559.74	2212.25
559.943	2203.73
560.147	2225.04
560.35	2233.18
560.553	2258.95
560.757	2179.7
560.96	2276.58
561.164	2241.32
561.367	2307.38
561.57	2249.45
561.774	2239.77
561.977	2179.9
562.18	2196.75
562.384	2278.71
562.587	2237.05
562.79	2264.95
562.993	2238.8
563.197	2194.24
563.4	2286.85
563.603	2240.54
563.806	2286.65
564.009	2183.19
564.212	2210.7
564.416	2138.05
564.619	2209.74
564.822	2150.64
565.025	2196.95
565.228	2149.87
565.431	2163.04
565.634	2081.47
565.837	2145.02
566.04	2073.53
566.243	2043.31
566.446	2017.34
566.649	2083.99
566.852	2006.3
567.055	2100.46
567.258	2116.16
567.461	2162.27
567.664	2124.49
567.867	2040.4
568.07	2088.06
568.273	2064.43
568.475	2117.51
568.678	2052.99
568.881	2002.04
569.084	2019.48
569.287	1947.6
569.489	1965.03
569.692	2014.44
569.895	2026.64
570.098	1930.16
570.3	1935
570.503	1873.97
570.706	1907.49
570.909	1888.5
571.111	1825.15
571.314	1821.85
571.516	1862.15
571.719	1899.16
571.922	1877.65
572.124	1844.13
572.327	1855.95
572.529	1834.64
572.732	1841.42
572.935	1884.43
573.137	1960.19
573.34	1826.31
573.542	1890.25
573.745	1889.08
573.947	1855.95
574.15	1841.81
574.352	1830.96
574.554	1886.37
574.757	1807.71
574.959	1772.45
575.162	1817.98
575.364	1796.09
575.566	1820.11
575.769	1749.2
575.971	1781.36
576.173	1658.52
576.376	1743
576.578	1763.34
576.78	1805.58
576.982	1701.15
577.185	1772.45
577.387	1709.48
577.589	1729.82
577.791	1758.11
577.993	1800.74
578.196	1731.95
578.398	1749.78
578.6	1725.95
578.802	1689.52
579.004	1680.42
579.206	1681.39
579.408	1719.36
579.61	1669.57
579.812	1727.5
580.014	1658.91
580.216	1687.39
580.418	1679.06
580.62	1666.27
580.822	1687.97
581.024	1712.97
581.226	1743.97
581.428	1688.75
581.63	1799.38
581.832	1727.5
582.034	1741.45
582.236	1706.57
582.438	1750.17
582.64	1740.09
582.841	1774.58
583.043	1819.33
583.245	1721.88
583.447	1729.44
583.649	1707.74
583.85	1762.37
584.052	1806.94
584.254	1701.54
584.456	1782.91
584.657	1670.54
584.859	1731.76
585.061	1681.77
585.262	1692.43
585.464	1715.68
585.666	1735.05
585.867	1667.05
586.069	1726.34
586.27	1711.81
586.472	1687.97
586.674	1675.77
586.875	1658.33
587.077	1688.56
587.278	1662.59
587.48	1643.22
587.681	1753.85
587.883	1674.22
588.084	1589.55
588.285	1661.82
588.487	1618.61
588.688	1626.36
588.89	1518.64
589.091	1521.35
589.292	1504.69
589.494	1462.84
589.695	1420.02
589.896	1345.24
590.098	1357.25
590.299	1458
590.5	1403.36
590.702	1442.69
590.903	1484.15
591.104	1501.78
591.305	1529.88
591.507	1558.74
591.708	1538.4
591.909	1499.65
592.11	1566.49
592.311	1535.3
592.512	1508.76
592.714	1439.01
592.915	1494.42
593.116	1515.54
593.317	1523.87
593.518	1507.01
593.719	1522.13
593.92	1522.9
594.121	1570.76
594.322	1547.9
594.523	1478.53
594.724	1444.63
594.925	1515.15
595.126	1469.62
595.327	1468.07
595.528	1479.11
595.729	1502.36
595.929	1499.85
596.13	1508.37
596.331	1529.88
596.532	1510.5
596.733	1600.79
596.934	1579.28
597.135	1553.51
597.335	1520.38
597.536	1519.61
597.737	1508.18
597.938	1515.73
598.138	1530.65
598.339	1467.3
598.54	1493.65
598.74	1475.43
598.941	1492.87
599.142	1544.41
599.342	1557.58
599.543	1481.44
599.744	1515.35
599.944	1511.28
600.145	1522.32
600.345	1511.66
600.546	1575.41
600.746	1574.44
600.947	1560.29
601.147	1528.91
601.348	1538.98
601.548	1484.93
601.749	1523.48
601.949	1448.5
602.15	1475.24
602.35	1515.15
602.551	1504.11
602.751	1470.4
602.951	1470.98
603.152	1432.42
603.352	1525.61
603.552	1520.58
603.753	1498.49
603.953	1526.97
604.153	1487.25
604.354	1502.56
604.554	1493.26
604.754	1514.96
604.954	1461.1
605.155	1535.5
605.355	1488.61
605.555	1526
605.755	1521.55
605.955	1513.8
606.155	1518.25
606.356	1504.11
606.556	1506.63
606.756	1509.15
606.956	1449.86
607.156	1547.9
607.356	1441.53
607.556	1449.67
607.756	1484.35
607.956	1498.49
608.156	1451.41
608.356	1437.46
608.556	1481.44
608.756	1449.86
608.956	1419.83
609.156	1470.4
609.356	1414.4
609.556	1414.02
609.755	1429.13
609.955	1430.87
610.155	1416.73
610.355	1450.83
610.555	1400.07
610.755	1388.05
610.954	1362.67
611.154	1438.23
611.354	1410.92
611.554	1394.06
611.753	1425.45
611.953	1369.65
612.153	1433
612.352	1414.4
612.552	1349.11
612.752	1334.58
612.951	1383.02
613.151	1381.08
613.351	1344.07
613.55	1365.77
613.75	1409.56
613.949	1357.83
614.149	1379.72
614.348	1365.39
614.548	1310.17
614.747	1304.35
614.947	1290.21
615.146	1280.33
615.346	1389.02
615.545	1353.76
615.745	1322.95
615.944	1352.02
616.144	1315.59
616.343	1326.64
616.542	1293.7
616.742	1301.45
616.941	1295.05
617.14	1262.51
617.34	1279.56
617.539	1321.99
617.738	1277.04
617.938	1345.62
618.137	1268.12
618.336	1236.35
618.535	1303.58
618.734	1266.38
618.934	1288.85
619.133	1300.29
619.332	1338.45
619.531	1239.26
619.73	1278.59
619.929	1335.35
620.128	1307.45
620.328	1347.95
620.527	1261.92
620.726	1254.56
620.925	1299.51
621.124	1257.27
621.323	1264.64
621.522	1251.46
621.721	1258.82
621.92	1241.39
622.119	1267.74
622.318	1221.24
622.517	1240.03
622.715	1255.92
622.914	1208.06
623.113	1235.57
623.312	1157.69
623.511	1247.97
623.71	1210.19
623.909	1210.19
624.107	1251.66
624.306	1181.13
624.505	1194.31
624.704	1184.23
624.902	1202.25
625.101	1247.2
625.3	1175.32
625.499	1171.83
625.697	1193.53
625.896	1181.52
626.095	1214.84
626.293	1157.49
626.492	1132.69
626.69	1197.02
626.889	1147.23
627.088	1202.25
627.286	1123.78
627.485	1139.09
627.683	1148.39
627.882	1139.67
628.08	1061.98
628.279	1090.26
628.477	1155.75
628.676	1101.31
628.874	1142.38
629.073	1102.47
629.271	1074.76
629.469	1112.74
629.668	1089.3
629.866	1110.03
630.065	1091.04
630.263	1120.29
630.461	1110.61
630.66	1109.06
630.858	1129.59
631.056	1147.03
631.254	1160.79
631.453	1070.89
631.651	1134.63
631.849	1135.02
632.047	1139.28
632.245	1096.66
632.444	1128.82
632.642	1136.57
632.84	1156.91
633.038	1128.63
633.236	1086
633.434	1110.41
633.632	1075.93
633.83	1106.15
634.028	1159.82
634.227	1127.66
634.425	1202.06
634.623	1115.26
634.821	1141.8
635.019	1128.63
635.216	1133.86
635.414	1119.13
635.612	1134.44
635.81	1127.85
636.008	1190.43
636.206	1126.3
636.404	1105.38
636.602	1104.02
636.8	1130.76
636.997	1133.86
637.195	1165.05
637.393	1106.54
637.591	1214.26
637.789	1116.42
637.986	1111.77
638.184	1103.25
638.382	1150.33
638.58	1163.11
638.777	1181.33
638.975	1152.07
639.173	1125.14
639.37	1105.38
639.568	1092.4
639.765	1122.81
639.963	1070.7
640.161	1106.15
640.358	1136.57
640.556	1053.26
640.753	1050.16
640.951	1046.28
641.148	1091.43
641.346	1071.66
641.543	1070.5
641.741	1071.28
641.938	1006.95
642.136	1053.45
642.333	1016.64
642.531	1076.31
642.728	1099.95
642.925	1091.81
643.123	1034.08
643.32	1041.83
643.517	1016.45
643.715	1038.15
643.912	1007.53
644.109	995.13
644.306	1017.8
644.504	997.27
644.701	1004.24
644.898	1016.06
645.095	975.57
645.293	1011.02
645.49	993
645.687	1006.95
645.884	1022.07
646.081	933.14
646.278	959.48
646.475	942.82
646.672	938.56
646.87	932.75
647.067	921.9
647.264	956.38
647.461	893.61
647.658	872.69
647.855	938.75
648.052	907.37
648.249	841.11
648.446	881.21
648.642	886.83
648.839	851.96
649.036	865.52
649.233	837.23
649.43	845.95
649.627	815.14
649.824	841.88
650.021	835.87
650.217	828.71
650.414	861.64
650.611	859.32
650.808	886.44
651.004	837.42
651.201	881.21
651.398	907.56
651.595	848.27
651.791	798.67
651.988	859.9
652.185	823.28
652.381	841.88
652.578	790.34
652.775	848.08
652.971	832.77
653.168	824.25
653.364	846.92
653.561	800.61
653.757	805.46
653.954	835.87
654.15	809.91
654.347	885.47
654.543	836.65
654.74	780.07
654.936	772.52
655.133	795.19
655.329	829.48
655.525	790.73
655.722	851.96
655.918	770.77
656.115	807.97
656.311	740.94
656.507	676.42
656.704	676.81
656.9	714.39
657.096	735.13
657.292	687.27
657.489	784.14
657.685	756.05
657.881	703.74
658.077	738.03
658.273	749.27
658.47	816.11
658.666	779.49
658.862	793.25
659.058	738.23
659.254	797.71
659.45	768.45
659.646	793.44
659.842	757.99
660.038	797.32
660.234	724.47
660.43	776.01
660.626	794.99
660.822	805.46
661.018	799.26
661.214	743.46
661.41	728.34
661.606	787.05
661.802	799.84
661.998	726.99
662.194	704.71
662.39	750.63
662.586	760.89
662.781	761.48
662.977	774.65
663.173	776.01
663.369	744.04
663.564	770
663.76	767.29
663.956	716.33
664.152	756.63
664.347	663.63
664.543	748.3
664.739	738.03
664.934	669.25
665.13	658.4
665.326	749.85
665.521	746.36
665.717	657.63
665.912	681.07
666.108	648.52
666.304	673.71
666.499	712.84
666.695	647.16
666.89	679.13
667.086	700.06
667.281	713.81
667.477	733.58
667.672	699.09
667.867	684.75
668.063	696.57
668.258	652.4
668.454	674.1
668.649	712.46
668.844	676.03
669.04	684.36
669.235	663.63
669.43	656.08
669.626	621.01
669.821	630.11
670.016	594.46
670.211	671
670.407	586.52
670.602	692.69
670.797	627.01
670.992	700.83
671.187	636.7
671.382	702.19
671.578	644.84
671.773	631.08
671.968	607.06
672.163	646.39
672.358	671.38
672.553	607.45
672.748	609
672.943	687.08
673.138	616.16
673.333	676.81
673.528	602.99
673.723	635.35
673.918	633.41
674.113	598.53
674.308	702.19
674.503	653.75
674.698	657.05
674.892	639.61
675.087	628.76
675.282	635.93
675.477	614.03
675.672	647.55
675.867	593.11
676.061	614.03
676.256	579.16
676.451	592.14
676.646	590.98
676.84	594.46
677.035	545.83
677.23	576.06
677.424	633.8
677.619	642.13
677.814	632.44
678.008	633.02
678.203	578.97
678.397	561.33
678.592	606.67
678.787	655.88
678.981	602.99
679.176	624.11
679.37	624.5
679.565	583.42
679.759	583.23
679.954	609.77
680.148	675.65
680.342	655.3
680.537	622.95
680.731	600.86
680.926	611.32
681.12	634.18
681.314	569.47
681.509	612.87
681.703	628.76
681.897	643.87
682.092	610.16
682.286	587.49
682.48	675.84
682.674	651.23
682.869	596.01
683.063	620.23
683.257	673.71
683.451	598.73
683.645	643.29
683.839	620.62
684.034	621.01
684.228	639.8
684.422	611.9
684.616	603.76
684.81	626.24
685.004	613.06
685.198	629.15
685.392	671.19
685.586	654.14
685.78	658.79
685.974	687.08
686.168	699.86
686.362	726.99
686.556	634.57
686.75	619.07
686.944	582.45
687.138	587.88
687.331	513.28
687.525	551.07
687.719	498.37
687.913	555.13
688.107	546.03
688.301	568.7
688.494	594.08
688.688	540.41
688.882	521.81
689.076	547.19
689.269	576.64
689.463	661.31
689.657	575.09
689.85	612.29
690.044	641.16
690.238	613.06
690.431	645.23
690.625	645.61
690.818	658.6
691.012	717.88
691.205	739.39
691.399	696.18
691.593	742.88
691.786	814.95
691.98	818.82
692.173	812.62
692.366	790.54
692.56	842.27
692.753	875.2
692.947	808.56
693.14	884.7
693.333	871.52
693.527	830.64
693.72	897.1
693.914	858.35
694.107	900.59
694.3	900.2
694.493	895.94
694.687	963.36
694.88	935.27
695.073	1012.77
695.266	982.15
695.46	980.8
695.653	1045.12
695.846	1032.53
696.039	1011.02
696.232	1015.87
696.425	1066.82
696.618	1110.61
696.812	1095.69
697.005	1180.55
697.198	1242.16
697.391	1185.2
697.584	1208.84
697.777	1267.16
697.97	1244.29
698.163	1271.42
698.356	1217.36
698.549	1362.87
698.742	1298.54
698.935	1240.42
699.127	1322.76
699.32	1276.26
699.513	1288.66
699.706	1324.7
699.899	1348.34
700.092	1310.17
700.285	1346.2
700.477	1278.97
700.67	1330.51
700.863	1389.22
701.056	1477.18
701.248	1405.68
701.441	1443.66
701.634	1427.97
701.826	1526
702.019	1390.57
702.212	1511.47
702.404	1449.86
702.597	1478.92
702.79	1498.88
702.982	1489.58
703.175	1537.43
703.367	1562.62
703.56	1606.02
703.752	1667.63
703.945	1607.76
704.137	1668.99
704.33	1684.29
704.522	1661.43
704.715	1675.19
704.907	1724.21
705.1	1732.54
705.292	1759.08
705.484	1716.26
705.677	1783.1
705.869	1780.97
706.061	1859.05
706.254	1842.97
706.446	1807.13
706.638	1813.72
706.831	1912.72
707.023	1857.89
707.215	1919.5
707.407	1908.46
707.599	1935.39
707.792	1997.39
707.984	1928.22
708.176	1985.38
708.368	1954.76
708.56	2007.27
708.752	2005.53
708.944	1989.06
709.136	2035.17
709.329	2000.88
709.521	2110.54
709.713	2071.79
709.905	2095.81
710.097	2114.02
710.289	2059.78
710.481	2115.96
710.672	2138.44
710.864	2154.13
711.056	2185.13
711.248	2199.85
711.44	2204.12
711.632	2190.94
711.824	2247.13
712.016	2261.47
712.207	2250.23
712.399	2244.8
712.591	2307.97
712.783	2281.23
712.975	2325.79
713.166	2270.57
713.358	2325.79
713.55	2381.59
713.741	2359.31
713.933	2360.08
714.125	2319.98
714.316	2335.09
714.508	2411.81
714.7	2388.56
714.891	2338.19
715.083	2391.47
715.274	2366.28
715.466	2358.53
715.657	2404.45
715.849	2310.29
716.04	2400.96
716.232	2313
716.423	2328.5
716.615	2248.29
716.806	2197.53
716.998	2152.19
717.189	2056.09
717.381	1960.19
717.572	1964.26
717.763	1968.13
717.955	1966.97
718.146	1898.97
718.337	1851.88
718.528	1814.49
718.72	1757.14
718.911	1792.21
719.102	1759.66
719.293	1794.73
719.485	1763.73
719.676	1759.08
719.867	1730.4
720.058	1733.12
720.249	1735.44
720.44	1773.22
720.632	1816.62
720.823	1868.16
721.014	1989.06
721.205	2022.77
721.396	2077.41
721.587	2180.29
721.778	2227.75
721.969	2237.05
722.16	2293.05
722.351	2352.33
722.542	2421.5
722.733	2443.39
722.924	2344.39
723.115	2392.83
723.305	2327.15
723.496	2381.2
723.687	2238.02
723.878	2283.75
724.069	2258.37
724.26	2277.35
724.45	2203.34
724.641	2199.66
724.832	2179.9
725.023	2193.85
725.213	2177.38
725.404	2169.63
725.595	2180.87
725.785	2180.29
725.976	2256.82
726.167	2174.67
726.357	2173.12
726.548	2292.27
726.739	2242.48
726.929	2289.75
727.12	2320.56
727.31	2292.85
727.501	2288.2
727.691	2288.59
727.882	2310.1
728.072	2346.33
728.263	2338.58
728.453	2411.23
728.644	2435.26
728.834	2358.92
729.024	2350.78
729.215	2340.32
729.405	2382.56
729.596	2438.36
729.786	2404.26
729.976	2486.79
730.167	2469.16
730.357	2400.96
730.547	2449.98
730.737	2479.04
730.928	2526.12
731.118	2534.65
731.308	2490.09
731.498	2506.75
731.688	2613.31
731.879	2632.49
732.069	2669.69
732.259	2708.63
732.449	2738.08
732.639	2845.03
732.829	2811.9
733.019	2877
733.209	2889.59
733.399	2902.38
733.589	2995.38
733.779	3056.22
733.969	3020.57
734.159	3090.32
734.349	3160.26
734.539	3197.85
734.729	3160.45
734.919	3226.13
735.109	3262.75
735.299	3180.41
735.488	3206.37
735.678	3194.94
735.868	3194.55
736.058	3141.27
736.248	3200.17
736.437	3166.27
736.627	3106.4
736.817	3265.27
737.007	3193.58
737.196	3298.98
737.386	3265.08
737.576	3176.92
737.765	3247.45
737.955	3251.13
738.144	3388.3
738.334	3339.48
738.524	3255.2
738.713	3302.47
738.903	3288.71
739.092	3342.58
739.282	3315.64
739.471	3381.91
739.661	3361.18
739.85	3445.65
740.04	3369.89
740.229	3405.74
740.419	3473.35
740.608	3449.14
740.797	3469.29
740.987	3469.29
741.176	3477.23
741.365	3456.89
741.555	3411.74
741.744	3538.26
741.933	3463.86
742.123	3484.01
742.312	3515.59
742.501	3585.34
742.69	3608.2
742.88	3497.38
743.069	3610.33
743.258	3534.19
743.447	3613.82
743.636	3644.24
743.825	3575.46
744.014	3589.6
744.204	3608.01
744.393	3552.21
744.582	3653.93
744.771	3680.66
744.96	3589.02
745.149	3653.54
745.338	3603.94
745.527	3672.72
745.716	3607.43
745.905	3623.7
746.094	3675.43
746.283	3636.49
746.471	3664.39
746.66	3686.86
746.849	3711.28
747.038	3722.32
747.227	3615.18
747.416	3713.41
747.604	3664.78
747.793	3653.93
747.982	3619.44
748.171	3690.35
748.359	3646.57
748.548	3680.47
748.737	3680.86
748.926	3680.66
749.114	3566.55
749.303	3635.52
749.491	3635.13
749.68	3591.35
749.869	3645.98
750.057	3584.76
750.246	3589.02
750.434	3604.13
750.623	3639.78
750.811	3588.44
751	3676.21
751.188	3600.45
751.377	3609.56
751.565	3577.98
751.754	3540.39
751.942	3538.26
752.131	3586.5
752.319	3537.1
752.507	3523.15
752.696	3610.14
752.884	3634.17
753.072	3552.21
753.261	3554.92
753.449	3592.12
753.637	3490.4
753.825	3636.68
754.014	3569.26
754.202	3542.52
754.39	3624.67
754.578	3562.28
754.766	3542.52
754.955	3535.74
755.143	3604.52
755.331	3537.29
755.519	3532.64
755.707	3504.35
755.895	3534.77
756.083	3518.89
756.271	3483.62
756.459	3488.47
756.647	3489.82
756.835	3460.76
757.023	3482.65
757.211	3484.4
757.399	3457.47
757.587	3470.64
757.775	3429.57
757.963	3419.69
758.151	3410.39
758.339	3367.57
758.526	3386.36
758.714	3411.94
758.902	3260.43
759.09	3156.38
759.278	2978.72
759.465	2739.83
759.653	2327.34
759.841	2148.12
760.028	1852.85
760.216	1613.77
760.404	1477.37
760.591	1210
760.779	1019.93
760.967	898.26
761.154	722.34
761.342	768.84
761.529	775.62
761.717	815.34
761.905	818.24
762.092	889.54
762.28	788.79
762.467	782.01
762.655	708.78
762.842	732.8
763.029	751.59
763.217	757.02
763.404	769.61
763.592	773.29
763.779	743.07
763.966	779.88
764.154	829.29
764.341	875.59
764.528	887.02
764.716	961.81
764.903	1016.64
765.09	1089.88
765.277	1108.48
765.465	1278.78
765.652	1351.44
765.839	1440.75
766.026	1530.46
766.213	1626.36
766.4	1725.76
766.588	1905.94
766.775	1918.34
766.962	2047.38
767.149	2122.94
767.336	2286.07
767.523	2257.2
767.71	2392.05
767.897	2498.23
768.084	2555.77
768.271	2610.79
768.458	2667.56
768.645	2736.34
768.832	2717.93
769.019	2768.31
769.206	2818.88
769.392	2880.49
769.579	2962.64
769.766	2923.69
769.953	2889.01
770.14	2970
770.327	2967.67
770.513	2999.06
770.7	3107.37
770.887	2994.02
771.073	3033.36
771.26	3041.49
771.447	3015.14
771.634	3023.09
771.82	3112.99
772.007	3021.92
772.193	3066.87
772.38	3060.29
772.567	3015.53
772.753	3034.13
772.94	3096.71
773.126	3112.79
773.313	3122.87
773.499	3105.62
773.686	3118.02
773.872	3061.06
774.059	3066.68
774.245	3025.22
774.432	3072.3
774.618	2986.86
774.804	3073.46
774.991	3003.52
775.177	3064.94
775.363	3006.62
775.55	3049.05
775.736	3006.42
775.922	3005.65
776.109	3013.79
776.295	2977.17
776.481	3024.06
776.667	3040.14
776.853	3018.82
777.04	2971.74
777.226	2956.24
777.412	3045.75
777.598	2926.02
777.784	2971.55
777.97	2947.91
778.156	2998.67
778.342	2940.94
778.528	2917.49
778.715	2893.86
778.901	2917.69
779.087	2933.96
779.272	2889.4
779.458	2890.95
779.644	2924.28
779.83	2901.22
780.016	2938.23
780.202	2890.76
780.388	2869.64
780.574	2835.15
780.76	2871.77
780.946	2915.36
781.131	2860.92
781.317	2838.25
781.503	2846.78
781.689	2876.03
781.874	2973.1
782.06	2811.51
782.246	2845.61
782.432	2801.25
782.617	2873.13
782.803	2844.45
782.989	2759.78
783.174	2766.57
783.36	2775.86
783.545	2773.35
783.731	2791.17
783.916	2699.14
784.102	2795.05
784.288	2734.79
784.473	2748.74
784.659	2743.51
784.844	2773.35
785.029	2707.08
785.215	2729.75
785.4	2698.75
785.586	2753.97
785.771	2641.99
785.956	2760.17
786.142	2702.43
786.327	2674.34
786.512	2696.04
786.698	2657.1
786.883	2614.86
787.068	2635.4
787.254	2670.27
787.439	2645.47
787.624	2567.97
787.809	2582.89
787.994	2590.45
788.18	2637.34
788.365	2539.88
788.55	2541.24
788.735	2581.92
788.92	2546.86
789.105	2516.24
789.29	2544.92
789.475	2474.39
789.66	2492.8
789.845	2479.82
790.03	2468.97
790.215	2517.6
790.4	2521.67
790.585	2527.09
790.77	2480.4
790.955	2393.41
791.14	2453.47
791.325	2476.14
791.51	2385.46
791.695	2474.2
791.879	2427.89
792.064	2397.86
792.249	2517.21
792.434	2448.24
792.618	2452.11
792.803	2450.18
792.988	2453.66
793.173	2466.64
793.357	2451.92
793.542	2402.9
793.727	2434.09
793.911	2451.73
794.096	2461.03
794.281	2517.99
794.465	2538.14
794.65	2498.61
794.834	2521.86
795.019	2543.95
795.203	2531.94
795.388	2479.24
795.572	2550.34
795.757	2503.84
795.941	2526.71
796.126	2489.7
796.31	2399.41
796.494	2516.24
796.679	2420.34
796.863	2428.09
797.048	2537.75
797.232	2484.86
797.416	2478.27
797.601	2457.93
797.785	2539.69
797.969	2551.51
798.153	2460.64
798.338	2533.68
798.522	2534.26
798.706	2545.89
798.89	2559.06
799.074	2608.66
799.258	2599.36
799.443	2525.74
799.627	2507.33
799.811	2602.27
799.995	2540.66
800.179	2503.07
800.363	2519.34
800.547	2509.08
800.731	2535.81
800.915	2486.6
801.099	2461.99
801.283	2498.42
801.467	2463.93
801.651	2497.45
801.835	2526.32
802.019	2527.67
802.202	2499.39
802.386	2442.62
802.57	2476.72
802.754	2438.94
802.938	2435.64
803.121	2442.81
803.305	2514.5
803.489	2480.79
803.673	2520.12
803.856	2485.24
804.04	2502.68
804.224	2493.58
804.407	2466.06
804.591	2427.89
804.775	2490.28
804.958	2504.62
805.142	2568.56
805.326	2508.49
805.509	2498.03
805.693	2534.46
805.876	2552.47
806.06	2510.04
806.243	2545.89
806.427	2538.52
806.61	2561.19
806.794	2536.97
806.977	2541.24
807.16	2509.27
807.344	2516.44
807.527	2554.99
807.71	2524.77
807.894	2548.41
808.077	2515.08
808.26	2506.56
808.444	2475.17
808.627	2516.05
808.81	2459.67
808.993	2405.03
809.177	2400.96
809.36	2425.38
809.543	2432.74
809.726	2383.14
809.909	2316.68
810.092	2314.94
810.276	2312.03
810.459	2346.71
810.642	2316.1
810.825	2272.32
811.008	2322.3
811.191	2205.28
811.374	2219.23
811.557	2239.96
811.74	2282
811.923	2187.65
812.106	2160.33
812.289	2125.46
812.472	2160.33
812.654	2169.82
812.837	2117.71
813.02	2063.07
813.203	2050.67
813.386	1945.08
813.569	1922.99
813.751	1841.03
813.934	1907.88
814.117	1852.27
814.3	1831.15
814.482	1783.88
814.665	1779.42
814.848	1725.76
815.03	1695.34
815.213	1665.5
815.396	1662.79
815.578	1673.83
815.761	1613.58
815.943	1635.86
816.126	1566.88
816.309	1553.13
816.491	1494.42
816.674	1433.58
816.856	1470.59
817.039	1491.51
817.221	1565.72
817.403	1489.38
817.586	1497.52
817.768	1520.96
817.951	1408.2
818.133	1410.33
818.315	1506.43
818.498	1522.13
818.68	1575.21
818.862	1511.66
819.045	1571.53
819.227	1528.33
819.409	1525.42
819.591	1547.12
819.774	1509.73
819.956	1532.4
820.138	1600.4
820.32	1578.31
820.502	1631.4
820.684	1699.99
820.866	1710.45
821.048	1782.72
821.231	1767.8
821.413	1767.6
821.595	1769.54
821.777	1757.53
821.959	1731.18
822.141	1817.01
822.323	1681.19
822.505	1611.25
822.686	1522.71
822.868	1477.76
823.05	1358.8
823.232	1336.52
823.414	1285.56
823.596	1357.83
823.778	1365.97
823.96	1408.98
824.141	1385.15
824.323	1434.17
824.505	1481.25
824.687	1517.09
824.868	1608.15
825.05	1674.22
825.232	1676.35
825.413	1738.93
825.595	1710.45
825.777	1678.48
825.958	1694.56
826.14	1688.56
826.321	1713.55
826.503	1669.96
826.685	1693.98
826.866	1725.17
827.048	1682.74
827.229	1647.09
827.411	1631.79
827.592	1578.89
827.773	1596.53
827.955	1555.26
828.136	1571.92
828.318	1503.91
828.499	1552.16
828.68	1511.08
828.862	1527.94
829.043	1553.13
829.224	1495.39
829.406	1485.12
829.587	1484.35
829.768	1482.41
829.949	1514.18
830.131	1523.1
830.312	1564.17
830.493	1543.25
830.674	1536.08
830.855	1501.2
831.036	1545.38
831.218	1577.15
831.399	1596.91
831.58	1543.05
831.761	1575.79
831.942	1556.42
832.123	1536.85
832.304	1498.49
832.485	1516.31
832.666	1524.84
832.847	1582.19
833.028	1510.31
833.209	1516.9
833.389	1519.61
833.57	1487.83
833.751	1532.4
833.932	1553.13
834.113	1530.65
834.294	1517.09
834.475	1537.24
834.655	1572.31
834.836	1577.34
835.017	1556.03
835.198	1516.7
835.378	1539.95
835.559	1591.1
835.74	1516.12
835.92	1514.96
836.101	1545.76
836.281	1601.76
836.462	1588.97
836.643	1579.48
836.823	1616.68
837.004	1612.99
837.184	1700.18
837.365	1585.48
837.545	1625.98
837.726	1568.63
837.906	1665.31
838.087	1595.94
838.267	1623.07
838.448	1594.59
838.628	1614.93
838.808	1581.22
838.989	1635.86
839.169	1571.92
839.349	1652.91
839.53	1643.99
839.71	1633.92
839.89	1607.57
840.07	1657.36
840.251	1624.04
840.431	1641.09
840.611	1634.11
840.791	1607.18
840.971	1603.11
841.151	1621.13
841.332	1540.92
841.512	1624.23
841.692	1542.86
841.872	1582.19
842.052	1595.94
842.232	1596.72
842.412	1539.76
842.592	1565.14
842.772	1627.91
842.952	1629.66
843.132	1558.94
843.312	1614.74
843.492	1565.53
843.672	1594.2
843.851	1514.38
844.031	1589.74
844.211	1532.01
844.391	1532.78
844.571	1573.66
844.751	1613.77
844.93	1553.9
845.11	1568.43
845.29	1570.56
845.47	1609.12
845.649	1552.35
845.829	1580.44
846.009	1529.88
846.188	1580.25
846.368	1548.67
846.547	1542.08
846.727	1592.84
846.907	1545.76
847.086	1539.56
847.266	1586.45
847.445	1534.72
847.625	1550.41
847.804	1525.61
847.984	1542.47
848.163	1475.05
848.343	1536.27
848.522	1526.2
848.701	1529.49
848.881	1530.85
849.06	1502.17
849.239	1510.7
849.419	1533.17
849.598	1445.98
849.777	1464.58
849.957	1432.81
850.136	1418.28
850.315	1373.72
850.494	1381.66
850.674	1404.13
850.853	1428.16
851.032	1408.01
851.211	1466.91
851.39	1416.53
851.569	1375.65
851.748	1371.39
851.927	1470.98
852.107	1415.37
852.286	1383.6
852.465	1380.3
852.644	1425.06
852.823	1415.95
853.002	1400.84
853.181	1385.92
853.359	1417.89
853.538	1348.53
853.717	1413.63
853.896	1312.1
854.075	1221.24
854.254	1206.51
854.433	1172.22
854.611	1218.91
854.79	1178.23
854.969	1236.54
855.148	1243.91
855.327	1226.08
855.505	1276.26
855.684	1246.81
855.863	1246.42
856.041	1256.89
856.22	1294.47
856.399	1265.22
856.577	1380.3
856.756	1334.77
856.934	1458.58
857.113	1402.39
857.291	1342.72
857.47	1308.62
857.648	1352.6
857.827	1355.89
858.005	1335.16
858.184	1308.42
858.362	1404.72
858.541	1317.92
858.719	1348.92
858.898	1325.67
859.076	1369.26
859.254	1401.03
859.433	1321.6
859.611	1336.32
859.789	1309.59
859.967	1367.52
860.146	1379.14
860.324	1290.6
860.502	1306.49
860.68	1272.19
860.859	1250.49
861.037	1303.58
861.215	1314.62
861.393	1273.36
861.571	1281.69
861.749	1264.83
861.927	1299.12
862.105	1329.54
862.283	1297.77
862.461	1296.41
862.639	1238.29
862.817	1281.49
862.995	1323.54
863.173	1247.59
863.351	1257.66
863.529	1297.77
863.707	1257.86
863.885	1281.3
864.063	1218.91
864.241	1261.73
864.418	1299.9
864.596	1270.64
864.774	1211.94
864.952	1261.92
865.129	1237.9
865.307	1229.18
865.485	1187.53
865.663	1229.76
865.84	1155.75
866.018	1180.94
866.196	1062.17
866.373	1082.32
866.551	1045.7
866.728	1018
866.906	1067.6
867.084	1086.97
867.261	1124.36
867.439	1087.16
867.616	1140.64
867.794	1141.99
867.971	1144.9
868.149	1166.02
868.326	1198.57
868.503	1173.96
868.681	1149.94
868.858	1136.96
869.035	1164.28
869.213	1196.83
869.39	1153.62
869.567	1161.37
869.745	1130.56
869.922	1173.77
870.099	1187.14
870.276	1151.1
870.454	1153.23
870.631	1163.69
870.808	1137.34
870.985	1175.13
871.162	1189.08
871.339	1192.18
871.517	1090.26
871.694	1094.14
871.871	1125.72
872.048	1124.75
872.225	1078.83
872.402	1119.91
872.579	1082.9
872.756	1149.74
872.933	1057.52
873.11	1097.43
873.287	1092.01
873.463	1087.55
873.64	1069.53
873.817	1119.52
873.994	1092.98
874.171	1076.12
874.348	1072.25
874.524	1053.84
874.701	1067.01
874.878	1011.99
875.055	1087.55
875.231	1067.4
875.408	1040.47
875.585	1031.56
875.762	1025.55
875.938	1053.65
876.115	1022.07
876.291	1042.02
876.468	1072.25
876.645	962.97
876.821	1009.08
876.998	1046.09
877.174	1054.03
877.351	1033.69
877.527	1010.25
877.704	1039.31
877.88	1048.22
878.057	985.45
878.233	1069.92
878.409	1001.72
878.586	1048.41
878.762	994.17
878.938	965.68
879.115	941.27
879.291	1013.15
879.467	937.59
879.644	962.2
879.82	1015.28
879.996	984.09
880.172	946.89
880.349	986.22
880.525	982.93
880.701	942.43
880.877	952.7
881.053	974.6
881.229	944.57
881.405	1001.53
881.581	930.04
881.757	941.08
881.933	942.82
882.109	988.93
882.285	977.31
882.461	913.57
882.637	933.33
882.813	921.9
882.989	938.37
883.165	1004.43
883.341	954.25
883.517	959.48
883.693	943.79
883.869	973.82
884.044	930.23
884.22	966.46
884.396	997.46
884.572	963.94
884.747	991.45
884.923	1000.37
885.099	982.15
885.275	986.22
885.45	957.93
885.626	950.18
885.801	937.59
885.977	951.73
886.153	898.07
886.328	949.99
886.504	931.78
886.679	930.42
886.855	925.39
887.03	963.55
887.206	990.29
887.381	956.58
887.557	956.19
887.732	956.19
887.908	969.75
888.083	968.59
888.258	935.07
888.434	939.72
888.609	950.77
888.784	977.12
888.96	929.65
889.135	936.82
889.31	927.52
889.485	961.62
889.661	936.82
889.836	968.78
890.011	956.97
890.186	931.2
890.361	925.58
890.537	949.22
890.712	954.25
890.887	959.1
891.062	949.6
891.237	998.82
891.412	926.16
891.587	953.28
891.762	967.62
891.937	972.27
892.112	897.29
892.287	917.05
892.462	854.47
892.637	911.24
892.812	829.67
892.987	869.2
893.161	823.09
893.336	853.5
893.511	866.49
893.686	851.18
893.861	854.86
894.035	874.43
894.21	838.01
894.385	773.49
894.56	848.86
894.734	768.26
894.909	771.55
895.084	763.03
895.258	737.06
895.433	761.28
895.608	738.03
895.782	693.28
895.957	690.76
896.131	710.13
896.306	678.94
896.48	637.48
896.655	672.16
896.829	607.64
897.004	618.68
897.178	603.57
897.353	584.78
897.527	652.4
897.701	634.96
897.876	588.46
898.05	654.14
898.224	644.84
898.399	663.44
898.573	586.72
898.747	528.59
898.921	579.93
899.096	484.22
899.27	523.75
899.444	476.86
899.618	523.17
899.792	554.94
899.967	522
900.141	570.44
900.315	498.56
900.489	506.89
900.663	546.8
900.837	552.42
901.011	497.2
901.185	577.8
901.359	559.2
901.533	572.38
901.707	536.15
901.881	522.2
902.055	486.16
902.229	510.18
902.403	571.22
902.576	546.8
902.75	563.27
902.924	641.16
903.098	566.37
903.272	624.69
903.446	666.73
903.619	626.82
903.793	685.72
903.967	679.33
904.14	719.43
904.314	706.06
904.488	663.83
904.661	713.81
904.835	683.2
905.009	739
905.182	758.96
905.356	706.06
905.529	724.86
905.703	677.97
905.876	654.33
906.05	627.4
906.223	626.05
906.397	558.23
906.57	565.4
906.744	560.56
906.917	531.5
907.09	547.38
907.264	529.37
907.437	518.9
907.61	500.11
907.784	481.51
907.957	540.99
908.13	489.26
908.304	538.28
908.477	457.1
908.65	485.19
908.823	441.4
908.996	540.41
909.17	456.13
909.343	476.47
909.516	475.5
909.689	473.37
909.862	460.59
910.035	468.53
910.208	421.25
910.381	441.02
910.554	506.12
910.727	464.27
910.9	435.79
911.073	474.15
911.246	526.07
911.419	534.79
911.592	495.85
911.765	478.6
911.938	449.93
912.11	459.81
912.283	478.8
912.456	516.77
912.629	470.85
912.802	449.93
912.974	418.54
913.147	376.5
913.32	332.71
913.493	383.09
913.665	384.44
913.838	430.17
914.01	400.52
914.183	419.51
914.356	402.27
914.528	423.19
914.701	473.37
914.873	446.64
915.046	389.67
915.218	376.89
915.391	319.73
915.563	338.14
915.736	370.88
915.908	401.88
916.081	403.24
916.253	393.94
916.425	402.07
916.598	424.16
916.77	412.15
916.942	376.5
917.115	335.81
917.287	400.91
917.459	367.97
917.632	337.36
917.804	310.43
917.976	391.22
918.148	378.24
918.32	383.09
918.493	431.72
918.665	429.59
918.837	389.29
919.009	468.14
919.181	465.62
919.353	451.09
919.525	431.91
919.697	407.31
919.869	436.75
920.041	486.94
920.213	516
920.385	464.65
920.557	451.09
920.729	478.22
920.901	465.04
921.073	444.5
921.244	441.79
921.416	469.3
921.588	429.97
921.76	401.88
921.932	508.63
922.103	445.86
922.275	449.74
922.447	460.97
922.619	375.53
922.79	426.29
922.962	388.32
923.134	439.27
923.305	383.47
923.477	356.35
923.648	392.58
923.82	394.52
923.991	377.27
924.163	338.33
924.335	377.27
924.506	355.96
924.677	398.01
924.849	371.27
925.02	383.28
925.192	392.58
925.363	360.22
925.535	373.98
925.706	333.49
925.877	402.66
926.049	346.27
926.22	379.79
926.391	368.36
926.562	419.12
926.734	348.21
926.905	404.79
927.076	311.79
927.247	343.95
927.419	282.73
927.59	299.78
927.761	298.42
927.932	279.43
928.103	293.96
928.274	254.63
928.445	244.56
928.616	257.93
928.787	274.59
928.958	285.24
929.129	245.14
929.3	257.34
929.471	221.5
929.642	162.6
929.813	150.59
929.984	211.43
930.155	149.43
930.326	165.12
930.496	165.31
930.667	132.96
930.838	160.47
931.009	104.67
931.18	152.72
931.35	132.96
931.521	147.88
931.692	99.44
931.863	64.37
932.033	118.23
932.204	100.8
932.374	102.73
932.545	62.24
932.716	139.55
932.886	120.95
933.057	61.47
933.227	75.42
933.398	154.66
933.568	52.17
933.739	22.52
933.909	57.79
934.08	85.1
934.25	3.15
934.421	20.39
934.591	50.81
934.761	41.32
934.932	5.09
935.102	53.52
935.272	45.19
935.443	42.09
935.613	9.74
935.783	60.69
935.953	30.47
936.123	151.56
936.294	14.97
936.464	44.61
936.634	46.55
936.804	29.89
936.974	-9.06
937.144	54.69
937.314	43.06
937.484	27.37
937.655	7.41
937.825	91.5
937.995	10.9
938.165	71.15
938.334	29.69
938.504	52.55
938.674	44.42
938.844	48.49
939.014	89.17
939.184	88.59
939.354	141.1
939.524	126.76
939.694	72.9
939.863	82.2
940.033	145.75
940.203	114.55
940.373	96.15
940.542	105.64
940.712	76.19
940.882	126.37
941.051	107
941.221	87.23
941.391	131.02
941.56	73.67
941.73	48.29
941.899	154.08
942.069	99.83
942.238	94.4
942.408	84.52
942.577	106.03
942.747	49.84
942.916	19.04
943.086	43.06
943.255	99.25
943.425	57.59
943.594	63.99
943.763	34.54
943.933	23.1
944.102	3.15
944.271	48.68
944.441	71.35
944.61	52.75
944.779	55.65
944.948	134.7
945.117	-5.76
945.287	69.8
945.456	25.43
945.625	61.47
945.794	78.52
945.963	0.82
946.132	64.18
946.301	27.17
946.47	84.52
946.639	-12.74
946.808	22.72
946.977	86.27
947.146	90.53
947.315	62.82
947.484	98.08
947.653	37.25
947.822	15.16
947.991	30.47
948.16	110.29
948.329	90.33
948.498	58.56
948.666	73.87
948.835	88.01
949.004	29.69
949.173	27.95
949.341	56.04
949.51	87.04
949.679	89.75
949.847	94.98
950.016	132.77
950.185	80.26
950.353	57.59
950.522	72.7
950.69	109.9
950.859	49.45
951.028	104.48
951.196	64.57
951.365	37.83
951.533	75.61
951.701	89.75
951.87	63.79
952.038	17.87
952.207	49.07
952.375	110.1
952.543	46.16
952.712	80.07
952.88	34.73
953.048	119.59
953.217	74.83
953.385	57.98
953.553	113.39
953.721	14.77
953.89	78.13
954.058	12.64
954.226	40.35
954.394	52.94
954.562	10.51
954.73	65.15
954.898	58.17
955.067	94.21
955.235	67.67
955.403	77.55
955.571	114.75
955.739	56.62
955.907	67.47
956.075	63.02
956.243	61.27
956.41	61.27
956.578	18.07
956.746	32.02
956.914	42.48
957.082	91.5
957.25	79.48
957.418	39.57
957.585	64.37
957.753	92.66
957.921	56.24
958.089	56.62
958.256	80.07
958.424	70.18
958.592	75.42
958.759	26.01
958.927	86.27
959.095	38.02
959.262	55.07
959.43	67.28
959.597	24.46
959.765	56.43
959.932	23.3
960.1	114.75
960.267	74.83
960.435	54.88
960.602	86.27
960.77	49.45
960.937	22.33
961.104	67.67
961.272	16.71
961.439	48.87
961.606	79.1
961.774	82.2
961.941	42.09
962.108	80.26
962.275	51.39
962.443	94.4
962.61	69.6
962.777	117.27
962.944	72.12
963.111	103.51
963.278	92.66
963.446	86.27
963.613	76.19
963.78	81.03
963.947	100.6
964.114	68.83
964.281	142.84
964.448	87.04
964.615	48.1
964.782	90.33
964.949	109.13
965.116	90.14
965.282	117.65
965.449	63.21
965.616	42.87
965.783	119.4
965.95	74.64
966.117	54.3
966.283	72.7
966.45	93.05
966.617	96.73
966.784	109.13
966.95	127.34
967.117	99.05
967.284	53.72
967.45	74.06
967.617	137.22
967.784	112.42
967.95	150.2
968.117	98.08
968.283	113.78
968.45	175.78
968.616	83.36
968.783	120.75
968.949	119.98
969.116	121.92
969.282	106.61
969.449	97.5
969.615	112.62
969.781	67.67
969.948	88.59
970.114	52.94
970.28	152.14
970.447	96.15
970.613	159.89
970.779	107.38
970.945	134.12
971.112	111.84
971.278	105.64
971.444	88.59
971.61	138.58
971.776	88.4
971.942	125.79
972.108	139.16
972.275	96.15
972.441	101.18
972.607	179.46
972.773	98.67
972.939	96.34
973.105	105.06
973.271	65.15
973.437	83.17
973.602	62.05
973.768	110.1
973.934	98.47
974.1	116.88
974.266	34.54
974.432	85.1
974.598	108.55
974.763	131.8
974.929	66.12
975.095	148.27
975.261	45.39
975.426	63.79
975.592	88.78
975.758	150.59
975.923	51.59
976.089	76.58
976.255	111.65
976.42	101.38
976.586	121.14
976.751	101.57
976.917	170.35
977.082	96.53
977.248	31.82
977.413	57.4
977.579	90.53
977.744	73.09
977.91	30.27
978.075	41.32
978.24	103.32
978.406	87.62
978.571	93.05
978.736	69.6
978.902	110.1
979.067	50.42
979.232	22.33
979.397	71.15
979.563	120.75
979.728	55.27
979.893	62.24
980.058	25.43
980.223	81.81
980.388	97.7
980.554	84.52
980.719	70.38
980.884	91.5
981.049	125.79
981.214	85.49
981.379	97.12
981.544	69.8
981.709	96.53
981.874	84.13
982.039	85.68
982.204	103.7
982.368	72.9
982.533	36.86
982.698	91.5
982.863	122.5
983.028	91.69
983.193	98.28
983.357	79.48
983.522	83.75
983.687	69.8
983.852	64.95
984.016	53.33
984.181	107.58
984.346	105.64
984.51	87.23
984.675	106.42
984.839	107
985.004	124.24
985.168	120.37
985.333	106.8
985.498	78.13
985.662	126.37
985.827	139.35
985.991	107.38
986.155	78.71
986.32	121.53
986.484	137.61
986.649	102.54
986.813	26.59
986.977	101.57
987.142	109.52
987.306	62.24
987.47	54.88
987.634	71.93
987.799	85.49
987.963	101.18
988.127	88.59
988.291	143.42
988.455	102.15
988.62	102.15
988.784	89.17
988.948	93.24
989.112	46.94
989.276	75.42
989.44	106.22
989.604	46.35
989.768	76.77
989.932	160.86
990.096	67.47
990.26	44.42
990.424	32.6
990.588	72.51
990.752	127.92
990.915	95.37
991.079	89.37
991.243	67.86
991.407	91.5
991.571	77.35
991.734	91.88
991.898	101.77
992.062	145.55
992.226	77.93
992.389	83.36
992.553	24.07
992.717	68.44
992.88	41.7
993.044	101.77
993.207	55.65
993.371	87.04
993.535	93.05
993.698	81.62
993.862	115.72
994.025	100.02
994.189	99.63
994.352	83.55
994.515	96.53
994.679	121.14
994.842	94.21
995.006	105.83
995.169	44.22
995.332	65.15
995.496	119.59
995.659	30.27
995.822	53.91
995.985	89.37
996.149	103.7
996.312	45.97
996.475	133.93
996.638	46.74
996.801	113.58
996.964	144.58
997.128	59.53
997.291	52.75
997.454	68.25
997.617	53.14
997.78	83.94
997.943	57.01
998.106	98.47
998.269	49.07
998.432	60.3
998.595	80.26
998.758	3.73
998.92	53.91
999.083	6.83
999.246	58.95
999.409	33.37
999.572	39.57
999.735	45.97
999.897	61.47
1000.06	60.5
1000.223	45
1000.386	87.43
1000.548	87.82
1000.711	60.89
1000.874	72.12
1001.036	33.76
1001.199	107.97
1001.361	64.18
1001.524	26.79
1001.687	98.08
1001.849	26.4
1002.012	69.22
1002.174	86.85
1002.337	77.55
1002.499	51.39
1002.661	101.77
1002.824	23.1
1002.986	53.14
1003.149	42.48
1003.311	41.32
1003.473	110.29
1003.636	36.09
1003.798	58.75
1003.96	86.46
1004.123	42.09
1004.285	31.05
1004.447	40.93
1004.609	47.52
1004.771	125.02
1004.933	-12.16
1005.096	12.06
1005.258	14.19
1005.42	34.73
1005.582	75.8
1005.744	57.01
1005.906	29.89
1006.068	56.24
1006.23	18.84
1006.392	7.99
1006.554	38.99
1006.716	69.41
1006.878	95.76
1007.04	27.75
1007.202	33.18
1007.363	47.71
1007.525	62.24
1007.687	69.6
1007.849	83.17
1008.011	-4.41
1008.172	32.99
1008.334	33.57
1008.496	51.2
1008.658	3.34
1008.819	41.51
1008.981	17.49
1009.143	20
1009.304	53.33
1009.466	67.28
1009.627	88.2
1009.789	144.78
1009.95	51.78
1010.112	42.87
1010.273	52.94
1010.435	22.72
1010.596	42.29
1010.758	28.92
1010.919	32.6
1011.081	12.45
1011.242	25.62
1011.403	61.47
1011.565	39.57
1011.726	70.77
1011.887	14
1012.049	62.63
1012.21	59.92
1012.371	85.1
1012.532	-23.2
1012.693	31.44
1012.855	22.33
1013.016	35.5
1013.177	56.24
1013.338	59.34
1013.499	85.68
1013.66	70.57
1013.821	73.67
1013.982	38.8
1014.143	47.52
1014.304	28.34
1014.465	68.05
1014.626	47.71
1014.787	40.93
1014.948	111.84
1015.109	-36.38
1015.27	67.67
1015.431	37.83
1015.592	16.52
1015.752	76.77
1015.913	33.95
1016.074	45.19
1016.235	43.25
1016.395	17.87
1016.556	30.47
1016.717	28.34
1016.877	96.34
1017.038	17.29
1017.199	34.54
1017.359	41.12
1017.52	60.5
1017.681	10.7
1017.841	35.7
1018.002	30.47
1018.162	5.28
1018.323	68.05
1018.483	32.21
1018.644	14
1018.804	3.15
1018.964	3.15
1019.125	21.55
1019.285	43.25
1019.446	-6.54
1019.606	-3.05
1019.766	-11.38
1019.926	36.28
1020.087	45.77
1020.247	-2.08
1020.407	42.48
1020.567	64.37
1020.728	36.09
1020.888	-1.31
1021.048	18.45
1021.208	13.03
1021.368	3.92
1021.528	55.27
1021.688	57.01
1021.848	76.97
1022.008	39.38
1022.168	20
1022.328	21.94
1022.488	46.55
1022.648	-4.8
1022.808	33.95
1022.968	30.27
1023.128	-12.55
1023.288	8.96
1023.448	16.13
1023.608	38.02
1023.767	24.46
1023.927	10.12
1024.087	-0.73
1024.247	-15.65
1024.406	11.67
1024.566	-12.16
1024.726	7.99
1024.885	30.85
1025.045	41.12
1025.205	-7.51
1025.364	14.97
1025.524	19.04
1025.683	13.8
1025.843	29.89
1026.003	39.38
1026.162	62.05
1026.321	41.9
1026.481	22.52
1026.64	-23.2
1026.8	31.63
1026.959	35.5
1027.119	48.29
1027.278	25.24
1027.437	5.67
1027.597	38.41
1027.756	4.89
1027.915	75.22
1028.074	29.3
1028.234	8.96
1028.393	30.08
1028.552	23.49
1028.711	-29.01
1028.87	66.31
1029.03	-23.98
1029.189	26.4
1029.348	-47.03
1029.507	-12.55
1029.666	-13.71
1029.825	-29.79
1029.984	-2.08
1030.143	36.09
1030.302	12.64
1030.461	-40.06
1030.62	29.3
1030.779	26.2
1030.938	-19.71
1031.097	4.5
1031.255	41.7
1031.414	53.72
1031.573	51.39
1031.732	-52.46
1031.891	18.84
1032.049	31.82
1032.208	51.97
1032.367	13.8
1032.525	2.18
1032.684	1.6
1032.843	17.68
1033.001	-21.84
1033.16	139.35
1033.319	49.07
1033.477	37.64
1033.636	9.93
1033.794	-23.78
1033.953	33.37
1034.111	58.37
1034.27	13.22
1034.428	22.72
1034.587	3.54
1034.745	39.19
1034.903	6.44
1035.062	70.96
1035.22	-37.15
1035.378	49.26
1035.537	-0.53
1035.695	31.63
1035.853	10.51
1036.011	54.49
1036.17	26.01
1036.328	-35.21
1036.486	27.56
1036.644	40.15
1036.802	-36.76
1036.96	-10.22
1037.119	-1.89
1037.277	-14.68
1037.435	-27.08
1037.593	8.57
1037.751	14.97
1037.909	24.27
1038.067	24.27
