Data from gum_young_FLMT105791__40__17-38-39-044.txt Node

Date: Mon Mar 20 17:38:39 GMT 2023
User: antho
Spectrometer: FLMT10579
Trigger mode: 0
Integration Time (sec): 1.000000E-1
Scans to average: 10
Electric dark correction enabled: true
Nonlinearity correction enabled: false
Boxcar width: 0
XAxis mode: Wavelengths
Number of Pixels in Spectrum: 3648
>>>>>Begin Spectral Data<<<<<
345.248	-147.96
345.464	-147.96
345.681	-147.96
345.898	-150.09
346.114	-130.52
346.331	-28.61
346.548	26.8
346.764	-8.07
346.981	-9.04
347.197	-20.86
347.414	42.88
347.631	-18.73
347.847	44.43
348.064	-3.42
348.28	19.63
348.497	-37.33
348.713	-7.69
348.93	10.53
349.146	21.18
349.363	7.04
349.579	23.7
349.796	13.24
350.012	-24.54
350.229	35.71
350.445	26.03
350.661	0.26
350.878	2.2
351.094	16.92
351.311	14.4
351.527	16.92
351.743	-15.82
351.96	13.82
352.176	35.71
352.392	21.57
352.609	33
352.825	6.26
353.041	32.42
353.257	0.65
353.474	19.25
353.69	-0.32
353.906	-5.94
354.122	-25.32
354.339	65.36
354.555	39.2
354.771	-1.1
354.987	52.57
355.203	38.62
355.42	-8.27
355.636	15.95
355.852	-15.44
356.068	8.2
356.284	-9.82
356.5	63.61
356.716	22.93
356.932	8.98
357.148	27.58
357.364	25.64
357.58	56.83
357.796	59.93
358.012	51.6
358.228	15.95
358.444	-30.93
358.66	43.27
358.876	15.76
359.092	-12.72
359.308	14.01
359.524	31.06
359.74	2.97
359.956	-12.34
360.172	3.94
360.388	30.29
360.604	-4.59
360.819	72.14
361.035	26.8
361.251	30.1
361.467	4.52
361.683	50.83
361.898	18.86
362.114	31.26
362.33	19.05
362.546	41.14
362.762	6.85
362.977	30.29
363.193	-4.2
363.409	40.36
363.624	-4.2
363.84	-12.14
364.056	9.75
364.271	27.96
364.487	21.76
364.703	-0.9
364.918	6.46
365.134	17.89
365.35	16.92
365.565	116.51
365.781	32.81
365.996	26.8
366.212	62.84
366.427	51.8
366.643	-9.43
366.858	-0.52
367.074	-0.9
367.289	52.76
367.505	103.33
367.72	-7.1
367.936	6.46
368.151	36.49
368.367	66.52
368.582	16.73
368.798	4.91
369.013	71.17
369.228	32.23
369.444	28.74
369.659	69.04
369.874	31.65
370.09	77.37
370.305	-43.92
370.52	-5.36
370.736	64.39
370.951	13.24
371.166	69.62
371.381	66.33
371.597	42.3
371.812	-25.7
372.027	17.11
372.242	18.47
372.458	85.51
372.673	-11.17
372.888	14.4
373.103	30.87
373.318	106.63
373.533	18.66
373.749	13.05
373.964	-28.42
374.179	65.94
374.394	18.28
374.609	67.1
374.824	-8.07
375.039	55.48
375.254	-10.4
375.469	82.21
375.684	9.75
375.899	79.89
376.114	-3.62
376.329	20.8
376.544	50.63
376.759	73.88
376.974	3.16
377.189	45.21
377.404	6.46
377.619	78.34
377.834	-38.1
378.049	-2.45
378.264	-10.98
378.478	28.55
378.693	11.3
378.908	61.87
379.123	17.11
379.338	41.91
379.553	51.41
379.767	36.3
379.982	35.52
380.197	71.94
380.412	18.47
380.626	54.9
380.841	113.21
381.056	31.06
381.271	109.34
381.485	18.86
381.7	-13.11
381.915	48.7
382.129	16.53
382.344	43.27
382.559	-4.39
382.773	63.81
382.988	-11.17
383.202	40.56
383.417	14.79
383.632	120.77
383.846	52.38
384.061	39.4
384.275	14.6
384.49	43.46
384.704	46.18
384.919	26.61
385.133	40.56
385.348	45.98
385.562	-1.49
385.777	81.44
385.991	23.7
386.206	15.95
386.42	5.3
386.634	79.11
386.849	30.48
387.063	36.88
387.277	6.07
387.492	8.01
387.706	9.75
387.92	4.13
388.135	43.46
388.349	3.55
388.563	62.06
388.778	31.06
388.992	39.78
389.206	41.33
389.42	106.24
389.635	33.2
389.849	48.5
390.063	51.6
390.277	52.76
390.491	92.29
390.706	48.89
390.92	59.54
391.134	28.35
391.348	58.38
391.562	6.26
391.776	22.15
391.99	17.5
392.205	77.37
392.419	-19.5
392.633	31.65
392.847	55.86
393.061	23.9
393.275	69.04
393.489	19.63
393.703	42.3
393.917	64
394.131	25.45
394.345	55.28
394.559	65.94
394.773	44.82
394.986	53.15
395.2	16.92
395.414	88.99
395.628	34.16
395.842	54.51
396.056	39.59
396.27	-17.76
396.484	56.83
396.697	30.68
396.911	84.54
397.125	48.11
397.339	91.9
397.553	43.46
397.766	99.84
397.98	88.41
398.194	87.64
398.408	76.79
398.621	84.73
398.835	96.74
399.049	64.78
399.262	130.07
399.476	95.97
399.69	107.01
399.903	126.39
400.117	58.38
400.331	102.94
400.544	76.21
400.758	179.47
400.971	74.66
401.185	98.68
401.398	78.53
401.612	118.06
401.826	108.18
402.039	116.12
402.253	67.68
402.466	127.55
402.68	72.33
402.893	90.54
403.106	77.95
403.32	91.9
403.533	77.18
403.747	106.82
403.96	94.42
404.174	112.24
404.387	50.63
404.6	58.96
404.814	132.39
405.027	61.29
405.24	89.19
405.454	58.19
405.667	120.38
405.88	29.32
406.094	86.09
406.307	128.91
406.52	118.64
406.733	45.21
406.947	50.25
407.16	132.78
407.373	108.76
407.586	89.38
407.799	62.64
408.012	156.61
408.226	98.88
408.439	139.56
408.652	49.66
408.865	112.44
409.078	137.04
409.291	121.74
409.504	93.26
409.717	126
409.93	149.44
410.143	121.35
410.357	67.49
410.57	64.78
410.783	75.82
410.996	99.07
411.209	105.85
411.421	144.6
411.634	119.61
411.847	87.64
412.06	92.48
412.273	109.14
412.486	128.13
412.699	182.19
412.912	113.21
413.125	149.25
413.338	119.22
413.55	174.63
413.763	100.43
413.976	147.51
414.189	89.96
414.402	95.78
414.615	151.19
414.827	103.53
415.04	169.59
415.253	131.04
415.466	167.85
415.678	180.64
415.891	140.14
416.104	125.61
416.316	105.66
416.529	138.98
416.742	169.4
416.954	155.64
417.167	129.88
417.38	126.78
417.592	163.2
417.805	107.01
418.017	89.19
418.23	164.36
418.442	93.64
418.655	128.13
418.868	144.21
419.08	167.66
419.293	155.84
419.505	154.48
419.718	120.96
419.93	186.64
420.142	119.61
420.355	187.61
420.567	187.22
420.78	166.11
420.992	153.51
421.205	209.12
421.417	126.97
421.629	122.32
421.842	124.06
422.054	106.04
422.266	185.67
422.479	190.52
422.691	137.43
422.903	181.22
423.115	124.45
423.328	169.4
423.54	176.96
423.752	175.02
423.964	141.11
424.177	158.55
424.389	141.89
424.601	244.57
424.813	177.34
425.025	177.73
425.238	192.65
425.45	151.77
425.662	131.62
425.874	416.62
426.086	113.79
426.298	191.87
426.51	180.25
426.722	153.32
426.934	135.3
427.146	190.32
427.358	137.43
427.57	208.92
427.782	146.54
427.994	166.3
428.206	117.67
428.418	153.51
428.63	179.67
428.842	193.81
429.054	189.94
429.266	207.96
429.478	132.98
429.69	163.2
429.902	124.26
430.114	192.46
430.325	166.49
430.537	153.32
430.749	152.16
430.961	99.65
431.173	122.71
431.384	180.83
431.596	84.34
431.808	153.32
432.02	177.34
432.231	233.53
432.443	232.37
432.655	193.81
432.867	164.36
433.078	180.83
433.29	227.91
433.502	237.99
433.713	231.59
433.925	215.71
434.136	221.52
434.348	171.14
434.56	134.72
434.771	256.2
434.983	130.26
435.194	165.33
435.406	204.08
435.617	235.66
435.829	279.25
436.04	233.53
436.252	246.51
436.463	269.18
436.675	214.16
436.886	212.61
437.098	245.15
437.309	292.62
437.521	213.96
437.732	235.47
437.943	248.25
438.155	211.83
438.366	170.76
438.578	268.99
438.789	219
439	263.75
439.211	226.94
439.423	270.15
439.634	244.19
439.845	266.47
440.057	234.5
440.268	276.54
440.479	221.13
440.69	266.47
440.902	249.8
441.113	247.09
441.324	257.94
441.535	268.21
441.746	310.64
441.957	253.1
442.168	238.37
442.38	297.85
442.591	298.82
442.802	241.47
443.013	256
443.224	279.06
443.435	262.79
443.646	278.09
443.857	275.96
444.068	281.97
444.279	244.96
444.49	333.5
444.701	269.57
444.912	357.72
445.123	294.75
445.334	312.77
445.545	285.84
445.756	276.93
445.967	289.33
446.178	290.69
446.388	314.52
446.599	318.2
446.81	302.5
447.021	264.53
447.232	327.69
447.443	345.9
447.653	294.75
447.864	342.03
448.075	336.22
448.286	358.3
448.496	310.25
448.707	368.57
448.918	289.52
449.129	407.71
449.339	320.33
449.55	334.67
449.761	320.33
449.971	341.06
450.182	334.86
450.393	385.43
450.603	327.11
450.814	368.96
451.024	370.7
451.235	389.5
451.446	394.92
451.656	419.53
451.867	337.57
452.077	361.02
452.288	406.35
452.498	424.56
452.709	348.23
452.919	372.25
453.13	329.63
453.34	395.31
453.55	289.91
453.761	389.11
453.971	367.02
454.182	379.42
454.392	373.22
454.602	435.22
454.813	386.4
455.023	388.92
455.233	355.2
455.444	388.92
455.654	319.55
455.864	366.44
456.075	355.2
456.285	343.97
456.495	390.08
456.705	402.67
456.916	395.89
457.126	429.02
457.336	388.14
457.546	320.33
457.756	383.49
457.967	437.55
458.177	380.97
458.387	413.91
458.597	390.08
458.807	416.81
459.017	373.42
459.227	403.64
459.437	375.74
459.647	448.01
459.857	399.57
460.068	377.48
460.278	419.14
460.488	430.38
460.698	436.58
460.908	399.38
461.117	381.94
461.327	377.87
461.537	426.11
461.747	415.46
461.957	414.68
462.167	528.41
462.377	446.85
462.587	449.17
462.797	444.13
463.007	425.53
463.216	473.58
463.426	488.31
463.636	461.18
463.846	387.75
464.056	422.63
464.265	489.08
464.475	408.48
464.685	441.03
464.895	484.05
465.104	438.32
465.314	475.52
465.524	438.51
465.733	435.41
465.943	519.31
466.153	508.26
466.362	484.82
466.572	469.51
466.782	431.93
466.991	459.83
467.201	505.16
467.41	416.23
467.62	441.23
467.829	460.6
468.039	496.64
468.249	446.65
468.458	465.06
468.668	515.04
468.877	467.96
469.086	536.74
469.296	506.13
469.505	447.04
469.715	555.15
469.924	526.09
470.134	538.68
470.343	541.01
470.552	496.25
470.762	497.03
470.971	463.51
471.18	532.48
471.39	517.95
471.599	473.58
471.808	552.83
472.018	499.16
472.227	559.8
472.436	591.96
472.645	524.73
472.855	529.58
473.064	569.29
473.273	554.96
473.482	550.11
473.691	572.2
473.901	581.11
474.11	537.33
474.319	648.73
474.528	570.46
474.737	636.33
474.946	605.33
475.155	610.56
475.364	626.64
475.573	605.52
475.783	581.31
475.992	631.49
476.201	651.64
476.41	619.67
476.619	561.16
476.828	621.61
477.037	597.77
477.245	604.75
477.454	657.84
477.663	634.78
477.872	632.65
478.081	701.62
478.29	620.44
478.499	707.63
478.708	665.97
478.917	727.39
479.125	671.59
479.334	666.94
479.543	670.62
479.752	704.14
479.961	697.36
480.169	721.58
480.378	660.74
480.587	836.67
480.796	729.14
481.004	743.09
481.213	756.84
481.422	735.53
481.63	777.38
481.839	789.39
482.048	809.93
482.256	740.95
482.465	803.92
482.674	798.11
482.882	806.63
483.091	874.25
483.299	796.56
483.508	843.83
483.716	803.53
483.925	834.73
484.134	765.37
484.342	779.12
484.551	814.19
484.759	830.47
484.967	843.45
485.176	850.61
485.384	854.88
485.593	889.36
485.801	830.27
486.01	795.98
486.218	768.08
486.426	712.09
486.635	726.04
486.843	726.42
487.051	791.72
487.26	747.54
487.468	771.57
487.676	823.88
487.885	770.21
488.093	858.17
488.301	873.09
488.509	859.53
488.717	884.33
488.926	894.6
489.134	874.83
489.342	886.07
489.55	875.22
489.758	895.76
489.967	882.97
490.175	958.34
490.383	916.1
490.591	983.33
490.799	939.16
491.007	977.91
491.215	976.94
491.423	952.14
491.631	952.91
491.839	955.24
492.047	976.55
492.255	934.12
492.463	897.5
492.671	932.76
492.879	1010.46
493.087	983.53
493.295	986.63
493.503	1005.23
493.711	1016.46
493.919	1089.31
494.127	1041.46
494.334	1058.51
494.542	984.49
494.75	1059.47
494.958	1035.84
495.166	1101.52
495.374	1098.22
495.581	1054.82
495.789	1094.35
495.997	1107.14
496.205	1031.57
496.412	1061.22
496.62	1059.67
496.828	1103.65
497.035	1076.33
497.243	1099.58
497.451	1101.52
497.658	1092.22
497.866	1136.39
498.074	1166.42
498.281	1090.28
498.489	1171.65
498.696	1129.22
498.904	1106.75
499.112	1132.71
499.319	1207.11
499.527	1126.51
499.734	1187.93
499.942	1125.15
500.149	1170.49
500.357	1167.97
500.564	1110.82
500.771	1166.23
500.979	1122.25
501.186	1138.14
501.394	1173.98
501.601	1156.15
501.808	1180.95
502.016	1151.31
502.223	1186.38
502.43	1161.58
502.638	1167.2
502.845	1169.33
503.052	1251.48
503.26	1203.82
503.467	1303.98
503.674	1249.73
503.881	1272.02
504.089	1299.91
504.296	1264.85
504.503	1181.15
504.71	1219.51
504.917	1221.45
505.125	1263.88
505.332	1285.58
505.539	1344.09
505.746	1409.38
505.953	1354.16
506.16	1358.62
506.367	1437.28
506.574	1454.72
506.781	1443.68
506.988	1402.99
507.195	1425.46
507.402	1382.06
507.609	1406.86
507.816	1367.92
508.023	1382.64
508.23	1392.33
508.437	1367.73
508.644	1441.54
508.851	1495.99
509.058	1497.73
509.265	1465.57
509.472	1474.29
509.679	1595.38
509.885	1507.42
510.092	1479.91
510.299	1528.73
510.506	1474.29
510.713	1532.61
510.92	1472.74
511.126	1579.1
511.333	1593.83
511.54	1589.57
511.746	1600.03
511.953	1645.17
512.16	1680.43
512.367	1634.52
512.573	1633.35
512.78	1654.28
512.987	1630.25
513.193	1668.42
513.4	1567.48
513.606	1625.22
513.813	1699.03
514.02	1642.07
514.226	1712.98
514.433	1697.87
514.639	1646.14
514.846	1691.67
515.052	1721.31
515.259	1686.63
515.465	1726.35
515.672	1741.46
515.878	1826.13
516.085	1775.18
516.291	1831.17
516.497	1783.7
516.704	1751.15
516.91	1687.41
517.117	1623.67
517.323	1579.1
517.529	1610.69
517.736	1644.59
517.942	1639.36
518.148	1657.96
518.354	1753.28
518.561	1722.86
518.767	1748.05
518.973	1773.82
519.179	1815.48
519.386	1801.72
519.592	1831.36
519.798	1816.25
520.004	1944.9
520.21	1923.78
520.417	1983.84
520.623	1995.47
520.829	2033.25
521.035	2009.61
521.241	2005.54
521.447	2050.49
521.653	2186.89
521.859	2071.03
522.065	2104.35
522.271	2168.29
522.477	2140.97
522.683	2193.09
522.889	2146.4
523.095	2115.4
523.301	2145.23
523.507	2120.63
523.713	2136.9
523.919	2110.75
524.125	2234.75
524.331	2214.01
524.537	2314.18
524.742	2314.57
524.948	2329.29
525.154	2337.43
525.36	2422.29
525.566	2304.88
525.772	2361.65
525.977	2290.93
526.183	2335.49
526.389	2396.52
526.595	2253.54
526.8	2319.03
527.006	2220.41
527.212	2165.96
527.417	2191.73
527.623	2160.93
527.829	2267.29
528.034	2299.84
528.24	2313.79
528.446	2358.55
528.651	2444.77
528.857	2473.25
529.062	2552.3
529.268	2470.54
529.473	2535.83
529.679	2549.58
529.884	2658.47
530.09	2571.67
530.295	2586.2
530.501	2620.5
530.706	2604.22
530.912	2606.16
531.117	2593.95
531.323	2587.75
531.528	2682.69
531.733	2679.01
531.939	2622.63
532.144	2642.39
532.35	2630.38
532.555	2665.45
532.76	2612.55
532.966	2572.25
533.171	2575.16
533.376	2543.97
533.581	2552.68
533.787	2640.06
533.992	2689.66
534.197	2655.76
534.402	2637.93
534.607	2658.66
534.813	2764.06
535.018	2684.04
535.223	2708.46
535.428	2698.96
535.633	2802.42
535.838	2791.96
536.043	2816.37
536.249	2881.09
536.454	2773.94
536.659	2805.72
536.864	2797.77
537.069	2758.64
537.274	2783.63
537.479	2758.44
537.684	2766.58
537.889	2754.18
538.094	2891.55
538.299	2782.27
538.504	2861.13
538.708	2829.74
538.913	2879.15
539.118	2844.47
539.323	2864.81
539.528	2849.89
539.733	2839.24
539.938	2852.99
540.142	2847.37
540.347	2774.14
540.552	2750.69
540.757	2759.99
540.962	2759.41
541.166	2743.14
541.371	2709.23
541.576	2758.25
541.781	2723.57
541.985	2806.69
542.19	2802.42
542.395	2912.28
542.599	2961.3
542.804	2867.14
543.008	2883.22
543.213	2845.44
543.418	2816.96
543.622	2887.09
543.827	2815.21
544.031	2945.41
544.236	2957.42
544.44	2920.22
544.645	3018.65
544.849	2906.08
545.054	2957.62
545.258	3058.56
545.463	3008.38
545.667	2888.84
545.872	2985.9
546.076	3001.02
546.281	2961.68
546.485	2931.85
546.689	2964.2
546.894	3006.44
547.098	3009.15
547.302	2987.45
547.507	3001.4
547.711	3001.79
547.915	3036.08
548.119	2950.25
548.324	2997.53
548.528	3004.7
548.732	2976.41
548.936	3016.52
549.141	3023.88
549.345	2996.56
549.549	3024.07
549.753	3082.39
549.957	3087.43
550.161	3113.58
550.366	3067.08
550.57	3012.64
550.774	3052.55
550.978	3043.45
551.182	3051.39
551.386	2984.93
551.59	2995.4
551.794	3008.38
551.998	3042.09
552.202	3037.83
552.406	3004.31
552.61	3080.06
552.814	3043.25
553.018	3126.95
553.222	3034.53
553.426	3005.28
553.63	3126.76
553.833	3060.69
554.037	2976.41
554.241	3034.34
554.445	3071.35
554.649	3027.75
554.853	3053.52
555.056	3075.03
555.26	3075.61
555.464	3107.19
555.668	3073.86
555.871	3147.29
556.075	3100.6
556.279	3018.07
556.483	2988.42
556.686	3011.28
556.89	3030.66
557.094	2981.64
557.297	2916.15
557.501	3060.5
557.704	2896.2
557.908	2976.99
558.112	2934.95
558.315	2991.52
558.519	2955.1
558.722	2913.25
558.926	2907.44
559.129	2828.39
559.333	2801.65
559.536	2803.59
559.74	2831.49
559.943	2799.32
560.147	2794.48
560.35	2811.53
560.553	2844.47
560.757	2806.11
560.96	2871.2
561.164	2839.24
561.367	2938.05
561.57	2855.51
561.774	2877.6
561.977	2849.89
562.18	2816.37
562.384	2885.54
562.587	2803.78
562.79	2854.16
562.993	2800.1
563.197	2841.76
563.4	2883.22
563.603	2868.49
563.806	2881.28
564.009	2790.99
564.212	2849.51
564.416	2777.43
564.619	2816.37
564.822	2704.78
565.025	2830.32
565.228	2742.17
565.431	2790.99
565.634	2682.3
565.837	2685.01
566.04	2693.15
566.243	2675.13
566.446	2566.83
566.649	2660.8
566.852	2579.23
567.055	2622.82
567.258	2650.53
567.461	2700.13
567.664	2707.29
567.867	2623.98
568.07	2633.48
568.273	2621.27
568.475	2673.58
568.678	2604.61
568.881	2588.33
569.084	2546.29
569.287	2449.8
569.489	2491.65
569.692	2572.25
569.895	2557.14
570.098	2443.8
570.3	2483.9
570.503	2428.49
570.706	2395.17
570.909	2374.05
571.111	2368.82
571.314	2359.91
571.516	2404.86
571.719	2396.33
571.922	2372.11
572.124	2358.16
572.327	2412.61
572.529	2350.41
572.732	2389.94
572.935	2388.77
573.137	2491.27
573.34	2361.26
573.542	2402.92
573.745	2353.71
573.947	2389.74
574.15	2357.39
574.352	2311.66
574.554	2376.96
574.757	2331.04
574.959	2253.54
575.162	2342.08
575.364	2288.61
575.566	2383.35
575.769	2253.54
575.971	2331.23
576.173	2196.58
576.376	2242.88
576.578	2273.49
576.78	2340.34
576.982	2213.63
577.185	2202
577.387	2204.52
577.589	2196
577.791	2206.65
577.993	2196
578.196	2181.46
578.398	2205.3
578.6	2220.02
578.802	2109.2
579.004	2140.78
579.206	2135.74
579.408	2179.91
579.61	2134.97
579.812	2214.21
580.014	2141.94
580.216	2178.17
580.418	2189.21
580.62	2209.36
580.822	2157.25
581.024	2236.49
581.226	2208.98
581.428	2210.33
581.63	2268.46
581.832	2201.81
582.034	2243.27
582.236	2210.14
582.438	2227.96
582.64	2286.67
582.841	2275.04
583.043	2317.09
583.245	2240.56
583.447	2249.86
583.649	2239.4
583.85	2256.44
584.052	2234.55
584.254	2221.18
584.456	2295.78
584.657	2201.03
584.859	2252.57
585.061	2202.78
585.262	2169.84
585.464	2133.03
585.666	2230.29
585.867	2133.8
586.069	2184.37
586.27	2161.12
586.472	2152.02
586.674	2159.18
586.875	2127.8
587.077	2126.05
587.278	2157.63
587.48	2132.64
587.681	2227.19
587.883	2117.53
588.084	2048.36
588.285	2106.29
588.487	2064.64
588.688	2097.77
588.89	1968.92
589.091	1920.1
589.292	1899.37
589.494	1846.28
589.695	1863.53
589.896	1755.03
590.098	1784.28
590.299	1816.83
590.5	1817.03
590.702	1856.94
590.903	1924.56
591.104	1951.29
591.305	1964.86
591.507	1981.52
591.708	1975.71
591.909	1953.81
592.11	1971.83
592.311	1939.86
592.512	1910.8
592.714	1896.27
592.915	1900.34
593.116	1916.22
593.317	1933.27
593.518	1947.03
593.719	1926.11
593.92	1951.1
594.121	1963.69
594.322	1946.45
594.523	1947.81
594.724	1878.64
594.925	1904.79
595.126	1907.31
595.327	1915.64
595.528	1915.84
595.729	1901.11
595.929	1893.17
596.13	1902.86
596.331	1929.79
596.532	1954.39
596.733	2017.36
596.934	1989.65
597.135	1972.99
597.335	1941.99
597.536	1883.48
597.737	1951.87
597.938	1908.09
598.138	1974.74
598.339	1933.47
598.54	1947.03
598.74	1898.79
598.941	1896.07
599.142	1966.21
599.342	1965.05
599.543	1889.1
599.744	1906.15
599.944	1911.19
600.145	1947.42
600.345	1910.22
600.546	1994.89
600.746	1954.78
600.947	2019.49
601.147	1919.71
601.348	1998.76
601.548	1931.14
601.749	1909.64
601.949	1890.84
602.15	1880.58
602.35	1900.34
602.551	1915.45
602.751	1873.21
602.951	1910.41
603.152	1876.89
603.352	1911.57
603.552	1919.71
603.753	1960.98
603.953	1959.82
604.153	1961.37
604.354	1941.61
604.554	1956.14
604.754	1918.94
604.954	1925.33
605.155	1941.99
605.355	1917.97
605.555	1939.67
605.755	1989.46
605.955	1919.91
606.155	1943.93
606.356	1951.87
606.556	1954.59
606.756	1934.24
606.956	1884.84
607.156	1943.16
607.356	1893.17
607.556	1957.69
607.756	1902.08
607.956	1990.43
608.156	1949.36
608.356	1866.63
608.556	1921.65
608.756	1874.18
608.956	1858.1
609.156	1894.91
609.356	1842.02
609.556	1841.05
609.755	1855
609.955	1835.43
610.155	1913.9
610.355	1867.21
610.555	1787
610.755	1801.72
610.954	1764.33
611.154	1849.77
611.354	1871.47
611.554	1793
611.753	1815.28
611.953	1788.16
612.153	1835.04
612.352	1834.66
612.552	1757.74
612.752	1732.94
612.951	1830.98
613.151	1797.07
613.351	1768.78
613.55	1765.3
613.75	1801.72
613.949	1766.07
614.149	1761.03
614.348	1743.98
614.548	1715.31
614.747	1692.25
614.947	1723.83
615.146	1679.08
615.346	1758.51
615.545	1753.28
615.745	1752.9
615.944	1746.7
616.144	1711.05
616.343	1696.32
616.542	1728.29
616.742	1672.3
616.941	1659.32
617.14	1600.42
617.34	1675.59
617.539	1688.38
617.738	1681.79
617.938	1746.89
618.137	1684.31
618.336	1657.18
618.535	1683.53
618.734	1706.78
618.934	1696.32
619.133	1715.89
619.332	1712.21
619.531	1666.68
619.73	1682.37
619.929	1707.17
620.128	1696.52
620.328	1737.98
620.527	1625.02
620.726	1661.06
620.925	1684.5
621.124	1662.22
621.323	1653.89
621.522	1605.26
621.721	1617.08
621.92	1617.27
622.119	1685.86
622.318	1606.81
622.517	1610.1
622.715	1607.78
622.914	1570.58
623.113	1595.96
623.312	1542.87
623.511	1599.64
623.71	1572.32
623.909	1572.13
624.107	1616.69
624.306	1515.36
624.505	1549.07
624.704	1566.7
624.902	1527.37
625.101	1608.17
625.3	1560.31
625.499	1525.44
625.697	1519.82
625.896	1509.36
626.095	1546.55
626.293	1467.89
626.492	1508.77
626.69	1565.54
626.889	1511.29
627.088	1552.75
627.286	1515.94
627.485	1478.36
627.683	1472.93
627.882	1502.19
628.08	1417.33
628.279	1463.24
628.477	1504.9
628.676	1392.53
628.874	1464.79
629.073	1437.09
629.271	1397.56
629.469	1436.12
629.668	1433.79
629.866	1421.2
630.065	1433.99
630.263	1476.81
630.461	1395.04
630.66	1464.99
630.858	1460.92
631.056	1471.57
631.254	1505.29
631.453	1439.22
631.651	1487.46
631.849	1491.72
632.047	1437.48
632.245	1427.59
632.444	1491.14
632.642	1495.99
632.84	1522.34
633.038	1429.73
633.236	1455.69
633.434	1462.27
633.632	1493.27
633.83	1452.59
634.028	1496.18
634.227	1466.54
634.425	1558.57
634.623	1475.06
634.821	1479.13
635.019	1488.24
635.216	1469.25
635.414	1507.42
635.612	1452.98
635.81	1486.69
636.008	1495.99
636.206	1457.62
636.404	1470.99
636.602	1426.82
636.8	1462.08
636.997	1492.5
637.195	1503.93
637.393	1457.43
637.591	1522.72
637.789	1496.76
637.986	1454.91
638.184	1479.71
638.382	1512.84
638.58	1504.12
638.777	1520.98
638.975	1476.03
639.173	1461.31
639.37	1471.38
639.568	1446.39
639.765	1481.65
639.963	1443.68
640.161	1481.26
640.358	1446.19
640.556	1370.83
640.753	1393.88
640.951	1389.62
641.148	1406.67
641.346	1395.82
641.543	1413.45
641.741	1409.19
641.938	1360.36
642.136	1388.07
642.333	1375.28
642.531	1420.43
642.728	1412.48
642.925	1371.21
643.123	1371.79
643.32	1376.64
643.517	1347.38
643.715	1349.9
643.912	1328.78
644.109	1354.36
644.306	1366.76
644.504	1291.39
644.701	1345.83
644.898	1359.98
645.095	1309.8
645.293	1306.5
645.49	1328.4
645.687	1334.79
645.884	1348.55
646.081	1250.12
646.278	1253.22
646.475	1252.06
646.672	1232.3
646.87	1309.21
647.067	1232.49
647.264	1279.18
647.461	1226.48
647.658	1167.2
647.855	1238.11
648.052	1176.89
648.249	1133.49
648.446	1164.68
648.642	1179.99
648.839	1140.85
649.036	1181.73
649.233	1135.81
649.43	1117.99
649.627	1123.8
649.824	1137.75
650.021	1124.96
650.217	1143.17
650.414	1143.75
650.611	1160.61
650.808	1204.98
651.004	1193.74
651.201	1187.35
651.398	1224.93
651.595	1168.94
651.791	1130
651.988	1170.69
652.185	1109.65
652.381	1146.85
652.578	1096.87
652.775	1117.99
652.971	1124.38
653.168	1154.6
653.364	1179.02
653.561	1067.42
653.757	1134.84
653.954	1125.35
654.15	1110.43
654.347	1169.33
654.543	1111.2
654.74	1053.27
654.936	1073.23
655.133	1106.36
655.329	1091.44
655.525	1062.38
655.722	1116.44
655.918	1028.28
656.115	1063.93
656.311	972.87
656.507	957.76
656.704	924.24
656.9	955.63
657.096	973.45
657.292	939.54
657.489	998.06
657.685	997.09
657.881	1005.03
658.077	985.66
658.273	1029.64
658.47	1098.03
658.666	1025.57
658.862	1055.99
659.058	1048.62
659.254	1093.38
659.45	1029.64
659.646	1068.39
659.842	1046.11
660.038	1098.42
660.234	1014.72
660.43	1061.22
660.626	1083.89
660.822	1060.06
661.018	1083.89
661.214	1043.2
661.41	979.26
661.606	1058.7
661.802	1069.16
661.998	1034.09
662.194	1010.84
662.39	1083.69
662.586	1017.04
662.781	1066.26
662.977	1042.62
663.173	1063.16
663.369	1006
663.564	993.79
663.76	1044.17
663.956	982.56
664.152	1017.04
664.347	966.09
664.543	1004.06
664.739	1005.03
664.934	933.54
665.13	942.26
665.326	1014.53
665.521	1013.56
665.717	955.24
665.912	933.73
666.108	868.25
666.304	920.75
666.499	943.61
666.695	888.2
666.89	907.38
667.086	956.59
667.281	958.14
667.477	1011.23
667.672	926.95
667.867	920.95
668.063	950.39
668.258	894.01
668.454	897.7
668.649	1016.08
668.844	887.81
669.04	946.52
669.235	906.61
669.43	916.1
669.626	877.74
669.821	879.68
670.016	844.42
670.211	899.83
670.407	857.4
670.602	905.45
670.797	897.89
670.992	910.29
671.187	819.62
671.382	919.2
671.578	839.77
671.773	888.01
671.968	823.49
672.163	877.16
672.358	890.33
672.553	869.02
672.748	853.13
672.943	924.63
673.138	882.97
673.333	901.18
673.528	829.3
673.723	875.22
673.918	861.08
674.113	858.75
674.308	916.3
674.503	879.1
674.698	900.21
674.892	862.24
675.087	882.97
675.282	869.6
675.477	822.33
675.672	836.86
675.867	840.73
676.061	818.45
676.256	816.32
676.451	844.03
676.646	865.53
676.84	834.73
677.035	791.13
677.23	833.57
677.424	862.82
677.619	890.33
677.814	892.66
678.008	868.63
678.203	795.98
678.397	817.87
678.592	832.98
678.787	876.19
678.981	841.51
679.176	835.89
679.37	834.15
679.565	805.47
679.759	827.56
679.954	869.02
680.148	895.18
680.342	883.36
680.537	856.62
680.731	822.33
680.926	844.42
681.12	871.54
681.314	796.37
681.509	845.58
681.703	833.18
681.897	865.15
682.092	835.5
682.286	812.83
682.48	909.13
682.674	881.81
682.869	851.97
683.063	859.33
683.257	947.68
683.451	829.69
683.645	868.44
683.839	893.82
684.034	890.53
684.228	902.35
684.422	827.75
684.616	821.36
684.81	901.18
685.004	870.96
685.198	880.45
685.392	913.39
685.586	875.22
685.78	898.86
685.974	921.72
686.168	903.7
686.362	946.52
686.556	860.3
686.75	816.52
686.944	801.02
687.138	774.47
687.331	708.02
687.525	708.21
687.719	645.24
687.913	734.75
688.107	709.76
688.301	714.41
688.494	784.35
688.688	728.17
688.882	690.19
689.076	731.07
689.269	772.73
689.463	832.02
689.657	777.77
689.85	759.36
690.044	813.42
690.238	827.37
690.431	821.94
690.625	833.76
690.818	908.35
691.012	917.85
691.205	944.39
691.399	906.41
691.593	962.41
691.786	1028.86
691.98	1018.01
692.173	1040.68
692.366	1037.58
692.56	1090.47
692.753	1128.64
692.947	1066.06
693.14	1112.56
693.333	1144.72
693.527	1076.33
693.72	1176.69
693.914	1111.01
694.107	1123.8
694.3	1181.34
694.493	1154.6
694.687	1216.41
694.88	1154.8
695.073	1245.67
695.266	1242.76
695.46	1281.51
695.653	1303.79
695.846	1324.71
696.039	1264.65
696.232	1322
696.425	1387.88
696.618	1417.52
696.812	1432.44
697.005	1531.25
697.198	1577.94
697.391	1520.79
697.584	1572.9
697.777	1633.74
697.97	1569.8
698.163	1624.25
698.356	1574.84
698.549	1694.38
698.742	1681.02
698.935	1600.22
699.127	1663.58
699.32	1620.37
699.513	1650.98
699.706	1687.41
699.899	1700.58
700.092	1649.24
700.285	1691.48
700.477	1654.86
700.67	1727.71
700.863	1712.02
701.056	1797.85
701.248	1787
701.441	1838.14
701.634	1767.62
701.826	1861.98
702.019	1799.4
702.212	1869.34
702.404	1842.21
702.597	1861.78
702.79	1817.41
702.982	1871.66
703.175	1917.39
703.367	1979.77
703.56	2006.9
703.752	2105.13
703.945	2022.01
704.137	2083.82
704.33	2068.51
704.522	2108.81
704.715	2092.34
704.907	2147.17
705.1	2214.4
705.292	2241.91
705.484	2202
705.677	2217.7
705.869	2260.51
706.061	2233.58
706.254	2296.94
706.446	2272.33
706.638	2279.5
706.831	2338.4
707.023	2294.23
707.215	2402.72
707.407	2395.94
707.599	2355.06
707.792	2435.27
707.984	2441.67
708.176	2434.89
708.368	2426.55
708.56	2474.6
708.752	2478.67
708.944	2451.55
709.136	2523.23
709.329	2519.17
709.521	2603.83
709.713	2608.68
709.905	2597.83
710.097	2629.02
710.289	2554.82
710.481	2654.01
710.672	2650.53
710.864	2682.69
711.056	2685.59
711.248	2721.83
711.44	2694.89
711.632	2693.15
711.824	2735.97
712.016	2727.83
712.207	2758.83
712.399	2769.68
712.591	2840.4
712.783	2804.56
712.975	2800.68
713.166	2805.14
713.358	2819.09
713.55	2918.29
713.741	2876.63
713.933	2910.92
714.125	2871.59
714.316	2867.33
714.508	2949.48
714.7	2892.13
714.891	2934.95
715.083	2955.29
715.274	2917.9
715.466	2922.74
715.657	2922.94
715.849	2855.51
716.04	2875.27
716.232	2832.46
716.423	2871.79
716.615	2744.49
716.806	2699.35
716.998	2600.73
717.189	2532.92
717.381	2470.54
717.572	2390.13
717.763	2414.93
717.955	2359.52
718.146	2295.39
718.337	2259.93
718.528	2212.85
718.72	2133.22
718.911	2196.19
719.102	2113.46
719.293	2145.04
719.485	2122.37
719.676	2106.1
719.867	2083.62
720.058	2078.78
720.249	2098.35
720.44	2101.45
720.632	2212.08
720.823	2229.71
721.014	2378.51
721.205	2474.6
721.396	2527.5
721.587	2604.41
721.778	2691.99
721.969	2717.95
722.16	2786.92
722.351	2833.42
722.542	2941.73
722.733	2929.91
722.924	2869.07
723.115	2913.25
723.305	2846.21
723.496	2863.26
723.687	2693.54
723.878	2755.73
724.069	2741.2
724.26	2683.46
724.45	2662.73
724.641	2656.53
724.832	2649.17
725.023	2665.83
725.213	2603.83
725.404	2596.66
725.595	2624.95
725.785	2590.27
725.976	2670.48
726.167	2616.04
726.357	2668.93
726.548	2777.43
726.739	2650.53
726.929	2747.59
727.12	2790.61
727.31	2752.05
727.501	2726.28
727.691	2737.91
727.882	2733.26
728.072	2789.64
728.263	2804.94
728.453	2861.13
728.644	2859.97
728.834	2833.04
729.024	2778.4
729.215	2828.58
729.405	2847.96
729.596	2902.79
729.786	2926.04
729.976	2907.63
730.167	2936.5
730.357	2945.6
730.547	2928.17
730.737	2966.92
730.928	2997.53
731.118	3042.86
731.308	2937.08
731.498	2973.12
731.688	3100.21
731.879	3085.1
732.069	3112.81
732.259	3198.83
732.449	3198.25
732.639	3302.1
732.829	3342.2
733.019	3418.15
733.209	3452.25
733.399	3445.47
733.589	3543.31
733.779	3600.47
733.969	3611.13
734.159	3647.74
734.349	3729.5
734.539	3788.21
734.729	3709.36
734.919	3763.41
735.109	3799.64
735.299	3726.02
735.488	3815.92
735.678	3778.72
735.868	3785.69
736.058	3757.79
736.248	3737.45
736.437	3727.76
736.627	3701.22
736.817	3831.22
737.007	3735.32
737.196	3826.57
737.386	3814.17
737.576	3770.39
737.765	3896.9
737.955	3826.18
738.144	3978.47
738.334	3942.43
738.524	3858.93
738.713	3879.47
738.903	3910.46
739.092	3939.72
739.282	3963.36
739.471	3953.09
739.661	3884.7
739.85	4030.59
740.04	3977.89
740.229	4049.19
740.419	4018.38
740.608	4097.82
740.797	4029.04
740.987	4089.1
741.176	4105.57
741.365	4081.16
741.555	4046.86
741.744	4100.92
741.933	4079.99
742.123	4113.9
742.312	4160.01
742.501	4151.68
742.69	4166.4
742.88	4105.18
743.069	4236.93
743.258	4196.24
743.447	4227.24
743.636	4194.5
743.825	4201.86
744.014	4231.12
744.204	4227.05
744.393	4144.32
744.582	4274.52
744.771	4285.75
744.96	4240.61
745.149	4296.6
745.338	4213.49
745.527	4288.08
745.716	4252.62
745.905	4198.76
746.094	4287.5
746.283	4234.02
746.471	4255.14
746.66	4319.66
746.849	4283.43
747.038	4286.92
747.227	4256.11
747.416	4273.16
747.604	4216.2
747.793	4226.47
747.982	4252.82
748.171	4287.11
748.359	4288.66
748.548	4305.13
748.737	4258.82
748.926	4282.27
749.114	4151.29
749.303	4231.31
749.491	4265.99
749.68	4150.52
749.869	4227.63
750.057	4206.12
750.246	4203.6
750.434	4220.46
750.623	4213.68
750.811	4198.76
751	4250.1
751.188	4163.5
751.377	4198.76
751.565	4171.05
751.754	4155.17
751.942	4135.79
752.131	4216
752.319	4075.15
752.507	4111.77
752.696	4196.05
752.884	4162.72
753.072	4160.21
753.261	4146.45
753.449	4115.84
753.637	4077.48
753.825	4226.27
754.014	4126.88
754.202	4148.58
754.39	4223.95
754.578	4153.62
754.766	4093.56
754.955	4084.26
755.143	4192.75
755.331	4128.82
755.519	4135.99
755.707	4104.99
755.895	4102.47
756.083	4101.69
756.271	4014.31
756.459	4056.36
756.647	4080.96
756.835	4073.41
757.023	4052.68
757.211	4030.59
757.399	4012.38
757.587	4020.13
757.775	3916.47
757.963	3998.43
758.151	3963.36
758.339	3931.97
758.526	3927.13
758.714	3991.06
758.902	3815.92
759.09	3664.6
759.278	3451.67
759.465	3163.76
759.653	2773.75
759.841	2505.6
760.028	2168.29
760.216	1842.6
760.404	1743.98
760.591	1426.24
760.779	1195.1
760.967	1031.96
761.154	875.41
761.342	875.61
761.529	878.51
761.717	917.46
761.905	901.76
762.092	975.58
762.28	945.55
762.467	898.47
762.655	827.17
762.842	853.71
763.029	866.5
763.217	884.33
763.404	857.78
763.592	894.98
763.779	858.95
763.966	919.98
764.154	958.53
764.341	1025.57
764.528	1043.97
764.716	1123.22
764.903	1180.57
765.09	1256.32
765.277	1295.07
765.465	1499.28
765.652	1532.02
765.839	1654.28
766.026	1791.45
766.213	1850.35
766.4	2006.51
766.588	2170.03
766.775	2220.99
766.962	2348.86
767.149	2437.79
767.336	2590.85
767.523	2622.24
767.71	2764.84
767.897	2887.29
768.084	2960.52
768.271	3038.6
768.458	3095.95
768.645	3151.36
768.832	3141.68
769.019	3196.7
769.206	3216.46
769.392	3331.74
769.579	3415.05
769.766	3394.52
769.953	3397.03
770.14	3466.4
770.327	3449.93
770.513	3494.68
770.7	3593.49
770.887	3477.83
771.073	3520.06
771.26	3541.18
771.447	3514.64
771.634	3511.15
771.82	3580.32
772.007	3445.08
772.193	3527.23
772.38	3550.68
772.567	3509.21
772.753	3534.4
772.94	3607.44
773.126	3534.6
773.313	3588.46
773.499	3556.1
773.686	3599.11
773.872	3536.34
774.059	3555.33
774.245	3549.51
774.432	3543.9
774.618	3449.35
774.804	3513.28
774.991	3473.76
775.177	3514.25
775.363	3521.42
775.55	3502.82
775.736	3492.75
775.922	3462.52
776.109	3460
776.295	3463.49
776.481	3520.06
776.667	3492.94
776.853	3443.34
777.04	3478.21
777.226	3485.96
777.412	3534.4
777.598	3393.74
777.784	3408.47
777.97	3421.64
778.156	3450.12
778.342	3406.72
778.528	3387.54
778.715	3350.73
778.901	3313.14
779.087	3386.57
779.272	3375.92
779.458	3336.97
779.644	3329.61
779.83	3362.74
780.016	3419.51
780.202	3370.49
780.388	3360.8
780.574	3253.47
780.76	3327.67
780.946	3320.7
781.131	3335.42
781.317	3281.56
781.503	3291.64
781.689	3281.17
781.874	3376.5
782.06	3248.62
782.246	3298.42
782.432	3279.43
782.617	3283.89
782.803	3311.59
782.989	3187.98
783.174	3248.04
783.36	3163.38
783.545	3188.37
783.731	3197.48
783.916	3161.05
784.102	3213.36
784.288	3146.13
784.473	3207.16
784.659	3161.24
784.844	3213.17
785.029	3165.12
785.215	3137.22
785.4	3071.15
785.586	3199.03
785.771	3082.78
785.956	3149.43
786.142	3114.16
786.327	3081.42
786.512	3057.78
786.698	3086.26
786.883	2996.75
787.068	3042.86
787.254	3067.86
787.439	3046.16
787.624	3002.57
787.809	2993.07
787.994	2945.6
788.18	3020.97
788.365	2953.93
788.55	2969.63
788.735	2929.14
788.92	2964.98
789.105	2931.07
789.29	2937.85
789.475	2831.49
789.66	2910.15
789.845	2883.8
790.03	2863.45
790.215	2892.13
790.4	2894.65
790.585	2883.8
790.77	2902.98
790.955	2817.92
791.14	2836.14
791.325	2897.75
791.51	2801.65
791.695	2832.84
791.879	2833.62
792.064	2767.16
792.249	2891.55
792.434	2834.39
792.618	2832.84
792.803	2839.82
792.988	2822.19
793.173	2808.24
793.357	2824.9
793.542	2826.45
793.727	2847.96
793.911	2877.99
794.096	2874.89
794.281	2910.15
794.465	2935.14
794.65	2834.97
794.834	2919.25
795.019	2913.83
795.203	2916.54
795.388	2924.1
795.572	2913.44
795.757	2929.52
795.941	2925.26
796.126	2878.95
796.31	2792.35
796.494	2865.39
796.679	2879.15
796.863	2853.19
797.048	2933.4
797.232	2865.97
797.416	2891.16
797.601	2850.67
797.785	2930.3
797.969	2934.75
798.153	2851.44
798.338	2901.24
798.522	2950.83
798.706	2914.99
798.89	2963.62
799.074	3025.82
799.258	2984.93
799.443	2902.79
799.627	2892.52
799.811	2979.51
799.995	2922.74
800.179	2886.7
800.363	2899.49
800.547	2920.22
800.731	2942.7
800.915	2796.42
801.099	2817.15
801.283	2858.8
801.467	2898.33
801.651	2846.99
801.835	2953.74
802.019	2881.09
802.202	2908.4
802.386	2852.61
802.57	2822.57
802.754	2858.8
802.938	2809.98
803.121	2848.15
803.305	2925.65
803.489	2864.23
803.673	2889.8
803.856	2904.14
804.04	2866.75
804.224	2901.04
804.407	2883.02
804.591	2852.02
804.775	2897.36
804.958	2907.63
805.142	2919.64
805.326	2863.26
805.509	2910.34
805.693	2950.25
805.876	2910.34
806.06	2921.39
806.243	2966.72
806.427	2963.43
806.61	2957.23
806.794	2846.02
806.977	2935.53
807.16	2888.25
807.344	2928.75
807.527	2906.08
807.71	2882.25
807.894	2898.52
808.077	2916.74
808.26	2857.25
808.444	2821.8
808.627	2930.88
808.81	2867.52
808.993	2786.92
809.177	2835.75
809.36	2806.88
809.543	2816.18
809.726	2729.77
809.909	2742.75
810.092	2717.56
810.276	2709.04
810.459	2707.68
810.642	2685.79
810.825	2664.86
811.008	2642.58
811.191	2574.38
811.374	2574.19
811.557	2583.3
811.74	2662.15
811.923	2549.97
812.106	2499.4
812.289	2449.03
812.472	2490.69
812.654	2480.03
812.837	2410.28
813.02	2386.84
813.203	2383.93
813.386	2239.78
813.569	2223.51
813.751	2177.01
813.934	2202.2
814.117	2186.31
814.3	2109.58
814.482	2061.15
814.665	2022.2
814.848	1974.16
815.03	1923.01
815.213	1932.89
815.396	1922.62
815.578	1893.17
815.761	1853.06
815.943	1910.41
816.126	1815.09
816.309	1799.01
816.491	1722.67
816.674	1664.55
816.856	1697.1
817.039	1735.85
817.221	1768.4
817.403	1748.63
817.586	1724.03
817.768	1744.37
817.951	1650.6
818.133	1666.1
818.315	1687.8
818.498	1750.96
818.68	1801.53
818.862	1754.64
819.045	1802.3
819.227	1782.15
819.409	1761.81
819.591	1792.81
819.774	1766.07
819.956	1738.75
820.138	1803.85
820.32	1810.83
820.502	1876.31
820.684	1985.59
820.866	1958.27
821.048	1995.08
821.231	2036.15
821.413	2014.07
821.595	1997.6
821.777	2026.85
821.959	1993.53
822.141	2065.02
822.323	1948.97
822.505	1813.34
822.686	1793.39
822.868	1716.67
823.05	1610.1
823.232	1554.89
823.414	1479.52
823.596	1574.07
823.778	1589.57
823.96	1601.58
824.141	1587.63
824.323	1635.68
824.505	1741.27
824.687	1756.77
824.868	1820.9
825.05	1937.92
825.232	1931.34
825.413	2029.57
825.595	1965.82
825.777	1902.08
825.958	1969.89
826.14	1931.53
826.321	1983.45
826.503	1970.28
826.685	1980.74
826.866	2034.41
827.048	2012.71
827.229	1918.55
827.411	1897.04
827.592	1837.76
827.773	1822.06
827.955	1787.77
828.136	1776.92
828.318	1763.75
828.499	1780.99
828.68	1728.29
828.862	1756
829.043	1760.84
829.224	1721.31
829.406	1706.2
829.587	1772.27
829.768	1704.27
829.949	1778.08
830.131	1745.34
830.312	1778.08
830.493	1790.87
830.674	1781.57
830.855	1749.99
831.036	1768.59
831.218	1790.29
831.399	1860.43
831.58	1796.1
831.761	1778.08
831.942	1780.41
832.123	1769.17
832.304	1713.95
832.485	1724.8
832.666	1774.01
832.847	1764.91
833.028	1766.85
833.209	1754.45
833.389	1738.36
833.57	1706.59
833.751	1759.1
833.932	1781.38
834.113	1768.98
834.294	1760.45
834.475	1786.61
834.655	1836.4
834.836	1817.03
835.017	1801.14
835.198	1780.21
835.378	1789.32
835.559	1864.11
835.74	1821.29
835.92	1818.96
836.101	1798.04
836.281	1818.19
836.462	1824.39
836.643	1865.46
836.823	1875.93
837.004	1856.16
837.184	1900.72
837.365	1874.38
837.545	1889.88
837.726	1821.48
837.906	1890.84
838.087	1882.32
838.267	1846.48
838.448	1844.93
838.628	1835.04
838.808	1846.28
838.989	1893.75
839.169	1834.27
839.349	1877.48
839.53	1913.12
839.71	1895.11
839.89	1848.03
840.07	1889.88
840.251	1837.76
840.431	1901.31
840.611	1867.59
840.791	1841.24
840.971	1852.09
841.151	1827.68
841.332	1818.77
841.512	1861.39
841.692	1822.45
841.872	1840.28
842.052	1829.43
842.232	1882.13
842.412	1824.78
842.592	1847.83
842.772	1843.38
842.952	1837.76
843.132	1826.91
843.312	1799.2
843.492	1833.88
843.672	1838.92
843.851	1784.67
844.031	1779.25
844.211	1793.58
844.391	1790.29
844.571	1802.69
844.751	1788.16
844.93	1796.68
845.11	1787.38
845.29	1838.92
845.47	1833.88
845.649	1772.85
845.829	1832.91
846.009	1755.8
846.188	1819.16
846.368	1828.07
846.547	1813.93
846.727	1769.56
846.907	1741.08
847.086	1810.63
847.266	1838.53
847.445	1797.07
847.625	1770.33
847.804	1758.9
847.984	1760.26
848.163	1732.75
848.343	1758.9
848.522	1786.03
848.701	1769.17
848.881	1718.22
849.06	1755.41
849.239	1756
849.419	1700.2
849.598	1686.44
849.777	1660.09
849.957	1659.7
850.136	1598.09
850.315	1594.99
850.494	1586.66
850.674	1594.41
850.853	1660.48
851.032	1617.08
851.211	1671.91
851.39	1596.54
851.569	1586.66
851.748	1617.85
851.927	1660.28
852.107	1605.26
852.286	1585.5
852.465	1538.03
852.644	1662.22
852.823	1594.41
853.002	1606.04
853.181	1634.32
853.359	1607.78
853.538	1532.41
853.717	1605.45
853.896	1510.52
854.075	1432.83
854.254	1399.5
854.433	1379.16
854.611	1408.99
854.79	1371.21
854.969	1426.43
855.148	1430.89
855.327	1421.2
855.505	1455.11
855.684	1416.36
855.863	1489.98
856.041	1464.99
856.22	1486.49
856.399	1470.99
856.577	1603.71
856.756	1554.11
856.934	1628.32
857.113	1661.83
857.291	1567.09
857.47	1534.74
857.648	1562.05
857.827	1539.77
858.005	1602.55
858.184	1524.47
858.362	1623.47
858.541	1547.72
858.719	1521.17
858.898	1568.84
859.076	1543.46
859.254	1583.95
859.433	1516.14
859.611	1513.23
859.789	1516.72
859.967	1555.47
860.146	1573.87
860.324	1464.21
860.502	1530.86
860.68	1474.09
860.859	1491.34
861.037	1494.44
861.215	1492.69
861.393	1514.78
861.571	1484.94
861.749	1478.74
861.927	1523.89
862.105	1482.81
862.283	1485.14
862.461	1489.59
862.639	1434.96
862.817	1470.02
862.995	1508.77
863.173	1482.81
863.351	1495.21
863.529	1469.25
863.707	1486.88
863.885	1474.48
864.063	1418.68
864.241	1446.97
864.418	1474.09
864.596	1421.39
864.774	1395.63
864.952	1432.83
865.129	1435.93
865.307	1378.77
865.485	1334.6
865.663	1425.46
865.84	1337.31
866.018	1349.32
866.196	1245.47
866.373	1268.72
866.551	1203.62
866.728	1160.03
866.906	1209.05
867.084	1288.1
867.261	1265.82
867.439	1275.5
867.616	1308.63
867.794	1294.68
867.971	1312.12
868.149	1339.05
868.326	1352.61
868.503	1341.76
868.681	1367.15
868.858	1313.28
869.035	1303.98
869.213	1362.5
869.39	1343.51
869.567	1396.79
869.745	1329.36
869.922	1297.2
870.099	1352.81
870.276	1358.81
870.454	1335.18
870.631	1337.31
870.808	1296.04
870.985	1343.31
871.162	1352.61
871.339	1336.15
871.517	1253.03
871.694	1263.68
871.871	1332.27
872.048	1310.18
872.225	1299.33
872.402	1275.7
872.579	1250.9
872.756	1312.51
872.933	1253.22
873.11	1285.58
873.287	1296.43
873.463	1249.73
873.64	1222.22
873.817	1277.63
873.994	1258.65
874.171	1224.35
874.348	1283.64
874.524	1224.74
874.701	1214.67
874.878	1203.82
875.055	1253.22
875.231	1200.52
875.408	1254.58
875.585	1192.39
875.762	1203.82
875.938	1224.55
876.115	1196.07
876.291	1189.48
876.468	1182.12
876.645	1174.37
876.821	1208.47
876.998	1197.03
877.174	1212.53
877.351	1163.13
877.527	1162.16
877.704	1175.72
877.88	1164.29
878.057	1149.37
878.233	1207.5
878.409	1143.17
878.586	1189.87
878.762	1161.19
878.938	1182.31
879.115	1097.45
879.291	1178.63
879.467	1089.12
879.644	1137.36
879.82	1160.22
879.996	1132.71
880.172	1065.09
880.349	1105.97
880.525	1140.65
880.701	1091.83
880.877	1078.07
881.053	1109.46
881.229	1122.44
881.405	1145.3
881.581	1082.14
881.757	1114.3
881.933	1140.27
882.109	1133.29
882.285	1113.34
882.461	1070.32
882.637	1119.92
882.813	1105.78
882.989	1112.17
883.165	1127.87
883.341	1116.44
883.517	1122.05
883.693	1111.01
883.869	1136.2
884.044	1067.22
884.22	1134.07
884.396	1157.9
884.572	1100.74
884.747	1132.9
884.923	1121.86
885.099	1116.24
885.275	1108.3
885.45	1083.5
885.626	1085.63
885.801	1066.64
885.977	1060.83
886.153	1014.91
886.328	1125.74
886.504	1062.57
886.679	1100.55
886.855	1051.92
887.03	1101.32
887.206	1102.49
887.381	1101.32
887.557	1131.16
887.732	1106.17
887.908	1138.52
888.083	1112.95
888.258	1095.71
888.434	1085.82
888.609	1081.76
888.784	1154.22
888.96	1055.41
889.135	1087.37
889.31	1056.96
889.485	1104.62
889.661	1107.91
889.836	1106.36
890.011	1083.11
890.186	1078.07
890.361	1093.19
890.537	1115.08
890.712	1137.75
890.887	1113.53
891.062	1096.87
891.237	1137.75
891.412	1050.37
891.587	1091.64
891.762	1110.43
891.937	1099.58
892.112	1024.41
892.287	1043.01
892.462	1048.24
892.637	1006.19
892.812	998.64
892.987	998.25
893.161	1002.71
893.336	1010.07
893.511	1007.74
893.686	1011.04
893.861	969.19
894.035	972.87
894.21	979.07
894.385	899.44
894.56	937.99
894.734	918.43
894.909	897.31
895.084	903.12
895.258	881.42
895.433	878.51
895.608	863.01
895.782	810.9
895.957	844.42
896.131	815.93
896.306	762.65
896.48	739.21
896.655	763.04
896.829	702.79
897.004	715.96
897.178	709.95
897.353	704.14
897.527	735.53
897.701	724.68
897.876	676.05
898.05	744.83
898.224	759.36
898.399	734.56
898.573	707.24
898.747	611.53
898.921	622.19
899.096	551.47
899.27	589.83
899.444	592.16
899.618	640.4
899.792	635.75
899.967	630.13
900.141	643.69
900.315	613.47
900.489	582.47
900.663	615.41
900.837	612.89
901.011	584.99
901.185	657.26
901.359	611.14
901.533	584.21
901.707	616.57
901.881	648.15
902.055	589.83
902.229	589.25
902.403	655.51
902.576	642.53
902.75	631.87
902.924	731.07
903.098	678.37
903.272	723.52
903.446	773.89
903.619	767.3
903.793	799.27
903.967	766.53
904.14	802.95
904.314	810.9
904.488	774.47
904.661	801.79
904.835	779.7
905.009	818.26
905.182	858.75
905.356	831.05
905.529	784.16
905.703	810.7
905.876	759.55
906.05	740.95
906.223	695.81
906.397	648.54
906.57	622.19
906.744	628.77
906.917	604.17
907.09	608.43
907.264	630.13
907.437	580.53
907.61	555.73
907.784	566.78
907.957	595.84
908.13	555.93
908.304	582.47
908.477	528.03
908.65	556.12
908.823	533.45
908.996	574.53
909.17	516.21
909.343	524.93
909.516	534.61
909.689	558.83
909.862	507.68
910.035	538.68
910.208	479.78
910.381	490.63
910.554	616.37
910.727	549.92
910.9	510.01
911.073	522.02
911.246	600.49
911.419	585.37
911.592	571.23
911.765	532.48
911.938	501.48
912.11	542.56
912.283	539.65
912.456	582.86
912.629	523.18
912.802	504.39
912.974	457.11
913.147	444.33
913.32	402.09
913.493	412.94
913.665	472.81
913.838	468.16
914.01	475.71
914.183	489.66
914.356	444.52
914.528	505.94
914.701	539.65
914.873	506.91
915.046	468.16
915.218	418.17
915.391	375.35
915.563	387.56
915.736	409.65
915.908	485.01
916.081	512.72
916.253	435.41
916.425	479.98
916.598	471.45
916.77	461.96
916.942	437.16
917.115	356.75
917.287	458.28
917.459	422.05
917.632	399.57
917.804	335.44
917.976	439.1
918.148	437.74
918.32	446.65
918.493	463.31
918.665	473
918.837	471.26
919.009	497.99
919.181	533.64
919.353	510.2
919.525	480.36
919.697	469.9
919.869	497.03
920.041	535.19
920.213	604.75
920.385	517.76
920.557	517.37
920.729	542.56
920.901	535
921.073	503.03
921.244	485.01
921.416	524.73
921.588	479.2
921.76	483.08
921.932	534.81
922.103	490.44
922.275	485.21
922.447	514.46
922.619	435.61
922.79	474.75
922.962	468.93
923.134	487.15
923.305	434.83
923.477	419.33
923.648	433.48
923.82	448.78
923.991	388.14
924.163	385.62
924.335	428.83
924.506	401.12
924.677	453.82
924.849	401.7
925.02	424.76
925.192	444.52
925.363	426.31
925.535	433.86
925.706	439.29
925.877	481.91
926.049	399.57
926.22	461.96
926.391	444.91
926.562	459.44
926.734	394.15
926.905	452.08
927.076	360.24
927.247	378.84
927.419	337.96
927.59	333.5
927.761	343.38
927.932	324.01
928.103	326.33
928.274	293.01
928.445	288.94
928.616	305.22
928.787	304.05
928.958	296.3
929.129	286.42
929.3	265.11
929.471	234.89
929.642	197.69
929.813	167.07
929.984	250
930.155	154.29
930.326	222.1
930.496	178.51
930.667	148.86
930.838	157.97
931.009	152.35
931.18	153.12
931.35	132.78
931.521	163.97
931.692	103.33
931.863	72.53
932.033	123.87
932.204	125.23
932.374	127.94
932.545	81.44
932.716	125.03
932.886	116.31
933.057	34.55
933.227	72.14
933.398	137.43
933.568	64.58
933.739	29.32
933.909	49.47
934.08	77.37
934.25	7.04
934.421	21.96
934.591	66.71
934.761	38.04
934.932	27.77
935.102	62.26
935.272	39.01
935.443	19.44
935.613	24.09
935.783	35.33
935.953	0.45
936.123	158.36
936.294	20.6
936.464	18.66
936.634	52.57
936.804	5.68
936.974	14.4
937.144	57.8
937.314	69.81
937.484	-3.81
937.655	21.96
937.825	54.51
937.995	18.28
938.165	77.76
938.334	55.48
938.504	63.42
938.674	55.67
938.844	52.38
939.014	106.24
939.184	92.29
939.354	126
939.524	117.48
939.694	80.86
939.863	75.24
940.033	130.07
940.203	141.69
940.373	119.61
940.542	120.96
940.712	81.63
940.882	117.48
941.051	136.46
941.221	98.68
941.391	105.46
941.56	69.04
941.73	60.71
941.899	177.73
942.069	95.78
942.238	111.66
942.408	99.84
942.577	108.76
942.747	44.24
942.916	38.81
943.086	68.07
943.255	101.01
943.425	70.59
943.594	67.29
943.763	-1.87
943.933	58
944.102	20.21
944.271	82.6
944.441	78.92
944.61	46.18
944.779	74.27
944.948	143.63
945.117	43.27
945.287	8.01
945.456	19.25
945.625	52.38
945.794	82.02
945.963	40.36
946.132	87.83
946.301	56.25
946.47	95.19
946.639	7.04
946.808	33.97
946.977	69.81
947.146	115.34
947.315	69.62
947.484	103.91
947.653	55.48
947.822	41.91
947.991	58.77
948.16	142.08
948.329	113.41
948.498	75.63
948.666	91.71
948.835	98.1
949.004	12.66
949.173	39.01
949.341	99.65
949.51	72.33
949.679	92.29
949.847	70.59
950.016	116.31
950.185	105.08
950.353	48.5
950.522	62.06
950.69	106.63
950.859	56.64
951.028	94.03
951.196	76.98
951.365	36.49
951.533	59.35
951.701	62.45
951.87	89.58
952.038	17.11
952.207	49.66
952.375	106.82
952.543	49.28
952.712	74.46
952.88	44.82
953.048	112.63
953.217	79.69
953.385	58.58
953.553	123.48
953.721	19.83
953.89	73.88
954.058	25.06
954.226	67.29
954.394	78.92
954.562	16.15
954.73	70.2
954.898	49.66
955.067	93.26
955.235	43.46
955.403	93.84
955.571	118.83
955.739	70.78
955.907	17.31
956.075	43.46
956.243	16.92
956.41	80.08
956.578	27.38
956.746	48.89
956.914	39.98
957.082	70.2
957.25	85.51
957.418	31.45
957.585	86.86
957.753	119.22
957.921	41.14
958.089	57.22
958.256	82.79
958.424	72.91
958.592	73.3
958.759	58.38
958.927	76.59
959.095	18.86
959.262	63.81
959.43	72.14
959.597	34.55
959.765	97.71
959.932	12.66
960.1	103.72
960.267	60.9
960.435	106.63
960.602	94.61
960.77	70.98
960.937	39.59
961.104	86.67
961.272	28.93
961.439	54.51
961.606	76.98
961.774	88.41
961.941	69.23
962.108	71.56
962.275	94.61
962.443	118.83
962.61	106.24
962.777	128.71
962.944	99.46
963.111	90.74
963.278	109.34
963.446	107.4
963.613	89.96
963.78	111.28
963.947	108.37
964.114	119.03
964.281	138.79
964.448	109.14
964.615	76.21
964.782	129.88
964.949	90.35
965.116	89.58
965.282	138.59
965.449	58.58
965.616	59.16
965.783	118.44
965.95	81.24
966.117	66.52
966.283	108.18
966.45	90.54
966.617	64.19
966.784	126.19
966.95	113.02
967.117	118.25
967.284	71.56
967.45	73.49
967.617	151.19
967.784	108.76
967.95	163.39
968.117	98.29
968.283	146.54
968.45	194.39
968.616	124.45
968.783	160.49
968.949	95
969.116	153.32
969.282	114.76
969.449	127.36
969.615	127.16
969.781	95.19
969.948	91.13
970.114	88.61
970.28	135.88
970.447	99.65
970.613	162.62
970.779	126
970.945	117.28
971.112	118.83
971.278	137.82
971.444	119.22
971.61	137.82
971.776	72.14
971.942	129.1
972.108	123.48
972.275	104.3
972.441	139.37
972.607	158.55
972.773	93.06
972.939	137.04
973.105	119.8
973.271	72.14
973.437	74.46
973.602	85.31
973.768	99.26
973.934	83.96
974.1	119.99
974.266	31.65
974.432	107.01
974.598	85.31
974.763	125.03
974.929	93.84
975.095	147.12
975.261	77.37
975.426	64.39
975.592	83.38
975.758	162.23
975.923	56.06
976.089	85.31
976.255	133.75
976.42	114.57
976.586	121.54
976.751	116.51
976.917	191.29
977.082	122.13
977.248	65.36
977.413	43.66
977.579	85.7
977.744	109.73
977.91	83.38
978.075	83.76
978.24	106.63
978.406	100.62
978.571	78.92
978.736	63.23
978.902	100.62
979.067	41.33
979.232	33
979.397	100.62
979.563	124.06
979.728	75.82
979.893	92.29
980.058	85.12
980.223	143.44
980.388	103.53
980.554	113.79
980.719	67.49
980.884	114.18
981.049	127.36
981.214	82.79
981.379	120.96
981.544	95.39
981.709	81.63
981.874	53.35
982.039	93.84
982.204	129.88
982.368	106.04
982.533	65.74
982.698	116.51
982.863	127.74
983.028	82.02
983.193	100.81
983.357	96.16
983.522	114.76
983.687	80.28
983.852	76.4
984.016	67.29
984.181	91.32
984.346	95.58
984.51	139.95
984.675	76.98
984.839	107.4
985.004	103.53
985.168	132.2
985.333	126.58
985.498	89.58
985.662	114.18
985.827	111.28
985.991	95.58
986.155	86.48
986.32	136.85
986.484	150.99
986.649	107.59
986.813	41.91
986.977	93.84
987.142	113.21
987.306	61.09
987.47	87.83
987.634	94.61
987.799	98.49
987.963	121.35
988.127	107.79
988.291	161.07
988.455	105.85
988.62	73.88
988.784	102.36
988.948	111.28
989.112	72.72
989.276	85.31
989.44	100.81
989.604	76.01
989.768	96.94
989.932	159.52
990.096	39.01
990.26	56.25
990.424	37.85
990.588	83.38
990.752	147.7
990.915	117.86
991.079	74.08
991.243	83.96
991.407	91.51
991.571	88.8
991.734	108.76
991.898	117.09
992.062	145.96
992.226	77.56
992.389	57.8
992.553	40.17
992.717	85.51
992.88	76.98
993.044	94.42
993.207	93.84
993.371	97.52
993.535	89.58
993.698	79.11
993.862	95.97
994.025	117.67
994.189	122.51
994.352	95.97
994.515	108.56
994.679	127.74
994.842	86.09
995.006	106.04
995.169	59.54
995.332	55.28
995.496	99.84
995.659	25.25
995.822	78.73
995.985	83.57
996.149	136.27
996.312	60.51
996.475	145.38
996.638	51.8
996.801	113.99
996.964	132.01
997.128	63.61
997.291	75.04
997.454	87.06
997.617	52.76
997.78	128.52
997.943	45.98
998.106	109.34
998.269	60.13
998.432	60.9
998.595	68.65
998.758	37.07
998.92	26.41
999.083	32.42
999.246	82.99
999.409	31.84
999.572	16.15
999.735	65.94
999.897	94.81
1000.06	68.26
1000.223	53.35
1000.386	109.53
1000.548	83.76
1000.711	87.64
1000.874	77.95
1001.036	17.31
1001.199	92.87
1001.361	37.46
1001.524	58.38
1001.687	112.63
1001.849	15.95
1002.012	62.06
1002.174	68.84
1002.337	77.95
1002.499	56.45
1002.661	104.69
1002.824	26.41
1002.986	39.4
1003.149	77.37
1003.311	35.91
1003.473	116.7
1003.636	38.04
1003.798	107.01
1003.96	73.88
1004.123	43.27
1004.285	44.63
1004.447	61.29
1004.609	60.51
1004.771	79.11
1004.933	12.85
1005.096	40.95
1005.258	9.95
1005.42	48.89
1005.582	114.76
1005.744	69.23
1005.906	22.73
1006.068	55.48
1006.23	21.38
1006.392	14.6
1006.554	27.77
1006.716	86.48
1006.878	53.15
1007.04	15.18
1007.202	28.35
1007.363	43.46
1007.525	55.48
1007.687	59.74
1007.849	83.18
1008.011	-2.26
1008.172	13.63
1008.334	23.9
1008.496	46.76
1008.658	-3.42
1008.819	33.78
1008.981	14.21
1009.143	20.21
1009.304	24.28
1009.466	74.46
1009.627	78.14
1009.789	147.31
1009.95	35.13
1010.112	43.08
1010.273	74.66
1010.435	34.16
1010.596	30.29
1010.758	10.72
1010.919	22.35
1011.081	-1.29
1011.242	40.95
1011.403	58.96
1011.565	40.17
1011.726	85.12
1011.887	26.61
1012.049	48.89
1012.21	61.09
1012.371	98.49
1012.532	-12.92
1012.693	61.48
1012.855	16.34
1013.016	50.44
1013.177	89.96
1013.338	25.25
1013.499	90.35
1013.66	79.89
1013.821	55.09
1013.982	33.78
1014.143	68.46
1014.304	8.4
1014.465	30.68
1014.626	57.03
1014.787	33.58
1014.948	99.26
1015.109	-17.57
1015.27	77.37
1015.431	35.33
1015.592	24.09
1015.752	82.79
1015.913	31.06
1016.074	50.44
1016.235	62.26
1016.395	40.56
1016.556	27.19
1016.717	19.05
1016.877	57.61
1017.038	9.56
1017.199	50.25
1017.359	50.25
1017.52	51.41
1017.681	9.75
1017.841	19.83
1018.002	36.68
1018.162	32.23
1018.323	71.17
1018.483	9.56
1018.644	23.31
1018.804	-8.65
1018.964	-5.55
1019.125	57.41
1019.285	34.36
1019.446	-8.27
1019.606	6.85
1019.766	-29.97
1019.926	42.69
1020.087	20.02
1020.247	-3.42
1020.407	49.08
1020.567	76.01
1020.728	20.99
1020.888	3.75
1021.048	-5.17
1021.208	15.95
1021.368	12.85
1021.528	73.88
1021.688	71.94
1021.848	43.46
1022.008	15.76
1022.168	29.32
1022.328	22.35
1022.488	58.77
1022.648	14.98
1022.808	29.32
1022.968	20.8
1023.128	-3.81
1023.288	2.2
1023.448	23.31
1023.608	48.7
1023.767	43.08
1023.927	11.3
1024.087	-3.42
1024.247	-9.43
1024.406	10.72
1024.566	-21.64
1024.726	-5.55
1024.885	36.88
1025.045	60.32
1025.205	59.74
1025.364	-2.84
1025.524	47.15
1025.683	15.37
1025.843	25.64
1026.003	33.58
1026.162	86.28
1026.321	54.9
1026.481	25.45
1026.64	10.53
1026.8	16.53
1026.959	20.21
1027.119	25.25
1027.278	12.46
1027.437	-4
1027.597	25.64
1027.756	24.48
1027.915	46.95
1028.074	36.68
1028.234	-2.84
1028.393	49.66
1028.552	-6.14
1028.711	-22.02
1028.87	49.66
1029.03	-17.18
1029.189	21.38
1029.348	-26.67
1029.507	24.67
1029.666	19.63
1029.825	-23.57
1029.984	-15.24
1030.143	31.45
1030.302	1.42
1030.461	-46.82
1030.62	0.65
1030.779	43.85
1030.938	1.23
1031.097	-8.65
1031.255	33.97
1031.414	55.09
1031.573	54.31
1031.732	-24.35
1031.891	8.01
1032.049	43.08
1032.208	36.49
1032.367	-5.55
1032.525	15.95
1032.684	14.6
1032.843	32.42
1033.001	-26.09
1033.16	136.46
1033.319	56.83
1033.477	29.32
1033.636	-33.65
1033.794	-11.17
1033.953	54.7
1034.111	54.31
1034.27	0.45
1034.428	39.01
1034.587	-22.6
1034.745	1.23
1034.903	27.38
1035.062	36.88
1035.22	-25.12
1035.378	48.5
1035.537	-26.87
1035.695	50.63
1035.853	25.06
1036.011	23.12
1036.17	32.23
1036.328	-28.03
1036.486	26.03
1036.644	6.65
1036.802	-74.53
1036.96	4.52
1037.119	28.93
1037.277	-12.72
1037.435	-29.77
1037.593	-34.62
1037.751	-7.49
1037.909	32.23
1038.067	32.23
