Data from gum_young_FLMT105791__121__17-40-49-040.txt Node

Date: Mon Mar 20 17:40:49 GMT 2023
User: antho
Spectrometer: FLMT10579
Trigger mode: 0
Integration Time (sec): 1.000000E-1
Scans to average: 10
Electric dark correction enabled: true
Nonlinearity correction enabled: false
Boxcar width: 0
XAxis mode: Wavelengths
Number of Pixels in Spectrum: 3648
>>>>>Begin Spectral Data<<<<<
345.248	-150.51
345.464	-150.51
345.681	-150.51
345.898	-151.87
346.114	-120.09
346.331	-33.1
346.548	15.92
346.764	-5.78
346.981	4.29
347.197	-5.01
347.414	4.1
347.631	-10.82
347.847	38.2
348.064	-25.74
348.28	43.24
348.497	-38.72
348.713	13.4
348.93	27.35
349.146	32.58
349.363	-6.36
349.579	25.8
349.796	11.66
350.012	-21.28
350.229	14.95
350.445	18.05
350.661	4.68
350.878	21.93
351.094	37.23
351.311	27.93
351.527	46.53
351.743	7.98
351.96	38.78
352.176	30.45
352.392	18.63
352.609	30.06
352.825	26.77
353.041	15.73
353.257	22.31
353.474	27.16
353.69	30.26
353.906	30.64
354.122	-9.27
354.339	51.96
354.555	18.63
354.771	19.21
354.987	55.06
355.203	64.16
355.42	-2.68
355.636	-3.84
355.852	-11.01
356.068	29.09
356.284	0.61
356.5	44.01
356.716	36.07
356.932	-1.71
357.148	59.51
357.364	9.53
357.58	25.41
357.796	54.09
358.012	29.87
358.228	24.44
358.444	-42.79
358.66	57.58
358.876	27.16
359.092	6.62
359.308	27.93
359.524	28.13
359.74	13.98
359.956	-21.86
360.172	23.86
360.388	45.76
360.604	3.13
360.819	85.67
361.035	38.59
361.251	62.42
361.467	5.07
361.683	67.46
361.898	20.96
362.114	39.36
362.33	28.71
362.546	51.57
362.762	29.29
362.977	32.39
363.193	-19.34
363.409	70.36
363.624	7.01
363.84	9.14
364.056	18.44
364.271	57.96
364.487	12.43
364.703	-2.87
364.918	-20.5
365.134	25.99
365.35	25.03
365.565	113.37
365.781	45.18
365.996	49.24
366.212	64.36
366.427	53.31
366.643	0.81
366.858	22.7
367.074	7.01
367.289	56.61
367.505	134.11
367.72	-13.34
367.936	9.33
368.151	72.88
368.367	26.19
368.582	29.29
368.798	8.17
369.013	61.06
369.228	21.54
369.444	46.92
369.659	65.71
369.874	45.76
370.09	67.07
370.305	-48.99
370.52	18.05
370.736	61.06
370.951	19.99
371.166	60.87
371.381	76.76
371.597	71.53
371.812	18.44
372.027	-3.84
372.242	32.78
372.458	114.92
372.673	36.84
372.888	34.13
373.103	68.23
373.318	108.72
373.533	54.28
373.749	28.32
373.964	-17.79
374.179	86.83
374.394	-3.07
374.609	66.49
374.824	5.46
375.039	68.23
375.254	7.59
375.469	63
375.684	27.93
375.899	89.74
376.114	33.16
376.329	56.22
376.544	66.88
376.759	50.79
376.974	1.19
377.189	31.03
377.404	12.43
377.619	100.97
377.834	-0.55
378.049	-6.75
378.264	10.49
378.478	37.62
378.693	28.51
378.908	35.68
379.123	29.48
379.338	61.84
379.553	30.26
379.767	38.78
379.982	47.69
380.197	64.55
380.412	43.43
380.626	53.89
380.841	92.64
381.056	59.71
381.271	77.92
381.485	13.4
381.7	6.23
381.915	38.2
382.129	20.57
382.344	76.56
382.559	18.83
382.773	88.19
382.988	-11.4
383.202	37.43
383.417	6.23
383.632	119.77
383.846	9.33
384.061	26.38
384.275	25.61
384.49	66.68
384.704	39.75
384.919	46.34
385.133	51.18
385.348	65.52
385.562	35.49
385.777	58.16
385.991	29.48
386.206	11.85
386.42	63.97
386.634	69.2
386.849	32.78
387.063	56.8
387.277	2.36
387.492	26.58
387.706	24.44
387.92	9.33
388.135	62.23
388.349	58.74
388.563	39.36
388.778	38.78
388.992	72.49
389.206	75.21
389.42	95.55
389.635	35.88
389.849	81.02
390.063	85.09
390.277	68.62
390.491	113.57
390.706	59.32
390.92	81.41
391.134	52.73
391.348	78.11
391.562	30.26
391.776	59.51
391.99	16.11
392.205	70.94
392.419	28.51
392.633	49.63
392.847	113.18
393.061	25.8
393.275	71.91
393.489	67.65
393.703	80.05
393.917	81.99
394.131	39.36
394.345	45.18
394.559	94.58
394.773	43.43
394.986	61.06
395.2	67.84
395.414	104.46
395.628	51.96
395.842	62.81
396.056	59.9
396.27	8.94
396.484	61.84
396.697	64.36
396.911	97.68
397.125	83.73
397.339	80.44
397.553	56.99
397.766	118.99
397.98	107.56
398.194	94
398.408	58.93
398.621	92.64
398.835	104.66
399.049	100.78
399.262	116.09
399.476	100.97
399.69	114.34
399.903	154.64
400.117	71.14
400.331	124.22
400.544	98.07
400.758	195.72
400.971	98.07
401.185	108.34
401.398	70.75
401.612	146.51
401.826	104.46
402.039	112.99
402.253	69.01
402.466	144.96
402.68	75.21
402.893	117.25
403.106	93.42
403.32	116.47
403.533	130.42
403.747	117.06
403.96	107.95
404.174	121.9
404.387	74.04
404.6	112.21
404.814	128.68
405.027	126.55
405.24	104.27
405.454	102.14
405.667	164.52
405.88	64.16
406.094	120.74
406.307	129.84
406.52	137.59
406.733	94.58
406.947	62.03
407.16	178.47
407.373	142.82
407.586	81.6
407.799	81.41
408.012	125.39
408.226	115.51
408.439	158.13
408.652	65.91
408.865	114.73
409.078	177.89
409.291	132.17
409.504	92.84
409.717	143.99
409.93	131.2
410.143	114.54
410.357	58.16
410.57	106.79
410.783	115.51
410.996	140.89
411.209	109.89
411.421	175.37
411.634	149.22
411.847	117.64
412.06	108.72
412.273	144.37
412.486	142.44
412.699	201.92
412.912	120.74
413.125	176.73
413.338	132.75
413.55	180.99
413.763	120.93
413.976	161.23
414.189	112.99
414.402	129.26
414.615	188.55
414.827	105.04
415.04	181.19
415.253	144.96
415.466	174.6
415.678	194.75
415.891	140.69
416.104	152.12
416.316	126.55
416.529	160.84
416.742	169.75
416.954	188.94
417.167	158.13
417.38	120.35
417.592	168.59
417.805	120.74
418.017	123.84
418.23	181.57
418.442	134.88
418.655	178.47
418.868	154.45
419.08	169.17
419.293	208.31
419.505	183.12
419.718	173.24
419.93	180.02
420.142	125
420.355	204.24
420.567	197.27
420.78	193.78
420.992	159.68
421.205	219.74
421.417	155.22
421.629	170.92
421.842	146.12
422.054	122.67
422.266	178.86
422.479	216.45
422.691	152.32
422.903	199.4
423.115	154.45
423.328	120.93
423.54	158.52
423.752	159.1
423.964	158.52
424.177	206.95
424.389	147.86
424.601	247.25
424.813	176.73
425.025	186.03
425.238	229.24
425.45	162.2
425.662	178.67
425.874	444.1
426.086	175.37
426.298	201.53
426.51	191.84
426.722	187.97
426.934	185.45
427.146	218
427.358	141.66
427.57	230.98
427.782	193.78
427.994	184.09
428.206	175.76
428.418	156.19
428.63	196.88
428.842	217.8
429.054	217.42
429.266	201.92
429.478	160.45
429.69	176.92
429.902	146.7
430.114	181.96
430.325	184.87
430.537	149.8
430.749	148.44
430.961	124.42
431.173	149.22
431.384	192.81
431.596	115.31
431.808	162.2
432.02	219.16
432.231	191.65
432.443	257.91
432.655	220.32
432.867	205.6
433.078	200.37
433.29	277.09
433.502	249.38
433.713	246.48
433.925	233.69
434.136	242.99
434.348	202.89
434.56	149.8
434.771	289.68
434.983	174.21
435.194	195.33
435.406	205.99
435.617	251.13
435.829	240.86
436.04	262.56
436.252	237.37
436.463	265.27
436.675	253.84
436.886	245.7
437.098	261.2
437.309	319.72
437.521	234.47
437.732	247.06
437.943	238.15
438.155	215.48
438.366	202.69
438.578	287.94
438.789	269.92
439	256.75
439.211	236.21
439.423	265.27
439.634	246.09
439.845	256.36
440.057	267.79
440.268	272.25
440.479	247.45
440.69	279.03
440.902	243.19
441.113	255
441.324	247.06
441.535	273.8
441.746	306.35
441.957	219.35
442.168	246.87
442.38	290.07
442.591	305.57
442.802	271.28
443.013	271.86
443.224	309.45
443.435	295.88
443.646	287.75
443.857	278.06
444.068	277.48
444.279	277.67
444.49	361.18
444.701	293.56
444.912	382.3
445.123	311.97
445.334	342.58
445.545	308.48
445.756	295.88
445.967	264.11
446.178	315.07
446.388	325.33
446.599	309.06
446.81	328.05
447.021	287.17
447.232	322.62
447.443	374.35
447.653	312.35
447.864	372.8
448.075	338.9
448.286	349.55
448.496	325.14
448.707	371.83
448.918	327.08
449.129	389.27
449.339	312.16
449.55	349.55
449.761	348.39
449.971	401.28
450.182	344.71
450.393	365.25
450.603	332.7
450.814	394.89
451.024	350.71
451.235	402.64
451.446	389.66
451.656	409.81
451.867	369.31
452.077	382.3
452.288	428.99
452.498	419.11
452.709	369.12
452.919	371.64
453.13	321.65
453.34	395.66
453.55	317.39
453.761	416.78
453.971	375.13
454.182	418.14
454.392	388.88
454.602	437.13
454.813	389.66
455.023	418.33
455.233	351.1
455.444	374.16
455.654	352.07
455.864	389.66
456.075	376.87
456.285	359.05
456.495	387.53
456.705	419.3
456.916	436.54
457.126	433.83
457.336	391.01
457.546	346.06
457.756	388.5
457.967	422.98
458.177	409.61
458.387	408.26
458.597	387.14
458.807	397.99
459.017	415.04
459.227	400.31
459.437	396.25
459.647	437.51
459.857	410.78
460.068	388.69
460.278	436.35
460.488	416.78
460.698	472.78
460.908	427.44
461.117	395.47
461.327	382.68
461.537	447.59
461.747	428.41
461.957	415.43
462.167	530.71
462.377	456.5
462.587	441.19
462.797	461.54
463.007	459.99
463.216	488.86
463.426	500.68
463.636	484.21
463.846	400.31
464.056	406.71
464.265	485.56
464.475	431.7
464.685	449.72
464.895	466.58
465.104	433.06
465.314	460.76
465.524	435.58
465.733	416.2
465.943	521.79
466.153	508.43
466.362	516.56
466.572	468.71
466.782	472.58
466.991	474.13
467.201	510.17
467.41	418.72
467.62	486.34
467.829	477.81
468.039	471.23
468.249	470.26
468.458	468.32
468.668	478.78
468.877	517.53
469.086	530.9
469.296	520.44
469.505	471.61
469.715	559.38
469.924	510.94
470.134	533.61
470.343	531.87
470.552	493.12
470.762	488.66
470.971	468.13
471.18	503.39
471.39	488.47
471.599	494.28
471.808	520.05
472.018	506.1
472.227	563.64
472.436	548.53
472.645	532.64
472.855	535.74
473.064	589.61
473.273	534.58
473.482	590.96
473.691	598.13
473.901	560.93
474.11	538.46
474.319	638.82
474.528	558.61
474.737	622.35
474.946	569.26
475.155	582.05
475.364	604.91
475.573	614.4
475.783	591.16
475.992	611.3
476.201	647.34
476.41	599.49
476.619	547.76
476.828	616.92
477.037	605.49
477.245	598.52
477.454	651.02
477.663	612.27
477.872	628.55
478.081	697.72
478.29	617.31
478.499	715.73
478.708	671.37
478.917	737.43
479.125	649.09
479.334	681.05
479.543	672.14
479.752	662.84
479.961	683.96
480.169	727.17
480.378	680.28
480.587	853.1
480.796	717.67
481.004	725.62
481.213	748.28
481.422	725.62
481.63	747.32
481.839	799.05
482.048	810.67
482.256	783.74
482.465	798.85
482.674	810.86
482.882	817.65
483.091	854.46
483.299	797.11
483.508	803.7
483.716	807.18
483.925	820.36
484.134	790.71
484.342	775.99
484.551	804.28
484.759	824.62
484.967	836.25
485.176	839.54
485.384	832.56
485.593	843.61
485.801	829.08
486.01	780.64
486.218	748.67
486.426	728.52
486.635	726.39
486.843	722.71
487.051	744.6
487.26	722.13
487.468	766.3
487.676	806.6
487.885	797.69
488.093	839.35
488.301	844.77
488.509	836.63
488.717	876.35
488.926	844.58
489.134	885.65
489.342	856.98
489.55	829.85
489.758	871.89
489.967	877.9
490.175	985.82
490.383	916.84
490.591	975.36
490.799	900.96
491.007	961.21
491.215	958.31
491.423	921.88
491.631	940.68
491.839	950.94
492.047	948.04
492.255	900.18
492.463	856.78
492.671	928.28
492.879	960.05
493.087	938.35
493.295	950.36
493.503	957.34
493.711	1005.77
493.919	1009.07
494.127	1023.41
494.334	1030.57
494.542	945.13
494.75	1019.34
494.958	1002.09
495.166	1059.25
495.374	1059.83
495.581	1048.01
495.789	1065.25
495.997	1111.37
496.205	1043.55
496.412	1035.03
496.62	1073.2
496.828	1105.36
497.035	1057.12
497.243	1109.82
497.451	1101.49
497.658	1072.42
497.866	1097.42
498.074	1150.5
498.281	1047.43
498.489	1132.48
498.696	1100.71
498.904	1099.74
499.112	1091.6
499.319	1186.73
499.527	1119.7
499.734	1163.1
499.942	1079.79
500.149	1101.87
500.357	1154.57
500.564	1091.99
500.771	1135.2
500.979	1085.02
501.186	1109.24
501.394	1138.3
501.601	1089.28
501.808	1136.36
502.016	1099.74
502.223	1087.92
502.43	1120.67
502.638	1146.05
502.845	1127.83
503.052	1197.2
503.26	1144.5
503.467	1238.08
503.674	1204.17
503.881	1203.98
504.089	1251.06
504.296	1223.16
504.503	1150.12
504.71	1178.4
504.917	1160.58
505.125	1211.92
505.332	1189.25
505.539	1251.83
505.746	1297.94
505.953	1285.74
506.16	1308.21
506.367	1334.95
506.574	1365.37
506.781	1378.54
506.988	1312.67
507.195	1309.96
507.402	1331.08
507.609	1372.34
507.816	1320.61
508.023	1340.57
508.23	1333.01
508.437	1305.31
508.644	1355.68
508.851	1396.56
509.058	1392.69
509.265	1388.23
509.472	1456.43
509.679	1531.6
509.885	1443.45
510.092	1431.24
510.299	1443.45
510.506	1491.11
510.713	1475.8
510.92	1467.67
511.126	1514.94
511.333	1518.43
511.54	1517.27
511.746	1585.66
511.953	1588.95
512.16	1644.56
512.367	1547.49
512.573	1557.57
512.78	1576.17
512.987	1569.97
513.193	1569
513.4	1529.86
513.606	1584.69
513.813	1625.18
514.02	1631.19
514.226	1677.69
514.433	1669.16
514.639	1645.72
514.846	1640.88
515.052	1631.77
515.259	1686.02
515.465	1703.65
515.672	1720.7
515.878	1779.02
516.085	1738.72
516.291	1797.43
516.497	1696.87
516.704	1692.8
516.91	1647.08
517.117	1653.86
517.323	1575.78
517.529	1570.55
517.736	1600.97
517.942	1655.6
518.148	1669.36
518.354	1721.67
518.561	1735.43
518.767	1691.06
518.973	1746.66
519.179	1814.09
519.386	1818.16
519.592	1781.15
519.798	1822.42
520.004	1938.28
520.21	1905.15
520.417	2006.48
520.623	2006.28
520.829	2039.42
521.035	2035.93
521.241	2030.7
521.447	2092.89
521.653	2218.44
521.859	2074.68
522.065	2122.53
522.271	2211.66
522.477	2166.9
522.683	2221.93
522.889	2196.54
523.095	2182.01
523.301	2167.68
523.507	2134.16
523.713	2197.9
523.919	2175.81
524.125	2278.89
524.331	2249.63
524.537	2357.94
524.742	2369.56
524.948	2394.36
525.154	2408.5
525.36	2468.18
525.566	2404.05
525.772	2494.72
525.977	2371.5
526.183	2435.82
526.389	2436.4
526.595	2337.21
526.8	2345.73
527.006	2251.38
527.212	2193.44
527.417	2223.48
527.623	2224.64
527.829	2303.3
528.034	2369.17
528.24	2411.02
528.446	2463.72
528.651	2535.99
528.857	2536.38
529.062	2585.78
529.268	2596.25
529.473	2654.95
529.679	2618.91
529.884	2633.64
530.09	2658.63
530.295	2625.89
530.501	2653.01
530.706	2665.99
530.912	2676.26
531.117	2700.29
531.323	2694.09
531.528	2794.45
531.733	2761.71
531.939	2683.24
532.144	2733.81
532.35	2711.14
532.555	2796.97
532.76	2715.21
532.966	2718.69
533.171	2688.66
533.376	2662.7
533.581	2609.03
533.787	2680.53
533.992	2738.46
534.197	2741.36
534.402	2750.66
534.607	2785.15
534.813	2864
535.018	2757.83
535.223	2843.85
535.428	2841.53
535.633	2914.38
535.838	2924.26
536.043	2934.14
536.249	3004.47
536.454	2947.32
536.659	2953.71
536.864	2916.12
537.069	2882.41
537.274	2917.87
537.479	2930.07
537.684	2918.83
537.889	2850.25
538.094	3001.18
538.299	2931.82
538.504	2996.72
538.708	2944.02
538.913	3020.55
539.118	2977.73
539.323	2992.46
539.528	2932.01
539.733	2933.17
539.938	2951.58
540.142	2910.5
540.347	2926.2
540.552	2909.73
540.757	2880.47
540.962	2872.33
541.166	2839.4
541.371	2795.8
541.576	2863.42
541.781	2811.5
541.985	2977.93
542.19	2889.19
542.395	3019.97
542.599	3050.19
542.804	3007.57
543.008	3032.56
543.213	2982
543.418	2941.5
543.622	2993.43
543.827	2942.67
544.031	3022.3
544.236	3062.01
544.44	3039.73
544.645	3108.32
544.849	3045.74
545.054	3079.84
545.258	3110.64
545.463	3148.42
545.667	3019.97
545.872	3115.29
546.076	3095.34
546.281	3098.44
546.485	3055.43
546.689	3067.63
546.894	3092.24
547.098	3114.52
547.302	3090.11
547.507	3132.34
547.711	3123.63
547.915	3109.87
548.119	3052.71
548.324	3082.36
548.528	3159.86
548.732	3120.53
548.936	3174.97
549.141	3147.26
549.345	3168.19
549.549	3150.94
549.753	3146.1
549.957	3207.32
550.161	3209.46
550.366	3196.86
550.57	3157.72
550.774	3198.99
550.978	3154.43
551.182	3177.29
551.386	3161.6
551.59	3103.28
551.794	3195.31
551.998	3171.48
552.202	3173.42
552.406	3158.11
552.61	3255.95
552.814	3188.14
553.018	3234.06
553.222	3172.06
553.426	3151.52
553.63	3212.94
553.833	3184.46
554.037	3131.76
554.241	3184.85
554.445	3189.11
554.649	3227.09
554.853	3149.59
555.056	3227.09
555.26	3291.8
555.464	3220.3
555.668	3241.23
555.871	3233.09
556.075	3248.01
556.279	3123.04
556.483	3148.62
556.686	3171.67
556.89	3147.26
557.094	3156.56
557.297	3084.49
557.501	3159.66
557.704	3045.54
557.908	3114.91
558.112	3068.79
558.315	3108.9
558.519	3092.63
558.722	3026.95
558.926	3051.55
559.129	2969.01
559.333	2971.73
559.536	2946.15
559.74	2943.44
559.943	2905.27
560.147	2944.02
560.35	2975.02
560.553	2972.31
560.757	2939.95
560.96	3040.7
561.164	3015.13
561.367	3039.73
561.57	2987.81
561.774	3003.89
561.977	2906.63
562.18	2954.87
562.384	3037.41
562.587	2944.41
562.79	2918.06
562.993	2883.18
563.197	2972.11
563.4	2985.68
563.603	3006.21
563.806	3007.18
564.009	2902.75
564.212	2958.16
564.416	2851.41
564.619	2895.58
564.822	2806.07
565.025	2916.7
565.228	2859.55
565.431	2872.72
565.634	2776.62
565.837	2799.87
566.04	2799.1
566.243	2786.5
566.446	2642.16
566.649	2824.09
566.852	2690.21
567.055	2770.04
567.258	2726.44
567.461	2825.25
567.664	2769.26
567.867	2682.85
568.07	2760.74
568.273	2683.63
568.475	2769.07
568.678	2677.23
568.881	2643.91
569.084	2659.6
569.287	2542.58
569.489	2558.08
569.692	2601.28
569.895	2614.07
570.098	2520.88
570.3	2552.07
570.503	2486.58
570.706	2486
570.909	2498.21
571.111	2419.35
571.314	2424.39
571.516	2402.11
571.719	2423.42
571.922	2410.05
572.124	2404.44
572.327	2449.97
572.529	2403.85
572.732	2412.19
572.935	2479.42
573.137	2493.37
573.34	2409.28
573.542	2434.08
573.745	2416.25
573.947	2439.5
574.15	2360.84
574.352	2366.65
574.554	2436.21
574.757	2321.51
574.959	2306.4
575.162	2340.5
575.364	2295.16
575.566	2341.47
575.769	2226.58
575.971	2277.72
576.173	2133.38
576.376	2258.35
576.578	2306.4
576.78	2334.88
576.982	2185.89
577.185	2217.66
577.387	2213.79
577.589	2219.6
577.791	2256.61
577.993	2251.76
578.196	2214.18
578.398	2230.45
578.6	2270.36
578.802	2142.49
579.004	2133.77
579.206	2155.08
579.408	2184.14
579.61	2122.34
579.812	2238.98
580.014	2148.88
580.216	2140.16
580.418	2175.43
580.62	2120.4
580.822	2137.84
581.024	2185.11
581.226	2222.7
581.428	2197.9
581.63	2294.77
581.832	2155.47
582.034	2242.85
582.236	2243.04
582.438	2266.1
582.64	2239.36
582.841	2259.32
583.043	2317.25
583.245	2211.85
583.447	2282.96
583.649	2201.19
583.85	2258.16
584.052	2275.98
584.254	2167.87
584.456	2244.01
584.657	2158.76
584.859	2216.89
585.061	2168.26
585.262	2146.75
585.464	2128.54
585.666	2203.71
585.867	2126.21
586.069	2167.68
586.27	2146.17
586.472	2115.36
586.674	2114.4
586.875	2097.73
587.077	2093.28
587.278	2172.71
587.48	2122.73
587.681	2209.14
587.883	2123.89
588.084	2043.48
588.285	2093.08
588.487	2022.75
588.688	2062.28
588.89	1973.74
589.091	1898.95
589.292	1911.74
589.494	1848.96
589.695	1844.89
589.896	1756.16
590.098	1771.08
590.299	1801.88
590.5	1778.63
590.702	1830.36
590.903	1876.28
591.104	1913.29
591.305	1905.34
591.507	1950.68
591.708	1949.32
591.909	1901.66
592.11	1964.63
592.311	1945.25
592.512	1895.85
592.714	1869.89
592.915	1874.34
593.116	1886.16
593.317	1904.57
593.518	1900.5
593.719	1895.46
593.92	1954.17
594.121	1996.6
594.322	1938.47
594.523	1896.04
594.724	1850.32
594.925	1861.94
595.126	1868.92
595.327	1889.84
595.528	1913.29
595.729	1899.34
595.929	1867.76
596.13	1912.32
596.331	1886.55
596.532	1956.1
596.733	1961.34
596.934	1949.52
597.135	1934.21
597.335	1937.12
597.536	1879.38
597.737	1919.87
597.938	1921.81
598.138	1961.53
598.339	1921.23
598.54	1911.93
598.74	1865.82
598.941	1928.59
599.142	1955.14
599.342	1942.35
599.543	1853.03
599.744	1927.04
599.944	1900.11
600.145	1900.11
600.345	1897.21
600.546	1988.07
600.746	1930.53
600.947	1989.82
601.147	1905.15
601.348	1934.21
601.548	1877.25
601.749	1888.1
601.949	1861.56
602.15	1853.81
602.35	1857.87
602.551	1910.77
602.751	1826.1
602.951	1896.62
603.152	1795.29
603.352	1867.37
603.552	1889.65
603.753	1917.16
603.953	1946.03
604.153	1911.74
604.354	1919.29
604.554	1847.02
604.754	1874.73
604.954	1872.79
605.155	1929.17
605.355	1880.54
605.555	1922.78
605.755	1933.44
605.955	1886.16
606.155	1931.69
606.356	1867.95
606.556	1890.04
606.756	1872.02
606.956	1817.38
607.156	1938.47
607.356	1813.89
607.556	1866.21
607.756	1868.72
607.956	1909.22
608.156	1875.31
608.356	1785.61
608.556	1871.24
608.756	1841.21
608.956	1804.4
609.156	1797.43
609.356	1796.07
609.556	1767.39
609.755	1805.76
609.955	1762.36
610.155	1791.81
610.355	1810.21
610.555	1747.63
610.755	1733.68
610.954	1699.2
611.154	1777.86
611.354	1781.15
611.554	1773.59
611.753	1753.83
611.953	1687.96
612.153	1763.91
612.352	1754.99
612.552	1701.33
612.752	1648.24
612.951	1718.57
613.151	1691.06
613.351	1682.34
613.55	1677.3
613.75	1697.06
613.949	1647.08
614.149	1694.74
614.348	1691.06
614.548	1644.56
614.747	1628.48
614.947	1667.03
615.146	1621.7
615.346	1721.48
615.545	1691.06
615.745	1676.91
615.944	1686.02
616.144	1681.76
616.343	1688.93
616.542	1583.33
616.742	1602.32
616.941	1590.12
617.14	1532.77
617.34	1579.46
617.539	1636.23
617.738	1563.57
617.938	1642.43
618.137	1632.35
618.336	1556.99
618.535	1635.26
618.734	1621.12
618.934	1585.08
619.133	1612.01
619.332	1584.11
619.531	1555.05
619.73	1615.11
619.929	1618.21
620.128	1622.67
620.328	1639.33
620.527	1577.52
620.726	1616.27
620.925	1605.03
621.124	1594.96
621.323	1568.61
621.522	1544.78
621.721	1532.19
621.92	1516.3
622.119	1576.17
622.318	1545.94
622.517	1534.9
622.715	1535.29
622.914	1481.23
623.113	1501.57
623.312	1453.33
623.511	1543.42
623.71	1503.32
623.909	1494.02
624.107	1536.84
624.306	1473.67
624.505	1481.23
624.704	1495.95
624.902	1416.71
625.101	1511.07
625.3	1466.89
625.499	1466.7
625.697	1424.85
625.896	1437.83
626.095	1480.26
626.293	1392.69
626.492	1443.45
626.69	1458.76
626.889	1447.32
627.088	1487.04
627.286	1431.44
627.485	1417.49
627.683	1364.98
627.882	1420.78
628.08	1333.98
628.279	1347.35
628.477	1403.15
628.676	1296.39
628.874	1373.7
629.073	1361.88
629.271	1294.26
629.469	1362.85
629.668	1345.8
629.866	1338.83
630.065	1346.77
630.263	1386.49
630.461	1358.98
630.66	1344.25
630.858	1371.96
631.056	1409.16
631.254	1400.82
631.453	1339.41
631.651	1405.67
631.849	1365.95
632.047	1377.58
632.245	1356.07
632.444	1395.21
632.642	1397.92
632.84	1422.33
633.038	1370.99
633.236	1382.61
633.434	1384.74
633.632	1393.66
633.83	1362.08
634.028	1400.63
634.227	1357.43
634.425	1439.38
634.623	1366.34
634.821	1436.86
635.019	1433.96
635.216	1391.33
635.414	1433.18
635.612	1396.95
635.81	1384.55
636.008	1474.84
636.206	1393.46
636.404	1415.74
636.602	1372.93
636.8	1388.62
636.997	1407.61
637.195	1431.82
637.393	1391.72
637.591	1473.48
637.789	1383.77
637.986	1389.01
638.184	1398.5
638.382	1412.84
638.58	1394.43
638.777	1448.68
638.975	1386.29
639.173	1388.04
639.37	1393.46
639.568	1374.28
639.765	1361.88
639.963	1340.18
640.161	1387.84
640.358	1394.82
640.556	1315.96
640.753	1300.27
640.951	1290
641.148	1325.07
641.346	1305.89
641.543	1347.35
641.741	1340.38
641.938	1268.3
642.136	1308.6
642.333	1292.33
642.531	1394.43
642.728	1362.85
642.925	1329.14
643.123	1316.54
643.32	1323.52
643.517	1257.65
643.715	1304.92
643.912	1255.51
644.109	1273.53
644.306	1267.72
644.504	1262.1
644.701	1261.33
644.898	1254.55
645.095	1249.7
645.293	1229.75
645.49	1264.23
645.687	1260.75
645.884	1265.98
646.081	1166.58
646.278	1197
646.475	1177.63
646.672	1183.44
646.87	1221.61
647.067	1191.97
647.264	1204.37
647.461	1126.48
647.658	1092.57
647.855	1162.32
648.052	1120.28
648.249	1074.75
648.446	1113.3
648.642	1108.27
648.839	1100.52
649.036	1056.92
649.233	1071.07
649.43	1043.94
649.627	999.57
649.824	1060.6
650.021	1042.2
650.217	1052.66
650.414	1073.39
650.611	1104.59
650.808	1094.32
651.004	1109.24
651.201	1102.26
651.398	1142.37
651.595	1109.82
651.791	1048.01
651.988	1094.12
652.185	1048.79
652.381	1099.35
652.578	1013.33
652.775	1062.74
652.971	1047.82
653.168	1064.67
653.364	1095.67
653.561	1021.08
653.757	1026.89
653.954	1070.68
654.15	1023.79
654.347	1104.2
654.543	1082.69
654.74	986.98
654.936	1043.94
655.133	1046.46
655.329	1059.25
655.525	1029.99
655.722	1038.9
655.918	968.57
656.115	1001.32
656.311	931.76
656.507	867.83
656.704	847.68
656.9	872.48
657.096	875.77
657.292	881.58
657.489	929.83
657.685	955.98
657.881	936.61
658.077	919.36
658.273	956.17
658.47	1015.66
658.666	979.42
658.862	1000.93
659.058	983.11
659.254	980.2
659.45	965.09
659.646	991.44
659.842	952.49
660.038	1022.44
660.234	961.41
660.43	978.46
660.626	1027.47
660.822	1004.42
661.018	982.14
661.214	983.88
661.41	949.97
661.606	1012.36
661.802	1019.53
661.998	977.68
662.194	953.27
662.39	988.14
662.586	989.89
662.781	984.66
662.977	982.72
663.173	991.82
663.369	974.97
663.564	971.87
663.76	968.96
663.956	942.23
664.152	992.21
664.347	909.87
664.543	950.75
664.739	921.49
664.934	872.67
665.13	881.58
665.326	950.75
665.521	952.69
665.717	878.29
665.912	892.82
666.108	831.98
666.304	883.33
666.499	877.9
666.695	821.13
666.89	896.89
667.086	928.86
667.281	921.88
667.477	950.56
667.672	905.99
667.867	876.93
668.063	874.61
668.258	838.38
668.454	879.45
668.649	944.55
668.844	877.32
669.04	911.23
669.235	837.41
669.43	860.85
669.626	796.14
669.821	877.51
670.016	826.75
670.211	878.29
670.407	844.96
670.602	893.98
670.797	853.88
670.992	912.97
671.187	852.52
671.382	894.95
671.578	818.03
671.773	824.43
671.968	810.67
672.163	839.73
672.358	867.24
672.553	827.14
672.748	848.06
672.943	875.19
673.138	846.13
673.333	840.9
673.528	803.11
673.723	857.36
673.918	824.62
674.113	784.13
674.308	899.79
674.503	837.02
674.698	882.36
674.892	833.34
675.087	854.46
675.282	837.21
675.477	825.4
675.672	839.35
675.867	806.02
676.061	830.24
676.256	809.31
676.451	797.88
676.646	810.86
676.84	784.13
677.035	778.31
677.23	794.98
677.424	812.61
677.619	876.35
677.814	865.69
678.008	865.31
678.203	790.91
678.397	813.77
678.592	824.43
678.787	882.36
678.981	813.96
679.176	859.3
679.37	858.33
679.565	799.63
679.759	844.96
679.954	818.42
680.148	881
680.342	900.76
680.537	858.91
680.731	845.16
680.926	881.19
681.12	868.79
681.314	807.76
681.509	847.48
681.703	867.44
681.897	879.26
682.092	855.43
682.286	826.17
682.48	881.78
682.674	884.68
682.869	854.26
683.063	862.59
683.257	925.18
683.451	850.97
683.645	877.71
683.839	852.13
684.034	835.86
684.228	892.82
684.422	796.33
684.616	832.76
684.81	876.35
685.004	857.36
685.198	849.23
685.392	899.21
685.586	837.6
685.78	897.47
685.974	877.13
686.168	901.54
686.362	921.3
686.556	837.21
686.75	796.53
686.944	801.18
687.138	758.94
687.331	676.4
687.525	687.64
687.719	643.85
687.913	696.75
688.107	678.34
688.301	704.11
688.494	722.71
688.688	692.87
688.882	688.61
689.076	688.8
689.269	714.38
689.463	819.39
689.657	779.28
689.85	739.76
690.044	792.26
690.238	802.92
690.431	772.31
690.625	810.09
690.818	879.26
691.012	842.83
691.205	898.24
691.399	843.61
691.593	919.56
691.786	964.89
691.98	998.99
692.173	1028.25
692.366	1018.37
692.56	1048.79
692.753	1043.17
692.947	999.96
693.14	1084.63
693.333	1094.9
693.527	1046.85
693.72	1104.97
693.914	1053.05
694.107	1046.85
694.3	1108.27
694.493	1085.02
694.687	1177.24
694.88	1088.5
695.073	1224.13
695.266	1200.1
695.46	1217.35
695.653	1207.47
695.846	1270.63
696.039	1203.2
696.232	1253.96
696.425	1327.39
696.618	1371.38
696.812	1371.96
697.005	1446.74
697.198	1503.32
697.391	1430.86
697.584	1522.69
697.777	1539.55
697.97	1549.04
698.163	1569.77
698.356	1555.44
698.549	1638.17
698.742	1592.44
698.935	1613.37
699.127	1616.66
699.32	1606.2
699.513	1591.86
699.706	1669.94
699.899	1677.11
700.092	1665.1
700.285	1687.76
700.477	1643.01
700.67	1726.13
700.863	1739.11
701.056	1762.94
701.248	1770.49
701.441	1821.06
701.634	1801.11
701.826	1842.18
702.019	1789.29
702.212	1874.34
702.404	1840.82
702.597	1837.14
702.79	1872.79
702.982	1927.24
703.175	1974.51
703.367	1970.25
703.56	2021.78
703.752	2130.67
703.945	2030.7
704.137	2083.98
704.33	2092.11
704.522	2155.66
704.715	2166.9
704.907	2201.97
705.1	2248.08
705.292	2251.57
705.484	2246.92
705.677	2285.28
705.869	2295.74
706.061	2319.57
706.254	2344.76
706.446	2333.14
706.638	2343.41
706.831	2428.27
707.023	2391.65
707.215	2493.56
707.407	2472.83
707.599	2478.25
707.792	2530.76
707.984	2536.96
708.176	2561.76
708.368	2530.18
708.56	2582.1
708.752	2639.06
708.944	2605.93
709.136	2663.86
709.329	2621.24
709.521	2761.51
709.713	2734.19
709.905	2750.08
710.097	2800.84
710.289	2738.65
710.481	2784.37
710.672	2817.31
710.864	2849.09
711.056	2827.77
711.248	2849.67
711.44	2884.35
711.632	2888.03
711.824	2912.25
712.016	2948.48
712.207	2991.68
712.399	2947.51
712.591	3042.06
712.783	3036.63
712.975	3067.24
713.166	2984.32
713.358	3048.84
713.55	3128.66
713.741	3083.91
713.933	3096.69
714.125	3085.46
714.316	3082.74
714.508	3202.09
714.7	3150.17
714.891	3119.17
715.083	3132.54
715.274	3129.05
715.466	3156.37
715.657	3156.17
715.849	3105.61
716.04	3133.89
716.232	3066.08
716.423	3082.74
716.615	3012.03
716.806	2928.91
716.998	2838.82
717.189	2716.76
717.381	2655.53
717.572	2611.16
717.763	2593.34
717.955	2570.28
718.146	2520.49
718.337	2454.23
718.528	2441.63
718.72	2302.91
718.911	2355.61
719.102	2310.27
719.293	2364.33
719.485	2320.54
719.676	2264.16
719.867	2251.38
720.058	2303.88
720.249	2263.39
720.44	2313.96
720.632	2362.2
720.823	2416.64
721.014	2571.45
721.205	2636.74
721.396	2710.94
721.587	2884.35
721.778	2925.42
721.969	2964.56
722.16	3083.33
722.351	3112.39
722.542	3207.71
722.733	3184.46
722.924	3131.18
723.115	3175.36
723.305	3078.68
723.496	3120.33
723.687	2930.46
723.878	2959.33
724.069	2938.6
724.26	2968.63
724.45	2893.07
724.641	2884.73
724.832	2889
725.023	2891.32
725.213	2858
725.404	2825.84
725.595	2834.75
725.785	2830.1
725.976	2864
726.167	2832.81
726.357	2898.68
726.548	3009.9
726.739	2874.27
726.929	3017.84
727.12	3007.96
727.31	3054.07
727.501	2969.01
727.691	2950.8
727.882	2953.13
728.072	3035.66
728.263	3019.39
728.453	3093.98
728.644	3134.86
728.834	3066.28
729.024	3013.77
729.215	3000.21
729.405	3037.6
729.596	3146.49
729.786	3136.41
729.976	3146.49
730.167	3166.83
730.357	3113.94
730.547	3140.29
730.737	3198.22
730.928	3227.47
731.118	3288.89
731.308	3227.47
731.498	3252.27
731.688	3331.71
731.879	3400.88
732.069	3393.51
732.259	3480.12
732.449	3508.02
732.639	3588.42
732.829	3632.41
733.019	3672.32
733.209	3737.03
733.399	3759.7
733.589	3872.26
733.779	3939.88
733.969	3845.33
734.159	3957.13
734.349	3985.99
734.539	4054
734.729	4059.04
734.919	4102.44
735.109	4100.11
735.299	4056.13
735.488	4080.16
735.678	4132.27
735.868	4090.62
736.058	4062.33
736.248	4087.91
736.437	4004.4
736.627	4018.16
736.817	4147.39
737.007	4065.62
737.196	4179.93
737.386	4068.14
737.576	4141.38
737.765	4194.27
737.955	4158.04
738.144	4299.67
738.334	4245.03
738.524	4173.35
738.713	4254.14
738.903	4221.01
739.092	4267.31
739.282	4270.61
739.471	4221.59
739.661	4271.19
739.85	4305.1
740.04	4310.52
740.229	4349.66
740.419	4384.73
740.608	4408.36
740.797	4350.82
740.987	4432.78
741.176	4365.93
741.365	4373.49
741.555	4303.74
741.744	4459.51
741.933	4349.66
742.123	4417.86
742.312	4473.46
742.501	4498.46
742.69	4431.61
742.88	4407.59
743.069	4535.65
743.258	4488.19
743.447	4519.57
743.636	4538.17
743.825	4493.42
744.014	4504.27
744.204	4545.92
744.393	4495.16
744.582	4614.51
744.771	4571.11
744.96	4517.44
745.149	4582.54
745.338	4531.2
745.527	4595.52
745.716	4549.6
745.905	4530.04
746.094	4655.97
746.283	4566.46
746.471	4561.23
746.66	4599.98
746.849	4613.74
747.038	4606.57
747.227	4534.49
747.416	4618.19
747.604	4537.98
747.793	4563.75
747.982	4559.1
748.171	4652.1
748.359	4551.15
748.548	4599.4
748.737	4571.5
748.926	4540.3
749.114	4418.44
749.303	4558.32
749.491	4513.96
749.68	4473.85
749.869	4549.6
750.057	4510.08
750.246	4502.72
750.434	4490.12
750.623	4475.01
750.811	4464.94
751	4505.82
751.188	4487.61
751.377	4477.14
751.565	4499.42
751.754	4434.52
751.942	4418.44
752.131	4493.22
752.319	4421.15
752.507	4411.08
752.696	4426.77
752.884	4432.58
753.072	4429.87
753.261	4417.86
753.449	4378.33
753.637	4361.28
753.825	4508.14
754.014	4394.03
754.202	4378.72
754.39	4447.89
754.578	4431.23
754.766	4379.69
754.955	4336.29
755.143	4448.27
755.331	4347.91
755.519	4365.74
755.707	4345.2
755.895	4307.42
756.083	4332.41
756.271	4316.33
756.459	4310.33
756.647	4391.51
756.835	4300.25
757.023	4285.91
757.211	4311.1
757.399	4249.68
757.587	4245.81
757.775	4214.42
757.963	4209
758.151	4218.49
758.339	4198.92
758.526	4201.83
758.714	4179.16
758.902	4057.29
759.09	3961
759.278	3679.68
759.465	3431.68
759.653	2951.58
759.841	2675.29
760.028	2329.07
760.216	2007.25
760.404	1836.17
760.591	1553.3
760.779	1297.17
760.967	1119.7
761.154	921.11
761.342	917.04
761.529	955.79
761.717	976.71
761.905	991.44
762.092	1033.87
762.28	977.87
762.467	942.42
762.655	857.75
762.842	899.6
763.029	951.52
763.217	933.31
763.404	895.53
763.592	948.81
763.779	887.01
763.966	965.67
764.154	1006.16
764.341	1064.87
764.528	1091.8
764.716	1148.95
764.903	1165.81
765.09	1260.16
765.277	1344.83
765.465	1556.21
765.652	1620.92
765.839	1689.7
766.026	1878.61
766.213	1948.16
766.4	2065.77
766.588	2267.84
766.775	2317.44
766.962	2445.9
767.149	2568.93
767.336	2719.86
767.523	2760.74
767.71	2876.02
767.897	3056.01
768.084	3116.65
768.271	3180.2
768.458	3217.01
768.645	3340.43
768.832	3314.08
769.019	3437.69
769.206	3434.59
769.392	3520.61
769.579	3647.71
769.766	3620.78
769.953	3606.06
770.14	3689.37
770.327	3676.39
770.513	3706.61
770.7	3774.03
770.887	3694.79
771.073	3744
771.26	3766.87
771.447	3723.66
771.634	3696.92
771.82	3870.52
772.007	3736.84
772.193	3798.06
772.38	3750.98
772.567	3772.1
772.753	3785.27
772.94	3810.85
773.126	3834.48
773.313	3821.89
773.499	3759.12
773.686	3808.72
773.872	3756.6
774.059	3806.58
774.245	3740.71
774.432	3722.11
774.618	3657.4
774.804	3737.61
774.991	3686.07
775.177	3713.59
775.363	3679.49
775.55	3753.88
775.736	3671.74
775.922	3715.14
776.109	3657.98
776.295	3636.28
776.481	3717.46
776.667	3680.84
776.853	3704.09
777.04	3677.16
777.226	3671.54
777.412	3723.27
777.598	3647.32
777.784	3631.82
777.97	3637.64
778.156	3636.47
778.342	3619.81
778.528	3632.79
778.715	3540.96
778.901	3564.59
779.087	3587.46
779.272	3540.57
779.458	3539.79
779.644	3554.52
779.83	3559.17
780.016	3609.16
780.202	3574.86
780.388	3556.26
780.574	3449.12
780.76	3486.32
780.946	3501.82
781.131	3526.62
781.317	3456.48
781.503	3418.7
781.689	3480.51
781.874	3571.37
782.06	3446.41
782.246	3462.68
782.432	3465.4
782.617	3474.11
782.803	3551.61
782.989	3397.78
783.174	3411.92
783.36	3343.33
783.545	3385.18
783.731	3401.07
783.916	3315.05
784.102	3420.45
784.288	3355.93
784.473	3336.17
784.659	3325.12
784.844	3393.51
785.029	3321.83
785.215	3293.35
785.4	3313.5
785.586	3371.43
785.771	3265.45
785.956	3298.58
786.142	3247.82
786.327	3259.25
786.512	3250.53
786.698	3263.32
786.883	3182.33
787.068	3220.3
787.254	3203.64
787.439	3170.32
787.624	3143.97
787.809	3161.21
787.994	3180.2
788.18	3200.35
788.365	3069.96
788.55	3136.22
788.735	3118.59
788.92	3117.81
789.105	3079.45
789.29	3118.59
789.475	3034.7
789.66	3075.58
789.845	3033.73
790.03	2988.2
790.215	3055.43
790.4	3051.94
790.585	3065.5
790.77	3013.96
790.955	2990.91
791.14	3019
791.325	3086.81
791.51	2962.43
791.695	2973.28
791.879	2982.77
792.064	2922.71
792.249	3036.63
792.434	2976.57
792.618	2986.26
792.803	3035.66
792.988	2964.17
793.173	2983.55
793.357	3014.35
793.542	2974.25
793.727	2993.04
793.911	3020.16
794.096	3001.18
794.281	3041.48
794.465	3110.45
794.65	3023.46
794.834	3084.88
795.019	3109.48
795.203	3107.35
795.388	3114.71
795.572	3102.12
795.757	3087.2
795.941	3054.07
796.126	3042.06
796.31	2978.51
796.494	3022.49
796.679	2989.16
796.863	2981.22
797.048	3074.03
797.232	2993.04
797.416	3043.41
797.601	3083.71
797.785	3124.59
797.969	3091.46
798.153	3038.57
798.338	3090.3
798.522	3101.15
798.706	3122.27
798.89	3109.29
799.074	3194.73
799.258	3185.82
799.443	3088.36
799.627	3117.04
799.811	3121.69
799.995	3075.77
800.179	3041.09
800.363	3008.73
800.547	3068.02
800.731	3092.04
800.915	3023.65
801.099	3011.64
801.283	3039.15
801.467	3029.27
801.651	3023.65
801.835	3073.06
802.019	3011.64
802.202	3092.04
802.386	2990.91
802.57	3001.18
802.754	2975.99
802.938	2957
803.121	3006.02
803.305	3037.99
803.489	3011.64
803.673	3022.3
803.856	3018.42
804.04	3002.92
804.224	3055.81
804.407	3002.53
804.591	2996.91
804.775	3008.73
804.958	3002.53
805.142	3147.46
805.326	3045.16
805.509	3078.87
805.693	3084.88
805.876	3088.94
806.06	3054.84
806.243	3106.77
806.427	3130.6
806.61	3132.15
806.794	3110.64
806.977	3104.44
807.16	3076.93
807.344	3131.76
807.527	3063.95
807.71	3084.1
807.894	3062.21
808.077	3068.41
808.26	3000.98
808.444	3006.21
808.627	3095.14
808.81	2996.33
808.993	2983.74
809.177	2900.23
809.36	2965.91
809.543	2991.49
809.726	2895.58
809.909	2880.67
810.092	2860.13
810.276	2827.77
810.459	2840.56
810.642	2829.71
810.825	2796.97
811.008	2803.36
811.191	2678.98
811.374	2778.95
811.557	2725.86
811.74	2785.54
811.923	2685.18
812.106	2651.85
812.289	2610
812.472	2579.39
812.654	2610.19
812.837	2553.62
813.02	2486.2
813.203	2501.7
813.386	2403.85
813.569	2338.56
813.751	2278.11
813.934	2359.1
814.117	2237.81
814.3	2214.95
814.482	2158.18
814.665	2146.56
814.848	2104.32
815.03	2016.17
815.213	2022.75
815.396	1980.71
815.578	1988.65
815.761	1947.58
815.943	1979.74
816.126	1909.22
816.309	1855.36
816.491	1765.46
816.674	1760.61
816.856	1836.56
817.039	1821.84
817.221	1892.17
817.403	1794.71
817.586	1820.48
817.768	1817.77
817.951	1784.25
818.133	1746.08
818.315	1783.28
818.498	1797.43
818.68	1874.15
818.862	1856.32
819.045	1908.25
819.227	1867.56
819.409	1834.04
819.591	1880.54
819.774	1878.22
819.956	1829.2
820.138	1923.17
820.32	1915.8
820.502	1966.95
820.684	2045.03
820.866	2084.95
821.048	2121.37
821.231	2172.13
821.413	2127.76
821.595	2117.88
821.777	2117.69
821.959	2107.61
822.141	2161.86
822.323	2016.17
822.505	1959.98
822.686	1878.41
822.868	1809.05
823.05	1651.53
823.232	1614.72
823.414	1559.89
823.596	1623.83
823.778	1618.79
823.96	1623.44
824.141	1677.11
824.323	1686.8
824.505	1787.74
824.687	1863.3
824.868	1886.94
825.05	1976.45
825.232	2089.79
825.413	2070.61
825.595	2072.35
825.777	2027.6
825.958	2057.24
826.14	2031.86
826.321	2058.4
826.503	2058.4
826.685	2088.82
826.866	2072.16
827.048	2074.68
827.229	2017.52
827.411	1992.53
827.592	1922.59
827.773	1936.92
827.955	1882.87
828.136	1882.29
828.318	1826.49
828.499	1873.18
828.68	1811.38
828.862	1833.85
829.043	1838.31
829.224	1790.45
829.406	1818.16
829.587	1817.58
829.768	1829.2
829.949	1858.26
830.131	1840.82
830.312	1870.66
830.493	1862.33
830.674	1875.89
830.855	1840.44
831.036	1862.33
831.218	1919.68
831.399	1941.19
831.58	1881.12
831.761	1864.66
831.942	1886.74
832.123	1843.73
832.304	1783.28
832.485	1824.74
832.666	1840.63
832.847	1863.11
833.028	1869.31
833.209	1851.48
833.389	1830.36
833.57	1761
833.751	1813.89
833.932	1897.79
834.113	1868.92
834.294	1829.39
834.475	1907.09
834.655	1921.81
834.836	1912.32
835.017	1906.89
835.198	1849.93
835.378	1888.29
835.559	1937.31
835.74	1899.92
835.92	1886.16
836.101	1886.55
836.281	1892.17
836.462	1960.75
836.643	1942.15
836.823	1941.77
837.004	1947.58
837.184	1986.33
837.365	1953.2
837.545	1978.39
837.726	1918.52
837.906	1968.12
838.087	1935.76
838.267	1934.02
838.448	1915.8
838.628	1922.97
838.808	1938.28
838.989	2009.77
839.169	1899.34
839.349	1965.79
839.53	1950.49
839.71	1972.77
839.89	1961.34
840.07	1997.57
840.251	1935.95
840.431	1982.65
840.611	1920.65
840.791	1935.95
840.971	1939.83
841.151	1913.48
841.332	1929.95
841.512	1961.34
841.692	1908.83
841.872	1938.09
842.052	1940.22
842.232	1949.52
842.412	1906.51
842.592	1899.14
842.772	1907.67
842.952	1937.7
843.132	1900.69
843.312	1871.63
843.492	1922.39
843.672	1930.34
843.851	1854
844.031	1874.15
844.211	1895.27
844.391	1858.07
844.571	1922.59
844.751	1893.33
844.93	1855.94
845.11	1875.7
845.29	1881.9
845.47	1929.95
845.649	1924.33
845.829	1908.05
846.009	1890.81
846.188	1908.83
846.368	1886.16
846.547	1885.58
846.727	1955.33
846.907	1809.44
847.086	1899.92
847.266	1935.95
847.445	1885
847.625	1883.45
847.804	1867.17
847.984	1850.9
848.163	1836.56
848.343	1838.11
848.522	1854.19
848.701	1821.64
848.881	1837.34
849.06	1855.36
849.239	1827.65
849.419	1846.06
849.598	1771.08
849.777	1727.29
849.957	1744.14
850.136	1675.95
850.315	1659.09
850.494	1678.85
850.674	1684.47
850.853	1737.94
851.032	1718.18
851.211	1756.93
851.39	1736.39
851.569	1649.01
851.748	1715.66
851.927	1726.71
852.107	1707.33
852.286	1668.97
852.465	1678.46
852.644	1739.69
852.823	1729.03
853.002	1706.95
853.181	1695.13
853.359	1711.4
853.538	1645.53
853.717	1715.86
853.896	1582.56
854.075	1512.23
854.254	1494.99
854.433	1461.86
854.611	1530.25
854.79	1429.69
854.969	1477.74
855.148	1504.67
855.327	1477.94
855.505	1552.92
855.684	1524.63
855.863	1566.28
856.041	1533.93
856.22	1558.34
856.399	1517.27
856.577	1656.38
856.756	1629.83
856.934	1694.35
857.113	1733.29
857.291	1647.08
857.47	1599.42
857.648	1649.01
857.827	1638.17
858.005	1693.38
858.184	1600
858.362	1685.44
858.541	1624.22
858.719	1632.74
858.898	1594.96
859.076	1585.66
859.254	1677.69
859.433	1617.82
859.611	1585.08
859.789	1558.53
859.967	1635.65
860.146	1677.88
860.324	1545.17
860.502	1559.7
860.68	1525.02
860.859	1572.1
861.037	1546.33
861.215	1595.54
861.393	1568.61
861.571	1586.24
861.749	1548.85
861.927	1601.74
862.105	1569.58
862.283	1558.92
862.461	1547.49
862.639	1559.89
862.817	1557.95
862.995	1559.5
863.173	1508.55
863.351	1525.21
863.529	1562.6
863.707	1591.28
863.885	1546.52
864.063	1500.22
864.241	1519.59
864.418	1590.7
864.596	1512.23
864.774	1476.19
864.952	1482.78
865.129	1519.01
865.307	1467.47
865.485	1406.64
865.663	1478.9
865.84	1385.52
866.018	1424.07
866.196	1308.99
866.373	1312.48
866.551	1282.64
866.728	1239.82
866.906	1302.01
867.084	1297.56
867.261	1336.69
867.439	1355.88
867.616	1359.94
867.794	1371.76
867.971	1390.75
868.149	1366.34
868.326	1429.5
868.503	1436.47
868.681	1404.31
868.858	1359.17
869.035	1381.26
869.213	1397.92
869.39	1388.23
869.567	1462.63
869.745	1380.87
869.922	1392.69
870.099	1403.34
870.276	1430.08
870.454	1379.13
870.631	1404.89
870.808	1385.32
870.985	1403.34
871.162	1439.96
871.339	1396.95
871.517	1349.29
871.694	1344.83
871.871	1386.49
872.048	1358.39
872.225	1364.79
872.402	1354.71
872.579	1317.9
872.756	1380.09
872.933	1311.51
873.11	1336.69
873.287	1371.38
873.463	1319.06
873.64	1312.86
873.817	1370.41
873.994	1312.48
874.171	1302.79
874.348	1321.39
874.524	1261.71
874.701	1329.72
874.878	1236.33
875.055	1303.37
875.231	1298.53
875.408	1280.12
875.585	1257.26
875.762	1298.53
875.938	1287.1
876.115	1271.21
876.291	1214.44
876.468	1296.01
876.645	1223.55
876.821	1253
876.998	1258.42
877.174	1239.82
877.351	1235.95
877.527	1230.52
877.704	1235.17
877.88	1265.98
878.057	1243.5
878.233	1286.71
878.409	1225.68
878.586	1230.91
878.762	1194.48
878.938	1222.38
879.115	1158.83
879.291	1208.63
879.467	1170.27
879.644	1172.59
879.82	1238.08
879.996	1207.85
880.172	1137.72
880.349	1176.47
880.525	1182.67
880.701	1173.17
880.877	1147.79
881.053	1154.77
881.229	1181.12
881.405	1216.76
881.581	1138.1
881.757	1158.06
881.933	1181.31
882.109	1221.03
882.285	1179.18
882.461	1134.42
882.637	1162.13
882.813	1116.99
882.989	1151.67
883.165	1208.05
883.341	1133.65
883.517	1207.27
883.693	1187.7
883.869	1178.02
884.044	1147.02
884.22	1172.59
884.396	1225.29
884.572	1191
884.747	1220.25
884.923	1157.87
885.099	1184.8
885.275	1178.02
885.45	1142.37
885.626	1125.12
885.801	1117.76
885.977	1148.18
886.153	1099.55
886.328	1159.03
886.504	1102.07
886.679	1161.16
886.855	1118.54
887.03	1147.98
887.206	1174.14
887.381	1130.16
887.557	1146.43
887.732	1172.4
887.908	1180.92
888.083	1162.52
888.258	1154.77
888.434	1148.37
888.609	1174.14
888.784	1198.94
888.96	1114.47
889.135	1116.02
889.31	1144.69
889.485	1154.77
889.661	1141.78
889.836	1174.14
890.011	1187.7
890.186	1131.71
890.361	1134.62
890.537	1149.73
890.712	1131.71
890.887	1162.71
891.062	1150.31
891.237	1201.27
891.412	1131.52
891.587	1155.35
891.762	1171.43
891.937	1172.01
892.112	1101.87
892.287	1135.39
892.462	1092.77
892.637	1058.28
892.812	1029.41
892.987	1055.95
893.161	1038.9
893.336	1028.83
893.511	1058.09
893.686	1029.22
893.861	1017.21
894.035	1008.29
894.21	1036.97
894.385	997.06
894.56	994.34
894.734	947.26
894.909	941.84
895.084	968.19
895.258	893.4
895.433	931.18
895.608	909.09
895.782	846.9
895.957	860.27
896.131	883.52
896.306	803.89
896.48	789.16
896.655	791.88
896.829	732.4
897.004	747.12
897.178	720.19
897.353	744.99
897.527	787.03
897.701	763.01
897.876	704.3
898.05	796.33
898.224	759.13
898.399	786.65
898.573	745.77
898.747	619.05
898.921	657.03
899.096	578.17
899.27	601.23
899.444	593.09
899.618	630.1
899.792	667.3
899.967	667.69
900.141	683.96
900.315	615.95
900.489	657.42
900.663	652.38
900.837	638.82
901.011	565.39
901.185	723.29
901.359	635.52
901.533	665.94
901.707	646.37
901.881	659.94
902.055	627
902.229	634.55
902.403	689.58
902.576	654.32
902.75	623.7
902.924	722.13
903.098	690.16
903.272	740.92
903.446	796.33
903.619	800.01
903.793	809.7
903.967	831.6
904.14	848.45
904.314	837.21
904.488	829.46
904.661	855.62
904.835	839.93
905.009	871.89
905.182	875.19
905.356	846.9
905.529	814.35
905.703	798.66
905.876	787.61
906.05	789.94
906.223	787.23
906.397	693.84
906.57	712.25
906.744	640.56
906.917	681.44
907.09	644.24
907.264	649.67
907.437	602.39
907.61	604.72
907.784	598.71
907.957	607.24
908.13	583.99
908.304	591.16
908.477	548.53
908.65	605.3
908.823	516.76
908.996	628.35
909.17	563.84
909.343	541.56
909.516	568.29
909.689	576.62
909.862	526.64
910.035	572.56
910.208	515.01
910.381	549.69
910.554	627.97
910.727	561.12
910.9	547.37
911.073	567.52
911.246	611.5
911.419	630.1
911.592	567.52
911.765	551.63
911.938	571.78
912.11	567.13
912.283	574.11
912.456	615.37
912.629	569.26
912.802	533.61
912.974	493.7
913.147	452.63
913.32	395.66
913.493	442.16
913.665	461.73
913.838	446.04
914.01	470.06
914.183	484.98
914.356	513.85
914.528	510.75
914.701	556.86
914.873	525.86
915.046	478.2
915.218	414.85
915.391	416.2
915.563	395.08
915.736	483.04
915.908	490.99
916.081	482.85
916.253	491.57
916.425	507.84
916.598	481.11
916.77	479.36
916.942	433.64
917.115	409.23
917.287	445.65
917.459	445.84
917.632	387.53
917.804	384.81
917.976	427.05
918.148	431.31
918.32	463.48
918.493	486.14
918.665	513.85
918.837	505.33
919.009	543.88
919.181	541.36
919.353	496.99
919.525	508.04
919.697	523.92
919.869	517.14
920.041	551.44
920.213	628.74
920.385	583.02
920.557	557.44
920.729	581.08
920.901	546.59
921.073	525.47
921.244	509.78
921.416	556.86
921.588	503.39
921.76	500.87
921.932	618.09
922.103	527.02
922.275	543.88
922.447	551.05
922.619	466.58
922.79	513.85
922.962	482.08
923.134	515.59
923.305	488.47
923.477	451.85
923.648	446.81
923.82	478.98
923.991	381.91
924.163	406.9
924.335	442.36
924.506	417.36
924.677	461.54
924.849	463.67
925.02	434.8
925.192	490.02
925.363	440.61
925.535	447.59
925.706	446.04
925.877	480.91
926.049	430.93
926.22	461.93
926.391	469.68
926.562	468.71
926.734	438.29
926.905	464.06
927.076	388.88
927.247	426.66
927.419	395.86
927.59	390.05
927.761	357.11
927.932	353.43
928.103	368.35
928.274	316.42
928.445	318.17
928.616	302.67
928.787	285.23
928.958	302.86
929.129	294.72
929.3	287.17
929.471	271.86
929.642	201.53
929.813	184.87
929.984	258.88
930.155	178.67
930.326	235.05
930.496	196.1
930.667	160.26
930.838	182.54
931.009	147.67
931.18	174.02
931.35	155.81
931.521	154.45
931.692	84.31
931.863	72.11
932.033	129.46
932.204	136.82
932.374	120.35
932.545	92.45
932.716	142.82
932.886	116.47
933.057	67.46
933.227	78.31
933.398	126.94
933.568	68.62
933.739	30.45
933.909	55.44
934.08	81.6
934.25	20.18
934.421	30.84
934.591	65.33
934.761	37.62
934.932	13.4
935.102	50.02
935.272	35.49
935.443	56.41
935.613	35.29
935.783	45.18
935.953	7.98
936.123	182.74
936.294	20.38
936.464	23.09
936.634	36.84
936.804	2.94
936.974	-4.04
937.144	50.41
937.314	58.16
937.484	12.63
937.655	14.95
937.825	55.25
937.995	14.56
938.165	75.79
938.334	35.29
938.504	90.71
938.674	50.02
938.844	59.13
939.014	102.14
939.184	98.84
939.354	165.1
939.524	135.66
939.694	84.12
939.863	106.79
940.033	142.24
940.203	136.04
940.373	114.92
940.542	131.78
940.712	120.54
940.882	127.91
941.051	135.85
941.221	126.36
941.391	138.56
941.56	71.91
941.73	84.51
941.899	166.65
942.069	100.59
942.238	118.8
942.408	76.95
942.577	133.52
942.747	94.77
942.916	56.61
943.086	82.37
943.255	117.64
943.425	77.92
943.594	81.6
943.763	24.83
943.933	57.38
944.102	28.32
944.271	64.36
944.441	90.32
944.61	74.62
944.779	71.14
944.948	175.95
945.117	36.26
945.287	70.17
945.456	16.69
945.625	46.73
945.794	57.38
945.963	25.41
946.132	87.8
946.301	40.33
946.47	102.72
946.639	3.33
946.808	56.22
946.977	85.67
947.146	123.64
947.315	82.57
947.484	95.16
947.653	65.52
947.822	72.3
947.991	41.88
948.16	141.08
948.329	102.52
948.498	99.81
948.666	67.46
948.835	106.98
949.004	50.99
949.173	35.29
949.341	70.56
949.51	66.68
949.679	113.76
949.847	73.66
950.016	132.56
950.185	133.91
950.353	49.24
950.522	71.72
950.69	124.03
950.859	76.95
951.028	113.96
951.196	111.44
951.365	57.77
951.533	83.54
951.701	85.86
951.87	78.69
952.038	56.22
952.207	71.14
952.375	112.02
952.543	73.07
952.712	71.72
952.88	56.99
953.048	101.56
953.217	83.54
953.385	76.17
953.553	112.41
953.721	54.67
953.89	86.06
954.058	39.17
954.226	56.61
954.394	86.25
954.562	29.68
954.73	67.07
954.898	54.86
955.067	104.46
955.235	55.64
955.403	119.77
955.571	136.04
955.739	91.67
955.907	36.46
956.075	80.63
956.243	63.78
956.41	92.84
956.578	23.28
956.746	53.31
956.914	50.6
957.082	97.49
957.25	108.92
957.418	59.51
957.585	97.87
957.753	136.43
957.921	48.08
958.089	76.17
958.256	104.07
958.424	88.77
958.592	98.84
958.759	34.52
958.927	107.95
959.095	33.16
959.262	77.72
959.43	53.12
959.597	72.88
959.765	81.02
959.932	46.53
960.1	115.7
960.267	81.02
960.435	64.36
960.602	112.79
960.77	78.5
960.937	75.79
961.104	85.28
961.272	34.13
961.439	61.64
961.606	117.64
961.774	100.39
961.941	68.43
962.108	87.22
962.275	99.81
962.443	124.22
962.61	112.21
962.777	166.46
962.944	139.72
963.111	104.85
963.278	98.26
963.446	88.19
963.613	80.24
963.78	102.14
963.947	125.58
964.114	82.96
964.281	172.66
964.448	111.82
964.615	64.94
964.782	94.19
964.949	129.65
965.116	122.29
965.282	150.96
965.449	90.32
965.616	64.55
965.783	126.94
965.95	116.09
966.117	65.52
966.283	85.86
966.45	98.84
966.617	132.17
966.784	152.71
966.95	152.32
967.117	120.16
967.284	98.26
967.45	101.94
967.617	147.86
967.784	140.31
967.95	160.07
968.117	114.54
968.283	144.76
968.45	208.7
968.616	137.98
968.783	154.26
968.949	134.69
969.116	171.89
969.282	125.58
969.449	175.57
969.615	125.39
969.781	88.96
969.948	127.13
970.114	96.32
970.28	174.79
970.447	133.14
970.613	149.99
970.779	145.73
970.945	173.82
971.112	141.08
971.278	125.39
971.444	138.56
971.61	168.98
971.776	112.02
971.942	142.05
972.108	138.56
972.275	140.5
972.441	137.01
972.607	212.77
972.773	121.51
972.939	136.43
973.105	135.85
973.271	63.97
973.437	100.97
973.602	89.93
973.768	124.42
973.934	114.54
974.1	130.42
974.266	62.23
974.432	142.63
974.598	80.24
974.763	146.89
974.929	86.25
975.095	132.94
975.261	99.23
975.426	67.65
975.592	125.19
975.758	165.3
975.923	47.5
976.089	91.09
976.255	162.59
976.42	105.82
976.586	122.29
976.751	135.07
976.917	199.79
977.082	124.61
977.248	104.07
977.413	49.63
977.579	80.63
977.744	126.16
977.91	52.15
978.075	76.56
978.24	132.36
978.406	94.39
978.571	95.16
978.736	98.46
978.902	126.74
979.067	70.17
979.232	60.48
979.397	106.4
979.563	164.33
979.728	64.36
979.893	95.36
980.058	92.06
980.223	149.8
980.388	89.54
980.554	132.36
980.719	93.42
980.884	100.78
981.049	143.21
981.214	102.52
981.379	132.17
981.544	78.89
981.709	126.16
981.874	94.58
982.039	81.41
982.204	113.96
982.368	114.92
982.533	112.99
982.698	121.51
982.863	148.44
983.028	103.3
983.193	130.23
983.357	110.47
983.522	107.95
983.687	100.59
983.852	96.71
984.016	91.48
984.181	107.76
984.346	102.52
984.51	141.08
984.675	110.08
984.839	137.4
985.004	99.23
985.168	117.06
985.333	135.66
985.498	87.22
985.662	137.79
985.827	106.79
985.991	109.5
986.155	100.2
986.32	114.15
986.484	175.76
986.649	122.09
986.813	63.39
986.977	106.59
987.142	151.16
987.306	82.76
987.47	87.8
987.634	114.92
987.799	115.31
987.963	129.46
988.127	112.02
988.291	168.98
988.455	105.43
988.62	88.77
988.784	144.18
988.948	127.71
989.112	86.06
989.276	124.22
989.44	94.39
989.604	103.3
989.768	93.03
989.932	162.78
990.096	66.68
990.26	61.45
990.424	52.34
990.588	77.72
990.752	165.49
990.915	129.07
991.079	95.16
991.243	80.82
991.407	127.13
991.571	111.82
991.734	110.66
991.898	111.44
992.062	156.19
992.226	105.43
992.389	79.47
992.553	42.46
992.717	81.41
992.88	97.1
993.044	94.58
993.207	97.1
993.371	126.55
993.535	125.77
993.698	92.84
993.862	123.84
994.025	142.24
994.189	106.01
994.352	95.94
994.515	105.43
994.679	122.48
994.842	73.07
995.006	122.87
995.169	68.23
995.332	86.06
995.496	121.51
995.659	71.14
995.822	83.54
995.985	77.72
996.149	109.11
996.312	104.66
996.475	163.75
996.638	61.84
996.801	169.56
996.964	172.08
997.128	78.11
997.291	86.83
997.454	101.17
997.617	52.54
997.78	109.69
997.943	94.97
998.106	111.24
998.269	77.72
998.432	79.08
998.595	73.66
998.758	46.53
998.92	62.61
999.083	63.78
999.246	90.12
999.409	38.98
999.572	19.79
999.735	70.94
999.897	90.51
1000.06	63.58
1000.223	66.29
1000.386	124.61
1000.548	82.76
1000.711	102.72
1000.874	89.74
1001.036	41.49
1001.199	88.77
1001.361	57.77
1001.524	75.21
1001.687	99.42
1001.849	71.53
1002.012	67.84
1002.174	75.98
1002.337	109.11
1002.499	73.46
1002.661	93.22
1002.824	16.5
1002.986	17.86
1003.149	65.33
1003.311	56.8
1003.473	101.94
1003.636	65.91
1003.798	101.94
1003.96	73.27
1004.123	63.78
1004.285	51.18
1004.447	49.24
1004.609	52.93
1004.771	131.01
1004.933	31.23
1005.096	38.01
1005.258	28.51
1005.42	39.36
1005.582	94.97
1005.744	78.11
1005.906	42.66
1006.068	58.35
1006.23	31.23
1006.392	29.48
1006.554	37.04
1006.716	97.68
1006.878	83.34
1007.04	27.16
1007.202	61.84
1007.363	44.01
1007.525	82.96
1007.687	68.81
1007.849	67.46
1008.011	-7.33
1008.172	32.58
1008.334	58.93
1008.496	87.8
1008.658	14.56
1008.819	48.66
1008.981	20.18
1009.143	63.19
1009.304	53.12
1009.466	71.14
1009.627	104.07
1009.789	128.29
1009.95	56.22
1010.112	51.96
1010.273	79.66
1010.435	28.71
1010.596	26.96
1010.758	37.43
1010.919	42.85
1011.081	17.08
1011.242	34.91
1011.403	53.7
1011.565	58.54
1011.726	61.06
1011.887	0.03
1012.049	33.55
1012.21	69.98
1012.371	94.77
1012.532	-17.6
1012.693	33.94
1012.855	26.58
1013.016	52.93
1013.177	59.51
1013.338	68.62
1013.499	119.19
1013.66	72.3
1013.821	70.75
1013.982	57.77
1014.143	30.06
1014.304	37.62
1014.465	48.28
1014.626	64.94
1014.787	42.85
1014.948	113.57
1015.109	-26.32
1015.27	63.78
1015.431	29.29
1015.592	39.75
1015.752	62.03
1015.913	53.31
1016.074	52.34
1016.235	42.66
1016.395	63.97
1016.556	23.67
1016.717	26.38
1016.877	97.1
1017.038	27.54
1017.199	54.28
1017.359	64.16
1017.52	48.28
1017.681	27.54
1017.841	20.38
1018.002	57.19
1018.162	34.13
1018.323	85.86
1018.483	63.78
1018.644	42.85
1018.804	4.29
1018.964	14.56
1019.125	36.26
1019.285	56.41
1019.446	-5.78
1019.606	17.28
1019.766	6.23
1019.926	76.56
1020.087	44.21
1020.247	16.69
1020.407	56.41
1020.567	55.44
1020.728	36.84
1020.888	2.36
1021.048	29.29
1021.208	33.36
1021.368	-8.49
1021.528	65.91
1021.688	78.31
1021.848	71.72
1022.008	55.44
1022.168	38.98
1022.328	44.79
1022.488	59.71
1022.648	8.56
1022.808	30.84
1022.968	53.31
1023.128	16.69
1023.288	32.39
1023.448	34.71
1023.608	61.45
1023.767	43.82
1023.927	0.81
1024.087	10.49
1024.247	-0.36
1024.406	14.18
1024.566	-9.85
1024.726	6.62
1024.885	52.34
1025.045	63.78
1025.205	33.36
1025.364	-1.52
1025.524	43.43
1025.683	7.59
1025.843	34.33
1026.003	29.09
1026.162	94
1026.321	56.22
1026.481	33.16
1026.64	12.82
1026.8	43.04
1026.959	14.76
1027.119	31.23
1027.278	4.49
1027.437	3.71
1027.597	32.78
1027.756	39.94
1027.915	35.49
1028.074	47.11
1028.234	23.28
1028.393	35.1
1028.552	19.41
1028.711	-68.55
1028.87	50.02
1029.03	-8.3
1029.189	19.21
1029.348	-52.47
1029.507	-6.17
1029.666	10.88
1029.825	-5.97
1029.984	7.98
1030.143	23.48
1030.302	20.96
1030.461	-16.44
1030.62	26.19
1030.779	40.91
1030.938	13.79
1031.097	-14.31
1031.255	39.75
1031.414	70.94
1031.573	68.62
1031.732	-2.29
1031.891	16.31
1032.049	61.84
1032.208	58.16
1032.367	-9.85
1032.525	28.9
1032.684	20.76
1032.843	26.96
1033.001	-17.6
1033.16	137.4
1033.319	39.17
1033.477	27.35
1033.636	-5.59
1033.794	-7.91
1033.953	55.83
1034.111	44.59
1034.27	0.23
1034.428	43.82
1034.587	-10.62
1034.745	36.84
1034.903	-1.71
1035.062	46.14
1035.22	-12.95
1035.378	49.24
1035.537	-18.37
1035.695	56.61
1035.853	26.58
1036.011	56.99
1036.17	13.79
1036.328	-23.99
1036.486	39.94
1036.644	26.38
1036.802	-40.85
1036.96	-17.4
1037.119	25.99
1037.277	-10.62
1037.435	-33.49
1037.593	-15.27
1037.751	27.93
1037.909	31.42
1038.067	31.42
