Data from gum_young_FLMT105791__80__17-39-38-045.txt Node

Date: Mon Mar 20 17:39:38 GMT 2023
User: antho
Spectrometer: FLMT10579
Trigger mode: 0
Integration Time (sec): 1.000000E-1
Scans to average: 10
Electric dark correction enabled: true
Nonlinearity correction enabled: false
Boxcar width: 0
XAxis mode: Wavelengths
Number of Pixels in Spectrum: 3648
>>>>>Begin Spectral Data<<<<<
345.248	-150.4
345.464	-150.4
345.681	-150.4
345.898	-161.25
346.114	-162.21
346.331	-22.14
346.548	29.79
346.764	-18.84
346.981	-10.51
347.197	-19.81
347.414	35.6
347.631	-28.34
347.847	52.46
348.064	16.42
348.28	12.16
348.497	-40.15
348.713	-6.64
348.93	44.71
349.146	17.78
349.363	-10.12
349.579	2.86
349.796	18.36
350.012	-6.25
350.229	21.65
350.445	23.39
350.661	-27.17
350.878	-2.18
351.094	-4.7
351.311	31.34
351.527	35.21
351.743	-10.51
351.96	23.98
352.176	38.51
352.392	3.44
352.609	25.33
352.825	11.38
353.041	-5.28
353.257	-20.97
353.474	1.31
353.69	13.51
353.906	5.96
354.122	-20.97
354.339	52.65
354.555	1.7
354.771	-5.86
354.987	46.26
355.203	36.38
355.42	-12.84
355.636	-12.64
355.852	-18.84
356.068	14.68
356.284	-4.12
356.5	53.81
356.716	29.01
356.932	20.3
357.148	22.81
357.364	8.67
357.58	42.19
357.796	45.87
358.012	26.49
358.228	43.35
358.444	-26.98
358.66	31.53
358.876	14.87
359.092	10.03
359.308	-6.25
359.524	-3.54
359.74	-8.38
359.956	-24.65
360.172	1.11
360.388	37.54
360.604	-13.03
360.819	83.26
361.035	8.09
361.251	29.98
361.467	-11.67
361.683	32.89
361.898	34.44
362.114	33.86
362.33	16.03
362.546	48.97
362.762	7.31
362.977	30.56
363.193	-10.12
363.409	34.83
363.624	11.77
363.84	-10.7
364.056	-11.09
364.271	35.02
364.487	12.55
364.703	-22.33
364.918	-8.57
365.134	25.33
365.35	5.76
365.565	101.86
365.781	27.08
365.996	11.19
366.212	61.56
366.427	-9.74
366.643	-22.33
366.858	19.91
367.074	-3.34
367.289	38.12
367.505	97.02
367.72	-30.85
367.936	10.22
368.151	44.13
368.367	31.92
368.582	4.8
368.798	-0.24
369.013	76.29
369.228	8.48
369.444	30.18
369.659	46.64
369.874	49.94
370.09	38.51
370.305	-64.76
370.52	20.68
370.736	59.63
370.951	23.98
371.166	70.09
371.381	81.13
371.597	33.08
371.812	-4.5
372.027	5.76
372.242	40.25
372.458	73.19
372.673	-0.82
372.888	-2.95
373.103	26.3
373.318	84.04
373.533	24.56
373.749	15.26
373.964	-33.57
374.179	60.21
374.394	-14.97
374.609	83.26
374.824	-16.13
375.039	32.31
375.254	8.67
375.469	78.81
375.684	23.2
375.899	70.28
376.114	37.34
376.329	19.13
376.544	54.39
376.759	54.78
376.974	29.59
377.189	26.11
377.404	14.29
377.619	50.52
377.834	-26.4
378.049	-12.84
378.264	-6.64
378.478	7.12
378.693	20.68
378.908	34.83
379.123	-0.05
379.338	59.43
379.553	51.88
379.767	30.56
379.982	48.58
380.197	49.55
380.412	43.93
380.626	66.99
380.841	94.5
381.056	21.07
381.271	82.49
381.485	15.45
381.7	7.7
381.915	35.99
382.129	22.62
382.344	22.81
382.559	5.57
382.773	63.5
382.988	-33.18
383.202	36.18
383.417	8.28
383.632	122.4
383.846	18.75
384.061	49.16
384.275	13.9
384.49	30.18
384.704	60.01
384.919	54.59
385.133	30.76
385.348	52.84
385.562	-9.35
385.777	61.18
385.991	48.78
386.206	32.5
386.42	41.61
386.634	68.93
386.849	21.07
387.063	25.91
387.277	0.53
387.492	13.32
387.706	-23.49
387.92	10.41
388.135	27.27
388.349	34.63
388.563	47.23
388.778	52.46
388.992	24.36
389.206	50.91
389.42	82.88
389.635	41.41
389.849	58.27
390.063	59.04
390.277	41.8
390.491	102.06
390.706	32.69
390.92	64.66
391.134	26.11
391.348	66.21
391.562	-11.87
391.776	21.07
391.99	20.68
392.205	65.44
392.419	3.25
392.633	38.12
392.847	77.84
393.061	-1.21
393.275	56.53
393.489	23.59
393.703	43.54
393.917	75.71
394.131	34.63
394.345	79.78
394.559	75.13
394.773	19.91
394.986	43.35
395.2	25.14
395.414	67.38
395.628	38.7
395.842	52.65
396.056	21.85
396.27	3.63
396.484	40.64
396.697	32.69
396.911	80.36
397.125	70.48
397.339	72.8
397.553	55.75
397.766	89.27
397.98	59.04
398.194	90.63
398.408	46.26
398.621	99.34
398.835	81.13
399.049	46.64
399.262	98.96
399.476	86.75
399.69	88.3
399.903	127.05
400.117	57.88
400.331	77.84
400.544	44.13
400.758	150.88
400.971	86.17
401.185	108.84
401.398	53.81
401.612	117.36
401.826	73.19
402.039	72.22
402.253	47.42
402.466	103.61
402.68	60.98
402.893	89.08
403.106	85.59
403.32	61.95
403.533	107.09
403.747	86.36
403.96	91.79
404.174	95.08
404.387	28.82
404.6	83.84
404.814	120.27
405.027	74.74
405.24	86.36
405.454	54.59
405.667	101.28
405.88	53.81
406.094	89.27
406.307	121.04
406.52	82.1
406.733	68.34
406.947	59.82
407.16	147.01
407.373	107.29
407.586	66.41
407.799	52.07
408.012	112.52
408.226	107.87
408.439	126.66
408.652	49.94
408.865	103.8
409.078	142.74
409.291	83.46
409.504	44.51
409.717	119.88
409.93	100.12
410.143	117.56
410.357	32.31
410.57	55.75
410.783	65.63
410.996	90.63
411.209	96.44
411.421	134.8
411.634	101.86
411.847	69.89
412.06	93.14
412.273	91.01
412.486	105.74
412.699	156.69
412.912	106.9
413.125	120.66
413.338	93.92
413.55	104.77
413.763	102.06
413.976	110.97
414.189	89.85
414.402	101.09
414.615	128.6
414.827	81.52
415.04	148.75
415.253	140.81
415.466	113.49
415.678	177.23
415.891	117.36
416.104	112.13
416.316	110.77
416.529	100.51
416.742	106.32
416.954	168.9
417.167	116.78
417.38	99.54
417.592	138.29
417.805	62.92
418.017	82.1
418.23	137.32
418.442	75.9
418.655	99.54
418.868	105.54
419.08	120.27
419.293	136.16
419.505	131.51
419.718	118.52
419.93	164.06
420.142	86.17
420.355	169.48
420.567	182.27
420.78	147.78
420.992	134.22
421.205	170.64
421.417	80.55
421.629	114.65
421.842	84.04
422.054	79.97
422.266	137.9
422.479	157.66
422.691	101.48
422.903	155.92
423.115	112.13
423.328	115.04
423.54	130.92
423.752	145.84
423.964	87.72
424.177	122.4
424.389	141.58
424.601	217.72
424.813	135.96
425.025	136.54
425.238	161.92
425.45	123.17
425.662	119.3
425.874	392.1
426.086	119.88
426.298	139.26
426.51	149.72
426.722	127.24
426.934	123.95
427.146	139.06
427.358	113.29
427.57	161.34
427.782	142.36
427.994	130.92
428.206	122.21
428.418	85.59
428.63	163.67
428.842	173.16
429.054	136.35
429.266	155.92
429.478	98.76
429.69	129.37
429.902	100.7
430.114	133.64
430.325	164.83
430.537	95.66
430.749	127.24
430.961	75.32
431.173	112.91
431.384	130.54
431.596	63.31
431.808	115.62
432.02	147.97
432.231	176.46
432.443	164.83
432.655	172.19
432.867	132.09
433.078	157.86
433.29	213.27
433.502	189.63
433.713	182.07
433.925	185.17
434.136	154.17
434.348	120.46
434.56	109.81
434.771	244.46
434.983	114.84
435.194	140.22
435.406	137.71
435.617	209.59
435.829	231.48
436.04	193.51
436.252	187.89
436.463	218.5
436.675	216.95
436.886	187.89
437.098	233.61
437.309	252.4
437.521	205.52
437.732	189.44
437.943	189.44
438.155	167.16
438.366	134.61
438.578	231.87
438.789	177.62
439	224.31
439.211	184.21
439.423	199.51
439.634	224.89
439.845	185.76
440.057	231.48
440.268	221.79
440.479	190.02
440.69	200.29
440.902	188.66
441.113	179.17
441.324	159.02
441.535	246.4
441.746	263.06
441.957	172.19
442.168	188.86
442.38	211.91
442.591	215.98
442.802	180.52
443.013	199.32
443.224	228.77
443.435	209.97
443.646	167.54
443.857	204.94
444.068	211.72
444.279	201.25
444.49	273.14
444.701	219.47
444.912	306.85
445.123	245.62
445.334	246.59
445.545	219.85
445.756	251.44
445.967	184.98
446.178	236.32
446.388	246.2
446.599	240.97
446.81	235.35
447.021	217.34
447.232	238.26
447.443	272.55
447.653	197.38
447.864	269.26
448.075	249.5
448.286	261.51
448.496	257.05
448.707	293.87
448.918	227.41
449.129	317.31
449.339	239.42
449.55	262.09
449.761	252.99
449.971	265
450.182	255.89
450.393	266.94
450.603	270.04
450.814	301.62
451.024	286.5
451.235	290.38
451.446	316.73
451.656	339.2
451.867	249.89
452.077	294.83
452.288	363.62
452.498	302.58
452.709	262.48
452.919	289.22
453.13	264.03
453.34	302.39
453.55	233.61
453.761	307.04
453.971	298.13
454.182	290.38
454.392	308.78
454.602	353.73
454.813	299.1
455.023	302.97
455.233	247.56
455.444	294.83
455.654	234.97
455.864	283.79
456.075	292.12
456.285	251.05
456.495	275.27
456.705	297.35
456.916	314.21
457.126	351.02
457.336	291.15
457.546	237.49
457.756	284.57
457.967	338.23
458.177	285.34
458.387	302.97
458.597	294.83
458.807	298.52
459.017	287.28
459.227	277.98
459.437	283.02
459.647	333.97
459.857	335.52
460.068	312.66
460.278	350.05
460.488	302.39
460.698	372.72
460.908	329.9
461.117	263.84
461.327	288.83
461.537	327.38
461.747	313.24
461.957	343.27
462.167	407.21
462.377	353.15
462.587	341.92
462.797	342.69
463.007	338.82
463.216	327.38
463.426	370.4
463.636	373.69
463.846	293.09
464.056	318.86
464.265	366.33
464.475	304.72
464.685	348.5
464.895	352.38
465.104	338.04
465.314	355.28
465.524	338.23
465.733	310.14
465.943	407.01
466.153	395.78
466.362	392.68
466.572	364
466.782	344.05
466.991	345.6
467.201	385.31
467.41	269.45
467.62	367.68
467.829	331.45
468.039	380.66
468.249	352.57
468.458	354.7
468.668	350.63
468.877	385.9
469.086	373.88
469.296	408.18
469.505	383.96
469.715	423.1
469.924	392.68
470.134	416.31
470.343	445.18
470.552	366.33
470.762	353.54
470.971	364.2
471.18	374.27
471.39	403.14
471.599	360.13
471.808	411.08
472.018	380.28
472.227	402.17
472.436	430.07
472.645	401.4
472.855	373.88
473.064	446.73
473.273	391.51
473.482	439.37
473.691	466.69
473.901	439.18
474.11	411.47
474.319	481.99
474.528	404.88
474.737	467.46
474.946	433.95
475.155	418.83
475.364	502.53
475.573	443.25
475.783	445.76
475.992	475.02
476.201	497.3
476.41	425.81
476.619	429.68
476.828	448.86
477.037	454.48
477.245	451.19
477.454	512.22
477.663	461.07
477.872	460.49
478.081	501.37
478.29	469.01
478.499	553.29
478.708	509.89
478.917	546.9
479.125	496.53
479.334	512.8
479.543	491.68
479.752	525.01
479.961	513.58
480.169	547.09
480.378	507.76
480.587	612.58
480.796	534.89
481.004	518.61
481.213	538.57
481.422	586.23
481.63	557.56
481.839	559.69
482.048	599.99
482.256	573.83
482.465	565.69
482.674	592.82
482.882	587.2
483.091	655.4
483.299	585.46
483.508	579.26
483.716	620.52
483.925	588.75
484.134	594.95
484.342	577.12
484.551	638.93
484.759	604.06
484.967	617.04
485.176	625.95
485.384	641.06
485.593	655.59
485.801	604.06
486.01	565.11
486.218	564.72
486.426	545.74
486.635	545.74
486.843	529.27
487.051	553.87
487.26	537.6
487.468	629.44
487.676	622.85
487.885	614.91
488.093	602.31
488.301	624.21
488.509	627.11
488.717	658.89
488.926	643.97
489.134	608.12
489.342	670.9
489.55	590.49
489.758	637.19
489.967	645.71
490.175	741.42
490.383	668.57
490.591	728.05
490.799	674.39
491.007	718.17
491.215	719.14
491.423	680.59
491.631	696.28
491.839	702.09
492.047	732.12
492.255	647.07
492.463	627.5
492.671	678.07
492.879	745.3
493.087	716.24
493.295	730.38
493.503	734.25
493.711	763.7
493.919	769.52
494.127	765.25
494.334	764.48
494.542	733.87
494.75	758.47
494.958	734.64
495.166	803.42
495.374	780.75
495.581	781.92
495.789	760.6
495.997	830.74
496.205	747.23
496.412	773.39
496.62	756.34
496.828	792.38
497.035	780.95
497.243	842.17
497.451	799.16
497.658	791.99
497.866	802.07
498.074	873.95
498.281	794.12
498.489	892.74
498.696	815.24
498.904	795.09
499.112	789.28
499.319	894.87
499.527	818.73
499.734	866.2
499.942	791.41
500.149	826.86
500.357	841.01
500.564	833.06
500.771	841.01
500.979	808.65
501.186	783.08
501.394	846.82
501.601	822.8
501.808	856.51
502.016	837.91
502.223	832.87
502.43	849.92
502.638	866
502.845	852.63
503.052	930.33
503.26	883.25
503.467	942.53
503.674	903.98
503.881	905.72
504.089	946.6
504.296	894.87
504.503	859.8
504.71	892.35
504.917	878.01
505.125	936.72
505.332	904.56
505.539	944.08
505.746	1013.25
505.953	1012.09
506.16	991.74
506.367	1043.28
506.574	1037.66
506.781	1046.57
506.988	987.67
507.195	1006.47
507.402	997.36
507.609	1038.24
507.816	975.08
508.023	1010.54
508.23	1030.69
508.437	981.48
508.644	1042.51
508.851	1057.23
509.058	1073.12
509.265	1060.91
509.472	1101.02
509.679	1168.05
509.885	1089.78
510.092	1107.6
510.299	1116.9
510.506	1116.9
510.713	1162.05
510.92	1135.89
511.126	1158.95
511.333	1174.64
511.54	1191.3
511.746	1241.29
511.953	1241.87
512.16	1230.83
512.367	1193.05
512.573	1204.28
512.78	1195.95
512.987	1181.62
513.193	1226.95
513.4	1180.84
513.606	1209.13
513.813	1247.1
514.02	1228.31
514.226	1279.07
514.433	1298.64
514.639	1244.97
514.846	1256.6
515.052	1219.01
515.259	1306.78
515.465	1337.97
515.672	1302.51
515.878	1425.35
516.085	1316.27
516.291	1357.15
516.497	1346.69
516.704	1317.05
516.91	1273.06
517.117	1253.88
517.323	1229.08
517.529	1231.6
517.736	1245.55
517.942	1285.66
518.148	1287.98
518.354	1331
518.561	1330.8
518.767	1374.59
518.973	1433.29
519.179	1415.08
519.386	1415.47
519.592	1412.56
519.798	1428.84
520.004	1520.48
520.21	1488.51
520.417	1541.4
520.623	1562.72
520.829	1554.19
521.035	1573.95
521.241	1614.25
521.447	1623.55
521.653	1717.52
521.859	1606.5
522.065	1659.59
522.271	1732.25
522.477	1725.46
522.683	1762.08
522.889	1711.71
523.095	1727.98
523.301	1724.5
523.507	1708.03
523.713	1763.25
523.919	1693.88
524.125	1808.97
524.331	1799.67
524.537	1871.16
524.742	1878.91
524.948	1896.16
525.154	1891.31
525.36	1961.64
525.566	1906.81
525.772	1959.51
525.977	1823.11
526.183	1875.62
526.389	1968.04
526.595	1846.36
526.8	1873.49
527.006	1757.24
527.212	1760.15
527.417	1714.23
527.623	1753.56
527.829	1845.98
528.034	1857.41
528.24	1894.41
528.446	1875.04
528.651	1968.23
528.857	1957.96
529.062	2048.44
529.268	2027.9
529.473	2062.58
529.679	2066.07
529.884	2160.81
530.09	2087.19
530.295	2131.17
530.501	2116.25
530.706	2144.54
530.912	2110.25
531.117	2189.68
531.323	2175.93
531.528	2247.81
531.733	2198.01
531.939	2197.82
532.144	2189.1
532.35	2164.69
532.555	2216.23
532.76	2198.01
532.966	2158.68
533.171	2167.98
533.376	2098.23
533.581	2098.82
533.787	2136.6
533.992	2214.09
534.197	2197.63
534.402	2213.32
534.607	2233.66
534.813	2323.76
535.018	2198.6
535.223	2261.76
535.428	2228.43
535.633	2325.89
535.838	2321.43
536.043	2290.04
536.249	2413.46
536.454	2330.54
536.659	2358.82
536.864	2314.84
537.069	2324.72
537.274	2307.48
537.479	2317.75
537.684	2308.45
537.889	2285.2
538.094	2422.76
538.299	2317.56
538.504	2398.54
538.708	2357.47
538.913	2423.73
539.118	2364.25
539.323	2397.57
539.528	2346.62
539.733	2393.7
539.938	2390.02
540.142	2373.94
540.347	2326.08
540.552	2353.59
540.757	2314.07
540.962	2337.9
541.166	2288.3
541.371	2280.16
541.576	2320.66
541.781	2242.19
541.985	2351.46
542.19	2353.59
542.395	2486.31
542.599	2454.73
542.804	2436.32
543.008	2481.27
543.213	2393.31
543.418	2388.47
543.622	2439.04
543.827	2370.06
544.031	2484.57
544.236	2476.82
544.44	2464.22
544.645	2539.78
544.849	2488.25
545.054	2498.52
545.258	2570.78
545.463	2522.35
545.667	2501.81
545.872	2528.55
546.076	2506.07
546.281	2485.34
546.485	2453.95
546.689	2521.77
546.894	2534.55
547.098	2542.5
547.302	2511.5
547.507	2517.89
547.711	2557.61
547.915	2560.71
548.119	2492.32
548.324	2508.98
548.528	2539.59
548.732	2529.71
548.936	2570.98
549.141	2548.31
549.345	2520.02
549.549	2590.93
549.753	2573.3
549.957	2612.44
550.161	2637.43
550.366	2601.98
550.57	2527.97
550.774	2582.02
550.978	2565.36
551.182	2585.12
551.386	2538.82
551.59	2566.91
551.794	2570.4
551.998	2593.84
552.202	2577.95
552.406	2590.35
552.61	2625.61
552.814	2614.57
553.018	2624.26
553.222	2589
553.426	2546.18
553.63	2662.62
553.833	2581.05
554.037	2541.72
554.241	2621.55
554.445	2568.07
554.649	2603.53
554.853	2555.48
555.056	2609.73
555.26	2665.14
555.464	2630.07
555.668	2609.92
555.871	2610.31
556.075	2653.51
556.279	2584.54
556.483	2532.62
556.686	2573.88
556.89	2569.23
557.094	2579.11
557.297	2512.27
557.501	2579.7
557.704	2459.96
557.908	2531.26
558.112	2502
558.315	2571.95
558.519	2500.65
558.722	2476.43
558.926	2465.77
559.129	2384.4
559.333	2409.97
559.536	2413.46
559.74	2377.62
559.943	2366.96
560.147	2387.89
560.35	2425.09
560.553	2407.65
560.757	2350.3
560.96	2453.76
561.164	2404.94
561.367	2502.2
561.57	2442.72
561.774	2439.23
561.977	2406.68
562.18	2367.35
562.384	2468.68
562.587	2409.59
562.79	2376.84
562.993	2353.98
563.197	2386.53
563.4	2450.85
563.603	2431.09
563.806	2456.47
564.009	2398.93
564.212	2378.59
564.416	2339.26
564.619	2386.92
564.822	2292.18
565.025	2403.97
565.228	2317.56
565.431	2374.52
565.634	2241.99
565.837	2286.17
566.04	2258.85
566.243	2238.31
566.446	2171.28
566.649	2262.34
566.852	2171.47
567.055	2208.09
567.258	2209.25
567.461	2272.99
567.664	2299.92
567.867	2206.34
568.07	2221.84
568.273	2237.15
568.475	2271.83
568.678	2165.46
568.881	2167.4
569.084	2167.21
569.287	2053.28
569.489	2088.16
569.692	2157.91
569.895	2160.81
570.098	2038.17
570.3	2042.05
570.503	1996.52
570.706	2014.73
570.909	2015.5
571.111	1955.64
571.314	1967.84
571.516	1971.91
571.719	2000.59
571.922	1961.45
572.124	1979.66
572.327	1985.67
572.529	1925.02
572.732	1950.21
572.935	1974.24
573.137	2036.82
573.34	1978.5
573.542	2005.62
573.745	1962.42
573.947	1994.97
574.15	1945.56
574.352	1912.43
574.554	1963
574.757	1894.02
574.959	1871.94
575.162	1893.06
575.364	1850.43
575.566	1950.79
575.769	1839.78
575.971	1852.37
576.173	1752.98
576.376	1839.97
576.578	1854.11
576.78	1909.33
576.982	1770.41
577.185	1797.15
577.387	1794.24
577.589	1788.04
577.791	1825.05
577.993	1805.68
578.196	1811.1
578.398	1814.39
578.6	1787.85
578.802	1728.18
579.004	1725.66
579.206	1733.6
579.408	1794.63
579.61	1722.95
579.812	1811.29
580.014	1772.93
580.216	1749.68
580.418	1770.8
580.62	1754.33
580.822	1716.36
581.024	1756.27
581.226	1814.78
581.428	1761.7
581.63	1834.35
581.832	1780.88
582.034	1813.62
582.236	1792.5
582.438	1819.04
582.64	1838.42
582.841	1859.34
583.043	1876.59
583.245	1809.55
583.447	1805.29
583.649	1780.1
583.85	1770.61
584.052	1802.58
584.254	1757.43
584.456	1820.01
584.657	1765.76
584.859	1822.53
585.061	1744.45
585.262	1755.69
585.464	1702.41
585.666	1801.41
585.867	1739.8
586.069	1815.56
586.27	1743.87
586.472	1729.34
586.674	1707.25
586.875	1698.92
587.077	1699.89
587.278	1710.16
587.48	1704.73
587.681	1777.97
587.883	1739.61
588.084	1639.83
588.285	1655.91
588.487	1656.1
588.688	1658.23
588.89	1619.1
589.091	1537.14
589.292	1563.88
589.494	1494.52
589.695	1466.62
589.896	1394.16
590.098	1399.97
590.299	1417.79
590.5	1409.27
590.702	1485.41
590.903	1503.82
591.104	1581.12
591.305	1525.13
591.507	1574.73
591.708	1550.12
591.909	1504.21
592.11	1596.62
592.311	1596.43
592.512	1544.31
592.714	1499.17
592.915	1510.6
593.116	1518.35
593.317	1565.04
593.518	1560.39
593.719	1529.97
593.92	1567.95
594.121	1594.49
594.322	1554.58
594.523	1539.08
594.724	1493.74
594.925	1486.38
595.126	1559.81
595.327	1552.64
595.528	1544.31
595.729	1560.59
595.929	1529.39
596.13	1549.93
596.331	1563.1
596.532	1547.41
596.733	1592.36
596.934	1601.27
597.135	1571.44
597.335	1572.21
597.536	1506.14
597.737	1538.3
597.938	1519.9
598.138	1548.38
598.339	1526.49
598.54	1552.25
598.74	1507.5
598.941	1534.24
599.142	1580.93
599.342	1549.54
599.543	1500.52
599.744	1536.75
599.944	1530.75
600.145	1508.08
600.345	1518.15
600.546	1587.32
600.746	1569.11
600.947	1585
601.147	1536.17
601.348	1572.6
601.548	1529.39
601.749	1547.22
601.949	1457.12
602.15	1499.75
602.35	1480.57
602.551	1523.58
602.751	1469.14
602.951	1517.19
603.152	1428.84
603.352	1551.87
603.552	1488.71
603.753	1550.12
603.953	1508.47
604.153	1535.98
604.354	1527.26
604.554	1505.17
604.754	1509.24
604.954	1457.71
605.155	1521.84
605.355	1510.6
605.555	1511.57
605.755	1569.3
605.955	1532.3
606.155	1532.3
606.356	1523.19
606.556	1535.01
606.756	1517.38
606.956	1441.24
607.156	1539.85
607.356	1451.31
607.556	1488.9
607.756	1486.96
607.956	1531.52
608.156	1530.55
608.356	1481.34
608.556	1519.32
608.756	1449.57
608.956	1461.77
609.156	1463.91
609.356	1419.92
609.556	1396.48
609.755	1459.45
609.955	1421.28
610.155	1459.45
610.355	1439.11
610.555	1395.9
610.755	1383.69
610.954	1358.51
611.154	1434.26
611.354	1440.07
611.554	1379.63
611.753	1391.25
611.953	1337.97
612.153	1399.78
612.352	1382.14
612.552	1323.05
612.752	1314.53
612.951	1387.38
613.151	1369.36
613.351	1351.73
613.55	1351.14
613.75	1349.01
613.949	1322.28
614.149	1366.45
614.348	1370.33
614.548	1339.71
614.747	1301.74
614.947	1329.25
615.146	1269.19
615.346	1359.67
615.545	1317.43
615.745	1323.05
615.944	1322.66
616.144	1305.81
616.343	1315.3
616.542	1271.32
616.742	1303.29
616.941	1275.39
617.14	1237.22
617.34	1263.38
617.539	1253.69
617.738	1231.8
617.938	1311.81
618.137	1289.73
618.336	1229.08
618.535	1253.3
618.734	1260.08
618.934	1301.55
619.133	1304.65
619.332	1295.35
619.531	1215.13
619.73	1256.79
619.929	1287.79
620.128	1291.86
620.328	1318.4
620.527	1271.32
620.726	1234.9
620.925	1295.54
621.124	1276.16
621.323	1275.97
621.522	1207.77
621.721	1212.81
621.92	1194.6
622.119	1253.88
622.318	1215.52
622.517	1234.51
622.715	1219.01
622.914	1182.2
623.113	1206.42
623.312	1157.01
623.511	1204.87
623.71	1208.55
623.909	1186.46
624.107	1264.15
624.306	1154.49
624.505	1128.34
624.704	1173.28
624.902	1164.18
625.101	1218.62
625.3	1181.81
625.499	1124.27
625.697	1124.46
625.896	1126.59
626.095	1181.62
626.293	1117.1
626.492	1142.29
626.69	1178.32
626.889	1150.04
627.088	1162.05
627.286	1112.84
627.485	1108.38
627.683	1100.05
627.882	1135.5
628.08	1083.19
628.279	1095.79
628.477	1117.1
628.676	1093.27
628.874	1095.4
629.073	1052.19
629.271	1055.87
629.469	1098.89
629.668	1098.5
629.866	1094.24
630.065	1040.76
630.263	1083.19
630.461	1050.45
630.66	1063.62
630.858	1107.99
631.056	1116.52
631.254	1113.61
631.453	1061.3
631.651	1125.62
631.849	1091.33
632.047	1090.75
632.245	1063.04
632.444	1121.36
632.642	1101.99
632.84	1105.28
633.038	1103.54
633.236	1053.94
633.434	1075.44
633.632	1060.72
633.83	1059.75
634.028	1102.57
634.227	1110.12
634.425	1154.69
634.623	1090.94
634.821	1074.86
635.019	1090.75
635.216	1071.76
635.414	1130.85
635.612	1105.09
635.81	1082.42
636.008	1166.89
636.206	1093.65
636.404	1108.57
636.602	1055.29
636.8	1083.19
636.997	1119.42
637.195	1102.37
637.393	1064.4
637.591	1139.57
637.789	1090.36
637.986	1092.1
638.184	1081.84
638.382	1122.52
638.58	1113.03
638.777	1130.66
638.975	1046.19
639.173	1097.34
639.37	1097.72
639.568	1080.87
639.765	1073.12
639.963	1037.27
640.161	1094.04
640.358	1059.36
640.556	1048.71
640.753	1016.54
640.951	995.04
641.148	1053.16
641.346	1020.61
641.543	1044.83
641.741	1043.28
641.938	983.8
642.136	988.84
642.333	985.54
642.531	1031.07
642.728	1050.06
642.925	1011.31
643.123	1003.95
643.32	1012.47
643.517	983.22
643.715	1014.02
643.912	965.78
644.109	1015.38
644.306	1007.82
644.504	934.98
644.701	958.81
644.898	964.62
645.095	933.81
645.293	977.99
645.49	969.66
645.687	913.08
645.884	994.84
646.081	896.81
646.278	902.04
646.475	901.07
646.672	890.03
646.87	904.36
647.067	933.81
647.264	919.28
647.461	847.4
647.658	835
647.855	890.22
648.052	845.85
648.249	798.77
648.446	846.24
648.642	841.59
648.839	817.37
649.036	804.39
649.233	774.36
649.43	793.15
649.627	790.25
649.824	815.63
650.021	781.33
650.217	786.37
650.414	819.89
650.611	813.88
650.808	845.08
651.004	843.72
651.201	827.25
651.398	911.53
651.595	840.23
651.791	805.94
651.988	853.21
652.185	794.32
652.381	841.59
652.578	762.73
652.775	816.6
652.971	797.42
653.168	815.63
653.364	832.29
653.561	743.75
653.757	784.43
653.954	802.65
654.15	784.05
654.347	879.76
654.543	797.03
654.74	750.53
654.936	740.45
655.133	796.83
655.329	787.15
655.525	757.7
655.722	797.22
655.918	744.33
656.115	756.34
656.311	679.81
656.507	682.14
656.704	651.33
656.9	677.49
657.096	662.37
657.292	692.02
657.489	733.67
657.685	723.6
657.881	708.87
658.077	716.62
658.273	736.38
658.47	807.1
658.666	722.63
658.862	754.21
659.058	707.32
659.254	772.03
659.45	702.67
659.646	729.02
659.842	729.02
660.038	776.49
660.234	707.32
660.43	717.01
660.626	786.95
660.822	767
661.018	761.77
661.214	742.78
661.41	671.87
661.606	773.78
661.802	779.98
661.998	712.17
662.194	701.12
662.39	759.05
662.586	726.12
662.781	712.36
662.977	725.92
663.173	759.44
663.369	732.51
663.564	731.73
663.76	752.47
663.956	705.19
664.152	747.82
664.347	649.59
664.543	713.33
664.739	688.92
664.934	678.45
665.13	643.58
665.326	700.35
665.521	695.12
665.717	680.97
665.912	645.9
666.108	618.39
666.304	678.07
666.499	694.92
666.695	617.23
666.89	684.65
667.086	695.12
667.281	668.57
667.477	719.53
667.672	656.75
667.867	684.65
668.063	669.54
668.258	627.5
668.454	650.75
668.649	710.42
668.844	685.82
669.04	669.15
669.235	649.2
669.43	618.78
669.626	579.84
669.821	612.58
670.016	606.96
670.211	632.92
670.407	606.77
670.602	615.1
670.797	617.81
670.992	659.85
671.187	631.96
671.382	660.44
671.578	615.87
671.773	623.43
671.968	577.32
672.163	619.36
672.358	654.04
672.553	612.77
672.748	601.15
672.943	669.35
673.138	620.52
673.333	643.77
673.528	593.21
673.723	642.8
673.918	605.8
674.113	577.51
674.308	682.91
674.503	608.32
674.698	655.2
674.892	618.39
675.087	626.14
675.282	626.92
675.477	574.8
675.672	612.97
675.867	603.09
676.061	561.04
676.256	558.91
676.451	589.33
676.646	628.86
676.84	603.09
677.035	557.56
677.23	565.5
677.424	597.86
677.619	609.48
677.814	635.64
678.008	605.8
678.203	519.19
678.397	552.32
678.592	608.51
678.787	640.67
678.981	554.26
679.176	575.19
679.37	612.97
679.565	612.58
679.759	599.21
679.954	616.07
680.148	656.56
680.342	627.89
680.537	641.84
680.731	556.59
680.926	648.62
681.12	644.35
681.314	597.86
681.509	591.07
681.703	600.76
681.897	647.07
682.092	625.76
682.286	593.01
682.48	655.98
682.674	626.53
682.869	602.12
683.063	622.07
683.257	650.55
683.451	592.04
683.645	620.14
683.839	599.99
684.034	609.87
684.228	650.94
684.422	602.7
684.616	591.66
684.81	640.67
685.004	630.79
685.198	622.85
685.392	644.16
685.586	594.56
685.78	653.85
685.974	635.25
686.168	649.78
686.362	693.76
686.556	604.44
686.75	561.04
686.944	581.19
687.138	571.7
687.331	499.24
687.525	524.23
687.719	448.67
687.913	536.24
688.107	548.06
688.301	508.73
688.494	532.56
688.688	519.19
688.882	517.26
689.076	517.06
689.269	514.74
689.463	616.65
689.657	575.38
689.85	569.37
690.044	571.89
690.238	609.09
690.431	585.65
690.625	600.57
690.818	630.6
691.012	684.65
691.205	708.1
691.399	656.17
691.593	711.97
691.786	764.87
691.98	794.12
692.173	794.9
692.366	803.81
692.56	804.39
692.753	832.87
692.947	737.16
693.14	847.79
693.333	866.78
693.527	794.12
693.72	875.88
693.914	878.21
694.107	857.86
694.3	856.51
694.493	857.09
694.687	973.34
694.88	895.06
695.073	959.58
695.266	956.87
695.46	982.44
695.653	1016.35
695.846	1028.17
696.039	992.52
696.232	1054.71
696.425	1084.55
696.618	1132.4
696.812	1101.79
697.005	1171.73
697.198	1243.03
697.391	1179.48
697.584	1246.71
697.777	1287.6
697.97	1255.63
698.163	1323.05
698.356	1256.4
698.549	1389.89
698.742	1347.08
698.935	1282.56
699.127	1330.03
699.32	1328.86
699.513	1338.55
699.706	1344.36
699.899	1393.96
700.092	1364.32
700.285	1427.09
700.477	1369.74
700.67	1441.24
700.863	1438.72
701.056	1535.01
701.248	1509.24
701.441	1532.69
701.634	1506.72
701.826	1601.27
702.019	1538.69
702.212	1572.21
702.404	1535.2
702.597	1555.94
702.79	1600.11
702.982	1632.47
703.175	1681.1
703.367	1696.21
703.56	1724.3
703.752	1784.94
703.945	1756.85
704.137	1774.29
704.33	1825.24
704.522	1838.42
704.715	1861.67
704.907	1867.87
705.1	1868.45
705.292	1886.47
705.484	1885.69
705.677	1973.65
705.869	1935.87
706.061	1976.75
706.254	2022.09
706.446	1976.17
706.638	2002.72
706.831	2074.79
707.023	2036.23
707.215	2136.6
707.407	2118.38
707.599	2132.33
707.792	2171.47
707.984	2159.85
708.176	2210.8
708.368	2169.92
708.56	2202.47
708.752	2232.89
708.944	2218.55
709.136	2255.56
709.329	2247.61
709.521	2398.93
709.713	2330.73
709.905	2346.81
710.097	2389.05
710.289	2349.33
710.481	2393.12
710.672	2410.55
710.864	2404.35
711.056	2482.63
711.248	2481.47
711.44	2491.35
711.632	2499.1
711.824	2527.58
712.016	2550.44
712.207	2597.33
712.399	2596.75
712.591	2584.93
712.783	2625.23
712.975	2608.18
713.166	2553.73
713.358	2619.03
713.55	2664.75
713.741	2628.13
713.933	2670.95
714.125	2687.61
714.316	2641.31
714.508	2747.29
714.7	2739.34
714.891	2690.52
715.083	2747.67
715.274	2717.06
715.466	2762.79
715.657	2755.23
715.849	2685.09
716.04	2742.25
716.232	2673.08
716.423	2677.73
716.615	2602.17
716.806	2514.02
716.998	2494.64
717.189	2371.61
717.381	2317.36
717.572	2240.44
717.763	2259.43
717.955	2218.74
718.146	2179.22
718.337	2147.45
718.528	2090.48
718.72	2023.06
718.911	2062.78
719.102	2011.44
719.293	2100.56
719.485	2044.57
719.676	2032.55
719.867	1969.78
720.058	2025.19
720.249	1990.51
720.44	2019.96
720.632	2122.65
720.823	2134.08
721.014	2245.29
721.205	2325.5
721.396	2393.89
721.587	2507.62
721.778	2541.53
721.969	2606.05
722.16	2687.42
722.351	2722.88
722.542	2823.24
722.733	2850.75
722.924	2760.07
723.115	2799.79
723.305	2775.96
723.496	2750
723.687	2626.78
723.878	2638.6
724.069	2629.3
724.26	2642.28
724.45	2550.63
724.641	2532.03
724.832	2606.82
725.023	2548.31
725.213	2573.88
725.404	2527
725.595	2535.52
725.785	2527.58
725.976	2548.31
726.167	2602.95
726.357	2572.14
726.548	2703.89
726.739	2585.9
726.929	2692.46
727.12	2731.01
727.31	2758.72
727.501	2659.71
727.691	2629.1
727.882	2708.73
728.072	2709.89
728.263	2760.27
728.453	2774.02
728.644	2794.95
728.834	2747.29
729.024	2754.46
729.215	2753.1
729.405	2779.45
729.596	2836.02
729.786	2849.2
729.976	2891.24
730.167	2902.67
730.357	2867.41
730.547	2853.07
730.737	2931.54
730.928	2939.1
731.118	2971.84
731.308	2939.1
731.498	2955.37
731.688	3040.81
731.879	3056.9
732.069	3146.41
732.259	3144.28
732.449	3165.2
732.639	3285.32
732.829	3272.54
733.019	3318.65
733.209	3421.33
733.399	3409.9
733.589	3511.04
733.779	3580.21
733.969	3547.08
734.159	3646.08
734.349	3656.74
734.539	3721.45
734.729	3699.55
734.919	3714.28
735.109	3803.6
735.299	3731.72
735.488	3758.45
735.678	3744.7
735.868	3732.69
736.058	3733.85
736.248	3701.3
736.437	3723.77
736.627	3692.58
736.817	3844.09
737.007	3783.83
737.196	3821.81
737.386	3815.61
737.576	3739.47
737.765	3858.04
737.955	3834.6
738.144	3940.77
738.334	3930.5
738.524	3836.34
738.713	3898.53
738.903	3890.78
739.092	3944.84
739.282	3957.82
739.471	3942.32
739.661	3945.03
739.85	3957.43
740.04	3988.63
740.229	3971.19
740.419	4011.68
740.608	4076.39
740.797	4004.51
740.987	4087.44
741.176	4112.43
741.365	4053.34
741.555	4007.23
741.744	4164.16
741.933	4073.87
742.123	4117.47
742.312	4124.64
742.501	4185.28
742.69	4221.12
742.88	4095.38
743.069	4240.88
743.258	4192.25
743.447	4222.09
743.636	4225.58
743.825	4199.42
744.014	4200
744.204	4273.05
744.393	4166.1
744.582	4239.14
744.771	4313.35
744.96	4253.87
745.149	4286.22
745.338	4241.08
745.527	4310.05
745.716	4237.59
745.905	4182.76
746.094	4320.51
746.283	4294.36
746.471	4268.2
746.66	4307.92
746.849	4324.58
747.038	4323.42
747.227	4277.7
747.416	4309.47
747.604	4264.72
747.793	4273.82
747.982	4283.51
748.171	4318.96
748.359	4292.81
748.548	4319.35
748.737	4253.09
748.926	4290.29
749.114	4181.6
749.303	4273.05
749.491	4237.01
749.68	4167.84
749.869	4285.83
750.057	4237.78
750.246	4227.9
750.434	4219.18
750.623	4223.06
750.811	4173.07
751	4233.72
751.188	4193.22
751.377	4254.64
751.565	4178.69
751.754	4160.67
751.942	4169.78
752.131	4231.78
752.319	4213.95
752.507	4101.19
752.696	4213.37
752.884	4216.28
753.072	4124.25
753.261	4149.44
753.449	4158.74
753.637	4111.85
753.825	4206.01
754.014	4164.74
754.202	4179.08
754.39	4169
754.578	4197.29
754.766	4117.86
754.955	4107.2
755.143	4192.06
755.331	4167.07
755.519	4130.06
755.707	4175.98
755.895	4036.48
756.083	4119.79
756.271	4055.86
756.459	4099.06
756.647	4134.9
756.835	4065.74
757.023	4065.93
757.211	4065.35
757.399	4043.84
757.587	4059.15
757.775	3989.21
757.963	4021.76
758.151	4044.81
758.339	3980.49
758.526	3983.2
758.714	3977.97
758.902	3802.05
759.09	3732.49
759.278	3503.87
759.465	3199.88
759.653	2799.21
759.841	2517.31
760.028	2154.42
760.216	1891.12
760.404	1726.24
760.591	1450.54
760.779	1203.12
760.967	1037.86
761.154	853.41
761.342	892.55
761.529	842.56
761.717	923.93
761.905	915.41
762.092	971.01
762.28	932.26
762.467	917.73
762.655	818.15
762.842	844.5
763.029	892.55
763.217	863.68
763.404	880.92
763.592	895.84
763.779	856.12
763.966	915.99
764.154	946.21
764.341	991.74
764.528	1022.36
764.716	1119.62
764.903	1103.34
765.09	1261.05
765.277	1281.78
765.465	1446.66
765.652	1535.59
765.839	1653.39
766.026	1781.26
766.213	1864.77
766.4	1949.24
766.588	2161.78
766.775	2239.48
766.962	2355.72
767.149	2458.99
767.336	2583.57
767.523	2640.73
767.71	2765.69
767.897	2890.08
768.084	2954.4
768.271	3022.41
768.458	3077.43
768.645	3199.69
768.832	3218.67
769.019	3221.97
769.206	3245.61
769.392	3316.71
769.579	3399.44
769.766	3403.12
769.953	3371.93
770.14	3512.78
770.327	3465.51
770.513	3532.54
770.7	3580.01
770.887	3500.19
771.073	3556.76
771.26	3582.34
771.447	3554.44
771.634	3515.88
771.82	3634.07
772.007	3529.64
772.193	3577.49
772.38	3613.92
772.567	3602.68
772.753	3557.93
772.94	3630.97
773.126	3604.43
773.313	3645.69
773.499	3593.96
773.686	3633.49
773.872	3508.13
774.059	3599.19
774.245	3525.18
774.432	3535.06
774.618	3472.1
774.804	3556.96
774.991	3514.72
775.177	3546.88
775.363	3509.49
775.55	3535.84
775.736	3449.23
775.922	3544.56
776.109	3502.13
776.295	3490.89
776.481	3536.61
776.667	3518.21
776.853	3475.97
777.04	3466.86
777.226	3420.95
777.412	3555.79
777.598	3439.16
777.784	3418.82
777.97	3447.88
778.156	3489.92
778.342	3457.37
778.528	3427.15
778.715	3350.23
778.901	3352.17
779.087	3431.02
779.272	3357.98
779.458	3382.2
779.644	3418.62
779.83	3374.64
780.016	3423.27
780.202	3342.09
780.388	3372.12
780.574	3271.37
780.76	3351.97
780.946	3315.55
781.131	3334.73
781.317	3282.03
781.503	3269.24
781.689	3264.01
781.874	3404.28
782.06	3285.71
782.246	3312.25
782.432	3315.16
782.617	3311.67
782.803	3302.76
782.989	3209.76
783.174	3245.22
783.36	3199.49
783.545	3230.69
783.731	3226.62
783.916	3148.34
784.102	3232.04
784.288	3200.85
784.473	3190.39
784.659	3194.46
784.844	3176.82
785.029	3159.19
785.215	3174.89
785.4	3115.21
785.586	3221
785.771	3091.96
785.956	3185.74
786.142	3088.09
786.327	3093.51
786.512	3116.18
786.698	3099.91
786.883	3038.49
787.068	3085.18
787.254	3079.56
787.439	3077.63
787.624	3048.76
787.809	2992.57
787.994	2995.28
788.18	3046.63
788.365	2932.32
788.55	2986.95
788.735	2965.06
788.92	2957.7
789.105	2941.23
789.29	2995.09
789.475	2917.01
789.66	2915.65
789.845	2858.11
790.03	2878.65
790.215	2936.38
790.4	2882.91
790.585	2911
790.77	2868.77
790.955	2808.12
791.14	2869.35
791.325	2915.27
791.51	2796.5
791.695	2846.87
791.879	2860.24
792.064	2806.38
792.249	2920.3
792.434	2854.04
792.618	2820.72
792.803	2902.87
792.988	2848.23
793.173	2827.89
793.357	2891.24
793.542	2809.67
793.727	2889.89
793.911	2907.13
794.096	2847.65
794.281	2866.05
794.465	2932.51
794.65	2883.88
794.834	2916.82
795.019	2927.86
795.203	2962.54
795.388	2896.86
795.572	2949.95
795.757	2923.6
795.941	2908.48
796.126	2907.13
796.31	2844.74
796.494	2862.76
796.679	2866.25
796.863	2860.82
797.048	2948.4
797.232	2874.97
797.416	2894.15
797.601	2882.72
797.785	2929.02
797.969	2958.86
798.153	2914.68
798.338	2940.07
798.522	2981.14
798.706	2977.27
798.89	2982.11
799.074	3050.7
799.258	3011.17
799.443	2929.6
799.627	2915.85
799.811	2986.18
799.995	2914.3
800.179	2874.19
800.363	2905.19
800.547	2939.87
800.731	2947.82
800.915	2868.77
801.099	2889.89
801.283	2897.83
801.467	2917.4
801.651	2926.89
801.835	2916.82
802.019	2913.91
802.202	2874.19
802.386	2841.25
802.57	2833.12
802.754	2895.12
802.938	2830.4
803.121	2859.08
803.305	2888.14
803.489	2856.75
803.673	2882.52
803.856	2911.78
804.04	2854.82
804.224	2881.55
804.407	2838.35
804.591	2805.02
804.775	2858.89
804.958	2883.69
805.142	2970.48
805.326	2884.07
805.509	2911.78
805.693	2964.87
805.876	2941.81
806.06	2923.21
806.243	2965.06
806.427	2962.73
806.61	2955.95
806.794	2913.13
806.977	2984.43
807.16	2950.72
807.344	2939.48
807.527	2899.96
807.71	2932.7
807.894	2944.91
808.077	2904.22
808.26	2876.9
808.444	2872.25
808.627	2940.07
808.81	2837.77
808.993	2774.41
809.177	2853.07
809.36	2785.26
809.543	2815.68
809.726	2735.86
809.909	2718.61
810.092	2715.32
810.276	2704.86
810.459	2731.01
810.642	2695.56
810.825	2660.88
811.008	2683.74
811.191	2594.03
811.374	2592.68
811.557	2553.54
811.74	2641.31
811.923	2536.49
812.106	2543.47
812.289	2517.89
812.472	2499.48
812.654	2449.5
812.837	2455.89
813.02	2389.82
813.203	2389.05
813.386	2264.28
813.569	2216.23
813.751	2182.13
813.934	2183.87
814.117	2153.65
814.3	2118.77
814.482	2081.57
814.665	2031.59
814.848	1977.53
815.03	1940.52
815.213	1912.24
815.396	1914.95
815.578	1893.64
815.761	1867.29
815.943	1886.27
816.126	1801.03
816.309	1777.19
816.491	1701.63
816.674	1631.5
816.856	1720.81
817.039	1752.59
817.221	1839.39
817.403	1731.47
817.586	1724.69
817.768	1775.84
817.951	1650.48
818.133	1655.13
818.315	1680.71
818.498	1763.83
818.68	1791.34
818.862	1783.39
819.045	1756.85
819.227	1775.06
819.409	1745.03
819.591	1790.56
819.774	1778.16
819.956	1735.54
820.138	1835.9
820.32	1847.72
820.502	1888.41
820.684	1946.53
820.866	1934.91
821.048	1996.52
821.231	2044.18
821.413	2032.55
821.595	2021.9
821.777	2042.43
821.959	2033.13
822.141	2089.9
822.323	1939.94
822.505	1867.87
822.686	1771.77
822.868	1711.13
823.05	1596.04
823.232	1554.19
823.414	1466.62
823.596	1565.82
823.778	1566.98
823.96	1567.95
824.141	1595.27
824.323	1617.55
824.505	1741.55
824.687	1790.37
824.868	1868.45
825.05	1929.67
825.232	1948.27
825.413	2043.21
825.595	1980.24
825.777	1898.87
825.958	2000
826.14	1965.52
826.321	1998.07
826.503	1963.58
826.685	1971.91
826.866	1996.9
827.048	1993.03
827.229	1942.27
827.411	1891.31
827.592	1835.51
827.773	1816.14
827.955	1801.61
828.136	1777
828.318	1754.72
828.499	1807.23
828.68	1698.92
828.862	1747.36
829.043	1757.43
829.224	1762.08
829.406	1711.13
829.587	1734.96
829.768	1757.43
829.949	1761.31
830.131	1784.75
830.312	1772.74
830.493	1773.13
830.674	1776.03
830.855	1742.51
831.036	1756.08
831.218	1866.71
831.399	1849.66
831.58	1814.01
831.761	1801.61
831.942	1797.34
832.123	1772.35
832.304	1737.28
832.485	1769.44
832.666	1767.12
832.847	1806.06
833.028	1750.46
833.209	1793.66
833.389	1751.23
833.57	1678.19
833.751	1736.31
833.932	1790.76
834.113	1781.46
834.294	1786.49
834.475	1799.67
834.655	1860.51
834.836	1851.01
835.017	1841.71
835.198	1770.8
835.378	1784.94
835.559	1867.48
835.74	1799.09
835.92	1818.08
836.101	1803.93
836.281	1832.03
836.462	1858.76
836.643	1879.49
836.823	1870.58
837.004	1884.34
837.184	1905.84
837.365	1882.59
837.545	1887.63
837.726	1876.59
837.906	1893.64
838.087	1851.59
838.267	1890.34
838.448	1812.65
838.628	1871.16
838.808	1860.12
838.989	1891.12
839.169	1846.94
839.349	1881.82
839.53	1901.97
839.71	1906.81
839.89	1844.62
840.07	1926.19
840.251	1840.94
840.431	1925.02
840.611	1851.01
840.791	1859.73
840.971	1852.95
841.151	1842.49
841.332	1827.76
841.512	1889.96
841.692	1821.76
841.872	1863.22
842.052	1833.58
842.232	1858.96
842.412	1814.59
842.592	1867.48
842.772	1867.67
842.952	1872.52
843.132	1800.44
843.312	1835.13
843.492	1798.31
843.672	1871.36
843.851	1761.5
844.031	1855.08
844.211	1806.06
844.391	1806.64
844.571	1821.95
844.751	1851.21
844.93	1821.18
845.11	1775.84
845.29	1841.91
845.47	1843.46
845.649	1817.88
845.829	1866.32
846.009	1798.89
846.188	1804.51
846.368	1803.93
846.547	1797.34
846.727	1836.87
846.907	1776.03
847.086	1827.38
847.266	1821.18
847.445	1799.28
847.625	1823.89
847.804	1747.94
847.984	1800.83
848.163	1773.32
848.343	1786.11
848.522	1765.57
848.701	1793.47
848.881	1750.46
849.06	1747.55
849.239	1745.23
849.419	1772.93
849.598	1686.91
849.777	1677.03
849.957	1669.28
850.136	1631.11
850.315	1623.94
850.494	1628.2
850.674	1613.67
850.853	1646.8
851.032	1635.76
851.211	1691.95
851.39	1672.38
851.569	1592.94
851.748	1587.52
851.927	1655.72
852.107	1643.9
852.286	1609.8
852.465	1591.39
852.644	1637.89
852.823	1635.95
853.002	1635.76
853.181	1621.42
853.359	1606.89
853.538	1553.22
853.717	1658.43
853.896	1536.56
854.075	1475.92
854.254	1423.99
854.433	1399.19
854.611	1416.24
854.79	1343.78
854.969	1428.45
855.148	1453.44
855.327	1410.43
855.505	1479.21
855.684	1461.39
855.863	1474.37
856.041	1485.41
856.22	1541.99
856.399	1484.44
856.577	1542.76
856.756	1547.41
856.934	1634.98
857.113	1652.42
857.291	1537.53
857.47	1542.57
857.648	1555.55
857.827	1572.6
858.005	1601.66
858.184	1554.58
858.362	1650.1
858.541	1580.54
858.719	1567.75
858.898	1537.34
859.076	1528.62
859.254	1598.37
859.433	1521.64
859.611	1532.3
859.789	1515.05
859.967	1584.03
860.146	1589.45
860.324	1485.61
860.502	1504.59
860.68	1478.63
860.859	1484.64
861.037	1482.51
861.215	1510.99
861.393	1523.39
861.571	1505.76
861.749	1474.56
861.927	1508.66
862.105	1489.67
862.283	1502.27
862.461	1442.79
862.639	1467.39
862.817	1461.58
862.995	1486.77
863.173	1464.68
863.351	1466.81
863.529	1504.79
863.707	1489.48
863.885	1447.24
864.063	1397.84
864.241	1446.47
864.418	1491.42
864.596	1457.71
864.774	1400.94
864.952	1422.44
865.129	1491.22
865.307	1408.11
865.485	1367.81
865.663	1478.63
865.84	1363.54
866.018	1349.4
866.196	1247.88
866.373	1282.95
866.551	1242.07
866.728	1214.75
866.906	1277.33
867.084	1241.1
867.261	1278.88
867.439	1306.39
867.616	1322.47
867.794	1325.38
867.971	1336.42
868.149	1340.68
868.326	1367.81
868.503	1350.56
868.681	1344.36
868.858	1315.88
869.035	1299.8
869.213	1379.63
869.39	1287.6
869.567	1388.54
869.745	1330.22
869.922	1324.21
870.099	1362.58
870.276	1352.69
870.454	1330.61
870.631	1343.98
870.808	1339.71
870.985	1372.65
871.162	1363.35
871.339	1355.41
871.517	1270.93
871.694	1283.33
871.871	1343.98
872.048	1302.32
872.225	1301.74
872.402	1337.78
872.579	1264.15
872.756	1295.35
872.933	1253.88
873.11	1294.18
873.287	1326.35
873.463	1280.23
873.64	1264.54
873.817	1269.19
873.994	1235.28
874.171	1236.45
874.348	1247.1
874.524	1241.87
874.701	1262.21
874.878	1194.02
875.055	1260.47
875.231	1219.59
875.408	1245.94
875.585	1145.97
875.762	1237.8
875.938	1211.26
876.115	1209.13
876.291	1234.12
876.468	1213.39
876.645	1181.23
876.821	1200.22
876.998	1195.57
877.174	1229.86
877.351	1196.53
877.527	1169.6
877.704	1199.83
877.88	1195.76
878.057	1171.93
878.233	1230.25
878.409	1167.86
878.586	1229.67
878.762	1169.8
878.938	1180.26
879.115	1125.62
879.291	1173.28
879.467	1132.02
879.644	1163.21
879.82	1180.45
879.996	1134.54
880.172	1105.28
880.349	1106.05
880.525	1122.91
880.701	1095.59
880.877	1105.09
881.053	1145.97
881.229	1075.05
881.405	1191.5
881.581	1102.18
881.757	1122.91
881.933	1123.3
882.109	1155.27
882.285	1152.36
882.461	1098.89
882.637	1136.86
882.813	1100.82
882.989	1100.24
883.165	1173.28
883.341	1090.55
883.517	1151.2
883.693	1135.89
883.869	1121.55
884.044	1052.19
884.22	1138.41
884.396	1160.11
884.572	1129.5
884.747	1157.98
884.923	1107.99
885.099	1130.27
885.275	1150.04
885.45	1072.54
885.626	1093.27
885.801	1069.05
885.977	1100.05
886.153	1047.35
886.328	1127.95
886.504	1076.22
886.679	1118.65
886.855	1061.11
887.03	1114.77
887.206	1126.59
887.381	1090.17
887.557	1095.2
887.732	1100.44
887.908	1097.14
888.083	1135.12
888.258	1099.47
888.434	1069.63
888.609	1096.75
888.784	1143.64
888.96	1117.1
889.135	1079.7
889.31	1059.17
889.485	1094.43
889.661	1086.49
889.836	1138.8
890.011	1113.03
890.186	1119.42
890.361	1080.87
890.537	1118.65
890.712	1099.85
890.887	1114.19
891.062	1139.77
891.237	1151.2
891.412	1071.95
891.587	1064.98
891.762	1128.34
891.937	1170.96
892.112	1070.41
892.287	1085.71
892.462	1024.87
892.637	1024.1
892.812	982.44
892.987	1024.87
893.161	987.29
893.336	1016.16
893.511	995.62
893.686	1019.64
893.861	1000.07
894.035	1012.47
894.21	1002.21
894.385	941.76
894.56	933.62
894.734	917.93
894.909	899.13
895.084	904.17
895.258	875.69
895.433	890.8
895.608	860.19
895.782	826.28
895.957	803.23
896.131	825.7
896.306	766.42
896.48	754.21
896.655	775.52
896.829	704.42
897.004	712.17
897.178	680
897.353	699.19
897.527	731.35
897.701	738.32
897.876	668.19
898.05	748.98
898.224	732.51
898.399	746.46
898.573	720.89
898.747	621.88
898.921	633.12
899.096	574.22
899.27	540.31
899.444	563.56
899.618	607.35
899.792	604.83
899.967	643.19
900.141	674.77
900.315	607.35
900.489	602.7
900.663	620.33
900.837	596.11
901.011	585.26
901.185	640.29
901.359	594.17
901.533	642.22
901.707	636.99
901.881	617.81
902.055	589.33
902.229	602.89
902.403	664.7
902.576	624.01
902.75	636.02
902.924	732.51
903.098	698.41
903.272	743.75
903.446	755.76
903.619	749.56
903.793	789.08
903.967	757.12
904.14	812.33
904.314	808.07
904.488	808.07
904.661	801.29
904.835	809.81
905.009	827.06
905.182	898.16
905.356	841.2
905.529	799.16
905.703	767.97
905.876	749.17
906.05	723.79
906.223	698.99
906.397	654.62
906.57	645.32
906.744	654.04
906.917	621.88
907.09	627.69
907.264	605.22
907.437	594.37
907.61	568.02
907.784	570.15
907.957	583.52
908.13	506.02
908.304	601.92
908.477	508.93
908.65	558.14
908.823	525.01
908.996	601.73
909.17	540.12
909.343	514.54
909.516	549.03
909.689	522.88
909.862	502.34
910.035	513.77
910.208	506.41
910.381	488
910.554	616.07
910.727	500.01
910.9	541.09
911.073	554.07
911.246	598.24
911.419	573.83
911.592	567.44
911.765	550.58
911.938	536.63
912.11	544.38
912.283	540.31
912.456	591.46
912.629	533.73
912.802	479.48
912.974	458.94
913.147	448.67
913.32	385.9
913.493	417.86
913.665	470.95
913.838	460.68
914.01	484.13
914.183	483.54
914.356	458.75
914.528	520.55
914.701	539.73
914.873	512.22
915.046	476.38
915.218	416.7
915.391	371.36
915.563	404.88
915.736	452.16
915.908	460.88
916.081	438.79
916.253	446.15
916.425	467.46
916.598	470.76
916.77	478.89
916.942	439.56
917.115	392.29
917.287	442.08
917.459	420.19
917.632	361.1
917.804	363.03
917.976	429.49
918.148	420.38
918.32	445.18
918.493	459.91
918.665	510.28
918.837	477.34
919.009	540.7
919.181	526.36
919.353	512.8
919.525	472.5
919.697	509.51
919.869	515.51
920.041	534.11
920.213	611.81
920.385	530.24
920.557	490.71
920.729	557.94
920.901	517.06
921.073	509.51
921.244	476.57
921.416	528.69
921.588	488.97
921.76	495.17
921.932	579.64
922.103	534.69
922.275	524.04
922.447	519.97
922.619	421.93
922.79	475.21
922.962	464.36
923.134	475.6
923.305	454.1
923.477	425.23
923.648	388.22
923.82	463.39
923.991	403.33
924.163	376.21
924.335	400.62
924.506	391.32
924.677	461.46
924.849	391.13
925.02	410.31
925.192	414.18
925.363	426.58
925.535	432.01
925.706	420.96
925.877	460.29
926.049	395.78
926.22	435.11
926.391	438.98
926.562	452.55
926.734	392.68
926.905	455.45
927.076	372.14
927.247	404.88
927.419	366.33
927.59	354.9
927.761	342.69
927.932	347.53
928.103	342.88
928.274	298.32
928.445	314.21
928.616	289.6
928.787	276.24
928.958	293.67
929.129	284.57
929.3	284.37
929.471	241.94
929.642	201.45
929.813	139.64
929.984	225.67
930.155	186.72
930.326	226.05
930.496	176.46
930.667	137.71
930.838	170.26
931.009	136.16
931.18	141
931.35	161.73
931.521	133.44
931.692	78.42
931.863	84.43
932.033	103.22
932.204	117.36
932.374	132.28
932.545	65.83
932.716	131.31
932.886	128.6
933.057	53.04
933.227	64.47
933.398	132.28
933.568	57.88
933.739	44.9
933.909	22.43
934.08	58.46
934.25	10.8
934.421	18.75
934.591	65.83
934.761	7.31
934.932	12.55
935.102	45.68
935.272	59.63
935.443	45.87
935.613	27.27
935.783	50.33
935.953	-6.44
936.123	174.91
936.294	19.91
936.464	47.61
936.634	29.21
936.804	15.84
936.974	18.75
937.144	53.23
937.314	40.06
937.484	6.35
937.655	26.11
937.825	57.88
937.995	29.4
938.165	50.13
938.334	16.23
938.504	73.58
938.674	63.89
938.844	29.4
939.014	104.58
939.184	66.21
939.354	136.93
939.524	141.39
939.694	85.98
939.863	110.39
940.033	139.26
940.203	137.71
940.373	93.34
940.542	140.81
940.712	87.33
940.882	125.11
941.051	116.78
941.221	104.19
941.391	141.39
941.56	61.18
941.73	87.72
941.899	168.9
942.069	75.71
942.238	123.56
942.408	102.83
942.577	84.04
942.747	84.04
942.916	44.51
943.086	62.92
943.255	106.9
943.425	86.75
943.594	55.94
943.763	26.88
943.933	47.03
944.102	1.11
944.271	58.46
944.441	56.91
944.61	48
944.779	53.43
944.948	138.09
945.117	58.85
945.287	45.48
945.456	0.15
945.625	36.76
945.794	91.98
945.963	29.98
946.132	84.23
946.301	44.71
946.47	113.87
946.639	-18.07
946.808	34.24
946.977	56.53
947.146	105.35
947.315	44.9
947.484	74.16
947.653	69.89
947.822	23.39
947.991	17.2
948.16	119.49
948.329	79.39
948.498	48.39
948.666	71.44
948.835	106.9
949.004	32.31
949.173	18.16
949.341	44.9
949.51	85.2
949.679	87.14
949.847	66.79
950.016	126.27
950.185	109.81
950.353	33.28
950.522	69.31
950.69	109.61
950.859	41.61
951.028	122.59
951.196	94.69
951.365	54.78
951.533	68.73
951.701	101.86
951.87	102.64
952.038	27.27
952.207	74.16
952.375	108.84
952.543	72.8
952.712	75.32
952.88	32.31
953.048	117.75
953.217	74.16
953.385	66.6
953.553	116.78
953.721	20.1
953.89	78.42
954.058	35.41
954.226	29.01
954.394	55.17
954.562	11.77
954.73	57.49
954.898	60.98
955.067	98.76
955.235	79.39
955.403	93.14
955.571	105.93
955.739	87.14
955.907	45.09
956.075	73.58
956.243	33.86
956.41	68.15
956.578	44.32
956.746	35.99
956.914	60.01
957.082	86.56
957.25	88.49
957.418	65.63
957.585	86.17
957.753	97.21
957.921	75.13
958.089	83.26
958.256	92.18
958.424	74.16
958.592	87.91
958.759	70.67
958.927	93.14
959.095	53.04
959.262	59.43
959.43	50.71
959.597	42.96
959.765	74.93
959.932	41.22
960.1	86.94
960.267	44.32
960.435	83.84
960.602	105.35
960.77	47.23
960.937	40.44
961.104	74.54
961.272	46.84
961.439	55.94
961.606	85.78
961.774	93.14
961.941	56.14
962.108	70.67
962.275	81.33
962.443	121.43
962.61	104.19
962.777	129.37
962.944	93.34
963.111	101.28
963.278	111.55
963.446	83.26
963.613	75.71
963.78	91.21
963.947	82.49
964.114	108.06
964.281	153.21
964.448	94.69
964.615	96.05
964.782	118.72
964.949	122.79
965.116	99.15
965.282	124.72
965.449	98.18
965.616	50.13
965.783	97.21
965.95	79.19
966.117	54.39
966.283	95.47
966.45	92.95
966.617	93.53
966.784	143.13
966.95	122.79
967.117	126.66
967.284	82.49
967.45	94.31
967.617	135.57
967.784	119.49
967.95	122.79
968.117	96.63
968.283	144.49
968.45	208.42
968.616	116.78
968.783	160.37
968.949	103.22
969.116	159.02
969.282	136.16
969.449	126.66
969.615	121.24
969.781	72.8
969.948	105.16
970.114	79.19
970.28	134.41
970.447	110.39
970.613	158.05
970.779	110.19
970.945	116.01
971.112	136.93
971.278	105.35
971.444	102.44
971.61	165.61
971.776	83.46
971.942	129.18
972.108	154.17
972.275	85.2
972.441	113.1
972.607	170.26
972.773	79.39
972.939	118.72
973.105	100.89
973.271	71.44
973.437	100.12
973.602	89.27
973.768	122.21
973.934	97.99
974.1	109.42
974.266	26.49
974.432	115.62
974.598	105.16
974.763	137.71
974.929	86.94
975.095	144.49
975.261	57.69
975.426	59.04
975.592	89.46
975.758	173.74
975.923	61.37
976.089	55.94
976.255	123.76
976.42	123.56
976.586	116.78
976.751	100.7
976.917	162.89
977.082	122.4
977.248	73.19
977.413	49.94
977.579	86.17
977.744	120.07
977.91	79.39
978.075	76.87
978.24	113.87
978.406	101.48
978.571	78.61
978.736	55.17
978.902	102.83
979.067	80.55
979.232	50.33
979.397	82.29
979.563	144.49
979.728	55.56
979.893	87.91
980.058	78.81
980.223	140.61
980.388	105.54
980.554	127.63
980.719	86.17
980.884	96.05
981.049	112.91
981.214	81.52
981.379	106.51
981.544	97.21
981.709	85.98
981.874	74.35
982.039	83.65
982.204	136.54
982.368	87.33
982.533	49.74
982.698	111.16
982.863	137.71
983.028	84.81
983.193	112.71
983.357	102.83
983.522	122.21
983.687	81.13
983.852	100.89
984.016	89.66
984.181	103.03
984.346	101.28
984.51	102.44
984.675	104.19
984.839	84.43
985.004	82.49
985.168	144.29
985.333	148.56
985.498	64.66
985.662	123.17
985.827	116.01
985.991	106.32
986.155	83.07
986.32	140.81
986.484	156.89
986.649	97.02
986.813	39.48
986.977	85.2
987.142	124.14
987.306	38.12
987.47	77.06
987.634	77.06
987.799	88.49
987.963	93.73
988.127	86.36
988.291	158.82
988.455	96.63
988.62	73.38
988.784	125.69
988.948	122.59
989.112	51.88
989.276	103.61
989.44	92.18
989.604	57.88
989.768	78.03
989.932	139.06
990.096	49.74
990.26	53.43
990.424	53.23
990.588	98.38
990.752	127.82
990.915	122.21
991.079	79.39
991.243	82.68
991.407	137.9
991.571	65.44
991.734	101.48
991.898	100.89
992.062	166.38
992.226	69.51
992.389	38.12
992.553	36.38
992.717	50.91
992.88	99.93
993.044	68.73
993.207	113.29
993.371	109.22
993.535	91.4
993.698	92.95
993.862	122.21
994.025	112.91
994.189	97.02
994.352	72.41
994.515	89.85
994.679	145.65
994.842	70.28
995.006	121.43
995.169	35.6
995.332	82.29
995.496	119.11
995.659	28.82
995.822	61.76
995.985	70.48
996.149	98.18
996.312	81.33
996.475	137.71
996.638	76.87
996.801	125.89
996.964	118.52
997.128	83.46
997.291	90.82
997.454	91.21
997.617	33.86
997.78	114.84
997.943	71.83
998.106	111.36
998.269	60.21
998.432	55.94
998.595	72.99
998.758	32.89
998.92	39.48
999.083	31.34
999.246	59.43
999.409	40.25
999.572	19.91
999.735	64.66
999.897	81.13
1000.06	61.37
1000.223	52.65
1000.386	90.63
1000.548	101.28
1000.711	84.43
1000.874	76.48
1001.036	16.42
1001.199	90.63
1001.361	9.25
1001.524	67.38
1001.687	104.58
1001.849	18.55
1002.012	51.88
1002.174	86.75
1002.337	74.16
1002.499	52.46
1002.661	105.54
1002.824	16.81
1002.986	50.33
1003.149	74.93
1003.311	33.86
1003.473	100.89
1003.636	37.15
1003.798	112.32
1003.96	56.72
1004.123	67.76
1004.285	25.53
1004.447	48.97
1004.609	61.56
1004.771	82.1
1004.933	50.91
1005.096	21.84
1005.258	-4.7
1005.42	46.45
1005.582	83.65
1005.744	59.24
1005.906	24.17
1006.068	72.61
1006.23	24.17
1006.392	3.05
1006.554	22.23
1006.716	75.51
1006.878	61.95
1007.04	9.83
1007.202	30.76
1007.363	54.78
1007.525	58.08
1007.687	63.5
1007.849	65.44
1008.011	-7.41
1008.172	11.58
1008.334	39.09
1008.496	47.61
1008.658	-7.6
1008.819	20.1
1008.981	5.18
1009.143	6.73
1009.304	34.05
1009.466	74.54
1009.627	101.28
1009.789	129.96
1009.95	51.29
1010.112	15.45
1010.273	28.04
1010.435	55.75
1010.596	42.96
1010.758	42.38
1010.919	25.33
1011.081	0.92
1011.242	36.96
1011.403	54.01
1011.565	21.65
1011.726	31.73
1011.887	16.61
1012.049	35.6
1012.21	58.27
1012.371	75.51
1012.532	-17.68
1012.693	48
1012.855	43.35
1013.016	42.96
1013.177	62.34
1013.338	33.86
1013.499	79.39
1013.66	60.59
1013.821	55.36
1013.982	72.22
1014.143	42.58
1014.304	34.05
1014.465	61.37
1014.626	39.28
1014.787	18.55
1014.948	93.73
1015.109	-32.79
1015.27	86.56
1015.431	29.21
1015.592	8.48
1015.752	64.86
1015.913	47.61
1016.074	43.54
1016.235	49.36
1016.395	20.88
1016.556	43.16
1016.717	36.38
1016.877	96.24
1017.038	-0.44
1017.199	36.18
1017.359	38.51
1017.52	41.61
1017.681	21.84
1017.841	29.01
1018.002	31.73
1018.162	10.61
1018.323	70.86
1018.483	21.07
1018.644	-1.21
1018.804	15.26
1018.964	7.12
1019.125	2.86
1019.285	17
1019.446	20.68
1019.606	-2.95
1019.766	-8.19
1019.926	36.76
1020.087	31.34
1020.247	-9.15
1020.407	36.96
1020.567	73.77
1020.728	3.63
1020.888	5.38
1021.048	11
1021.208	-3.54
1021.368	-14.97
1021.528	62.14
1021.688	52.65
1021.848	60.4
1022.008	12.55
1022.168	16.42
1022.328	24.94
1022.488	42.19
1022.648	12.93
1022.808	12.16
1022.968	42.58
1023.128	11.96
1023.288	-13.22
1023.448	21.07
1023.608	52.84
1023.767	41.61
1023.927	8.67
1024.087	1.7
1024.247	-3.92
1024.406	11
1024.566	-9.74
1024.726	6.73
1024.885	24.17
1025.045	54.98
1025.205	35.99
1025.364	2.86
1025.524	32.89
1025.683	17.97
1025.843	0.92
1026.003	26.49
1026.162	60.4
1026.321	64.66
1026.481	27.85
1026.64	15.65
1026.8	28.43
1026.959	7.51
1027.119	31.14
1027.278	2.86
1027.437	10.03
1027.597	20.1
1027.756	7.51
1027.915	22.43
1028.074	29.59
1028.234	-3.73
1028.393	22.81
1028.552	4.6
1028.711	-30.85
1028.87	23.2
1029.03	-2.37
1029.189	29.21
1029.348	-53.14
1029.507	-26.59
1029.666	16.81
1029.825	-15.35
1029.984	4.02
1030.143	36.57
1030.302	-2.18
1030.461	-22.72
1030.62	13.13
1030.779	33.28
1030.938	-10.32
1031.097	-13.03
1031.255	15.84
1031.414	55.75
1031.573	34.63
1031.732	-25.62
1031.891	10.03
1032.049	47.42
1032.208	23.2
1032.367	-26.01
1032.525	18.55
1032.684	23.98
1032.843	20.88
1033.001	-34.34
1033.16	139.45
1033.319	32.31
1033.477	52.26
1033.636	1.5
1033.794	-45.39
1033.953	48.78
1034.111	38.89
1034.27	-12.25
1034.428	21.65
1034.587	-28.92
1034.745	14.29
1034.903	7.9
1035.062	18.16
1035.22	-0.82
1035.378	17
1035.537	-1.99
1035.695	11.19
1035.853	12.35
1036.011	35.02
1036.17	14.68
1036.328	-41.51
1036.486	33.47
1036.644	15.06
1036.802	-66.89
1036.96	-13.8
1037.119	5.38
1037.277	-7.22
1037.435	-29.11
1037.593	-28.14
1037.751	2.86
1037.909	27.85
1038.067	27.85
