Data from gum_young_FLMT105791__126__17-40-54-040.txt Node

Date: Mon Mar 20 17:40:54 GMT 2023
User: antho
Spectrometer: FLMT10579
Trigger mode: 0
Integration Time (sec): 1.000000E-1
Scans to average: 10
Electric dark correction enabled: true
Nonlinearity correction enabled: false
Boxcar width: 0
XAxis mode: Wavelengths
Number of Pixels in Spectrum: 3648
>>>>>Begin Spectral Data<<<<<
345.248	-144.55
345.464	-144.55
345.681	-144.55
345.898	-150.17
346.114	-134.09
346.331	-29.08
346.548	48.42
346.764	-0.6
346.981	-6.8
347.197	-9.9
347.414	8.12
347.631	-20.36
347.847	58.5
348.064	-36.83
348.28	44.93
348.497	-50.97
348.713	-5.44
348.93	42.03
349.146	17.03
349.363	-26.56
349.579	-10.48
349.796	-3.5
350.012	-9.51
350.229	23.62
350.445	9.48
350.661	-30.43
350.878	3.47
351.094	37.76
351.311	17.81
351.527	-2.73
351.743	-19.78
351.96	48.03
352.176	32.53
352.392	42.03
352.609	22.46
352.825	-5.25
353.041	-6.6
353.257	-5.83
353.474	0.57
353.69	-7.77
353.906	7.35
354.122	-9.7
354.339	35.25
354.555	14.13
354.771	-25.4
354.987	44.74
355.203	51.52
355.42	-3.31
355.636	0.18
355.852	4.05
356.068	-2.73
356.284	-9.12
356.5	55.01
356.716	12.19
356.932	2.12
357.148	24.01
357.364	-16.1
357.58	37.57
357.796	43.38
358.012	32.73
358.228	24.98
358.444	-43.22
358.66	72.64
358.876	25.56
359.092	0.95
359.308	8.51
359.524	25.17
359.74	-19.78
359.956	-3.5
360.172	18.39
360.388	41.25
360.604	-20.55
360.819	85.23
361.035	35.83
361.251	20.52
361.467	-30.63
361.683	26.53
361.898	24.2
362.114	14.51
362.33	-5.83
362.546	69.54
362.762	7.15
362.977	26.72
363.193	-24.04
363.409	43.58
363.624	-6.6
363.84	-7.57
364.056	-10.87
364.271	50.94
364.487	22.85
364.703	-24.23
364.918	7.73
365.134	35.25
365.35	-8.73
365.565	81.36
365.781	27.3
365.996	31.95
366.212	75.74
366.427	16.84
366.643	14.71
366.858	-2.34
367.074	-10.09
367.289	63.73
367.505	88.91
367.72	-37.02
367.936	-22.88
368.151	38.93
368.367	38.93
368.582	30.21
368.798	12
369.013	55.78
369.228	10.83
369.444	8.9
369.659	53.85
369.874	13.35
370.09	74.19
370.305	-49.42
370.52	-5.05
370.736	23.81
370.951	35.63
371.166	57.91
371.381	48.42
371.597	37.96
371.812	-7.38
372.027	17.42
372.242	24.4
372.458	80.2
372.673	7.73
372.888	14.9
373.103	26.53
373.318	95.89
373.533	31.37
373.749	53.07
373.964	-7.96
374.179	79.61
374.394	-18.81
374.609	68.57
374.824	-8.15
375.039	66.25
375.254	5.41
375.469	52.88
375.684	22.85
375.899	40.28
376.114	5.8
376.329	33.5
376.544	55.78
376.759	31.56
376.974	-7.96
377.189	26.14
377.404	8.7
377.619	49.97
377.834	-3.5
378.049	0.76
378.264	-8.93
378.478	21.68
378.693	17.23
378.908	51.52
379.123	-5.44
379.338	55.01
379.553	31.37
379.767	41.83
379.982	40.09
380.197	50.36
380.412	5.99
380.626	21.1
380.841	85.23
381.056	53.07
381.271	96.28
381.485	30.21
381.7	16.06
381.915	36.02
382.129	-8.73
382.344	36.8
382.559	22.85
382.773	41.06
382.988	-43.22
383.202	14.13
383.417	-12.8
383.632	116.04
383.846	32.73
384.061	17.81
384.275	12.96
384.49	63.73
384.704	47.65
384.919	40.86
385.133	24.4
385.348	59.85
385.562	-14.93
385.777	49.58
385.991	48.61
386.206	4.44
386.42	22.46
386.634	79.03
386.849	49.97
387.063	26.72
387.277	4.05
387.492	15.48
387.706	-2.73
387.92	8.9
388.135	69.54
388.349	40.09
388.563	27.69
388.778	41.25
388.992	60.63
389.206	49
389.42	110.23
389.635	43.96
389.849	62.37
390.063	95.31
390.277	56.75
390.491	112.16
390.706	63.73
390.92	76.51
391.134	34.28
391.348	81.36
391.562	7.35
391.776	50.94
391.99	42.22
392.205	47.84
392.419	19.55
392.633	22.85
392.847	97.63
393.061	13.16
393.275	77.1
393.489	51.33
393.703	36.99
393.917	76.51
394.131	26.91
394.345	35.44
394.559	87.17
394.773	36.41
394.986	61.01
395.2	43.38
395.414	98.02
395.628	25.75
395.842	61.4
396.056	53.46
396.27	-25.98
396.484	66.44
396.697	67.6
396.911	86.78
397.125	56.75
397.339	75.35
397.553	66.25
397.766	85.23
397.98	68.38
398.194	83.68
398.408	46.1
398.621	82.91
398.835	72.64
399.049	58.3
399.262	123.98
399.476	84.85
399.69	104.03
399.903	155.18
400.117	82.33
400.331	124.56
400.544	79.81
400.758	208.65
400.971	92.98
401.185	118.75
401.398	58.5
401.612	116.04
401.826	96.66
402.039	123.01
402.253	59.85
402.466	122.43
402.68	71.86
402.893	120.69
403.106	99.76
403.32	86.4
403.533	104.61
403.747	98.41
403.96	111.39
404.174	107.71
404.387	76.51
404.6	96.08
404.814	138.71
405.027	100.93
405.24	80.97
405.454	91.24
405.667	142.97
405.88	63.92
406.094	116.23
406.307	138.71
406.52	114.88
406.733	70.9
406.947	76.9
407.16	151.49
407.373	138.13
407.586	81.16
407.799	72.83
408.012	116.62
408.226	105.38
408.439	157.31
408.652	86.78
408.865	110.23
409.078	146.84
409.291	123.21
409.504	77.29
409.717	117.59
409.93	111.39
410.143	119.33
410.357	50.36
410.57	63.73
410.783	101.12
410.996	109.45
411.209	109.26
411.421	178.43
411.634	103.44
411.847	101.12
412.06	132.51
412.273	120.69
412.486	107.13
412.699	213.49
412.912	121.27
413.125	163.31
413.338	147.43
413.55	142.58
413.763	126.11
413.976	150.91
414.189	123.4
414.402	124.76
414.615	160.02
414.827	138.32
415.04	160.02
415.253	146.65
415.466	183.07
415.678	199.54
415.891	126.69
416.104	131.34
416.316	152.27
416.529	131.15
416.742	156.53
416.954	194.12
417.167	142.58
417.38	138.13
417.592	182.11
417.805	134.25
418.017	99.57
418.23	205.55
418.442	121.46
418.655	147.04
418.868	153.04
419.08	160.79
419.293	176.29
419.505	146.84
419.718	138.9
419.93	182.49
420.142	125.92
420.355	186.17
420.567	168.93
420.78	157.69
420.992	151.3
421.205	198.38
421.417	104.03
421.629	151.3
421.842	115.84
422.054	157.69
422.266	180.36
422.479	199.16
422.691	163.89
422.903	169.32
423.115	123.4
423.328	154.98
423.54	159.63
423.752	171.26
423.964	154.59
424.177	174.16
424.389	161.57
424.601	246.62
424.813	185.4
425.025	214.85
425.238	188.89
425.45	166.03
425.662	167.96
425.874	421
426.086	161.18
426.298	184.62
426.51	196.25
426.722	202.64
426.934	153.24
427.146	209.04
427.358	142.39
427.57	212.33
427.782	144.52
427.994	175.33
428.206	147.04
428.418	139.09
428.63	184.62
428.842	194.12
429.054	189.27
429.266	197.99
429.478	146.65
429.69	184.04
429.902	109.45
430.114	202.84
430.325	207.1
430.537	150.91
430.749	166.61
430.961	103.25
431.173	143.94
431.384	170.29
431.596	103.25
431.808	178.43
432.02	182.11
432.231	221.63
432.443	258.06
432.655	188.5
432.867	173.97
433.078	223.37
433.29	260.57
433.502	241.78
433.713	222.02
433.925	227.83
434.136	249.53
434.348	154.59
434.56	140.64
434.771	288.47
434.983	133.28
435.194	193.15
435.406	219.31
435.617	228.8
435.829	260.96
436.04	226.67
436.252	251.66
436.463	260.57
436.675	244.88
436.886	270.45
437.098	251.08
437.309	288.67
437.521	243.14
437.732	223.18
437.943	227.64
438.155	245.07
438.366	205.36
438.578	316.57
438.789	251.66
439	250.11
439.211	214.46
439.423	243.72
439.634	262.9
439.845	276.27
440.057	263.09
440.268	274.72
440.479	220.27
440.69	266.39
440.902	244.3
441.113	255.54
441.324	255.92
441.535	266.58
441.746	320.05
441.957	252.05
442.168	281.69
442.38	322.19
442.591	287.89
442.802	270.26
443.013	269.49
443.224	313.85
443.435	246.62
443.646	286.73
443.857	268.91
444.068	266.58
444.279	278.79
444.49	335.55
444.701	303.59
444.912	365.39
445.123	296.42
445.334	321.6
445.545	280.14
445.756	294.67
445.967	272.2
446.178	298.74
446.388	342.14
446.599	323.35
446.81	316.76
447.021	286.34
447.232	339.43
447.443	376.24
447.653	309.01
447.864	369.85
448.075	319.86
448.286	350.28
448.496	320.25
448.707	335.17
448.918	320.83
449.129	415.96
449.339	321.6
449.55	327.42
449.761	309.4
449.971	401.04
450.182	333.04
450.393	354.54
450.603	341.37
450.814	390.38
451.024	385.93
451.235	395.42
451.446	430.88
451.656	400.85
451.867	359.19
452.077	387.09
452.288	409.57
452.498	418.87
452.709	359.58
452.919	356.48
453.13	325.67
453.34	387.87
453.55	302.42
453.761	370.23
453.971	362.87
454.182	398.13
454.392	395.42
454.602	449.28
454.813	382.05
455.023	401.04
455.233	346.21
455.444	369.85
455.654	311.72
455.864	384.77
456.075	349.5
456.285	372.75
456.495	401.82
456.705	379.53
456.916	422.35
457.126	429.52
457.336	400.85
457.546	327.22
457.756	366.17
457.967	425.26
458.177	384.77
458.387	364.81
458.597	361.52
458.807	356.29
459.017	390.77
459.227	386.12
459.437	413.44
459.647	390.19
459.857	438.43
460.068	379.34
460.278	443.67
460.488	431.65
460.698	454.13
460.908	428.17
461.117	360.93
461.327	392.9
461.537	420.61
461.747	434.37
461.957	413.25
462.167	521.16
462.377	455.29
462.587	430.3
462.797	476.6
463.007	444.44
463.216	450.25
463.426	523.88
463.636	452.77
463.846	379.73
464.056	428.17
464.265	482.03
464.475	395.81
464.685	450.45
464.895	447.35
465.104	418.09
465.314	480.28
465.524	434.56
465.733	396
465.943	501.21
466.153	499.85
466.362	478.15
466.572	468.46
466.782	444.05
466.991	479.9
467.201	507.8
467.41	405.5
467.62	481.45
467.829	429.33
468.039	495.01
468.249	474.66
468.458	457.42
468.668	495.4
468.877	526.59
469.086	548.29
469.296	502.18
469.505	480.86
469.715	566.5
469.924	502.37
470.134	512.06
470.343	533.37
470.552	488.81
470.762	489.39
470.971	468.66
471.18	516.51
471.39	492.68
471.599	476.99
471.808	501.4
472.018	489.39
472.227	550.42
472.436	568.44
472.645	549.64
472.855	489
473.064	580.45
473.273	561.27
473.482	565.53
473.691	572.7
473.901	600.6
474.11	539.18
474.319	642.64
474.528	594.4
474.737	633.54
474.946	613.39
475.155	592.66
475.364	609.51
475.573	593.04
475.783	627.72
475.992	620.75
476.201	642.06
476.41	604.28
476.619	578.51
476.828	613.78
477.037	572.51
477.245	598.28
477.454	631.99
477.663	625.98
477.872	622.11
478.081	688.56
478.29	622.11
478.499	692.05
478.708	670.93
478.917	706.77
479.125	664.73
479.334	697.86
479.543	697.86
479.752	706
479.961	684.88
480.169	708.71
480.378	668.8
480.587	790.67
480.796	725.37
481.004	695.15
481.213	727.5
481.422	719.37
481.63	720.53
481.839	768.97
482.048	773.23
482.256	751.92
482.465	728.09
482.674	774
482.882	776.33
483.091	833.87
483.299	784.27
483.508	811.01
483.716	781.17
483.925	807.13
484.134	742.23
484.342	774.59
484.551	815.66
484.759	806.94
484.967	822.05
485.176	840.65
485.384	826.7
485.593	850.34
485.801	810.82
486.01	801.71
486.218	774.97
486.426	703.48
486.635	743
486.843	737.58
487.051	748.24
487.26	710.45
487.468	788.34
487.676	795.7
487.885	795.12
488.093	826.12
488.301	841.04
488.509	851.12
488.717	873.01
488.926	877.08
489.134	870.1
489.342	894.9
489.55	842.78
489.758	847.05
489.967	864.29
490.175	1005.73
490.383	897.23
490.591	999.72
490.799	896.65
491.007	972.01
491.215	959.42
491.423	950.51
491.631	920.67
491.839	939.85
492.047	976.28
492.255	896.65
492.463	865.65
492.671	913.31
492.879	963.49
493.087	968.72
493.295	955.74
493.503	974.34
493.711	1025.88
493.919	1021.81
494.127	1018.71
494.334	1014.83
494.542	965.81
494.75	1015.22
494.958	997.78
495.166	1092.33
495.374	1076.44
495.581	1045.25
495.789	1058.04
495.997	1077.8
496.205	1053.58
496.412	1061.33
496.62	1055.52
496.828	1078.57
497.035	1069.08
497.243	1103.96
497.451	1072.57
497.658	1091.36
497.866	1076.06
498.074	1173.9
498.281	1065.59
498.489	1203.15
498.696	1109.38
498.904	1041.57
499.112	1068.69
499.319	1173.9
499.527	1125.07
499.734	1168.28
499.942	1085.55
500.149	1112.87
500.357	1158.98
500.564	1098.14
500.771	1150.84
500.979	1105.51
501.186	1094.66
501.394	1131.86
501.601	1110.35
501.808	1152.97
502.016	1147.35
502.223	1116.36
502.43	1154.52
502.638	1148.9
502.845	1140.77
503.052	1254.88
503.26	1130.69
503.467	1223.89
503.674	1191.72
503.881	1208.97
504.089	1257.79
504.296	1224.66
504.503	1176.22
504.71	1202.77
504.917	1208
505.125	1219.43
505.332	1215.75
505.539	1268.06
505.746	1347.5
505.953	1314.56
506.16	1331.41
506.367	1337.61
506.574	1396.32
506.781	1383.73
506.988	1318.05
507.195	1350.21
507.402	1366.87
507.609	1389.73
507.816	1331.61
508.023	1390.31
508.23	1338.2
508.437	1276.97
508.644	1373.26
508.851	1429.64
509.058	1434.88
509.265	1425.38
509.472	1469.94
509.679	1560.81
509.885	1454.25
510.092	1508.31
510.299	1474.4
510.506	1484.67
510.713	1514.31
510.92	1481.76
511.126	1531.17
511.333	1571.86
511.54	1568.56
511.746	1582.7
511.953	1603.05
512.16	1635.79
512.367	1578.06
512.573	1560.81
512.78	1621.07
512.987	1586.19
513.193	1608.28
513.4	1562.17
513.606	1619.71
513.813	1611.96
514.02	1634.63
514.226	1698.57
514.433	1672.8
514.639	1637.73
514.846	1627.65
515.052	1644.9
515.259	1696.43
515.465	1694.69
515.672	1726.08
515.878	1796.8
516.085	1761.73
516.291	1810.55
516.497	1759.21
516.704	1699.92
516.91	1676.48
517.117	1613.32
517.323	1603.63
517.529	1645.09
517.736	1625.52
517.942	1621.84
518.148	1685.2
518.354	1730.53
518.561	1755.14
518.767	1729.76
518.973	1768.7
519.179	1844.65
519.386	1818.69
519.592	1805.9
519.798	1828.96
520.004	1965.16
520.21	1932.03
520.417	2002.36
520.623	2038.4
520.829	2079.86
521.035	2041.11
521.241	2088.58
521.447	2081.8
521.653	2250.16
521.859	2147.48
522.065	2154.26
522.271	2216.45
522.477	2195.72
522.683	2237.76
522.889	2197.27
523.095	2181.77
523.301	2191.85
523.507	2162.98
523.713	2249.2
523.919	2222.26
524.125	2293.37
524.331	2278.45
524.537	2371.26
524.742	2380.36
524.948	2396.64
525.154	2432.87
525.36	2497.77
525.566	2431.71
525.772	2456.7
525.977	2401.87
526.183	2466.77
526.389	2472
526.595	2398.38
526.8	2359.63
527.006	2293.56
527.212	2250.94
527.417	2242.8
527.623	2217.03
527.829	2352.46
528.034	2398.57
528.24	2403.81
528.446	2459.8
528.651	2516.76
528.857	2565.58
529.062	2588.83
529.268	2586.12
529.473	2638.63
529.679	2655.29
529.884	2761.85
530.09	2713.22
530.295	2708.96
530.501	2730.27
530.706	2693.07
530.912	2712.45
531.117	2744.03
531.323	2748.87
531.528	2785.29
531.733	2823.66
531.939	2762.82
532.144	2778.32
532.35	2786.65
532.555	2831.99
532.76	2781.61
532.966	2759.14
533.171	2715.74
533.376	2659.36
533.581	2700.24
533.787	2715.35
533.992	2781.81
534.197	2788.78
534.402	2828.69
534.607	2801.18
534.813	2875.58
535.018	2827.14
535.223	2847.87
535.428	2839.35
535.633	2905.03
535.838	2926.92
536.043	2958.31
536.249	3037.94
536.454	2947.85
536.659	3014.5
536.864	2939.52
537.069	2894.18
537.274	2926.73
537.479	2927.7
537.684	2968.39
537.889	2897.67
538.094	3065.65
538.299	2962.57
538.504	3020.31
538.708	2994.93
538.913	3031.35
539.118	3042.4
539.323	3031.55
539.528	2981.56
539.733	2979.82
539.938	2984.85
540.142	3010.62
540.347	2966.06
540.552	2936.22
540.757	2916.07
540.962	2956.37
541.166	2884.3
541.371	2895.92
541.576	2926.34
541.781	2847.68
541.985	2984.85
542.19	2931.38
542.395	3059.45
542.599	3103.23
542.804	3088.9
543.008	3104.59
543.213	3052.28
543.418	2997.25
543.622	3098.97
543.827	2984.85
544.031	3100.33
544.236	3104.2
544.44	3134.04
544.645	3195.07
544.849	3138.69
545.054	3140.63
545.258	3184.22
545.463	3161.74
545.667	3092.77
545.872	3200.88
546.076	3163.49
546.281	3159.23
546.485	3122.41
546.689	3184.99
546.894	3185.58
547.098	3165.81
547.302	3105.75
547.507	3134.81
547.711	3175.11
547.915	3204.95
548.119	3120.09
548.324	3129.58
548.528	3193.52
548.732	3158.84
548.936	3228.39
549.141	3218.9
549.345	3207.86
549.549	3219.48
549.753	3289.62
549.957	3283.22
550.161	3274.7
550.366	3303.18
550.57	3194.1
550.774	3253
550.978	3215.41
551.182	3216.19
551.386	3199.72
551.59	3184.61
551.794	3187.51
551.998	3237.69
552.202	3261.33
552.406	3190.81
552.61	3247.77
552.814	3218.9
553.018	3313.45
553.222	3217.54
553.426	3222.19
553.63	3305.7
553.833	3244.86
554.037	3168.72
554.241	3250.29
554.445	3253.39
554.649	3265.4
554.853	3213.28
555.056	3288.07
555.26	3302.41
555.464	3212.7
555.668	3268.69
555.871	3261.91
556.075	3273.92
556.279	3218.32
556.483	3207.08
556.686	3148.18
556.89	3168.91
557.094	3200.88
557.297	3063.9
557.501	3204.95
557.704	3096.65
557.908	3165.43
558.112	3075.72
558.315	3132.88
558.519	3089.28
558.722	3040.85
558.926	3030.77
559.129	2999.97
559.333	3011.2
559.536	3036.78
559.74	2969.35
559.943	2941.45
560.147	3007.52
560.35	2998.8
560.553	3028.06
560.757	2959.86
560.96	3048.79
561.164	3021.67
561.367	3085.99
561.57	3039.3
561.774	3018.57
561.977	2996.28
562.18	2961.8
562.384	3050.15
562.587	2951.53
562.79	2956.18
562.993	2926.73
563.197	2945.52
563.4	3026.7
563.603	3032.13
563.806	3039.88
564.009	2931.38
564.212	2943.59
564.416	2897.86
564.619	2929.05
564.822	2831.99
565.025	2961.99
565.228	2855.62
565.431	2914.14
565.634	2795.76
565.837	2836.83
566.04	2780.64
566.243	2783.94
566.446	2701.98
566.649	2813.39
566.852	2736.08
567.055	2756.62
567.258	2805.06
567.461	2848.46
567.664	2835.28
567.867	2752.55
568.07	2735.5
568.273	2773.67
568.475	2831.99
568.678	2693.85
568.881	2679.9
569.084	2668.46
569.287	2579.73
569.489	2612.86
569.692	2637.66
569.895	2617.7
570.098	2524.7
570.3	2536.91
570.503	2533.42
570.706	2513.66
570.909	2513.08
571.111	2487.7
571.314	2429.19
571.516	2457.28
571.719	2493.9
571.922	2440.62
572.124	2435.97
572.327	2458.25
572.529	2437.32
572.732	2406.52
572.935	2475.49
573.137	2512.89
573.34	2406.91
573.542	2492.15
573.745	2424.54
573.947	2425.12
574.15	2369.12
574.352	2360.41
574.554	2427.25
574.757	2369.71
574.959	2339.68
575.162	2338.9
575.364	2295.89
575.566	2406.52
575.769	2269.73
575.971	2337.16
576.173	2202.7
576.376	2266.05
576.578	2297.63
576.78	2332.89
576.982	2196.69
577.185	2264.31
577.387	2230.01
577.589	2222.46
577.791	2272.06
577.993	2311.19
578.196	2211.22
578.398	2232.92
578.6	2262.56
578.802	2166.85
579.004	2127.72
579.206	2168.02
579.408	2193.98
579.61	2161.23
579.812	2251.33
580.014	2165.3
580.216	2166.08
580.418	2179.25
580.62	2205.41
580.822	2182.35
581.024	2189.52
581.226	2231.76
581.428	2175.18
581.63	2296.08
581.832	2195.53
582.034	2243.58
582.236	2226.72
582.438	2261.01
582.64	2257.72
582.841	2282.91
583.043	2309.84
583.245	2265.66
583.447	2257.91
583.649	2259.66
583.85	2246.87
584.052	2254.43
584.254	2215.87
584.456	2255.01
584.657	2211.41
584.859	2251.52
585.061	2225.36
585.262	2192.62
585.464	2133.92
585.666	2212
585.867	2148.25
586.069	2206.18
586.27	2135.47
586.472	2116.09
586.674	2123.65
586.875	2161.23
587.077	2160.65
587.278	2149.22
587.48	2140.7
587.681	2226.14
587.883	2130.43
588.084	2080.83
588.285	2095.17
588.487	2085.67
588.688	2074.82
588.89	1968.26
589.091	1922.15
589.292	1915.56
589.494	1880.88
589.695	1841.36
589.896	1773.93
590.098	1763.47
590.299	1851.82
590.5	1793.7
590.702	1858.79
590.903	1907.04
591.104	1920.99
591.305	1954.51
591.507	1976.01
591.708	1947.34
591.909	1920.99
592.11	1974.85
592.311	1954.51
592.512	1919.24
592.714	1893.86
592.915	1900.64
593.116	1895.61
593.317	1940.56
593.518	1923.31
593.719	1959.74
593.92	1964.97
594.121	1998.29
594.322	1959.16
594.523	1935.32
594.724	1887.66
594.925	1871.39
595.126	1904.71
595.327	1904.91
595.528	1891.73
595.729	1919.44
595.929	1903.55
596.13	1906.65
596.331	1928.16
596.532	1957.41
596.733	2008.37
596.934	1939.01
597.135	1971.36
597.335	1967.49
597.536	1940.36
597.737	1952.57
597.938	1892.12
598.138	1968.84
598.339	1941.14
598.54	1950.24
598.74	1926.61
598.941	1934.36
599.142	1954.89
599.342	1915.37
599.543	1865.96
599.744	1906.46
599.944	1891.34
600.145	1885.34
600.345	1941.72
600.546	1966.13
600.746	1954.12
600.947	1995.77
601.147	1902.19
601.348	1951.21
601.548	1919.05
601.749	1919.24
601.949	1864.61
602.15	1927.38
602.35	1877.78
602.551	1945.21
602.751	1869.64
602.951	1882.24
603.152	1829.93
603.352	1954.51
603.552	1901.61
603.753	1951.99
603.953	1939.78
604.153	1899.68
604.354	1906.65
604.554	1893.48
604.754	1891.15
604.954	1849.69
605.155	1921.96
605.355	1887.86
605.555	1928.35
605.755	1924.67
605.955	1917.11
606.155	1898.13
606.356	1881.66
606.556	1932.03
606.756	1906.65
606.956	1843.1
607.156	1958.19
607.356	1850.27
607.556	1887.08
607.756	1904.71
607.956	1912.46
608.156	1895.03
608.356	1838.45
608.556	1860.93
608.756	1836.9
608.956	1828.96
609.156	1822.95
609.356	1802.03
609.556	1781.68
609.755	1832.06
609.955	1779.55
610.155	1806.29
610.355	1840.2
610.555	1763.66
610.755	1753.2
610.954	1706.9
611.154	1796.6
611.354	1817.33
611.554	1769.28
611.753	1775.48
611.953	1718.91
612.153	1823.73
612.352	1791.76
612.552	1697.21
612.752	1692.75
612.951	1752.04
613.151	1752.82
613.351	1687.91
613.55	1733.83
613.75	1745.84
613.949	1659.04
614.149	1710
614.348	1682.29
614.548	1665.05
614.747	1610.99
614.947	1700.89
615.146	1610.99
615.346	1721.43
615.545	1701.28
615.745	1689.46
615.944	1687.72
616.144	1624.75
616.343	1621.45
616.542	1619.71
616.742	1605.95
616.941	1611.77
617.14	1555.58
617.34	1622.42
617.539	1560.81
617.738	1552.29
617.938	1683.07
618.137	1628.04
618.336	1566.62
618.535	1632.5
618.734	1616.42
618.934	1612.35
619.133	1613.51
619.332	1662.92
619.531	1576.31
619.73	1619.9
619.929	1631.92
620.128	1615.84
620.328	1644.7
620.527	1594.14
620.726	1599.56
620.925	1593.36
621.124	1581.35
621.323	1605.95
621.522	1524.77
621.721	1539.5
621.92	1508.11
622.119	1585.61
622.318	1542.6
622.517	1541.05
622.715	1543.18
622.914	1482.54
623.113	1512.18
623.312	1432.36
623.511	1531.56
623.71	1496.68
623.909	1495.52
624.107	1570.5
624.306	1462.97
624.505	1481.57
624.704	1468.78
624.902	1471.69
625.101	1529.62
625.3	1493.39
625.499	1419.18
625.697	1440.69
625.896	1450.18
626.095	1470.72
626.293	1412.4
626.492	1480.41
626.69	1477.31
626.889	1423.44
627.088	1477.11
627.286	1437.39
627.485	1429.84
627.683	1384.31
627.882	1437.2
628.08	1302.55
628.279	1336.26
628.477	1396.9
628.676	1341.3
628.874	1373.46
629.073	1348.85
629.271	1384.5
629.469	1393.22
629.668	1354.66
629.866	1329.86
630.065	1345.75
630.263	1415.89
630.461	1328.51
630.66	1363.77
630.858	1373.46
631.056	1438.17
631.254	1417.83
631.453	1356.21
631.651	1412.21
631.849	1369.78
632.047	1376.36
632.245	1422.09
632.444	1405.04
632.642	1390.12
632.84	1391.67
633.038	1371.13
633.236	1353.31
633.434	1388.57
633.632	1375.2
633.83	1388.18
634.028	1430.03
634.227	1390.12
634.425	1428.29
634.623	1406.39
634.821	1391.09
635.019	1416.66
635.216	1377.91
635.414	1404.46
635.612	1387.99
635.81	1354.66
636.008	1454.06
636.206	1362.61
636.404	1392.06
636.602	1348.85
636.8	1365.71
636.997	1421.7
637.195	1398.84
637.393	1386.05
637.591	1447.47
637.789	1415.69
637.986	1386.83
638.184	1390.9
638.382	1434.68
638.58	1373.26
638.777	1436.43
638.975	1387.41
639.173	1357.38
639.37	1363.77
639.568	1383.73
639.765	1363.96
639.963	1329.28
640.161	1382.76
640.358	1383.53
640.556	1321.34
640.753	1329.48
640.951	1301.58
641.148	1341.3
641.346	1315.53
641.543	1313.01
641.741	1335.68
641.938	1312.82
642.136	1336.06
642.333	1232.02
642.531	1326.18
642.728	1349.05
642.925	1304.48
643.123	1290.34
643.32	1309.13
643.517	1297.51
643.715	1306.23
643.912	1272.52
644.109	1278.52
644.306	1284.72
644.504	1257.4
644.701	1265.54
644.898	1271.35
645.095	1214.39
645.293	1235.7
645.49	1249.65
645.687	1249.46
645.884	1280.27
646.081	1136.51
646.278	1215.36
646.475	1170.6
646.672	1142.71
646.87	1187.65
647.067	1158.2
647.264	1161.89
647.461	1119.07
647.658	1089.81
647.855	1168.09
648.052	1128.17
648.249	1069.47
648.446	1096.4
648.642	1117.52
648.839	1089.04
649.036	1093.88
649.233	1052.03
649.43	1078.19
649.627	1045.64
649.824	1085.55
650.021	1069.86
650.217	1071.21
650.414	1063.46
650.611	1096.4
650.808	1098.72
651.004	1075.86
651.201	1102.41
651.398	1133.99
651.595	1065.59
651.791	1031.69
651.988	1078.38
652.185	1047.58
652.381	1074.12
652.578	1022.58
652.775	1048.74
652.971	1070.63
653.168	1046.61
653.364	1086.91
653.561	1042.54
653.757	1044.48
653.954	1094.66
654.15	1025.68
654.347	1137.28
654.543	1063.07
654.74	1006.89
654.936	989.26
655.133	1021.61
655.329	1052.23
655.525	1012.89
655.722	1069.27
655.918	972.21
656.115	1007.47
656.311	902.46
656.507	842.78
656.704	831.93
656.9	881.73
657.096	932.88
657.292	871.65
657.489	926.29
657.685	942.76
657.881	941.98
658.077	920.67
658.273	978.21
658.47	1030.33
658.666	955.16
658.862	962.91
659.058	976.47
659.254	1027.04
659.45	956.51
659.646	997.2
659.842	995.26
660.038	1036.73
660.234	969.88
660.43	983.25
660.626	1033.04
660.822	1006.11
661.018	1018.51
661.214	967.95
661.41	927.26
661.606	1002.04
661.802	1020.45
661.998	969.49
662.194	950.12
662.39	974.53
662.586	965.23
662.781	991.39
662.977	987.9
663.173	954.38
663.369	978.21
663.564	990.42
663.76	982.28
663.956	937.33
664.152	1009.21
664.347	892.58
664.543	949.35
664.739	915.44
664.934	891.22
665.13	866.81
665.326	951.86
665.521	972.4
665.717	897.42
665.912	875.72
666.108	858.67
666.304	908.46
666.499	929
666.695	873.01
666.89	915.83
667.086	939.27
667.281	926.1
667.477	949.93
667.672	865.84
667.867	902.85
668.063	858.09
668.258	856.35
668.454	876.88
668.649	930.36
668.844	860.8
669.04	867.39
669.235	870.68
669.43	853.83
669.626	794.15
669.821	863.32
670.016	840.65
670.211	833.87
670.407	800.16
670.602	840.07
670.797	859.06
670.992	888.7
671.187	806.17
671.382	904.78
671.578	834.45
671.773	848.02
671.968	824.96
672.163	854.99
672.358	862.74
672.553	796.28
672.748	814.3
672.943	910.6
673.138	814.5
673.333	878.43
673.528	823.6
673.723	865.07
673.918	835.62
674.113	786.4
674.308	904.2
674.503	856.73
674.698	846.85
674.892	852.86
675.087	874.75
675.282	846.66
675.477	799.77
675.672	872.82
675.867	822.83
676.061	782.53
676.256	779.04
676.451	822.83
676.646	858.87
676.84	807.33
677.035	764.7
677.23	832.32
677.424	842.98
677.619	856.35
677.814	888.9
678.008	882.31
678.203	790.47
678.397	785.24
678.592	813.14
678.787	885.02
678.981	817.4
679.176	836.58
679.37	837.75
679.565	805.97
679.759	804.23
679.954	829.8
680.148	904.4
680.342	887.35
680.537	862.74
680.731	810.04
680.926	827.87
681.12	843.37
681.314	815.47
681.509	875.33
681.703	834.84
681.897	864.48
682.092	845.3
682.286	845.88
682.48	892.96
682.674	879.6
682.869	830.38
683.063	854.99
683.257	901.49
683.451	818.37
683.645	874.75
683.839	842.4
684.034	832.32
684.228	876.88
684.422	849.57
684.616	822.25
684.81	878.63
685.004	873.78
685.198	850.53
685.392	887.54
685.586	822.05
685.78	878.82
685.974	895.68
686.168	885.8
686.362	941.21
686.556	836.2
686.75	793.57
686.944	793.57
687.138	758.89
687.331	703.09
687.525	664.92
687.719	653.11
687.913	684.11
688.107	709.49
688.301	704.64
688.494	706.77
688.688	712.59
688.882	677.91
689.076	704.45
689.269	752.11
689.463	819.73
689.657	766.64
689.85	759.09
690.044	786.4
690.238	782.92
690.431	807.13
690.625	815.08
690.818	861.38
691.012	880.57
691.205	912.73
691.399	854.8
691.593	884.25
691.786	964.65
691.98	986.74
692.173	1042.15
692.366	1012.31
692.56	1032.85
692.753	1077.99
692.947	985.58
693.14	1088.26
693.333	1095.62
693.527	1053.78
693.72	1117.71
693.914	1091.17
694.107	1080.9
694.3	1109.19
694.493	1107.64
694.687	1170.41
694.88	1145.22
695.073	1227.95
695.266	1240.74
695.46	1238.61
695.653	1281.62
695.846	1258.18
696.039	1214.59
696.232	1293.05
696.425	1370.16
696.618	1406.39
696.812	1354.86
697.005	1447.66
697.198	1524.97
697.391	1455.61
697.584	1511.21
697.777	1593.94
697.97	1561.01
698.163	1590.26
698.356	1557.52
698.549	1656.72
698.742	1650.71
698.935	1604.4
699.127	1641.22
699.32	1598.01
699.513	1623.59
699.706	1658.65
699.899	1674.35
700.092	1654.39
700.285	1711.74
700.477	1660.4
700.67	1716
700.863	1733.44
701.056	1788.27
701.248	1836.13
701.441	1811.33
701.634	1802.41
701.826	1898.51
702.019	1807.06
702.212	1878.75
702.404	1819.08
702.597	1845.81
702.79	1888.83
702.982	1923.31
703.175	1982.6
703.367	1964
703.56	2043.44
703.752	2092.45
703.945	2082.57
704.137	2111.25
704.33	2119.97
704.522	2126.75
704.715	2183.71
704.907	2213.55
705.1	2269.73
705.292	2266.25
705.484	2263.92
705.677	2282.13
705.869	2291.63
706.061	2310.42
706.254	2397.61
706.446	2327.47
706.638	2413.11
706.831	2415.82
707.023	2380.17
707.215	2520.83
707.407	2514.24
707.599	2502.23
707.792	2547.95
707.984	2548.15
708.176	2561.13
708.368	2568.49
708.56	2578.95
708.752	2597.94
708.944	2598.33
709.136	2686.87
709.329	2664.98
709.521	2800.21
709.713	2763.79
709.905	2770.38
710.097	2813.19
710.289	2787.81
710.481	2761.46
710.672	2831.79
710.864	2832.76
711.056	2866.09
711.248	2890.11
711.44	2881.97
711.632	2859.11
711.824	2957.54
712.016	2967.22
712.207	2961.99
712.399	2954.05
712.591	3038.52
712.783	3033.29
712.975	3071.46
713.166	3030.77
713.358	3032.9
713.55	3110.21
713.741	3110.21
713.933	3128.61
714.125	3098.2
714.316	3093.74
714.508	3146.63
714.7	3125.71
714.891	3147.02
715.083	3196.62
715.274	3125.32
715.466	3172.4
715.657	3219.87
715.849	3085.8
716.04	3148.18
716.232	3065.26
716.423	3098.39
716.615	3010.62
716.806	2880.04
716.998	2839.74
717.189	2733.95
717.381	2655.29
717.572	2628.17
717.763	2581.67
717.955	2609.95
718.146	2550.67
718.337	2441.78
718.528	2419.5
718.72	2307.51
718.911	2334.06
719.102	2330.76
719.293	2370.48
719.485	2296.08
719.676	2284.26
719.867	2256.95
720.058	2303.83
720.249	2286.98
720.44	2332.12
720.632	2422.21
720.823	2427.44
721.014	2556.87
721.205	2609.37
721.396	2753.71
721.587	2819.97
721.778	2890.89
721.969	2983.5
722.16	3011.01
722.351	3090.45
722.542	3166.01
722.733	3220.84
722.924	3079.4
723.115	3172.98
723.305	3109.43
723.496	3122.41
723.687	2974.97
723.878	2990.86
724.069	2944.75
724.26	2979.62
724.45	2873.84
724.641	2907.16
724.832	2918.98
725.023	2862.02
725.213	2849.42
725.404	2834.7
725.595	2859.11
725.785	2786.65
725.976	2902.7
726.167	2900.57
726.357	2911.04
726.548	3019.53
726.739	2911.04
726.929	3001.9
727.12	2995.32
727.31	2989.7
727.501	2935.25
727.691	2973.81
727.882	3002.1
728.072	2975.75
728.263	3032.52
728.453	3087.35
728.644	3128.81
728.834	3054.41
729.024	3024.38
729.215	3027.87
729.405	3037.75
729.596	3126.68
729.786	3139.85
729.976	3193.52
730.167	3154.96
730.357	3128.42
730.547	3193.13
730.737	3201.85
730.928	3200.88
731.118	3266.17
731.308	3197.2
731.498	3230.72
731.688	3331.08
731.879	3335.54
732.069	3386.1
732.259	3446.36
732.449	3474.26
732.639	3593.41
732.829	3591.48
733.019	3614.53
733.209	3773.79
733.399	3750.16
733.589	3840.25
733.779	3887.13
733.969	3868.15
734.159	3974.32
734.349	4007.65
734.539	4100.45
734.729	4086.69
734.919	4077.78
735.109	4133.97
735.299	4071.39
735.488	4063.83
735.678	4097.16
735.868	4076.04
736.058	4076.23
736.248	4050.66
736.437	4030.31
736.627	3998.73
736.817	4136.29
737.007	4092.31
737.196	4121.57
737.386	4148.89
737.576	4127.19
737.765	4199.26
737.955	4171.36
738.144	4310.47
738.334	4208.75
738.524	4162.26
738.713	4215.92
738.903	4197.91
739.092	4196.74
739.282	4223.29
739.471	4248.47
739.661	4250.22
739.85	4322.29
740.04	4247.5
740.229	4352.13
740.419	4357.94
740.608	4312.99
740.797	4325.78
740.987	4415.68
741.176	4414.9
741.365	4394.36
741.555	4330.62
741.744	4431.95
741.933	4361.23
742.123	4470.31
742.312	4436.99
742.501	4491.82
742.69	4480.58
742.88	4411.41
743.069	4535.03
743.258	4510.23
743.447	4540.45
743.636	4561.18
743.825	4504.8
744.014	4518.56
744.204	4554.59
744.393	4464.5
744.582	4564.86
744.771	4576.1
744.96	4498.21
745.149	4579.2
745.338	4526.11
745.527	4564.86
745.716	4535.61
745.905	4528.83
746.094	4603.42
746.283	4601.48
746.471	4566.02
746.66	4600.9
746.849	4570.48
747.038	4655.15
747.227	4579.01
747.416	4618.53
747.604	4532.31
747.793	4557.69
747.982	4561.37
748.171	4585.59
748.359	4574.94
748.548	4569.9
748.737	4543.36
748.926	4537.93
749.114	4426.14
749.303	4575.71
749.491	4559.05
749.68	4496.28
749.869	4569.32
750.057	4513.71
750.246	4483.29
750.434	4506.74
750.623	4507.51
750.811	4454.62
751	4533.09
751.188	4471.48
751.377	4523.98
751.565	4488.91
751.754	4485.04
751.942	4418.39
752.131	4519.72
752.319	4420.13
752.507	4380.61
752.696	4453.65
752.884	4479.61
753.072	4421.3
753.261	4467.6
753.449	4417.81
753.637	4381.38
753.825	4476.51
754.014	4439.51
754.202	4424.98
754.39	4451.13
754.578	4467.79
754.766	4370.73
754.955	4338.95
755.143	4412.19
755.331	4366.85
755.519	4391.26
755.707	4360.27
755.895	4356.39
756.083	4372.08
756.271	4310.86
756.459	4331.78
756.647	4360.46
756.835	4285.29
757.023	4352.32
757.211	4288.97
757.399	4264.17
757.587	4341.86
757.775	4220.38
757.963	4294.78
758.151	4234.33
758.339	4204.69
758.526	4170.2
758.714	4220.38
758.902	4048.72
759.09	3947.39
759.278	3707.14
759.465	3424.47
759.653	3007.91
759.841	2701.01
760.028	2304.22
760.216	1988.22
760.404	1831.67
760.591	1506.95
760.779	1277.75
760.967	1122.75
761.154	938.3
761.342	925.32
761.529	935.78
761.717	972.01
761.905	963.49
762.092	1016.58
762.28	957.87
762.467	958.65
762.655	874.56
762.842	898.39
763.029	935.4
763.217	915.05
763.404	907.5
763.592	943.34
763.779	879.98
763.966	965.62
764.154	970.46
764.341	1048.93
764.528	1061.72
764.716	1141.93
764.903	1185.33
765.09	1284.53
765.277	1335.29
765.465	1527.49
765.652	1621.26
765.839	1684.23
766.026	1887.08
766.213	1925.83
766.4	2044.79
766.588	2276.9
766.775	2317.59
766.962	2457.47
767.149	2558.42
767.336	2736.08
767.523	2736.86
767.71	2899.6
767.897	3018.95
768.084	3106.33
768.271	3167.17
768.458	3252.81
768.645	3361.3
768.832	3356.07
769.019	3415.94
769.206	3431.05
769.392	3517.46
769.579	3625.19
769.766	3607.75
769.953	3576.56
770.14	3658.51
770.327	3618.6
770.513	3695.13
770.7	3803.44
770.887	3708.5
771.073	3720.12
771.26	3733.88
771.447	3704.62
771.634	3718.19
771.82	3795.49
772.007	3670.91
772.193	3775.73
772.38	3771.85
772.567	3688.16
772.753	3729.81
772.94	3783.48
773.126	3768.17
773.313	3770.89
773.499	3758.68
773.686	3810.02
773.872	3742.21
774.059	3758.29
774.245	3747.64
774.432	3775.54
774.618	3665.49
774.804	3712.76
774.991	3687.57
775.177	3693.97
775.363	3726.91
775.55	3722.06
775.736	3656.96
775.922	3669.36
776.109	3644.18
776.295	3659.87
776.481	3668.98
776.667	3728.07
776.853	3654.06
777.04	3609.69
777.226	3660.26
777.412	3699.2
777.598	3621.31
777.784	3655.8
777.97	3596.51
778.156	3637.98
778.342	3622.09
778.528	3573.26
778.715	3541.3
778.901	3548.85
779.087	3585.28
779.272	3546.33
779.458	3487.82
779.644	3590.31
779.83	3529.67
780.016	3607.56
780.202	3523.28
780.388	3509.91
780.574	3459.34
780.76	3507.97
780.946	3563.96
781.131	3510.88
781.317	3493.05
781.503	3394.82
781.689	3467.48
781.874	3555.25
782.06	3433.77
782.246	3498.48
782.432	3427.18
782.617	3460.89
782.803	3491.31
782.989	3424.08
783.174	3388.04
783.36	3363.63
783.545	3372.35
783.731	3371.38
783.916	3353.55
784.102	3390.37
784.288	3339.6
784.473	3318.29
784.659	3297.56
784.844	3365.76
785.029	3313.06
785.215	3337.67
785.4	3247.96
785.586	3360.72
785.771	3263.27
785.956	3298.72
786.142	3266.17
786.327	3214.83
786.512	3255.32
786.698	3233.82
786.883	3159.61
787.068	3244.28
787.254	3200.88
787.439	3189.84
787.624	3185.58
787.809	3202.82
787.994	3142.37
788.18	3212.7
788.365	3086.18
788.55	3061
788.735	3110.01
788.92	3119.31
789.105	3097.61
789.29	3077.46
789.475	3030.38
789.66	3042.01
789.845	2947.46
790.03	3008.3
790.215	2989.31
790.4	3034.65
790.585	3067.97
790.77	3023.6
790.955	2964.32
791.14	3016.63
791.325	3083.08
791.51	2918.4
791.695	2986.79
791.879	2974.59
792.064	2922.08
792.249	3012.56
792.434	2958.31
792.618	2954.44
792.803	3015.66
792.988	2948.43
793.173	3003.84
793.357	3028.06
793.542	2971.68
793.727	2992.99
793.911	3049.95
794.096	3009.07
794.281	3031.55
794.465	3099.36
794.65	3001.32
794.834	3054.22
795.019	3065.84
795.203	3058.48
795.388	3044.14
795.572	3122.03
795.757	3064.48
795.941	3028.83
796.126	3034.45
796.31	2968.58
796.494	3007.13
796.679	2987.18
796.863	2938.55
797.048	3066.23
797.232	2997.25
797.416	3042.78
797.601	3027.28
797.785	3090.45
797.969	3088.7
798.153	3005
798.338	3134.04
798.522	3129.78
798.706	3093.55
798.89	3116.21
799.074	3173.56
799.258	3147.21
799.443	3054.02
799.627	3074.17
799.811	3094.51
799.995	3067.78
800.179	3030.38
800.363	3053.44
800.547	3063.32
800.731	3094.32
800.915	2987.18
801.099	3029.42
801.283	3034.65
801.467	3017.6
801.651	3008.88
801.835	3042.59
802.019	3022.44
802.202	3031.35
802.386	2993.77
802.57	2907.55
802.754	2972.45
802.938	3006.36
803.121	2981.56
803.305	3034.45
803.489	2996.09
803.673	3006.94
803.856	3022.25
804.04	2993.77
804.224	3008.68
804.407	3043.17
804.591	2960.05
804.775	2998.61
804.958	3028.06
805.142	3135.2
805.326	3017.21
805.509	3043.75
805.693	3066.03
805.876	3067.39
806.06	3047.24
806.243	3112.15
806.427	3106.33
806.61	3140.24
806.794	3054.41
806.977	3104.98
807.16	3087.35
807.344	3085.02
807.527	3051.12
807.71	3067.78
807.894	2999.58
808.077	3078.05
808.26	3016.24
808.444	3027.28
808.627	3086.57
808.81	2980.01
808.993	2907.55
809.177	2919.95
809.36	2995.9
809.543	2979.43
809.726	2873.64
809.909	2834.12
810.092	2868.8
810.276	2826.56
810.459	2821.33
810.642	2831.99
810.825	2788.2
811.008	2815.13
811.191	2696.56
811.374	2716.13
811.557	2697.91
811.74	2752.74
811.923	2658.2
812.106	2642.31
812.289	2614.99
812.472	2557.06
812.654	2565.39
812.837	2524.9
813.02	2516.95
813.203	2468.13
813.386	2368.54
813.569	2352.85
813.751	2277.29
813.934	2332.7
814.117	2247.84
814.3	2223.04
814.482	2168.98
814.665	2111.63
814.848	2033.36
815.03	2027.94
815.213	1982.02
815.396	1986.09
815.578	1933.58
815.761	1900.06
815.943	1976.21
816.126	1883.21
816.309	1877.78
816.491	1816.75
816.674	1743.32
816.856	1773.55
817.039	1764.25
817.221	1844.65
817.403	1816.56
817.586	1796.02
817.768	1840.97
817.951	1770.83
818.133	1719.49
818.315	1751.65
818.498	1839.03
818.68	1878.94
818.862	1820.43
819.045	1867.51
819.227	1816.56
819.409	1833.41
819.591	1865.77
819.774	1804.55
819.956	1819.27
820.138	1902.78
820.32	1902.97
820.502	1971.17
820.684	2051.57
820.866	2063.97
821.048	2112.6
821.231	2135.85
821.413	2081.02
821.595	2104.66
821.777	2133.14
821.959	2107.37
822.141	2137.4
822.323	2044.02
822.505	1939.97
822.686	1862.28
822.868	1796.02
823.05	1682.48
823.232	1595.49
823.414	1598.4
823.596	1666.21
823.778	1633.08
823.96	1676.67
824.141	1691.78
824.323	1700.5
824.505	1786.91
824.687	1858.21
824.868	1902.58
825.05	1986.09
825.232	2060.29
825.413	2110.86
825.595	2050.22
825.777	2038.01
825.958	2042.66
826.14	2028.9
826.321	2062.81
826.503	2060.87
826.685	2086.06
826.866	2129.07
827.048	2068.82
827.229	2025.03
827.411	1989.19
827.592	1931.45
827.773	1928.35
827.955	1817.14
828.136	1882.24
828.318	1809.39
828.499	1865.77
828.68	1804.16
828.862	1830.51
829.043	1842.33
829.224	1826.25
829.406	1803.38
829.587	1804.55
829.768	1845.23
829.949	1834.58
830.131	1858.99
830.312	1900.84
830.493	1846.59
830.674	1889.02
830.855	1867.13
831.036	1845.23
831.218	1904.52
831.399	1938.81
831.58	1860.73
831.761	1847.94
831.942	1856.28
832.123	1865.96
832.304	1805.13
832.485	1794.47
832.666	1854.53
832.847	1853.37
833.028	1883.21
833.209	1833.41
833.389	1838.06
833.57	1796.02
833.751	1812.1
833.932	1855.31
834.113	1870.42
834.294	1835.93
834.475	1903.94
834.655	1916.53
834.836	1907.43
835.017	1920.79
835.198	1871.78
835.378	1887.28
835.559	1925.64
835.74	1913.63
835.92	1895.41
836.101	1859.96
836.281	1919.63
836.462	1930.48
836.643	1919.24
836.823	1951.41
837.004	1934.55
837.184	1955.28
837.365	1925.44
837.545	1960.9
837.726	1920.21
837.906	1988.22
838.087	1946.56
838.267	1929.71
838.448	1900.26
838.628	1898.13
838.808	1900.64
838.989	2009.92
839.169	1889.79
839.349	1951.99
839.53	1951.02
839.71	1970.2
839.89	1946.17
840.07	2022.32
840.251	1923.12
840.431	1988.22
840.611	1945.79
840.791	1899.68
840.971	1948.69
841.151	1970.97
841.332	1878.36
841.512	1984.15
841.692	1855.31
841.872	1966.32
842.052	1912.46
842.232	1957.22
842.412	1868.29
842.592	1898.9
842.772	1948.5
842.952	1951.21
843.132	1890.18
843.312	1895.99
843.492	1901.61
843.672	1945.21
843.851	1836.13
844.031	1894.64
844.211	1880.88
844.391	1852.59
844.571	1918.47
844.751	1913.04
844.93	1882.24
845.11	1883.4
845.29	1916.34
845.47	1919.24
845.649	1883.59
845.829	1907.81
846.009	1850.85
846.188	1938.04
846.368	1867.13
846.547	1874.88
846.727	1959.16
846.907	1854.34
847.086	1892.51
847.266	1906.84
847.445	1879.14
847.625	1843.88
847.804	1815.4
847.984	1827.6
848.163	1830.7
848.343	1847.56
848.522	1823.15
848.701	1855.5
848.881	1807.26
849.06	1835.16
849.239	1812.68
849.419	1849.11
849.598	1752.62
849.777	1778
849.957	1745.26
850.136	1681.32
850.315	1679.19
850.494	1663.69
850.674	1723.56
850.853	1753.2
851.032	1672.8
851.211	1760.18
851.39	1714.45
851.569	1670.47
851.748	1657.49
851.927	1747.39
852.107	1703.99
852.286	1688.49
852.465	1672.41
852.644	1714.07
852.823	1712.9
853.002	1688.1
853.181	1709.61
853.359	1696.63
853.538	1650.9
853.717	1680.93
853.896	1579.99
854.075	1530.39
854.254	1523.42
854.433	1432.16
854.611	1474.98
854.79	1396.71
854.969	1489.13
855.148	1503.07
855.327	1485.44
855.505	1538.53
855.684	1476.14
855.863	1514.12
856.041	1514.31
856.22	1561.78
856.399	1542.99
856.577	1652.07
856.756	1585.03
856.934	1707.28
857.113	1688.68
857.291	1623
857.47	1610.6
857.648	1655.94
857.827	1639.28
858.005	1669.5
858.184	1599.17
858.362	1688.3
858.541	1612.15
858.719	1621.84
858.898	1587.74
859.076	1584.06
859.254	1651.68
859.433	1598.01
859.611	1563.91
859.789	1585.42
859.967	1613.12
860.146	1646.64
860.324	1558.87
860.502	1590.65
860.68	1521.48
860.859	1550.54
861.037	1538.72
861.215	1576.51
861.393	1562.75
861.571	1576.31
861.749	1572.63
861.927	1551.32
862.105	1561.97
862.283	1534.46
862.461	1515.28
862.639	1503.07
862.817	1524
862.995	1547.25
863.173	1507.14
863.351	1559.26
863.529	1550.16
863.707	1607.5
863.885	1531.94
864.063	1456.19
864.241	1501.52
864.418	1550.54
864.596	1491.26
864.774	1470.14
864.952	1512.57
865.129	1500.94
865.307	1457.74
865.485	1418.41
865.663	1486.22
865.84	1368.61
866.018	1443.59
866.196	1295.77
866.373	1316.5
866.551	1257.98
866.728	1218.07
866.906	1311.65
867.084	1295.77
867.261	1351.37
867.439	1348.46
867.616	1389.35
867.794	1352.73
867.971	1382.56
868.149	1359.31
868.326	1447.47
868.503	1402.33
868.681	1415.69
868.858	1383.15
869.035	1345.95
869.213	1414.53
869.39	1390.51
869.567	1445.53
869.745	1379.27
869.922	1376.17
870.099	1417.83
870.276	1401.55
870.454	1414.92
870.631	1387.6
870.808	1380.63
870.985	1399.23
871.162	1455.99
871.339	1406.01
871.517	1351.18
871.694	1338
871.871	1369.58
872.048	1349.24
872.225	1359.31
872.402	1380.82
872.579	1310.1
872.756	1354.47
872.933	1328.7
873.11	1355.63
873.287	1375.4
873.463	1330.83
873.64	1295.96
873.817	1336.65
873.994	1338.39
874.171	1294.22
874.348	1317.27
874.524	1254.5
874.701	1308.75
874.878	1243.07
875.055	1291.89
875.231	1283.37
875.408	1288.21
875.585	1210.52
875.762	1270.77
875.938	1239
876.115	1268.06
876.291	1211.49
876.468	1250.62
876.645	1211.29
876.821	1223.69
876.998	1249.65
877.174	1259.53
877.351	1255.08
877.527	1225.82
877.704	1245.97
877.88	1216.72
878.057	1250.82
878.233	1268.45
878.409	1229.5
878.586	1247.72
878.762	1238.8
878.938	1214
879.115	1144.25
879.291	1224.85
879.467	1154.91
879.644	1189.98
879.82	1207.22
879.996	1198.12
880.172	1123.14
880.349	1168.86
880.525	1211.68
880.701	1142.32
880.877	1121.01
881.053	1177.19
881.229	1122.75
881.405	1216.33
881.581	1117.71
881.757	1116.55
881.933	1163.24
882.109	1196.76
882.285	1171.96
882.461	1126.24
882.637	1167.12
882.813	1114.61
882.989	1151.81
883.165	1222.72
883.341	1144.64
883.517	1194.05
883.693	1186.88
883.869	1223.69
884.044	1155.1
884.22	1168.09
884.396	1196.76
884.572	1160.92
884.747	1206.25
884.923	1163.05
885.099	1213.62
885.275	1176.22
885.45	1153.94
885.626	1146.77
885.801	1142.51
885.977	1108.8
886.153	1065.4
886.328	1165.18
886.504	1102.79
886.679	1152.2
886.855	1123.14
887.03	1164.4
887.206	1170.6
887.381	1155.3
887.557	1177.19
887.732	1164.99
887.908	1147.74
888.083	1173.32
888.258	1127.59
888.434	1084
888.609	1124.11
888.784	1201.8
888.96	1141.35
889.135	1103.18
889.31	1128.76
889.485	1157.82
889.661	1123.52
889.836	1164.02
890.011	1151.42
890.186	1129.92
890.361	1109.38
890.537	1165.37
890.712	1146.58
890.887	1138.64
891.062	1162.08
891.237	1177.39
891.412	1109.96
891.587	1110.16
891.762	1146.19
891.937	1177.39
892.112	1075.67
892.287	1146.58
892.462	1061.52
892.637	1085.74
892.812	1018.9
892.987	1044.09
893.161	1010.96
893.336	1013.67
893.511	1032.27
893.686	1035.56
893.861	1027.62
894.035	1028.39
894.21	1038.28
894.385	975.89
894.56	977.83
894.734	945.47
894.909	938.88
895.084	933.07
895.258	883.28
895.433	934.81
895.608	872.62
895.782	841.04
895.957	843.75
896.131	860.42
896.306	790.28
896.48	789.89
896.655	802.87
896.829	723.24
897.004	715.88
897.178	745.14
897.353	708.71
897.527	767.61
897.701	763.93
897.876	694.57
898.05	748.04
898.224	763.35
898.399	780.01
898.573	729.25
898.747	620.36
898.921	650.2
899.096	564.18
899.27	589.36
899.444	599.24
899.618	613.97
899.792	641.87
899.967	688.95
900.141	694.96
900.315	627.53
900.489	633.54
900.663	646.91
900.837	639.54
901.011	588.39
901.185	678.87
901.359	613.78
901.533	652.91
901.707	665.31
901.881	645.94
902.055	604.48
902.229	630.44
902.403	706.39
902.576	641.87
902.75	627.92
902.924	746.49
903.098	686.82
903.272	738.16
903.446	814.5
903.619	792.02
903.793	805.58
903.967	791.44
904.14	812.37
904.314	850.34
904.488	807.72
904.661	847.63
904.835	839.68
905.009	885.8
905.182	889.67
905.356	848.6
905.529	865.45
905.703	794.15
905.876	788.73
906.05	770.52
906.223	755.79
906.397	705.61
906.57	654.07
906.744	645.55
906.917	622.88
907.09	627.34
907.264	637.02
907.437	588.2
907.61	588.39
907.784	591.69
907.957	604.09
908.13	577.35
908.304	626.37
908.477	535.69
908.65	580.45
908.823	559.53
908.996	589.36
909.17	550.81
909.343	552.94
909.516	531.24
909.689	548.68
909.862	567.47
910.035	544.22
910.208	522.33
910.381	501.4
910.554	611.84
910.727	549.06
910.9	541.12
911.073	552.36
911.246	593.24
911.419	604.86
911.592	594.98
911.765	577.54
911.938	528.53
912.11	560.69
912.283	558.75
912.456	617.07
912.629	575.41
912.802	521.94
912.974	498.3
913.147	441.92
913.32	398.91
913.493	428.55
913.665	485.51
913.838	476.6
914.01	453.93
914.183	482.8
914.356	506.83
914.528	517.48
914.701	542.09
914.873	510.7
915.046	491.91
915.218	454.13
915.391	398.52
915.563	378.18
915.736	461.3
915.908	470.01
916.081	475.05
916.253	456.45
916.425	459.75
916.598	483.38
916.77	472.34
916.942	442.5
917.115	384.38
917.287	439.21
917.459	416.15
917.632	383.22
917.804	351.05
917.976	448.9
918.148	436.88
918.32	481.06
918.493	490.36
918.665	529.5
918.837	500.82
919.009	552.36
919.181	545.19
919.353	527.75
919.525	522.33
919.697	511.09
919.869	518.26
920.041	590.14
920.213	615.71
920.385	566.5
920.557	499.27
920.729	549.06
920.901	514.96
921.073	518.06
921.244	522.52
921.416	549.64
921.588	517.29
921.76	495.59
921.932	565.34
922.103	509.15
922.275	517.1
922.447	548.87
922.619	467.88
922.79	502.76
922.962	497.53
923.134	533.95
923.305	484.35
923.477	448.12
923.648	450.64
923.82	476.41
923.991	407.43
924.163	399.49
924.335	426.23
924.506	424.1
924.677	485.32
924.849	448.7
925.02	437.85
925.192	458.39
925.363	451.61
925.535	449.09
925.706	405.3
925.877	499.66
926.049	393.29
926.22	436.3
926.391	437.85
926.562	480.28
926.734	410.34
926.905	461.49
927.076	401.04
927.247	401.04
927.419	386.51
927.59	353.77
927.761	376.82
927.932	323.74
928.103	345.24
928.274	315.6
928.445	292.54
928.616	272.2
928.787	308.04
928.958	335.17
929.129	315.79
929.3	298.55
929.471	245.46
929.642	221.05
929.813	178.04
929.984	238.49
930.155	156.53
930.326	233.64
930.496	186.56
930.667	133.48
930.838	179.01
931.009	151.3
931.18	180.94
931.35	130.76
931.521	169.32
931.692	93.95
931.863	78.45
932.033	116.04
932.204	104.99
932.374	100.34
932.545	70.12
932.716	125.73
932.886	130.96
933.057	48.42
933.227	57.72
933.398	130.18
933.568	66.44
933.739	25.36
933.909	40.28
934.08	78.65
934.25	26.14
934.421	22.46
934.591	87.75
934.761	37.76
934.932	3.08
935.102	59.27
935.272	17.42
935.443	44.16
935.613	25.75
935.783	52.68
935.953	20.13
936.123	136.38
936.294	7.35
936.464	24.78
936.634	37.76
936.804	-0.6
936.974	21.68
937.144	23.81
937.314	36.8
937.484	26.72
937.655	5.22
937.825	69.73
937.995	23.43
938.165	81.16
938.334	54.23
938.504	54.43
938.674	32.73
938.844	66.63
939.014	114.68
939.184	91.63
939.354	146.84
939.524	137.35
939.694	92.79
939.863	98.41
940.033	154.01
940.203	93.18
940.373	90.66
940.542	118.17
940.712	61.79
940.882	114.49
941.051	103.06
941.221	135.8
941.391	126.5
941.56	55.98
941.73	89.5
941.899	188.89
942.069	94.73
942.238	120.3
942.408	88.53
942.577	111.78
942.747	64.31
942.916	43.96
943.086	40.48
943.255	109.64
943.425	70.31
943.594	53.26
943.763	4.05
943.933	45.9
944.102	15.68
944.271	36.41
944.441	71.86
944.61	32.15
944.779	46.68
944.948	142.78
945.117	16.45
945.287	41.83
945.456	21.68
945.625	32.34
945.794	78.06
945.963	35.25
946.132	65.66
946.301	50.16
946.47	107.71
946.639	21.88
946.808	37.38
946.977	93.56
947.146	104.8
947.315	43.96
947.484	77.1
947.653	80.39
947.822	66.05
947.991	20.52
948.16	115.26
948.329	99.18
948.498	76.71
948.666	81.16
948.835	91.82
949.004	30.98
949.173	39.51
949.341	53.65
949.51	59.66
949.679	81.55
949.847	75.74
950.016	140.06
950.185	107.13
950.353	80
950.522	62.56
950.69	105.38
950.859	60.24
951.028	112.16
951.196	81.75
951.365	33.89
951.533	35.44
951.701	92.4
951.87	59.85
952.038	49.2
952.207	80.78
952.375	120.3
952.543	51.33
952.712	57.53
952.88	46.48
953.048	98.41
953.217	64.89
953.385	54.62
953.553	136.96
953.721	27.5
953.89	68.76
954.058	45.51
954.226	33.11
954.394	59.66
954.562	38.15
954.73	63.34
954.898	50.94
955.067	119.53
955.235	71.09
955.403	104.22
955.571	128.05
955.739	70.51
955.907	33.89
956.075	47.45
956.243	67.41
956.41	99.76
956.578	41.45
956.746	5.8
956.914	51.71
957.082	82.33
957.25	91.82
957.418	55.01
957.585	77.48
957.753	104.8
957.921	56.56
958.089	74.38
958.256	85.43
958.424	71.86
958.592	94.92
958.759	31.95
958.927	89.69
959.095	47.65
959.262	46.29
959.43	69.35
959.597	28.66
959.765	70.7
959.932	28.85
960.1	106.35
960.267	89.88
960.435	69.54
960.602	128.05
960.77	63.53
960.937	35.44
961.104	74.38
961.272	44.16
961.439	69.73
961.606	67.99
961.774	81.16
961.941	67.21
962.108	96.47
962.275	86.98
962.443	123.01
962.61	100.93
962.777	161.38
962.944	108.68
963.111	114.29
963.278	109.06
963.446	96.66
963.613	79.03
963.78	116.62
963.947	112.74
964.114	70.7
964.281	167.96
964.448	112.55
964.615	51.33
964.782	83.68
964.949	119.14
965.116	88.72
965.282	115.46
965.449	91.05
965.616	47.65
965.783	106.54
965.95	92.4
966.117	58.3
966.283	87.56
966.45	85.04
966.617	99.76
966.784	120.11
966.95	97.05
967.117	137.35
967.284	47.45
967.45	80.2
967.617	141.42
967.784	132.89
967.95	142.58
968.117	94.92
968.283	135.8
968.45	212.33
968.616	131.15
968.783	160.79
968.949	88.53
969.116	146.46
969.282	124.56
969.449	138.51
969.615	100.34
969.781	101.89
969.948	82.33
970.114	90.46
970.28	164.48
970.447	131.93
970.613	163.7
970.779	121.85
970.945	157.31
971.112	138.32
971.278	114.29
971.444	130.96
971.61	180.75
971.776	111.78
971.942	146.84
972.108	145.1
972.275	106.16
972.441	140.26
972.607	181.72
972.773	84.07
972.939	132.12
973.105	123.4
973.271	49.39
973.437	99.57
973.602	85.81
973.768	117.39
973.934	121.27
974.1	129.21
974.266	29.63
974.432	123.01
974.598	82.13
974.763	148.39
974.929	70.51
975.095	159.05
975.261	77.1
975.426	79.42
975.592	85.43
975.758	160.99
975.923	47.65
976.089	74.58
976.255	116.23
976.42	107.9
976.586	115.65
976.751	108.87
976.917	160.02
977.082	110.61
977.248	71.09
977.413	59.27
977.579	97.05
977.744	98.21
977.91	62.37
978.075	82.52
978.24	111.97
978.406	103.06
978.571	80.97
978.736	72.83
978.902	108.68
979.067	81.16
979.232	58.69
979.397	91.82
979.563	123.01
979.728	78.84
979.893	98.41
980.058	90.27
980.223	102.86
980.388	98.6
980.554	97.63
980.719	68.76
980.884	122.04
981.049	113.33
981.214	74.58
981.379	117.2
981.544	84.26
981.709	98.02
981.874	92.21
982.039	90.85
982.204	140.06
982.368	92.01
982.533	85.23
982.698	117.78
982.863	132.89
983.028	86.4
983.193	122.63
983.357	95.89
983.522	104.41
983.687	81.36
983.852	95.5
984.016	91.82
984.181	104.03
984.346	147.04
984.51	125.53
984.675	123.98
984.839	117.2
985.004	137.93
985.168	130.38
985.333	103.44
985.498	112.74
985.662	129.6
985.827	116.23
985.991	84.46
986.155	74.77
986.32	137.93
986.484	155.76
986.649	108.29
986.813	50.36
986.977	100.73
987.142	123.98
987.306	85.62
987.47	77.29
987.634	119.33
987.799	96.47
987.963	120.69
988.127	130.76
988.291	162.34
988.455	83.1
988.62	65.28
988.784	115.07
988.948	128.24
989.112	85.81
989.276	113.33
989.44	61.79
989.604	67.99
989.768	90.66
989.932	126.11
990.096	44.74
990.26	58.11
990.424	36.21
990.588	88.53
990.752	136.77
990.915	133.86
991.079	61.21
991.243	61.4
991.407	124.18
991.571	71.48
991.734	94.92
991.898	115.26
992.062	176.1
992.226	92.4
992.389	55.59
992.553	49.58
992.717	59.08
992.88	74.77
993.044	112.36
993.207	80.78
993.371	108.09
993.535	99.38
993.698	75.74
993.862	125.73
994.025	135.03
994.189	88.91
994.352	88.14
994.515	107.13
994.679	128.24
994.842	95.31
995.006	125.34
995.169	45.71
995.332	65.86
995.496	114.88
995.659	30.01
995.822	78.26
995.985	82.33
996.149	130.18
996.312	94.34
996.475	137.54
996.638	42.03
996.801	127.66
996.964	152.08
997.128	95.69
997.291	78.84
997.454	85.23
997.617	36.21
997.78	107.51
997.943	43.58
998.106	95.89
998.269	44.16
998.432	91.05
998.595	49.39
998.758	27.69
998.92	55.98
999.083	35.44
999.246	48.42
999.409	48.61
999.572	5.99
999.735	65.86
999.897	91.43
1000.06	43
1000.223	69.35
1000.386	83.1
1000.548	101.51
1000.711	86.78
1000.874	91.63
1001.036	42.22
1001.199	98.41
1001.361	68.76
1001.524	51.13
1001.687	89.69
1001.849	35.25
1002.012	99.96
1002.174	86.98
1002.337	80.2
1002.499	62.37
1002.661	103.25
1002.824	61.21
1002.986	61.01
1003.149	61.79
1003.311	28.85
1003.473	117.01
1003.636	37.57
1003.798	75.74
1003.96	66.63
1004.123	58.69
1004.285	27.3
1004.447	46.29
1004.609	61.79
1004.771	131.15
1004.933	23.43
1005.096	19.16
1005.258	28.27
1005.42	51.91
1005.582	84.26
1005.744	67.6
1005.906	-19.97
1006.068	46.68
1006.23	19.55
1006.392	3.67
1006.554	40.28
1006.716	88.91
1006.878	42.22
1007.04	-1.18
1007.202	34.08
1007.363	47.84
1007.525	57.14
1007.687	94.15
1007.849	96.66
1008.011	7.35
1008.172	4.05
1008.334	24.59
1008.496	41.64
1008.658	3.28
1008.819	24.78
1008.981	3.47
1009.143	0.18
1009.304	28.27
1009.466	60.82
1009.627	87.75
1009.789	154.79
1009.95	59.08
1010.112	35.25
1010.273	50.94
1010.435	20.52
1010.596	36.99
1010.758	36.8
1010.919	53.46
1011.081	-5.44
1011.242	35.05
1011.403	61.01
1011.565	24.78
1011.726	44.93
1011.887	38.93
1012.049	41.83
1012.21	68.76
1012.371	80.58
1012.532	-39.15
1012.693	42.41
1012.855	26.14
1013.016	39.7
1013.177	97.44
1013.338	48.81
1013.499	73.61
1013.66	54.62
1013.821	75.74
1013.982	41.06
1014.143	26.72
1014.304	26.72
1014.465	35.44
1014.626	51.91
1014.787	36.02
1014.948	96.86
1015.109	-32.76
1015.27	59.66
1015.431	7.15
1015.592	40.09
1015.752	87.95
1015.913	57.33
1016.074	35.83
1016.235	36.6
1016.395	15.1
1016.556	28.27
1016.717	45.13
1016.877	72.83
1017.038	-10.87
1017.199	48.03
1017.359	30.21
1017.52	14.13
1017.681	16.06
1017.841	32.92
1018.002	24.4
1018.162	4.44
1018.323	62.95
1018.483	7.73
1018.644	38.35
1018.804	-0.21
1018.964	9.28
1019.125	41.64
1019.285	20.71
1019.446	-11.64
1019.606	-11.06
1019.766	-15.52
1019.926	54.04
1020.087	44.93
1020.247	-11.06
1020.407	49
1020.567	60.24
1020.728	22.07
1020.888	-10.28
1021.048	12.38
1021.208	15.1
1021.368	9.48
1021.528	56.17
1021.688	33.89
1021.848	56.17
1022.008	14.9
1022.168	-0.4
1022.328	33.89
1022.488	21.49
1022.648	-9.7
1022.808	13.74
1022.968	24.2
1023.128	20.33
1023.288	-5.44
1023.448	17.03
1023.608	60.05
1023.767	24.01
1023.927	6.77
1024.087	-23.65
1024.247	22.85
1024.406	2.5
1024.566	-13.19
1024.726	-7.96
1024.885	-2.15
1025.045	41.25
1025.205	8.12
1025.364	0.76
1025.524	33.7
1025.683	27.11
1025.843	27.88
1026.003	31.56
1026.162	44.74
1026.321	74.96
1026.481	23.81
1026.64	22.07
1026.8	37.96
1026.959	29.05
1027.119	12.38
1027.278	-5.25
1027.437	-17.45
1027.597	3.28
1027.756	36.6
1027.915	33.11
1028.074	71.09
1028.234	-8.15
1028.393	10.25
1028.552	20.13
1028.711	-27.92
1028.87	42.61
1029.03	-39.93
1029.189	-14.16
1029.348	-35.47
1029.507	6.96
1029.666	23.62
1029.825	3.08
1029.984	6.38
1030.143	37.96
1030.302	5.8
1030.461	-49.62
1030.62	36.21
1030.779	27.5
1030.938	3.67
1031.097	3.86
1031.255	22.26
1031.414	77.48
1031.573	64.5
1031.732	-10.48
1031.891	-13
1032.049	46.87
1032.208	17.23
1032.367	3.86
1032.525	-4.08
1032.684	6.57
1032.843	18.58
1033.001	-31.21
1033.16	161.18
1033.319	60.05
1033.477	48.03
1033.636	-23.85
1033.794	-26.17
1033.953	34.08
1034.111	31.37
1034.27	-7.57
1034.428	19.36
1034.587	-19.78
1034.745	12.38
1034.903	19.36
1035.062	33.31
1035.22	-11.25
1035.378	54.23
1035.537	4.63
1035.695	64.31
1035.853	-9.7
1036.011	56.95
1036.17	6.18
1036.328	-26.56
1036.486	22.26
1036.644	8.7
1036.802	-50.97
1036.96	-24.04
1037.119	-18.23
1037.277	-10.09
1037.435	-13.77
1037.593	-31.02
1037.751	23.04
1037.909	11.03
1038.067	11.03
