Data from gum_young_FLMT105791__82__17-39-40-042.txt Node

Date: Mon Mar 20 17:39:40 GMT 2023
User: antho
Spectrometer: FLMT10579
Trigger mode: 0
Integration Time (sec): 1.000000E-1
Scans to average: 10
Electric dark correction enabled: true
Nonlinearity correction enabled: false
Boxcar width: 0
XAxis mode: Wavelengths
Number of Pixels in Spectrum: 3648
>>>>>Begin Spectral Data<<<<<
345.248	-142.4
345.464	-142.4
345.681	-142.4
345.898	-137.17
346.114	-128.45
346.331	-53.47
346.548	5.81
346.764	9.69
346.981	7.17
347.197	-11.43
347.414	32.16
347.631	6.97
347.847	48.44
348.064	-11.62
348.28	12.98
348.497	-35.07
348.713	-11.62
348.93	13.76
349.146	36.62
349.363	18.21
349.579	9.69
349.796	-11.04
350.012	14.72
350.229	37.39
350.445	3.1
350.661	2.13
350.878	2.32
351.094	-4.84
351.311	19.37
351.527	0.58
351.743	9.88
351.96	29.26
352.176	33.32
352.392	20.73
352.609	44.37
352.825	13.56
353.041	-3.29
353.257	21.51
353.474	21.7
353.69	8.91
353.906	30.61
354.122	-12.4
354.339	55.61
354.555	38.36
354.771	15.5
354.987	43.98
355.203	62.19
355.42	17.24
355.636	-12.59
355.852	-21.51
356.068	17.24
356.284	2.52
356.5	55.8
356.716	26.16
356.932	23.83
357.148	36.81
357.364	9.69
357.58	70.91
357.796	66.26
358.012	73.24
358.228	8.14
358.444	-16.47
358.66	65.29
358.876	30.22
359.092	24.22
359.308	57.35
359.524	21.7
359.74	-1.94
359.956	-12.98
360.172	20.34
360.388	36.42
360.604	16.27
360.819	83.31
361.035	17.82
361.251	61.81
361.467	2.71
361.683	44.17
361.898	14.34
362.114	16.86
362.33	17.24
362.546	68.2
362.762	11.62
362.977	4.26
363.193	8.33
363.409	68.39
363.624	-1.16
363.84	3.87
364.056	6.78
364.271	23.25
364.487	16.08
364.703	23.44
364.918	-8.72
365.134	-7.36
365.35	-6.01
365.565	113.34
365.781	25.57
365.996	38.56
366.212	61.61
366.427	39.91
366.643	0.58
366.858	6.78
367.074	-25.77
367.289	48.82
367.505	104.82
367.72	14.92
367.936	4.84
368.151	26.93
368.367	42.62
368.582	59.87
368.798	-13.56
369.013	50.37
369.228	45.92
369.444	43.4
369.659	91.64
369.874	51.34
370.09	77.89
370.305	-24.02
370.52	7.75
370.736	71.3
370.951	16.47
371.166	47.27
371.381	88.74
371.597	68.01
371.812	-17.24
372.027	0.19
372.242	21.7
372.458	86.02
372.673	20.73
372.888	25.96
373.103	35.07
373.318	127.49
373.533	54.06
373.749	34.1
373.964	-26.35
374.179	53.09
374.394	6.39
374.609	55.8
374.824	-1.16
375.039	64.52
375.254	-2.52
375.469	78.66
375.684	30.42
375.899	62
376.114	27.51
376.329	39.52
376.544	80.79
376.759	37.01
376.974	22.67
377.189	39.33
377.404	-8.14
377.619	66.65
377.834	-20.34
378.049	-19.57
378.264	-23.44
378.478	9.11
378.693	11.62
378.908	41.66
379.123	28.09
379.338	60.84
379.553	27.9
379.767	39.52
379.982	50.96
380.197	46.89
380.412	33.32
380.626	30.81
380.841	74.01
381.056	44.37
381.271	103.65
381.485	14.14
381.7	11.43
381.915	10.46
382.129	21.12
382.344	29.26
382.559	6.2
382.773	83.12
382.988	-28.87
383.202	25.96
383.417	9.88
383.632	110.05
383.846	31
384.061	46.5
384.275	28.48
384.49	49.02
384.704	50.18
384.919	24.41
385.133	44.17
385.348	26.35
385.562	-23.64
385.777	41.66
385.991	32.16
386.206	30.81
386.42	38.75
386.634	71.49
386.849	23.64
387.063	25.57
387.277	12.01
387.492	27.51
387.706	-3.49
387.92	-2.32
388.135	65.87
388.349	62.58
388.563	47.27
388.778	36.23
388.992	61.42
389.206	62.97
389.42	98.23
389.635	42.82
389.849	71.49
390.063	69.17
390.277	50.76
390.491	67.23
390.706	67.04
390.92	59.87
391.134	42.04
391.348	88.93
391.562	-3.29
391.776	55.8
391.99	38.17
392.205	48.05
392.419	16.27
392.633	27.9
392.847	82.92
393.061	31.58
393.275	84.09
393.489	19.57
393.703	53.47
393.917	68.01
394.131	29.06
394.345	29.06
394.559	66.65
394.773	46.11
394.986	64.91
395.2	49.99
395.414	83.51
395.628	10.27
395.842	52.31
396.056	41.27
396.27	-15.11
396.484	62.97
396.697	55.8
396.911	71.88
397.125	78.66
397.339	84.67
397.553	58.51
397.766	96.29
397.98	69.36
398.194	95.9
398.408	40.49
398.621	87.77
398.835	83.89
399.049	87.96
399.262	78.86
399.476	86.41
399.69	68.78
399.903	154.22
400.117	57.16
400.331	105.79
400.544	48.05
400.758	167.4
400.971	72.27
401.185	105.98
401.398	33.91
401.612	138.92
401.826	104.43
402.039	99.78
402.253	64.52
402.466	103.65
402.68	58.32
402.893	93.97
403.106	91.45
403.32	87.77
403.533	106.17
403.747	65.29
403.96	88.74
404.174	116.44
404.387	66.07
404.6	69.17
404.814	101.72
405.027	73.43
405.24	75.56
405.454	84.67
405.667	121.87
405.88	47.47
406.094	93.19
406.307	129.42
406.52	108.5
406.733	48.05
406.947	24.41
407.16	155.39
407.373	141.44
407.586	53.86
407.799	49.79
408.012	113.54
408.226	92.42
408.439	137.37
408.652	45.92
408.865	99.39
409.078	129.42
409.291	92.8
409.504	73.62
409.717	114.7
409.93	126.9
410.143	103.85
410.357	61.22
410.57	49.02
410.783	72.07
410.996	76.92
411.209	74.21
411.421	125.74
411.634	120.12
411.847	40.3
412.06	106.17
412.273	108.11
412.486	102.1
412.699	172.05
412.912	117.6
413.125	109.66
413.338	119.54
413.55	129.42
413.763	107.92
413.976	136.79
414.189	93.97
414.402	103.85
414.615	157.71
414.827	90.29
415.04	112.37
415.253	100.75
415.466	132.14
415.678	172.24
415.891	117.8
416.104	126.13
416.316	94.35
416.529	102.49
416.742	131.17
416.954	155.77
417.167	116.83
417.38	117.02
417.592	132.33
417.805	91.64
418.017	77.31
418.23	163.72
418.442	117.22
418.655	134.27
418.868	104.43
419.08	172.63
419.293	145.31
419.505	136.2
419.718	133.69
419.93	165.46
420.142	119.35
420.355	155.97
420.567	156.94
420.78	151.32
420.992	145.7
421.205	186.19
421.417	102.69
421.629	134.65
421.842	105.01
422.054	108.3
422.266	161
422.479	167.79
422.691	94.74
422.903	134.07
423.115	98.81
423.328	105.01
423.54	144.54
423.752	122.06
423.964	139.3
424.177	161.59
424.389	128.45
424.601	233.66
424.813	155.58
425.025	155.58
425.238	194.52
425.45	129.23
425.662	143.18
425.874	386.91
426.086	136.2
426.298	173.79
426.51	176.12
426.722	138.92
426.934	122.06
427.146	162.75
427.358	96.1
427.57	157.52
427.782	139.5
427.994	138.14
428.206	104.62
428.418	124
428.63	137.75
428.842	186
429.054	152.09
429.266	164.49
429.478	122.25
429.69	148.02
429.902	94.55
430.114	165.07
430.325	152.29
430.537	95.9
430.749	115.47
430.961	82.92
431.173	110.44
431.384	165.85
431.596	69.17
431.808	127.68
432.02	154.42
432.231	186.58
432.443	183.67
432.655	159.07
432.867	135.04
433.078	167.01
433.29	234.82
433.502	199.56
433.713	223.39
433.925	187.93
434.136	194.33
434.348	129.23
434.56	117.6
434.771	248.58
434.983	127.87
435.194	170.3
435.406	166.62
435.617	213.12
435.829	224.55
436.04	198.4
436.252	222.23
436.463	231.92
436.675	231.92
436.886	198.78
437.098	183.48
437.309	225.13
437.521	147.64
437.732	225.91
437.943	173.4
438.155	193.55
438.366	145.12
438.578	233.66
438.789	191.62
439	207.31
439.211	185.42
439.423	189.87
439.634	207.12
439.845	198.01
440.057	212.54
440.268	249.16
440.479	182.51
440.69	192.97
440.902	179.22
441.113	190.65
441.324	181.93
441.535	203.24
441.746	285.58
441.957	171.08
442.168	190.26
442.38	234.63
442.591	260.2
442.802	193.55
443.013	195.88
443.224	235.79
443.435	209.25
443.646	221.45
443.857	195.88
444.068	203.24
444.279	206.73
444.49	284.23
444.701	207.89
444.912	310.96
445.123	240.25
445.334	242.38
445.545	258.27
445.756	218.93
445.967	216.03
446.178	272.41
446.388	266.98
446.599	249.16
446.81	241.22
447.021	243.15
447.232	314.65
447.443	289.65
447.653	218.16
447.864	311.93
448.075	247.42
448.286	279.38
448.496	260.78
448.707	288.49
448.918	217.38
449.129	330.15
449.339	238.31
449.55	261.56
449.761	241.22
449.971	299.92
450.182	256.91
450.393	284.81
450.603	270.86
450.814	319.1
451.024	293.72
451.235	311.74
451.446	337.7
451.656	330.34
451.867	263.11
452.077	268.15
452.288	349.71
452.498	327.05
452.709	271.63
452.919	294.5
453.13	277.83
453.34	290.23
453.55	219.32
453.761	309.22
453.971	298.95
454.182	313.48
454.392	290.04
454.602	346.03
454.813	310.38
455.023	335.38
455.233	263.5
455.444	300.11
455.654	235.6
455.864	290.04
456.075	264.27
456.285	266.4
456.495	312.51
456.705	342.35
456.916	353.78
457.126	351.46
457.336	306.9
457.546	253.62
457.756	285.97
457.967	333.25
458.177	292.17
458.387	306.12
458.597	266.01
458.807	279.38
459.017	305.93
459.227	289.26
459.437	304.96
459.647	341.38
459.857	324.72
460.068	278.03
460.278	365.6
460.488	330.73
460.698	347
460.908	322.98
461.117	276.67
461.327	307.48
461.537	337.7
461.747	345.45
461.957	340.8
462.167	444.65
462.377	350.68
462.587	344.48
462.797	359.79
463.007	333.63
463.216	359.79
463.426	379.74
463.636	358.63
463.846	289.07
464.056	307.28
464.265	357.85
464.475	303.21
464.685	336.15
464.895	364.05
465.104	359.79
465.314	367.34
465.524	342.55
465.733	309.8
465.943	415.01
466.153	394.86
466.362	377.61
466.572	368.89
466.782	353.39
466.991	380.71
467.201	379.55
467.41	306.51
467.62	359.98
467.829	347
468.039	369.48
468.249	350.1
468.458	357.46
468.668	389.82
468.877	379.74
469.086	403.19
469.296	422.56
469.505	339.45
469.715	459.96
469.924	381.1
470.134	433.41
470.343	441.36
470.552	351.07
470.762	377.03
470.971	332.47
471.18	393.69
471.39	386.33
471.599	368.51
471.808	416.75
472.018	357.66
472.227	437.67
472.436	450.27
472.645	398.15
472.855	377.23
473.064	453.76
473.273	440.77
473.482	436.9
473.691	432.06
473.901	440.77
474.11	406.09
474.319	514.79
474.528	414.23
474.737	507.81
474.946	458.41
475.155	445.81
475.364	497.35
475.573	448.72
475.783	478.56
475.992	482.82
476.201	477.01
476.41	472.55
476.619	418.88
476.828	465.96
477.037	445.81
477.245	472.55
477.454	489.41
477.663	474.29
477.872	453.76
478.081	517.69
478.29	459.96
478.499	531.64
478.708	490.76
478.917	573.69
479.125	500.45
479.334	505.1
479.543	486.5
479.752	524.86
479.961	517.69
480.169	585.12
480.378	503.55
480.587	639.17
480.796	542.1
481.004	536.49
481.213	564.58
481.422	557.02
481.63	525.44
481.839	571.75
482.048	610.89
482.256	607.01
482.465	568.26
482.674	622.7
482.882	591.7
483.091	666.1
483.299	595.39
483.508	602.36
483.716	596.94
483.925	616.12
484.134	590.54
484.342	596.74
484.551	629.1
484.759	608.17
484.967	632.78
485.176	655.83
485.384	662.62
485.593	642.47
485.801	624.45
486.01	598.49
486.218	580.27
486.426	530.67
486.635	551.02
486.843	570.2
487.051	568.84
487.26	570.2
487.468	579.5
487.676	636.85
487.885	640.72
488.093	608.95
488.301	665.91
488.509	642.27
488.717	679.47
488.926	663.97
489.134	637.62
489.342	648.08
489.55	632
489.758	680.44
489.967	665.52
490.175	774.21
490.383	659.9
490.591	734.11
490.799	669.4
491.007	731.59
491.215	711.63
491.423	704.08
491.631	709.31
491.839	705.43
492.047	734.3
492.255	673.27
492.463	626.58
492.671	707.18
492.879	733.91
493.087	711.05
493.295	717.64
493.503	762.59
493.711	739.34
493.919	793.59
494.127	789.52
494.334	762.01
494.542	703.69
494.75	756.39
494.958	750.58
495.166	819.55
495.374	783.71
495.581	805.6
495.789	805.6
495.997	825.17
496.205	786.03
496.412	770.73
496.62	815.29
496.828	821.88
497.035	789.91
497.243	836.21
497.451	822.07
497.658	826.14
497.866	808.7
498.074	871.09
498.281	800.56
498.489	875.35
498.696	818.58
498.904	772.86
499.112	807.93
499.319	917.39
499.527	830.21
499.734	874.19
499.942	800.76
500.149	825.75
500.357	851.71
500.564	830.01
500.771	869.73
500.979	809.09
501.186	799.98
501.394	857.72
501.601	809.67
501.808	869.54
502.016	847.26
502.223	858.49
502.43	898.6
502.638	852.29
502.845	836.21
503.052	938.9
503.26	854.23
503.467	924.76
503.674	887.36
503.881	887.36
504.089	971.84
504.296	943.55
504.503	873.41
504.71	932.89
504.917	881.16
505.125	954.98
505.332	979.39
505.539	928.05
505.746	1025.89
505.953	981.14
506.16	965.44
506.367	1047.2
506.574	1043.52
506.781	1056.7
506.988	978.81
507.195	1053.21
507.402	1039.45
507.609	1045.07
507.816	1004.77
508.023	1022.4
508.23	1015.24
508.437	1000.32
508.644	1027.44
508.851	1087.7
509.058	1081.88
509.265	1082.85
509.472	1128
509.679	1156.48
509.885	1118.7
510.092	1115.98
510.299	1113.66
510.506	1085.18
510.713	1147.56
510.92	1122.57
511.126	1176.82
511.333	1199.88
511.54	1190.96
511.746	1197.36
511.953	1219.25
512.16	1231.84
512.367	1203.56
512.573	1203.56
512.78	1207.05
512.987	1238.63
513.193	1241.92
513.4	1146.6
513.606	1225.84
513.813	1266.33
514.02	1241.53
514.226	1325.81
514.433	1302.56
514.639	1258.97
514.846	1268.85
515.052	1250.64
515.259	1281.64
515.465	1301.59
515.672	1341.31
515.878	1388.78
516.085	1351.77
516.291	1412.8
516.497	1318.26
516.704	1365.72
516.91	1308.18
517.117	1249.48
517.323	1224.09
517.529	1235.91
517.736	1278.73
517.942	1269.04
518.148	1319.03
518.354	1353.91
518.561	1359.72
518.767	1344.99
518.973	1370.37
519.179	1464.73
519.386	1436.05
519.592	1381.81
519.798	1423.46
520.004	1532.35
520.21	1516.27
520.417	1601.32
520.623	1560.25
520.829	1573.03
521.035	1582.53
521.241	1567.8
521.447	1607.33
521.653	1746.63
521.859	1648.21
522.065	1674.17
522.271	1750.12
522.477	1720.09
522.683	1745.86
522.889	1742.95
523.095	1721.25
523.301	1716.99
523.507	1688.51
523.713	1747.99
523.919	1717.76
524.125	1838.85
524.331	1773.37
524.537	1868.3
524.742	1851.84
524.948	1872.76
525.154	1865.01
525.36	1998.12
525.566	1898.92
525.772	1971.77
525.977	1874.5
526.183	1919.07
526.389	1945.8
526.595	1884.58
526.8	1886.71
527.006	1790.42
527.212	1748.76
527.417	1772.59
527.623	1778.99
527.829	1812.89
528.034	1891.17
528.24	1900.27
528.446	1908.8
528.651	2012.65
528.857	2044.23
529.062	2053.14
529.268	2034.54
529.473	2103.13
529.679	2081.43
529.884	2169.39
530.09	2106.61
530.295	2159.7
530.501	2120.37
530.706	2112.62
530.912	2139.74
531.117	2186.63
531.323	2153.5
531.528	2219.96
531.733	2227.12
531.939	2206.59
532.144	2226.74
532.35	2193.41
532.555	2247.08
532.76	2195.54
532.966	2167.06
533.171	2102.35
533.376	2099.64
533.581	2139.55
533.787	2193.02
533.992	2211.43
534.197	2210.27
534.402	2211.04
534.607	2190.51
534.813	2299
535.018	2233.71
535.223	2274.01
535.428	2262.39
535.633	2301.72
535.838	2363.52
536.043	2321.09
536.249	2396.07
536.454	2314.5
536.659	2358.49
536.864	2326.13
537.069	2313.54
537.274	2334.07
537.479	2351.32
537.684	2336.01
537.889	2303.07
538.094	2434.63
538.299	2367.2
538.504	2399.17
538.708	2387.93
538.913	2428.23
539.118	2408.67
539.323	2406.73
539.528	2363.91
539.733	2351.9
539.938	2370.88
540.142	2392.58
540.347	2369.14
540.552	2303.07
540.757	2305.4
540.962	2323.22
541.166	2313.15
541.371	2308.89
541.576	2357.71
541.781	2289.32
541.985	2384.64
542.19	2372.63
542.395	2467.18
542.599	2481.13
542.804	2472.02
543.008	2495.46
543.213	2439.86
543.418	2392.58
543.622	2459.62
543.827	2402.27
544.031	2469.11
544.236	2492.56
544.44	2491.78
544.645	2580.71
544.849	2498.76
545.054	2562.89
545.258	2615.2
545.463	2606.87
545.667	2481.51
545.872	2530.73
546.076	2532.66
546.281	2545.26
546.485	2498.76
546.689	2523.95
546.894	2580.33
547.098	2537.31
547.302	2495.66
547.507	2533.44
547.711	2552.23
547.915	2580.33
548.119	2528.98
548.324	2514.45
548.528	2543.32
548.732	2553.59
548.936	2602.03
549.141	2592.34
549.345	2566.38
549.549	2599.89
549.753	2606.29
549.957	2648.52
550.161	2660.15
550.366	2608.61
550.57	2566.96
550.774	2590.21
550.978	2577.42
551.182	2614.23
551.386	2585.17
551.59	2588.66
551.794	2604.35
551.998	2641.94
552.202	2607.64
552.406	2563.08
552.61	2621.21
552.814	2603.77
553.018	2655.31
553.222	2540.61
553.426	2543.9
553.63	2637.87
553.833	2609
554.037	2568.12
554.241	2632.64
554.445	2620.63
554.649	2628.57
554.853	2628.37
555.056	2634.38
555.26	2672.74
555.464	2626.24
555.668	2624.11
555.871	2666.35
556.075	2673.32
556.279	2634.38
556.483	2586.33
556.686	2590.4
556.89	2550.68
557.094	2584.78
557.297	2534.99
557.501	2600.86
557.704	2521.04
557.908	2565.41
558.112	2524.53
558.315	2591.76
558.519	2554.94
558.722	2466.21
558.926	2490.43
559.129	2414.09
559.333	2380.77
559.536	2425.52
559.74	2391.23
559.943	2413.12
560.147	2393.75
560.35	2444.51
560.553	2458.85
560.757	2397.62
560.96	2494.88
561.164	2423.78
561.367	2514.45
561.57	2471.05
561.774	2448.19
561.977	2436.76
562.18	2402.27
562.384	2457.3
562.587	2395.49
562.79	2408.86
562.993	2361
563.197	2404.21
563.4	2465.05
563.603	2421.26
563.806	2499.15
564.009	2377.08
564.212	2405.57
564.416	2327.49
564.619	2406.73
564.822	2272.46
565.025	2390.45
565.228	2326.9
565.431	2334.27
565.634	2256.19
565.837	2293.77
566.04	2267.81
566.243	2233.13
566.446	2181.01
566.649	2291.06
566.852	2201.16
567.055	2229.84
567.258	2211.43
567.461	2303.85
567.664	2289.51
567.867	2188.57
568.07	2243.01
568.273	2255.61
568.475	2242.43
568.678	2142.26
568.881	2173.07
569.084	2128.7
569.287	2076.78
569.489	2099.64
569.692	2137.42
569.895	2125.6
570.098	2057.79
570.3	2049.65
570.503	2000.44
570.706	2029.5
570.909	2031.25
571.111	1934.76
571.314	1966.73
571.516	1994.82
571.719	1984.17
571.922	1988.23
572.124	1991.33
572.327	2026.21
572.529	1949.48
572.732	1966.34
572.935	1979.71
573.137	2061.08
573.34	1963.43
573.542	1969.05
573.745	2000.63
573.947	1982.62
574.15	1968.67
574.352	1896.01
574.554	1999.08
574.757	1945.42
574.959	1854.55
575.162	1925.46
575.364	1860.94
575.566	1944.25
575.769	1837.5
575.971	1860.36
576.173	1732.68
576.376	1853.58
576.578	1877.02
576.78	1905.5
576.982	1776.27
577.185	1849.7
577.387	1780.92
577.589	1831.3
577.791	1824.91
577.993	1819.09
578.196	1803.79
578.398	1820.64
578.6	1819.29
578.802	1730.16
579.004	1757.87
579.206	1785.57
579.408	1781.31
579.61	1766.2
579.812	1814.25
580.014	1764.46
580.216	1746.83
580.418	1816.77
580.62	1743.34
580.822	1760.19
581.024	1777.44
581.226	1807.27
581.428	1741.21
581.63	1850.87
581.832	1779.57
582.034	1836.34
582.236	1782.09
582.438	1803.21
582.64	1862.3
582.841	1844.86
583.043	1878.38
583.245	1816.57
583.447	1842.15
583.649	1794.49
583.85	1802.24
584.052	1858.62
584.254	1751.09
584.456	1813.28
584.657	1752.25
584.859	1842.34
585.061	1774.92
585.262	1746.63
585.464	1715.24
585.666	1801.46
585.867	1731.71
586.069	1798.17
586.27	1749.73
586.472	1710.59
586.674	1714.86
586.875	1720.48
587.077	1706.53
587.278	1717.38
587.48	1689.86
587.681	1816.19
587.883	1712.73
588.084	1664.87
588.285	1689.48
588.487	1663.71
588.688	1693.35
588.89	1609.46
589.091	1562.18
589.292	1570.32
589.494	1510.45
589.695	1507.93
589.896	1400.02
590.098	1418.42
590.299	1467.25
590.5	1436.44
590.702	1505.22
590.903	1505.61
591.104	1575.55
591.305	1573.42
591.507	1609.85
591.708	1562.18
591.909	1531.77
592.11	1589.89
592.311	1589.89
592.512	1526.15
592.714	1527.12
592.915	1537.77
593.116	1536.61
593.317	1527.31
593.518	1525.18
593.719	1549.4
593.92	1611.4
594.121	1606.55
594.322	1578.07
594.523	1589.7
594.724	1493.79
594.925	1507.74
595.126	1530.22
595.327	1561.22
595.528	1556.18
595.729	1544.55
595.929	1506.97
596.13	1507.16
596.331	1536.61
596.532	1546.3
596.733	1602.48
596.934	1589.31
597.135	1564.32
597.335	1581.95
597.536	1534.87
597.737	1571.1
597.938	1518.4
598.138	1555.79
598.339	1544.17
598.54	1580.98
598.74	1507.74
598.941	1542.62
599.142	1613.53
599.342	1528.86
599.543	1544.36
599.744	1530.6
599.944	1516.65
600.145	1537.58
600.345	1505.42
600.546	1606.75
600.746	1593.96
600.947	1613.33
601.147	1553.85
601.348	1590.66
601.548	1533.12
601.749	1574.78
601.949	1493.21
602.15	1513.75
602.35	1489.92
602.551	1582.53
602.751	1493.98
602.951	1506.77
603.152	1455.43
603.352	1550.75
603.552	1499.6
603.753	1543.2
603.953	1559.86
604.153	1537.97
604.354	1528.08
604.554	1511.03
604.754	1520.92
604.954	1481.97
605.155	1530.02
605.355	1540.1
605.555	1559.08
605.755	1539.71
605.955	1500.38
606.155	1545.33
606.356	1495.15
606.556	1541.84
606.756	1517.82
606.956	1477.71
607.156	1553.85
607.356	1451.36
607.556	1498.83
607.756	1475
607.956	1512.58
608.156	1514.91
608.356	1435.86
608.556	1495.73
608.756	1485.27
608.956	1481.78
609.156	1450
609.356	1463.57
609.556	1420.94
609.755	1476.55
609.955	1457.37
610.155	1456.98
610.355	1427.72
610.555	1406.8
610.755	1439.93
610.954	1390.33
611.154	1436.83
611.354	1425.59
611.554	1389.17
611.753	1407.57
611.953	1394.4
612.153	1433.92
612.352	1400.4
612.552	1387.42
612.752	1329.88
612.951	1369.6
613.151	1384.71
613.351	1356.42
613.55	1346.16
613.75	1400.02
613.949	1349.26
614.149	1369.99
614.348	1354.29
614.548	1342.67
614.747	1266.33
614.947	1334.34
615.146	1262.84
615.346	1369.21
615.545	1356.81
615.745	1359.33
615.944	1327.17
616.144	1332.79
616.343	1361.46
616.542	1270.01
616.742	1298.3
616.941	1313.22
617.14	1234.36
617.34	1309.54
617.539	1256.26
617.738	1265.36
617.938	1359.14
618.137	1304.11
618.336	1251.03
618.535	1321.94
618.734	1300.04
618.934	1304.69
619.133	1304.5
619.332	1320
619.531	1277.18
619.73	1264.98
619.929	1301.59
620.128	1281.44
620.328	1295.2
620.527	1275.24
620.726	1228.55
620.925	1270.4
621.124	1253.16
621.323	1314.57
621.522	1201.23
621.721	1226.81
621.92	1184.57
622.119	1284.16
622.318	1203.17
622.517	1227.78
622.715	1215.57
622.914	1192.71
623.113	1221.96
623.312	1160.35
623.511	1225.64
623.71	1212.28
623.909	1184.57
624.107	1222.55
624.306	1142.53
624.505	1155.51
624.704	1176.05
624.902	1157.06
625.101	1239.01
625.3	1145.43
625.499	1150.86
625.697	1145.43
625.896	1151.83
626.095	1181.86
626.293	1104.55
626.492	1159
626.69	1153.18
626.889	1130.52
627.088	1198.91
627.286	1133.81
627.485	1123.35
627.683	1133.23
627.882	1143.88
628.08	1059.8
628.279	1084.4
628.477	1145.05
628.676	1043.91
628.874	1122.96
629.073	1063.28
629.271	1063.48
629.469	1097.97
629.668	1081.88
629.866	1094.28
630.065	1075.1
630.263	1125.09
630.461	1047.4
630.66	1085.57
630.858	1132.45
631.056	1155.9
631.254	1146.98
631.453	1079.56
631.651	1119.86
631.849	1092.54
632.047	1090.99
632.245	1063.67
632.444	1088.86
632.642	1118.31
632.84	1154.73
633.038	1078.78
633.236	1047.2
633.434	1078.01
633.632	1103.78
633.83	1058.44
634.028	1148.53
634.227	1098.74
634.425	1138.85
634.623	1115.79
634.821	1126.06
635.019	1092.35
635.216	1098.55
635.414	1160.93
635.612	1093.7
635.81	1084.4
636.008	1139.23
636.206	1099.13
636.404	1147.56
636.602	1092.35
636.8	1085.57
636.997	1125.87
637.195	1091.18
637.393	1123.73
637.591	1157.64
637.789	1121.8
637.986	1085.57
638.184	1088.47
638.382	1129.93
638.58	1092.35
638.777	1142.91
638.975	1073.55
639.173	1077.43
639.37	1105.52
639.568	1097.19
639.765	1098.93
639.963	1082.85
640.161	1104.17
640.358	1099.32
640.556	1047.79
640.753	1036.55
640.951	1009.81
641.148	1059.41
641.346	1033.84
641.543	989.66
641.741	1056.12
641.938	1007.1
642.136	1041.2
642.333	1012.33
642.531	1069.29
642.728	1045.07
642.925	1035.97
643.123	1011.55
643.32	1036.74
643.517	1000.7
643.715	1013.1
643.912	969.12
644.109	1012.72
644.306	1005.74
644.504	988.11
644.701	984.62
644.898	1002.25
645.095	970.09
645.293	978.81
645.49	976.87
645.687	987.72
645.884	995.09
646.081	888.72
646.278	932.7
646.475	917.59
646.672	880
646.87	919.33
647.067	905.96
647.264	915.26
647.461	845.13
647.658	862.76
647.855	878.84
648.052	873.8
648.249	798.43
648.446	841.64
648.642	842.41
648.839	816.45
649.036	806.57
649.233	799.79
649.43	815.09
649.627	794.75
649.824	809.28
650.021	805.79
650.217	787
650.414	808.51
650.611	843.96
650.808	847.84
651.004	814.32
651.201	855.01
651.398	905.57
651.595	819.55
651.791	798.82
651.988	845.71
652.185	799.4
652.381	846.29
652.578	776.93
652.775	798.63
652.971	812.96
653.168	848.42
653.364	837.57
653.561	755.61
653.757	806.57
653.954	799.98
654.15	787.97
654.347	879.22
654.543	807.93
654.74	759.88
654.936	762.78
655.133	788.94
655.329	792.04
655.525	791.07
655.722	824.59
655.918	783.71
656.115	798.63
656.311	712.02
656.507	652.54
656.704	615.92
656.9	699.62
657.096	709.11
657.292	675.4
657.489	756.97
657.685	717.45
657.881	714.54
658.077	680.44
658.273	745.15
658.47	773.25
658.666	729.85
658.862	772.08
659.058	715.12
659.254	793.78
659.45	734.69
659.646	785.84
659.842	737.79
660.038	784.29
660.234	694.2
660.43	731.01
660.626	779.83
660.822	768.21
661.018	759.3
661.214	725.39
661.41	705.63
661.606	764.33
661.802	764.53
661.998	734.11
662.194	688.19
662.39	757.75
662.586	758.13
662.781	771.31
662.977	757.75
663.173	767.05
663.369	725.78
663.564	750.19
663.76	751.16
663.956	700.78
664.152	761.62
664.347	664.55
664.543	727.91
664.739	683.73
664.934	674.05
665.13	669.98
665.326	725.39
665.521	712.8
665.717	688
665.912	689.35
666.108	613.79
666.304	661.65
666.499	659.71
666.695	629.1
666.89	640.92
667.086	690.71
667.281	666.88
667.477	748.64
667.672	675.6
667.867	711.25
668.063	666.88
668.258	624.06
668.454	672.88
668.649	741.47
668.844	678.12
669.04	691.68
669.235	661.65
669.43	645.37
669.626	642.27
669.821	669.2
670.016	603.52
670.211	635.1
670.407	603.91
670.602	621.15
670.797	621.73
670.992	644.6
671.187	619.02
671.382	661.45
671.578	630.26
671.773	632
671.968	595.97
672.163	633.36
672.358	618.44
672.553	625.03
672.748	629.68
672.943	686.83
673.138	601.59
673.333	659.32
673.528	608.37
673.723	640.33
673.918	614.37
674.113	582.6
674.308	682.38
674.503	661.65
674.698	650.8
674.892	620.96
675.087	622.12
675.282	632
675.477	609.72
675.672	640.72
675.867	607.98
676.061	581.82
676.256	559.93
676.451	604.1
676.646	617.28
676.84	582.02
677.035	568.26
677.23	579.5
677.424	625.22
677.619	631.42
677.814	651.96
678.008	637.04
678.203	570
678.397	591.9
678.592	598.1
678.787	643.24
678.981	601.78
679.176	604.69
679.37	628.52
679.565	596.55
679.759	583.18
679.954	637.04
680.148	639.37
680.342	640.14
680.537	622.51
680.731	603.33
680.926	635.3
681.12	664.17
681.314	598.87
681.509	593.45
681.703	586.86
681.897	638.98
682.092	604.88
682.286	588.8
682.48	663.2
682.674	661.07
682.869	622.51
683.063	613.02
683.257	689.16
683.451	614.18
683.645	649.83
683.839	632.97
684.034	628.71
684.228	681.6
684.422	595.77
684.616	585.12
684.81	644.21
685.004	608.37
685.198	660.87
685.392	665.91
685.586	634.13
685.78	620.77
685.974	637.62
686.168	665.52
686.362	725.58
686.556	616.5
686.75	586.09
686.944	576.59
687.138	601.78
687.331	464.41
687.525	527.19
687.719	467.9
687.913	511.88
688.107	551.02
688.301	507.04
688.494	580.47
688.688	511.88
688.882	507.81
689.076	527.57
689.269	543.46
689.463	613.98
689.657	556.44
689.85	558.57
690.044	603.91
690.238	565.35
690.431	595.19
690.625	595
690.818	622.51
691.012	677.34
691.205	694.58
691.399	672.3
691.593	725
691.786	731.01
691.98	789.91
692.173	786.42
692.366	790.29
692.56	813.35
692.753	859.08
692.947	785.45
693.14	883.49
693.333	839.12
693.527	792.23
693.72	864.11
693.914	877.87
694.107	862.95
694.3	893.95
694.493	875.35
694.687	973.19
694.88	918.36
695.073	978.62
695.266	996.64
695.46	1003.61
695.653	1039.07
695.846	1024.15
696.039	974.94
696.232	1006.13
696.425	1094.87
696.618	1079.17
696.812	1112.69
697.005	1149.5
697.198	1272.73
697.391	1193.1
697.584	1218.86
697.777	1302.56
697.97	1250.44
698.163	1319.81
698.356	1282.03
698.549	1391.11
698.742	1343.64
698.935	1321.94
699.127	1357.39
699.32	1308.76
699.513	1359.14
699.706	1368.63
699.899	1428.69
700.092	1403.89
700.285	1421.33
700.477	1389.17
700.67	1430.05
700.863	1472.09
701.056	1531.77
701.248	1502.32
701.441	1501.73
701.634	1516.85
701.826	1588.73
702.019	1513.17
702.212	1570.52
702.404	1539.71
702.597	1580.2
702.79	1607.33
702.982	1646.27
703.175	1694.9
703.367	1704.59
703.56	1712.34
703.752	1796.42
703.945	1805.72
704.137	1777.63
704.33	1823.74
704.522	1825.49
704.715	1878.57
704.907	1860.55
705.1	1927.4
705.292	1913.84
705.484	1901.63
705.677	1955.1
705.869	1958.98
706.061	2004.9
706.254	2019.81
706.446	1989.98
706.638	2000.83
706.831	2090.53
707.023	2047.13
707.215	2185.08
707.407	2183.53
707.599	2133.54
707.792	2246.5
707.984	2180.82
708.176	2223.44
708.368	2174.43
708.56	2255.41
708.752	2250.57
708.944	2204.65
709.136	2271.49
709.329	2293.19
709.521	2390.07
709.713	2350.15
709.905	2385.22
710.097	2433.27
710.289	2374.37
710.481	2394.33
710.672	2392
710.864	2461.56
711.056	2492.95
711.248	2503.8
711.44	2530.92
711.632	2513.68
711.824	2524.91
712.016	2578.58
712.207	2601.64
712.399	2598.54
712.591	2637.67
712.783	2644.84
712.975	2608.23
713.166	2629.15
713.358	2649.11
713.55	2723.7
713.741	2710.72
713.933	2722.15
714.125	2689.79
714.316	2680.49
714.508	2744.43
714.7	2737.45
714.891	2778.14
715.083	2781.82
715.274	2716.53
715.466	2758.77
715.657	2808.95
715.849	2688.63
716.04	2764.97
716.232	2695.02
716.423	2706.65
716.615	2627.6
716.806	2549.13
716.998	2506.12
717.189	2427.27
717.381	2319.54
717.572	2292.8
717.763	2295.13
717.955	2248.05
718.146	2179.08
718.337	2177.14
718.528	2123.47
718.72	2038.8
718.911	2087.43
719.102	2054.5
719.293	2087.63
719.485	2083.17
719.676	2002.18
719.867	1997.53
720.058	2057.21
720.249	2005.67
720.44	2035.51
720.632	2060.11
720.823	2146.14
721.014	2332.14
721.205	2322.84
721.396	2437.34
721.587	2535.57
721.778	2596.79
721.969	2646.59
722.16	2707.62
722.351	2759.15
722.542	2850.6
722.733	2874.24
722.924	2801.2
723.115	2823.87
723.305	2795.39
723.496	2776.79
723.687	2650.85
723.878	2650.85
724.069	2627.41
724.26	2653.95
724.45	2580.33
724.641	2594.66
724.832	2593.31
725.023	2566.57
725.213	2595.24
725.404	2547.39
725.595	2537.12
725.785	2529.56
725.976	2631.86
726.167	2596.6
726.357	2580.33
726.548	2699.67
726.739	2580.52
726.929	2676.42
727.12	2718.85
727.31	2739.97
727.501	2665.77
727.691	2645.42
727.882	2670.42
728.072	2726.8
728.263	2748.69
728.453	2821.73
728.644	2819.41
728.834	2788.22
729.024	2766.9
729.215	2755.28
729.405	2780.08
729.596	2862.23
729.786	2900.01
729.976	2904.46
730.167	2875.6
730.357	2855.25
730.547	2888.38
730.737	2936.82
730.928	2949.8
731.118	2997.66
731.308	2904.46
731.498	2962.59
731.688	3012.19
731.879	3058.3
732.069	3133.47
732.259	3172.61
732.449	3200.51
732.639	3356.28
732.829	3272.78
733.019	3394.45
733.209	3416.34
733.399	3448.12
733.589	3527.36
733.779	3566.89
733.969	3588.39
734.159	3639.35
734.349	3668.22
734.539	3693.79
734.729	3748.04
734.919	3791.25
735.109	3813.33
735.299	3763.35
735.488	3753.85
735.678	3768.77
735.868	3799.58
736.058	3783.5
736.248	3772.65
736.437	3724.6
736.627	3735.45
736.817	3862.93
737.007	3760.83
737.196	3838.71
737.386	3800.55
737.576	3808.1
737.765	3867.58
737.955	3837.94
738.144	3957.48
738.334	3935.01
738.524	3923.19
738.713	3948.57
738.903	3943.72
739.092	3975.89
739.282	3946.05
739.471	4004.56
739.661	3943.72
739.85	3992.74
740.04	3976.66
740.229	4047.57
740.419	4073.73
740.608	4116.16
740.797	4049.32
740.987	4158.2
741.176	4112.28
741.365	4109.18
741.555	4082.25
741.744	4177.58
741.933	4120.81
742.123	4105.7
742.312	4179.32
742.501	4220.98
742.69	4169.83
742.88	4129.92
743.069	4249.85
743.258	4201.6
743.447	4247.13
743.636	4258.56
743.825	4253.91
744.014	4281.23
744.204	4265.54
744.393	4203.93
744.582	4307.78
744.771	4333.35
744.96	4256.82
745.149	4289.18
745.338	4212.45
745.527	4333.16
745.716	4254.69
745.905	4281.23
746.094	4344.98
746.283	4378.49
746.471	4326.57
746.66	4373.84
746.849	4361.44
747.038	4314.56
747.227	4323.86
747.416	4334.9
747.604	4268.83
747.793	4243.26
747.982	4354.28
748.171	4349.63
748.359	4335.68
748.548	4322.89
748.737	4362.99
748.926	4340.71
749.114	4216.13
749.303	4262.44
749.491	4280.65
749.68	4233.76
749.869	4303.51
750.057	4282.01
750.246	4279.68
750.434	4302.93
750.623	4220.2
750.811	4202.57
751	4288.01
751.188	4245.78
751.377	4268.64
751.565	4223.88
751.754	4206.64
751.942	4197.34
752.131	4238.41
752.319	4152.58
752.507	4183.58
752.696	4211.29
752.884	4201.41
753.072	4205.86
753.261	4231.63
753.449	4219.23
753.637	4159.37
753.825	4267.28
754.014	4193.08
754.202	4240.55
754.39	4211.87
754.578	4223.11
754.766	4167.31
754.955	4121.39
755.143	4244.03
755.331	4195.4
755.519	4136.7
755.707	4171.96
755.895	4167.12
756.083	4129.14
756.271	4120.03
756.459	4151.81
756.647	4118.48
756.835	4115.97
757.023	4060.94
757.211	4112.67
757.399	4065.4
757.587	4025.68
757.775	4029.55
757.963	4050.09
758.151	4071.21
758.339	3990.61
758.526	3979.57
758.714	4023.16
758.902	3874.94
759.09	3797.64
759.278	3522.32
759.465	3240.81
759.653	2828.9
759.841	2557.85
760.028	2214.92
760.216	1909.38
760.404	1748.37
760.591	1476.55
760.779	1223.13
760.967	1037.13
761.154	909.64
761.342	907.51
761.529	876.71
761.717	944.71
761.905	913.13
762.092	1029.77
762.28	935.61
762.467	929.41
762.655	830.79
762.842	872.25
763.029	847.64
763.217	905.77
763.404	899.96
763.592	915.07
763.779	858.69
763.966	893.17
764.154	928.63
764.341	1005.16
764.528	1014.46
764.716	1088.28
764.903	1157.83
765.09	1223.51
765.277	1298.88
765.465	1526.15
765.652	1531.77
765.839	1636.97
766.026	1791.97
766.213	1905.7
766.4	1971.38
766.588	2225.77
766.775	2241.85
766.962	2354.61
767.149	2449.74
767.336	2649.49
767.523	2627.02
767.71	2816.31
767.897	2875.79
768.084	2991.26
768.271	3012.77
768.458	3095.31
768.645	3181.33
768.832	3243.33
769.019	3247.98
769.206	3328.38
769.392	3363.65
769.579	3508.96
769.766	3461.68
769.953	3441.14
770.14	3502.95
770.327	3545.96
770.513	3557.97
770.7	3582.19
770.887	3523.68
771.073	3578.12
771.26	3587.04
771.447	3530.07
771.634	3561.07
771.82	3626.95
772.007	3535.11
772.193	3632.37
772.38	3609.9
772.567	3632.57
772.753	3562.43
772.94	3640.9
773.126	3662.6
773.313	3628.69
773.499	3631.02
773.686	3626.75
773.872	3569.6
774.059	3597.89
774.245	3570.96
774.432	3558.17
774.618	3495.01
774.804	3601.57
774.991	3514.38
775.177	3600.99
775.363	3566.31
775.55	3584.52
775.736	3494.81
775.922	3538.6
776.109	3555.26
776.295	3542.47
776.481	3544.8
776.667	3538.41
776.853	3494.23
777.04	3492.49
777.226	3525.62
777.412	3577.74
777.598	3448.51
777.784	3486.48
777.97	3431.84
778.156	3483.77
778.342	3475.83
778.528	3435.33
778.715	3402.4
778.901	3433.98
779.087	3447.93
779.272	3400.07
779.458	3380.5
779.644	3424.68
779.83	3426.23
780.016	3482.61
780.202	3422.54
780.388	3343.69
780.574	3318.12
780.76	3355.12
780.946	3407.82
781.131	3392.51
781.317	3379.34
781.503	3307.85
781.689	3324.12
781.874	3455.68
782.06	3288.08
782.246	3308.04
782.432	3324.51
782.617	3350.66
782.803	3364.61
782.989	3252.24
783.174	3286.15
783.36	3272.39
783.545	3273.55
783.731	3209.23
783.916	3181.52
784.102	3235.38
784.288	3221.82
784.473	3222.02
784.659	3209.81
784.844	3254.57
785.029	3236.16
785.215	3175.52
785.4	3129.21
785.586	3220.47
785.771	3149.36
785.956	3215.43
786.142	3132.51
786.327	3165.25
786.512	3074.19
786.698	3122.62
786.883	3047.64
787.068	3104.02
787.254	3132.31
787.439	3032.92
787.624	3058.88
787.809	3019.16
787.994	3020.33
788.18	3071.09
788.365	2947.86
788.55	3000.95
788.735	2970.92
788.92	2981.58
789.105	2922.29
789.29	2988.94
789.475	2892.06
789.66	2948.64
789.845	2949.03
790.03	2889.35
790.215	2928.3
790.4	2927.91
790.585	2950.96
790.77	2916.48
790.955	2870.37
791.14	2901.95
791.325	2924.81
791.51	2829.87
791.695	2896.33
791.879	2875.21
792.064	2814.57
792.249	2931.2
792.434	2859.71
792.618	2843.05
792.803	2907.18
792.988	2829.1
793.173	2865.91
793.357	2885.48
793.542	2831.03
793.727	2910.47
793.911	2951.16
794.096	2898.46
794.281	2937.79
794.465	2984.29
794.65	2889.93
794.834	2967.24
795.019	2946.7
795.203	2967.63
795.388	2987
795.572	3002.89
795.757	2920.35
795.941	2924.81
796.126	2922.29
796.31	2826.38
796.494	2920.55
796.679	2870.37
796.863	2858.93
797.048	2941.47
797.232	2910.86
797.416	2924.42
797.601	2934.5
797.785	2994.94
797.969	2945.93
798.153	2843.43
798.338	2959.88
798.522	2998.63
798.706	2974.41
798.89	2960.07
799.074	3083.29
799.258	3021.1
799.443	3007.34
799.627	2948.83
799.811	2999.21
799.995	2974.21
800.179	2900.78
800.363	2950.96
800.547	2953.87
800.731	2946.12
800.915	2893.81
801.099	2892.65
801.283	2910.66
801.467	2915.12
801.651	2925.58
801.835	2954.65
802.019	2956
802.202	2962.78
802.386	2837.82
802.57	2884.51
802.754	2888
802.938	2859.13
803.121	2882.77
803.305	2956
803.489	2915.12
803.673	2882.96
803.856	2944.38
804.04	2893.23
804.224	2937.6
804.407	2860.29
804.591	2828.9
804.775	2896.91
804.958	2884.31
805.142	3012.38
805.326	2904.46
805.509	2912.8
805.693	2956.58
805.876	3009.48
806.06	2981.58
806.243	2968.6
806.427	3016.06
806.61	3029.24
806.794	2953.48
806.977	3001.14
807.16	2980.41
807.344	2983.51
807.527	2945.54
807.71	2957.55
807.894	2932.56
808.077	2944.76
808.26	2920.16
808.444	2851.96
808.627	2934.88
808.81	2855.06
808.993	2813.6
809.177	2847.12
809.36	2833.17
809.543	2852.15
809.726	2743.07
809.909	2729.12
810.092	2737.45
810.276	2795
810.459	2742.69
810.642	2724.47
810.825	2692.7
811.008	2699.87
811.191	2602.03
811.374	2609.97
811.557	2617.33
811.74	2665.96
811.923	2570.44
812.106	2531.11
812.289	2517.75
812.472	2505.93
812.654	2547.19
812.837	2441.6
813.02	2407.5
813.203	2379.8
813.386	2283.31
813.569	2269.36
813.751	2206.2
813.934	2264.32
814.117	2204.46
814.3	2147.11
814.482	2065.73
814.665	2026.01
814.848	1997.53
815.03	1931.08
815.213	1950.26
815.396	1933.79
815.578	1899.89
815.761	1874.31
815.943	1908.8
816.126	1826.84
816.309	1792.74
816.491	1718.73
816.674	1687.73
816.856	1729.19
817.039	1741.01
817.221	1803.79
817.403	1774.53
817.586	1767.56
817.768	1771.24
817.951	1707.3
818.133	1662.93
818.315	1716.02
818.498	1784.99
818.68	1820.64
818.862	1780.54
819.045	1820.64
819.227	1798.94
819.409	1754.38
819.591	1807.86
819.774	1789.45
819.956	1766.39
820.138	1843.89
820.32	1809.41
820.502	1944.25
820.684	1986.3
820.866	1996.76
821.048	2069.41
821.231	2071.35
821.413	2051.4
821.595	2044.61
821.777	2016.52
821.959	2014.39
822.141	2094.41
822.323	1930.69
822.505	1898.53
822.686	1802.24
822.868	1699.36
823.05	1573.23
823.232	1551.92
823.414	1502.9
823.596	1588.73
823.778	1537.77
823.96	1593.38
824.141	1656.54
824.323	1626.51
824.505	1751.86
824.687	1788.09
824.868	1844.67
825.05	1922.36
825.232	1994.24
825.413	2049.46
825.595	1989.4
825.777	1959.75
825.958	1979.13
826.14	1948.13
826.321	2014
826.503	1977
826.685	2004.12
826.866	2011.87
827.048	2017.1
827.229	1967.31
827.411	1877.02
827.592	1851.06
827.773	1875.28
827.955	1840.02
828.136	1809.21
828.318	1765.42
828.499	1823.94
828.68	1765.23
828.862	1775.5
829.043	1795.65
829.224	1771.24
829.406	1703.23
829.587	1761.16
829.768	1773.17
829.949	1782.67
830.131	1791.58
830.312	1820.06
830.493	1810.96
830.674	1802.43
830.855	1776.47
831.036	1784.22
831.218	1856.87
831.399	1832.07
831.58	1786.93
831.761	1810.96
831.942	1806.69
832.123	1830.91
832.304	1752.44
832.485	1814.83
832.666	1804.37
832.847	1834.4
833.028	1832.07
833.209	1776.47
833.389	1808.24
833.57	1721.25
833.751	1749.54
833.932	1811.15
834.113	1778.79
834.294	1778.99
834.475	1811.54
834.655	1849.51
834.836	1810.57
835.017	1884.39
835.198	1759.03
835.378	1850.87
835.559	1852.22
835.74	1848.54
835.92	1836.92
836.101	1832.27
836.281	1851.06
836.462	1863.07
836.643	1896.98
836.823	1897.75
837.004	1904.73
837.184	1906.47
837.365	1889.23
837.545	1901.44
837.726	1893.1
837.906	1947.74
838.087	1886.52
838.267	1896.79
838.448	1800.3
838.628	1881.09
838.808	1918.68
838.989	1930.11
839.169	1882.64
839.349	1919.26
839.53	1900.27
839.71	1914.61
839.89	1866.95
840.07	1967.5
840.251	1864.43
840.431	1910.93
840.611	1893.3
840.791	1857.45
840.971	1881.48
841.151	1861.33
841.332	1870.82
841.512	1938.83
841.692	1835.75
841.872	1905.31
842.052	1870.24
842.232	1898.53
842.412	1822.58
842.592	1874.7
842.772	1861.72
842.952	1895.62
843.132	1849.9
843.312	1860.94
843.492	1863.46
843.672	1890
843.851	1830.14
844.031	1817.93
844.211	1809.79
844.391	1821.42
844.571	1812.51
844.751	1851.84
844.93	1856.87
845.11	1806.31
845.29	1809.79
845.47	1877.41
845.649	1830.52
845.829	1898.72
846.009	1778.21
846.188	1876.25
846.368	1835.75
846.547	1822.97
846.727	1862.3
846.907	1804.76
847.086	1780.54
847.266	1851.45
847.445	1781.7
847.625	1781.51
847.804	1769.88
847.984	1820.26
848.163	1801.46
848.343	1777.63
848.522	1808.44
848.701	1800.88
848.881	1748.57
849.06	1771.24
849.239	1757.09
849.419	1792.94
849.598	1721.44
849.777	1697.81
849.957	1629.03
850.136	1650.73
850.315	1630
850.494	1623.41
850.674	1624.38
850.853	1665.45
851.032	1666.03
851.211	1673.98
851.39	1669.52
851.569	1609.07
851.748	1620.7
851.927	1660.61
852.107	1657.12
852.286	1613.91
852.465	1635.81
852.644	1665.26
852.823	1684.44
853.002	1670.1
853.181	1625.93
853.359	1674.94
853.538	1593.57
853.717	1640.65
853.896	1557.73
854.075	1476.94
854.254	1475.97
854.433	1391.69
854.611	1473.64
854.79	1385.1
854.969	1448.07
855.148	1472.48
855.327	1428.5
855.505	1507.35
855.684	1461.44
855.863	1507.74
856.041	1481
856.22	1527.31
856.399	1499.99
856.577	1596.09
856.756	1564.32
856.934	1665.26
857.113	1674.17
857.291	1591.25
857.47	1569.55
857.648	1610.04
857.827	1593.18
858.005	1611.98
858.184	1559.28
858.362	1662.16
858.541	1570.32
858.719	1591.25
858.898	1591.63
859.076	1580.59
859.254	1606.16
859.433	1530.22
859.611	1553.66
859.789	1487.4
859.967	1607.33
860.146	1608.88
860.324	1506.19
860.502	1543.78
860.68	1511.03
860.859	1488.56
861.037	1515.3
861.215	1494.37
861.393	1506.58
861.571	1512.58
861.749	1501.15
861.927	1545.13
862.105	1496.89
862.283	1477.13
862.461	1449.04
862.639	1520.33
862.817	1498.83
862.995	1502.12
863.173	1482.75
863.351	1478.49
863.529	1512.97
863.707	1533.51
863.885	1507.35
864.063	1445.16
864.241	1462.21
864.418	1523.63
864.596	1433.15
864.774	1440.51
864.952	1445.16
865.129	1440.7
865.307	1421.52
865.485	1394.98
865.663	1474.61
865.84	1355.26
866.018	1376.96
866.196	1277.18
866.373	1292.29
866.551	1237.46
866.728	1171.4
866.906	1241.53
867.084	1288.03
867.261	1300.63
867.439	1335.69
867.616	1348.87
867.794	1321.55
867.971	1347.71
868.149	1353.52
868.326	1389.17
868.503	1382.19
868.681	1364.76
868.858	1369.99
869.035	1317.67
869.213	1388.01
869.39	1361.46
869.567	1387.42
869.745	1311.67
869.922	1353.32
870.099	1382.77
870.276	1355.65
870.454	1354.68
870.631	1367.86
870.808	1344.61
870.985	1333.95
871.162	1377.74
871.339	1365.53
871.517	1297.72
871.694	1291.91
871.871	1322.13
872.048	1293.07
872.225	1309.93
872.402	1320.19
872.579	1284.16
872.756	1349.06
872.933	1306.05
873.11	1317.09
873.287	1307.02
873.463	1284.16
873.64	1245.41
873.817	1308.96
873.994	1275.63
874.171	1231.26
874.348	1288.61
874.524	1219.25
874.701	1273.89
874.878	1214.99
875.055	1237.85
875.231	1248.51
875.408	1261.88
875.585	1191.74
875.762	1232.23
875.938	1225.26
876.115	1233.98
876.291	1200.46
876.468	1233.39
876.645	1172.95
876.821	1198.71
876.998	1220.22
877.174	1208.01
877.351	1226.61
877.527	1188.06
877.704	1231.46
877.88	1201.62
878.057	1196
878.233	1251.41
878.409	1203.36
878.586	1205.88
878.762	1171.78
878.938	1202.01
879.115	1137.49
879.291	1156.67
879.467	1124.12
879.644	1133.03
879.82	1163.84
879.996	1148.53
880.172	1108.62
880.349	1170.62
880.525	1220.03
880.701	1117.73
880.877	1127.22
881.053	1128.19
881.229	1109.78
881.405	1190.77
881.581	1103.39
881.757	1092.93
881.933	1123.54
882.109	1157.64
882.285	1120.05
882.461	1057.28
882.637	1141.75
882.813	1119.28
882.989	1125.87
883.165	1168.68
883.341	1137.68
883.517	1148.73
883.693	1131.68
883.869	1169.46
884.044	1126.06
884.22	1120.05
884.396	1147.18
884.572	1154.15
884.747	1163.26
884.923	1122.96
885.099	1151.05
885.275	1147.76
885.45	1110.95
885.626	1111.53
885.801	1084.02
885.977	1133.03
886.153	1060.57
886.328	1128.77
886.504	1047.01
886.679	1143.11
886.855	1077.62
887.03	1128.19
887.206	1161.13
887.381	1160.16
887.557	1115.02
887.732	1121.8
887.908	1140.2
888.083	1136.91
888.258	1109.59
888.434	1102.62
888.609	1136.33
888.784	1150.28
888.96	1116.76
889.135	1129.93
889.31	1094.67
889.485	1132.26
889.661	1102.62
889.836	1142.33
890.011	1139.43
890.186	1110.37
890.361	1095.45
890.537	1104.36
890.712	1104.36
890.887	1136.71
891.062	1127.42
891.237	1184.18
891.412	1093.51
891.587	1142.53
891.762	1129.35
891.937	1134
892.112	1045.27
892.287	1090.8
892.462	1025.5
892.637	1006.71
892.812	1016.98
892.987	1003.42
893.161	1004.58
893.336	1017.95
893.511	982.88
893.686	1015.24
893.861	1025.12
894.035	981.14
894.21	1000.12
894.385	939.09
894.56	994.5
894.734	947.23
894.909	875.16
895.084	925.34
895.258	894.53
895.433	895.11
895.608	889.88
895.782	829.82
895.957	869.54
896.131	846.09
896.306	744.76
896.48	764.72
896.655	761.62
896.829	710.28
897.004	715.12
897.178	738.76
897.353	718.03
897.527	750.38
897.701	710.47
897.876	691.1
898.05	777.31
898.224	728.88
898.399	725.97
898.573	743.02
898.747	607.2
898.921	649.25
899.096	557.99
899.27	574.46
899.444	598.49
899.618	615.73
899.792	640.14
899.967	634.33
900.141	639.56
900.315	601.2
900.489	606.82
900.663	617.28
900.837	623.87
901.011	583.57
901.185	671.92
901.359	614.57
901.533	647.12
901.707	627.16
901.881	621.73
902.055	595
902.229	617.28
902.403	688.77
902.576	639.75
902.75	631.23
902.924	737.6
903.098	735.27
903.272	725.39
903.446	776.54
903.619	783.32
903.793	808.89
903.967	782.16
904.14	833.69
904.314	846.29
904.488	779.06
904.661	865.86
904.835	809.86
905.009	808.31
905.182	855.59
905.356	803.28
905.529	806.96
905.703	804.63
905.876	784.48
906.05	763.95
906.223	737.01
906.397	655.83
906.57	652.93
906.744	655.64
906.917	639.95
907.09	625.03
907.264	630.65
907.437	613.4
907.61	587.64
907.784	615.53
907.957	597.52
908.13	560.9
908.304	605.65
908.477	571.94
908.65	561.48
908.823	529.9
908.996	593.45
909.17	536.68
909.343	549.27
909.516	536.1
909.689	541.14
909.862	520.41
910.035	550.82
910.208	517.31
910.381	517.5
910.554	600.62
910.727	520.02
910.9	534.74
911.073	546.17
911.246	595.77
911.419	605.07
911.592	573.1
911.765	544.82
911.938	524.28
912.11	528.74
912.283	535.9
912.456	592.67
912.629	531.06
912.802	541.52
912.974	457.24
913.147	463.83
913.32	392.92
913.493	439.22
913.665	442.71
913.838	458.41
914.01	484.17
914.183	489.6
914.356	463.64
914.528	499.48
914.701	548.5
914.873	512.07
915.046	495.8
915.218	452.79
915.391	395.05
915.563	401.64
915.736	460.92
915.908	464.02
916.081	455.69
916.253	439.22
916.425	501.42
916.598	489.21
916.77	473.32
916.942	477.2
917.115	370.25
917.287	473.71
917.459	436.51
917.632	386.72
917.804	376.64
917.976	435.16
918.148	452.4
918.32	450.46
918.493	498.71
918.665	496.77
918.837	507.81
919.009	528.93
919.181	536.29
919.353	496.38
919.525	499.09
919.697	492.89
919.869	504.32
920.041	562.25
920.213	604.3
920.385	566.32
920.557	536.29
920.729	545.4
920.901	531.25
921.073	525.83
921.244	515.37
921.416	550.05
921.588	531.06
921.76	489.99
921.932	583.76
922.103	507.42
922.275	515.37
922.447	526.8
922.619	439.42
922.79	495.22
922.962	483.98
923.134	536.49
923.305	468.87
923.477	427.41
923.648	434.19
923.82	461.89
923.991	388.08
924.163	414.23
924.335	451.04
924.506	417.72
924.677	472.94
924.849	413.07
925.02	438.84
925.192	446.59
925.363	428.76
925.535	468.67
925.706	427.02
925.877	480.88
926.049	411.33
926.22	431.67
926.391	445.42
926.562	475.46
926.734	425.28
926.905	471.39
927.076	370.06
927.247	415.01
927.419	363.86
927.59	400.28
927.761	350.88
927.932	331.11
928.103	350.29
928.274	317.16
928.445	290.81
928.616	298.37
928.787	284.23
928.958	324.33
929.129	306.31
929.3	292.56
929.471	250.13
929.642	206.73
929.813	156.16
929.984	280.55
930.155	174.18
930.326	229.2
930.496	186.58
930.667	143.76
930.838	182.12
931.009	161
931.18	138.92
931.35	151.51
931.521	138.92
931.692	95.9
931.863	86.8
932.033	133.69
932.204	117.8
932.374	106.17
932.545	98.81
932.716	147.44
932.886	102.49
933.057	50.96
933.227	89.32
933.398	158.1
933.568	57.74
933.739	16.47
933.909	51.92
934.08	67.23
934.25	27.71
934.421	17.63
934.591	86.61
934.761	21.7
934.932	6.01
935.102	64.71
935.272	37.97
935.443	44.56
935.613	24.02
935.783	67.62
935.953	23.83
936.123	173.6
936.294	29.06
936.464	24.61
936.634	55.61
936.804	21.89
936.974	26.74
937.144	62.58
937.314	42.82
937.484	34.87
937.655	26.35
937.825	55.22
937.995	3.49
938.165	68.39
938.334	51.54
938.504	97.84
938.674	60.06
938.844	85.44
939.014	132.14
939.184	110.63
939.354	135.24
939.524	148.99
939.694	110.24
939.863	87.19
940.033	167.2
940.203	125.94
940.373	123.42
940.542	120.7
940.712	81.57
940.882	117.8
941.051	127.87
941.221	134.85
941.391	142.02
941.56	67.42
941.73	87.57
941.899	188.9
942.069	97.84
942.238	131.94
942.408	102.88
942.577	111.4
942.747	80.02
942.916	45.92
943.086	58.71
943.255	139.69
943.425	75.17
943.594	76.72
943.763	26.35
943.933	57.93
944.102	-8.72
944.271	51.54
944.441	72.66
944.61	55.22
944.779	66.46
944.948	149.77
945.117	66.07
945.287	55.8
945.456	39.52
945.625	53.86
945.794	96.29
945.963	33.52
946.132	69.75
946.301	28.29
946.47	99.97
946.639	19.37
946.808	68.2
946.977	77.89
947.146	128.07
947.315	41.66
947.484	101.72
947.653	75.76
947.822	55.61
947.991	39.91
948.16	141.82
948.329	89.51
948.498	74.98
948.666	81.37
948.835	120.12
949.004	31.58
949.173	26.16
949.341	89.7
949.51	73.82
949.679	104.82
949.847	92.61
950.016	141.24
950.185	119.54
950.353	41.46
950.522	86.02
950.69	89.12
950.859	70.72
951.028	125.35
951.196	94.35
951.365	53.47
951.533	59.67
951.701	100.55
951.87	97.07
952.038	26.93
952.207	72.66
952.375	129.04
952.543	58.12
952.712	85.25
952.88	80.79
953.048	107.92
953.217	83.31
953.385	83.7
953.553	120.32
953.721	27.9
953.89	61.61
954.058	49.99
954.226	63.74
954.394	81.18
954.562	43.59
954.73	69.56
954.898	52.12
955.067	92.03
955.235	30.03
955.403	107.34
955.571	148.22
955.739	75.76
955.907	48.44
956.075	59.87
956.243	35.84
956.41	95.52
956.578	27.32
956.746	45.53
956.914	49.6
957.082	94.35
957.25	94.55
957.418	65.49
957.585	50.76
957.753	135.82
957.921	56.38
958.089	72.27
958.256	105.98
958.424	86.02
958.592	96.1
958.759	45.72
958.927	117.02
959.095	58.71
959.262	62.39
959.43	82.92
959.597	67.04
959.765	78.66
959.932	27.9
960.1	107.53
960.267	73.24
960.435	85.64
960.602	119.15
960.77	64.71
960.937	32.36
961.104	92.61
961.272	42.82
961.439	55.61
961.606	92.42
961.774	95.52
961.941	65.87
962.108	120.7
962.275	98.62
962.443	96.68
962.61	94.55
962.777	142.4
962.944	118.19
963.111	133.69
963.278	130.39
963.446	73.24
963.613	74.4
963.78	102.88
963.947	104.24
964.114	109.27
964.281	146.09
964.448	108.5
964.615	89.7
964.782	127.68
964.949	143.95
965.116	138.72
965.282	140.47
965.449	89.12
965.616	71.49
965.783	118.96
965.95	107.72
966.117	83.12
966.283	84.28
966.45	125.16
966.617	107.53
966.784	145.7
966.95	141.44
967.117	146.09
967.284	90.67
967.45	108.11
967.617	137.95
967.784	131.36
967.95	165.27
968.117	111.21
968.283	143.57
968.45	190.45
968.616	137.75
968.783	150.93
968.949	132.91
969.116	138.14
969.282	109.85
969.449	129.62
969.615	151.51
969.781	85.25
969.948	91.25
970.114	96.49
970.28	165.07
970.447	121.09
970.613	156.94
970.779	137.37
970.945	156.16
971.112	114.7
971.278	129.04
971.444	120.51
971.61	160.62
971.776	117.02
971.942	142.79
972.108	140.66
972.275	107.53
972.441	126.71
972.607	188.13
972.773	81.76
972.939	131.36
973.105	114.89
973.271	82.34
973.437	107.92
973.602	119.74
973.768	130.2
973.934	129.42
974.1	124.39
974.266	32.94
974.432	140.85
974.598	89.7
974.763	127.1
974.929	104.82
975.095	130.2
975.261	99
975.426	75.95
975.592	90.48
975.758	160.62
975.923	53.67
976.089	80.02
976.255	136.98
976.42	133.1
976.586	131.75
976.751	121.67
976.917	185.03
977.082	144.73
977.248	84.28
977.413	78.86
977.579	83.12
977.744	92.22
977.91	88.74
978.075	89.7
978.24	113.34
978.406	111.21
978.571	76.34
978.736	99
978.902	94.74
979.067	64.52
979.232	44.76
979.397	90.29
979.563	144.34
979.728	88.74
979.893	101.52
980.058	82.92
980.223	142.79
980.388	94.74
980.554	115.47
980.719	67.62
980.884	87.77
981.049	129.42
981.214	99.97
981.379	130
981.544	80.79
981.709	91.06
981.874	109.08
982.039	99.2
982.204	93.97
982.368	103.07
982.533	79.24
982.698	160.62
982.863	149.19
983.028	80.41
983.193	124.77
983.357	124.19
983.522	105.79
983.687	105.2
983.852	87.77
984.016	102.88
984.181	97.26
984.346	115.86
984.51	96.1
984.675	134.85
984.839	109.08
985.004	122.45
985.168	143.57
985.333	108.89
985.498	99.97
985.662	135.43
985.827	111.79
985.991	108.3
986.155	94.35
986.32	123.22
986.484	155.77
986.649	132.91
986.813	67.23
986.977	97.45
987.142	124.19
987.306	57.54
987.47	73.24
987.634	99.39
987.799	100.55
987.963	102.49
988.127	144.73
988.291	181.73
988.455	111.79
988.62	88.35
988.784	121.09
988.948	124.19
989.112	71.69
989.276	96.1
989.44	102.1
989.604	80.41
989.768	79.82
989.932	179.6
990.096	78.47
990.26	58.32
990.424	58.71
990.588	57.54
990.752	144.34
990.915	141.82
991.079	104.82
991.243	87.19
991.407	117.8
991.571	104.82
991.734	101.91
991.898	121.48
992.062	153.06
992.226	95.9
992.389	66.46
992.553	66.65
992.717	59.29
992.88	99.39
993.044	108.89
993.207	57.54
993.371	127.1
993.535	111.99
993.698	89.12
993.862	120.32
994.025	136.4
994.189	87.57
994.352	115.86
994.515	95.52
994.679	126.71
994.842	70.33
995.006	116.64
995.169	60.84
995.332	88.74
995.496	105.98
995.659	30.42
995.822	70.72
995.985	58.12
996.149	121.67
996.312	96.68
996.475	149.19
996.638	79.44
996.801	136.59
996.964	133.88
997.128	73.24
997.291	78.47
997.454	90.87
997.617	49.6
997.78	104.24
997.943	69.94
998.106	106.75
998.269	59.67
998.432	85.44
998.595	85.06
998.758	31.39
998.92	35.46
999.083	41.27
999.246	73.82
999.409	45.53
999.572	37.78
999.735	55.22
999.897	86.8
1000.06	78.27
1000.223	48.44
1000.386	108.5
1000.548	105.98
1000.711	98.04
1000.874	80.6
1001.036	51.92
1001.199	106.56
1001.361	28.09
1001.524	84.47
1001.687	108.3
1001.849	77.5
1002.012	83.31
1002.174	39.91
1002.337	119.35
1002.499	68.59
1002.661	103.07
1002.824	45.92
1002.986	57.35
1003.149	59.67
1003.311	56.19
1003.473	127.29
1003.636	30.03
1003.798	96.29
1003.96	77.89
1004.123	97.84
1004.285	58.12
1004.447	77.89
1004.609	61.03
1004.771	121.67
1004.933	14.53
1005.096	46.89
1005.258	5.62
1005.42	58.71
1005.582	76.72
1005.744	71.88
1005.906	30.22
1006.068	75.56
1006.23	22.86
1006.392	24.61
1006.554	35.65
1006.716	101.52
1006.878	98.23
1007.04	6.01
1007.202	42.04
1007.363	76.53
1007.525	69.17
1007.687	67.81
1007.849	108.69
1008.011	5.04
1008.172	24.8
1008.334	48.44
1008.496	59.87
1008.658	-13.37
1008.819	17.24
1008.981	11.62
1009.143	25.57
1009.304	46.89
1009.466	59.87
1009.627	92.61
1009.789	157.13
1009.95	55.61
1010.112	43.01
1010.273	74.01
1010.435	28.29
1010.596	24.22
1010.758	38.56
1010.919	60.84
1011.081	22.47
1011.242	49.79
1011.403	77.89
1011.565	20.73
1011.726	70.91
1011.887	16.08
1012.049	35.84
1012.21	49.79
1012.371	82.34
1012.532	-26.54
1012.693	32.74
1012.855	16.47
1013.016	38.56
1013.177	85.64
1013.338	38.17
1013.499	103.46
1013.66	37.2
1013.821	80.79
1013.982	46.69
1014.143	59.87
1014.304	29.26
1014.465	55.41
1014.626	77.31
1014.787	18.21
1014.948	108.11
1015.109	-19.18
1015.27	111.4
1015.431	31.19
1015.592	24.41
1015.752	88.93
1015.913	70.91
1016.074	79.44
1016.235	76.34
1016.395	25.96
1016.556	48.44
1016.717	28.48
1016.877	79.05
1017.038	15.69
1017.199	47.27
1017.359	55.8
1017.52	40.88
1017.681	55.22
1017.841	52.7
1018.002	22.28
1018.162	24.8
1018.323	81.96
1018.483	62
1018.644	27.9
1018.804	26.93
1018.964	2.13
1019.125	15.31
1019.285	46.89
1019.446	-2.52
1019.606	-16.66
1019.766	1.36
1019.926	43.79
1020.087	63.55
1020.247	6.78
1020.407	71.69
1020.567	64.13
1020.728	25.77
1020.888	3.1
1021.048	-12.79
1021.208	4.46
1021.368	16.27
1021.528	72.85
1021.688	77.69
1021.848	47.08
1022.008	44.37
1022.168	29.45
1022.328	40.69
1022.488	46.69
1022.648	9.11
1022.808	10.66
1022.968	45.72
1023.128	7.94
1023.288	16.47
1023.448	11.43
1023.608	74.79
1023.767	36.81
1023.927	-6.97
1024.087	-0.58
1024.247	8.14
1024.406	5.81
1024.566	-12.59
1024.726	-0.39
1024.885	61.61
1025.045	31.77
1025.205	24.02
1025.364	7.56
1025.524	60.26
1025.683	29.26
1025.843	40.88
1026.003	8.91
1026.162	49.79
1026.321	59.09
1026.481	31.19
1026.64	15.11
1026.8	19.76
1026.959	32.36
1027.119	39.33
1027.278	24.22
1027.437	11.82
1027.597	32.74
1027.756	43.01
1027.915	43.4
1028.074	61.61
1028.234	-17.05
1028.393	58.12
1028.552	6.78
1028.711	-42.62
1028.87	45.92
1029.03	-2.13
1029.189	38.17
1029.348	-34.49
1029.507	-2.52
1029.666	10.07
1029.825	5.42
1029.984	15.69
1030.143	45.92
1030.302	2.13
1030.461	-35.26
1030.62	53.28
1030.779	54.06
1030.938	27.9
1031.097	-19.76
1031.255	46.69
1031.414	48.24
1031.573	36.23
1031.732	-4.26
1031.891	1.16
1032.049	71.11
1032.208	21.31
1032.367	6.78
1032.525	25.96
1032.684	16.08
1032.843	-11.43
1033.001	-10.07
1033.16	147.83
1033.319	57.74
1033.477	18.99
1033.636	2.13
1033.794	-21.89
1033.953	40.88
1034.111	34.49
1034.27	0.39
1034.428	49.21
1034.587	7.17
1034.745	25.19
1034.903	34.68
1035.062	45.14
1035.22	-14.53
1035.378	16.86
1035.537	-28.67
1035.695	39.52
1035.853	-20.73
1036.011	42.04
1036.17	43.98
1036.328	-51.54
1036.486	46.11
1036.644	27.12
1036.802	-30.81
1036.96	-5.42
1037.119	-2.32
1037.277	-19.96
1037.435	-47.08
1037.593	1.36
1037.751	16.47
1037.909	42.04
1038.067	42.04
