Data from gum_young_FLMT105791__98__17-39-56-042.txt Node

Date: Mon Mar 20 17:39:56 GMT 2023
User: antho
Spectrometer: FLMT10579
Trigger mode: 0
Integration Time (sec): 1.000000E-1
Scans to average: 10
Electric dark correction enabled: true
Nonlinearity correction enabled: false
Boxcar width: 0
XAxis mode: Wavelengths
Number of Pixels in Spectrum: 3648
>>>>>Begin Spectral Data<<<<<
345.248	-135.09
345.464	-135.09
345.681	-135.09
345.898	-157.37
346.114	-150.59
346.331	-30.27
346.548	7.31
346.764	-17.29
346.981	-16.9
347.197	5.38
347.414	16.23
347.631	-6.64
347.847	54.98
348.064	27.85
348.28	8.67
348.497	-33.37
348.713	-15.94
348.93	28.82
349.146	36.96
349.363	14.48
349.579	62.53
349.796	14.68
350.012	21.85
350.229	17.2
350.445	-0.24
350.661	-12.84
350.878	-10.51
351.094	25.33
351.311	36.38
351.527	14.29
351.743	-8.38
351.96	39.86
352.176	39.28
352.392	13.32
352.609	35.6
352.825	-14.77
353.041	11.77
353.257	-3.15
353.474	1.11
353.69	14.29
353.906	11
354.122	7.12
354.339	44.9
354.555	2.86
354.771	-22.52
354.987	66.6
355.203	56.33
355.42	-1.79
355.636	-7.99
355.852	13.13
356.068	15.06
356.284	-20.59
356.5	36.76
356.716	40.64
356.932	9.83
357.148	33.66
357.364	10.41
357.58	46.64
357.796	59.24
358.012	53.43
358.228	16.61
358.444	-56.82
358.66	63.31
358.876	29.21
359.092	-12.06
359.308	14.68
359.524	33.08
359.74	7.7
359.956	-5.09
360.172	-4.12
360.388	75.32
360.604	-13.8
360.819	66.02
361.035	7.9
361.251	43.74
361.467	-5.09
361.683	43.93
361.898	33.66
362.114	48.39
362.33	44.51
362.546	54.59
362.762	-8.57
362.977	4.02
363.193	-20.78
363.409	33.86
363.624	-7.6
363.84	-6.44
364.056	4.41
364.271	17
364.487	22.81
364.703	-14.77
364.918	-31.05
365.134	-2.57
365.35	19.13
365.565	60.4
365.781	19.71
365.996	29.98
366.212	68.34
366.427	25.53
366.643	9.25
366.858	9.25
367.074	-23.88
367.289	73.96
367.505	89.46
367.72	-1.79
367.936	16.81
368.151	40.83
368.367	3.83
368.582	36.38
368.798	25.91
369.013	46.64
369.228	19.91
369.444	41.22
369.659	53.43
369.874	26.11
370.09	62.53
370.305	-43.45
370.52	-22.72
370.736	47.61
370.951	25.33
371.166	61.18
371.381	79.97
371.597	14.48
371.812	0.53
372.027	-16.71
372.242	10.03
372.458	86.75
372.673	6.35
372.888	22.62
373.103	42.38
373.318	100.12
373.533	38.51
373.749	41.99
373.964	-15.74
374.179	48.19
374.394	-14.58
374.609	60.01
374.824	1.5
375.039	52.65
375.254	-5.09
375.469	91.21
375.684	24.94
375.899	71.06
376.114	17.97
376.329	31.34
376.544	55.94
376.759	61.76
376.974	4.02
377.189	24.56
377.404	1.31
377.619	43.93
377.834	-29.69
378.049	-13.22
378.264	9.25
378.478	33.28
378.693	3.83
378.908	32.89
379.123	-0.82
379.338	46.26
379.553	23.39
379.767	19.91
379.982	32.11
380.197	28.04
380.412	-9.54
380.626	29.98
380.841	93.73
381.056	46.64
381.271	84.81
381.485	10.03
381.7	4.02
381.915	22.43
382.129	4.21
382.344	22.43
382.559	24.36
382.773	37.73
382.988	-13.42
383.202	33.08
383.417	3.83
383.632	116.97
383.846	10.8
384.061	22.23
384.275	2.08
384.49	25.72
384.704	50.52
384.919	56.91
385.133	27.85
385.348	62.14
385.562	-1.02
385.777	64.28
385.991	9.45
386.206	-6.64
386.42	20.88
386.634	69.31
386.849	28.24
387.063	27.66
387.277	-0.44
387.492	26.49
387.706	-4.5
387.92	-0.24
388.135	20.3
388.349	22.62
388.563	14.87
388.778	36.57
388.992	28.04
389.206	55.17
389.42	106.9
389.635	20.68
389.849	63.69
390.063	85.98
390.277	53.62
390.491	71.64
390.706	58.85
390.92	56.72
391.134	53.43
391.348	63.69
391.562	1.5
391.776	26.88
391.99	14.29
392.205	54.01
392.419	3.83
392.633	0.53
392.847	84.04
393.061	28.24
393.275	92.56
393.489	35.6
393.703	38.7
393.917	81.71
394.131	12.93
394.345	66.99
394.559	75.13
394.773	42.19
394.986	30.56
395.2	34.63
395.414	60.79
395.628	51.49
395.842	54.59
396.056	15.26
396.27	-15.35
396.484	61.76
396.697	25.72
396.911	75.71
397.125	55.17
397.339	69.12
397.553	38.51
397.766	87.91
397.98	89.27
398.194	86.36
398.408	56.14
398.621	56.14
398.835	55.94
399.049	36.76
399.262	86.75
399.476	52.84
399.69	70.48
399.903	145.84
400.117	60.01
400.331	61.18
400.544	38.89
400.758	163.28
400.971	77.64
401.185	85.39
401.398	45.68
401.612	120.85
401.826	87.91
402.039	84.81
402.253	34.05
402.466	63.31
402.68	46.84
402.893	98.18
403.106	79.39
403.32	62.92
403.533	83.46
403.747	80.16
403.96	80.94
404.174	115.81
404.387	32.11
404.6	70.28
404.814	103.61
405.027	78.23
405.24	29.01
405.454	75.32
405.667	99.73
405.88	32.11
406.094	60.59
406.307	112.13
406.52	78.81
406.733	40.64
406.947	16.61
407.16	148.17
407.373	81.71
407.586	38.12
407.799	42.38
408.012	94.31
408.226	79
408.439	112.32
408.652	32.31
408.865	75.32
409.078	106.51
409.291	85.01
409.504	58.66
409.717	78.23
409.93	115.23
410.143	96.44
410.357	15.65
410.57	58.85
410.783	56.14
410.996	82.1
411.209	95.47
411.421	123.76
411.634	81.52
411.847	61.18
412.06	93.34
412.273	71.06
412.486	80.16
412.699	163.28
412.912	106.71
413.125	106.32
413.338	98.76
413.55	96.24
413.763	101.86
413.976	88.3
414.189	70.86
414.402	80.55
414.615	122.01
414.827	67.57
415.04	127.24
415.253	77.64
415.466	149.91
415.678	144.29
415.891	102.44
416.104	93.53
416.316	89.27
416.529	73.77
416.742	113.29
416.954	114.65
417.167	70.86
417.38	98.57
417.592	124.34
417.805	77.64
418.017	60.21
418.23	101.86
418.442	103.99
418.655	85.59
418.868	98.57
419.08	123.56
419.293	141.77
419.505	122.59
419.718	104.77
419.93	131.89
420.142	67.96
420.355	142.94
420.567	147.97
420.78	107.48
420.992	87.53
421.205	163.47
421.417	77.45
421.629	92.37
421.842	71.83
422.054	55.75
422.266	135.96
422.479	124.92
422.691	83.26
422.903	138.29
423.115	82.49
423.328	95.86
423.54	117.17
423.752	112.52
423.964	92.18
424.177	117.75
424.389	114.07
424.601	184.21
424.813	127.82
425.025	134.99
425.238	138.48
425.45	94.5
425.662	87.53
425.874	371.95
426.086	119.11
426.298	116.78
426.51	89.27
426.722	130.92
426.934	116.39
427.146	119.69
427.358	116.97
427.57	132.86
427.782	108.26
427.994	102.06
428.206	98.96
428.418	80.74
428.63	143.91
428.842	159.41
429.054	123.17
429.266	125.69
429.478	65.44
429.69	103.41
429.902	77.84
430.114	125.5
430.325	129.18
430.537	88.11
430.749	95.47
430.961	48.19
431.173	101.28
431.384	114.46
431.596	38.31
431.808	79.97
432.02	105.35
432.231	148.56
432.443	150.11
432.655	130.34
432.867	78.03
433.078	130.54
433.29	157.66
433.502	151.46
433.713	161.34
433.925	110.77
434.136	169.09
434.348	113.87
434.56	69.89
434.771	218.5
434.983	74.93
435.194	96.63
435.406	106.71
435.617	145.26
435.829	174.32
436.04	172
436.252	162.51
436.463	159.21
436.675	176.84
436.886	148.56
437.098	151.46
437.309	179.94
437.521	132.47
437.732	171.03
437.943	159.02
438.155	155.14
438.366	85.39
438.578	197.19
438.789	146.62
439	186.53
439.211	150.88
439.423	173.36
439.634	157.86
439.845	142.94
440.057	137.32
440.268	173.36
440.479	112.13
440.69	147.78
440.902	152.04
441.113	159.6
441.324	162.12
441.535	151.85
441.746	190.6
441.957	120.46
442.168	149.72
442.38	208.62
442.591	170.45
442.802	159.41
443.013	145.65
443.224	155.92
443.435	154.17
443.646	152.62
443.857	167.54
444.068	150.3
444.279	137.12
444.49	236.52
444.701	163.47
444.912	280.89
445.123	202.03
445.334	202.61
445.545	174.32
445.756	189.24
445.967	170.45
446.178	172.19
446.388	211.14
446.599	200.48
446.81	209
447.021	163.28
447.232	230.51
447.443	222.76
447.653	181.11
447.864	225.67
448.075	202.03
448.286	228.57
448.496	215.79
448.707	236.32
448.918	175.87
449.129	249.89
449.339	185.56
449.55	220.05
449.761	198.35
449.971	258.41
450.182	192.54
450.393	244.07
450.603	215.79
450.814	217.53
451.024	207.07
451.235	230.32
451.446	265.77
451.656	284.57
451.867	192.73
452.077	225.67
452.288	285.92
452.498	265.19
452.709	196.22
452.919	247.37
453.13	213.65
453.34	258.6
453.55	172.39
453.761	262.67
453.971	242.14
454.182	230.12
454.392	233.61
454.602	293.28
454.813	228.19
455.023	251.44
455.233	185.95
455.444	238.07
455.654	169.09
455.864	225.28
456.075	225.67
456.285	213.07
456.495	249.89
456.705	269.84
456.916	269.07
457.126	284.76
457.336	265.77
457.546	179.17
457.756	229.35
457.967	286.31
458.177	209.78
458.387	248.53
458.597	222.18
458.807	224.7
459.017	228.96
459.227	218.5
459.437	240.59
459.647	282.44
459.857	239.81
460.068	217.53
460.278	296.97
460.488	243.1
460.698	289.41
460.908	261.32
461.117	211.72
461.327	227.41
461.537	259.77
461.747	287.86
461.957	248.92
462.167	367.68
462.377	293.67
462.587	282.05
462.797	296.38
463.007	258.99
463.216	289.99
463.426	329.52
463.636	307.04
463.846	202.8
464.056	245.24
464.265	287.08
464.475	251.05
464.685	285.73
464.895	283.79
465.104	244.65
465.314	297.35
465.524	267.32
465.733	248.34
465.943	364.97
466.153	337.46
466.362	303.17
466.572	302
466.782	277.98
466.991	295.61
467.201	319.83
467.41	242.91
467.62	308.59
467.829	288.44
468.039	307.82
468.249	266.16
468.458	288.25
468.668	317.12
468.877	307.43
469.086	339.59
469.296	317.5
469.505	284.95
469.715	360.52
469.924	332.81
470.134	319.44
470.343	349.28
470.552	289.99
470.762	284.37
470.971	273.72
471.18	314.02
471.39	295.03
471.599	279.14
471.808	344.05
472.018	278.75
472.227	347.34
472.436	351.41
472.645	314.02
472.855	281.85
473.064	369.82
473.273	350.25
473.482	355.09
473.691	358.58
473.901	357.22
474.11	321.57
474.319	427.75
474.528	332.23
474.737	373.88
474.946	371.17
475.155	382.99
475.364	397.33
475.573	358
475.783	385.12
475.992	390.35
476.201	364.97
476.41	360.13
476.619	331.26
476.828	374.27
477.037	363.42
477.245	371.56
477.454	415.35
477.663	369.43
477.872	338.04
478.081	430.85
478.29	347.15
478.499	435.88
478.708	405.85
478.917	469.4
479.125	363.23
479.334	392.87
479.543	426.97
479.752	413.41
479.961	412.44
480.169	500.21
480.378	406.24
480.587	518.03
480.796	463.78
481.004	432.2
481.213	472.5
481.422	434.72
481.63	431.04
481.839	460.29
482.048	484.32
482.256	478.7
482.465	459.71
482.674	481.61
482.882	503.5
483.091	545.74
483.299	486.45
483.508	520.55
483.716	480.25
483.925	451.58
484.134	471.34
484.342	477.15
484.551	526.75
484.759	506.41
484.967	495.36
485.176	523.26
485.384	499.04
485.593	519.97
485.801	497.69
486.01	526.56
486.218	478.51
486.426	425.23
486.635	441.7
486.843	441.7
487.051	453.51
487.26	456.81
487.468	479.67
487.676	479.28
487.885	463.59
488.093	501.37
488.301	548.64
488.509	500.59
488.717	551.74
488.926	550.97
489.134	492.46
489.342	549.61
489.55	498.66
489.758	526.17
489.967	519.19
490.175	630.6
490.383	533.53
490.591	603.67
490.799	522.29
491.007	601.73
491.215	554.07
491.423	561.43
491.631	552.13
491.839	591.27
492.047	573.83
492.255	537.99
492.463	522.1
492.671	564.53
492.879	619.56
493.087	583.32
493.295	585.84
493.503	598.63
493.711	622.66
493.919	641.45
494.127	628.47
494.334	631.96
494.542	593.01
494.75	619.36
494.958	602.51
495.166	662.95
495.374	657.34
495.581	639.7
495.789	664.5
495.997	681.55
496.205	619.94
496.412	633.5
496.62	625.76
496.828	655.4
497.035	641.06
497.243	669.93
497.451	643
497.658	681.94
497.866	660.63
498.074	743.17
498.281	653.07
498.489	725.15
498.696	673.8
498.904	656.75
499.112	661.02
499.319	716.62
499.527	673.8
499.734	715.46
499.942	631.18
500.149	704.42
500.357	704.8
500.564	652.69
500.771	674.19
500.979	657.53
501.186	679.62
501.394	696.86
501.601	688.34
501.808	739.29
502.016	719.14
502.223	677.87
502.43	697.83
502.638	718.95
502.845	685.62
503.052	753.05
503.26	732.32
503.467	787.15
503.674	761.96
503.881	741.81
504.089	817.56
504.296	786.37
504.503	701.12
504.71	737.74
504.917	727.08
505.125	774.36
505.332	777.65
505.539	810.98
505.746	845.66
505.953	811.56
506.16	837.52
506.367	893.13
506.574	901.46
506.781	867.55
506.988	817.18
507.195	853.02
507.402	854.38
507.609	874.33
507.816	849.92
508.023	862.9
508.23	859.41
508.437	829.77
508.644	876.66
508.851	929.16
509.058	896.23
509.265	880.73
509.472	934.98
509.679	1008.21
509.885	927.23
510.092	926.26
510.299	894.68
510.506	938.27
510.713	962.29
510.92	947.18
511.126	980.31
511.333	1009.18
511.54	1017.12
511.746	1064.4
511.953	1041.92
512.16	1084.74
512.367	1021.77
512.573	1015.19
512.78	1012.28
512.987	1041.15
513.193	1027.01
513.4	978.38
513.606	1017.71
513.813	1060.33
514.02	1060.91
514.226	1135.31
514.433	1126.4
514.639	1039.41
514.846	1084.94
515.052	1066.14
515.259	1129.11
515.465	1129.3
515.672	1120.78
515.878	1224.82
516.085	1133.57
516.291	1186.07
516.497	1128.14
516.704	1126.2
516.91	1099.27
517.117	1053.16
517.323	1019.45
517.529	1101.21
517.736	1050.26
517.942	1111.09
518.148	1104.5
518.354	1138.41
518.561	1122.52
518.767	1152.94
518.973	1252.14
519.179	1252.53
519.386	1204.28
519.592	1198.67
519.798	1192.85
520.004	1299.41
520.21	1251.17
520.417	1315.11
520.623	1360.06
520.829	1316.46
521.035	1351.34
521.241	1368.97
521.447	1361.61
521.653	1471.07
521.859	1404.43
522.065	1426.71
522.271	1503.24
522.477	1452.09
522.683	1478.05
522.889	1452.86
523.095	1454.02
523.301	1479.41
523.507	1433.1
523.713	1509.05
523.919	1433.87
524.125	1549.54
524.331	1514.67
524.537	1616.77
524.742	1601.27
524.948	1603.98
525.154	1613.67
525.36	1695.82
525.566	1643.12
525.772	1656.1
525.977	1581.51
526.183	1665.02
526.389	1665.21
526.595	1599.53
526.8	1589.07
527.006	1493.36
527.212	1509.82
527.417	1481.34
527.623	1503.43
527.829	1554.39
528.034	1654.94
528.24	1599.14
528.446	1603.98
528.651	1741.93
528.857	1714.81
529.062	1727.4
529.268	1716.36
529.473	1774.48
529.679	1772.74
529.884	1827.76
530.09	1804.9
530.295	1857.02
530.501	1817.69
530.706	1836.87
530.912	1774.87
531.117	1838.81
531.323	1785.53
531.528	1865.54
531.733	1907.39
531.939	1852.56
532.144	1898.29
532.35	1863.41
532.555	1884.34
532.76	1855.66
532.966	1861.09
533.171	1848.88
533.376	1831.83
533.581	1808.58
533.787	1842.1
533.992	1906.04
534.197	1870.77
534.402	1885.31
534.607	1879.11
534.813	1979.08
535.018	1899.06
535.223	1878.72
535.428	1961.84
535.633	1992.25
535.838	1999.62
536.043	2003.3
536.249	2058.32
536.454	1977.34
536.659	2007.75
536.864	1987.22
537.069	1979.66
537.274	2011.05
537.479	2000.2
537.684	1956.99
537.889	1933.36
538.094	2067.43
538.299	1988.77
538.504	2093.78
538.708	2033.33
538.913	2077.89
539.118	2008.92
539.323	2078.67
539.528	2002.33
539.733	2020.74
539.938	2067.82
540.142	2037.59
540.347	1975.01
540.552	1990.12
540.757	1972.88
540.962	1989.15
541.166	1971.33
541.371	1953.12
541.576	2010.66
541.781	1906.62
541.985	2074.79
542.19	2013.57
542.395	2091.07
542.599	2146.48
542.804	2047.86
543.008	2129.23
543.213	2062.97
543.418	2016.86
543.622	2118.77
543.827	2003.69
544.031	2135.82
544.236	2143.76
544.44	2100.17
544.645	2171.47
544.849	2083.12
545.054	2115.09
545.258	2203.63
545.463	2163.53
545.667	2148.8
545.872	2181.93
546.076	2158.88
546.281	2176.12
546.485	2108.7
546.689	2130.2
546.894	2160.62
547.098	2186.97
547.302	2109.67
547.507	2138.73
547.711	2199.95
547.915	2206.73
548.119	2135.82
548.324	2122.26
548.528	2189.3
548.732	2161.2
548.936	2206.73
549.141	2197.43
549.345	2200.73
549.549	2189.88
549.753	2211.38
549.957	2309.22
550.161	2245.48
550.366	2235.02
550.57	2201.7
550.774	2233.28
550.978	2201.31
551.182	2210.61
551.386	2154.03
551.59	2191.23
551.794	2161.78
551.998	2226.3
552.202	2182.13
552.406	2148.41
552.61	2205.76
552.814	2236.38
553.018	2284.23
553.222	2203.44
553.426	2208.28
553.63	2283.84
553.833	2223.39
554.037	2178.64
554.241	2215.64
554.445	2203.63
554.649	2223.98
554.853	2176.9
555.056	2263.11
555.26	2258.08
555.464	2261.76
555.668	2265.24
555.871	2284.43
556.075	2274.54
556.279	2202.86
556.483	2176.31
556.686	2172.44
556.89	2173.6
557.094	2207.89
557.297	2173.8
557.501	2204.21
557.704	2157.91
557.908	2215.06
558.112	2121.87
558.315	2231.34
558.519	2175.15
558.722	2153.65
558.926	2105.21
559.129	2061.03
559.333	2049.8
559.536	2055.42
559.74	2082.73
559.943	2037.01
560.147	2055.03
560.35	2048.63
560.553	2059.87
560.757	1997.1
560.96	2130.01
561.164	2104.24
561.367	2132.91
561.57	2088.35
561.774	2087.97
561.977	2066.46
562.18	2058.32
562.384	2110.05
562.587	2105.4
562.79	2032.94
562.993	2004.07
563.197	2073.43
563.4	2100.75
563.603	2120.51
563.806	2162.56
564.009	2041.85
564.212	2085.83
564.416	1976.95
564.619	2010.27
564.822	1985.47
565.025	2080.41
565.228	1983.73
565.431	2022.67
565.634	1920.96
565.837	1981.79
566.04	1946.14
566.243	1933.94
566.446	1849.66
566.649	1960.09
566.852	1897.9
567.055	1897.71
567.258	1931.81
567.461	1967.84
567.664	1947.69
567.867	1865.74
568.07	1887.63
568.273	1891.7
568.475	1951.76
568.678	1871.36
568.881	1830.48
569.084	1868.26
569.287	1742.9
569.489	1809.16
569.692	1832.22
569.895	1823.5
570.098	1766.35
570.3	1755.69
570.503	1705.51
570.706	1746.2
570.909	1682.07
571.111	1677.42
571.314	1649.13
571.516	1702.6
571.719	1722.36
571.922	1695.05
572.124	1674.7
572.327	1707.83
572.529	1666.95
572.732	1642.35
572.935	1680.52
573.137	1731.28
573.34	1653
573.542	1728.37
573.745	1690.01
573.947	1690.2
574.15	1674.7
574.352	1642.54
574.554	1692.72
574.757	1638.08
574.959	1605.92
575.162	1625.88
575.364	1594.49
575.566	1679.93
575.769	1599.33
575.971	1608.05
576.173	1482.89
576.376	1606.31
576.578	1587.13
576.78	1617.16
576.982	1510.6
577.185	1559.81
577.387	1545.86
577.589	1506.14
577.791	1575.31
577.993	1555.16
578.196	1566.79
578.398	1516.22
578.6	1573.76
578.802	1515.25
579.004	1522.22
579.206	1491.22
579.408	1540.05
579.61	1487.74
579.812	1571.82
580.014	1504.98
580.216	1522.22
580.418	1508.47
580.62	1522.61
580.822	1491.81
581.024	1532.88
581.226	1550.51
581.428	1508.08
581.63	1598.56
581.832	1526.68
582.034	1570.66
582.236	1545.28
582.438	1558.45
582.64	1575.31
582.841	1590.81
583.043	1616.19
583.245	1580.93
583.447	1558.65
583.649	1564.27
583.85	1552.25
584.052	1572.02
584.254	1531.33
584.456	1563.69
584.657	1482.51
584.859	1575.31
585.061	1541.21
585.262	1490.84
585.464	1465.07
585.666	1538.69
585.867	1483.28
586.069	1519.9
586.27	1469.91
586.472	1489.67
586.674	1513.31
586.875	1454.61
587.077	1467.39
587.278	1481.92
587.48	1482.89
587.681	1538.89
587.883	1482.51
588.084	1403.46
588.285	1403.07
588.487	1412.56
588.688	1435.62
588.89	1355.99
589.091	1329.06
589.292	1304.45
589.494	1263.57
589.695	1288.18
589.896	1206.8
590.098	1203.32
590.299	1300.58
590.5	1241.68
590.702	1265.31
590.903	1326.54
591.104	1339.13
591.305	1344.36
591.507	1373.43
591.708	1333.71
591.909	1333.71
592.11	1387.76
592.311	1373.43
592.512	1305.81
592.714	1277.33
592.915	1312.59
593.116	1298.83
593.317	1352.5
593.518	1317.63
593.719	1346.69
593.92	1354.44
594.121	1390.48
594.322	1332.55
594.523	1304.45
594.724	1276.36
594.925	1340.29
595.126	1331.77
595.327	1322.47
595.528	1318.01
595.729	1294.18
595.929	1324.8
596.13	1314.72
596.331	1338.55
596.532	1340.68
596.733	1355.99
596.934	1345.33
597.135	1348.43
597.335	1342.23
597.536	1310.85
597.737	1346.49
597.938	1298.83
598.138	1331.58
598.339	1314.72
598.54	1353.47
598.74	1315.3
598.941	1288.37
599.142	1369.16
599.342	1332.16
599.543	1303.29
599.744	1293.8
599.944	1316.08
600.145	1323.63
600.345	1335.26
600.546	1386.21
600.746	1353.28
600.947	1413.53
601.147	1315.3
601.348	1347.08
601.548	1280.62
601.749	1309.88
601.949	1274.03
602.15	1265.51
602.35	1303.87
602.551	1303.68
602.751	1291.08
602.951	1307.36
603.152	1215.52
603.352	1290.7
603.552	1305.61
603.753	1345.53
603.953	1330.41
604.153	1317.24
604.354	1284.69
604.554	1303.29
604.754	1305.81
604.954	1258.15
605.155	1300.96
605.355	1270.55
605.555	1349.98
605.755	1323.25
605.955	1280.62
606.155	1318.6
606.356	1268.03
606.556	1320.15
606.756	1291.66
606.956	1266.48
607.156	1327.51
607.356	1272.87
607.556	1317.24
607.756	1285.66
607.956	1302.13
608.156	1241.29
608.356	1241.29
608.556	1285.27
608.756	1249.23
608.956	1219.4
609.156	1255.63
609.356	1210.68
609.556	1237.61
609.755	1211.65
609.955	1212.81
610.155	1247.88
610.355	1236.45
610.555	1204.28
610.755	1223.85
610.954	1163.6
611.154	1200.6
611.354	1254.27
611.554	1181.81
611.753	1195.95
611.953	1148.1
612.153	1191.88
612.352	1208.74
612.552	1142.67
612.752	1126.2
612.951	1173.48
613.151	1177.35
613.351	1190.14
613.55	1142.48
613.75	1191.3
613.949	1127.56
614.149	1173.48
614.348	1148.29
614.548	1119.62
614.747	1064.4
614.947	1142.67
615.146	1070.6
615.346	1175.22
615.545	1159.92
615.745	1140.54
615.944	1154.69
616.144	1142.67
616.343	1113.22
616.542	1119.04
616.742	1112.84
616.941	1109.35
617.14	1021.19
617.34	1078.35
617.539	1086.29
617.738	1093.07
617.938	1111.67
618.137	1045.02
618.336	1028.94
618.535	1126.01
618.734	1085.32
618.934	1079.32
619.133	1090.94
619.332	1098.69
619.531	1078.93
619.73	1089.97
619.929	1122.72
620.128	1070.4
620.328	1136.47
620.527	1064.59
620.726	1100.63
620.925	1109.74
621.124	1053.55
621.323	1073.7
621.522	1009.96
621.721	1007.82
621.92	1001.82
622.119	1087.45
622.318	1020.61
622.517	1052.19
622.715	1037.86
622.914	994.26
623.113	1028.36
623.312	962.88
623.511	1045.61
623.71	998.33
623.909	993.49
624.107	1071.95
624.306	960.16
624.505	992.71
624.704	960.94
624.902	989.61
625.101	1038.44
625.3	1028.36
625.499	970.43
625.697	1008.41
625.896	972.76
626.095	1003.17
626.293	964.23
626.492	948.54
626.69	1005.89
626.889	945.83
627.088	1001.24
627.286	961.33
627.485	957.26
627.683	934.01
627.882	925.87
628.08	887.12
628.279	933.81
628.477	994.26
628.676	882.86
628.874	974.5
629.073	923.93
629.271	903.59
629.469	934.59
629.668	912.5
629.866	913.47
630.065	917.73
630.263	934.39
630.461	887.9
630.66	925.29
630.858	930.13
631.056	964.43
631.254	953.38
631.453	887.7
631.651	946.6
631.849	926.26
632.047	924.71
632.245	952.22
632.444	919.48
632.642	975.08
632.84	959.97
633.038	933.04
633.236	911.73
633.434	904.17
633.632	868.13
633.83	909.01
634.028	939.43
634.227	954.93
634.425	991.36
634.623	952.22
634.821	938.85
635.019	948.34
635.216	919.48
635.414	947.18
635.612	956.87
635.81	915.41
636.008	981.09
636.206	926.45
636.404	970.43
636.602	908.82
636.8	897.19
636.997	932.65
637.195	960.16
637.393	935.36
637.591	969.27
637.789	952.03
637.986	919.28
638.184	922.58
638.382	981.48
638.58	950.48
638.777	983.22
638.975	926.84
639.173	944.47
639.37	897.78
639.568	911.14
639.765	928.19
639.963	914.05
640.161	919.28
640.358	944.86
640.556	850.7
640.753	889.64
640.951	846.82
641.148	897.58
641.346	868.91
641.543	852.25
641.741	883.63
641.938	851.08
642.136	858.25
642.333	840.23
642.531	916.57
642.728	892.35
642.925	870.46
643.123	851.08
643.32	871.04
643.517	850.7
643.715	871.23
643.912	819.7
644.109	849.34
644.306	815.63
644.504	810.59
644.701	837.71
644.898	840.62
645.095	825.51
645.293	812.14
645.49	812.14
645.687	822.41
645.884	851.28
646.081	743.55
646.278	749.37
646.475	763.12
646.672	751.69
646.87	802.45
647.067	776.1
647.264	769.9
647.461	735.42
647.658	695.5
647.855	760.22
648.052	693.95
648.249	653.46
648.446	701.9
648.642	678.26
648.839	670.51
649.036	694.73
649.233	643.39
649.43	637.57
649.627	643.58
649.824	669.35
650.021	652.88
650.217	682.72
650.414	683.49
650.611	680.97
650.808	713.91
651.004	690.47
651.201	720.69
651.398	744.52
651.595	682.72
651.791	677.68
651.988	711.78
652.185	661.02
652.381	702.48
652.578	625.17
652.775	677.1
652.971	689.5
653.168	650.55
653.364	687.17
653.561	640.48
653.757	680.39
653.954	681.55
654.15	638.54
654.347	723.21
654.543	673.03
654.74	613.55
654.936	622.46
655.133	634.47
655.329	635.83
655.525	643.39
655.722	698.99
655.918	603.28
656.115	654.04
656.311	572.09
656.507	557.17
656.704	521.52
656.9	555.81
657.096	545.74
657.292	553.87
657.489	608.12
657.685	615.68
657.881	556.59
658.077	587.78
658.273	593.4
658.47	649.78
658.666	612.39
658.862	626.53
659.058	583.71
659.254	637.77
659.45	596.89
659.646	635.64
659.842	616.07
660.038	620.91
660.234	611.03
660.43	593.01
660.626	651.14
660.822	621.49
661.018	614.13
661.214	613.74
661.41	588.75
661.606	604.64
661.802	635.83
661.998	589.91
662.194	577.32
662.39	618.97
662.586	623.24
662.781	633.31
662.977	605.41
663.173	616.26
663.369	600.76
663.564	599.21
663.76	612
663.956	588.17
664.152	635.83
664.347	549.81
664.543	574.41
664.739	563.17
664.934	504.86
665.13	497.49
665.326	595.34
665.521	587.59
665.717	527.53
665.912	530.24
666.108	486.64
666.304	524.23
666.499	524.04
666.695	478.7
666.89	534.69
667.086	544.19
667.281	576.54
667.477	583.13
667.672	540.12
667.867	534.31
668.063	568.02
668.258	496.14
668.454	523.26
668.649	592.62
668.844	503.11
669.04	556.97
669.235	506.41
669.43	489.16
669.626	475.79
669.821	495.75
670.016	507.76
670.211	528.49
670.407	504.66
670.602	509.31
670.797	506.02
670.992	542.25
671.187	529.66
671.382	543.99
671.578	469.01
671.773	523.07
671.968	456.61
672.163	485.48
672.358	500.59
672.553	466.3
672.748	485.68
672.943	551.16
673.138	467.66
673.333	512.22
673.528	476.38
673.723	497.11
673.918	485.68
674.113	461.65
674.308	521.91
674.503	501.37
674.698	499.82
674.892	492.46
675.087	507.57
675.282	517.64
675.477	459.33
675.672	492.46
675.867	478.12
676.061	463.39
676.256	472.89
676.451	477.93
676.646	466.11
676.84	471.53
677.035	410.89
677.23	461.26
677.424	496.53
677.619	494.59
677.814	561.04
678.008	506.41
678.203	441.5
678.397	485.87
678.592	490.52
678.787	508.93
678.981	441.11
679.176	474.24
679.37	469.21
679.565	457.58
679.759	453.51
679.954	482.77
680.148	519.58
680.342	495.75
680.537	479.09
680.731	462.04
680.926	501.76
681.12	492.65
681.314	481.99
681.509	467.85
681.703	502.34
681.897	511.06
682.092	479.09
682.286	493.04
682.48	536.24
682.674	520.36
682.869	497.11
683.063	490.52
683.257	560.46
683.451	477.73
683.645	507.38
683.839	498.46
684.034	488.78
684.228	524.23
684.422	464.94
684.616	478.12
684.81	513.58
685.004	525.2
685.198	493.81
685.392	538.18
685.586	463.2
685.78	564.72
685.974	529.27
686.168	574.61
686.362	575.77
686.556	463.39
686.75	453.71
686.944	480.25
687.138	491.1
687.331	399.46
687.525	428.71
687.719	392.1
687.913	432.2
688.107	438.98
688.301	408.95
688.494	474.44
688.688	424.06
688.882	400.81
689.076	433.36
689.269	447.31
689.463	541.86
689.657	462.43
689.85	488.58
690.044	494.01
690.238	492.46
690.431	496.14
690.625	512.03
690.818	533.53
691.012	573.44
691.205	589.91
691.399	540.31
691.593	594.76
691.786	645.52
691.98	656.95
692.173	671.29
692.366	668.96
692.56	682.91
692.753	736.58
692.947	644.55
693.14	732.7
693.333	738.9
693.527	687.75
693.72	727.67
693.914	723.4
694.107	725.53
694.3	765.06
694.493	738.71
694.687	824.73
694.88	777.46
695.073	859.8
695.266	835.2
695.46	840.43
695.653	865.81
695.846	896.23
696.039	865.81
696.232	892.35
696.425	938.27
696.618	948.73
696.812	967.53
697.005	1018.48
697.198	1088.04
697.391	1048.71
697.584	1077.96
697.777	1111.87
697.97	1115.55
698.163	1148.49
698.356	1135.12
698.549	1203.32
698.742	1192.85
698.935	1157.79
699.127	1188.01
699.32	1191.69
699.513	1171.35
699.706	1199.83
699.899	1226.95
700.092	1184.33
700.285	1240.13
700.477	1213
700.67	1257.56
700.863	1273.26
701.056	1322.86
701.248	1305.81
701.441	1346.3
701.634	1300.96
701.826	1401.71
702.019	1313.75
702.212	1383.89
702.404	1362.38
702.597	1354.63
702.79	1388.93
702.982	1407.53
703.175	1452.09
703.367	1471.07
703.56	1522.03
703.752	1571.63
703.945	1524.16
704.137	1577.05
704.33	1557.1
704.522	1585.58
704.715	1637.89
704.907	1636.34
705.1	1651.26
705.292	1664.82
705.484	1691.56
705.677	1721.4
705.869	1728.37
706.061	1777.97
706.254	1784.36
706.446	1716.94
706.638	1745.81
706.831	1827.18
707.023	1783.2
707.215	1910.88
707.407	1880.66
707.599	1889.76
707.792	1882.21
707.984	1917.47
708.176	1928.9
708.368	1894.8
708.56	1979.47
708.752	1939.17
708.944	1949.05
709.136	1995.74
709.329	1970.94
709.521	2068.2
709.713	2028.68
709.905	2064.91
710.097	2113.73
710.289	2060.65
710.481	2088.74
710.672	2089.13
710.864	2115.28
711.056	2183.68
711.248	2157.91
711.44	2147.06
711.632	2152.1
711.824	2192.78
712.016	2238.12
712.207	2228.04
712.399	2212.16
712.591	2299.92
712.783	2303.61
712.975	2276.68
713.166	2276.09
713.358	2288.49
713.55	2356.31
713.741	2349.14
713.933	2358.24
714.125	2324.72
714.316	2323.56
714.508	2406.49
714.7	2391.76
714.891	2377.81
715.083	2464.42
715.274	2376.46
715.466	2383.24
715.657	2443.1
715.849	2371.61
716.04	2359.79
716.232	2303.61
716.423	2346.23
716.615	2290.04
716.806	2180.58
716.998	2149
717.189	2111.22
717.381	2007.37
717.572	1960.67
717.763	1990.32
717.955	1971.33
718.146	1932.39
718.337	1882.21
718.528	1831.64
718.72	1730.31
718.911	1851.79
719.102	1754.14
719.293	1810.52
719.485	1791.14
719.676	1781.65
719.867	1735.93
720.058	1735.35
720.249	1769.45
720.44	1792.11
720.632	1869.81
720.823	1847.91
721.014	2023.64
721.205	2039.33
721.396	2127.88
721.587	2221.46
721.778	2251.68
721.969	2287.72
722.16	2383.43
722.351	2402.03
722.542	2503.17
722.733	2502.97
722.924	2406.87
723.115	2454.54
723.305	2429.93
723.496	2451.63
723.687	2277.06
723.878	2303.99
724.069	2329.37
724.26	2335.77
724.45	2262.73
724.641	2294.31
724.832	2271.06
725.023	2225.53
725.213	2232.5
725.404	2197.24
725.595	2189.88
725.785	2220.1
725.976	2255.17
726.167	2247.61
726.357	2279.58
726.548	2324.14
726.739	2279.58
726.929	2342.55
727.12	2392.92
727.31	2387.11
727.501	2351.85
727.691	2318.14
727.882	2355.53
728.072	2410.55
728.263	2376.26
728.453	2477.01
728.644	2433.22
728.834	2437.49
729.024	2414.04
729.215	2381.11
729.405	2398.35
729.596	2535.13
729.786	2543.85
729.976	2509.37
730.167	2507.62
730.357	2476.82
730.547	2541.72
730.737	2540.75
730.928	2561.87
731.118	2581.25
731.308	2554.51
731.498	2555.67
731.688	2662.81
731.879	2639.95
732.069	2752.91
732.259	2794.37
732.449	2758.91
732.639	2850.17
732.829	2888.53
733.019	2908.87
733.209	2968.35
733.399	3031.51
733.589	3125.87
733.779	3100.49
733.969	3116.18
734.159	3178.37
734.349	3202.59
734.539	3245.61
734.729	3211.7
734.919	3294.62
735.109	3303.15
735.299	3228.94
735.488	3286.49
735.678	3330.08
735.868	3272.92
736.058	3291.91
736.248	3266.92
736.437	3219.45
736.627	3209.18
736.817	3332.79
737.007	3276.6
737.196	3328.53
737.386	3328.92
737.576	3347.52
737.765	3370.77
737.955	3301.79
738.144	3451.56
738.334	3425.6
738.524	3395.37
738.713	3401.38
738.903	3448.26
739.092	3490.7
739.282	3435.67
739.471	3441.1
739.661	3408.35
739.85	3513.95
740.04	3490.31
740.229	3543.98
740.419	3507.55
740.608	3552.11
740.797	3507.75
740.987	3600.55
741.176	3597.26
741.365	3567.61
741.555	3516.08
741.744	3616.05
741.933	3599
742.123	3573.04
742.312	3625.93
742.501	3620.89
742.69	3664.29
742.88	3596.87
743.069	3702.27
743.258	3664.49
743.447	3684.44
743.636	3653.83
743.825	3680.96
744.014	3683.09
744.204	3762.14
744.393	3647.82
744.582	3768.92
744.771	3758.07
744.96	3706.53
745.149	3741.6
745.338	3697.62
745.527	3738.3
745.716	3714.09
745.905	3682.89
746.094	3824.13
746.283	3766.4
746.471	3761.17
746.66	3779.38
746.849	3780.15
747.038	3785.77
747.227	3710.6
747.416	3767.75
747.604	3709.05
747.793	3708.27
747.982	3771.24
748.171	3795.27
748.359	3749.93
748.548	3793.33
748.737	3737.92
748.926	3760.78
749.114	3648.02
749.303	3755.35
749.491	3768.72
749.68	3668.75
749.869	3721.45
750.057	3762.14
750.246	3689.87
750.434	3693.16
750.623	3707.5
750.811	3657.71
751	3741.02
751.188	3686.38
751.377	3714.28
751.565	3686.96
751.754	3638.52
751.942	3637.75
752.131	3748.96
752.319	3630.58
752.507	3629.81
752.696	3674.17
752.884	3695.49
753.072	3643.95
753.261	3656.74
753.449	3686.57
753.637	3612.37
753.825	3675.14
754.014	3701.88
754.202	3654.41
754.39	3717.38
754.578	3698.2
754.766	3609.07
754.955	3602.88
755.143	3670.11
755.331	3640.66
755.519	3622.64
755.707	3620.89
755.895	3638.33
756.083	3603.84
756.271	3559.09
756.459	3606.94
756.647	3607.72
756.835	3549.4
757.023	3552.31
757.211	3525.57
757.399	3519.18
757.587	3539.71
757.775	3446.13
757.963	3531.77
758.151	3539.91
758.339	3459.7
758.526	3510.65
758.714	3510.07
758.902	3397.89
759.09	3278.35
759.278	3083.83
759.465	2836.6
759.653	2456.67
759.841	2240.83
760.028	1898.29
760.216	1684.2
760.404	1535.01
760.591	1290.7
760.779	1059.36
760.967	924.9
761.154	764.09
761.342	780.37
761.529	754.02
761.717	837.91
761.905	781.14
762.092	859.61
762.28	816.98
762.467	764.48
762.655	727.86
762.842	736.58
763.029	765.83
763.217	751.88
763.404	754.79
763.592	813.5
763.779	736
763.966	803.81
764.154	815.43
764.341	885.18
764.528	898.74
764.716	954.74
764.903	1032.82
765.09	1060.72
765.277	1154.3
765.465	1274.81
765.652	1373.62
765.839	1454.8
766.026	1542.57
766.213	1623.36
766.4	1713.84
766.588	1921.15
766.775	1943.24
766.962	2049.99
767.149	2116.25
767.336	2285.39
767.523	2323.76
767.71	2399.7
767.897	2574.08
768.084	2582.41
768.271	2616.7
768.458	2725.98
768.645	2787.59
768.832	2780.42
769.019	2796.89
769.206	2848.04
769.392	2927.08
769.579	3033.06
769.766	3009.81
769.953	3005.16
770.14	3022.8
770.327	3064.45
770.513	3098.94
770.7	3143.31
770.887	3093.51
771.073	3117.54
771.26	3132.65
771.447	3108.04
771.634	3076.46
771.82	3162.49
772.007	3091.77
772.193	3161.71
772.38	3174.31
772.567	3122.77
772.753	3134.59
772.94	3148.54
773.126	3158.81
773.313	3177.41
773.499	3176.05
773.686	3191.55
773.872	3100.88
774.059	3131.49
774.245	3106.3
774.432	3111.92
774.618	3045.66
774.804	3084.41
774.991	3073.17
775.177	3123.93
775.363	3091.19
775.55	3114.44
775.736	3090.22
775.922	3072.78
776.109	3099.13
776.295	3091.77
776.481	3103.59
776.667	3107.27
776.853	3050.7
777.04	3019.89
777.226	3039.07
777.412	3147.76
777.598	3030.93
777.784	3038.49
777.97	3013.3
778.156	3049.53
778.342	3041.01
778.528	3009.43
778.715	2957.12
778.901	2959.44
779.087	2972.03
779.272	2995.28
779.458	2936.58
779.644	2945.88
779.83	2948.78
780.016	3022.21
780.202	2940.45
780.388	2925.92
780.574	2885.43
780.76	2884.85
780.946	2968.55
781.131	2930.96
781.317	2929.8
781.503	2896.28
781.689	2856.75
781.874	2980.37
782.06	2871.67
782.246	2879.42
782.432	2876.13
782.617	2875.16
782.803	2912.94
782.989	2829.24
783.174	2818.78
783.36	2850.94
783.545	2832.54
783.731	2855.59
783.916	2775.57
784.102	2799.99
784.288	2839.9
784.473	2819.36
784.659	2788.36
784.844	2811.03
785.029	2771.31
785.215	2766.47
785.4	2741.47
785.586	2816.07
785.771	2724.62
785.956	2799.79
786.142	2777.71
786.327	2729.66
786.512	2730.24
786.698	2719
786.883	2650.61
787.068	2693.43
787.254	2714.93
787.439	2706.21
787.624	2670.37
787.809	2640.34
787.994	2646.34
788.18	2648.48
788.365	2580.08
788.55	2606.63
788.735	2620.58
788.92	2587.83
789.105	2582.99
789.29	2608.37
789.475	2564.2
789.66	2527.38
789.845	2553.93
790.03	2525.06
790.215	2547.73
790.4	2552.77
790.585	2560.32
790.77	2546.37
790.955	2454.73
791.14	2541.53
791.325	2572.33
791.51	2474.68
791.695	2481.27
791.879	2511.5
792.064	2444.85
792.249	2549.86
792.434	2501.42
792.618	2535.13
792.803	2545.4
792.988	2476.82
793.173	2497.74
793.357	2514.6
793.542	2450.85
793.727	2528.93
793.911	2575.43
794.096	2515.57
794.281	2509.56
794.465	2600.81
794.65	2491.54
794.834	2605.66
795.019	2559.74
795.203	2596.75
795.388	2570.2
795.572	2563.42
795.757	2537.46
795.941	2556.64
796.126	2556.64
796.31	2465.97
796.494	2508.2
796.679	2497.35
796.863	2487.08
797.048	2607.98
797.232	2515.76
797.416	2548.7
797.601	2521.77
797.785	2621.93
797.969	2609.34
798.153	2551.6
798.338	2544.24
798.522	2609.53
798.706	2561.68
798.89	2577.18
799.074	2649.25
799.258	2602.95
799.443	2588.22
799.627	2554.51
799.811	2624.06
799.995	2583.38
800.179	2541.33
800.363	2532.81
800.547	2569.81
800.731	2598.1
800.915	2487.47
801.099	2513.82
801.283	2508.01
801.467	2550.44
801.651	2511.5
801.835	2574.85
802.019	2491.73
802.202	2566.33
802.386	2466.55
802.57	2487.08
802.754	2511.3
802.938	2483.79
803.121	2491.73
803.305	2561.1
803.489	2535.52
803.673	2552.96
803.856	2546.37
804.04	2512.27
804.224	2527.19
804.407	2509.56
804.591	2479.92
804.775	2531.26
804.958	2502
805.142	2654.09
805.326	2567.68
805.509	2547.92
805.693	2533.39
805.876	2572.72
806.06	2579.7
806.243	2573.88
806.427	2626.58
806.61	2596.16
806.794	2539.59
806.977	2606.43
807.16	2576.79
807.344	2573.88
807.527	2568.46
807.71	2521.77
807.894	2569.43
808.077	2614.38
808.26	2506.85
808.444	2519.83
808.627	2603.72
808.81	2517.31
808.993	2470.81
809.177	2462.67
809.36	2499.29
809.543	2502.2
809.726	2379.36
809.909	2378.01
810.092	2374.52
810.276	2368.9
810.459	2396.22
810.642	2388.66
810.825	2351.85
811.008	2339.64
811.191	2228.04
811.374	2255.36
811.557	2291.21
811.74	2332.67
811.923	2220.88
812.106	2214.68
812.289	2178.25
812.472	2171.86
812.654	2190.65
812.837	2155.2
813.02	2129.43
813.203	2100.17
813.386	1950.79
813.569	1981.99
813.751	1892.86
813.934	1936.26
814.117	1907.01
814.3	1883.17
814.482	1825.44
814.665	1798.89
814.848	1748.33
815.03	1677.42
815.213	1713.26
815.396	1694.46
815.578	1629.37
815.761	1621.23
815.943	1687.88
816.126	1581.12
816.309	1579.96
816.491	1512.54
816.674	1433.68
816.856	1502.46
817.039	1516.02
817.221	1568.72
817.403	1557.87
817.586	1556.71
817.768	1557.68
817.951	1473.01
818.133	1470.3
818.315	1449.18
818.498	1550.32
818.68	1563.49
818.862	1570.85
819.045	1575.12
819.227	1566.59
819.409	1539.47
819.591	1576.28
819.774	1572.99
819.956	1506.14
820.138	1607.08
820.32	1590.42
820.502	1683.03
820.684	1727.98
820.866	1735.54
821.048	1764.99
821.231	1763.63
821.413	1763.83
821.595	1781.65
821.777	1773.32
821.959	1737.48
822.141	1842.88
822.323	1692.53
822.505	1609.8
822.686	1597.4
822.868	1510.02
823.05	1408.11
823.232	1382.92
823.414	1287.98
823.596	1352.31
823.778	1388.15
823.96	1417.41
824.141	1421.47
824.323	1434.84
824.505	1513.7
824.687	1563.88
824.868	1579.96
825.05	1705.51
825.232	1730.5
825.413	1807.23
825.595	1752.2
825.777	1674.7
825.958	1710.74
826.14	1705.31
826.321	1737.67
826.503	1736.9
826.685	1745.81
826.866	1743.29
827.048	1754.72
827.229	1681.48
827.411	1677.42
827.592	1622
827.773	1640.8
827.955	1567.75
828.136	1554.39
828.318	1523
828.499	1577.25
828.68	1539.27
828.862	1572.6
829.043	1556.9
829.224	1537.14
829.406	1504.79
829.587	1522.22
829.768	1525.9
829.949	1571.24
830.131	1535.59
830.312	1594.3
830.493	1558.65
830.674	1557.87
830.855	1528.42
831.036	1596.82
831.218	1587.13
831.399	1634.79
831.58	1567.17
831.761	1587.13
831.942	1560.78
832.123	1573.37
832.304	1513.5
832.485	1504.4
832.666	1581.7
832.847	1569.3
833.028	1573.76
833.209	1590.04
833.389	1530.55
833.57	1510.21
833.751	1526.68
833.932	1571.05
834.113	1561.75
834.294	1549.74
834.475	1593.14
834.655	1585
834.836	1615.42
835.017	1575.7
835.198	1543.92
835.378	1569.5
835.559	1634.21
835.74	1585.19
835.92	1561.55
836.101	1555.74
836.281	1633.24
836.462	1587.71
836.643	1676.83
836.823	1662.3
837.004	1661.14
837.184	1691.56
837.365	1648.35
837.545	1656.49
837.726	1625.3
837.906	1679.16
838.087	1645.64
838.267	1612.12
838.448	1584.03
838.628	1615.03
838.808	1634.6
838.989	1682.07
839.169	1598.37
839.349	1658.23
839.53	1670.05
839.71	1653.97
839.89	1619.48
840.07	1728.37
840.251	1634.4
840.431	1701.25
840.611	1613.67
840.791	1626.27
840.971	1635.76
841.151	1637.5
841.332	1612.7
841.512	1684.78
841.692	1582.87
841.872	1643.12
842.052	1620.07
842.232	1637.5
842.412	1582.67
842.592	1617.74
842.772	1637.5
842.952	1605.73
843.132	1620.07
843.312	1595.65
843.492	1597.2
843.672	1636.15
843.851	1539.47
844.031	1574.92
844.211	1559.42
844.391	1557.29
844.571	1543.34
844.751	1602.24
844.93	1602.24
845.11	1582.29
845.29	1608.05
845.47	1660.56
845.649	1587.52
845.829	1639.25
846.009	1580.15
846.188	1623.55
846.368	1584.8
846.547	1595.65
846.727	1616.19
846.907	1508.66
847.086	1578.6
847.266	1647.97
847.445	1590.23
847.625	1579.19
847.804	1552.25
847.984	1579.19
848.163	1539.08
848.343	1544.89
848.522	1552.84
848.701	1561.75
848.881	1561.55
849.06	1552.06
849.239	1539.08
849.419	1557.87
849.598	1463.71
849.777	1461.39
849.957	1496.65
850.136	1397.64
850.315	1411.79
850.494	1410.04
850.674	1427.87
850.853	1459.45
851.032	1435.23
851.211	1448.79
851.39	1430.77
851.569	1385.05
851.748	1387.18
851.927	1453.25
852.107	1416.83
852.286	1424.77
852.465	1356.96
852.644	1456.35
852.823	1445.31
853.002	1434.07
853.181	1434.26
853.359	1440.46
853.538	1354.63
853.717	1443.56
853.896	1346.88
854.075	1277.33
854.254	1272.87
854.433	1199.83
854.611	1262.02
854.79	1180.65
854.969	1249.23
855.148	1291.47
855.327	1226.76
855.505	1295.93
855.684	1264.73
855.863	1270.93
856.041	1287.6
856.22	1355.41
856.399	1288.95
856.577	1388.34
856.756	1330.22
856.934	1462.74
857.113	1451.12
857.291	1395.13
857.47	1358.51
857.648	1420.12
857.827	1385.83
858.005	1408.3
858.184	1345.91
858.362	1434.65
858.541	1348.63
858.719	1394.93
858.898	1353.28
859.076	1343.01
859.254	1411.59
859.433	1382.73
859.611	1325.18
859.789	1298.06
859.967	1361.03
860.146	1401.91
860.324	1327.7
860.502	1309.68
860.68	1285.66
860.859	1300.96
861.037	1340.29
861.215	1335.45
861.393	1314.72
861.571	1315.88
861.749	1302.32
861.927	1324.21
862.105	1320.73
862.283	1270.93
862.461	1292.25
862.639	1261.83
862.817	1302.71
862.995	1286.63
863.173	1286.82
863.351	1276.36
863.529	1303.1
863.707	1334.09
863.885	1278.3
864.063	1246.52
864.241	1247.1
864.418	1326.15
864.596	1258.92
864.774	1225.21
864.952	1238.38
865.129	1293.21
865.307	1213
865.485	1204.67
865.663	1288.56
865.84	1182
866.018	1193.63
866.196	1077.96
866.373	1090.17
866.551	1073.7
866.728	1043.47
866.906	1082.8
867.084	1099.47
867.261	1133.76
867.439	1123.49
867.616	1170.96
867.794	1163.21
867.971	1150.81
868.149	1168.44
868.326	1200.6
868.503	1173.67
868.681	1151
868.858	1154.1
869.035	1118.07
869.213	1164.57
869.39	1138.41
869.567	1225.98
869.745	1153.91
869.922	1173.09
870.099	1195.95
870.276	1199.63
870.454	1191.3
870.631	1168.63
870.808	1145.77
870.985	1198.28
871.162	1241.87
871.339	1157.79
871.517	1120.39
871.694	1123.3
871.871	1164.18
872.048	1138.22
872.225	1164.18
872.402	1154.3
872.579	1100.05
872.756	1135.7
872.933	1109.93
873.11	1148.49
873.287	1137.44
873.463	1090.94
873.64	1087.07
873.817	1135.89
873.994	1118.07
874.171	1082.22
874.348	1132.21
874.524	1047.54
874.701	1098.11
874.878	1024.49
875.055	1120.97
875.231	1091.52
875.408	1112.84
875.585	1029.91
875.762	1075.44
875.938	1079.51
876.115	1056.07
876.291	1049.09
876.468	1085.52
876.645	1027.39
876.821	1048.71
876.998	1049.29
877.174	1040.57
877.351	1035.72
877.527	1025.84
877.704	1041.15
877.88	1044.64
878.057	1029.72
878.233	1077.38
878.409	1003.56
878.586	1007.05
878.762	1021.39
878.938	1034.37
879.115	984.96
879.291	1006.27
879.467	976.05
879.644	1023.52
879.82	1000.46
879.996	966.94
880.172	941.95
880.349	986.71
880.525	1037.27
880.701	936.53
880.877	950.28
881.053	998.14
881.229	978.57
881.405	1054.91
881.581	962.29
881.757	993.49
881.933	998.52
882.109	1015.38
882.285	990.77
882.461	936.72
882.637	1008.41
882.813	938.27
882.989	935.75
883.165	1028.75
883.341	947.18
883.517	996.78
883.693	991.16
883.869	1002.59
884.044	946.41
884.22	997.56
884.396	1028.94
884.572	999.69
884.747	1014.02
884.923	1037.66
885.099	1000.66
885.275	1019.84
885.45	966.56
885.626	955.32
885.801	934.78
885.977	968.3
886.153	904.75
886.328	977.79
886.504	928
886.679	988.26
886.855	903.01
887.03	956.87
887.206	1006.66
887.381	984.38
887.557	960.94
887.732	975.28
887.908	995.81
888.083	1002.98
888.258	964.43
888.434	949.89
888.609	986.71
888.784	985.16
888.96	926.26
889.135	961.33
889.31	957.64
889.485	959
889.661	960.74
889.836	968.88
890.011	1003.76
890.186	961.71
890.361	936.14
890.537	967.72
890.712	996.97
890.887	954.93
891.062	968.88
891.237	976.83
891.412	929.74
891.587	981.48
891.762	985.93
891.937	1004.53
892.112	908.24
892.287	937.49
892.462	885.76
892.637	886.35
892.812	869.49
892.987	896.03
893.161	863.29
893.336	861.55
893.511	870.85
893.686	840.43
893.861	835.58
894.035	864.26
894.21	872.4
894.385	839.26
894.56	816.79
894.734	803.42
894.909	783.08
895.084	772.62
895.258	778.43
895.433	804.2
895.608	751.11
895.782	708.29
895.957	734.64
896.131	720.69
896.306	667.41
896.48	697.25
896.655	670.9
896.829	605.41
897.004	613.94
897.178	640.67
897.353	606.38
897.527	657.92
897.701	642.03
897.876	611.81
898.05	655.01
898.224	627.89
898.399	693.37
898.573	628.86
898.747	535.47
898.921	559.11
899.096	475.6
899.27	524.81
899.444	482.96
899.618	538.96
899.792	557.75
899.967	515.9
900.141	585.65
900.315	498.46
900.489	501.18
900.663	543.22
900.837	523.46
901.011	531.59
901.185	558.14
901.359	535.28
901.533	537.99
901.707	540.12
901.881	534.89
902.055	486.84
902.229	523.26
902.403	605.41
902.576	539.15
902.75	539.93
902.924	648.04
903.098	631.37
903.272	630.21
903.446	688.34
903.619	660.24
903.793	681.55
903.967	678.65
904.14	687.75
904.314	716.82
904.488	687.56
904.661	702.29
904.835	692.21
905.009	739.1
905.182	728.63
905.356	725.15
905.529	698.02
905.703	670.32
905.876	650.17
906.05	649.59
906.223	625.37
906.397	561.04
906.57	559.11
906.744	534.69
906.917	553.68
907.09	574.99
907.264	563.37
907.437	521.33
907.61	492.26
907.784	516.87
907.957	538.18
908.13	483.16
908.304	498.66
908.477	447.31
908.65	505.05
908.823	451
908.996	511.44
909.17	469.21
909.343	463.39
909.516	458.94
909.689	486.45
909.862	469.98
910.035	475.02
910.208	432.78
910.381	440.73
910.554	541.28
910.727	459.13
910.9	451.38
911.073	463.01
911.246	512.41
911.419	528.69
911.592	488.19
911.765	463.2
911.938	474.44
912.11	480.83
912.283	459.71
912.456	491.49
912.629	470.37
912.802	436.08
912.974	406.24
913.147	395.97
913.32	326.42
913.493	375.63
913.665	392.48
913.838	396.94
914.01	417.86
914.183	429.49
914.356	396.36
914.528	427.36
914.701	465.53
914.873	447.9
915.046	391.13
915.218	361.29
915.391	288.25
915.563	327.77
915.736	376.21
915.908	407.98
916.081	406.05
916.253	389.38
916.425	416.9
916.598	426.2
916.77	403.33
916.942	381.25
917.115	333.58
917.287	394.03
917.459	378.15
917.632	303.75
917.804	282.44
917.976	374.08
918.148	382.99
918.32	380.66
918.493	434.72
918.665	428.52
918.837	410.5
919.009	469.59
919.181	475.02
919.353	432.98
919.525	419.41
919.697	420.77
919.869	419.22
920.041	481.22
920.213	532.37
920.385	473.47
920.557	454.48
920.729	488.19
920.901	430.07
921.073	452.93
921.244	430.85
921.416	488.58
921.588	436.27
921.76	416.7
921.932	494.59
922.103	439.56
922.275	413.6
922.447	474.44
922.619	382.41
922.79	411.86
922.962	414.96
923.134	443.25
923.305	371.75
923.477	351.02
923.648	400.43
923.82	392.68
923.991	306.46
924.163	341.33
924.335	383.57
924.506	359.55
924.677	420.38
924.849	317.7
925.02	363.03
925.192	392.48
925.363	373.5
925.535	388.03
925.706	339.59
925.877	423.68
926.049	333.58
926.22	368.46
926.391	384.93
926.562	382.6
926.734	338.82
926.905	378.92
927.076	306.65
927.247	318.08
927.419	286.12
927.59	297.93
927.761	310.33
927.932	278.37
928.103	284.57
928.274	270.81
928.445	254.15
928.616	261.12
928.787	263.45
928.958	258.8
929.129	234.39
929.3	256.67
929.471	190.79
929.642	190.02
929.813	149.33
929.984	216.75
930.155	121.24
930.326	181.11
930.496	153.21
930.667	107.09
930.838	161.92
931.009	124.92
931.18	156.69
931.35	107.87
931.521	139.06
931.692	93.34
931.863	63.69
932.033	108.06
932.204	97.79
932.374	97.41
932.545	72.8
932.716	122.4
932.886	88.69
933.057	32.31
933.227	67.57
933.398	109.03
933.568	36.76
933.739	22.43
933.909	11.38
934.08	87.53
934.25	3.44
934.421	36.18
934.591	71.44
934.761	30.56
934.932	-0.44
935.102	40.83
935.272	33.08
935.443	39.67
935.613	30.95
935.783	64.28
935.953	-13.03
936.123	153.4
936.294	8.48
936.464	40.44
936.634	10.22
936.804	-6.05
936.974	4.41
937.144	48.58
937.314	9.06
937.484	29.59
937.655	11.19
937.825	82.1
937.995	-2.76
938.165	78.61
938.334	50.91
938.504	65.44
938.674	58.66
938.844	61.18
939.014	83.07
939.184	70.67
939.354	130.73
939.524	97.41
939.694	79
939.863	81.33
940.033	99.93
940.203	130.92
940.373	123.37
940.542	101.28
940.712	67.76
940.882	108.06
941.051	132.09
941.221	89.08
941.391	122.98
941.56	101.67
941.73	51.68
941.899	165.8
942.069	58.27
942.238	99.15
942.408	52.46
942.577	115.23
942.747	74.93
942.916	25.14
943.086	47.03
943.255	85.59
943.425	72.22
943.594	61.37
943.763	-16.52
943.933	29.4
944.102	15.65
944.271	69.89
944.441	50.33
944.61	69.12
944.779	64.47
944.948	120.07
945.117	8.28
945.287	35.41
945.456	10.61
945.625	61.76
945.794	66.99
945.963	27.27
946.132	69.12
946.301	38.31
946.47	73.38
946.639	2.86
946.808	50.33
946.977	69.89
947.146	85.01
947.315	50.33
947.484	75.71
947.653	82.68
947.822	39.48
947.991	40.64
948.16	138.67
948.329	101.48
948.498	36.38
948.666	63.11
948.835	64.28
949.004	-3.54
949.173	19.91
949.341	58.46
949.51	70.67
949.679	89.08
949.847	113.87
950.016	111.16
950.185	84.04
950.353	51.1
950.522	51.88
950.69	126.66
950.859	48
951.028	101.09
951.196	82.49
951.365	30.95
951.533	35.6
951.701	105.16
951.87	65.24
952.038	51.1
952.207	65.44
952.375	132.09
952.543	30.95
952.712	55.75
952.88	67.57
953.048	86.36
953.217	73.38
953.385	52.84
953.553	67.76
953.721	33.86
953.89	53.04
954.058	27.08
954.226	49.55
954.394	55.36
954.562	27.85
954.73	42.19
954.898	70.86
955.067	86.75
955.235	57.69
955.403	102.44
955.571	101.28
955.739	93.73
955.907	36.18
956.075	45.87
956.243	23.98
956.41	61.56
956.578	17.2
956.746	6.93
956.914	47.81
957.082	94.11
957.25	84.81
957.418	44.9
957.585	58.66
957.753	91.79
957.921	53.62
958.089	53.81
958.256	79.78
958.424	71.25
958.592	60.4
958.759	51.1
958.927	78.23
959.095	50.52
959.262	76.87
959.43	62.34
959.597	37.15
959.765	63.5
959.932	31.73
960.1	88.88
960.267	55.75
960.435	49.55
960.602	78.42
960.77	66.02
960.937	13.13
961.104	99.34
961.272	37.73
961.439	35.99
961.606	80.74
961.774	101.28
961.941	46.06
962.108	72.61
962.275	62.73
962.443	84.43
962.61	91.01
962.777	124.92
962.944	95.08
963.111	71.64
963.278	78.81
963.446	75.32
963.613	82.88
963.78	82.68
963.947	92.56
964.114	99.93
964.281	154.17
964.448	86.17
964.615	83.26
964.782	74.35
964.949	141.77
965.116	93.73
965.282	120.07
965.449	51.88
965.616	41.41
965.783	109.61
965.95	67.18
966.117	46.84
966.283	60.98
966.45	97.02
966.617	61.76
966.784	101.09
966.95	110.77
967.117	101.09
967.284	81.33
967.45	67.38
967.617	131.12
967.784	120.07
967.95	153.59
968.117	86.94
968.283	114.26
968.45	194.47
968.616	113.29
968.783	156.11
968.949	112.32
969.116	127.44
969.282	103.41
969.449	125.89
969.615	72.99
969.781	54.98
969.948	86.56
970.114	64.66
970.28	136.16
970.447	94.69
970.613	136.16
970.779	89.66
970.945	105.74
971.112	130.92
971.278	95.47
971.444	103.41
971.61	110.58
971.776	82.1
971.942	96.44
972.108	119.49
972.275	93.34
972.441	130.15
972.607	162.31
972.773	86.56
972.939	106.13
973.105	119.69
973.271	74.54
973.437	61.18
973.602	96.24
973.768	121.82
973.934	95.47
974.1	122.01
974.266	36.57
974.432	89.46
974.598	70.28
974.763	120.66
974.929	72.03
975.095	130.92
975.261	39.28
975.426	66.41
975.592	66.99
975.758	130.54
975.923	44.13
976.089	67.38
976.255	129.96
976.42	87.72
976.586	109.22
976.751	94.5
976.917	150.69
977.082	96.44
977.248	55.94
977.413	29.01
977.579	58.27
977.744	76.09
977.91	44.51
978.075	74.93
978.24	107.09
978.406	77.84
978.571	59.63
978.736	64.47
978.902	107.29
979.067	64.08
979.232	18.94
979.397	97.41
979.563	131.51
979.728	52.26
979.893	87.72
980.058	76.09
980.223	137.9
980.388	79.58
980.554	81.52
980.719	70.86
980.884	89.66
981.049	110.39
981.214	57.88
981.379	117.36
981.544	49.55
981.709	96.83
981.874	75.51
982.039	90.24
982.204	114.84
982.368	71.64
982.533	66.21
982.698	103.99
982.863	103.22
983.028	79.97
983.193	92.56
983.357	84.43
983.522	84.43
983.687	54.2
983.852	63.5
984.016	82.88
984.181	103.41
984.346	117.75
984.51	96.05
984.675	92.76
984.839	95.47
985.004	111.36
985.168	105.35
985.333	95.86
985.498	75.51
985.662	87.91
985.827	91.21
985.991	90.63
986.155	87.53
986.32	103.8
986.484	151.66
986.649	82.29
986.813	43.16
986.977	84.23
987.142	81.52
987.306	38.7
987.47	74.35
987.634	83.26
987.799	99.54
987.963	76.29
988.127	72.8
988.291	103.22
988.455	85.78
988.62	76.48
988.784	100.51
988.948	114.65
989.112	42.38
989.276	85.98
989.44	91.4
989.604	62.34
989.768	64.66
989.932	146.62
990.096	54.78
990.26	43.16
990.424	50.91
990.588	60.79
990.752	118.91
990.915	103.61
991.079	70.28
991.243	72.61
991.407	99.93
991.571	82.1
991.734	119.3
991.898	71.44
992.062	156.31
992.226	62.14
992.389	45.29
992.553	28.82
992.717	25.91
992.88	90.43
993.044	78.61
993.207	73.38
993.371	103.41
993.535	88.11
993.698	70.67
993.862	107.48
994.025	96.05
994.189	93.92
994.352	93.53
994.515	78.23
994.679	98.18
994.842	73.38
995.006	97.79
995.169	56.72
995.332	49.36
995.496	89.66
995.659	40.44
995.822	58.66
995.985	45.48
996.149	97.99
996.312	49.36
996.475	128.79
996.638	57.88
996.801	119.49
996.964	110.58
997.128	77.26
997.291	67.38
997.454	69.89
997.617	5.96
997.78	98.76
997.943	61.56
998.106	81.71
998.269	58.46
998.432	48.39
998.595	76.87
998.758	24.75
998.92	30.95
999.083	-1.99
999.246	29.4
999.409	46.06
999.572	1.11
999.735	51.68
999.897	72.41
1000.06	50.71
1000.223	49.74
1000.386	85.59
1000.548	86.75
1000.711	76.68
1000.874	72.99
1001.036	27.08
1001.199	85.2
1001.361	52.26
1001.524	69.51
1001.687	77.64
1001.849	13.51
1002.012	67.76
1002.174	62.14
1002.337	75.13
1002.499	46.06
1002.661	99.73
1002.824	16.23
1002.986	46.06
1003.149	52.65
1003.311	44.71
1003.473	108.45
1003.636	41.8
1003.798	73.96
1003.96	82.88
1004.123	65.44
1004.285	52.46
1004.447	51.68
1004.609	46.84
1004.771	130.92
1004.933	26.88
1005.096	16.03
1005.258	-1.02
1005.42	29.01
1005.582	102.06
1005.744	54.59
1005.906	20.1
1006.068	62.73
1006.23	17.78
1006.392	-7.41
1006.554	18.94
1006.716	76.87
1006.878	52.46
1007.04	-18.26
1007.202	17
1007.363	55.17
1007.525	42.96
1007.687	73.96
1007.849	85.01
1008.011	14.48
1008.172	22.43
1008.334	21.46
1008.496	55.36
1008.658	-4.5
1008.819	-2.18
1008.981	19.13
1009.143	11.58
1009.304	5.96
1009.466	65.05
1009.627	93.92
1009.789	134.41
1009.95	59.24
1010.112	23.59
1010.273	85.01
1010.435	7.9
1010.596	32.11
1010.758	29.98
1010.919	14.29
1011.081	-0.44
1011.242	44.51
1011.403	54.98
1011.565	19.13
1011.726	64.28
1011.887	34.05
1012.049	40.44
1012.21	58.66
1012.371	68.93
1012.532	-16.13
1012.693	39.28
1012.855	10.41
1013.016	54.01
1013.177	59.82
1013.338	13.71
1013.499	103.8
1013.66	66.79
1013.821	51.29
1013.982	56.33
1014.143	44.9
1014.304	12.35
1014.465	44.71
1014.626	48.78
1014.787	11
1014.948	108.84
1015.109	-7.99
1015.27	68.93
1015.431	23.98
1015.592	-0.05
1015.752	90.82
1015.913	56.14
1016.074	61.56
1016.235	32.5
1016.395	19.71
1016.556	16.61
1016.717	15.45
1016.877	89.66
1017.038	35.02
1017.199	29.79
1017.359	44.9
1017.52	47.42
1017.681	40.44
1017.841	24.94
1018.002	19.71
1018.162	3.05
1018.323	73.77
1018.483	11.77
1018.644	34.24
1018.804	-16.13
1018.964	14.68
1019.125	28.43
1019.285	29.21
1019.446	-0.82
1019.606	1.5
1019.766	-17.29
1019.926	29.79
1020.087	43.74
1020.247	1.11
1020.407	66.41
1020.567	48.97
1020.728	14.29
1020.888	-10.7
1021.048	14.68
1021.208	5.57
1021.368	12.16
1021.528	47.03
1021.688	35.02
1021.848	50.33
1022.008	45.87
1022.168	26.11
1022.328	22.81
1022.488	44.32
1022.648	9.25
1022.808	41.8
1022.968	23.59
1023.128	-6.83
1023.288	-11.67
1023.448	29.4
1023.608	46.06
1023.767	44.32
1023.927	-16.13
1024.087	-6.44
1024.247	-24.85
1024.406	18.94
1024.566	-26.59
1024.726	-31.63
1024.885	11.96
1025.045	38.51
1025.205	10.8
1025.364	0.53
1025.524	24.75
1025.683	19.33
1025.843	39.48
1026.003	15.84
1026.162	52.07
1026.321	34.83
1026.481	35.79
1026.64	6.73
1026.8	32.5
1026.959	15.45
1027.119	21.07
1027.278	26.49
1027.437	9.06
1027.597	17.58
1027.756	29.21
1027.915	26.11
1028.074	24.36
1028.234	-2.57
1028.393	23.2
1028.552	1.5
1028.711	-35.12
1028.87	40.06
1029.03	-33.95
1029.189	-4.31
1029.348	-49.84
1029.507	-1.21
1029.666	13.32
1029.825	-18.65
1029.984	-19.23
1030.143	44.13
1030.302	9.25
1030.461	-27.37
1030.62	22.43
1030.779	32.69
1030.938	1.31
1031.097	-20.97
1031.255	41.03
1031.414	49.55
1031.573	43.54
1031.732	-29.5
1031.891	15.26
1032.049	58.46
1032.208	5.38
1032.367	0.53
1032.525	-0.24
1032.684	8.28
1032.843	18.94
1033.001	-45.19
1033.16	123.76
1033.319	53.23
1033.477	35.79
1033.636	3.25
1033.794	-7.8
1033.953	35.99
1034.111	25.53
1034.27	-1.02
1034.428	13.51
1034.587	-29.89
1034.745	5.18
1034.903	18.75
1035.062	34.24
1035.22	-21.75
1035.378	38.89
1035.537	-16.13
1035.695	25.91
1035.853	13.51
1036.011	22.62
1036.17	14.87
1036.328	-29.3
1036.486	41.41
1036.644	13.9
1036.802	-63.79
1036.96	0.34
1037.119	-11.67
1037.277	-15.74
1037.435	-27.37
1037.593	-27.75
1037.751	6.35
1037.909	42.19
1038.067	42.19
