Data from gum_young_FLMT105791__22__17-38-21-045.txt Node

Date: Mon Mar 20 17:38:21 GMT 2023
User: antho
Spectrometer: FLMT10579
Trigger mode: 0
Integration Time (sec): 1.000000E-1
Scans to average: 10
Electric dark correction enabled: true
Nonlinearity correction enabled: false
Boxcar width: 0
XAxis mode: Wavelengths
Number of Pixels in Spectrum: 3648
>>>>>Begin Spectral Data<<<<<
345.248	-143.45
345.464	-143.45
345.681	-143.45
345.898	-159.34
346.114	-132.41
346.331	-37.47
346.548	19.29
346.764	-2.21
346.981	-21.97
347.197	-14.42
347.414	3.79
347.631	-8.02
347.847	85.75
348.064	-41.54
348.28	35.76
348.497	-26.24
348.713	7.28
348.93	27.24
349.146	26.85
349.363	9.22
349.579	-2.21
349.796	-13.84
350.012	1.28
350.229	45.06
350.445	9.41
350.661	-21.2
350.878	-13.84
351.094	36.15
351.311	22.78
351.527	47.19
351.743	-5.12
351.96	39.44
352.176	19.1
352.392	30.92
352.609	37.7
352.825	-13.64
353.041	-2.41
353.257	1.08
353.474	13.09
353.69	8.83
353.906	12.71
354.122	-18.29
354.339	47.97
354.555	6.89
354.771	-13.84
354.987	69.28
355.203	59.59
355.42	8.06
355.636	-5.89
355.852	-6.28
356.068	2.44
356.284	-18.49
356.5	60.95
356.716	11.16
356.932	21.43
357.148	33.24
357.364	21.81
357.58	50.87
357.796	84.39
358.012	48.94
358.228	32.86
358.444	-34.96
358.66	68.51
358.876	30.53
359.092	-14.03
359.308	27.04
359.524	37.7
359.74	8.44
359.956	-12.09
360.172	10.19
360.388	59.21
360.604	17.36
360.819	89.24
361.035	6.31
361.251	67.92
361.467	-27.4
361.683	30.14
361.898	19.1
362.114	34.6
362.33	20.84
362.546	28.21
362.762	8.83
362.977	27.24
363.193	-11.71
363.409	42.74
363.624	-0.47
363.84	0.31
364.056	-2.41
364.271	47.77
364.487	12.71
364.703	-8.22
364.918	-31.08
365.134	-3.18
365.35	11.16
365.565	118.11
365.781	19.88
365.996	17.55
366.212	93.69
366.427	34.6
366.643	-0.08
366.858	2.63
367.074	-15.58
367.289	65.99
367.505	105.9
367.72	-35.54
367.936	7.28
368.151	47.77
368.367	20.26
368.582	41.38
368.798	25.3
369.013	42.35
369.228	32.08
369.444	32.47
369.659	49.71
369.874	55.72
370.09	47.97
370.305	-34.57
370.52	-15.39
370.736	43.9
370.951	15.81
371.166	61.14
371.381	46.22
371.597	66.18
371.812	-22.36
372.027	14.06
372.242	15.23
372.458	79.94
372.673	29.18
372.888	14.26
373.103	23.17
373.318	66.96
373.533	37.51
373.749	50.29
373.964	-30.69
374.179	76.06
374.394	8.83
374.609	76.64
374.824	11.16
375.039	46.22
375.254	27.24
375.469	71.8
375.684	33.24
375.899	59.01
376.114	34.41
376.329	36.34
376.544	64.44
376.759	49.13
376.974	-4.15
377.189	26.66
377.404	-20.62
377.619	72.19
377.834	-9.57
378.049	1.66
378.264	7.28
378.478	44.09
378.693	-2.41
378.908	49.32
379.123	21.23
379.338	99.12
379.553	42.74
379.767	42.35
379.982	53.97
380.197	65.21
380.412	19.49
380.626	35.96
380.841	88.07
381.056	40.22
381.271	89.43
381.485	-2.79
381.7	24.91
381.915	58.62
382.129	3.02
382.344	39.83
382.559	30.34
382.773	44.29
382.988	-12.67
383.202	43.12
383.417	23.36
383.632	109.77
383.846	30.53
384.061	29.37
384.275	33.24
384.49	62.89
384.704	59.79
384.919	52.62
385.133	4.57
385.348	47
385.562	-3.18
385.777	83.81
385.991	24.33
386.206	45.45
386.42	14.06
386.634	67.54
386.849	55.33
387.063	38.47
387.277	-29.92
387.492	3.99
387.706	-24.69
387.92	-3.96
388.135	44.09
388.349	50.29
388.563	29.95
388.778	32.28
388.992	53.2
389.206	47.39
389.42	134.57
389.635	9.61
389.849	34.99
390.063	88.27
390.277	31.69
390.491	93.5
390.706	45.84
390.92	86.91
391.134	37.51
391.348	52.04
391.562	0.89
391.776	30.53
391.99	12.51
392.205	67.54
392.419	11.93
392.633	47.97
392.847	93.11
393.061	31.11
393.275	108.61
393.489	48.94
393.703	63.27
393.917	63.08
394.131	13.87
394.345	67.92
394.559	53.78
394.773	36.15
394.986	73.16
395.2	66.57
395.414	43.51
395.628	11.35
395.842	76.45
396.056	21.62
396.27	-13.26
396.484	66.18
396.697	46.81
396.911	63.47
397.125	68.12
397.339	73.35
397.553	42.16
397.766	120.24
397.98	81.87
398.194	80.13
398.408	33.63
398.621	46.22
398.835	70.64
399.049	63.47
399.262	92.14
399.476	82.65
399.69	78.39
399.903	132.83
400.117	55.72
400.331	84.97
400.544	33.05
400.758	139.61
400.971	59.79
401.185	98.92
401.398	28.59
401.612	99.51
401.826	64.24
402.039	84.2
402.253	50.29
402.466	117.52
402.68	74.71
402.893	89.04
403.106	62.89
403.32	65.79
403.533	96.21
403.747	55.33
403.96	74.9
404.174	114.62
404.387	27.24
404.6	68.89
404.814	122.56
405.027	71.22
405.24	87.69
405.454	84.59
405.667	115.78
405.88	49.52
406.094	57.07
406.307	129.15
406.52	74.51
406.733	47
406.947	17.74
407.16	119.46
407.373	103.57
407.586	45.26
407.799	32.86
408.012	120.82
408.226	107.06
408.439	133.8
408.652	50.87
408.865	101.64
409.078	129.54
409.291	92.34
409.504	38.09
409.717	88.85
409.93	86.52
410.143	75.87
410.357	49.91
410.57	48.16
410.783	94.08
410.996	110.55
411.209	74.12
411.421	131.28
411.634	100.86
411.847	67.34
412.06	106.87
412.273	87.11
412.486	90.79
412.699	169.84
412.912	91.56
413.125	136.9
413.338	88.85
413.55	115.78
413.763	112.29
413.976	86.72
414.189	102.99
414.402	87.88
414.615	154.14
414.827	65.99
415.04	105.51
415.253	114.23
415.466	132.05
415.678	200.45
415.891	129.34
416.104	102.22
416.316	93.69
416.529	131.47
416.742	109.58
416.954	146.59
417.167	102.8
417.38	85.36
417.592	130.7
417.805	89.82
418.017	61.92
418.23	146.2
418.442	100.09
418.655	114.42
418.868	112.29
419.08	124.3
419.293	154.53
419.505	133.02
419.718	114.81
419.93	162.28
420.142	112.87
420.355	172.35
420.567	154.92
420.78	151.43
420.992	126.44
421.205	155.5
421.417	116.17
421.629	122.56
421.842	89.82
422.054	76.06
422.266	152.59
422.479	145.42
422.691	97.76
422.903	150.65
423.115	100.09
423.328	115.97
423.54	156.27
423.752	119.46
423.964	123.34
424.177	109.39
424.389	98.92
424.601	213.82
424.813	125.47
425.025	141.16
425.238	179.33
425.45	127.99
425.662	110.16
425.874	399.23
426.086	137.48
426.298	163.83
426.51	155.89
426.722	131.86
426.934	102.41
427.146	156.66
427.358	116.17
427.57	171.97
427.782	117.72
427.994	148.72
428.206	116.75
428.418	102.61
428.63	173.52
428.842	152.98
429.054	154.53
429.266	181.85
429.478	111.71
429.69	124.3
429.902	74.71
430.114	151.62
430.325	118.11
430.537	133.8
430.749	119.07
430.961	83.81
431.173	136.7
431.384	150.07
431.596	62.11
431.808	114.62
432.02	144.26
432.231	162.86
432.443	203.16
432.655	166.54
432.867	110.94
433.078	187.85
433.29	195.6
433.502	199.29
433.713	193.28
433.925	169.06
434.136	199.67
434.348	144.07
434.56	102.02
434.771	245.59
434.983	98.34
435.194	139.61
435.406	157.24
435.617	195.02
435.829	218.27
436.04	190.95
436.252	203.35
436.463	197.15
436.675	210.72
436.886	213.82
437.098	195.41
437.309	226.02
437.521	189.02
437.732	181.46
437.943	211.88
438.155	198.7
438.366	133.6
438.578	237.26
438.789	176.23
439	227.77
439.211	197.54
439.423	207.81
439.634	215.75
439.845	197.93
440.057	202.58
440.268	208.97
440.479	185.92
440.69	199.87
440.902	196.57
441.113	197.35
441.324	172.74
441.535	205.68
441.746	220.21
441.957	169.45
442.168	179.33
442.38	248.3
442.591	224.86
442.802	173.52
443.013	200.06
443.224	220.6
443.435	206.84
443.646	206.45
443.857	193.86
444.068	196.19
444.279	203.35
444.49	287.83
444.701	236.48
444.912	304.3
445.123	250.63
445.334	259.54
445.545	229.7
445.756	234.93
445.967	182.43
446.178	230.67
446.388	244.04
446.599	227.18
446.81	242.88
447.021	207.81
447.232	273.88
447.443	266.9
447.653	211.68
447.864	259.15
448.075	233.97
448.286	272.52
448.496	247.92
448.707	267.48
448.918	232.8
449.129	321.73
449.339	234.35
449.55	264
449.761	234.74
449.971	282.21
450.182	247.33
450.393	273.68
450.603	222.73
450.814	300.81
451.024	264.77
451.235	289.57
451.446	329.87
451.656	298.48
451.867	272.52
452.077	270.39
452.288	297.9
452.498	352.54
452.709	280.08
452.919	299.06
453.13	273.1
453.34	305.46
453.55	220.98
453.761	284.92
453.971	278.33
454.182	332.97
454.392	308.95
454.602	334.52
454.813	330.84
455.023	335.68
455.233	268.65
455.444	297.9
455.654	233.19
455.864	289.96
456.075	287.44
456.285	256.83
456.495	274.27
456.705	321.35
456.916	334.52
457.126	349.25
457.336	285.89
457.546	236.29
457.756	277.37
457.967	357.77
458.177	286.86
458.387	326.77
458.597	303.71
458.807	326.96
459.017	292.48
459.227	309.53
459.437	316.31
459.647	353.7
459.857	330.45
460.068	290.93
460.278	338.4
460.488	336.65
460.698	391.29
460.908	298.29
461.117	272.52
461.327	298.87
461.537	320.18
461.747	350.8
461.957	308.56
462.167	410.86
462.377	356.61
462.587	334.52
462.797	356.61
463.007	332.2
463.216	355.06
463.426	382.57
463.636	366.68
463.846	303.33
464.056	321.73
464.265	372.69
464.475	302.94
464.685	332.97
464.895	343.82
465.104	349.05
465.314	349.44
465.524	320.57
465.733	332.97
465.943	408.14
466.153	408.53
466.362	364.55
466.572	392.06
466.782	364.16
466.991	361.06
467.201	406.79
467.41	322.31
467.62	356.41
467.829	382.38
468.039	376.95
468.249	365.33
468.458	357.77
468.668	436.63
468.877	410.86
469.086	400.98
469.296	422.68
469.505	348.47
469.715	438.18
469.924	394.97
470.134	437.01
470.343	430.23
470.552	396.52
470.762	378.5
470.971	360.1
471.18	394.97
471.39	401.17
471.599	377.73
471.808	452.51
472.018	356.8
472.227	455.61
472.436	472.66
472.645	404.85
472.855	394.39
473.064	472.47
473.273	438.95
473.482	444.18
473.691	446.89
473.901	446.7
474.11	414.54
474.319	475.76
474.528	436.04
474.737	496.11
474.946	454.26
475.155	445.54
475.364	486.22
475.573	452.9
475.783	481.96
475.992	465.88
476.201	542.22
476.41	467.43
476.619	403.49
476.828	475.37
477.037	445.93
477.245	492.81
477.454	532.34
477.663	476.34
477.872	499.4
478.081	546.09
478.29	453.29
478.499	586.2
478.708	523.23
478.917	551.52
479.125	502.31
479.334	541.83
479.543	491.46
479.752	557.72
479.961	539.12
480.169	576.32
480.378	553.65
480.587	639.09
480.796	578.25
481.004	547.26
481.213	572.64
481.422	557.33
481.63	561.2
481.839	601.89
482.048	648.2
482.256	580.97
482.465	598.21
482.674	641.8
482.882	586.39
483.091	652.85
483.299	578.06
483.508	656.14
483.716	612.74
483.925	595.89
484.134	578.84
484.342	604.41
484.551	660.6
484.759	632.7
484.967	650.72
485.176	670.67
485.384	655.95
485.593	687.53
485.801	639.09
486.01	601.31
486.218	593.56
486.426	532.53
486.635	549.97
486.843	566.44
487.051	575.15
487.26	606.15
487.468	619.14
487.676	649.36
487.885	613.52
488.093	651.68
488.301	662.73
488.509	654.4
488.717	716.2
488.926	661.18
489.134	684.23
489.342	683.46
489.55	659.63
489.758	669.9
489.967	669.9
490.175	790.8
490.383	699.54
490.591	783.43
490.799	669.32
491.007	773.36
491.215	725.5
491.423	721.82
491.631	723.37
491.839	709.42
492.047	760.96
492.255	710
492.463	694.31
492.671	702.45
492.879	794.86
493.087	736.74
493.295	752.24
493.503	786.15
493.711	766.77
493.919	819.66
494.127	809.01
494.334	826.83
494.542	772.2
494.75	785.18
494.958	773.94
495.166	857.06
495.374	799.51
495.581	813.08
495.789	828.96
495.997	858.8
496.205	805.91
496.412	818.5
496.62	813.66
496.828	863.45
497.035	868.68
497.243	839.62
497.451	827.22
497.658	882.83
497.866	877.01
498.074	906.46
498.281	837.88
498.489	907.82
498.696	871.01
498.904	847.76
499.112	870.43
499.319	924.29
499.527	887.86
499.734	949.67
499.942	861.71
500.149	885.73
500.357	905.3
500.564	871.78
500.771	890.19
500.979	859.77
501.186	855.31
501.394	899.49
501.601	899.1
501.808	935.72
502.016	910.72
502.223	900.26
502.43	918.47
502.638	907.24
502.845	923.32
503.052	1031.62
503.26	946.37
503.467	1001.01
503.674	935.14
503.881	973.89
504.089	1044.41
504.296	985.51
504.503	934.36
504.71	995.2
504.917	955.29
505.125	1005.85
505.332	984.35
505.539	1000.62
505.746	1075.41
505.953	1073.67
506.16	1091.68
506.367	1113.77
506.574	1121.33
506.781	1151.94
506.988	1051.77
507.195	1079.48
507.402	1063.01
507.609	1138.77
507.816	1097.3
508.023	1106.41
508.23	1076.38
508.437	1050.03
508.644	1128.3
508.851	1186.04
509.058	1193.4
509.265	1152.72
509.472	1174.03
509.679	1253.27
509.885	1210.06
510.092	1150.78
510.299	1181.97
510.506	1207.16
510.713	1221.3
510.92	1209.29
511.126	1256.18
511.333	1252.5
511.54	1277.88
511.746	1294.93
511.953	1306.36
512.16	1383.08
512.367	1294.54
512.573	1291.44
512.78	1291.83
512.987	1296.09
513.193	1305.58
513.4	1241.84
513.606	1312.75
513.813	1323.6
514.02	1299.58
514.226	1392.77
514.433	1365.84
514.639	1315.46
514.846	1326.7
515.052	1383.86
515.259	1352.66
515.465	1405.56
515.672	1367.19
515.878	1462.9
516.085	1440.62
516.291	1451.47
516.497	1434.81
516.704	1363.71
516.91	1320.5
517.117	1298.61
517.323	1230.02
517.529	1316.63
517.736	1354.02
517.942	1313.53
518.148	1351.5
518.354	1377.66
518.561	1379.4
518.767	1419.89
518.973	1450.7
519.179	1482.86
519.386	1474.92
519.592	1437.72
519.798	1505.34
520.004	1594.65
520.21	1518.51
520.417	1586.9
520.623	1638.05
520.829	1634.95
521.035	1665.18
521.241	1654.33
521.447	1683.2
521.653	1770.19
521.859	1665.37
522.065	1692.11
522.271	1801.38
522.477	1738.8
522.683	1801.38
522.889	1759.14
523.095	1726.21
523.301	1732.6
523.507	1734.15
523.713	1768.06
523.919	1718.84
524.125	1845.36
524.331	1845.56
524.537	1883.92
524.742	1933.71
524.948	1918.6
525.154	1910.65
525.36	1996.48
525.566	1945.92
525.772	1989.32
525.977	1900.39
526.183	1910.27
526.389	1986.02
526.595	1867.64
526.8	1903.1
527.006	1834.51
527.212	1742.48
527.417	1770.77
527.623	1799.25
527.829	1849.24
528.034	1918.21
528.24	1911.82
528.446	1931
528.651	1995.9
528.857	2022.25
529.062	2077.66
529.268	2085.8
529.473	2098.78
529.679	2096.65
529.884	2146.25
530.09	2123.58
530.295	2092.78
530.501	2166.79
530.706	2115.64
530.912	2125.13
531.117	2166.98
531.323	2168.92
531.528	2243.12
531.733	2218.71
531.939	2179.77
532.144	2221.81
532.35	2184.81
532.555	2217.74
532.76	2166.98
532.966	2209.8
533.171	2163.11
533.376	2116.03
533.581	2106.92
533.787	2174.54
533.992	2197.21
534.197	2174.54
534.402	2162.14
534.607	2223.36
534.813	2265.99
535.018	2196.24
535.223	2209.99
535.428	2251.84
535.633	2277.42
535.838	2271.99
536.043	2290.98
536.249	2394.83
536.454	2310.55
536.659	2331.47
536.864	2312.29
537.069	2290.79
537.274	2306.87
537.479	2284.01
537.684	2306.29
537.889	2288.27
538.094	2419.63
538.299	2321.59
538.504	2346.78
538.708	2356.85
538.913	2371
539.118	2361.12
539.323	2361.31
539.528	2337.29
539.733	2310.35
539.938	2409.55
540.142	2347.94
540.347	2369.06
540.552	2267.15
540.757	2281.1
540.962	2289.82
541.166	2252.23
541.371	2228.79
541.576	2307.84
541.781	2276.26
541.985	2373.32
542.19	2330.7
542.395	2420.21
542.599	2421.37
542.804	2359.57
543.008	2429.51
543.213	2401.61
543.418	2319.65
543.622	2396.57
543.827	2313.84
544.031	2427.57
544.236	2461.28
544.44	2452.95
544.645	2491.7
544.849	2424.67
545.054	2463.42
545.258	2536.26
545.463	2508.75
545.667	2427.38
545.872	2501.58
546.076	2461.48
546.281	2484.92
546.485	2410.52
546.689	2486.08
546.894	2471.94
547.098	2486.08
547.302	2402.58
547.507	2442.68
547.711	2487.63
547.915	2477.56
548.119	2462.06
548.324	2420.02
548.528	2504.88
548.732	2450.43
548.936	2515.15
549.141	2517.66
549.345	2459.54
549.549	2502.75
549.753	2517.08
549.957	2553.51
550.161	2563.58
550.366	2497.13
550.57	2467.48
550.774	2501
550.978	2497.71
551.182	2523.09
551.386	2471.94
551.59	2477.95
551.794	2457.99
551.998	2515.73
552.202	2500.81
552.406	2513.4
552.61	2535.68
552.814	2499.45
553.018	2549.05
553.222	2485.7
553.426	2501.78
553.63	2567.46
553.833	2486.66
554.037	2472.13
554.241	2516.11
554.445	2524.64
554.649	2526.77
554.853	2499.45
555.056	2573.27
555.26	2590.13
555.464	2530.45
555.668	2534.33
555.871	2553.51
556.075	2542.66
556.279	2486.86
556.483	2466.32
556.686	2493.83
556.89	2488.41
557.094	2479.3
557.297	2420.02
557.501	2513.21
557.704	2425.63
557.908	2453.53
558.112	2425.83
558.315	2504.49
558.519	2425.44
558.722	2417.69
558.926	2407.03
559.129	2365.57
559.333	2332.64
559.536	2375.84
559.74	2368.09
559.943	2298.15
560.147	2317.72
560.35	2342.13
560.553	2347.94
560.757	2307.64
560.96	2440.36
561.164	2388.44
561.367	2441.91
561.57	2386.3
561.774	2376.62
561.977	2372.55
562.18	2353.75
562.384	2404.13
562.587	2367.32
562.79	2328.18
562.993	2337.09
563.197	2373.71
563.4	2399.09
563.603	2383.2
563.806	2399.09
564.009	2297.18
564.212	2349.49
564.416	2272.19
564.619	2346.59
564.822	2230.34
565.025	2355.3
565.228	2265.99
565.431	2286.72
565.634	2201.08
565.837	2220.84
566.04	2195.66
566.243	2179.38
566.446	2158.65
566.649	2204.76
566.852	2187.71
567.055	2186.36
567.258	2228.79
567.461	2246.61
567.664	2244.09
567.867	2181.9
568.07	2210.19
568.273	2170.08
568.475	2244.29
568.678	2160.59
568.881	2110.41
569.084	2091.03
569.287	2003.07
569.489	2079.8
569.692	2131.14
569.895	2094.52
570.098	2046.28
570.3	2015.47
570.503	1981.95
570.706	2004.82
570.909	1972.85
571.111	1918.21
571.314	1922.86
571.516	1968.2
571.719	1965.68
571.922	1944.75
572.124	1947.85
572.327	1959.48
572.529	1900.19
572.732	1937.39
572.935	1959.48
573.137	1994.74
573.34	1933.52
573.542	1993.77
573.745	1986.41
573.947	1958.32
574.15	1941.46
574.352	1917.24
574.554	1974.4
574.757	1929.06
574.959	1860.47
575.162	1892.05
575.364	1831.99
575.566	1932.94
575.769	1803.51
575.971	1887.4
576.173	1739.96
576.376	1821.34
576.578	1863.19
576.78	1869.58
576.982	1777.36
577.185	1874.23
577.387	1781.23
577.589	1843.62
577.791	1844.78
577.993	1847.69
578.196	1791.89
578.398	1787.82
578.6	1816.88
578.802	1759.34
579.004	1765.54
579.206	1768.06
579.408	1791.89
579.61	1774.45
579.812	1829.47
580.014	1754.88
580.216	1770.58
580.418	1800.61
580.62	1749.46
580.822	1729.31
581.024	1827.15
581.226	1859.31
581.428	1796.92
581.63	1885.27
581.832	1761.47
582.034	1845.56
582.236	1789.37
582.438	1839.16
582.64	1866.67
582.841	1873.45
583.043	1930.22
583.245	1869.19
583.447	1819.79
583.649	1803.32
583.85	1864.93
584.052	1877.33
584.254	1786.46
584.456	1841.49
584.657	1772.32
584.859	1829.86
585.061	1794.41
585.262	1791.89
585.464	1753.91
585.666	1807.39
585.867	1745
586.069	1826.96
586.27	1789.95
586.472	1772.51
586.674	1759.34
586.875	1751.2
587.077	1746.55
587.278	1773.87
587.48	1720.01
587.681	1854.27
587.883	1769.03
588.084	1678.35
588.285	1723.49
588.487	1677.96
588.688	1683.78
588.89	1633.79
589.091	1568.11
589.292	1604.53
589.494	1537.3
589.695	1508.24
589.896	1423.57
590.098	1431.13
590.299	1517.35
590.5	1495.84
590.702	1505.34
590.903	1530.13
591.104	1627.59
591.305	1573.15
591.507	1648.32
591.708	1624.1
591.909	1601.24
592.11	1632.05
592.311	1602.02
592.512	1578.77
592.714	1565.2
592.915	1586.71
593.116	1552.22
593.317	1608.22
593.518	1576.83
593.719	1585.35
593.92	1625.85
594.121	1658.98
594.322	1627.01
594.523	1585.93
594.724	1516.77
594.925	1539.63
595.126	1590.39
595.327	1590.58
595.528	1562.3
595.729	1587.1
595.929	1565.78
596.13	1542.92
596.331	1585.35
596.532	1589.42
596.733	1654.52
596.934	1594.46
597.135	1596.59
597.335	1615.96
597.536	1557.07
597.737	1597.56
597.938	1547.77
598.138	1621.78
598.339	1568.3
598.54	1617.71
598.74	1586.13
598.941	1602.21
599.142	1607.63
599.342	1599.3
599.543	1544.67
599.744	1608.22
599.944	1584.97
600.145	1595.82
600.345	1569.66
600.546	1628.17
600.746	1584.97
600.947	1675.83
601.147	1568.88
601.348	1619.84
601.548	1548.54
601.749	1585.74
601.949	1510.18
602.15	1535.75
602.35	1563.85
602.551	1610.73
602.751	1560.94
602.951	1578.38
603.152	1503.01
603.352	1595.43
603.552	1565.78
603.753	1591.75
603.953	1601.24
604.153	1596.98
604.354	1562.68
604.554	1572.37
604.754	1577.99
604.954	1539.63
605.155	1594.46
605.355	1564.23
605.555	1577.8
605.755	1624.3
605.955	1557.45
606.155	1570.24
606.356	1607.63
606.556	1603.37
606.756	1588.45
606.956	1504.37
607.156	1628.17
607.356	1544.28
607.556	1580.9
607.756	1563.85
607.956	1591.17
608.156	1577.41
608.356	1501.85
608.556	1546.6
608.756	1563.85
608.956	1505.53
609.156	1544.08
609.356	1468.72
609.556	1513.86
609.755	1572.18
609.955	1491.58
610.155	1515.8
610.355	1495.07
610.555	1479.57
610.755	1500.69
610.954	1441.2
611.154	1491
611.354	1537.3
611.554	1457.67
611.753	1464.26
611.953	1407.88
612.153	1501.07
612.352	1457.67
612.552	1442.95
612.752	1427.06
612.951	1451.86
613.151	1443.34
613.351	1420.28
613.55	1413.31
613.75	1426.87
613.949	1428.42
614.149	1458.64
614.348	1421.64
614.548	1384.05
614.747	1361.57
614.947	1415.44
615.146	1317.4
615.346	1452.25
615.545	1395.87
615.745	1436.55
615.944	1441.59
616.144	1385.99
616.343	1411.95
616.542	1388.31
616.742	1358.47
616.941	1373.39
617.14	1318.18
617.34	1330.58
617.539	1379.01
617.738	1312.17
617.938	1423.38
618.137	1381.92
618.336	1339.49
618.535	1392.96
618.734	1368.74
618.934	1371.84
619.133	1367.19
619.332	1385.99
619.531	1319.34
619.73	1351.5
619.929	1392.38
620.128	1383.86
620.328	1387.34
620.527	1342.39
620.726	1357.12
620.925	1368.74
621.124	1327.48
621.323	1373.78
621.522	1305.78
621.721	1304.61
621.92	1261.79
622.119	1337.74
622.318	1257.92
622.517	1311.78
622.715	1323.02
622.914	1258.31
623.113	1292.99
623.312	1234.67
623.511	1307.91
623.71	1240.87
623.909	1267.99
624.107	1350.92
624.306	1236.22
624.505	1247.46
624.704	1238.93
624.902	1250.75
625.101	1303.84
625.3	1238.35
625.499	1233.9
625.697	1263.54
625.896	1242.42
626.095	1288.73
626.293	1167.05
626.492	1220.72
626.69	1275.36
626.889	1204.64
627.088	1263.93
627.286	1218.2
627.485	1208.32
627.683	1170.93
627.882	1211.61
628.08	1113.38
628.279	1136.83
628.477	1229.83
628.676	1113.19
628.874	1201.93
629.073	1150.78
629.271	1142.83
629.469	1183.13
629.668	1142.45
629.866	1140.12
630.065	1125.59
630.263	1202.12
630.461	1130.05
630.66	1156.98
630.858	1161.63
631.056	1226.15
631.254	1212.78
631.453	1155.62
631.651	1179.26
631.849	1163.37
632.047	1202.31
632.245	1145.35
632.444	1195.34
632.642	1182.94
632.84	1198.83
633.038	1189.33
633.236	1146.9
633.434	1150.39
633.632	1154.85
633.83	1140.9
634.028	1230.8
634.227	1160.47
634.425	1254.05
634.623	1162.79
634.821	1218.2
635.019	1213.94
635.216	1192.05
635.414	1206.58
635.612	1206.96
635.81	1185.07
636.008	1264.31
636.206	1190.5
636.404	1204.83
636.602	1178.1
636.8	1180.81
636.997	1194.95
637.195	1204.25
637.393	1201.73
637.591	1227.89
637.789	1222.08
637.986	1157.75
638.184	1169.57
638.382	1223.43
638.58	1214.91
638.777	1234.48
638.975	1146.71
639.173	1228.66
639.37	1185.46
639.568	1144
639.765	1186.81
639.963	1162.79
640.161	1181
640.358	1173.25
640.556	1115.71
640.753	1098.85
640.951	1088.2
641.148	1160.08
641.346	1102.15
641.543	1093.23
641.741	1138.38
641.938	1072.12
642.136	1098.47
642.333	1075.8
642.531	1142.06
642.728	1176.16
642.925	1102.15
643.123	1073.86
643.32	1112.8
643.517	1117.26
643.715	1080.84
643.912	1073.67
644.109	1081.42
644.306	1073.09
644.504	1011.09
644.701	1067.08
644.898	1075.41
645.095	1050.42
645.293	1034.34
645.49	1090.52
645.687	1048.67
645.884	1050.42
646.081	951.22
646.278	986.67
646.475	1003.72
646.672	1003.34
646.87	1043.64
647.067	999.85
647.264	981.06
647.461	945.02
647.658	941.72
647.855	984.93
648.052	920.61
648.249	915.96
648.446	930.87
648.642	920.99
648.839	940.95
649.036	912.86
649.233	875.27
649.43	896.39
649.627	844.08
649.824	885.34
650.021	894.06
650.217	879.34
650.414	881.66
650.611	915.96
650.808	931.65
651.004	913.05
651.201	918.28
651.398	972.14
651.595	901.04
651.791	901.81
651.988	945.79
652.185	874.88
652.381	922.16
652.578	855.7
652.775	882.44
652.971	893.87
653.168	880.5
653.364	928.55
653.561	838.84
653.757	889.22
653.954	897.94
654.15	874.49
654.347	926.03
654.543	869.46
654.74	815.01
654.936	811.91
655.133	875.66
655.329	875.66
655.525	858.22
655.722	845.63
655.918	807.85
656.115	846.01
656.311	740.03
656.507	748.36
656.704	725.5
656.9	728.22
657.096	721.63
657.292	723.76
657.489	795.45
657.685	812.11
657.881	765.61
658.077	794.09
658.273	816.37
658.47	864.42
658.666	815.6
658.862	845.63
659.058	794.09
659.254	874.3
659.45	799.71
659.646	835.55
659.842	801.84
660.038	871.59
660.234	820.25
660.43	831.29
660.626	866.16
660.822	858.41
661.018	860.93
661.214	818.89
661.41	768.32
661.606	827.03
661.802	858.03
661.998	804.16
662.194	781.5
662.39	827.41
662.586	821.41
662.781	813.27
662.977	809.98
663.173	806.49
663.369	821.6
663.564	808.04
663.76	791.76
663.956	745.85
664.152	797.77
664.347	704.58
664.543	766.96
664.739	755.92
664.934	716.01
665.13	746.43
665.326	812.69
665.521	762.9
665.717	731.7
665.912	723.95
666.108	712.52
666.304	739.45
666.499	717.37
666.695	660.6
666.89	727.83
667.086	754.76
667.281	706.32
667.477	795.25
667.672	734.03
667.867	729.18
668.063	707.87
668.258	666.99
668.454	707.29
668.649	789.25
668.844	734.42
669.04	730.35
669.235	681.72
669.43	681.91
669.626	673.97
669.821	688.5
670.016	653.23
670.211	688.5
670.407	614.49
670.602	703.22
670.797	712.91
670.992	702.06
671.187	650.13
671.382	707.29
671.578	663.7
671.773	678.81
671.968	638.7
672.163	644.32
672.358	721.63
672.553	631.92
672.748	665.44
672.943	719.11
673.138	653.23
673.333	696.05
673.528	651.49
673.723	692.57
673.918	646.84
674.113	627.47
674.308	718.33
674.503	695.67
674.698	691.21
674.892	678.81
675.087	674.93
675.282	664.08
675.477	640.06
675.672	655.75
675.867	662.92
676.061	621.46
676.256	611.77
676.451	632.7
676.646	657.3
676.84	617
677.035	640.64
677.23	611.97
677.424	649.75
677.619	698.96
677.814	685.59
678.008	680.17
678.203	623.01
678.397	642.77
678.592	651.49
678.787	685.4
678.981	627.85
679.176	656.72
679.37	672.8
679.565	599.76
679.759	611.77
679.954	649.94
680.148	681.13
680.342	685.01
680.537	654.59
680.731	630.76
680.926	666.6
681.12	698.77
681.314	607.32
681.509	628.44
681.703	638.32
681.897	675.9
682.092	647.42
682.286	624.75
682.48	690.82
682.674	696.83
682.869	638.12
683.063	649.75
683.257	714.65
683.451	630.18
683.645	705.35
683.839	649.55
684.034	655.17
684.228	683.85
684.422	614.87
684.616	649.75
684.81	722.98
685.004	685.4
685.198	692.95
685.392	728.41
685.586	675.52
685.78	681.33
685.974	707.87
686.168	710.97
686.362	762.51
686.556	657.11
686.75	646.07
686.944	614.29
687.138	623.98
687.331	555.2
687.525	564.89
687.719	537.18
687.913	549.19
688.107	561.4
688.301	549.58
688.494	598.79
688.688	590.65
688.882	569.15
689.076	583.49
689.269	613.32
689.463	686.75
689.657	628.05
689.85	675.52
690.044	679.58
690.238	635.8
690.431	650.72
690.625	719.69
690.818	704.38
691.012	734.8
691.205	757.28
691.399	725.12
691.593	785.56
691.786	833.23
691.98	824.89
692.173	850.66
692.366	860.16
692.56	902.01
692.753	941.53
692.947	846.4
693.14	936.3
693.333	939.4
693.527	877.01
693.72	945.21
693.914	929.91
694.107	927.77
694.3	951.8
694.493	955.48
694.687	1020.58
694.88	954.12
695.073	1031.04
695.266	1032.2
695.46	1034.53
695.653	1075.8
695.846	1091.1
696.039	1020.19
696.232	1083.16
696.425	1139.54
696.618	1159.5
696.812	1170.93
697.005	1265.28
697.198	1318.76
697.391	1248.23
697.584	1287.37
697.777	1324.38
697.97	1325.15
698.163	1354.02
698.356	1321.66
698.549	1422.02
698.742	1424.74
698.935	1341.62
699.127	1382.11
699.32	1323.21
699.513	1364.67
699.706	1385.02
699.899	1425.32
700.092	1394.51
700.285	1430.55
700.477	1373.2
700.67	1422.8
700.863	1431.91
701.056	1599.3
701.248	1510.18
701.441	1533.23
701.634	1514.05
701.826	1609.96
702.019	1510.95
702.212	1599.69
702.404	1515.02
702.597	1523.93
702.79	1576.25
702.982	1573.34
703.175	1663.24
703.367	1653.75
703.56	1669.63
703.752	1726.01
703.945	1719.04
704.137	1733.76
704.33	1738.22
704.522	1771.35
704.715	1812.81
704.907	1805.26
705.1	1822.89
705.292	1838
705.484	1869.77
705.677	1874.04
705.869	1891.67
706.061	1934.87
706.254	1950.37
706.446	1930.42
706.638	1906.39
706.831	1964.71
707.023	1937.97
707.215	2065.85
707.407	2051.12
707.599	2002.1
707.792	2051.51
707.984	2020.7
708.176	2079.41
708.368	2044.92
708.56	2103.82
708.752	2103.63
708.944	2118.35
709.136	2148.96
709.329	2105.95
709.521	2246.22
709.713	2170.08
709.905	2224.91
710.097	2240.22
710.289	2191.98
710.481	2250.87
710.672	2243.12
710.864	2267.34
711.056	2262.89
711.248	2261.92
711.44	2293.31
711.632	2305.51
711.824	2339.03
712.016	2346.2
712.207	2345.23
712.399	2349.49
712.591	2408.97
712.783	2432.42
712.975	2421.95
713.166	2373.13
713.358	2442.88
713.55	2473.3
713.741	2454.31
713.933	2460.7
714.125	2455.08
714.316	2424.67
714.508	2534.33
714.7	2513.6
714.891	2489.76
715.083	2490.15
715.274	2481.05
715.466	2533.16
715.657	2519.02
715.849	2435.32
716.04	2488.8
716.232	2432.8
716.423	2441.33
716.615	2422.92
716.806	2296.21
716.998	2259.01
717.189	2162.14
717.381	2103.43
717.572	2059.06
717.763	2040.27
717.955	2037.17
718.146	1988.15
718.337	1923.05
718.528	1885.27
718.72	1869.19
718.911	1867.64
719.102	1823.47
719.293	1871.9
719.485	1849.82
719.676	1839.36
719.867	1785.69
720.058	1841.68
720.249	1834.12
720.44	1834.9
720.632	1896.51
720.823	1938.17
721.014	2081.73
721.205	2086.38
721.396	2164.85
721.587	2309.97
721.778	2335.74
721.969	2385.14
722.16	2412.85
722.351	2428.73
722.542	2559.9
722.733	2592.64
722.924	2462.45
723.115	2518.63
723.305	2486.28
723.496	2467.1
723.687	2346.59
723.878	2373.71
724.069	2326.63
724.26	2380.69
724.45	2275.09
724.641	2310.16
724.832	2309.97
725.023	2257.27
725.213	2276.84
725.404	2250.87
725.595	2286.91
725.785	2216.39
725.976	2324.3
726.167	2309.97
726.357	2326.63
726.548	2438.42
726.739	2327.6
726.929	2396.96
727.12	2406.65
727.31	2402.97
727.501	2377.39
727.691	2358.6
727.882	2378.75
728.072	2458.77
728.263	2452.18
728.453	2564.75
728.644	2488.99
728.834	2475.04
729.024	2457.99
729.215	2456.25
729.405	2472.52
729.596	2562.61
729.786	2556.03
729.976	2591.09
730.167	2573.85
730.357	2554.48
730.547	2559.51
730.737	2570.75
730.928	2614.15
731.118	2639.34
731.308	2595.36
731.498	2625
731.688	2710.25
731.879	2711.61
732.069	2804.8
732.259	2797.24
732.449	2872.61
732.639	2913.88
732.829	2949.14
733.019	2990.99
733.209	3037.68
733.399	3052.41
733.589	3098.13
733.779	3142.11
733.969	3175.63
734.159	3242.47
734.349	3237.05
734.539	3265.34
734.729	3234.92
734.919	3285.48
735.109	3361.43
735.299	3299.82
735.488	3349.23
735.678	3341.67
735.868	3354.07
736.058	3298.66
736.248	3307.57
736.437	3285.29
736.627	3238.79
736.817	3398.83
737.007	3350.58
737.196	3397.66
737.386	3336.83
737.576	3378.29
737.765	3477.49
737.955	3396.5
738.144	3488.92
738.334	3488.34
738.524	3391.27
738.713	3446.88
738.903	3483.3
739.092	3471.09
739.282	3463.73
739.471	3516.63
739.661	3474.39
739.85	3541.23
740.04	3569.52
740.229	3575.52
740.419	3620.28
740.608	3600.32
740.797	3558.47
740.987	3666.97
741.176	3615.05
741.365	3590.06
741.555	3561.38
741.744	3649.15
741.933	3581.53
742.123	3635.78
742.312	3656.12
742.501	3676.47
742.69	3667.75
742.88	3670.46
743.069	3731.49
743.258	3687.7
743.447	3751.45
743.636	3762.1
743.825	3721.22
744.014	3702.43
744.204	3739.05
744.393	3695.84
744.582	3752.8
744.771	3837.86
744.96	3718.32
745.149	3782.06
745.338	3736.14
745.527	3756.87
745.716	3774.7
745.905	3746.6
746.094	3804.34
746.283	3831.46
746.471	3796.2
746.66	3819.84
746.849	3833.6
747.038	3823.71
747.227	3772.18
747.416	3863.43
747.604	3805.5
747.793	3787.68
747.982	3818.87
748.171	3807.25
748.359	3854.91
748.548	3830.88
748.737	3795.04
748.926	3788.07
749.114	3729.55
749.303	3777.8
749.491	3779.35
749.68	3666.97
749.869	3808.6
750.057	3765.2
750.246	3746.41
750.434	3754.16
750.623	3727.62
750.811	3708.24
751	3765.01
751.188	3729.94
751.377	3740.02
751.565	3703.98
751.754	3694.29
751.942	3637.72
752.131	3765.98
752.319	3668.14
752.507	3631.32
752.696	3711.73
752.884	3713.08
753.072	3678.99
753.261	3672.4
753.449	3737.11
753.637	3673.56
753.825	3749.9
754.014	3708.05
754.202	3672.79
754.39	3740.4
754.578	3705.34
754.766	3655.15
754.955	3651.86
755.143	3769.08
755.331	3658.25
755.519	3678.4
755.707	3672.79
755.895	3629.97
756.083	3662.13
756.271	3599.36
756.459	3599.94
756.647	3635.2
756.835	3637.72
757.023	3610.59
757.211	3641.59
757.399	3579.4
757.587	3552.08
757.775	3522.24
757.963	3573.39
758.151	3590.06
758.339	3481.94
758.526	3496.48
758.714	3493.18
758.902	3399.21
759.09	3289.17
759.278	3055.51
759.465	2843.35
759.653	2448.3
759.841	2226.66
760.028	1873.45
760.216	1690.56
760.404	1539.63
760.591	1288.14
760.779	1088.58
760.967	945.79
761.154	773.94
761.342	816.18
761.529	812.3
761.717	823.73
761.905	824.12
762.092	881.28
762.28	835.74
762.467	813.27
762.655	760.38
762.842	799.71
763.029	771.23
763.217	806.68
763.404	782.46
763.592	804.55
763.779	766
763.966	826.44
764.154	848.14
764.341	896.78
764.528	921.38
764.716	973.89
764.903	1043.64
765.09	1103.31
765.277	1156.98
765.465	1323.6
765.652	1390.83
765.839	1460.58
766.026	1602.79
766.213	1659.17
766.4	1748.29
766.588	1968.39
766.775	2028.84
766.962	2115.64
767.149	2209.61
767.336	2325.85
767.523	2373.9
767.71	2464.38
767.897	2569.01
768.084	2659.49
768.271	2713.74
768.458	2770.31
768.645	2871.25
768.832	2838.9
769.019	2866.6
769.206	2888.5
769.392	3003.97
769.579	3058.22
769.766	2985.95
769.953	3053.57
770.14	3112.47
770.327	3069.07
770.513	3125.64
770.7	3196.94
770.887	3135.14
771.073	3119.64
771.26	3139.59
771.447	3118.28
771.634	3115.18
771.82	3235.69
772.007	3109.37
772.193	3154.12
772.38	3166.72
772.567	3164.39
772.753	3159.74
772.94	3211.09
773.126	3166.72
773.313	3175.24
773.499	3149.86
773.686	3185.7
773.872	3118.67
774.059	3176.99
774.245	3126.61
774.432	3192.68
774.618	3053.38
774.804	3127.39
774.991	3145.02
775.177	3155.48
775.363	3116.92
775.55	3133.78
775.736	3063.64
775.922	3117.31
776.109	3108.79
776.295	3118.28
776.481	3116.15
776.667	3128.94
776.853	3120.22
777.04	3054.34
777.226	3114.6
777.412	3155.67
777.598	3034.39
777.784	3070.04
777.97	3033.61
778.156	3063.45
778.342	3052.41
778.528	3066.55
778.715	3009.2
778.901	3044.85
779.087	3019.66
779.272	3010.94
779.458	3007.65
779.644	3028.19
779.83	2972
780.016	3074.3
780.202	2988.47
780.388	3032.45
780.574	2889.08
780.76	2950.69
780.946	3022.76
781.131	2976.07
781.317	2935.19
781.503	2945.46
781.689	2934.61
781.874	3028.96
782.06	2882.49
782.246	2939.84
782.432	2909.03
782.617	2941
782.803	2956.11
782.989	2891.98
783.174	2908.84
783.36	2826.89
783.545	2893.34
783.731	2894.5
783.916	2812.94
784.102	2873.19
784.288	2843.16
784.473	2861.95
784.659	2796.85
784.844	2852.07
785.029	2784.84
785.215	2819.91
785.4	2749.58
785.586	2875.71
785.771	2746.09
785.956	2825.92
786.142	2781.16
786.327	2763.34
786.512	2756.36
786.698	2748.8
786.883	2643.02
787.068	2710.44
787.254	2778.25
787.439	2678.09
787.624	2682.35
787.809	2673.24
787.994	2673.63
788.18	2721.29
788.365	2669.56
788.55	2665.3
788.735	2655.42
788.92	2627.13
789.105	2605.04
789.29	2670.72
789.475	2578.5
789.66	2574.24
789.845	2545.18
790.03	2567.85
790.215	2613.18
790.4	2622.68
790.585	2579.66
790.77	2582.38
790.955	2500.23
791.14	2544.79
791.325	2565.91
791.51	2470.78
791.695	2542.46
791.879	2525.22
792.064	2493.64
792.249	2595.94
792.434	2558.35
792.618	2485.11
792.803	2593.03
792.988	2524.64
793.173	2559.13
793.357	2564.55
793.542	2518.05
793.727	2545.18
793.911	2578.31
794.096	2565.71
794.281	2567.26
794.465	2641.47
794.65	2529.68
794.834	2594.78
795.019	2608.92
795.203	2618.99
795.388	2621.51
795.572	2607.76
795.757	2603.88
795.941	2593.81
796.126	2578.69
796.31	2504.3
796.494	2558.35
796.679	2505.85
796.863	2526.96
797.048	2609.31
797.232	2570.56
797.416	2611.44
797.601	2550.8
797.785	2638.37
797.969	2637.4
798.153	2593.03
798.338	2573.27
798.522	2636.82
798.706	2632.56
798.89	2655.81
799.074	2756.17
799.258	2677.31
799.443	2619.38
799.627	2642.24
799.811	2627.52
799.995	2620.35
800.179	2579.08
800.363	2541.11
800.547	2620.74
800.731	2628.68
800.915	2542.46
801.099	2573.85
801.283	2592.64
801.467	2577.14
801.651	2550.8
801.835	2585.67
802.019	2591.09
802.202	2572.11
802.386	2579.08
802.57	2550.99
802.754	2531.42
802.938	2530.26
803.121	2539.17
803.305	2590.13
803.489	2580.24
803.673	2589.93
803.856	2578.5
804.04	2551.38
804.224	2575.21
804.407	2523.28
804.591	2558.93
804.775	2556.22
804.958	2576.18
805.142	2670.92
805.326	2596.52
805.509	2623.45
805.693	2616.86
805.876	2612.79
806.06	2621.71
806.243	2628.29
806.427	2660.07
806.61	2630.04
806.794	2606.21
806.977	2621.71
807.16	2626.94
807.344	2615.31
807.527	2586.83
807.71	2588.77
807.894	2592.26
808.077	2633.53
808.26	2558.93
808.444	2528.13
808.627	2589.35
808.81	2554.28
808.993	2516.89
809.177	2468.65
809.36	2522.12
809.543	2533.36
809.726	2416.53
809.909	2438.42
810.092	2461.87
810.276	2429.7
810.459	2451.21
810.642	2429.32
810.825	2400.06
811.008	2379.52
811.191	2291.56
811.374	2285.94
811.557	2336.51
811.74	2368.09
811.923	2289.82
812.106	2261.14
812.289	2225.69
812.472	2222.01
812.654	2191.59
812.837	2193.91
813.02	2139.66
813.203	2106.15
813.386	2008.3
813.569	2036.01
813.751	1948.44
813.934	1931.19
814.117	1970.13
814.3	1880.82
814.482	1864.54
814.665	1830.06
814.848	1760.89
815.03	1716.91
815.213	1741.13
815.396	1727.95
815.578	1705.28
815.761	1622.16
815.943	1743.64
816.126	1613.25
816.309	1607.05
816.491	1553.77
816.674	1497
816.856	1546.8
817.039	1519.87
817.221	1597.37
817.403	1597.17
817.586	1572.18
817.768	1594.85
817.951	1475.89
818.133	1509.99
818.315	1567.92
818.498	1579.35
818.68	1607.05
818.862	1607.83
819.045	1633.6
819.227	1569.47
819.409	1597.17
819.591	1615.77
819.774	1576.63
819.956	1533.04
820.138	1684.94
820.32	1652.2
820.502	1678.16
820.684	1764.57
820.866	1749.65
821.048	1807.77
821.231	1826.57
821.413	1819.21
821.595	1795.57
821.777	1825.6
821.959	1776.97
822.141	1850.79
822.323	1700.05
822.505	1662.27
822.686	1584.97
822.868	1530.52
823.05	1422.8
823.232	1418.92
823.414	1325.73
823.596	1413.11
823.778	1393.93
823.96	1407.11
824.141	1453.99
824.323	1464.26
824.505	1534.2
824.687	1588.07
824.868	1634.95
825.05	1740.74
825.232	1754.88
825.413	1809.32
825.595	1735.7
825.777	1738.03
825.958	1728.53
826.14	1746.55
826.321	1777.36
826.503	1775.03
826.685	1778.91
826.866	1793.82
827.048	1783.56
827.229	1704.31
827.411	1697.34
827.592	1642.51
827.773	1652
827.955	1609.57
828.136	1623.33
828.318	1591.17
828.499	1596.78
828.68	1535.95
828.862	1591.94
829.043	1566.95
829.224	1586.52
829.406	1555.71
829.587	1577.02
829.768	1568.69
829.949	1567.53
830.131	1575.86
830.312	1646.58
830.493	1572.37
830.674	1586.13
830.855	1569.08
831.036	1566.17
831.218	1642.7
831.399	1654.13
831.58	1603.76
831.761	1572.76
831.942	1599.3
832.123	1569.08
832.304	1541.76
832.485	1579.73
832.666	1599.69
832.847	1592.13
833.028	1586.32
833.209	1591.55
833.389	1583.8
833.57	1524.71
833.751	1554.93
833.932	1612.86
834.113	1579.35
834.294	1557.65
834.475	1581.87
834.655	1625.26
834.836	1641.73
835.017	1609.57
835.198	1602.21
835.378	1643.86
835.559	1639.8
835.74	1635.73
835.92	1601.24
836.101	1584.97
836.281	1646
836.462	1650.84
836.643	1658.4
836.823	1688.62
837.004	1659.95
837.184	1716.52
837.365	1670.6
837.545	1674.28
837.726	1672.15
837.906	1707.61
838.087	1649.48
838.267	1679.71
838.448	1628.56
838.628	1642.7
838.808	1648.71
838.989	1697.73
839.169	1634.95
839.349	1685.71
839.53	1719.62
839.71	1703.15
839.89	1633.6
840.07	1731.05
840.251	1639.21
840.431	1679.71
840.611	1657.04
840.791	1634.76
840.971	1691.53
841.151	1671.18
841.332	1649.68
841.512	1707.61
841.692	1617.51
841.872	1701.6
842.052	1655.68
842.232	1664.01
842.412	1601.43
842.592	1623.33
842.772	1682.81
842.952	1634.18
843.132	1631.27
843.312	1599.69
843.492	1595.82
843.672	1689.78
843.851	1581.09
844.031	1606.28
844.211	1612.28
844.391	1612.67
844.571	1623.13
844.751	1606.28
844.93	1657.43
845.11	1591.17
845.29	1620.23
845.47	1641.15
845.649	1635.34
845.829	1606.47
846.009	1584.77
846.188	1619.26
846.368	1653.94
846.547	1627.2
846.727	1648.13
846.907	1538.08
847.086	1571.02
847.266	1653.94
847.445	1604.53
847.625	1568.5
847.804	1577.8
847.984	1601.82
848.163	1560.36
848.343	1569.85
848.522	1591.17
848.701	1586.52
848.881	1552.03
849.06	1571.4
849.239	1576.25
849.419	1544.47
849.598	1501.07
849.777	1511.34
849.957	1524.9
850.136	1424.93
850.315	1429.19
850.494	1452.44
850.674	1417.57
850.853	1500.3
851.032	1424.35
851.211	1505.72
851.39	1468.33
851.569	1424.93
851.748	1454.77
851.927	1487.12
852.107	1473.17
852.286	1421.83
852.465	1436.94
852.644	1480.73
852.823	1484.8
853.002	1492.94
853.181	1438.88
853.359	1472.2
853.538	1422.61
853.717	1475.3
853.896	1360.22
854.075	1311.01
854.254	1291.05
854.433	1241.06
854.611	1269.74
854.79	1219.95
854.969	1293.96
855.148	1298.61
855.327	1278.46
855.505	1312.17
855.684	1296.28
855.863	1338.52
856.041	1312.94
856.22	1322.05
856.399	1315.66
856.577	1417.96
856.756	1372.62
856.934	1476.08
857.113	1462.71
857.291	1411.76
857.47	1348.21
857.648	1423.96
857.827	1432.87
858.005	1422.41
858.184	1386.96
858.362	1432.68
858.541	1425.71
858.719	1378.04
858.898	1379.21
859.076	1385.02
859.254	1434.42
859.433	1342.59
859.611	1344.53
859.789	1354.21
859.967	1418.15
860.146	1423.38
860.324	1353.05
860.502	1354.99
860.68	1331.16
860.859	1347.62
861.037	1359.83
861.215	1355.37
861.393	1337.94
861.571	1368.16
861.749	1331.93
861.927	1345.49
862.105	1350.92
862.283	1315.66
862.461	1309.07
862.639	1287.95
862.817	1302.29
862.995	1301.9
863.173	1311.39
863.351	1294.73
863.529	1329.22
863.707	1348.79
863.885	1338.33
864.063	1267.61
864.241	1287.95
864.418	1339.49
864.596	1264.7
864.774	1251.53
864.952	1273.42
865.129	1303.26
865.307	1244.55
865.485	1236.22
865.663	1274.58
865.84	1194.76
866.018	1208.32
866.196	1091.1
866.373	1124.43
866.551	1108.73
866.728	1056.42
866.906	1102.15
867.084	1121.52
867.261	1178.1
867.439	1164.53
867.616	1181.58
867.794	1165.31
867.971	1191.46
868.149	1191.08
868.326	1238.74
868.503	1209.48
868.681	1198.83
868.858	1202.9
869.035	1206.38
869.213	1195.34
869.39	1162.02
869.567	1247.65
869.745	1184.3
869.922	1186.81
870.099	1206
870.276	1237
870.454	1215.49
870.631	1185.07
870.808	1207.93
870.985	1215.1
871.162	1219.75
871.339	1174.8
871.517	1122.1
871.694	1127.14
871.871	1201.73
872.048	1137.02
872.225	1144.77
872.402	1190.88
872.579	1108.93
872.756	1189.72
872.933	1108.54
873.11	1141.48
873.287	1183.91
873.463	1116.1
873.64	1116.48
873.817	1169.38
873.994	1148.26
874.171	1107.77
874.348	1144.19
874.524	1072.5
874.701	1083.35
874.878	1059.33
875.055	1120.36
875.231	1089.36
875.408	1116.29
875.585	1065.14
875.762	1101.76
875.938	1106.41
876.115	1080.84
876.291	1078.32
876.468	1080.84
876.645	1025.23
876.821	1072.7
876.998	1101.57
877.174	1094.98
877.351	1085.48
877.527	1057.2
877.704	1060.69
877.88	1058.55
878.057	1037.44
878.233	1115.9
878.409	1022.71
878.586	1076.38
878.762	1051.97
878.938	1039.76
879.115	1005.66
879.291	1031.82
879.467	1001.4
879.644	1020.19
879.82	1026.97
879.996	983.19
880.172	964.97
880.349	1008.57
880.525	1039.37
880.701	954.9
880.877	963.42
881.053	980.28
881.229	981.06
881.405	1032.4
881.581	992.49
881.757	968.46
881.933	988.81
882.109	982.41
882.285	982.41
882.461	957.22
882.637	995.01
882.813	960.52
882.989	985.51
883.165	1022.52
883.341	970.21
883.517	1004.89
883.693	1014.96
883.869	1009.73
884.044	979.7
884.22	1014.96
884.396	1038.4
884.572	1005.08
884.747	1019.22
884.923	1011.86
885.099	1003.34
885.275	1019.03
885.45	975.05
885.626	988.22
885.801	958.39
885.977	987.64
886.153	929.91
886.328	995.59
886.504	968.46
886.679	976.99
886.855	933.39
887.03	978.73
887.206	999.65
887.381	987.64
887.557	976.21
887.732	1031.04
887.908	1018.64
888.083	1017.09
888.258	980.28
888.434	984.74
888.609	973.69
888.784	1010.7
888.96	957.22
889.135	952.19
889.31	981.06
889.485	976.02
889.661	973.89
889.836	1001.01
890.011	995.2
890.186	971.37
890.361	960.32
890.537	973.5
890.712	962.26
890.887	1001.79
891.062	1014.57
891.237	1049.25
891.412	949.47
891.587	1002.75
891.762	1003.92
891.937	1026.59
892.112	931.84
892.287	963.81
892.462	931.07
892.637	897.55
892.812	885.73
892.987	887.09
893.161	877.79
893.336	890.96
893.511	882.24
893.686	910.34
893.861	896
894.035	886.31
894.21	902.39
894.385	821.8
894.56	868.88
894.734	771.03
894.909	808.23
895.084	823.54
895.258	760.18
895.433	819.28
895.608	779.17
895.782	726.86
895.957	748.56
896.131	766.58
896.306	688.3
896.48	674.74
896.655	692.18
896.829	620.88
897.004	616.81
897.178	640.25
897.353	601.12
897.527	670.67
897.701	656.72
897.876	589.1
898.05	669.32
898.224	661.57
898.399	656.33
898.573	624.56
898.747	512.19
898.921	558.3
899.096	505.6
899.27	499.59
899.444	534.86
899.618	555.59
899.792	584.07
899.967	586
900.141	587.55
900.315	528.27
900.489	541.64
900.663	567.6
900.837	527.88
901.011	505.99
901.185	599.37
901.359	533.5
901.533	572.05
901.707	580.39
901.881	559.66
902.055	506.96
902.229	549.97
902.403	618.55
902.576	547.26
902.75	556.36
902.924	681.52
903.098	615.84
903.272	673.97
903.446	676.48
903.619	654.78
903.793	732.67
903.967	678.62
904.14	752.82
904.314	735.58
904.488	721.63
904.661	740.03
904.835	702.06
905.009	745.46
905.182	759.99
905.356	723.95
905.529	745.46
905.703	701.48
905.876	698.96
906.05	649.17
906.223	633.47
906.397	621.46
906.57	558.49
906.744	573.6
906.917	533.89
907.09	543.38
907.264	548.61
907.437	515.09
907.61	497.66
907.784	539.89
907.957	533.11
908.13	481.38
908.304	552.87
908.477	475.37
908.65	501.92
908.823	451.93
908.996	540.28
909.17	499.21
909.343	485.45
909.516	509.09
909.689	475.18
909.862	465.49
910.035	491.84
910.208	462.98
910.381	447.09
910.554	563.53
910.727	487.77
910.9	482.74
911.073	460.07
911.246	530.98
911.419	520.32
911.592	533.31
911.765	470.92
911.938	481.19
912.11	481.38
912.283	488.94
912.456	554.81
912.629	496.11
912.802	456.97
912.974	416.09
913.147	369.01
913.32	351.57
913.493	377.34
913.665	394.19
913.838	417.83
914.01	406.21
914.183	418.61
914.356	462.2
914.528	465.69
914.701	488.94
914.873	459.49
915.046	438.37
915.218	387.8
915.391	354.09
915.563	369.98
915.736	411.83
915.908	431.2
916.081	431.01
916.253	419.58
916.425	416.09
916.598	445.73
916.77	407.56
916.942	383.93
917.115	330.45
917.287	406.4
917.459	359.51
917.632	342.46
917.804	324.45
917.976	372.3
918.148	363.97
918.32	399.23
918.493	424.81
918.665	459.88
918.837	435.27
919.009	484.67
919.181	454.06
919.353	442.63
919.525	471.89
919.697	439.73
919.869	425.97
920.041	497.46
920.213	531.56
920.385	473.44
920.557	476.54
920.729	460.26
920.901	480.61
921.073	452.51
921.244	444.38
921.416	497.07
921.588	464.33
921.76	428.1
921.932	527.88
922.103	441.28
922.275	456.19
922.447	465.88
922.619	394
922.79	456.97
922.962	418.41
923.134	452.9
923.305	383.54
923.477	371.91
923.648	381.99
923.82	398.26
923.991	354.09
924.163	348.08
924.335	402.53
924.506	381.6
924.677	403.49
924.849	353.31
925.02	376.56
925.192	401.94
925.363	381.8
925.535	347.5
925.706	381.8
925.877	392.64
926.049	363.58
926.22	389.35
926.391	425
926.562	387.8
926.734	358.93
926.905	402.91
927.076	322.51
927.247	350.6
927.419	293.64
927.59	300.23
927.761	316.89
927.932	284.15
928.103	302.16
928.274	261.09
928.445	247.92
928.616	274.65
928.787	263.8
928.958	279.69
929.129	286.86
929.3	252.57
929.471	227.77
929.642	154.14
929.813	141.55
929.984	221.37
930.155	141.16
930.326	178.36
930.496	171.77
930.667	138.25
930.838	200.84
931.009	141.94
931.18	145.62
931.35	148.52
931.521	147.55
931.692	101.64
931.863	66.57
932.033	104.16
932.204	109.77
932.374	101.06
932.545	59.21
932.716	146.78
932.886	99.7
933.057	35.96
933.227	63.86
933.398	121.79
933.568	51.26
933.739	14.45
933.909	69.09
934.08	95.63
934.25	9.22
934.421	40.41
934.591	62.31
934.761	42.16
934.932	0.31
935.102	33.24
935.272	50.87
935.443	53.2
935.613	19.1
935.783	40.99
935.953	10.38
936.123	180.49
936.294	34.41
936.464	36.15
936.634	17.55
936.804	17.36
936.974	-9.38
937.144	46.42
937.314	28.79
937.484	22.2
937.655	0.31
937.825	70.64
937.995	14.45
938.165	78.58
938.334	34.41
938.504	61.14
938.674	49.71
938.844	53.39
939.014	89.24
939.184	105.9
939.354	144.26
939.524	118.69
939.694	81.87
939.863	71.41
940.033	137.87
940.203	136.9
940.373	105.9
940.542	130.89
940.712	74.51
940.882	100.86
941.051	92.34
941.221	98.92
941.391	127.79
941.56	66.18
941.73	44.48
941.899	182.04
942.069	74.51
942.238	102.8
942.408	59.4
942.577	109.58
942.747	52.04
942.916	6.51
943.086	51.26
943.255	139.03
943.425	99.89
943.594	54.56
943.763	21.04
943.933	47.97
944.102	10.38
944.271	32.86
944.441	71.99
944.61	41.77
944.779	74.9
944.948	161.12
945.117	41.57
945.287	88.07
945.456	26.46
945.625	46.42
945.794	40.8
945.963	42.35
946.132	72.96
946.301	27.63
946.47	61.14
946.639	2.44
946.808	56.69
946.977	88.07
947.146	104.54
947.315	48.55
947.484	97.76
947.653	45.64
947.822	51.84
947.991	45.45
948.16	122.76
948.329	77.03
948.498	70.64
948.666	80.91
948.835	66.76
949.004	44.48
949.173	10.58
949.341	62.5
949.51	78.58
949.679	99.89
949.847	96.21
950.016	139.42
950.185	142.32
950.353	59.98
950.522	52.62
950.69	91.95
950.859	62.89
951.028	76.26
951.196	64.24
951.365	40.99
951.533	64.05
951.701	90.59
951.87	80.52
952.038	24.33
952.207	66.18
952.375	138.25
952.543	59.01
952.712	55.91
952.88	43.9
953.048	92.92
953.217	81.29
953.385	62.89
953.553	85.56
953.721	45.64
953.89	53.2
954.058	38.86
954.226	27.82
954.394	71.22
954.562	22.98
954.73	87.49
954.898	29.56
955.067	87.3
955.235	53.2
955.403	101.06
955.571	93.69
955.739	93.11
955.907	35.96
956.075	34.41
956.243	41.96
956.41	79.94
956.578	22.2
956.746	32.66
956.914	40.02
957.082	90.21
957.25	106.09
957.418	67.34
957.585	55.72
957.753	96.6
957.921	34.02
958.089	69.86
958.256	77.81
958.424	76.64
958.592	88.85
958.759	68.89
958.927	88.85
959.095	51.65
959.262	55.91
959.43	77.42
959.597	47.19
959.765	85.56
959.932	44.09
960.1	100.09
960.267	64.82
960.435	60.37
960.602	97.96
960.77	42.35
960.937	25.69
961.104	87.3
961.272	35.18
961.439	35.38
961.606	92.92
961.774	79.94
961.941	69.47
962.108	58.43
962.275	104.54
962.443	101.44
962.61	83.04
962.777	122.76
962.944	92.72
963.111	91.17
963.278	107.06
963.446	84.2
963.613	67.34
963.78	79.16
963.947	96.6
964.114	77.03
964.281	146.59
964.448	113.07
964.615	82.65
964.782	102.8
964.949	116.36
965.116	125.08
965.282	128.37
965.449	62.5
965.616	63.08
965.783	85.56
965.95	93.89
966.117	40.02
966.283	69.47
966.45	104.16
966.617	96.6
966.784	137.09
966.95	110.16
967.117	127.79
967.284	85.75
967.45	65.41
967.617	149.88
967.784	117.72
967.95	146.39
968.117	108.61
968.283	121.01
968.45	189.4
968.616	59.01
968.783	128.37
968.949	111.52
969.116	140.97
969.282	102.99
969.449	126.05
969.615	111.52
969.781	57.07
969.948	95.05
970.114	54.36
970.28	185.92
970.447	102.02
970.613	125.27
970.779	107.45
970.945	145.81
971.112	110.16
971.278	111.52
971.444	86.14
971.61	123.92
971.776	112.1
971.942	124.11
972.108	140.58
972.275	84.39
972.441	114.62
972.607	167.7
972.773	86.52
972.939	96.21
973.105	100.47
973.271	70.83
973.437	93.5
973.602	59.98
973.768	118.69
973.934	79.16
974.1	109.97
974.266	49.13
974.432	108.22
974.598	77.81
974.763	109.58
974.929	74.12
975.095	124.69
975.261	60.17
975.426	50.87
975.592	75.87
975.758	170.42
975.923	44.29
976.089	73.35
976.255	109.97
976.42	131.47
976.586	123.34
976.751	110.94
976.917	173.32
977.082	111.52
977.248	45.84
977.413	40.8
977.579	78.97
977.744	88.27
977.91	65.99
978.075	86.72
978.24	82.84
978.406	97.57
978.571	93.31
978.736	78.97
978.902	106.67
979.067	46.42
979.232	38.67
979.397	98.92
979.563	134.77
979.728	62.89
979.893	90.98
980.058	71.99
980.223	128.95
980.388	93.5
980.554	63.47
980.719	74.12
980.884	87.49
981.049	102.61
981.214	62.69
981.379	122.95
981.544	54.17
981.709	93.31
981.874	98.34
982.039	84.59
982.204	116.56
982.368	77.42
982.533	65.99
982.698	105.32
982.863	124.3
983.028	79.36
983.193	101.83
983.357	102.02
983.522	93.11
983.687	90.21
983.852	89.24
984.016	94.27
984.181	107.26
984.346	93.11
984.51	130.31
984.675	109.19
984.839	84.97
985.004	105.9
985.168	121.59
985.333	103.77
985.498	101.64
985.662	133.02
985.827	85.94
985.991	88.27
986.155	86.72
986.32	84.01
986.484	136.7
986.649	115.2
986.813	40.22
986.977	84.97
987.142	115.97
987.306	56.49
987.47	85.56
987.634	89.82
987.799	111.13
987.963	87.11
988.127	115.01
988.291	142.13
988.455	78.97
988.62	66.57
988.784	109.19
988.948	113.65
989.112	66.96
989.276	92.34
989.44	97.57
989.604	70.64
989.768	77.61
989.932	142.9
990.096	66.57
990.26	59.4
990.424	42.54
990.588	87.3
990.752	146.78
990.915	118.11
991.079	94.27
991.243	62.5
991.407	113.07
991.571	87.88
991.734	125.85
991.898	92.53
992.062	163.05
992.226	81.68
992.389	39.44
992.553	57.07
992.717	63.86
992.88	67.92
993.044	72.96
993.207	57.46
993.371	79.36
993.535	94.08
993.698	94.66
993.862	123.53
994.025	106.87
994.189	114.81
994.352	90.4
994.515	86.72
994.679	99.12
994.842	76.84
995.006	104.16
995.169	62.11
995.332	60.56
995.496	103.77
995.659	44.48
995.822	54.56
995.985	44.87
996.149	112.87
996.312	80.52
996.475	117.52
996.638	48.36
996.801	119.46
996.964	145.81
997.128	66.37
997.291	73.93
997.454	85.17
997.617	15.81
997.78	94.86
997.943	45.45
998.106	109.19
998.269	54.75
998.432	77.03
998.595	71.99
998.758	-4.92
998.92	18.91
999.083	21.62
999.246	66.76
999.409	36.54
999.572	-3.96
999.735	28.01
999.897	73.93
1000.06	36.92
1000.223	59.01
1000.386	101.25
1000.548	89.82
1000.711	76.45
1000.874	98.15
1001.036	10.58
1001.199	96.6
1001.361	49.52
1001.524	35.38
1001.687	87.11
1001.849	45.06
1002.012	90.01
1002.174	86.72
1002.337	71.61
1002.499	41.38
1002.661	92.53
1002.824	20.84
1002.986	41.96
1003.149	66.96
1003.311	33.63
1003.473	103.19
1003.636	43.9
1003.798	61.53
1003.96	77.22
1004.123	36.15
1004.285	61.53
1004.447	42.93
1004.609	22.2
1004.771	134.38
1004.933	11.35
1005.096	13.48
1005.258	12.13
1005.42	36.15
1005.582	89.43
1005.744	47.58
1005.906	6.31
1006.068	51.26
1006.23	24.33
1006.392	4.96
1006.554	18.33
1006.716	62.69
1006.878	52.62
1007.04	23.17
1007.202	28.79
1007.363	73.54
1007.525	51.07
1007.687	73.93
1007.849	69.28
1008.011	13.68
1008.172	21.23
1008.334	42.93
1008.496	48.55
1008.658	1.66
1008.819	18.33
1008.981	6.12
1009.143	18.91
1009.304	18.33
1009.466	70.06
1009.627	98.54
1009.789	135.93
1009.95	41.19
1010.112	12.32
1010.273	59.21
1010.435	33.24
1010.596	24.14
1010.758	57.46
1010.919	15.03
1011.081	6.12
1011.242	35.76
1011.403	64.24
1011.565	59.01
1011.726	67.34
1011.887	20.07
1012.049	65.79
1012.21	58.24
1012.371	84.59
1012.532	-28.95
1012.693	42.74
1012.855	32.47
1013.016	57.66
1013.177	69.09
1013.338	37.31
1013.499	109
1013.66	82.65
1013.821	78.97
1013.982	61.72
1014.143	36.15
1014.304	14.84
1014.465	34.02
1014.626	94.66
1014.787	29.76
1014.948	99.89
1015.109	-0.27
1015.27	57.85
1015.431	21.62
1015.592	19.88
1015.752	57.85
1015.913	43.9
1016.074	52.81
1016.235	25.49
1016.395	36.92
1016.556	37.31
1016.717	16.97
1016.877	67.54
1017.038	18.33
1017.199	63.47
1017.359	30.34
1017.52	33.24
1017.681	35.18
1017.841	60.95
1018.002	28.4
1018.162	24.72
1018.323	81.87
1018.483	20.07
1018.644	20.84
1018.804	15.61
1018.964	-3.96
1019.125	23.94
1019.285	20.07
1019.446	16
1019.606	12.32
1019.766	-30.11
1019.926	65.02
1020.087	47.97
1020.247	-13.64
1020.407	54.17
1020.567	15.81
1020.728	14.64
1020.888	-13.26
1021.048	6.31
1021.208	0.69
1021.368	18.13
1021.528	65.21
1021.688	70.44
1021.848	50.68
1022.008	38.86
1022.168	23.17
1022.328	58.04
1022.488	49.91
1022.648	0.31
1022.808	15.61
1022.968	47
1023.128	1.47
1023.288	16
1023.448	12.9
1023.608	56.11
1023.767	55.52
1023.927	-8.99
1024.087	-14.03
1024.247	4.57
1024.406	22.01
1024.566	-19.26
1024.726	1.86
1024.885	8.44
1025.045	42.54
1025.205	16.97
1025.364	8.83
1025.524	34.79
1025.683	11.16
1025.843	30.92
1026.003	41.96
1026.162	83.23
1026.321	33.44
1026.481	58.24
1026.64	9.99
1026.8	21.23
1026.959	12.71
1027.119	17.36
1027.278	13.87
1027.437	-1.05
1027.597	18.13
1027.756	29.95
1027.915	50.68
1028.074	64.82
1028.234	-14.03
1028.393	21.62
1028.552	-6.86
1028.711	-42.32
1028.87	49.91
1029.03	1.47
1029.189	20.46
1029.348	-3.18
1029.507	-12.29
1029.666	8.06
1029.825	-19.65
1029.984	-14.81
1030.143	38.28
1030.302	10.96
1030.461	-41.35
1030.62	25.88
1030.779	36.34
1030.938	-8.41
1031.097	33.63
1031.255	34.99
1031.414	60.95
1031.573	69.09
1031.732	-42.9
1031.891	-2.79
1032.049	54.17
1032.208	35.18
1032.367	-10.93
1032.525	-0.27
1032.684	-5.89
1032.843	45.64
1033.001	-15.77
1033.16	155.3
1033.319	51.26
1033.477	42.35
1033.636	-8.99
1033.794	-24.49
1033.953	75.67
1034.111	51.46
1034.27	8.64
1034.428	19.68
1034.587	-21.39
1034.745	19.49
1034.903	36.34
1035.062	29.18
1035.22	-24.88
1035.378	30.73
1035.537	5.15
1035.695	27.24
1035.853	23.94
1036.011	39.25
1036.17	22.01
1036.328	-31.86
1036.486	14.26
1036.644	6.89
1036.802	-62.66
1036.96	-6.67
1037.119	-16.36
1037.277	0.5
1037.435	-26.04
1037.593	-24.11
1037.751	-1.44
1037.909	48.16
1038.067	48.16
