Data from gum_young_FLMT105791__75__17-39-33-043.txt Node

Date: Mon Mar 20 17:39:33 GMT 2023
User: antho
Spectrometer: FLMT10579
Trigger mode: 0
Integration Time (sec): 1.000000E-1
Scans to average: 10
Electric dark correction enabled: true
Nonlinearity correction enabled: false
Boxcar width: 0
XAxis mode: Wavelengths
Number of Pixels in Spectrum: 3648
>>>>>Begin Spectral Data<<<<<
345.248	-143.13
345.464	-143.13
345.681	-143.13
345.898	-172.77
346.114	-157.27
346.331	-26.88
346.548	32.21
346.764	-30.95
346.981	-25.14
347.197	-25.72
347.414	30.66
347.631	-6.73
347.847	47.52
348.064	10.51
348.28	31.24
348.497	-37.54
348.713	0.82
348.93	14.58
349.146	31.05
349.363	-3.44
349.579	7.41
349.796	22.52
350.012	-16.42
350.229	34.92
350.445	19.62
350.661	-23.78
350.878	5.67
351.094	25.04
351.311	16.9
351.527	23.49
351.743	-6.93
351.96	8.96
352.176	47.9
352.392	15.94
352.609	61.08
352.825	0.24
353.041	5.67
353.257	14.77
353.474	11.48
353.69	28.92
353.906	32.02
354.122	-16.42
354.339	26.4
354.555	-0.92
354.771	-6.93
354.987	74.64
355.203	35.7
355.42	-2.47
355.636	-11.19
355.852	-11
356.068	16.13
356.284	-9.45
356.5	56.24
356.716	3.54
356.932	22.72
357.148	23.49
357.364	-8.48
357.58	64.18
357.796	82.2
358.012	39.19
358.228	33.57
358.444	-34.24
358.66	60.11
358.876	13.03
359.092	0.82
359.308	23.1
359.524	11.67
359.74	11.67
359.956	-17.78
360.172	14
360.388	54.69
360.604	5.86
360.819	90.92
361.035	22.14
361.251	41.51
361.467	-0.34
361.683	45.19
361.898	40.74
362.114	47.13
362.33	21.55
362.546	31.44
362.762	9.15
362.977	33.57
363.193	-16.23
363.409	40.15
363.624	-18.36
363.84	-36.76
364.056	-28.63
364.271	56.24
364.487	28.92
364.703	4.31
364.918	-24.56
365.134	-0.53
365.35	4.12
365.565	104.67
365.781	26.98
365.996	25.04
366.212	68.63
366.427	41.51
366.643	-0.92
366.858	17.1
367.074	-16.42
367.289	53.72
367.505	86.65
367.72	-7.51
367.936	7.6
368.151	54.1
368.367	37.44
368.582	25.43
368.798	-10.8
369.013	47.32
369.228	14
369.444	4.5
369.659	53.52
369.874	46.74
370.09	59.34
370.305	-25.53
370.52	6.05
370.736	60.3
370.951	10.7
371.166	65.92
371.381	75.8
371.597	25.43
371.812	-7.31
372.027	-26.11
372.242	21.36
372.458	83.94
372.673	13.8
372.888	30.85
373.103	20.39
373.318	102.15
373.533	57.79
373.749	7.41
373.964	-12.35
374.179	62.44
374.394	2.57
374.609	60.11
374.824	-1.11
375.039	69.22
375.254	5.28
375.469	49.65
375.684	31.05
375.899	56.24
376.114	8.77
376.329	43.64
376.544	77.35
376.759	54.49
376.974	-3.83
377.189	15.55
377.404	18.45
377.619	54.69
377.834	-37.73
378.049	4.12
378.264	1.99
378.478	24.46
378.693	-13.9
378.908	37.83
379.123	-5.38
379.338	70.38
379.553	20
379.767	54.1
379.982	55.07
380.197	47.9
380.412	32.99
380.626	50.04
380.841	74.06
381.056	36.86
381.271	86.07
381.485	14.19
381.7	-1.11
381.915	31.44
382.129	26.2
382.344	43.25
382.559	22.91
382.773	67.67
382.988	-17.2
383.202	17.49
383.417	18.26
383.632	79.87
383.846	43.25
384.061	30.27
384.275	18.84
384.49	24.07
384.704	38.8
384.919	38.6
385.133	50.04
385.348	46.74
385.562	13.61
385.777	48.68
385.991	44.42
386.206	13.61
386.42	18.07
386.634	54.49
386.849	67.67
387.063	50.81
387.277	13.8
387.492	5.28
387.706	10.7
387.92	19.62
388.135	73.28
388.349	47.32
388.563	60.5
388.778	35.89
388.992	47.32
389.206	70.18
389.42	116.88
389.635	47.9
389.849	77.74
390.063	80.26
390.277	38.41
390.491	86.46
390.706	53.33
390.92	68.44
391.134	56.82
391.348	66.5
391.562	6.64
391.776	28.34
391.99	14.97
392.205	68.44
392.419	9.35
392.633	29.69
392.847	66.7
393.061	15.94
393.275	74.06
393.489	26.79
393.703	44.42
393.917	68.05
394.131	30.85
394.345	47.71
394.559	90.72
394.773	31.05
394.986	45.39
395.2	55.85
395.414	43.45
395.628	5.09
395.842	62.05
396.056	44.8
396.27	16.32
396.484	60.5
396.697	42.09
396.911	74.45
397.125	67.67
397.339	73.48
397.553	47.71
397.766	90.53
397.98	81.81
398.194	45.58
398.408	33.37
398.621	58.95
398.835	91.5
399.049	73.28
399.262	117.46
399.476	96.15
399.69	87.43
399.903	126.18
400.117	73.87
400.331	76.58
400.544	38.22
400.758	180.23
400.971	57.59
401.185	97.5
401.398	45.97
401.612	101.77
401.826	104.28
402.039	103.7
402.253	43.64
402.466	88.2
402.68	66.31
402.893	85.3
403.106	77.55
403.32	52.17
403.533	88.78
403.747	61.47
403.96	83.17
404.174	97.12
404.387	58.56
404.6	96.53
404.814	115.13
405.027	80.07
405.24	77.74
405.454	78.71
405.667	117.27
405.88	46.74
406.094	81.42
406.307	118.04
406.52	60.11
406.733	57.2
406.947	38.99
407.16	129.86
407.373	133.35
407.586	76.38
407.799	47.32
408.012	76
408.226	91.3
408.439	127.53
408.652	53.33
408.865	92.66
409.078	131.8
409.291	117.07
409.504	66.7
409.717	96.53
409.93	106.61
410.143	97.5
410.357	25.04
410.57	61.08
410.783	63.02
410.996	96.73
411.209	79.48
411.421	130.63
411.634	87.82
411.847	71.54
412.06	105.45
412.273	83.75
412.486	113.78
412.699	186.63
412.912	108.16
413.125	124.24
413.338	100.02
413.55	138
413.763	107.97
413.976	116.68
414.189	72.7
414.402	103.7
414.615	157.18
414.827	69.02
415.04	134.12
415.253	110.1
415.466	138.58
415.678	172.68
415.891	122.11
416.104	104.67
416.316	93.63
416.529	81.03
416.742	137.42
416.954	159.31
417.167	82.78
417.38	119.4
417.592	162.99
417.805	88.59
418.017	81.42
418.23	118.04
418.442	110.68
418.655	119.98
418.868	99.25
419.08	137.8
419.293	159.7
419.505	138
419.718	147.3
419.93	160.86
420.142	117.85
420.355	139.55
420.567	168.8
420.78	136.06
420.992	114.94
421.205	188.95
421.417	98.86
421.629	121.33
421.842	94.6
422.054	107.77
422.266	153.88
422.479	170.35
422.691	94.79
422.903	163.38
423.115	113
423.328	102.35
423.54	145.75
423.752	126.57
423.964	118.23
424.177	147.1
424.389	109.32
424.601	216.85
424.813	141.29
425.025	161.44
425.238	169
425.45	142.45
425.662	129.08
425.874	383.09
426.086	131.99
426.298	152.33
426.51	155.43
426.722	123.85
426.934	117.65
427.146	151.17
427.358	117.46
427.57	166.67
427.782	127.73
427.994	113.97
428.206	119.4
428.418	102.93
428.63	171.51
428.842	147.68
429.054	163.18
429.266	151.95
429.478	108.74
429.69	129.86
429.902	101.18
430.114	168.41
430.325	144.58
430.537	105.83
430.749	106.42
430.961	88.2
431.173	101.96
431.384	123.08
431.596	57.01
431.808	119.2
432.02	137.61
432.231	177.52
432.443	200.38
432.655	140.9
432.867	131.22
433.078	176.55
433.29	200.38
433.502	146.33
433.713	195.73
433.925	159.7
434.136	193.41
434.348	114.55
434.56	128.89
434.771	246.69
434.983	124.63
435.194	144.78
435.406	163.38
435.617	176.75
435.829	209.88
436.04	193.21
436.252	206.97
436.463	230.22
436.675	196.51
436.886	189.34
437.098	184.11
437.309	232.55
437.521	192.25
437.732	211.62
437.943	184.11
438.155	204.84
438.366	123.66
438.578	246.3
438.789	193.02
439	187.21
439.211	165.9
439.423	189.92
439.634	202.13
439.845	219.56
440.057	199.03
440.268	246.11
440.479	171.13
440.69	190.89
440.902	171.13
441.113	182.17
441.324	196.51
441.535	227.51
441.746	242.04
441.957	168.03
442.168	143.03
442.38	226.15
442.591	226.54
442.802	189.53
443.013	201.35
443.224	187.6
443.435	194.96
443.646	203.68
443.857	191.47
444.068	203.29
444.279	169.77
444.49	260.83
444.701	221.31
444.912	318.18
445.123	238.55
445.334	253.28
445.545	256.18
445.756	220.53
445.967	188.76
446.178	223.63
446.388	261.61
446.599	235.65
446.81	263.74
447.021	216.08
447.232	261.03
447.443	293.58
447.653	204.06
447.864	271.68
448.075	237
448.286	274.2
448.496	236.61
448.707	266.64
448.918	246.49
449.129	359.06
449.339	210.85
449.55	259.09
449.761	240.29
449.971	302.68
450.182	247.85
450.393	277.88
450.603	248.04
450.814	314.11
451.024	280.4
451.235	308.69
451.446	315.47
451.656	325.54
451.867	229.06
452.077	254.44
452.288	302.88
452.498	343.76
452.709	278.08
452.919	297.06
453.13	238.75
453.34	305.01
453.55	213.17
453.761	287.76
453.971	281.56
454.182	277.49
454.392	309.66
454.602	336.97
454.813	312.56
455.023	309.08
455.233	239.71
455.444	290.09
455.654	250.37
455.864	292.61
456.075	266.64
456.285	258.89
456.495	275.94
456.705	324.38
456.916	315.47
457.126	326.51
457.336	289.31
457.546	228.09
457.756	240.1
457.967	316.24
458.177	268.58
458.387	284.86
458.597	259.28
458.807	313.34
459.017	272.84
459.227	292.41
459.437	272.46
459.647	326.71
459.857	331.16
460.068	281.56
460.278	317.79
460.488	309.27
460.698	349.18
460.908	283.11
461.117	257.54
461.327	274.98
461.537	328.84
461.747	326.32
461.957	325.16
462.167	394.91
462.377	360.61
462.587	318.57
462.797	352.28
463.007	350.73
463.216	340.07
463.426	370.49
463.636	337.75
463.846	286.79
464.056	288.34
464.265	357.51
464.475	298.23
464.685	318.96
464.895	363.32
465.104	311.21
465.314	380.18
465.524	309.27
465.733	317.41
465.943	400.72
466.153	405.56
466.362	344.14
466.572	352.67
466.782	306.94
466.991	356.93
467.201	401.3
467.41	326.13
467.62	359.26
467.829	337.17
468.039	367.2
468.249	331.74
468.458	337.56
468.668	386.57
468.877	354.41
469.086	377.08
469.296	395.87
469.505	350.15
469.715	416.6
469.924	367.97
470.134	428.23
470.343	408.66
470.552	355.96
470.762	385.61
470.971	332.32
471.18	345.89
471.39	314.31
471.599	347.05
471.808	405.37
472.018	349.18
472.227	420.67
472.436	432.49
472.645	385.8
472.855	363.32
473.064	429.59
473.273	385.8
473.482	411.57
473.691	451.29
473.901	427.26
474.11	405.56
474.319	490.04
474.528	403.62
474.737	477.05
474.946	459.62
475.155	449.74
475.364	477.25
475.573	433.85
475.783	448.57
475.992	473.37
476.201	474.54
476.41	427.45
476.619	421.84
476.828	447.8
477.037	423.39
477.245	452.25
477.454	514.45
477.663	455.35
477.872	459.81
478.081	521.23
478.29	454.39
478.499	539.25
478.708	485.58
478.917	529.56
479.125	473.76
479.334	503.4
479.543	484.42
479.752	530.72
479.961	505.73
480.169	534.02
480.378	495.46
480.587	617.13
480.796	529.95
481.004	528.98
481.213	561.33
481.422	548.16
481.63	549.9
481.839	578.58
482.048	619.85
482.256	547.97
482.465	573.15
482.674	568.89
482.882	588.27
483.091	615.58
483.299	585.75
483.508	578.38
483.716	587.3
483.925	617.52
484.134	577.8
484.342	547
484.551	623.33
484.759	612.48
484.967	606.28
485.176	648.33
485.384	654.53
485.593	633.21
485.801	581.48
486.01	572.18
486.218	586.91
486.426	546.8
486.635	540.02
486.843	534.6
487.051	562.11
487.26	546.03
487.468	611.71
487.676	593.3
487.885	576.25
488.093	618.1
488.301	637.28
488.509	635.35
488.717	649.88
488.926	641.55
489.134	623.72
489.342	644.45
489.55	624.5
489.758	637.09
489.967	631.66
490.175	751.4
490.383	651.04
490.591	740.55
490.799	633.99
491.007	719.63
491.215	705.87
491.423	684.94
491.631	695.99
491.839	674.68
492.047	720.59
492.255	659.56
492.463	622.95
492.671	668.09
492.879	722.34
493.087	697.54
493.295	712.84
493.503	729.51
493.711	731.06
493.919	739.19
494.127	761.67
494.334	773.49
494.542	709.74
494.75	702.96
494.958	717.11
495.166	806.62
495.374	745.01
495.581	752.76
495.789	730.09
495.997	797.9
496.205	745.39
496.412	749.85
496.62	730.28
496.828	794.99
497.035	772.71
497.243	813.79
497.451	760.12
497.658	805.65
497.866	790.54
498.074	876.17
498.281	798.29
498.489	862.8
498.696	774.07
498.904	779.3
499.112	803.91
499.319	850.99
499.527	802.55
499.734	819.41
499.942	774.26
500.149	796.54
500.357	813.79
500.564	775.42
500.771	821.73
500.979	753.92
501.186	783.56
501.394	874.82
501.601	812.82
501.808	850.99
502.016	844.59
502.223	785.69
502.43	841.49
502.638	844.01
502.845	832.97
503.052	894.39
503.26	826.57
503.467	928.29
503.674	884.5
503.881	890.9
504.089	951.15
504.296	911.63
504.503	856.22
504.71	888.19
504.917	880.44
505.125	884.12
505.332	908.14
505.539	937.01
505.746	1026.71
505.953	982.54
506.16	978.67
506.367	1006.95
506.574	1017.03
506.781	1035.24
506.988	961.03
507.195	989.32
507.402	992.23
507.609	1059.85
507.816	982.15
508.023	1037.18
508.23	990.87
508.437	989.13
508.644	1051.51
508.851	1080.19
509.058	1075.35
509.265	1066.43
509.472	1093.17
509.679	1165.44
509.885	1095.88
510.092	1083.29
510.299	1080.58
510.506	1092.2
510.713	1108.67
510.92	1120.88
511.126	1114.68
511.333	1156.14
511.54	1157.49
511.746	1188.88
511.953	1196.83
512.16	1244.1
512.367	1189.66
512.573	1174.74
512.78	1184.04
512.987	1177.84
513.193	1184.04
513.4	1149.36
513.606	1185.01
513.813	1247.78
514.02	1191.98
514.226	1248.56
514.433	1280.91
514.639	1212.91
514.846	1243.71
515.052	1221.43
515.259	1260.18
515.465	1292.15
515.672	1277.04
515.878	1377.98
516.085	1291.95
516.291	1355.89
516.497	1334.39
516.704	1296.22
516.91	1261.54
517.117	1224.34
517.323	1153.04
517.529	1231.12
517.736	1215.04
517.942	1280.33
518.148	1269.09
518.354	1344.27
518.561	1321.99
518.767	1306.87
518.973	1403.17
519.179	1366.94
519.386	1376.43
519.592	1404.72
519.798	1409.95
520.004	1506.43
520.21	1469.04
520.417	1540.92
520.623	1559.33
520.829	1551.58
521.035	1574.83
521.241	1555.26
521.447	1608.15
521.653	1678.48
521.859	1609.7
522.065	1632.95
522.271	1737.38
522.477	1704.25
522.683	1736.22
522.889	1689.91
523.095	1677.9
523.301	1707.35
523.507	1668.41
523.713	1707.93
523.919	1668.99
524.125	1796.28
524.331	1778.45
524.537	1848.4
524.742	1818.37
524.948	1872.23
525.154	1836.38
525.36	1930.35
525.566	1836.77
525.772	1898.38
525.977	1823.79
526.183	1901.48
526.389	1941.01
526.595	1803.25
526.8	1828.44
527.006	1754.04
527.212	1750.75
527.417	1729.82
527.623	1738.54
527.829	1815.46
528.034	1868.16
528.24	1893.73
528.446	1877.27
528.651	1953.99
528.857	1975.69
529.062	2033.81
529.268	2028
529.473	2053.19
529.679	2073.73
529.884	2118.29
530.09	2075.08
530.295	2083.02
530.501	2082.25
530.706	2088.84
530.912	2072.56
531.117	2116.35
531.323	2110.34
531.528	2142.51
531.733	2166.53
531.939	2123.13
532.144	2148.9
532.35	2152
532.555	2189.97
532.76	2139.02
532.966	2151.81
533.171	2110.34
533.376	2063.46
533.581	2081.86
533.787	2109.76
533.992	2207.41
534.197	2136.89
534.402	2190.36
534.607	2178.54
534.813	2303.51
535.018	2217.49
535.223	2216.9
535.428	2214.39
535.633	2298.47
535.838	2301.38
536.043	2323.08
536.249	2391.66
536.454	2346.91
536.659	2336.25
536.864	2261.85
537.069	2281.62
537.274	2285.1
537.479	2271.15
537.684	2296.34
537.889	2265.15
538.094	2400.19
538.299	2327.73
538.504	2371.9
538.708	2356.6
538.913	2387.21
539.118	2375
539.323	2348.07
539.528	2323.66
539.733	2283.75
539.938	2344.2
540.142	2375.97
540.347	2324.43
540.552	2281.23
540.757	2281.23
540.962	2264.57
541.166	2240.74
541.371	2253.52
541.576	2293.63
541.781	2258.95
541.985	2385.27
542.19	2326.76
542.395	2426.93
542.599	2426.73
542.804	2400.38
543.008	2453.66
543.213	2388.56
543.418	2314.55
543.622	2399.61
543.827	2365.51
544.031	2467.42
544.236	2481.18
544.44	2423.25
544.645	2485.24
544.849	2402.32
545.054	2466.84
545.258	2504.81
545.463	2505.98
545.667	2412.59
545.872	2482.34
546.076	2496.87
546.281	2466.64
546.485	2442.62
546.689	2476.91
546.894	2485.05
547.098	2480.98
547.302	2450.37
547.507	2477.49
547.711	2487.38
547.915	2543.56
548.119	2424.6
548.324	2474.2
548.528	2535.42
548.732	2512.17
548.936	2542.98
549.141	2567.39
549.345	2517.21
549.549	2570.69
549.753	2570.3
549.957	2602.85
550.161	2593.74
550.366	2544.53
550.57	2516.44
550.774	2523.41
550.978	2548.21
551.182	2557.51
551.386	2534.26
551.59	2541.43
551.794	2509.46
551.998	2557.51
552.202	2553.64
552.406	2538.91
552.61	2588.51
552.814	2567.78
553.018	2617.77
553.222	2541.82
553.426	2556.74
553.63	2618.35
553.833	2545.31
554.037	2501.71
554.241	2550.54
554.445	2587.16
554.649	2561.39
554.853	2549.37
555.056	2614.67
555.26	2614.47
555.464	2593.55
555.668	2599.55
555.871	2600.33
556.075	2595.49
556.279	2558.09
556.483	2523.99
556.686	2542.4
556.89	2508.88
557.094	2554.61
557.297	2486.99
557.501	2509.46
557.704	2457.93
557.908	2511.01
558.112	2495.13
558.315	2568.17
558.519	2459.67
558.722	2443.01
558.926	2440.68
559.129	2363.96
559.333	2340.32
559.536	2371.71
559.74	2381.4
559.943	2373.65
560.147	2362.41
560.35	2360.28
560.553	2381.01
560.757	2348.85
560.96	2444.94
561.164	2409.68
561.367	2501.13
561.57	2398.45
561.774	2429.83
561.977	2415.3
562.18	2330.05
562.384	2451.14
562.587	2380.62
562.79	2366.48
562.993	2326.57
563.197	2390.89
563.4	2408.13
563.603	2423.25
563.806	2447.66
564.009	2340.71
564.212	2386.82
564.416	2288.78
564.619	2334.9
564.822	2266.12
565.025	2362.41
565.228	2290.33
565.431	2298.28
565.634	2216.71
565.837	2239.57
566.04	2223.3
566.243	2216.71
566.446	2160.33
566.649	2211.09
566.852	2150.84
567.055	2205.28
567.258	2167.5
567.461	2244.42
567.664	2226.59
567.867	2157.23
568.07	2195.59
568.273	2185.13
568.475	2208.57
568.678	2080.31
568.881	2107.44
569.084	2096.97
569.287	2052.22
569.489	2065.98
569.692	2085.74
569.895	2064.43
570.098	2045.44
570.3	2012.89
570.503	1970.46
570.706	2008.63
570.909	1972.78
571.111	1954.18
571.314	1947.4
571.516	1957.09
571.719	1961.93
571.922	1965.42
572.124	1902.45
572.327	1983.25
572.529	1881.14
572.732	1944.3
572.935	1934.42
573.137	2016.57
573.34	1920.86
573.542	1921.83
573.745	1962.32
573.947	1972.59
574.15	1882.69
574.352	1877.07
574.554	1988.09
574.757	1893.15
574.959	1843.75
575.162	1852.85
575.364	1864.28
575.566	1940.43
575.769	1816.82
575.971	1839.48
576.173	1749.78
576.376	1808.87
576.578	1830.38
576.78	1843.17
576.982	1744.94
577.185	1817.59
577.387	1762.95
577.589	1776.32
577.791	1803.06
577.993	1746.49
578.196	1782.72
578.398	1782.91
578.6	1778.45
578.802	1703.28
579.004	1707.93
579.206	1734.67
579.408	1777.68
579.61	1740.48
579.812	1777.87
580.014	1705.02
580.216	1729.63
580.418	1757.14
580.62	1756.37
580.822	1711.22
581.024	1770.9
581.226	1794.73
581.428	1711.03
581.63	1830.77
581.832	1711.03
582.034	1775.35
582.236	1755.01
582.438	1786.79
582.64	1815.07
582.841	1848.98
583.043	1873.58
583.245	1802.09
583.447	1783.69
583.649	1792.02
583.85	1809.07
584.052	1778.07
584.254	1733.7
584.456	1834.45
584.657	1735.83
584.859	1773.22
585.061	1761.99
585.262	1762.37
585.464	1687.97
585.666	1769.93
585.867	1693.4
586.069	1767.41
586.27	1709.48
586.472	1692.04
586.674	1692.62
586.875	1701.15
587.077	1680.61
587.278	1719.36
587.48	1719.56
587.681	1780.2
587.883	1715.87
588.084	1668.99
588.285	1659.88
588.487	1631.4
588.688	1627.53
588.89	1574.05
589.091	1533.17
589.292	1531.23
589.494	1494.03
589.695	1441.53
589.896	1373.14
590.098	1397.74
590.299	1427
590.5	1445.98
590.702	1434.36
590.903	1507.4
591.104	1547.12
591.305	1553.13
591.507	1568.63
591.708	1534.72
591.909	1526.39
592.11	1566.88
592.311	1552.54
592.512	1537.24
592.714	1469.43
592.915	1485.51
593.116	1474.27
593.317	1529.49
593.518	1526
593.719	1505.08
593.92	1563.2
594.121	1574.44
594.322	1530.46
594.523	1520.58
594.724	1465.55
594.925	1543.25
595.126	1476.01
595.327	1503.53
595.528	1544.41
595.729	1514.76
595.929	1511.86
596.13	1517.28
596.331	1530.07
596.532	1522.51
596.733	1585.48
596.934	1547.51
597.135	1552.35
597.335	1562.23
597.536	1507.4
597.737	1534.33
597.938	1480.66
598.138	1553.9
598.339	1512.63
598.54	1504.11
598.74	1499.26
598.941	1519.22
599.142	1555.64
599.342	1529.3
599.543	1493.26
599.744	1547.51
599.944	1502.95
600.145	1521.16
600.345	1503.91
600.546	1571.53
600.746	1548.48
600.947	1589.16
601.147	1519.61
601.348	1550.61
601.548	1482.8
601.749	1532.01
601.949	1444.24
602.15	1479.5
602.35	1496.55
602.551	1490.55
602.751	1456.83
602.951	1474.08
603.152	1426.61
603.352	1540.15
603.552	1476.21
603.753	1531.81
603.953	1554.48
604.153	1515.73
604.354	1476.98
604.554	1482.8
604.754	1484.93
604.954	1468.46
605.155	1516.31
605.355	1471.17
605.555	1497.91
605.755	1537.63
605.955	1477.56
606.155	1518.06
606.356	1515.93
606.556	1509.34
606.756	1492.29
606.956	1450.44
607.156	1538.4
607.356	1438.62
607.556	1497.52
607.756	1489
607.956	1502.75
608.156	1461.68
608.356	1439.01
608.556	1473.5
608.756	1439.98
608.956	1430.1
609.156	1454.7
609.356	1419.63
609.556	1396.58
609.755	1443.47
609.955	1367.32
610.155	1396
610.355	1404.72
610.555	1387.86
610.755	1374.3
610.954	1337.49
611.154	1375.27
611.354	1414.98
611.554	1374.69
611.753	1393.48
611.953	1333.03
612.153	1395.42
612.352	1406.27
612.552	1324.5
612.752	1284.4
612.951	1355.5
613.151	1339.42
613.351	1280.52
613.55	1330.7
613.75	1360.93
613.949	1317.14
614.149	1329.35
614.348	1314.62
614.548	1303.97
614.747	1266.96
614.947	1272.77
615.146	1248.75
615.346	1324.5
615.545	1296.6
615.745	1323.54
615.944	1337.1
616.144	1297.19
616.343	1302.8
616.542	1256.31
616.742	1275.49
616.941	1235.19
617.14	1252.82
617.34	1250.3
617.539	1232.28
617.738	1222.01
617.938	1290.6
618.137	1258.63
618.336	1221.82
618.535	1281.49
618.734	1243.13
618.934	1265.41
619.133	1253.01
619.332	1288.66
619.531	1223.37
619.73	1262.51
619.929	1271.03
620.128	1282.46
620.328	1264.06
620.527	1222.59
620.726	1219.49
620.925	1223.76
621.124	1250.3
621.323	1233.44
621.522	1184.43
621.721	1206.9
621.92	1180.36
622.119	1274.91
622.318	1194.89
622.517	1189.46
622.715	1240.42
622.914	1135.79
623.113	1204.19
623.312	1124.94
623.511	1203.22
623.71	1175.71
623.909	1139.28
624.107	1216.39
624.306	1119.91
624.505	1127.27
624.704	1132.11
624.902	1104.21
625.101	1171.83
625.3	1128.24
625.499	1143.54
625.697	1120.1
625.896	1144.71
626.095	1131.73
626.293	1082.9
626.492	1100.92
626.69	1134.05
626.889	1117.97
627.088	1146.06
627.286	1112.55
627.485	1096.08
627.683	1060.43
627.882	1084.06
628.08	997.46
628.279	1039.11
628.477	1089.88
628.676	1055.78
628.874	1082.9
629.073	1036.6
629.271	1044.73
629.469	1076.7
629.668	1075.15
629.866	1043.18
630.065	1054.42
630.263	1093.17
630.461	1082.32
630.66	1078.64
630.858	1082.9
631.056	1092.59
631.254	1102.08
631.453	1046.67
631.651	1088.13
631.849	1086.97
632.047	1050.74
632.245	1074.18
632.444	1098.6
632.642	1082.51
632.84	1103.83
633.038	1065.27
633.236	1060.04
633.434	1050.55
633.632	1055.97
633.83	1089.49
634.028	1142.77
634.227	1067.79
634.425	1129.59
634.623	1090.07
634.821	1085.61
635.019	1093.95
635.216	1080.77
635.414	1104.02
635.612	1099.76
635.81	1067.6
636.008	1135.02
636.206	1078.64
636.404	1097.43
636.602	1056.94
636.8	1037.18
636.997	1081.35
637.195	1113.71
637.393	1072.44
637.591	1099.18
637.789	1085.42
637.986	1088.71
638.184	1094.91
638.382	1093.36
638.58	1099.76
638.777	1129.59
638.975	1041.05
639.173	1058.49
639.37	1075.93
639.568	1053.06
639.765	1094.72
639.963	1040.28
640.161	1089.49
640.358	1073.21
640.556	1038.15
640.753	1017.42
640.951	992.03
641.148	1027.1
641.346	997.85
641.543	1003.66
641.741	999.59
641.938	960.07
642.136	1011.6
642.333	956.58
642.531	1027.1
642.728	1057.52
642.925	1013.73
643.123	987
643.32	975.95
643.517	952.51
643.715	1002.88
643.912	958.13
644.109	1019.16
644.306	977.89
644.504	925.58
644.701	981.96
644.898	995.52
645.095	926.74
645.293	918.8
645.49	950.96
645.687	915.31
645.884	961.23
646.081	866.68
646.278	864.94
646.475	897.1
646.672	879.08
646.87	907.37
647.067	888.96
647.264	899.42
647.461	845.95
647.658	829.67
647.855	899.23
648.052	845.76
648.249	791.89
648.446	840.33
648.642	830.84
648.839	810.49
649.036	819.02
649.233	749.08
649.43	779.88
649.627	760.51
649.824	786.08
650.021	770
650.217	770
650.414	789.76
650.611	801.19
650.808	818.44
651.004	829.09
651.201	823.47
651.398	858.15
651.595	814.56
651.791	794.8
651.988	832.58
652.185	771.16
652.381	815.34
652.578	768.06
652.775	809.72
652.971	791.31
653.168	794.99
653.364	825.61
653.561	735.71
653.757	788.02
653.954	780.27
654.15	784.72
654.347	830.84
654.543	781.24
654.74	734.74
654.936	749.08
655.133	774.46
655.329	747.14
655.525	751.79
655.722	793.25
655.918	728.54
656.115	758.18
656.311	672.16
656.507	648.52
656.704	642.32
656.9	646.78
657.096	639.03
657.292	679.52
657.489	702.96
657.685	722.14
657.881	677.78
658.077	699.67
658.273	722.14
658.47	778.91
658.666	717.3
658.862	737.45
659.058	694.63
659.254	725.24
659.45	716.14
659.646	758.96
659.842	690.76
660.038	767.67
660.234	716.33
660.43	739.39
660.626	772.71
660.822	747.91
661.018	736.48
661.214	728.54
661.41	681.65
661.606	753.14
661.802	742.29
661.998	714.2
662.194	680.88
662.39	727.76
662.586	721.76
662.781	731.44
662.977	730.86
663.173	737.45
663.369	702.58
663.564	714.59
663.76	734.16
663.956	686.11
664.152	727.96
664.347	652.01
664.543	704.71
664.739	688.24
664.934	641.93
665.13	605.31
665.326	708.39
665.521	672.55
665.717	649.3
665.912	626.82
666.108	594.08
666.304	662.86
666.499	646.78
666.695	616.55
666.89	642.13
667.086	690.56
667.281	676.81
667.477	671.96
667.672	659.56
667.867	627.21
668.063	649.1
668.258	609.19
668.454	646.78
668.649	724.08
668.844	640.38
669.04	635.93
669.235	618.3
669.43	654.53
669.626	602.41
669.821	610.16
670.016	608.03
670.211	610.35
670.407	613.06
670.602	622.17
670.797	625.46
670.992	639.61
671.187	612.68
671.382	634.57
671.578	589.43
671.773	646.58
671.968	586.13
672.163	600.08
672.358	642.71
672.553	591.17
672.748	589.04
672.943	680.49
673.138	617.33
673.333	627.98
673.528	587.3
673.723	623.14
673.918	618.88
674.113	560.56
674.308	682.62
674.503	637.48
674.698	644.06
674.892	619.26
675.087	653.95
675.282	627.79
675.477	573.15
675.672	632.44
675.867	566.57
676.061	550.68
676.256	560.56
676.451	587.1
676.646	607.83
676.84	564.43
677.035	542.93
677.23	553.39
677.424	565.4
677.619	610.35
677.814	601.44
678.008	618.68
678.203	543.7
678.397	551.65
678.592	597.95
678.787	639.61
678.981	594.85
679.176	607.25
679.37	598.73
679.565	552.03
679.759	572.57
679.954	615.39
680.148	620.23
680.342	625.66
680.537	603.76
680.731	584.2
680.926	621.98
681.12	626.82
681.314	601.63
681.509	605.31
681.703	589.43
681.897	589.62
682.092	591.56
682.286	583.62
682.48	662.86
682.674	632.44
682.869	598.34
683.063	613.45
683.257	666.93
683.451	571.41
683.645	603.38
683.839	628.56
684.034	602.21
684.228	638.06
684.422	590.01
684.616	579.16
684.81	626.82
685.004	608.61
685.198	607.64
685.392	630.89
685.586	627.21
685.78	607.45
685.974	657.63
686.168	625.66
686.362	685.14
686.556	576.06
686.75	578
686.944	566.57
687.138	565.98
687.331	472.02
687.525	522.97
687.719	427.45
687.913	505.92
688.107	534.98
688.301	466.59
688.494	560.37
688.688	508.05
688.882	506.12
689.076	472.99
689.269	548.55
689.463	588.65
689.657	549.52
689.85	550.87
690.044	560.37
690.238	576.83
690.431	599.7
690.625	578.58
690.818	645.23
691.012	640
691.205	692.69
691.399	655.88
691.593	686.69
691.786	719.63
691.98	758.76
692.173	781.24
692.366	752.37
692.56	795.77
692.753	872.69
692.947	775.42
693.14	841.88
693.333	839.36
693.527	784.72
693.72	831.03
693.914	835.1
694.107	853.5
694.3	843.82
694.493	845.95
694.687	923.25
694.88	884.89
695.073	962.2
695.266	950.77
695.46	962.58
695.653	999.01
695.846	999.78
696.039	964.91
696.232	1011.8
696.425	1076.7
696.618	1085.03
696.812	1111
697.005	1154.98
697.198	1269.87
697.391	1175.9
697.584	1227.44
697.777	1272.39
697.97	1235.57
698.163	1265.02
698.356	1283.82
698.549	1343.3
698.742	1335.94
698.935	1280.91
699.127	1341.36
699.32	1325.47
699.513	1313.85
699.706	1357.44
699.899	1385.15
700.092	1337.68
700.285	1363.45
700.477	1330.9
700.67	1415.57
700.863	1422.35
701.056	1476.21
701.248	1480.86
701.441	1498.3
701.634	1445.02
701.826	1566.49
702.019	1484.93
702.212	1560.29
702.404	1518.45
702.597	1503.53
702.79	1562.23
702.982	1601.37
703.175	1654.65
703.367	1638.57
703.56	1669.57
703.752	1739.7
703.945	1729.05
704.137	1739.32
704.33	1746.1
704.522	1798.8
704.715	1824.95
704.907	1859.83
705.1	1891.6
705.292	1870.68
705.484	1847.62
705.677	1905.16
705.869	1918.53
706.061	1987.31
706.254	1984.41
706.446	1941.01
706.638	1966.78
706.831	2043.11
707.023	2039.24
707.215	2107.44
707.407	2106.66
707.599	2084.96
707.792	2171.76
707.984	2147.16
708.176	2176.22
708.368	2111.7
708.56	2205.28
708.752	2159.75
708.944	2178.35
709.136	2257.2
709.329	2227.37
709.521	2348.07
709.713	2302.93
709.905	2320.17
710.097	2337.41
710.289	2308.74
710.481	2304.09
710.672	2418.21
710.864	2404.65
711.056	2417.24
711.248	2442.04
711.44	2425.96
711.632	2437.19
711.824	2496.87
712.016	2520.51
712.207	2555.96
712.399	2542.79
712.591	2584.83
712.783	2568.56
712.975	2579.99
713.166	2544.53
713.358	2597.23
713.55	2654
713.741	2636.75
713.933	2637.92
714.125	2612.92
714.316	2555.57
714.508	2704.57
714.7	2669.11
714.891	2676.47
715.083	2692.75
715.274	2675.12
715.466	2698.17
715.657	2735.57
715.849	2646.64
716.04	2643.92
716.232	2610.4
716.423	2688.48
716.615	2568.36
716.806	2495.71
716.998	2465.29
717.189	2372.48
717.381	2270.57
717.572	2259.33
717.763	2241.12
717.955	2203.92
718.146	2141.15
718.337	2099.69
718.528	2060.36
718.72	1991.96
718.911	2022.19
719.102	2015.21
719.293	2017.34
719.485	1990.61
719.676	2004.36
719.867	1964.26
720.058	1971.62
720.249	1954.76
720.44	1969.88
720.632	2015.21
720.823	2151.22
721.014	2250.81
721.205	2301.96
721.396	2368.41
721.587	2508.88
721.778	2554.02
721.969	2602.27
722.16	2648.38
722.351	2660.78
722.542	2793.69
722.733	2859.37
722.924	2709.6
723.115	2749.52
723.305	2691.2
723.496	2751.65
723.687	2599.36
723.878	2592.97
724.069	2586.77
724.26	2624.74
724.45	2546.86
724.641	2536.97
724.832	2573.79
725.023	2501.13
725.213	2527.09
725.404	2442.62
725.595	2459.86
725.785	2499.97
725.976	2561.77
726.167	2553.25
726.357	2543.76
726.548	2647.41
726.739	2592.19
726.929	2648.19
727.12	2639.85
727.31	2691.78
727.501	2635.2
727.691	2644.7
727.882	2617.96
728.072	2684.22
728.263	2677.64
728.453	2749.71
728.644	2773.15
728.834	2710.18
729.024	2696.23
729.215	2693.33
729.405	2723.75
729.596	2803.96
729.786	2806.28
729.976	2872.35
730.167	2874.48
730.357	2821.2
730.547	2837.86
730.737	2868.09
730.928	2899.67
731.118	2913.23
731.308	2857.43
731.498	2883.2
731.688	3009.72
731.879	2982.59
732.069	3078.69
732.259	3114.73
732.449	3135.46
732.639	3250.93
732.829	3250.35
733.019	3256.75
733.209	3397.02
733.399	3381.52
733.589	3447.39
733.779	3497.77
733.969	3536.71
734.159	3578.95
734.349	3614.4
734.539	3609.56
734.729	3661.29
734.919	3649.47
735.109	3759.13
735.299	3688.22
735.488	3638.23
735.678	3661.87
735.868	3699.65
736.058	3638.82
736.248	3722.32
736.437	3643.47
736.627	3645.21
736.817	3769.21
737.007	3756.61
737.196	3762.43
737.386	3800.01
737.576	3729.3
737.765	3830.24
737.955	3807.38
738.144	3881.58
738.334	3895.92
738.524	3829.85
738.713	3833.72
738.903	3855.23
739.092	3901.34
739.282	3870.15
739.471	3884.68
739.661	3875.57
739.85	3945.32
740.04	3888.56
740.229	3962.95
740.419	3974.77
740.608	4025.53
740.797	3956.75
740.987	4003.45
741.176	4035.22
741.365	3992.79
741.555	3939.32
741.744	4054.79
741.933	4023.6
742.123	4050.72
742.312	4038.71
742.501	4117.18
742.69	4143.72
742.88	3998.22
743.069	4152.63
743.258	4124.93
743.447	4143.72
743.636	4154.18
743.825	4112.53
744.014	4117.37
744.204	4191.77
744.393	4128.8
744.582	4203.39
744.771	4196.23
744.96	4099.93
745.149	4196.81
745.338	4139.46
745.527	4230.91
745.716	4167.16
745.905	4138.88
746.094	4245.05
746.283	4258.23
746.471	4167.55
746.66	4252.8
746.849	4275.08
747.038	4274.89
747.227	4219.48
747.416	4275.66
747.604	4196.23
747.793	4204.17
747.982	4168.52
748.171	4273.14
748.359	4187.51
748.548	4238.27
748.737	4173.94
748.926	4234.59
749.114	4138.1
749.303	4196.81
749.491	4214.83
749.68	4116.98
749.869	4171.43
750.057	4143.53
750.246	4141.59
750.434	4210.76
750.623	4156.51
750.811	4160.77
751	4170.65
751.188	4151.86
751.377	4142.56
751.565	4098.58
751.754	4105.36
751.942	4061.77
752.131	4148.18
752.319	4067.58
752.507	4054.98
752.696	4143.72
752.884	4134.03
753.072	4100.9
753.261	4101.29
753.449	4123.18
753.637	4065.06
753.825	4189.64
754.014	4117.18
754.202	4072.81
754.39	4164.84
754.578	4129.19
754.766	4049.75
754.955	4084.24
755.143	4117.56
755.331	4092.57
755.519	4060.8
755.707	4027.86
755.895	4046.07
756.083	4079.2
756.271	3942.22
756.459	4007.13
756.647	4048.2
756.835	3963.34
757.023	4026.12
757.211	4004.03
757.399	3990.08
757.587	3971.29
757.775	3919.55
757.963	3928.27
758.151	3952.1
758.339	3895.72
758.526	3925.17
758.714	3881
758.902	3798.66
759.09	3665.16
759.278	3462.89
759.465	3136.82
759.653	2731.11
759.841	2484.66
760.028	2126.81
760.216	1860.41
760.404	1726.92
760.591	1373.72
760.779	1199.15
760.967	1024.97
761.154	825.99
761.342	868.23
761.529	851.96
761.717	912.6
761.905	881.02
762.092	956.77
762.28	900.97
762.467	910.66
762.655	840.33
762.842	837.42
763.029	816.5
763.217	862.42
763.404	852.34
763.592	880.24
763.779	815.72
763.966	871.91
764.154	947.47
764.341	995.33
764.528	1019.55
764.716	1092.01
764.903	1133.47
765.09	1228.79
765.277	1292.34
765.465	1481.25
765.652	1513.6
765.839	1612.03
766.026	1738.93
766.213	1836
766.4	1928.03
766.588	2168.85
766.775	2185.9
766.962	2316.3
767.149	2427.12
767.336	2604.59
767.523	2565.65
767.71	2741.96
767.897	2862.08
768.084	2897.34
768.271	2938.42
768.458	3039.55
768.645	3115.31
768.832	3115.7
769.019	3160.45
769.206	3214.51
769.392	3274.57
769.579	3384.43
769.766	3355.94
769.953	3355.94
770.14	3433.83
770.327	3405.54
770.513	3485.56
770.7	3497.96
770.887	3447.01
771.073	3499.7
771.26	3543.69
771.447	3484.79
771.634	3433.64
771.82	3543.69
772.007	3463.09
772.193	3560.93
772.38	3548.53
772.567	3511.33
772.753	3554.15
772.94	3551.44
773.126	3553.57
773.313	3526.44
773.499	3528.77
773.686	3536.52
773.872	3474.9
774.059	3518.69
774.245	3480.14
774.432	3496.99
774.618	3388.3
774.804	3512.3
774.991	3455.53
775.177	3463.86
775.363	3474.52
775.55	3528.57
775.736	3411.16
775.922	3448.94
776.109	3466.38
776.295	3465.41
776.481	3458.05
776.667	3481.3
776.853	3388.69
777.04	3419.69
777.226	3426.86
777.412	3518.5
777.598	3420.85
777.784	3417.17
777.97	3368.34
778.156	3436.93
778.342	3411.16
778.528	3419.88
778.715	3300.34
778.901	3313.32
779.087	3373.77
779.272	3315.64
779.458	3341.8
779.644	3356.91
779.83	3282.32
780.016	3369.51
780.202	3319.33
780.388	3269.92
780.574	3244.93
780.76	3244.15
780.946	3312.16
781.131	3314.48
781.317	3254.61
781.503	3246.28
781.689	3245.51
781.874	3359.82
782.06	3219.74
782.246	3235.63
782.432	3241.44
782.617	3273.8
782.803	3296.85
782.989	3200.37
783.174	3170.72
783.36	3153.09
783.545	3211.99
783.731	3180.22
783.916	3116.86
784.102	3197.65
784.288	3153.28
784.473	3145.53
784.659	3071.72
784.844	3174.21
785.029	3150.57
785.215	3105.43
785.4	3044.79
785.586	3180.8
785.771	3047.11
785.956	3143.4
786.142	3057.38
786.327	3046.53
786.512	3043.82
786.698	3044.59
786.883	2989.76
787.068	2952.56
787.254	3015.34
787.439	2969.22
787.624	2960.7
787.809	2970.58
787.994	2962.06
788.18	3010.69
788.365	2898.12
788.55	2919.63
788.735	2968.84
788.92	2920.4
789.105	2903.35
789.29	2931.25
789.475	2839.41
789.66	2883.2
789.845	2819.07
790.03	2807.83
790.215	2854.72
790.4	2889.59
790.585	2859.18
790.77	2816.16
790.955	2779.93
791.14	2814.81
791.325	2888.43
791.51	2756.1
791.695	2830.11
791.879	2781.1
792.064	2762.11
792.249	2866.54
792.434	2795.63
792.618	2798.92
792.803	2809.58
792.988	2820.23
793.173	2756.1
793.357	2821.98
793.542	2763.08
793.727	2843.29
793.911	2870.22
794.096	2825.27
794.281	2885.33
794.465	2937.06
794.65	2809.77
794.834	2869.06
795.019	2908.39
795.203	2901.99
795.388	2891.53
795.572	2906.64
795.757	2851.62
795.941	2890.95
796.126	2830.31
796.31	2805.31
796.494	2799.31
796.679	2819.26
796.863	2773.15
797.048	2918.66
797.232	2831.08
797.416	2861.89
797.601	2834.57
797.785	2906.84
797.969	2874.09
798.153	2846.58
798.338	2895.41
798.522	2917.88
798.706	2906.06
798.89	2885.91
799.074	3000.61
799.258	2996.74
799.443	2899.86
799.627	2944.62
799.811	2937.84
799.995	2903.16
800.179	2901.41
800.363	2852.01
800.547	2879.91
800.731	2893.08
800.915	2820.04
801.099	2839.8
801.283	2829.15
801.467	2840.58
801.651	2822.75
801.835	2939.58
802.019	2849.3
802.202	2863.05
802.386	2854.72
802.57	2800.66
802.754	2850.85
802.938	2784.58
803.121	2799.31
803.305	2838.64
803.489	2837.86
803.673	2844.26
803.856	2847.55
804.04	2782.26
804.224	2860.92
804.407	2816.75
804.591	2799.89
804.775	2839.61
804.958	2824.5
805.142	2899.28
805.326	2851.43
805.509	2864.6
805.693	2881.65
805.876	2874.68
806.06	2877.58
806.243	2909.55
806.427	2904.9
806.61	2922.14
806.794	2892.31
806.977	2910.33
807.16	2870.61
807.344	2898.51
807.527	2905.09
807.71	2852.98
807.894	2851.04
808.077	2915.94
808.26	2828.95
808.444	2839.61
808.627	2900.44
808.81	2828.56
808.993	2736.73
809.177	2736.92
809.36	2781.87
809.543	2780.32
809.726	2690.81
809.909	2700.69
810.092	2685
810.276	2649.93
810.459	2694.49
810.642	2687.52
810.825	2599.36
811.008	2645.28
811.191	2522.44
811.374	2544.92
811.557	2552.86
811.74	2622.22
811.923	2464.9
812.106	2459.28
812.289	2467.81
812.472	2469.55
812.654	2426.34
812.837	2434.09
813.02	2365.7
813.203	2316.3
813.386	2221.55
813.569	2227.75
813.751	2133.79
813.934	2183.19
814.117	2148.12
814.3	2119.26
814.482	2019.48
814.665	2028.97
814.848	1978.6
815.03	1895.87
815.213	1875.72
815.396	1918.92
815.578	1866.22
815.761	1833.67
815.943	1915.43
816.126	1783.3
816.309	1717.04
816.491	1680.81
816.674	1631.59
816.856	1728.47
817.039	1679.64
817.221	1764.5
817.403	1691.46
817.586	1724.98
817.768	1740.48
817.951	1652.91
818.133	1653.1
818.315	1702.31
818.498	1705.41
818.68	1776.71
818.862	1740.87
819.045	1786.59
819.227	1744.16
819.409	1736.99
819.591	1749.97
819.774	1771.29
819.956	1722.66
820.138	1827.28
820.32	1823.4
820.502	1842.2
820.684	1925.12
820.866	1941.78
821.048	1978.79
821.231	2038.08
821.413	1989.44
821.595	1970.65
821.777	2001.65
821.959	1975.11
822.141	2062.68
822.323	1967.36
822.505	1823.98
822.686	1787.75
822.868	1677.51
823.05	1546.15
823.232	1541.31
823.414	1456.45
823.596	1572.89
823.778	1538.21
823.96	1587.03
824.141	1558.16
824.323	1598.08
824.505	1684.87
824.687	1716.26
824.868	1808.49
825.05	1936.75
825.232	1930.16
825.413	2001.65
825.595	1950.89
825.777	1886.57
825.958	1922.99
826.14	1923.96
826.321	1954.96
826.503	1911.75
826.685	1983.25
826.866	1992.35
827.048	1948.18
827.229	1927.64
827.411	1834.06
827.592	1828.44
827.773	1828.05
827.955	1730.79
828.136	1788.92
828.318	1723.62
828.499	1757.34
828.68	1687.78
828.862	1754.82
829.043	1751.33
829.224	1731.57
829.406	1681.77
829.587	1714.32
829.768	1698.44
829.949	1732.34
830.131	1755.4
830.312	1791.44
830.493	1753.65
830.674	1748.62
830.855	1710.84
831.036	1760.24
831.218	1794.92
831.399	1792.21
831.58	1765.28
831.761	1749.39
831.942	1755.01
832.123	1738.15
832.304	1687.2
832.485	1729.05
832.666	1724.59
832.847	1782.91
833.028	1741.06
833.209	1729.24
833.389	1720.91
833.57	1690.3
833.751	1707.74
833.932	1769.35
834.113	1714.91
834.294	1721.88
834.475	1781.94
834.655	1798.02
834.836	1792.79
835.017	1794.34
835.198	1792.99
835.378	1799.77
835.559	1840.07
835.74	1759.27
835.92	1781.55
836.101	1746.68
836.281	1794.54
836.462	1842
836.643	1845.88
836.823	1888.5
837.004	1855.95
837.184	1888.89
837.365	1853.63
837.545	1866.42
837.726	1782.14
837.906	1864.87
838.087	1857.7
838.267	1852.66
838.448	1807.71
838.628	1833.67
838.808	1830.77
838.989	1881.14
839.169	1823.02
839.349	1888.12
839.53	1870.29
839.71	1884.24
839.89	1827.67
840.07	1889.28
840.251	1827.28
840.431	1875.72
840.611	1833.48
840.791	1794.92
840.971	1857.12
841.151	1780
841.332	1781.17
841.512	1843.55
841.692	1799.96
841.872	1824.57
842.052	1811.97
842.232	1833.09
842.412	1782.52
842.592	1783.88
842.772	1816.62
842.952	1815.85
843.132	1797.64
843.312	1815.65
843.492	1783.49
843.672	1835.8
843.851	1764.12
844.031	1820.3
844.211	1779.62
844.391	1800.15
844.571	1816.04
844.751	1794.92
844.93	1815.27
845.11	1763.34
845.29	1813.91
845.47	1819.14
845.649	1794.92
845.829	1827.28
846.009	1745.32
846.188	1833.28
846.368	1804.61
846.547	1781.75
846.727	1801.12
846.907	1753.65
847.086	1749.2
847.266	1797.25
847.445	1788.72
847.625	1739.51
847.804	1742.03
847.984	1767.22
848.163	1727.3
848.343	1713.36
848.522	1759.47
848.701	1751.14
848.881	1707.54
849.06	1749.78
849.239	1723.43
849.419	1762.18
849.598	1633.73
849.777	1637.6
849.957	1645.74
850.136	1597.88
850.315	1593.81
850.494	1551.38
850.674	1592.84
850.853	1631.4
851.032	1596.72
851.211	1650.19
851.39	1625.2
851.569	1556.81
851.748	1581.8
851.927	1637.21
852.107	1611.25
852.286	1588.19
852.465	1561.46
852.644	1630.24
852.823	1617.26
853.002	1589.36
853.181	1610.48
853.359	1640.12
853.538	1565.53
853.717	1580.64
853.896	1523.29
854.075	1428.35
854.254	1406.46
854.433	1379.53
854.611	1393.28
854.79	1366.55
854.969	1429.71
855.148	1439.01
855.327	1386.7
855.505	1450.25
855.684	1465.55
855.863	1431.65
856.041	1447.34
856.22	1509.34
856.399	1475.24
856.577	1547.51
856.756	1521.16
856.934	1671.12
857.113	1614.54
857.291	1518.06
857.47	1546.15
857.648	1564.17
857.827	1561.65
858.005	1587.81
858.184	1529.49
858.362	1589.74
858.541	1577.15
858.719	1541.7
858.898	1539.95
859.076	1510.31
859.254	1553.32
859.433	1521.55
859.611	1499.65
859.789	1456.83
859.967	1522.9
860.146	1598.27
860.324	1466.71
860.502	1489.96
860.68	1428.35
860.859	1486.86
861.037	1480.47
861.215	1540.92
861.393	1508.95
861.571	1511.86
861.749	1455.48
861.927	1462.07
862.105	1479.89
862.283	1465.55
862.461	1450.44
862.639	1447.34
862.817	1429.13
862.995	1461.29
863.173	1449.86
863.351	1464.78
863.529	1459.35
863.707	1457.61
863.885	1453.93
864.063	1387.67
864.241	1433.78
864.418	1508.76
864.596	1405.49
864.774	1419.25
864.952	1400.45
865.129	1424.87
865.307	1366.16
865.485	1363.45
865.663	1426.8
865.84	1320.82
866.018	1335.35
866.196	1186.75
866.373	1227.82
866.551	1215.81
866.728	1174.74
866.906	1235.19
867.084	1257.08
867.261	1275.1
867.439	1285.17
867.616	1339.42
867.794	1286.34
867.971	1301.06
868.149	1311.72
868.326	1374.1
868.503	1319.27
868.681	1321.02
868.858	1320.63
869.035	1292.92
869.213	1359.19
869.39	1307.84
869.567	1356.09
869.745	1309.59
869.922	1311.33
870.099	1315.2
870.276	1321.99
870.454	1362.87
870.631	1321.6
870.808	1320.44
870.985	1303.97
871.162	1362.67
871.339	1283.24
871.517	1264.06
871.694	1267.35
871.871	1286.72
872.048	1298.15
872.225	1269.09
872.402	1297.19
872.579	1248.75
872.756	1269.67
872.933	1273.94
873.11	1245.46
873.287	1265.02
873.463	1257.27
873.64	1253.4
873.817	1283.24
873.994	1245.46
874.171	1219.69
874.348	1234.02
874.524	1201.67
874.701	1233.64
874.878	1176.68
875.055	1232.86
875.231	1230.92
875.408	1244.87
875.585	1128.24
875.762	1223.56
875.938	1182.1
876.115	1207.09
876.291	1200.7
876.468	1205.93
876.645	1137.73
876.821	1165.44
876.998	1201.67
877.174	1200.7
877.351	1205.74
877.527	1161.76
877.704	1178.23
877.88	1187.72
878.057	1169.7
878.233	1188.3
878.409	1161.18
878.586	1138.31
878.762	1163.11
878.938	1175.71
879.115	1105.38
879.291	1156.91
879.467	1073.6
879.644	1110.41
879.82	1187.14
879.996	1111.38
880.172	1061.59
880.349	1128.43
880.525	1118.94
880.701	1058.88
880.877	1082.13
881.053	1117.97
881.229	1113.51
881.405	1150.33
881.581	1069.34
881.757	1090.85
881.933	1123.78
882.109	1133.28
882.285	1116.42
882.461	1051.13
882.637	1094.14
882.813	1061.78
882.989	1123.98
883.165	1126.3
883.341	1092.4
883.517	1149.16
883.693	1096.85
883.869	1135.79
884.044	1084.45
884.22	1133.86
884.396	1126.88
884.572	1147.23
884.747	1125.72
884.923	1125.33
885.099	1120.88
885.275	1119.33
885.45	1053.65
885.626	1066.05
885.801	1092.01
885.977	1096.46
886.153	1034.08
886.328	1109.45
886.504	1046.86
886.679	1116.23
886.855	1057.33
887.03	1091.81
887.206	1143.35
887.381	1110.41
887.557	1107.7
887.732	1115.45
887.908	1102.28
888.083	1112.93
888.258	1073.99
888.434	1060.04
888.609	1078.64
888.784	1114.68
888.96	1086.39
889.135	1077.67
889.31	1049.58
889.485	1094.33
889.661	1074.96
889.836	1115.26
890.011	1143.16
890.186	1099.95
890.361	1065.85
890.537	1110.03
890.712	1081.16
890.887	1078.64
891.062	1072.83
891.237	1120.88
891.412	1045.31
891.587	1058.49
891.762	1087.16
891.937	1153.23
892.112	1037.56
892.287	1058.49
892.462	1017.22
892.637	1002.3
892.812	971.3
892.987	1008.7
893.161	973.24
893.336	1004.82
893.511	998.43
893.686	985.45
893.861	984.09
894.035	977.7
894.21	975.76
894.385	952.9
894.56	969.95
894.734	888.77
894.909	874.43
895.084	900.2
895.258	865.9
895.433	882.95
895.608	840.33
895.782	804.49
895.957	804.29
896.131	794.61
896.306	757.41
896.48	750.04
896.655	760.12
896.829	703.93
897.004	727.57
897.178	687.85
897.353	688.24
897.527	742.49
897.701	698.7
897.876	665.38
898.05	745.01
898.224	721.18
898.399	774.84
898.573	689.79
898.747	626.24
898.921	646.58
899.096	563.27
899.27	580.71
899.444	568.12
899.618	592.91
899.792	626.82
899.967	610.16
900.141	672.35
900.315	613.26
900.489	588.07
900.663	642.71
900.837	604.35
901.011	569.28
901.185	652.2
901.359	601.05
901.533	603.18
901.707	634.96
901.881	643.29
902.055	560.17
902.229	583.23
902.403	668.48
902.576	630.31
902.75	629.15
902.924	718.08
903.098	685.53
903.272	711.88
903.446	728.93
903.619	742.29
903.793	768.84
903.967	746.56
904.14	801.97
904.314	803.13
904.488	761.09
904.661	825.22
904.835	787.82
905.009	820.76
905.182	849.05
905.356	778.14
905.529	771.16
905.703	787.24
905.876	756.63
906.05	751.79
906.223	695.41
906.397	638.06
906.57	642.9
906.744	622.56
906.917	611.9
907.09	625.46
907.264	596.98
907.437	566.57
907.61	569.47
907.784	567.73
907.957	604.73
908.13	570.83
908.304	568.89
908.477	543.12
908.65	556.1
908.823	511.73
908.996	568.5
909.17	537.7
909.343	534.98
909.516	547.97
909.689	506.12
909.862	502.43
910.035	533.43
910.208	497.79
910.381	493.14
910.554	618.68
910.727	527.82
910.9	514.45
911.073	484.61
911.246	576.83
911.419	596.79
911.592	586.72
911.765	523.55
911.938	523.17
912.11	555.52
912.283	507.86
912.456	569.86
912.629	549.9
912.802	475.5
912.974	448.38
913.147	441.21
913.32	427.65
913.493	413.51
913.665	437.34
913.838	450.32
914.01	454.58
914.183	497.4
914.356	459.81
914.528	496.04
914.701	555.91
914.873	493.52
915.046	460.78
915.218	430.55
915.391	347.63
915.563	382.89
915.736	428.42
915.908	472.4
916.081	444.12
916.253	460.78
916.425	451.87
916.598	496.43
916.77	466.59
916.942	445.67
917.115	384.06
917.287	447.41
917.459	412.15
917.632	391.81
917.804	369.91
917.976	419.12
918.148	421.25
918.32	480.35
918.493	455.16
918.665	483.45
918.837	467.95
919.009	522
919.181	524.72
919.353	507.08
919.525	476.28
919.697	479.96
919.869	500.11
920.041	558.82
920.213	596.6
920.385	522.2
920.557	509.02
920.729	522.2
920.901	545.45
921.073	498.75
921.244	463.49
921.416	520.26
921.588	481.9
921.76	520.26
921.932	564.43
922.103	495.85
922.275	522.97
922.447	506.5
922.619	433.07
922.79	483.64
922.962	460.78
923.134	502.43
923.305	433.07
923.477	438.69
923.648	408.66
923.82	426.1
923.991	378.82
924.163	415.25
924.335	436.75
924.506	405.17
924.677	488.87
924.849	404.98
925.02	454.19
925.192	433.85
925.363	419.7
925.535	425.9
925.706	407.89
925.877	435.01
926.049	365.65
926.22	398.39
926.391	424.55
926.562	445.28
926.734	418.74
926.905	424.16
927.076	394.91
927.247	388.12
927.419	366.81
927.59	333.49
927.761	325.93
927.932	329.22
928.103	346.08
928.274	319.15
928.445	281.56
928.616	307.91
928.787	292.99
928.958	288.54
929.129	310.24
929.3	267.23
929.471	250.95
929.642	223.25
929.813	163.96
929.984	238.75
930.155	162.21
930.326	215.5
930.496	191.47
930.667	118.04
930.838	158.34
931.009	133.15
931.18	152.53
931.35	139.16
931.521	146.52
931.692	96.34
931.863	73.67
932.033	118.62
932.204	119.59
932.374	110.87
932.545	60.11
932.716	129.28
932.886	133.15
933.057	35.7
933.227	55.27
933.398	112.81
933.568	52.36
933.739	24.46
933.909	53.52
934.08	105.64
934.25	-12.55
934.421	23.1
934.591	50.42
934.761	48.49
934.932	31.24
935.102	67.08
935.272	41.12
935.443	74.25
935.613	41.7
935.783	59.14
935.953	13.42
936.123	152.53
936.294	22.33
936.464	23.1
936.634	38.41
936.804	9.93
936.974	9.93
937.144	46.94
937.314	51.39
937.484	43.06
937.655	20.39
937.825	71.35
937.995	16.71
938.165	83.75
938.334	54.3
938.504	68.63
938.674	35.5
938.844	68.44
939.014	94.02
939.184	68.44
939.354	132.57
939.524	129.08
939.694	72.32
939.863	82.39
940.033	122.69
940.203	95.95
940.373	105.06
940.542	116.1
940.712	76.19
940.882	97.5
941.051	131.99
941.221	129.47
941.391	137.22
941.56	86.07
941.73	84.33
941.899	177.91
942.069	69.22
942.238	122.3
942.408	74.06
942.577	100.8
942.747	63.6
942.916	42.09
943.086	65.15
943.255	121.72
943.425	87.82
943.594	41.12
943.763	29.89
943.933	40.54
944.102	22.52
944.271	64.57
944.441	96.34
944.61	36.47
944.779	78.52
944.948	149.23
945.117	42.67
945.287	57.79
945.456	17.87
945.625	38.6
945.794	72.12
945.963	21.55
946.132	64.95
946.301	10.51
946.47	96.53
946.639	37.64
946.808	29.3
946.977	72.7
947.146	105.64
947.315	63.4
947.484	92.47
947.653	67.28
947.822	52.55
947.991	48.49
948.16	135.09
948.329	87.43
948.498	59.92
948.666	69.02
948.835	97.5
949.004	46.16
949.173	31.63
949.341	83.75
949.51	71.54
949.679	107.77
949.847	95.57
950.016	142.84
950.185	121.72
950.353	77.93
950.522	64.76
950.69	121.33
950.859	61.27
951.028	90.92
951.196	85.88
951.365	56.43
951.533	68.83
951.701	65.53
951.87	61.85
952.038	23.88
952.207	52.75
952.375	125.98
952.543	50.62
952.712	57.01
952.88	47.71
953.048	128.7
953.217	82.2
953.385	73.28
953.553	93.43
953.721	36.67
953.89	61.47
954.058	39.96
954.226	57.79
954.394	84.33
954.562	14.97
954.73	57.01
954.898	62.44
955.067	94.6
955.235	54.1
955.403	104.28
955.571	123.47
955.739	78.9
955.907	40.93
956.075	57.01
956.243	52.17
956.41	83.94
956.578	18.07
956.746	12.06
956.914	45.19
957.082	94.79
957.25	114.55
957.418	61.66
957.585	94.98
957.753	135.87
957.921	44.61
958.089	69.6
958.256	84.91
958.424	44.8
958.592	88.4
958.759	65.92
958.927	102.73
959.095	63.02
959.262	40.35
959.43	88.98
959.597	64.76
959.765	62.82
959.932	24.65
960.1	74.64
960.267	74.45
960.435	72.9
960.602	88.98
960.77	71.15
960.937	48.1
961.104	82.97
961.272	25.24
961.439	73.87
961.606	87.04
961.774	92.66
961.941	73.28
962.108	93.05
962.275	77.55
962.443	109.52
962.61	72.51
962.777	142.65
962.944	95.18
963.111	119.4
963.278	109.71
963.446	95.18
963.613	87.82
963.78	108.16
963.947	81.23
964.114	91.88
964.281	158.73
964.448	87.23
964.615	72.32
964.782	109.71
964.949	112.81
965.116	117.46
965.282	134.12
965.449	69.99
965.616	48.87
965.783	102.73
965.95	109.52
966.117	44.61
966.283	93.63
966.45	89.75
966.617	109.13
966.784	130.05
966.95	102.54
967.117	142.45
967.284	101.96
967.45	87.04
967.617	145.94
967.784	174.42
967.95	150.4
968.117	96.92
968.283	148.07
968.45	205.81
968.616	137.8
968.783	165.51
968.949	145.17
969.116	131.02
969.282	118.43
969.449	109.9
969.615	124.24
969.781	94.4
969.948	124.05
970.114	69.22
970.28	155.05
970.447	108.35
970.613	166.86
970.779	113
970.945	136.83
971.112	123.47
971.278	109.9
971.444	94.79
971.61	139.16
971.776	98.86
971.942	104.09
972.108	147.49
972.275	103.9
972.441	125.02
972.607	160.08
972.773	112.81
972.939	100.02
973.105	86.65
973.271	80.65
973.437	121.92
973.602	94.21
973.768	115.33
973.934	112.03
974.1	108.16
974.266	44.42
974.432	129.08
974.598	94.6
974.763	106.8
974.929	88.59
975.095	136.83
975.261	94.98
975.426	71.35
975.592	87.04
975.758	156.21
975.923	68.83
976.089	84.72
976.255	123.27
976.42	137.42
976.586	127.92
976.751	110.48
976.917	161.05
977.082	117.07
977.248	65.54
977.413	58.56
977.579	97.7
977.744	106.03
977.91	51.78
978.075	76.58
978.24	130.83
978.406	88.59
978.571	95.76
978.736	70.77
978.902	88.78
979.067	72.51
979.232	67.08
979.397	86.65
979.563	144.97
979.728	59.92
979.893	82
980.058	101.38
980.223	134.12
980.388	110.29
980.554	108.74
980.719	69.6
980.884	94.02
981.049	140.32
981.214	89.37
981.379	129.47
981.544	57.4
981.709	105.06
981.874	108.74
982.039	95.57
982.204	105.83
982.368	117.27
982.533	58.95
982.698	136.64
982.863	131.02
983.028	88.01
983.193	89.75
983.357	108.16
983.522	85.1
983.687	89.17
983.852	83.36
984.016	81.23
984.181	132.77
984.346	97.7
984.51	113.39
984.675	112.42
984.839	100.99
985.004	132.18
985.168	123.47
985.333	84.52
985.498	100.8
985.662	134.9
985.827	104.48
985.991	90.14
986.155	104.28
986.32	108.16
986.484	155.43
986.649	118.43
986.813	80.07
986.977	98.28
987.142	103.51
987.306	53.14
987.47	86.27
987.634	104.09
987.799	93.43
987.963	105.25
988.127	143.62
988.291	158.53
988.455	98.08
988.62	119.01
988.784	121.33
988.948	113.2
989.112	47.9
989.276	113.2
989.44	86.07
989.604	82.2
989.768	85.1
989.932	161.25
990.096	54.3
990.26	70.57
990.424	62.44
990.588	100.02
990.752	146.13
990.915	141.87
991.079	83.17
991.243	55.85
991.407	133.15
991.571	78.52
991.734	117.65
991.898	88.59
992.062	163.18
992.226	72.9
992.389	29.69
992.553	44.03
992.717	55.07
992.88	81.62
993.044	78.9
993.207	74.06
993.371	103.12
993.535	108.74
993.698	77.35
993.862	122.88
994.025	133.15
994.189	113.78
994.352	102.93
994.515	83.17
994.679	116.3
994.842	60.3
995.006	128.7
995.169	49.84
995.332	66.31
995.496	116.88
995.659	50.04
995.822	82.2
995.985	75.03
996.149	147.3
996.312	70.38
996.475	138.97
996.638	36.28
996.801	132.38
996.964	149.23
997.128	51.39
997.291	69.41
997.454	81.62
997.617	36.67
997.78	113.78
997.943	56.24
998.106	103.32
998.269	42.67
998.432	97.5
998.595	88.01
998.758	58.95
998.92	66.31
999.083	27.17
999.246	72.51
999.409	25.04
999.572	16.9
999.735	43.64
999.897	75.22
1000.06	51
1000.223	69.8
1000.386	91.69
1000.548	88.78
1000.711	77.74
1000.874	75.22
1001.036	19.81
1001.199	99.83
1001.361	57.79
1001.524	101.57
1001.687	103.7
1001.849	48.87
1002.012	67.86
1002.174	83.75
1002.337	73.48
1002.499	79.87
1002.661	97.89
1002.824	17.68
1002.986	24.07
1003.149	84.91
1003.311	17.1
1003.473	109.32
1003.636	26.59
1003.798	82.97
1003.96	81.81
1004.123	51.2
1004.285	58.17
1004.447	56.62
1004.609	54.1
1004.771	111.07
1004.933	31.24
1005.096	15.74
1005.258	6.83
1005.42	56.04
1005.582	77.74
1005.744	62.05
1005.906	24.46
1006.068	68.44
1006.23	11.29
1006.392	11.48
1006.554	18.07
1006.716	98.47
1006.878	66.7
1007.04	-0.92
1007.202	41.12
1007.363	66.12
1007.525	55.27
1007.687	81.03
1007.849	94.4
1008.011	21.17
1008.172	27.17
1008.334	51.59
1008.496	62.44
1008.658	11.48
1008.819	16.13
1008.981	5.28
1009.143	17.68
1009.304	69.41
1009.466	89.17
1009.627	100.22
1009.789	133.93
1009.95	56.24
1010.112	21.94
1010.273	51
1010.435	37.25
1010.596	33.57
1010.758	35.5
1010.919	45.77
1011.081	-2.08
1011.242	38.6
1011.403	44.8
1011.565	32.02
1011.726	56.43
1011.887	5.47
1012.049	62.44
1012.21	43.45
1012.371	78.71
1012.532	-27.85
1012.693	43.64
1012.855	-1.11
1013.016	65.54
1013.177	64.57
1013.338	58.17
1013.499	100.99
1013.66	54.88
1013.821	62.24
1013.982	52.17
1014.143	44.8
1014.304	32.79
1014.465	56.82
1014.626	72.32
1014.787	38.99
1014.948	93.05
1015.109	-39.28
1015.27	84.72
1015.431	19.42
1015.592	12.45
1015.752	84.52
1015.913	56.82
1016.074	73.48
1016.235	38.8
1016.395	61.85
1016.556	27.75
1016.717	7.22
1016.877	79.29
1017.038	29.5
1017.199	41.7
1017.359	26.4
1017.52	42.87
1017.681	19.23
1017.841	27.37
1018.002	40.15
1018.162	29.69
1018.323	70.77
1018.483	30.27
1018.644	15.35
1018.804	14.97
1018.964	16.52
1019.125	33.37
1019.285	22.52
1019.446	20.2
1019.606	0.05
1019.766	-0.53
1019.926	64.18
1020.087	38.99
1020.247	-13.13
1020.407	68.05
1020.567	76.77
1020.728	18.45
1020.888	1.6
1021.048	15.94
1021.208	34.34
1021.368	43.84
1021.528	52.17
1021.688	43.25
1021.848	59.14
1022.008	24.07
1022.168	28.92
1022.328	23.1
1022.488	53.91
1022.648	-7.31
1022.808	22.52
1022.968	40.35
1023.128	2.18
1023.288	15.55
1023.448	29.89
1023.608	54.69
1023.767	17.87
1023.927	13.03
1024.087	1.99
1024.247	-13.51
1024.406	3.54
1024.566	-17.2
1024.726	-0.92
1024.885	18.45
1025.045	52.75
1025.205	33.95
1025.364	20.2
1025.524	33.76
1025.683	6.05
1025.843	40.93
1026.003	21.94
1026.162	105.06
1026.321	50.04
1026.481	28.14
1026.64	2.76
1026.8	22.72
1026.959	24.27
1027.119	21.75
1027.278	14.97
1027.437	12.45
1027.597	27.75
1027.756	37.83
1027.915	48.87
1028.074	33.76
1028.234	-25.91
1028.393	48.87
1028.552	12.06
1028.711	-44.32
1028.87	49.26
1029.03	-3.25
1029.189	25.82
1029.348	-30.95
1029.507	-6.93
1029.666	-9.64
1029.825	-15.45
1029.984	-9.45
1030.143	20.78
1030.302	12.06
1030.461	-43.93
1030.62	20.78
1030.779	44.8
1030.938	-26.3
1031.097	-9.64
1031.255	54.88
1031.414	74.64
1031.573	47.71
1031.732	-18.94
1031.891	8.38
1032.049	71.15
1032.208	26.79
1032.367	3.73
1032.525	7.8
1032.684	13.42
1032.843	1.02
1033.001	-17
1033.16	145.75
1033.319	63.79
1033.477	38.02
1033.636	18.26
1033.794	-14.1
1033.953	57.2
1034.111	44.8
1034.27	-4.6
1034.428	7.8
1034.587	-11.58
1034.745	8.77
1034.903	23.69
1035.062	50.62
1035.22	-10.8
1035.378	42.87
1035.537	-32.89
1035.695	47.13
1035.853	5.67
1036.011	33.76
1036.17	27.56
1036.328	-42.38
1036.486	17.68
1036.644	46.16
1036.802	-46.64
1036.96	-11
1037.119	13.42
1037.277	7.6
1037.435	-24.36
1037.593	-8.86
1037.751	19.42
1037.909	32.21
1038.067	32.21
