Data from gum_young_FLMT105791__111__17-40-39-030.txt Node

Date: Mon Mar 20 17:40:39 GMT 2023
User: antho
Spectrometer: FLMT10579
Trigger mode: 0
Integration Time (sec): 1.000000E-1
Scans to average: 10
Electric dark correction enabled: true
Nonlinearity correction enabled: false
Boxcar width: 0
XAxis mode: Wavelengths
Number of Pixels in Spectrum: 3648
>>>>>Begin Spectral Data<<<<<
345.248	-162.67
345.464	-162.67
345.681	-162.67
345.898	-163.25
346.114	-157.05
346.331	-26.66
346.548	42.51
346.764	3.76
346.981	-10.38
347.197	-7.48
347.414	27.01
347.631	-18.91
347.847	45.22
348.064	-27.63
348.28	21.97
348.497	-48.55
348.713	-0.89
348.93	21.78
349.146	20.42
349.363	0.86
349.579	23.33
349.796	-5.93
350.012	-33.24
350.229	10.16
350.445	18.87
350.661	-12.13
350.878	16.55
351.094	23.52
351.311	20.81
351.527	24.69
351.743	-15.61
351.96	25.07
352.176	47.16
352.392	38.25
352.609	20.04
352.825	-20.26
353.041	9.38
353.257	-5.54
353.474	-2.05
353.69	18.68
353.906	-2.44
354.122	-32.08
354.339	51.42
354.555	16.16
354.771	15.77
354.987	58.4
355.203	35.15
355.42	-11.93
355.636	-11.93
355.852	-13.29
356.068	4.54
356.284	-32.28
356.5	66.54
356.716	21.2
356.932	16.55
357.148	1.82
357.364	-22.59
357.58	31.66
357.796	42.32
358.012	48.71
358.228	22.75
358.444	-49.71
358.66	32.82
358.876	45.42
359.092	5.51
359.308	9.57
359.524	28.37
359.74	10.35
359.956	2.6
360.172	15.58
360.388	42.71
360.604	-7.48
360.819	81.45
361.035	19.46
361.251	32.82
361.467	-13.29
361.683	38.25
361.898	29.72
362.114	23.52
362.33	-0.11
362.546	52.78
362.762	-5.93
362.977	25.07
363.193	-10.77
363.409	13.06
363.624	-18.91
363.84	-0.69
364.056	4.15
364.271	31.66
364.487	31.86
364.703	-16.39
364.918	-12.9
365.134	-3.41
365.35	-5.15
365.565	97.54
365.781	-1.28
365.996	34.37
366.212	53.55
366.427	25.27
366.643	3.37
366.858	8.02
367.074	-27.24
367.289	39.99
367.505	107.22
367.72	-30.73
367.936	8.41
368.151	32.44
368.367	33.02
368.582	9.57
368.798	-4.38
369.013	63.24
369.228	8.41
369.444	16.94
369.659	47.94
369.874	22.75
370.09	87.85
370.305	-14.06
370.52	12.09
370.736	65.76
370.951	10.16
371.166	67.5
371.381	77.77
371.597	57.04
371.812	-4.18
372.027	-4.57
372.242	29.72
372.458	84.75
372.673	-0.69
372.888	1.82
373.103	32.63
373.318	68.09
373.533	23.52
373.749	25.07
373.964	-29.95
374.179	43.67
374.394	-10.38
374.609	61.89
374.824	-28.4
375.039	77.39
375.254	10.93
375.469	40.57
375.684	40.77
375.899	52.97
376.114	9.96
376.329	47.94
376.544	69.64
376.759	57.82
376.974	-10.77
377.189	11.32
377.404	21.97
377.619	66.92
377.834	-27.04
378.049	-9.61
378.264	-11.74
378.478	34.96
378.693	1.82
378.908	37.47
379.123	7.44
379.338	82.04
379.553	34.37
379.767	26.43
379.982	21.78
380.197	44.45
380.412	19.07
380.626	53.55
380.841	123.89
381.056	46.97
381.271	63.82
381.485	5.89
381.7	10.54
381.915	26.43
382.129	12.09
382.344	33.41
382.559	35.15
382.773	67.89
382.988	3.37
383.202	33.21
383.417	-14.26
383.632	113.04
383.846	29.34
384.061	53.75
384.275	11.51
384.49	49.87
384.704	49.68
384.919	47.94
385.133	18.87
385.348	39.8
385.562	-1.66
385.777	51.04
385.991	36.12
386.206	0.86
386.42	11.51
386.634	72.54
386.849	50.26
387.063	62.66
387.277	12.87
387.492	6.09
387.706	21.01
387.92	-4.38
388.135	89.79
388.349	56.46
388.563	51.42
388.778	45.81
388.992	52.97
389.206	69.25
389.42	99.67
389.635	15.39
389.849	52.59
390.063	80.29
390.277	49.1
390.491	71.19
390.706	84.94
390.92	72.15
391.134	49.1
391.348	64.99
391.562	-19.68
391.776	46.77
391.99	28.95
392.205	83.97
392.419	15.19
392.633	33.41
392.847	88.24
393.061	18.29
393.275	74.29
393.489	33.41
393.703	50.26
393.917	77.77
394.131	11.9
394.345	46
394.559	79.71
394.773	33.21
394.986	53.75
395.2	41.74
395.414	48.32
395.628	68.28
395.842	55.69
396.056	48.91
396.27	-10.19
396.484	55.3
396.697	52.97
396.911	100.05
397.125	65.18
397.339	71.77
397.553	83.2
397.766	95.21
397.98	64.4
398.194	90.75
398.408	48.52
398.621	80.87
398.835	79.52
399.049	89.4
399.262	82.04
399.476	106.84
399.69	102.19
399.903	146.36
400.117	95.6
400.331	132.99
400.544	74.29
400.758	183.75
400.971	115.17
401.185	127.76
401.398	57.43
401.612	114.39
401.826	109.35
402.039	124.47
402.253	48.52
402.466	105.48
402.68	115.36
402.893	122.14
403.106	97.34
403.32	105.48
403.533	112.26
403.747	98.12
403.96	88.24
404.174	129.12
404.387	72.74
404.6	99.47
404.814	126.99
405.027	77.19
405.24	109.94
405.454	97.73
405.667	125.82
405.88	62.27
406.094	104.51
406.307	147.52
406.52	122.53
406.733	95.21
406.947	52.97
407.16	139
407.373	118.27
407.586	89.01
407.799	63.82
408.012	150.43
408.226	119.82
408.439	155.27
408.652	58.59
408.865	95.4
409.078	141.52
409.291	121.95
409.504	90.37
409.717	144.23
409.93	105.67
410.143	129.89
410.357	57.82
410.57	69.25
410.783	88.43
410.996	150.62
411.209	130.67
411.421	172.32
411.634	132.02
411.847	122.53
412.06	133.77
412.273	148.3
412.486	140.93
412.699	223.47
412.912	119.04
413.125	123.11
413.338	146.36
413.55	146.36
413.763	137.25
413.976	139.58
414.189	103.74
414.402	120.79
414.615	165.73
414.827	110.71
415.04	148.68
415.253	129.7
415.466	156.05
415.678	201.97
415.891	132.22
416.104	131.44
416.316	147.13
416.529	135.51
416.742	172.13
416.954	169.61
417.167	145.39
417.38	121.37
417.592	185.3
417.805	95.21
418.017	109.16
418.23	149.65
418.442	126.02
418.655	112.84
418.868	143.65
419.08	191.12
419.293	171.35
419.505	157.6
419.718	163.02
419.93	168.45
420.142	133.57
420.355	165.54
420.567	192.28
420.78	163.22
420.992	132.22
421.205	200.03
421.417	101.8
421.629	135.51
421.842	123.3
422.054	91.34
422.266	181.04
422.479	191.89
422.691	161.67
422.903	197.51
423.115	148.88
423.328	144.23
423.54	200.8
423.752	139.77
423.964	161.47
424.177	181.23
424.389	148.88
424.601	231.8
424.813	182.01
425.025	192.67
425.238	208.94
425.45	158.95
425.662	151.01
425.874	419.93
426.086	186.47
426.298	191.5
426.51	165.73
426.722	164.18
426.934	162.44
427.146	202.55
427.358	149.65
427.57	193.05
427.782	137.45
427.994	159.92
428.206	157.79
428.418	124.85
428.63	171.74
428.842	207.39
429.054	175.23
429.266	186.08
429.478	134.74
429.69	190.92
429.902	107.61
430.114	175.62
430.325	172.13
430.537	134.93
430.749	147.13
430.961	90.75
431.173	129.7
431.384	177.94
431.596	92.11
431.808	167.67
432.02	199.64
432.231	208.75
432.443	224.63
432.655	183.37
432.867	160.31
433.078	213.2
433.29	248.46
433.502	219.21
433.713	247.5
433.925	207.97
434.136	238.39
434.348	179.1
434.56	137.25
434.771	275.98
434.983	173.29
435.194	155.47
435.406	185.69
435.617	238.97
435.829	288.76
436.04	219.02
436.252	249.63
436.463	280.82
436.675	242.85
436.886	241.3
437.098	240.52
437.309	289.35
437.521	238.2
437.732	248.46
437.943	219.98
438.155	235.48
438.366	191.12
438.578	298.45
438.789	206.62
439	246.53
439.211	222.5
439.423	245.95
439.634	236.26
439.845	262.22
440.057	228.51
440.268	260.86
440.479	247.5
440.69	244.78
440.902	246.14
441.113	236.84
441.324	226.38
441.535	262.03
441.746	314.53
441.957	233.93
442.168	263.77
442.38	281.79
442.591	302.13
442.802	238.2
443.013	258.35
443.224	284.5
443.435	294.19
443.646	283.53
443.857	255.25
444.068	276.36
444.279	238.39
444.49	343.79
444.701	292.45
444.912	390.68
445.123	312.6
445.334	296.71
445.545	296.32
445.756	289.15
445.967	229.48
446.178	301.36
446.388	346.89
446.599	307.75
446.81	298.45
447.021	268.23
447.232	328.87
447.443	307.95
447.653	273.65
447.864	349.99
448.075	296.9
448.286	339.72
448.496	308.14
448.707	341.27
448.918	268.23
449.129	361.23
449.339	291.09
449.55	328.09
449.761	306.59
449.971	347.86
450.182	324.8
450.393	355.03
450.603	309.3
450.814	376.14
451.024	355.61
451.235	407.53
451.446	394.94
451.656	405.98
451.867	316.28
452.077	329.84
452.288	405.98
452.498	403.85
452.709	324.8
452.919	348.83
453.13	320.34
453.34	370.91
453.55	270.94
453.761	360.26
453.971	357.35
454.182	372.46
454.392	374.98
454.602	420.51
454.813	370.91
455.023	381.57
455.233	312.79
455.444	377.11
455.654	284.11
455.864	375.95
456.075	363.55
456.285	360.64
456.495	349.6
456.705	394.36
456.916	391.26
457.126	402.49
457.336	405.98
457.546	332.16
457.756	360.84
457.967	429.23
458.177	354.06
458.387	360.64
458.597	363.74
458.807	405.21
459.017	356.38
459.227	364.91
459.437	352.89
459.647	410.63
459.857	418.77
460.068	361.03
460.278	422.06
460.488	389.32
460.698	450.54
460.908	410.44
461.117	346.31
461.327	373.24
461.537	391.64
461.747	409.66
461.957	425.36
462.167	477.86
462.377	442.21
462.587	430.39
462.797	444.92
463.007	439.5
463.216	452.87
463.426	447.83
463.636	435.82
463.846	374.98
464.056	393.97
464.265	441.24
464.475	405.98
464.685	424.58
464.895	461.2
465.104	421.09
465.314	435.43
465.524	420.71
465.733	404.04
465.943	487.16
466.153	496.85
466.362	461.97
466.572	418.57
466.782	422.45
466.991	436.98
467.201	486.97
467.41	386.99
467.62	428.84
467.829	433.49
468.039	467.01
468.249	425.94
468.458	447.06
468.668	474.18
468.877	474.96
469.086	478.83
469.296	487.36
469.505	472.05
469.715	527.65
469.924	481.54
470.134	521.26
470.343	514.48
470.552	451.9
470.762	468.95
470.971	429.81
471.18	466.82
471.39	466.43
471.599	475.54
471.808	480.19
472.018	448.8
472.227	516.42
472.436	541.99
472.645	479.41
472.855	492.97
473.064	541.22
473.273	513.51
473.482	536.76
473.691	556.72
473.901	533.08
474.11	520.1
474.319	597.79
474.528	524.17
474.737	624.14
474.946	573.38
475.155	549.16
475.364	624.92
475.573	568.92
475.783	592.17
475.992	579
476.201	610.58
476.41	564.66
476.619	556.14
476.828	583.26
477.037	560.01
477.245	581.52
477.454	625.11
477.663	568.34
477.872	601.67
478.081	668.31
478.29	570.67
478.499	679.75
478.708	651.65
478.917	705.13
479.125	632.67
479.334	636.73
479.543	647
479.752	650.68
479.961	675.29
480.169	715.4
480.378	666.38
480.587	786.31
480.796	682.46
481.004	678
481.213	708.61
481.422	685.56
481.63	686.14
481.839	718.11
482.048	790.38
482.256	701.83
482.465	761.7
482.674	747.17
482.882	731.86
483.091	804.91
483.299	736.51
483.508	771.39
483.716	783.21
483.925	751.04
484.134	742.33
484.342	744.46
484.551	794.44
484.759	773.13
484.967	756.86
485.176	801.03
485.384	802.39
485.593	805.49
485.801	782.43
486.01	747.75
486.218	732.25
486.426	663.86
486.635	691.37
486.843	657.66
487.051	674.71
487.26	692.15
487.468	758.79
487.676	766.16
487.885	742.91
488.093	772.94
488.301	847.34
488.509	802.58
488.717	826.41
488.926	805.88
489.134	806.65
489.342	811.88
489.55	816.73
489.758	815.95
489.967	843.66
490.175	900.23
490.383	867.87
490.591	952.35
490.799	843.46
491.007	926.39
491.215	887.44
491.423	877.37
491.631	877.17
491.839	901.2
492.047	898.49
492.255	828.35
492.463	841.52
492.671	881.24
492.879	901.39
493.087	901.2
493.295	910.5
493.503	926.77
493.711	946.73
493.919	985.48
494.127	963.97
494.334	999.62
494.542	940.72
494.75	951.77
494.958	942.66
495.166	1018.03
495.374	1011.44
495.581	980.25
495.789	997.88
495.997	1049.8
496.205	965.52
496.412	964.55
496.62	1000.98
496.828	1004.27
497.035	1012.8
497.243	1040.5
497.451	1019.97
497.658	1042.63
497.866	1039.34
498.074	1109.86
498.281	996.33
498.489	1105.21
498.696	1036.43
498.904	1019.19
499.112	1015.32
499.319	1085.84
499.527	1061.62
499.734	1125.36
499.942	1012.8
500.149	1052.32
500.357	1054.65
500.564	1029.85
500.771	1036.82
500.979	1045.73
501.186	1042.63
501.394	1065.5
501.601	1033.92
501.808	1058.13
502.016	1084.68
502.223	1057.75
502.43	1062.78
502.638	1085.65
502.845	1061.43
503.052	1139.51
503.26	1098.24
503.467	1183.3
503.674	1113.55
503.881	1134.28
504.089	1183.1
504.296	1145.32
504.503	1097.08
504.71	1160.82
504.917	1145.51
505.125	1141.45
505.332	1168.18
505.539	1180.97
505.746	1280.56
505.953	1245.29
506.16	1237.35
506.367	1260.41
506.574	1348.17
506.781	1298.57
506.988	1232.89
507.195	1270.68
507.402	1275.32
507.609	1311.56
507.816	1270.29
508.023	1316.4
508.23	1275.52
508.437	1256.53
508.644	1338.1
508.851	1368.52
509.058	1392.54
509.265	1328.41
509.472	1372.2
509.679	1480.7
509.885	1397.19
510.092	1397.77
510.299	1392.54
510.506	1400.68
510.713	1421.8
510.92	1451.44
511.126	1454.35
511.333	1482.83
511.54	1470.43
511.746	1506.85
511.953	1522.74
512.16	1553.35
512.367	1497.17
512.573	1501.43
512.78	1504.92
512.987	1508.98
513.193	1528.17
513.4	1428.19
513.606	1495.62
513.813	1567.3
514.02	1548.9
514.226	1610.9
514.433	1583
514.639	1511.89
514.846	1565.56
515.052	1553.35
515.259	1611.09
515.465	1598.3
515.672	1627.56
515.878	1697.69
516.085	1650.61
516.291	1697.31
516.497	1644.41
516.704	1608.76
516.91	1585.9
517.117	1538.24
517.323	1483.6
517.529	1556.26
517.736	1535.14
517.942	1569.63
518.148	1601.21
518.354	1656.04
518.561	1638.79
518.767	1660.49
518.973	1687.23
519.179	1735.67
519.386	1718.42
519.592	1778.29
519.798	1770.35
520.004	1871.29
520.21	1827.12
520.417	1905.78
520.623	1935.81
520.829	1980.37
521.035	1968.94
521.241	1951.31
521.447	1978.24
521.653	2048.57
521.859	1993.93
522.065	2024.74
522.271	2140.79
522.477	2107.08
522.683	2110.57
522.889	2094.29
523.095	2065.43
523.301	2101.27
523.507	2110.76
523.713	2153.58
523.919	2089.06
524.125	2191.94
524.331	2154.94
524.537	2308
524.742	2284.94
524.948	2324.66
525.154	2324.66
525.36	2405.26
525.566	2298.89
525.772	2367.09
525.977	2269.64
526.183	2333.96
526.389	2368.64
526.595	2276.8
526.8	2251.23
527.006	2174.89
527.212	2137.11
527.417	2159.39
527.623	2160.36
527.829	2232.24
528.034	2273.51
528.24	2294.82
528.446	2336.67
528.651	2422.7
528.857	2455.25
529.062	2547.66
529.268	2522.86
529.473	2500.39
529.679	2541.08
529.884	2607.53
530.09	2599.01
530.295	2589.32
530.501	2592.22
530.706	2566.84
530.912	2575.95
531.117	2619.54
531.323	2638.53
531.528	2707.7
531.733	2645.89
531.939	2633.69
532.144	2684.25
532.35	2682.7
532.555	2724.55
532.76	2623.22
532.966	2631.94
533.171	2608.11
533.376	2563.94
533.581	2542.04
533.787	2661.78
533.992	2698.98
534.197	2696.46
534.402	2686.97
534.607	2719.52
534.813	2775.7
535.018	2688.52
535.223	2748.39
535.428	2776.87
535.633	2788.49
535.838	2831.31
536.043	2801.47
536.249	2907.65
536.454	2832.28
536.659	2837.7
536.864	2830.53
537.069	2819.88
537.274	2850.49
537.479	2837.12
537.684	2811.74
537.889	2780.16
538.094	2906.1
538.299	2809.03
538.504	2880.33
538.708	2881.49
538.913	2940.97
539.118	2870.06
539.323	2888.08
539.528	2854.56
539.733	2880.71
539.938	2849.13
540.142	2851.46
540.347	2816.2
540.552	2779.58
540.757	2826.08
540.962	2822.98
541.166	2756.33
541.371	2743.35
541.576	2794.5
541.781	2743.35
541.985	2889.05
542.19	2841
542.395	2958.99
542.599	2965.38
542.804	2890.6
543.008	2970.61
543.213	2959.38
543.418	2872.58
543.622	2944.26
543.827	2872.38
544.031	2975.46
544.236	2955.11
544.44	2995.03
544.645	3066.13
544.849	2963.64
545.054	3008.59
545.258	3083.76
545.463	3051.6
545.667	2952.98
545.872	2988.44
546.076	3002
546.281	3015.18
546.485	2951.04
546.689	3064.97
546.894	3039.59
547.098	3024.67
547.302	2987.86
547.507	3036.68
547.711	3033.39
547.915	3079.5
548.119	2997.54
548.324	2977.98
548.528	3003.16
548.732	3019.63
548.936	3090.35
549.141	3049.47
549.345	3061.09
549.549	3047.53
549.753	3077.95
549.957	3150.6
550.161	3162.81
550.366	3094.03
550.57	3041.33
550.774	3081.82
550.978	3085.7
551.182	3097.32
551.386	3054.89
551.59	3071.56
551.794	3044.04
551.998	3124.45
552.202	3111.66
552.406	3093.84
552.61	3165.72
552.814	3117.67
553.018	3133.55
553.222	3019.63
553.426	3015.37
553.63	3151.57
553.833	3094.81
554.037	3061.67
554.241	3050.05
554.445	3089.38
554.649	3071.36
554.853	3081.05
555.056	3111.47
555.26	3135.88
555.464	3139.17
555.668	3120.96
555.871	3131.81
556.075	3100.81
556.279	3058.96
556.483	3043.07
556.686	2999.68
556.89	3035.32
557.094	3074.85
557.297	2978.36
557.501	3039.97
557.704	2946.78
557.908	3014.98
558.112	2948.53
558.315	3076.21
558.519	2981.85
558.722	2953.76
558.926	2958.41
559.129	2857.27
559.333	2856.5
559.536	2880.13
559.74	2850.1
559.943	2839.45
560.147	2864.83
560.35	2847
560.553	2872.38
560.757	2806.12
560.96	2914.62
561.164	2858.43
561.367	2928.18
561.57	2874.32
561.774	2889.43
561.977	2820.85
562.18	2843.52
562.384	2967.51
562.587	2834.02
562.79	2875.87
562.993	2818.72
563.197	2872.58
563.4	2890.98
563.603	2886.14
563.806	2914.62
564.009	2804.57
564.212	2858.24
564.416	2747.22
564.619	2784.23
564.822	2726.69
565.025	2823.56
565.228	2748.19
565.431	2789.65
565.634	2704.21
565.837	2719.32
566.04	2664.69
566.243	2651.9
566.446	2558.9
566.649	2680.38
566.852	2616.44
567.055	2613.54
567.258	2647.83
567.461	2712.35
567.664	2716.42
567.867	2584.86
568.07	2599.97
568.273	2630.78
568.475	2689.1
568.678	2533.71
568.881	2553.48
569.084	2547.47
569.287	2412.62
569.489	2428.31
569.692	2529.84
569.895	2502.52
570.098	2431.03
570.3	2407.58
570.503	2347.13
570.706	2394.22
570.909	2361.67
571.111	2338.22
571.314	2328.92
571.516	2332.6
571.719	2354.3
571.922	2305.67
572.124	2307.61
572.327	2343.26
572.529	2290.37
572.732	2282.23
572.935	2338.03
573.137	2411.26
573.34	2326.21
573.542	2368.45
573.745	2342.87
573.947	2322.14
574.15	2289.4
574.352	2268.28
574.554	2343.45
574.757	2258.79
574.959	2212.48
575.162	2215.19
575.364	2177.8
575.566	2306.64
575.769	2146.8
575.971	2229.53
576.173	2065.43
576.376	2152.42
576.578	2204.54
576.78	2227.79
576.982	2111.15
577.185	2136.73
577.387	2103.01
577.589	2145.44
577.791	2149.51
577.993	2123.55
578.196	2127.43
578.398	2146.8
578.6	2125.29
578.802	2049.93
579.004	2047.8
579.206	2066.39
579.408	2105.53
579.61	2083.44
579.812	2143.12
580.014	2050.9
580.216	2071.24
580.418	2079.76
580.62	2055.35
580.822	2025.9
581.024	2082.09
581.226	2130.72
581.428	2103.4
581.63	2146.61
581.832	2079.57
582.034	2168.89
582.236	2091.58
582.438	2157.84
582.64	2154.55
582.841	2177.99
583.043	2240.57
583.245	2161.72
583.447	2151.45
583.649	2150.48
583.85	2134.79
584.052	2167.92
584.254	2081.89
584.456	2174.89
584.657	2066.98
584.859	2124.71
585.061	2114.25
585.262	2114.83
585.464	2041.98
585.666	2086.74
585.867	2029.58
586.069	2096.43
586.27	2051.67
586.472	2047.02
586.674	2017.18
586.875	2003.23
587.077	2026.1
587.278	2065.23
587.48	2030.55
587.681	2112.31
587.883	2064.26
588.084	1971.65
588.285	1986.38
588.487	1980.95
588.688	1952.08
588.89	1866.25
589.091	1850.37
589.292	1792.24
589.494	1746.52
589.695	1714.74
589.896	1683.36
590.098	1706.03
590.299	1726.56
590.5	1698.47
590.702	1760.08
590.903	1737.8
591.104	1832.15
591.305	1843.97
591.507	1881.95
591.708	1860.64
591.909	1818.98
592.11	1870.9
592.311	1870.9
592.512	1787.01
592.714	1786.24
592.915	1797.09
593.116	1799.99
593.317	1843.2
593.518	1843.97
593.719	1832.54
593.92	1855.6
594.121	1886.21
594.322	1820.72
594.523	1827.5
594.724	1778.68
594.925	1793.6
595.126	1798.83
595.327	1845.14
595.528	1796.31
595.729	1798.83
595.929	1819.95
596.13	1834.87
596.331	1836.42
596.532	1854.63
596.733	1882.14
596.934	1876.72
597.135	1833.7
597.335	1838.35
597.536	1813.94
597.737	1837.77
597.938	1781.59
598.138	1854.05
598.339	1842.42
598.54	1861.02
598.74	1817.04
598.941	1819.75
599.142	1884.47
599.342	1834.29
599.543	1820.34
599.744	1836.03
599.944	1805.22
600.145	1828.47
600.345	1834.67
600.546	1915.08
600.746	1899.38
600.947	1886.4
601.147	1837
601.348	1873.04
601.548	1792.44
601.749	1852.11
601.949	1756.01
602.15	1779.46
602.35	1783.72
602.551	1843
602.751	1757.95
602.951	1759.89
603.152	1755.82
603.352	1807.35
603.552	1785.27
603.753	1822.08
603.953	1862.77
604.153	1824.6
604.354	1815.69
604.554	1780.04
604.754	1794.96
604.954	1772.87
605.155	1831.57
605.355	1794.57
605.555	1822.85
605.755	1830.8
605.955	1778.29
606.155	1840.1
606.356	1761.05
606.556	1806.97
606.756	1811.23
606.956	1736.44
607.156	1841.84
607.356	1812.78
607.556	1804.45
607.756	1750.01
607.956	1844.94
608.156	1768.02
608.356	1740.12
608.556	1758.92
608.756	1715.13
608.956	1677.16
609.156	1727.92
609.356	1750.78
609.556	1690.14
609.755	1737.8
609.955	1678.9
610.155	1725.4
610.355	1714.16
610.555	1685.29
610.755	1676.19
610.954	1631.24
611.154	1649.64
611.354	1722.49
611.554	1669.6
611.753	1647.9
611.953	1622.91
612.153	1670.76
612.352	1650.23
612.552	1627.75
612.752	1595.78
612.951	1651
613.151	1643.06
613.351	1633.76
613.55	1592.88
613.75	1602.95
613.949	1616.32
614.149	1604.31
614.348	1625.62
614.548	1594.81
614.747	1560.33
614.947	1605.47
615.146	1525.07
615.346	1576.6
615.545	1578.54
615.745	1605.47
615.944	1589.78
616.144	1528.75
616.343	1561.88
616.542	1536.69
616.742	1548.31
616.941	1543.08
617.14	1464.03
617.34	1538.24
617.539	1499.3
617.738	1517.7
617.938	1586.68
618.137	1505.5
618.336	1485.15
618.535	1534.56
618.734	1523.32
618.934	1486.51
619.133	1542.31
619.332	1518.09
619.531	1501.43
619.73	1529.72
619.929	1544.25
620.128	1537.27
620.328	1566.14
620.527	1489.61
620.726	1506.27
620.925	1539.79
621.124	1486.12
621.323	1521
621.522	1467.91
621.721	1447.95
621.92	1415.02
622.119	1477.98
622.318	1461.13
622.517	1485.54
622.715	1449.5
622.914	1402.81
623.113	1444.85
623.312	1391.19
623.511	1470.04
623.71	1432.26
623.909	1409.79
624.107	1467.91
624.306	1376.46
624.505	1391.19
624.704	1420.05
624.902	1390.22
625.101	1441.75
625.3	1413.08
625.499	1365.42
625.697	1365.42
625.896	1372.97
626.095	1383.44
626.293	1331.51
626.492	1320.86
626.69	1371.23
626.889	1356.89
627.088	1395.06
627.286	1385.37
627.485	1329.77
627.683	1314.85
627.882	1310.59
628.08	1252.46
628.279	1285.21
628.477	1345.46
628.676	1230.57
628.874	1297.99
629.073	1263.31
629.271	1271.06
629.469	1306.71
629.668	1281.33
629.866	1298.77
630.065	1274.36
630.263	1313.3
630.461	1240.84
630.66	1285.4
630.858	1321.44
631.056	1327.25
631.254	1319.11
631.453	1278.42
631.651	1317.17
631.849	1295.67
632.047	1319.31
632.245	1287.14
632.444	1321.05
632.642	1319.89
632.84	1339.07
633.038	1280.36
633.236	1263.89
633.434	1295.28
633.632	1288.5
633.83	1314.46
634.028	1330.74
634.227	1315.62
634.425	1372.97
634.623	1297.41
634.821	1331.12
635.019	1303.22
635.216	1304.58
635.414	1337.91
635.612	1339.46
635.81	1346.04
636.008	1372.78
636.206	1271.06
636.404	1306.32
636.602	1297.02
636.8	1286.95
636.997	1330.74
637.195	1338.68
637.393	1328.22
637.591	1367.55
637.789	1331.71
637.986	1285.21
638.184	1310.59
638.382	1345.85
638.58	1300.32
638.777	1400.68
638.975	1298.38
639.173	1323.57
639.37	1321.24
639.568	1349.34
639.765	1334.61
639.963	1277.26
640.161	1278.62
640.358	1318.92
640.556	1259.83
640.753	1261.38
640.951	1217.2
641.148	1268.93
641.346	1259.63
641.543	1231.54
641.741	1256.73
641.938	1214.29
642.136	1254.59
642.333	1216.23
642.531	1240.64
642.728	1266.8
642.925	1246.46
643.123	1203.64
643.32	1214.88
643.517	1203.44
643.715	1199.96
643.912	1209.84
644.109	1166.05
644.306	1219.14
644.504	1178.84
644.701	1154.04
644.898	1203.44
645.095	1157.14
645.293	1167.99
645.49	1197.05
645.687	1159.85
645.884	1182.13
646.081	1090.88
646.278	1142.22
646.475	1105.6
646.672	1112.96
646.87	1144.16
647.067	1115.68
647.264	1100.76
647.461	1060.27
647.658	1029.46
647.855	1099.98
648.052	1066.47
648.249	1004.27
648.446	1053.68
648.642	1058.72
648.839	1009.7
649.036	994.59
649.233	980.05
649.43	986.06
649.627	953.9
649.824	1012.6
650.021	982.96
650.217	1000.2
650.414	991.49
650.611	1012.6
650.808	1061.82
651.004	1015.9
651.201	1023.26
651.398	1074.02
651.595	1050.97
651.791	983.54
651.988	1008.34
652.185	975.6
652.381	1014.73
652.578	989.16
652.775	983.54
652.971	1005.44
653.168	1011.25
653.364	1043.6
653.561	946.92
653.757	1029.07
653.954	1005.05
654.15	989.55
654.347	1048.45
654.543	987.8
654.74	967.27
654.936	937.82
655.133	955.84
655.329	974.44
655.525	935.88
655.722	981.99
655.918	885.89
656.115	948.28
656.311	859.54
656.507	818.47
656.704	809.17
656.9	827.38
657.096	838.62
657.292	837.65
657.489	912.05
657.685	916.7
657.881	887.64
658.077	870.97
658.273	894.42
658.47	957.77
658.666	907.79
658.862	959.52
659.058	934.72
659.254	961.45
659.45	938.59
659.646	927.74
659.842	929.87
660.038	968.43
660.234	893.26
660.43	934.14
660.626	955.45
660.822	929.87
661.018	938.4
661.214	933.36
661.41	888.8
661.606	932.39
661.802	934.72
661.998	922.32
662.194	894.22
662.39	933.75
662.586	935.49
662.781	928.71
662.977	938.4
663.173	963.2
663.369	920.38
663.564	922.71
663.76	939.17
663.956	884.15
664.152	912.63
664.347	837.26
664.543	881.44
664.739	869.81
664.934	802.58
665.13	827.77
665.326	872.52
665.521	881.44
665.717	845.4
665.912	853.73
666.108	774.29
666.304	841.33
666.499	845.59
666.695	750.66
666.89	831.45
667.086	873.3
667.281	843.07
667.477	872.72
667.672	813.43
667.867	834.36
668.063	860.51
668.258	827.77
668.454	834.94
668.649	903.52
668.844	858.19
669.04	854.51
669.235	797.54
669.43	822.34
669.626	784.56
669.821	816.92
670.016	807.62
670.211	816.53
670.407	771.19
670.602	817.69
670.797	761.31
670.992	846.17
671.187	804.52
671.382	813.04
671.578	803.36
671.773	823.89
671.968	766.54
672.163	808.78
672.358	835.13
672.553	770.61
672.748	757.63
672.943	877.95
673.138	781.27
673.333	796.38
673.528	743.68
673.723	793.28
673.918	807.62
674.113	744.65
674.308	841.52
674.503	824.28
674.698	816.34
674.892	784.18
675.087	812.27
675.282	797.93
675.477	785.73
675.672	790.57
675.867	752.59
676.061	753.18
676.256	719.85
676.451	779.53
676.646	810.91
676.84	780.88
677.035	723.34
677.23	758.02
677.424	811.49
677.619	804.71
677.814	810.72
678.008	808.98
678.203	744.26
678.397	754.53
678.592	804.13
678.787	868.65
678.981	792.31
679.176	798.51
679.37	785.73
679.565	751.43
679.759	802.39
679.954	812.08
680.148	843.46
680.342	845.01
680.537	807.23
680.731	820.79
680.926	831.06
681.12	851.79
681.314	771.78
681.509	812.66
681.703	805.88
681.897	847.72
682.092	786.5
682.286	811.88
682.48	873.3
682.674	827.19
682.869	830.09
683.063	817.5
683.257	871.17
683.451	781.27
683.645	846.95
683.839	833.19
684.034	807.04
684.228	848.5
684.422	797.16
684.616	785.34
684.81	870.39
685.004	824.67
685.198	815.18
685.392	846.95
685.586	795.99
685.78	854.51
685.974	859.54
686.168	876.79
686.362	936.27
686.556	832.81
686.75	782.63
686.944	761.7
687.138	777.59
687.331	649.33
687.525	676.65
687.719	625.3
687.913	671.03
688.107	667.15
688.301	685.56
688.494	701.25
688.688	674.13
688.882	659.79
689.076	665.02
689.269	722.56
689.463	769.84
689.657	709.97
689.85	745.04
690.044	756.08
690.238	762.28
690.431	778.94
690.625	757.05
690.818	809.75
691.012	855.86
691.205	860.71
691.399	813.82
691.593	889.57
691.786	954.09
691.98	953.12
692.173	987.61
692.366	956.42
692.56	1005.24
692.753	1047.67
692.947	950.8
693.14	1023.84
693.333	1008.73
693.527	1004.66
693.72	1033.33
693.914	1042.25
694.107	1036.82
694.3	1058.72
694.493	1034.11
694.687	1145.51
694.88	1120.71
695.073	1159.08
695.266	1157.91
695.46	1188.53
695.653	1248.59
695.846	1230.96
696.039	1174
696.232	1216.81
696.425	1308.46
696.618	1304.19
696.812	1312.52
697.005	1376.65
697.198	1448.92
697.391	1421.22
697.584	1439.62
697.777	1530.1
697.97	1493.48
698.163	1496.2
698.356	1465.78
698.549	1560.13
698.742	1525.45
698.935	1545.8
699.127	1556.06
699.32	1527.58
699.513	1531.27
699.706	1581.25
699.899	1622.33
700.092	1576.02
700.285	1622.91
700.477	1571.95
700.67	1649.45
700.863	1673.48
701.056	1735.09
701.248	1711.06
701.441	1744.97
701.634	1725.98
701.826	1822.85
702.019	1671.34
702.212	1796.89
702.404	1747.49
702.597	1762.6
702.79	1807.55
702.982	1839.9
703.175	1886.02
703.367	1913.14
703.56	1922.05
703.752	2030.94
703.945	2000.13
704.137	2022.03
704.33	2030.16
704.522	2073.18
704.715	2100.49
704.907	2093.33
705.1	2157.65
705.292	2163.66
705.484	2133.04
705.677	2198.72
705.869	2201.44
706.061	2245.22
706.254	2254.72
706.446	2255.49
706.638	2255.3
706.831	2338.22
707.023	2301.8
707.215	2395.18
707.407	2402.16
707.599	2392.08
707.792	2429.09
707.984	2450.79
708.176	2471.91
708.368	2461.64
708.56	2530.23
708.752	2534.29
708.944	2489.73
709.136	2584.09
709.329	2556.19
709.521	2689.87
709.713	2625.74
709.905	2665.46
710.097	2688.9
710.289	2639.31
710.481	2688.13
710.672	2683.87
710.864	2742.19
711.056	2745.48
711.248	2732.69
711.44	2771.25
711.632	2797.21
711.824	2832.86
712.016	2881.1
712.207	2879.94
712.399	2887.5
712.591	2916.56
712.783	2939.81
712.975	2967.71
713.166	2904.35
713.358	2963.83
713.55	3008.98
713.741	2994.64
713.933	2990.76
714.125	3017.69
714.316	2967.13
714.508	3062.26
714.7	3059.74
714.891	3059.16
715.083	3101.2
715.274	3038.62
715.466	3068.46
715.657	3064.97
715.849	3005.88
716.04	3041.52
716.232	2983.79
716.423	2991.54
716.615	2903.38
716.806	2852.04
716.998	2761.37
717.189	2640.66
717.381	2595.13
717.572	2512.4
717.763	2545.14
717.955	2469.39
718.146	2446.33
718.337	2430.06
718.528	2376
718.72	2219.26
718.911	2321.95
719.102	2183.22
719.293	2290.56
719.485	2231.27
719.676	2221.01
719.867	2170.44
720.058	2209.57
720.249	2234.76
720.44	2192.91
720.632	2303.93
720.823	2374.26
721.014	2534.49
721.205	2533.71
721.396	2638.72
721.587	2818.91
721.778	2849.71
721.969	2857.46
722.16	2920.24
722.351	3007.81
722.542	3103.33
722.733	3135.1
722.924	3027.38
723.115	3101.39
723.305	3013.24
723.496	3044.04
723.687	2868.51
723.878	2903.19
724.069	2886.72
724.26	2883.23
724.45	2803.22
724.641	2825.88
724.832	2830.34
725.023	2796.05
725.213	2798.57
725.404	2716.61
725.595	2760.98
725.785	2765.82
725.976	2867.54
726.167	2843.52
726.357	2789.65
726.548	2921.98
726.739	2855.91
726.929	2936.13
727.12	2935.74
727.31	2988.63
727.501	2881.88
727.691	2875.87
727.882	2912.3
728.072	2969.26
728.263	2939.03
728.453	3039.39
728.644	3041.72
728.834	3005.68
729.024	2919.08
729.215	2961.31
729.405	2958.21
729.596	3064
729.786	3065.16
729.976	3110.5
730.167	3108.17
730.357	3086.28
730.547	3094.61
730.737	3125.22
730.928	3166.1
731.118	3228.88
731.308	3144.99
731.498	3177.92
731.688	3260.27
731.879	3270.92
732.069	3346.29
732.259	3400.34
732.449	3440.84
732.639	3496.64
732.829	3540.42
733.019	3584.99
733.209	3654.54
733.399	3680.12
733.589	3775.44
733.779	3829.11
733.969	3776.02
734.159	3875.22
734.349	3932.57
734.539	3950.97
734.729	3967.83
734.919	3992.63
735.109	4038.74
735.299	3915.71
735.488	4030.99
735.678	3943.61
735.868	4018.98
736.058	4006.97
736.248	4012.97
736.437	3923.46
736.627	3928.11
736.817	3999.22
737.007	3949.42
737.196	4069.74
737.386	4024.21
737.576	4014.52
737.765	4143.17
737.955	4050.17
738.144	4190.83
738.334	4206.33
738.524	4070.52
738.713	4147.82
738.903	4122.44
739.092	4189.48
739.282	4144.72
739.471	4174.17
739.661	4169.71
739.85	4252.83
740.04	4196.65
740.229	4290.23
740.419	4291.78
740.608	4284.99
740.797	4267.17
740.987	4340.79
741.176	4327.43
741.365	4277.24
741.555	4250.51
741.744	4328.98
741.933	4291.19
742.123	4320.06
742.312	4338.27
742.501	4375.47
742.69	4407.83
742.88	4292.16
743.069	4438.44
743.258	4413.84
743.447	4444.84
743.636	4402.02
743.825	4378.57
744.014	4408.41
744.204	4492.11
744.393	4350.29
744.582	4498.12
744.771	4463.05
744.96	4467.89
745.149	4465.95
745.338	4439.99
745.527	4464.99
745.716	4433.6
745.905	4439.41
746.094	4493.66
746.283	4503.15
746.471	4400.66
746.66	4525.63
746.849	4482.62
747.038	4509.16
747.227	4448.52
747.416	4514.78
747.604	4491.72
747.793	4448.32
747.982	4478.16
748.171	4483.59
748.359	4451.23
748.548	4492.11
748.737	4477.97
748.926	4461.5
749.114	4382.26
749.303	4464.6
749.491	4446.97
749.68	4373.73
749.869	4452.78
750.057	4410.54
750.246	4397.56
750.434	4434.18
750.623	4424.69
750.811	4345.44
751	4428.56
751.188	4368.89
751.377	4390.59
751.565	4357.65
751.754	4355.32
751.942	4319.87
752.131	4417.52
752.319	4332.08
752.507	4291.58
752.696	4356.1
752.884	4349.71
753.072	4290.42
753.261	4343.51
753.449	4362.11
753.637	4273.76
753.825	4376.25
754.014	4331.49
754.202	4308.05
754.39	4386.91
754.578	4341.76
754.766	4309.41
754.955	4262.13
755.143	4334.59
755.331	4283.25
755.519	4287.32
755.707	4275.5
755.895	4254.58
756.083	4248.18
756.271	4225.32
756.459	4237.91
756.647	4278.21
756.835	4182.31
757.023	4198.58
757.211	4177.08
757.399	4189.67
757.587	4191.41
757.775	4134.84
757.963	4155.57
758.151	4155.77
758.339	4121.47
758.526	4077.3
758.714	4124.96
758.902	3979.26
759.09	3906.99
759.278	3613.85
759.465	3339.51
759.653	2954.53
759.841	2638.14
760.028	2271.38
760.216	1989.67
760.404	1818.59
760.591	1519.64
760.779	1265.64
760.967	1122.07
761.154	896.36
761.342	919.41
761.529	894.22
761.717	954.48
761.905	936.07
762.092	1017.83
762.28	972.5
762.467	957.58
762.655	840.36
762.842	904.49
763.029	900.42
763.217	890.16
763.404	915.92
763.592	932.2
763.779	873.69
763.966	917.47
764.154	971.92
764.341	1015.51
764.528	1031.78
764.716	1112.38
764.903	1196.66
765.09	1270.68
765.277	1355.15
765.465	1504.33
765.652	1583.19
765.839	1668.83
766.026	1832.35
766.213	1908.3
766.4	2045.28
766.588	2268.86
766.775	2279.52
766.962	2411.46
767.149	2510.27
767.336	2690.45
767.523	2696.65
767.71	2834.02
767.897	2993.48
768.084	3088.99
768.271	3131.42
768.458	3202.14
768.645	3275.38
768.832	3272.08
769.019	3349.58
769.206	3410.81
769.392	3473.19
769.579	3558.25
769.766	3531.71
769.953	3568.13
770.14	3603.39
770.327	3596.22
770.513	3639.82
770.7	3713.05
770.887	3623.35
771.073	3682.63
771.26	3707.82
771.447	3672.37
771.634	3613.27
771.82	3732.04
772.007	3644.27
772.193	3714.22
772.38	3689.03
772.567	3725.06
772.753	3667.13
772.94	3723.71
773.126	3687.87
773.313	3699.88
773.499	3699.68
773.686	3728.16
773.872	3604.75
774.059	3705.88
774.245	3640.98
774.432	3644.08
774.618	3556.7
774.804	3650.08
774.991	3578.01
775.177	3640.2
775.363	3621.99
775.55	3652.6
775.736	3607.85
775.922	3641.37
776.109	3597.58
776.295	3627.03
776.481	3641.95
776.667	3610.75
776.853	3590.22
777.04	3597.58
777.226	3572.2
777.412	3627.03
777.598	3533.45
777.784	3555.92
777.97	3509.23
778.156	3567.94
778.342	3521.82
778.528	3520.08
778.715	3485.01
778.901	3468.16
779.087	3522.02
779.272	3456.53
779.458	3431.73
779.644	3520.08
779.83	3449.17
780.016	3547.01
780.202	3460.99
780.388	3462.73
780.574	3408.87
780.76	3430.38
780.946	3441.61
781.131	3435.22
781.317	3411.19
781.503	3390.85
781.689	3387.17
781.874	3491.6
782.06	3399.38
782.246	3395.11
782.432	3392.01
782.617	3428.83
782.803	3416.43
782.989	3355.01
783.174	3316.84
783.36	3284.1
783.545	3321.88
783.731	3315.68
783.916	3210.67
784.102	3315.87
784.288	3306.57
784.473	3291.65
784.659	3239.92
784.844	3290.49
785.029	3260.85
785.215	3238.57
785.4	3176.76
785.586	3315.68
785.771	3178.89
785.956	3227.52
786.142	3218.42
786.327	3194.59
786.512	3151.77
786.698	3147.89
786.883	3073.11
787.068	3158.94
787.254	3174.63
787.439	3142.66
787.624	3113.21
787.809	3089.77
787.994	3062.84
788.18	3126.77
788.365	3060.9
788.55	3079.69
788.735	3057.99
788.92	3012.46
789.105	2987.28
789.29	3039.2
789.475	2994.64
789.66	2996.19
789.845	2954.14
790.03	2929.35
790.215	2987.86
790.4	2988.44
790.585	2992.7
790.77	2947.94
790.955	2890.79
791.14	2938.06
791.325	2991.73
791.51	2834.6
791.695	2957.63
791.879	2939.81
792.064	2905.71
792.249	2969.26
792.434	2913.26
792.618	2925.28
792.803	2937.68
792.988	2882.46
793.173	2913.65
793.357	2943.88
793.542	2917.72
793.727	2918.5
793.911	2992.31
794.096	2921.79
794.281	2980.3
794.465	3006.65
794.65	2940
794.834	2988.63
795.019	2994.83
795.203	3015.76
795.388	3025.83
795.572	3006.84
795.757	2982.24
795.941	2989.41
796.126	2958.99
796.31	2925.86
796.494	2971.78
796.679	2936.9
796.863	2909.39
797.048	3007.81
797.232	2927.41
797.416	2952.21
797.601	2940.19
797.785	3018.28
797.969	3002.58
798.153	2948.53
798.338	3010.53
798.522	3031.64
798.706	3033.19
798.89	3030.67
799.074	3139.17
799.258	3097.71
799.443	3049.86
799.627	3006.07
799.811	3064.39
799.995	3001.81
800.179	2968.29
800.363	2984.95
800.547	2993.86
800.731	3038.23
800.915	2902.8
801.099	2922.76
801.283	2964.41
801.467	2969.45
801.651	2941.16
801.835	2983.01
802.019	2994.44
802.202	2984.56
802.386	2906.87
802.57	2907.65
802.754	2933.8
802.938	2937.09
803.121	2907.84
803.305	2991.54
803.489	2967.13
803.673	2954.73
803.856	2935.54
804.04	2952.98
804.224	2991.54
804.407	2934
804.591	2947.36
804.775	2903.58
804.958	2929.35
805.142	3068.26
805.326	2999.29
805.509	2952.21
805.693	3014.01
805.876	3009.17
806.06	2985.34
806.243	3042.11
806.427	3027.96
806.61	3052.96
806.794	3008.78
806.977	3062.64
807.16	3007.04
807.344	3015.76
807.527	2998.51
807.71	2992.89
807.894	2995.8
808.077	3012.85
808.26	2990.96
808.444	2959.57
808.627	2996.58
808.81	2957.24
808.993	2899.51
809.177	2874.71
809.36	2876.65
809.543	2904.55
809.726	2819.68
809.909	2812.13
810.092	2784.62
810.276	2800.12
810.459	2792.37
810.642	2778.42
810.825	2727.07
811.008	2734.24
811.191	2615.67
811.374	2672.82
811.557	2661.39
811.74	2712.93
811.923	2597.46
812.106	2613.54
812.289	2546.89
812.472	2579.24
812.654	2591.84
812.837	2503.1
813.02	2466.68
813.203	2418.05
813.386	2351.98
813.569	2272.54
813.751	2219.07
813.934	2313.04
814.117	2228.56
814.3	2191.75
814.482	2136.14
814.665	2095.07
814.848	2059.61
815.03	1971.07
815.213	1974.95
815.396	1950.15
815.578	1877.69
815.761	1838.55
815.943	1925.93
816.126	1840.29
816.309	1836.03
816.491	1739.35
816.674	1664.95
816.856	1728.11
817.039	1784.11
817.221	1837.19
817.403	1778.87
817.586	1788.95
817.768	1786.43
817.951	1694.98
818.133	1684.13
818.315	1701.57
818.498	1798.83
818.68	1820.92
818.862	1826.15
819.045	1830.41
819.227	1822.66
819.409	1786.82
819.591	1835.06
819.774	1830.8
819.956	1766.67
820.138	1828.67
820.32	1848.43
820.502	1953.05
820.684	2006.53
820.866	2040.63
821.048	2077.44
821.231	2073.56
821.413	2098.56
821.595	2001.88
821.777	2071.82
821.959	2066.98
822.141	2101.46
822.323	1985.41
822.505	1899
822.686	1848.62
822.868	1748.46
823.05	1618.26
823.232	1615.93
823.414	1500.46
823.596	1608.76
823.778	1583.96
823.96	1630.85
824.141	1631.43
824.323	1638.41
824.505	1756.01
824.687	1782.36
824.868	1873.04
825.05	1974.56
825.232	1984.25
825.413	2069.69
825.595	1997.42
825.777	1982.5
825.958	2011.56
826.14	1967.2
826.321	2041.6
826.503	1976.69
826.685	2022.8
826.866	2049.15
827.048	2029
827.229	1947.63
827.411	1939.3
827.592	1886.02
827.773	1868.58
827.955	1821.69
828.136	1792.63
828.318	1798.06
828.499	1853.66
828.68	1782.94
828.862	1772.09
829.043	1818.01
829.224	1767.64
829.406	1768.99
829.587	1754.85
829.768	1790.69
829.949	1766.09
830.131	1790.5
830.312	1869.35
830.493	1812.59
830.674	1810.07
830.855	1810.84
831.036	1770.74
831.218	1891.63
831.399	1889.12
831.58	1785.85
831.761	1840.49
831.942	1827.12
832.123	1817.24
832.304	1755.62
832.485	1796.12
832.666	1821.89
832.847	1820.72
833.028	1801.35
833.209	1782.94
833.389	1796.31
833.57	1741.67
833.751	1766.28
833.932	1846.49
834.113	1804.84
834.294	1781.2
834.475	1862.57
834.655	1880.98
834.836	1882.34
835.017	1842.42
835.198	1805.42
835.378	1885.05
835.559	1932.32
835.74	1844.36
835.92	1864.51
836.101	1860.25
836.281	1891.63
836.462	1846.69
836.643	1884.66
836.823	1896.67
837.004	1895.32
837.184	1947.63
837.365	1921.47
837.545	1921.08
837.726	1867.22
837.906	1949.18
838.087	1911.01
838.267	1924.38
838.448	1886.4
838.628	1906.17
838.808	1889.7
838.989	1971.46
839.169	1871.1
839.349	1939.68
839.53	1930
839.71	1961.19
839.89	1885.44
840.07	2012.92
840.251	1888.15
840.431	1948.98
840.611	1914.5
840.791	1902.87
840.971	1887.18
841.151	1907.72
841.332	1863.74
841.512	1939.88
841.692	1854.24
841.872	1905.78
842.052	1854.05
842.232	1940.27
842.412	1857.54
842.592	1910.04
842.772	1882.92
842.952	1873.62
843.132	1877.49
843.312	1873.04
843.492	1827.31
843.672	1884.85
843.851	1845.91
844.031	1842.42
844.211	1840.68
844.391	1824.21
844.571	1876.14
844.751	1841.65
844.93	1875.94
845.11	1840.68
845.29	1857.54
845.47	1890.47
845.649	1883.11
845.829	1886.79
846.009	1849.2
846.188	1835.45
846.368	1841.45
846.547	1856.18
846.727	1856.37
846.907	1767.06
847.086	1846.69
847.266	1860.83
847.445	1835.25
847.625	1791.66
847.804	1792.05
847.984	1810.26
848.163	1785.46
848.343	1813.36
848.522	1833.12
848.701	1790.31
848.881	1769.38
849.06	1781.39
849.239	1817.62
849.419	1804.64
849.598	1708.16
849.777	1720.94
849.957	1678.32
850.136	1641.31
850.315	1636.66
850.494	1612.64
850.674	1625.04
850.853	1701.38
851.032	1629.88
851.211	1690.72
851.39	1699.83
851.569	1606.05
851.748	1660.11
851.927	1698.08
852.107	1697.89
852.286	1653.33
852.465	1625.81
852.644	1694.98
852.823	1670.96
853.002	1600.43
853.181	1659.72
853.359	1668.44
853.538	1599.85
853.717	1667.47
853.896	1572.34
854.075	1522.16
854.254	1429.94
854.433	1399.32
854.611	1461.13
854.79	1403.78
854.969	1469.07
855.148	1471.78
855.327	1410.37
855.505	1490.77
855.684	1487.87
855.863	1539.21
856.041	1512.67
856.22	1522.93
856.399	1517.12
856.577	1612.83
856.756	1577.96
856.934	1700.79
857.113	1675.8
857.291	1578.73
857.47	1588.81
857.648	1571.95
857.827	1624.65
858.005	1645.38
858.184	1561.49
858.362	1651.97
858.541	1564.4
858.719	1575.63
858.898	1551.03
859.076	1567.5
859.254	1633.18
859.433	1548.31
859.611	1554.71
859.789	1527.2
859.967	1619.03
860.146	1630.27
860.324	1546.38
860.502	1536.88
860.68	1539.79
860.859	1521.58
861.037	1531.85
861.215	1518.87
861.393	1533.98
861.571	1530.1
861.749	1513.63
861.927	1556.06
862.105	1539.79
862.283	1486.51
862.461	1480.89
862.639	1488.06
862.817	1497.36
862.995	1498.33
863.173	1479.15
863.351	1534.75
863.529	1503.75
863.707	1550.06
863.885	1492.71
864.063	1460.35
864.241	1472.95
864.418	1508.4
864.596	1474.5
864.774	1430.52
864.952	1460.35
865.129	1491.74
865.307	1438.27
865.485	1386.15
865.663	1464.03
865.84	1343.72
866.018	1408.43
866.196	1271.26
866.373	1272.81
866.551	1231.54
866.728	1199.96
866.906	1241.03
867.084	1278.62
867.261	1291.21
867.439	1312.72
867.616	1307.29
867.794	1329.96
867.971	1325.51
868.149	1350.31
868.326	1404.75
868.503	1377.24
868.681	1371.04
868.858	1309.23
869.035	1302.45
869.213	1377.04
869.39	1329.96
869.567	1436.91
869.745	1366.19
869.922	1378.4
870.099	1404.36
870.276	1376.65
870.454	1355.92
870.631	1359.22
870.808	1372.39
870.985	1369.49
871.162	1428.77
871.339	1366.97
871.517	1306.52
871.694	1315.43
871.871	1332.48
872.048	1294.89
872.225	1351.08
872.402	1331.9
872.579	1260.6
872.756	1303.61
872.933	1291.41
873.11	1299.35
873.287	1329.19
873.463	1287.92
873.64	1262.73
873.817	1332.48
873.994	1303.81
874.171	1265.06
874.348	1297.61
874.524	1216.43
874.701	1280.94
874.878	1210.03
875.055	1276.1
875.231	1276.68
875.408	1287.72
875.585	1212.55
875.762	1210.42
875.938	1196.47
876.115	1242.19
876.291	1190.08
876.468	1215.26
876.645	1196.66
876.821	1219.91
876.998	1227.47
877.174	1220.49
877.351	1226.69
877.527	1225.73
877.704	1235.03
877.88	1194.14
878.057	1175.93
878.233	1232.51
878.409	1171.09
878.586	1206.16
878.762	1158.5
878.938	1182.91
879.115	1119.75
879.291	1184.26
879.467	1111.22
879.644	1162.37
879.82	1170.31
879.996	1143.96
880.172	1107.93
880.349	1121.88
880.525	1155.2
880.701	1093.4
880.877	1102.5
881.053	1143.96
881.229	1142.03
881.405	1166.05
881.581	1086.62
881.757	1121.3
881.933	1160.24
882.109	1170.31
882.285	1148.61
882.461	1089.52
882.637	1117.81
882.813	1074.6
882.989	1159.66
883.165	1158.3
883.341	1118.2
883.517	1174.38
883.693	1139.9
883.869	1161.79
884.044	1107.93
884.22	1127.88
884.396	1176.32
884.572	1132.34
884.747	1163.15
884.923	1130.6
885.099	1161.4
885.275	1142.61
885.45	1124.01
885.626	1133.11
885.801	1113.16
885.977	1143.38
886.153	1057.55
886.328	1118
886.504	1116.84
886.679	1143.38
886.855	1103.86
887.03	1112.96
887.206	1143.58
887.381	1112.77
887.557	1134.28
887.732	1133.5
887.908	1140.09
888.083	1141.45
888.258	1119.55
888.434	1098.82
888.609	1103.47
888.784	1130.98
888.96	1131.37
889.135	1093.01
889.31	1104.25
889.485	1116.65
889.661	1108.51
889.836	1150.36
890.011	1130.21
890.186	1100.18
890.361	1113.74
890.537	1124.2
890.712	1116.06
890.887	1098.82
891.062	1083.52
891.237	1165.47
891.412	1092.62
891.587	1099.6
891.762	1156.75
891.937	1138.54
892.112	1075.18
892.287	1078.87
892.462	1059.68
892.637	1036.63
892.812	994.2
892.987	1010.86
893.161	1002.72
893.336	1019.38
893.511	1005.44
893.686	1027.13
893.861	993.81
894.035	1012.6
894.21	999.04
894.385	930.07
894.56	977.15
894.734	915.34
894.909	893.84
895.084	908.76
895.258	899.65
895.433	885.89
895.608	859.54
895.782	827.77
895.957	832.61
896.131	830.29
896.306	775.46
896.48	763.44
896.655	792.89
896.829	710.55
897.004	694.47
897.178	701.64
897.353	726.83
897.527	752.79
897.701	707.06
897.876	678.97
898.05	758.79
898.224	747.95
898.399	795.61
898.573	712.1
898.747	616.2
898.921	675.1
899.096	565.82
899.27	589.07
899.444	563.3
899.618	627.43
899.792	632.86
899.967	653.01
900.141	676.84
900.315	587.13
900.489	613.87
900.663	648.75
900.837	624.53
901.011	555.36
901.185	664.05
901.359	615.03
901.533	629.95
901.707	614.65
901.881	625.11
902.055	593.33
902.229	618.72
902.403	711.13
902.576	620.65
902.75	617.55
902.924	720.05
903.098	683.43
903.272	725.08
903.446	772.16
903.619	781.85
903.793	803.74
903.967	772.74
904.14	835.33
904.314	793.09
904.488	787.08
904.661	826.22
904.835	808.2
905.009	832.81
905.182	876.21
905.356	830.48
905.529	830.48
905.703	758.21
905.876	780.11
906.05	737.48
906.223	712.49
906.397	642.16
906.57	653.98
906.744	636.93
906.917	638.48
907.09	637.9
907.264	598.37
907.437	585.39
907.61	559.82
907.784	570.09
907.957	590.82
908.13	549.16
908.304	602.05
908.477	529.01
908.65	540.44
908.823	513.32
908.996	618.33
909.17	527.46
909.343	577.25
909.516	534.05
909.689	541.99
909.862	525.33
910.035	527.27
910.208	514.48
910.381	507.31
910.554	609.03
910.727	550.71
910.9	521.26
911.073	539.86
911.246	608.64
911.419	641.77
911.592	579.19
911.765	554.78
911.938	539.09
912.11	548.77
912.283	591.4
912.456	570.09
912.629	528.82
912.802	525.52
912.974	496.46
913.147	457.52
913.32	413.54
913.493	433.3
913.665	453.26
913.838	433.69
914.01	436.98
914.183	489.1
914.356	513.7
914.528	537.15
914.701	546.25
914.873	487.16
915.046	456.55
915.218	426.13
915.391	370.91
915.563	386.61
915.736	436.98
915.908	459.26
916.081	445.7
916.253	450.93
916.425	471.66
916.598	476.89
916.77	452.48
916.942	454.42
917.115	375.76
917.287	486.97
917.459	416.06
917.632	409.47
917.804	328.68
917.976	415.09
918.148	427.87
918.32	455.39
918.493	506.15
918.665	505.37
918.837	481.93
919.009	524.17
919.181	522.23
919.353	516.61
919.525	521.45
919.697	493.17
919.869	487.55
920.041	568.34
920.213	629.95
920.385	558.85
920.557	510.6
920.729	558.07
920.901	516.8
921.073	524.94
921.244	493.17
921.416	534.63
921.588	505.76
921.76	479.02
921.932	583.26
922.103	493.17
922.275	508.28
922.447	500.92
922.619	465.07
922.79	512.74
922.962	452.67
923.134	534.82
923.305	443.96
923.477	416.06
923.648	428.84
923.82	447.83
923.991	392.03
924.163	395.13
924.335	433.49
924.506	420.12
924.677	474.76
924.849	392.81
925.02	443.37
925.192	430.78
925.363	449.57
925.535	430.97
925.706	380.99
925.877	469.72
926.049	429.42
926.22	422.45
926.391	450.35
926.562	435.62
926.734	397.65
926.905	452.48
927.076	375.18
927.247	387.96
927.419	362.39
927.59	357.16
927.761	360.64
927.932	335.46
928.103	332.36
928.274	281.79
928.445	283.34
928.616	317.24
928.787	299.81
928.958	298.06
929.129	282.18
929.3	278.5
929.471	255.44
929.642	213.01
929.813	161.08
929.984	250.98
930.155	157.6
930.326	246.72
930.496	188.21
930.667	152.75
930.838	183.17
931.009	152.56
931.18	141.13
931.35	141.13
931.521	173.68
931.692	109.74
931.863	82.81
932.033	126.4
932.204	112.07
932.374	101.41
932.545	77.58
932.716	125.05
932.886	113.23
933.057	32.05
933.227	92.11
933.398	145
933.568	58.4
933.739	26.04
933.909	24.69
934.08	76.22
934.25	-20.26
934.421	17.13
934.591	83.59
934.761	5.7
934.932	15
935.102	64.02
935.272	17.52
935.443	42.9
935.613	27.21
935.783	65.76
935.953	19.65
936.123	166.12
936.294	11.12
936.464	13.26
936.634	52.39
936.804	-3.41
936.974	9.96
937.144	43.67
937.314	39.02
937.484	40.38
937.655	7.06
937.825	93.27
937.995	26.04
938.165	70.22
938.334	42.12
938.504	76.61
938.674	36.89
938.844	52.39
939.014	107.03
939.184	106.45
939.354	140.93
939.524	114.39
939.694	64.21
939.863	78.74
940.033	144.03
940.203	123.3
940.373	103.15
940.542	115.55
940.712	81.07
940.882	125.63
941.051	134.93
941.221	98.12
941.391	125.63
941.56	51.81
941.73	57.24
941.899	152.56
942.069	90.56
942.238	116.72
942.408	69.25
942.577	105.09
942.747	106.64
942.916	60.53
943.086	61.3
943.255	133.19
943.425	87.07
943.594	67.5
943.763	10.93
943.933	39.99
944.102	17.32
944.271	58.59
944.441	85.52
944.61	73.12
944.779	62.66
944.948	145.58
945.117	63.05
945.287	42.71
945.456	24.11
945.625	48.13
945.794	48.32
945.963	46.19
946.132	78.55
946.301	25.27
946.47	90.95
946.639	37.28
946.808	14.61
946.977	85.72
947.146	109.35
947.315	47.94
947.484	88.82
947.653	62.85
947.822	52.39
947.991	20.42
948.16	117.1
948.329	78.55
948.498	58.98
948.666	82.81
948.835	79.32
949.004	39.99
949.173	39.99
949.341	49.29
949.51	64.79
949.679	87.46
949.847	92.3
950.016	147.33
950.185	115.94
950.353	67.5
950.522	67.12
950.69	112.07
950.859	65.76
951.028	114.2
951.196	64.21
951.365	70.8
951.533	45.03
951.701	93.08
951.87	99.47
952.038	24.11
952.207	70.99
952.375	95.4
952.543	50.26
952.712	67.31
952.88	51.62
953.048	89.2
953.217	66.15
953.385	63.24
953.553	110.71
953.721	31.27
953.89	52.39
954.058	29.34
954.226	36.7
954.394	76.61
954.562	12.09
954.73	57.82
954.898	39.61
955.067	73.51
955.235	24.49
955.403	88.82
955.571	114.59
955.739	96.76
955.907	30.5
956.075	7.06
956.243	48.52
956.41	88.04
956.578	17.71
956.746	26.43
956.914	64.6
957.082	89.01
957.25	66.34
957.418	50.26
957.585	84.36
957.753	100.64
957.921	62.27
958.089	78.74
958.256	92.69
958.424	95.4
958.592	96.95
958.759	37.67
958.927	57.62
959.095	40.19
959.262	53.36
959.43	72.15
959.597	44.64
959.765	50.84
959.932	31.86
960.1	81.45
960.267	58.98
960.435	67.31
960.602	113.23
960.77	78.55
960.937	27.01
961.104	80.49
961.272	30.89
961.439	72.54
961.606	91.34
961.774	101.22
961.941	74.48
962.108	78.35
962.275	60.72
962.443	125.05
962.61	89.98
962.777	158.95
962.944	106.25
963.111	109.74
963.278	96.57
963.446	86.88
963.613	72.35
963.78	109.94
963.947	111.87
964.114	55.88
964.281	135.12
964.448	129.89
964.615	66.54
964.782	110.9
964.949	96.37
965.116	120.2
965.282	139
965.449	89.59
965.616	34.76
965.783	133.38
965.95	107.8
966.117	43.48
966.283	100.25
966.45	88.82
966.617	93.08
966.784	136.29
966.95	140.55
967.117	109.94
967.284	79.52
967.45	102.38
967.617	132.6
967.784	152.75
967.95	164.57
968.117	122.53
968.283	138.8
968.45	188.79
968.616	125.24
968.783	153.14
968.949	127.18
969.116	158.95
969.282	112.07
969.449	143.07
969.615	133.57
969.781	98.5
969.948	104.7
970.114	92.5
970.28	172.32
970.447	132.8
970.613	154.3
970.779	97.34
970.945	153.92
971.112	115.17
971.278	95.79
971.444	149.07
971.61	139.58
971.776	113.04
971.942	133.96
972.108	143.07
972.275	132.02
972.441	134.74
972.607	148.68
972.773	88.24
972.939	140.16
973.105	114.97
973.271	67.12
973.437	94.82
973.602	75.06
973.768	132.8
973.934	80.29
974.1	123.69
974.266	57.82
974.432	106.25
974.598	110.9
974.763	147.52
974.929	74.67
975.095	153.14
975.261	78.94
975.426	64.79
975.592	97.54
975.758	145.97
975.923	55.3
976.089	46
976.255	118.27
976.42	86.69
976.586	120.4
976.751	102.19
976.917	156.63
977.082	102.96
977.248	57.24
977.413	50.07
977.579	85.33
977.744	113.23
977.91	62.47
978.075	72.74
978.24	99.47
978.406	98.12
978.571	82.62
978.736	76.61
978.902	109.55
979.067	63.63
979.232	59.37
979.397	101.02
979.563	146.94
979.728	37.47
979.893	93.85
980.058	76.61
980.223	145.58
980.388	117.49
980.554	109.74
980.719	89.4
980.884	100.64
981.049	136.67
981.214	89.59
981.379	98.5
981.544	79.71
981.709	78.74
981.874	65.95
982.039	74.29
982.204	110.9
982.368	114.59
982.533	72.93
982.698	133.96
982.863	153.92
983.028	77.39
983.193	128.54
983.357	105.48
983.522	129.5
983.687	97.34
983.852	101.8
984.016	113.42
984.181	95.4
984.346	98.31
984.51	120.2
984.675	124.85
984.839	110.52
985.004	114.39
985.168	134.35
985.333	94.82
985.498	91.72
985.662	130.86
985.827	106.45
985.991	117.1
986.155	81.45
986.32	123.3
986.484	154.3
986.649	117.88
986.813	49.87
986.977	97.92
987.142	109.74
987.306	86.1
987.47	69.05
987.634	67.12
987.799	110.71
987.963	122.72
988.127	117.1
988.291	164.18
988.455	86.49
988.62	91.72
988.784	138.8
988.948	126.79
989.112	66.73
989.276	78.94
989.44	118.07
989.604	71.77
989.768	82.23
989.932	160.89
990.096	54.52
990.26	52.2
990.424	48.13
990.588	101.22
990.752	160.7
990.915	139.97
991.079	69.05
991.243	82.42
991.407	88.43
991.571	89.59
991.734	81.65
991.898	107.22
992.062	130.28
992.226	100.83
992.389	80.29
992.553	32.05
992.717	64.02
992.88	64.79
993.044	105.48
993.207	92.5
993.371	112.84
993.535	94.63
993.698	86.88
993.862	117.1
994.025	109.94
994.189	87.65
994.352	92.89
994.515	122.72
994.679	114.97
994.842	66.15
995.006	121.56
995.169	47.16
995.332	81.26
995.496	111.68
995.659	24.3
995.822	86.49
995.985	86.88
996.149	132.22
996.312	70.41
996.475	120.79
996.638	58.59
996.801	104.7
996.964	133.57
997.128	76.22
997.291	88.04
997.454	71.57
997.617	27.21
997.78	104.12
997.943	62.85
998.106	99.86
998.269	67.12
998.432	94.44
998.595	71.19
998.758	40.57
998.92	56.85
999.083	38.06
999.246	66.15
999.409	44.64
999.572	33.99
999.735	66.34
999.897	100.83
1000.06	40.77
1000.223	56.46
1000.386	83.78
1000.548	84.75
1000.711	83.39
1000.874	90.17
1001.036	29.34
1001.199	87.27
1001.361	39.22
1001.524	81.07
1001.687	107.42
1001.849	39.99
1002.012	75.25
1002.174	70.02
1002.337	86.1
1002.499	50.65
1002.661	90.37
1002.824	38.25
1002.986	52
1003.149	98.12
1003.311	15.19
1003.473	109.94
1003.636	45.03
1003.798	61.69
1003.96	76.22
1004.123	38.44
1004.285	39.99
1004.447	41.16
1004.609	77
1004.771	104.51
1004.933	23.72
1005.096	42.71
1005.258	-2.83
1005.42	38.25
1005.582	90.95
1005.744	52
1005.906	18.49
1006.068	58.98
1006.23	2.41
1006.392	-3.02
1006.554	45.42
1006.716	70.8
1006.878	57.04
1007.04	20.62
1007.202	34.37
1007.363	41.35
1007.525	58.4
1007.687	80.49
1007.849	78.16
1008.011	16.74
1008.172	15.19
1008.334	48.91
1008.496	87.85
1008.658	-15.03
1008.819	28.17
1008.981	5.89
1009.143	10.93
1009.304	13.64
1009.466	86.69
1009.627	96.18
1009.789	146.75
1009.95	58.59
1010.112	33.6
1010.273	60.53
1010.435	32.44
1010.596	32.82
1010.758	49.49
1010.919	49.29
1011.081	7.06
1011.242	48.71
1011.403	57.24
1011.565	29.92
1011.726	58.59
1011.887	13.64
1012.049	16.74
1012.21	70.8
1012.371	80.68
1012.532	-17.36
1012.693	68.09
1012.855	29.53
1013.016	30.31
1013.177	35.92
1013.338	38.44
1013.499	80.68
1013.66	56.27
1013.821	58.59
1013.982	43.48
1014.143	32.44
1014.304	6.67
1014.465	58.98
1014.626	43.09
1014.787	37.86
1014.948	96.95
1015.109	-42.74
1015.27	98.89
1015.431	19.46
1015.592	6.09
1015.752	74.87
1015.913	39.41
1016.074	22.36
1016.235	25.85
1016.395	26.62
1016.556	8.8
1016.717	11.12
1016.877	65.37
1017.038	17.71
1017.199	45.81
1017.359	32.05
1017.52	73.51
1017.681	12.48
1017.841	19.65
1018.002	28.95
1018.162	17.91
1018.323	88.04
1018.483	10.35
1018.644	11.71
1018.804	21.39
1018.964	8.41
1019.125	-5.93
1019.285	31.66
1019.446	-18.13
1019.606	14.22
1019.766	-32.86
1019.926	39.8
1020.087	44.06
1020.247	-13.29
1020.407	42.12
1020.567	70.41
1020.728	30.69
1020.888	-33.05
1021.048	-20.65
1021.208	10.74
1021.368	14.22
1021.528	68.86
1021.688	73.51
1021.848	49.68
1022.008	52.2
1022.168	30.5
1022.328	32.05
1022.488	32.44
1022.648	12.87
1022.808	27.98
1022.968	31.86
1023.128	-14.84
1023.288	6.67
1023.448	10.16
1023.608	51.04
1023.767	46.97
1023.927	31.66
1024.087	9.57
1024.247	-8.44
1024.406	9.57
1024.566	-9.8
1024.726	-13.48
1024.885	3.76
1025.045	40.96
1025.205	8.41
1025.364	33.79
1025.524	21.97
1025.683	18.87
1025.843	33.79
1026.003	20.81
1026.162	75.25
1026.321	62.85
1026.481	68.67
1026.64	16.36
1026.8	27.4
1026.959	28.17
1027.119	27.79
1027.278	-8.25
1027.437	-20.84
1027.597	14.22
1027.756	41.35
1027.915	42.12
1028.074	42.12
1028.234	-11.74
1028.393	12.29
1028.552	15.39
1028.711	-34.41
1028.87	61.69
1029.03	-16.39
1029.189	10.74
1029.348	-53.59
1029.507	15.39
1029.666	10.16
1029.825	-28.01
1029.984	-9.99
1030.143	-10.58
1030.302	-7.67
1030.461	-34.02
1030.62	13.26
1030.779	45.61
1030.938	7.06
1031.097	-14.06
1031.255	45.22
1031.414	48.52
1031.573	25.07
1031.732	-32.28
1031.891	-18.33
1032.049	49.49
1032.208	28.37
1032.367	-9.22
1032.525	9.57
1032.684	4.34
1032.843	35.34
1033.001	-22.98
1033.16	159.34
1033.319	39.02
1033.477	19.84
1033.636	26.04
1033.794	-46.03
1033.953	28.95
1034.111	48.52
1034.27	-17.36
1034.428	41.35
1034.587	-20.84
1034.745	16.16
1034.903	17.71
1035.062	37.47
1035.22	-22.98
1035.378	26.43
1035.537	-15.61
1035.695	25.66
1035.853	-17.36
1036.011	46.39
1036.17	8.41
1036.328	-39.25
1036.486	23.91
1036.644	8.02
1036.802	-68.12
1036.96	-13.87
1037.119	-5.54
1037.277	-4.57
1037.435	-45.26
1037.593	-29.95
1037.751	15
1037.909	35.54
1038.067	35.54
