Data from gum_young_FLMT105791__7__17-38-06-045.txt Node

Date: Mon Mar 20 17:38:06 GMT 2023
User: antho
Spectrometer: FLMT10579
Trigger mode: 0
Integration Time (sec): 1.000000E-1
Scans to average: 10
Electric dark correction enabled: true
Nonlinearity correction enabled: false
Boxcar width: 0
XAxis mode: Wavelengths
Number of Pixels in Spectrum: 3648
>>>>>Begin Spectral Data<<<<<
345.248	-129.71
345.464	-129.71
345.681	-129.71
345.898	-162.26
346.114	-145.79
346.331	-32.45
346.548	7.07
346.764	-4.36
346.981	7.27
347.197	-10.75
347.414	24.32
347.631	-10.56
347.847	58.41
348.064	-16.18
348.28	30.52
348.497	-37.1
348.713	-16.18
348.93	29.55
349.146	9.4
349.363	-5.72
349.579	21.41
349.796	-28.19
350.012	-14.24
350.229	29.55
350.445	21.8
350.661	7.85
350.878	1.65
351.094	-2.81
351.311	21.99
351.527	-2.03
351.743	-7.27
351.96	49.5
352.176	43.69
352.392	26.25
352.609	21.02
352.825	-35.17
353.041	19.28
353.257	0.48
353.474	13.08
353.69	-12.69
353.906	28.58
354.122	-23.35
354.339	9.59
354.555	20.05
354.771	-18.31
354.987	27.8
355.203	51.83
355.42	1.84
355.636	-0.48
355.852	11.33
356.068	7.85
356.284	-38.27
356.5	75.27
356.716	27.8
356.932	1.45
357.148	10.17
357.364	-5.33
357.58	30.32
357.796	56.09
358.012	51.44
358.228	11.33
358.444	-46.79
358.66	55.9
358.876	22.38
359.092	5.91
359.308	-12.88
359.524	15.4
359.74	-3.97
359.956	-47.37
360.172	6.88
360.388	41.37
360.604	-23.54
360.819	57.83
361.035	18.7
361.251	15.02
361.467	-27.8
361.683	20.25
361.898	3
362.114	31.87
362.33	22.18
362.546	33.42
362.762	15.21
362.977	6.49
363.193	5.91
363.409	33.42
363.624	-12.3
363.84	-10.56
364.056	-19.28
364.271	24.7
364.487	18.31
364.703	2.62
364.918	-32.65
365.134	20.83
365.35	14.43
365.565	99.68
365.781	12.11
365.996	42.72
366.212	56.86
366.427	21.99
366.643	-12.11
366.858	11.53
367.074	4.94
367.289	33.81
367.505	87.86
367.72	-24.7
367.936	11.92
368.151	17.34
368.367	29.55
368.582	10.95
368.798	-15.98
369.013	50.08
369.228	16.37
369.444	8.23
369.659	66.55
369.874	36.91
370.09	71.78
370.305	-43.69
370.52	2.42
370.736	69.65
370.951	-3
371.166	79.15
371.381	62.87
371.597	24.32
371.812	-2.03
372.027	-20.83
372.242	-11.72
372.458	58.61
372.673	12.5
372.888	4.17
373.103	-2.42
373.318	128.75
373.533	27.03
373.749	43.3
373.964	-24.12
374.179	61.71
374.394	-8.82
374.609	76.63
374.824	-6.68
375.039	17.15
375.254	-9.78
375.469	69.46
375.684	17.34
375.899	60.35
376.114	-7.27
376.329	21.8
376.544	61.71
376.759	35.17
376.974	5.33
377.189	8.62
377.404	19.67
377.619	56.86
377.834	-29.35
378.049	-14.43
378.264	-14.05
378.478	11.92
378.693	-18.89
378.908	50.08
379.123	2.03
379.338	51.05
379.553	47.37
379.767	32.84
379.982	54.54
380.197	46.21
380.412	2.42
380.626	44.08
380.841	93.68
381.056	16.37
381.271	49.7
381.485	31.48
381.7	-7.27
381.915	44.08
382.129	12.69
382.344	35.17
382.559	6.88
382.773	35.94
382.988	-39.62
383.202	50.08
383.417	3.2
383.632	92.71
383.846	18.7
384.061	40.78
384.275	11.92
384.49	34.97
384.704	43.3
384.919	37.88
385.133	66.75
385.348	32.07
385.562	-29.74
385.777	40.59
385.991	50.47
386.206	9.78
386.42	25.48
386.634	67.91
386.849	46.21
387.063	48.53
387.277	-16.37
387.492	22.38
387.706	11.14
387.92	1.65
388.135	64.03
388.349	35.36
388.563	14.63
388.778	18.89
388.992	60.55
389.206	62.29
389.42	84.18
389.635	17.34
389.849	47.95
390.063	78.95
390.277	22.96
390.491	91.93
390.706	33.42
390.92	52.99
391.134	26.64
391.348	69.26
391.562	-7.85
391.776	22.96
391.99	20.25
392.205	55.51
392.419	5.52
392.633	33.03
392.847	75.27
393.061	2.81
393.275	98.13
393.489	12.11
393.703	30.13
393.917	74.69
394.131	-4.94
394.345	38.07
394.559	72.36
394.773	13.27
394.986	59.38
395.2	15.21
395.414	50.86
395.628	23.35
395.842	25.67
396.056	12.11
396.27	-36.13
396.484	39.23
396.697	44.27
396.911	76.43
397.125	28.58
397.339	89.03
397.553	42.14
397.766	74.3
397.98	45.63
398.194	85.15
398.408	48.53
398.621	45.05
398.835	72.36
399.049	50.47
399.262	80.89
399.476	82.44
399.69	66.16
399.903	114.02
400.117	41.75
400.331	74.69
400.544	51.05
400.758	159.55
400.971	66.36
401.185	107.63
401.398	54.15
401.612	108.21
401.826	77.6
402.039	98.52
402.253	59.77
402.466	60.35
402.68	59.96
402.893	63.84
403.106	74.5
403.32	56.67
403.533	71.59
403.747	58.8
403.96	71.01
404.174	96.78
404.387	53.18
404.6	79.15
404.814	104.91
405.027	58.03
405.24	53.18
405.454	42.53
405.667	90.77
405.88	31.68
406.094	85.93
406.307	100.26
406.52	108.98
406.733	36.91
406.947	34.39
407.16	137.66
407.373	99.68
407.586	54.35
407.799	27.22
408.012	86.12
408.226	83.6
408.439	126.81
408.652	16.57
408.865	87.09
409.078	125.65
409.291	89.41
409.504	49.5
409.717	81.08
409.93	109.95
410.143	72.75
410.357	34.97
410.57	36.13
410.783	52.6
410.996	83.41
411.209	74.11
411.421	126.03
411.634	94.45
411.847	59.58
412.06	94.45
412.273	88.06
412.486	78.95
412.699	145.6
412.912	72.95
413.125	94.06
413.338	84.18
413.55	105.3
413.763	103.75
413.976	85.54
414.189	75.85
414.402	77.4
414.615	132.04
414.827	87.09
415.04	104.91
415.253	97.75
415.466	127.78
415.678	127.78
415.891	124.29
416.104	86.9
416.316	108.6
416.529	94.65
416.742	105.5
416.954	114.02
417.167	119.64
417.38	99.1
417.592	132.04
417.805	97.94
418.017	78.76
418.23	117.12
418.442	47.18
418.655	85.35
418.868	90.96
419.08	119.25
419.293	161.88
419.505	142.5
419.718	93.68
419.93	150.44
420.142	104.53
420.355	127.78
420.567	136.49
420.78	102.01
420.992	119.06
421.205	176.02
421.417	80.89
421.629	109.95
421.842	69.46
422.054	75.27
422.266	149.28
422.479	151.8
422.691	93.87
422.903	124.1
423.115	80.89
423.328	90.19
423.54	110.53
423.752	121.96
423.964	92.32
424.177	129.33
424.389	106.08
424.601	201.59
424.813	121.96
425.025	154.13
425.238	144.05
425.45	93.1
425.662	104.33
425.874	378.49
426.086	150.44
426.298	161.68
426.51	130.1
426.722	129.91
426.934	134.56
427.146	149.67
427.358	96.78
427.57	163.43
427.782	123.9
427.994	141.14
428.206	111.89
428.418	109.18
428.63	125.65
428.842	142.31
429.054	122.74
429.266	168.46
429.478	108.01
429.69	138.63
429.902	92.71
430.114	134.56
430.325	125.65
430.537	112.28
430.749	110.34
430.961	50.66
431.173	109.18
431.384	133.98
431.596	76.63
431.808	114.8
432.02	154.32
432.231	170.98
432.443	156.64
432.655	154.32
432.867	107.24
433.078	164.2
433.29	182.03
433.502	183.38
433.713	174.66
433.925	157.42
434.136	190.74
434.348	118.86
434.56	84.18
434.771	227.94
434.983	105.5
435.194	129.13
435.406	134.17
435.617	205.47
435.829	214.19
436.04	183.58
436.252	197.14
436.463	204.31
436.675	189.58
436.886	161.68
437.098	197.53
437.309	187.45
437.521	183.38
437.732	177.57
437.943	183.38
438.155	151.99
438.366	123.9
438.578	207.02
438.789	167.3
439	168.08
439.211	160.71
439.423	176.99
439.634	181.06
439.845	182.41
440.057	171.18
440.268	213.03
440.479	158.19
440.69	190.36
440.902	152.38
441.113	179.12
441.324	164.78
441.535	205.47
441.746	213.61
441.957	177.96
442.168	184.74
442.38	199.66
442.591	206.63
442.802	202.95
443.013	180.67
443.224	234.72
443.435	194.62
443.646	185.13
443.857	195.39
444.068	179.7
444.279	193.84
444.49	249.45
444.701	220
444.912	279.09
445.123	231.43
445.334	229.49
445.545	204.31
445.756	210.31
445.967	187.06
446.178	263.79
446.388	246.35
446.599	239.37
446.81	257.39
447.021	204.11
447.232	262.62
447.443	266.5
447.653	200.24
447.864	284.13
448.075	250.42
448.286	242.28
448.496	255.07
448.707	281.81
448.918	219.42
449.129	309.7
449.339	206.83
449.55	244.41
449.761	231.04
449.971	283.36
450.182	237.44
450.393	281.81
450.603	237.63
450.814	276.38
451.024	275.41
451.235	311.84
451.446	311.25
451.656	282.39
451.867	251
452.077	269.41
452.288	324.62
452.498	320.94
452.709	240.34
452.919	293.04
453.13	254.49
453.34	296.72
453.55	201.4
453.761	313.77
453.971	267.47
454.182	268.24
454.392	295.56
454.602	317.45
454.813	289.36
455.023	324.62
455.233	219.22
455.444	283.74
455.654	239.18
455.864	287.23
456.075	270.37
456.285	269.21
456.495	251
456.705	306.8
456.916	328.11
457.126	306.99
457.336	288.97
457.546	233.37
457.756	269.02
457.967	319.39
458.177	285.29
458.387	284.71
458.597	276.77
458.807	263.59
459.017	281.61
459.227	271.54
459.437	277.93
459.647	312.22
459.857	324.04
460.068	289.94
460.278	339.93
460.488	303.89
460.698	389.14
460.908	294.98
461.117	251.19
461.327	289.36
461.537	304.47
461.747	315.9
461.957	295.56
462.167	381
462.377	369.57
462.587	303.89
462.797	372.29
463.007	350
463.216	332.37
463.426	367.25
463.636	381.97
463.846	299.24
464.056	306.02
464.265	371.9
464.475	325.2
464.685	325.4
464.895	332.57
465.104	299.82
465.314	360.27
465.524	306.02
465.733	316.1
465.943	388.37
466.153	384.88
466.362	351.36
466.572	342.06
466.782	322.88
466.991	349.62
467.201	410.84
467.41	278.71
467.62	360.47
467.829	339.15
468.039	350.97
468.249	359.3
468.458	339.15
468.668	373.45
468.877	389.34
469.086	377.32
469.296	409.1
469.505	342.64
469.715	434.87
469.924	392.05
470.134	412.39
470.343	411.42
470.552	367.44
470.762	379.84
470.971	346.71
471.18	365.12
471.39	371.12
471.599	359.69
471.808	410.45
472.018	347.49
472.227	413.75
472.436	411.03
472.645	407.74
472.855	361.44
473.064	438.16
473.273	424.6
473.482	446.49
473.691	431.77
473.901	444.36
474.11	439.13
474.319	494.54
474.528	441.26
474.737	492.41
474.946	444.17
475.155	470.9
475.364	507.52
475.573	438.93
475.783	477.68
475.992	456.95
476.201	472.07
476.41	431.18
476.619	410.65
476.828	463.93
477.037	458.5
477.245	451.14
477.454	526.12
477.663	466.06
477.872	462.77
478.081	512.75
478.29	459.28
478.499	554.02
478.708	494.73
478.917	532.32
479.125	488.92
479.334	503.06
479.543	483.11
479.752	487.56
479.961	527.67
480.169	543.36
480.378	489.89
480.587	637.91
480.796	563.9
481.004	544.72
481.213	567.78
481.422	589.67
481.63	538.33
481.839	584.44
482.048	618.54
482.256	585.6
482.465	569.13
482.674	617.76
482.882	579.4
483.091	626.29
483.299	582.5
483.508	580.95
483.716	575.33
483.925	632.1
484.134	598.19
484.342	558.86
484.551	605.75
484.759	606.91
484.967	627.64
485.176	645.66
485.384	631.52
485.593	632.49
485.801	605.94
486.01	599.16
486.218	572.04
486.426	506.36
486.635	543.36
486.843	529.22
487.051	562.74
487.26	571.07
487.468	609.43
487.676	608.85
487.885	593.54
488.093	629.19
488.301	637.53
488.509	640.04
488.717	688.29
488.926	652.64
489.134	630.74
489.342	646.83
489.55	608.08
489.758	639.27
489.967	650.7
490.175	760.75
490.383	678.21
490.591	738.66
490.799	688.09
491.007	728.01
491.215	704.76
491.423	691.39
491.631	709.6
491.839	693.71
492.047	730.33
492.255	697.78
492.463	650.12
492.671	674.14
492.879	734.98
493.087	684.22
493.295	720.06
493.503	767.14
493.711	759
493.919	764.82
494.127	758.23
494.334	772.18
494.542	740.02
494.75	765.59
494.958	761.14
495.166	840.38
495.374	795.62
495.581	776.25
495.789	784.39
495.997	860.72
496.205	770.82
496.412	783.61
496.62	784.39
496.828	827.01
497.035	786.71
497.243	819.84
497.451	845.03
497.658	816.35
497.866	832.43
498.074	851.62
498.281	787.68
498.489	876.22
498.696	842.7
498.904	833.79
499.112	802.79
499.319	885.33
499.527	831.66
499.734	898.12
499.942	822.36
500.149	846.58
500.357	804.15
500.564	809.77
500.771	865.95
500.979	842.32
501.186	859.37
501.394	863.24
501.601	874.09
501.808	874.67
502.016	882.42
502.223	878.16
502.43	901.8
502.638	881.84
502.845	858.2
503.052	973.68
503.26	882.23
503.467	1009.33
503.674	923.88
503.881	922.91
504.089	958.76
504.296	982.2
504.503	918.07
504.71	931.63
504.917	933.96
505.125	957.98
505.332	980.65
505.539	994.8
505.746	1052.34
505.953	1050.4
506.16	994.21
506.367	1086.63
506.574	1090.51
506.781	1071.91
506.988	993.83
507.195	1066.87
507.402	1050.59
507.609	1091.67
507.816	1039.16
508.023	1063.19
508.23	1092.06
508.437	1022.11
508.644	1088.18
508.851	1115.31
509.058	1144.37
509.265	1090.7
509.472	1155.61
509.679	1237.17
509.885	1152.89
510.092	1153.09
510.299	1145.53
510.506	1167.42
510.713	1171.11
510.92	1170.72
511.126	1223.42
511.333	1228.45
511.54	1253.64
511.746	1273.98
511.953	1282.51
512.16	1291.62
512.367	1237.75
512.573	1229.62
512.78	1268.56
512.987	1276.31
513.193	1275.73
513.4	1175.17
513.606	1267.59
513.813	1315.25
514.02	1282.51
514.226	1324.55
514.433	1333.08
514.639	1262.17
514.846	1334.24
515.052	1269.92
515.259	1318.74
515.465	1370.47
515.672	1371.83
515.878	1445.64
516.085	1376.67
516.291	1423.36
516.497	1376.09
516.704	1328.62
516.91	1333.08
517.117	1292.78
517.323	1215.28
517.529	1273.79
517.736	1306.53
517.942	1317.38
518.148	1300.92
518.354	1351.87
518.561	1368.92
518.767	1386.75
518.973	1420.46
519.179	1426.85
519.386	1408.06
519.592	1418.91
519.798	1423.17
520.004	1536.9
520.21	1528.18
520.417	1550.85
520.623	1591.73
520.829	1575.46
521.035	1601.61
521.241	1620.02
521.447	1623.89
521.653	1744.79
521.859	1632.61
522.065	1692.87
522.271	1762.03
522.477	1712.43
522.683	1783.54
522.889	1680.08
523.095	1714.57
523.301	1736.07
523.507	1678.53
523.713	1736.85
523.919	1699.07
524.125	1785.87
524.331	1772.5
524.537	1889.13
524.742	1874.99
524.948	1846.9
525.154	1858.91
525.36	1963.73
525.566	1895.53
525.772	1936.6
525.977	1833.91
526.183	1925.94
526.389	1932.92
526.595	1856
526.8	1815.9
527.006	1783.54
527.212	1764.94
527.417	1708.17
527.623	1753.9
527.829	1831.78
528.034	1828.1
528.24	1867.43
528.446	1898.04
528.651	1985.42
528.857	2022.24
529.062	2022.43
529.268	1989.3
529.473	2052.07
529.679	2031.54
529.884	2104
530.09	2050.33
530.295	2086.37
530.501	2111.75
530.706	2056.14
530.912	2056.14
531.117	2055.56
531.323	2098.96
531.528	2122.79
531.733	2138.87
531.939	2082.69
532.144	2124.34
532.35	2092.18
532.555	2167.35
532.76	2132.67
532.966	2092.37
533.171	2097.41
533.376	2042.19
533.581	2075.32
533.787	2090.44
533.992	2158.25
534.197	2179.37
534.402	2159.02
534.607	2207.65
534.813	2253.76
535.018	2167.55
535.223	2191.96
535.428	2214.82
535.633	2275.27
535.838	2270.43
536.043	2267.91
536.249	2326.42
536.454	2238.07
536.659	2283.8
536.864	2280.5
537.069	2209.2
537.274	2245.24
537.479	2268.1
537.684	2268.1
537.889	2215.02
538.094	2300.85
538.299	2279.53
538.504	2318.48
538.708	2291.35
538.913	2333.78
539.118	2337.46
539.323	2332.62
539.528	2279.92
539.733	2287.86
539.938	2301.43
540.142	2298.13
540.347	2244.08
540.552	2231.87
540.757	2253.18
540.962	2246.79
541.166	2138.49
541.371	2190.6
541.576	2211.92
541.781	2179.75
541.985	2293.48
542.19	2272.95
542.395	2334.56
542.599	2363.04
542.804	2343.28
543.008	2363.62
543.213	2289.8
543.418	2311.31
543.622	2358.19
543.827	2254.93
544.031	2384.93
544.236	2348.12
544.44	2398.3
544.645	2469.41
544.849	2404.69
545.054	2416.12
545.258	2461.27
545.463	2479.87
545.667	2360.52
545.872	2393.65
546.076	2400.43
546.281	2403.72
546.485	2362.65
546.689	2397.53
546.894	2436.27
547.098	2423.49
547.302	2390.16
547.507	2404.31
547.711	2421.74
547.915	2445.96
548.119	2352.77
548.324	2376.02
548.528	2440.34
548.732	2376.02
548.936	2437.24
549.141	2434.14
549.345	2394.62
549.549	2418.64
549.753	2442.67
549.957	2529.08
550.161	2485.1
550.366	2476.96
550.57	2425.62
550.774	2446.74
550.978	2417.48
551.182	2441.7
551.386	2443.06
551.59	2428.72
551.794	2432.21
551.998	2500.99
552.202	2462.24
552.406	2430.27
552.61	2446.54
552.814	2462.82
553.018	2498.27
553.222	2442.28
553.426	2412.44
553.63	2493.82
553.833	2428.33
554.037	2384.16
554.241	2517.84
554.445	2506.99
554.649	2485.1
554.853	2432.79
555.056	2502.34
555.26	2496.14
555.464	2461.46
555.668	2536.25
555.871	2492.46
556.075	2513.19
556.279	2444.41
556.483	2377.38
556.686	2407.99
556.89	2445.77
557.094	2462.24
557.297	2363.04
557.501	2438.21
557.704	2317.51
557.908	2420.19
558.112	2339.4
558.315	2391.91
558.519	2383.77
558.722	2393.46
558.926	2351.22
559.129	2318.48
559.333	2286.7
559.536	2271.4
559.74	2247.95
559.943	2237.3
560.147	2251.83
560.35	2261.13
560.553	2273.53
560.757	2234.97
560.96	2330.29
561.164	2296.78
561.367	2374.66
561.57	2305.11
561.774	2316.73
561.977	2260.74
562.18	2270.81
562.384	2349.86
562.587	2267.52
562.79	2261.71
562.993	2293.48
563.197	2296.78
563.4	2336.11
563.603	2332.81
563.806	2377.76
564.009	2260.16
564.212	2274.11
564.416	2229.74
564.619	2243.3
564.822	2240.78
565.025	2297.55
565.228	2238.65
565.431	2232.45
565.634	2145.46
565.837	2127.44
566.04	2141.97
566.243	2166.19
566.446	2024.17
566.649	2146.04
566.852	2082.1
567.055	2121.63
567.258	2156.12
567.461	2213.47
567.664	2184.4
567.867	2098.19
568.07	2141.39
568.273	2116.79
568.475	2137.32
568.678	2111.94
568.881	2090.05
569.084	2030.96
569.287	1955.2
569.489	2006.35
569.692	2099.35
569.895	2091.02
570.098	1967.79
570.3	1967.99
570.503	1933.31
570.706	1950.74
570.909	1967.02
571.111	1879.44
571.314	1833.14
571.516	1922.84
571.719	1913.35
571.922	1891.26
572.124	1898.63
572.327	1918.97
572.529	1842.44
572.732	1898.82
572.935	1936.99
573.137	1981.55
573.34	1887.78
573.542	1930.21
573.745	1934.08
573.947	1954.43
574.15	1880.99
574.352	1848.83
574.554	1891.84
574.757	1854.84
574.959	1826.55
575.162	1814.15
575.364	1825.97
575.566	1883.13
575.769	1761.65
575.971	1813.38
576.173	1727.93
576.376	1778.5
576.578	1818.22
576.78	1842.25
576.982	1714.57
577.185	1780.25
577.387	1757.38
577.589	1752.93
577.791	1806.21
577.993	1782.96
578.196	1772.5
578.398	1790.9
578.6	1788.19
578.802	1663.03
579.004	1672.91
579.206	1712.43
579.408	1774.82
579.61	1700.04
579.812	1786.06
580.014	1666.13
580.216	1715.92
580.418	1741.88
580.62	1690.74
580.822	1709.33
581.024	1746.92
581.226	1748.67
581.428	1751.38
581.63	1807.95
581.832	1752.15
582.034	1813.76
582.236	1761.07
582.438	1813.76
582.64	1818.61
582.841	1850.77
583.043	1852.32
583.245	1767.07
583.447	1802.33
583.649	1754.28
583.85	1760.48
584.052	1807.56
584.254	1759.13
584.456	1812.02
584.657	1724.64
584.859	1756.8
585.061	1718.63
585.262	1744.02
585.464	1707.2
585.666	1788
585.867	1736.07
586.069	1765.13
586.27	1723.48
586.472	1737.43
586.674	1671.17
586.875	1711.85
587.077	1713.6
587.278	1726.38
587.48	1698.1
587.681	1795.55
587.883	1717.28
588.084	1635.9
588.285	1644.43
588.487	1636.49
588.688	1645.79
588.89	1582.82
589.091	1552.59
589.292	1535.16
589.494	1521.59
589.695	1460.76
589.896	1399.53
590.098	1368.53
590.299	1458.63
590.5	1430.73
590.702	1479.55
590.903	1515.98
591.104	1561.7
591.305	1528.57
591.507	1568.29
591.708	1579.52
591.909	1514.81
592.11	1589.21
592.311	1577.97
592.512	1534.96
592.714	1501.83
592.915	1517.53
593.116	1546.2
593.317	1566.54
593.518	1550.07
593.719	1548.52
593.92	1607.23
594.121	1561.89
594.322	1571.19
594.523	1549.49
594.724	1478.39
594.925	1529.54
595.126	1527.99
595.327	1528.57
595.528	1514.23
595.729	1530.7
595.929	1496.79
596.13	1557.24
596.331	1548.52
596.532	1569.26
596.733	1585.53
596.934	1586.69
597.135	1562.09
597.335	1515.78
597.536	1539.81
597.737	1551.82
597.938	1517.33
598.138	1547.56
598.339	1518.49
598.54	1558.21
598.74	1509
598.941	1520.82
599.142	1588.44
599.342	1546.97
599.543	1514.43
599.744	1531.47
599.944	1543.49
600.145	1539.42
600.345	1551.04
600.546	1608.39
600.746	1564.61
600.947	1617.3
601.147	1522.37
601.348	1610.52
601.548	1509
601.749	1509.97
601.949	1521.59
602.15	1473.35
602.35	1497.18
602.551	1550.27
602.751	1497.57
602.951	1493.89
603.152	1485.75
603.352	1504.54
603.552	1547.17
603.753	1552.21
603.953	1572.94
604.153	1575.07
604.354	1525.86
604.554	1523.34
604.754	1529.92
604.954	1520.63
605.155	1568.87
605.355	1539.42
605.555	1534.77
605.755	1602.77
605.955	1530.7
606.155	1565.77
606.356	1536.9
606.556	1540.19
606.756	1525.08
606.956	1503.38
607.156	1550.46
607.356	1465.6
607.556	1508.61
607.756	1530.12
607.956	1565.19
608.156	1530.31
608.356	1471.8
608.556	1538.26
608.756	1508.03
608.956	1467.34
609.156	1478.39
609.356	1407.86
609.556	1476.84
609.755	1482.65
609.955	1464.83
610.155	1479.16
610.355	1445.06
610.555	1441.38
610.755	1427.82
610.954	1414.06
611.154	1462.69
611.354	1486.53
611.554	1419.1
611.753	1452.04
611.953	1398.95
612.153	1477.61
612.352	1432.86
612.552	1415.03
612.752	1360.2
612.951	1421.43
613.151	1422.59
613.351	1372.6
613.55	1395.85
613.75	1429.18
613.949	1383.06
614.149	1394.5
614.348	1404.96
614.548	1357.3
614.747	1316.22
614.947	1363.3
615.146	1286.19
615.346	1385.58
615.545	1404.18
615.745	1358.65
615.944	1391.4
616.144	1352.45
616.343	1349.93
616.542	1354.2
616.742	1333.08
616.941	1371.05
617.14	1246.86
617.34	1268.75
617.539	1317.97
617.738	1290.26
617.938	1397.21
618.137	1301.11
618.336	1284.45
618.535	1334.63
618.734	1322.23
618.934	1312.15
619.133	1320.48
619.332	1350.13
619.531	1273.4
619.73	1302.27
619.929	1337.34
620.128	1361.95
620.328	1346.83
620.527	1313.7
620.726	1276.12
620.925	1288.32
621.124	1311.18
621.323	1314.48
621.522	1269.72
621.721	1255.77
621.92	1260.81
622.119	1310.8
622.318	1262.55
622.517	1257.9
622.715	1260.04
622.914	1198.23
623.113	1276.5
623.312	1210.63
623.511	1287.74
623.71	1223.61
623.909	1199.97
624.107	1296.07
624.306	1177.11
624.505	1189.7
624.704	1225.55
624.902	1203.46
625.101	1254.8
625.3	1211.6
625.499	1209.47
625.697	1206.17
625.896	1183.7
626.095	1187.19
626.293	1159.48
626.492	1187.57
626.69	1204.82
626.889	1171.88
627.088	1210.82
627.286	1144.56
627.485	1153.86
627.683	1167.62
627.882	1179.82
628.08	1088.18
628.279	1120.34
628.477	1169.56
628.676	1119.37
628.874	1156.38
629.073	1120.92
629.271	1106.2
629.469	1131
629.668	1110.85
629.866	1149.79
630.065	1143.59
630.263	1135.65
630.461	1104.07
630.66	1128.09
630.858	1159.67
631.056	1170.72
631.254	1171.3
631.453	1147.66
631.651	1138.56
631.849	1139.33
632.047	1145.14
632.245	1133.32
632.444	1126.93
632.642	1169.75
632.84	1180.4
633.038	1139.33
633.236	1118.99
633.434	1090.89
633.632	1113.56
633.83	1127.32
634.028	1178.66
634.227	1132.36
634.425	1212.57
634.623	1120.54
634.821	1149.6
635.019	1144.56
635.216	1105.81
635.414	1198.04
635.612	1134.68
635.81	1142.24
636.008	1205.01
636.206	1139.72
636.404	1177.31
636.602	1142.04
636.8	1112.4
636.997	1149.79
637.195	1196.29
637.393	1186.02
637.591	1207.72
637.789	1160.84
637.986	1149.02
638.184	1139.33
638.382	1204.04
638.58	1119.18
638.777	1182.54
638.975	1161.22
639.173	1159.48
639.37	1124.61
639.568	1136.81
639.765	1167.42
639.963	1065.32
640.161	1161.22
640.358	1110.07
640.556	1060.86
640.753	1064.93
640.951	1072.29
641.148	1091.67
641.346	1065.51
641.543	1065.13
641.741	1080.63
641.938	1048.66
642.136	1059.89
642.333	1060.67
642.531	1067.26
642.728	1117.63
642.925	1039.55
643.123	1030.06
643.32	1059.12
643.517	1052.34
643.715	1038.19
643.912	1016.69
644.109	1054.08
644.306	1027.93
644.504	1016.69
644.701	1041.88
644.898	1069.97
645.095	1025.02
645.293	1013.01
645.49	1021.14
645.687	1024.63
645.884	1022.69
646.081	908
646.278	957.6
646.475	974.26
646.672	953.72
646.87	1012.81
647.067	979.88
647.264	962.25
647.461	915.17
647.658	912.07
647.855	951.2
648.052	888.04
648.249	849.48
648.446	901.02
648.642	885.91
648.839	897.73
649.036	877.38
649.233	823.14
649.43	865.76
649.627	847.93
649.824	851.62
650.021	851.62
650.217	876.03
650.414	870.99
650.611	899.67
650.808	903.54
651.004	878.74
651.201	891.72
651.398	968.45
651.595	871.38
651.791	853.94
651.988	908.97
652.185	849.87
652.381	891.92
652.578	839.8
652.775	872.35
652.971	860.33
653.168	864.21
653.364	861.3
653.561	798.14
653.757	851.03
653.954	840.38
654.15	835.92
654.347	920.78
654.543	821.2
654.74	823.33
654.936	804.73
655.133	835.34
655.329	813.64
655.525	816.55
655.722	838.25
655.918	772.95
656.115	810.74
656.311	730.91
656.507	695.26
656.704	655.16
656.9	714.64
657.096	696.23
657.292	727.04
657.489	758.62
657.685	754.94
657.881	748.35
658.077	767.53
658.273	774.12
658.47	813.84
658.666	779.54
658.862	789.81
659.058	780.12
659.254	811.12
659.45	765.4
659.646	804.73
659.842	780.12
660.038	818.49
660.234	762.1
660.43	775.28
660.626	810.54
660.822	809.57
661.018	839.8
661.214	774.89
661.41	754.94
661.606	806.47
661.802	802.21
661.998	782.45
662.194	750.48
662.39	789.62
662.586	790.97
662.781	784.97
662.977	777.6
663.173	794.46
663.369	781.48
663.564	755.71
663.76	776.05
663.956	721.22
664.152	789.23
664.347	728.78
664.543	748.54
664.739	736.34
664.934	662.71
665.13	690.61
665.326	762.69
665.521	758.62
665.717	715.99
665.912	705.14
666.108	666.59
666.304	714.06
666.499	678.99
666.695	621.64
666.89	647.41
667.086	721.03
667.281	690.03
667.477	755.52
667.672	695.84
667.867	680.15
668.063	704.95
668.258	647.21
668.454	687.12
668.649	713.67
668.844	662.71
669.04	709.6
669.235	653.41
669.43	649.15
669.626	624.93
669.821	646.05
670.016	639.85
670.211	662.71
670.407	621.64
670.602	621.06
670.797	658.06
670.992	690.81
671.187	631.91
671.382	684.41
671.578	635.2
671.773	666.39
671.968	609.04
672.163	655.35
672.358	673.56
672.553	625.51
672.748	602.07
672.943	682.47
673.138	614.86
673.333	670.66
673.528	596.06
673.723	645.86
673.918	634.81
674.113	610.59
674.308	722.97
674.503	646.44
674.698	667.56
674.892	642.95
675.087	640.43
675.282	660.39
675.477	575.33
675.672	631.91
675.867	611.18
676.061	582.69
676.256	588.7
676.451	610.59
676.646	596.84
676.84	618.93
677.035	572.81
677.23	562.16
677.424	642.18
677.619	649.73
677.814	638.88
678.008	679.96
678.203	577.46
678.397	587.15
678.592	596.64
678.787	671.04
678.981	623.38
679.176	605.75
679.37	604.98
679.565	601.49
679.759	598.39
679.954	629.97
680.148	671.82
680.342	656.32
680.537	619.7
680.731	612.73
680.926	608.08
681.12	648.18
681.314	567
681.509	620.86
681.703	655.93
681.897	656.51
682.092	633.07
682.286	580.95
682.48	695.65
682.674	630.55
682.869	639.27
683.063	629.39
683.257	685.57
683.451	621.64
683.645	656.12
683.839	663.49
684.034	635.39
684.228	706.11
684.422	601.1
684.616	647.6
684.81	671.24
685.004	662.71
685.198	634.81
685.392	689.45
685.586	660.97
685.78	702.43
685.974	696.62
686.168	695.46
686.362	708.05
686.556	608.08
686.75	610.21
686.944	595.29
687.138	602.65
687.331	524.57
687.525	530
687.719	519.34
687.913	561.38
688.107	531.93
688.301	580.18
688.494	607.88
688.688	557.9
688.882	535.61
689.076	563.71
689.269	582.69
689.463	657.87
689.657	584.24
689.85	601.49
690.044	641.01
690.238	635.2
690.431	654.38
690.625	667.75
690.818	710.37
691.012	722.19
691.205	750.48
691.399	722.58
691.593	772.57
691.786	796.01
691.98	831.47
692.173	850.45
692.366	812.09
692.56	895.4
692.753	896.18
692.947	843.09
693.14	891.92
693.333	894.63
693.527	840.77
693.72	923.11
693.914	903.54
694.107	932.02
694.3	942.48
694.493	913.03
694.687	995.57
694.88	954.69
695.073	1002.35
695.266	1013.98
695.46	988.98
695.653	1080.04
695.846	1081.79
696.039	1019.21
696.232	1039.94
696.425	1138.36
696.618	1137.39
696.812	1168.59
697.005	1230.2
697.198	1293.75
697.391	1236.01
697.584	1261.59
697.777	1305.76
697.97	1276.89
698.163	1332.88
698.356	1283.87
698.549	1396.05
698.742	1353.23
698.935	1333.27
699.127	1378.03
699.32	1299.75
699.513	1319.9
699.706	1334.63
699.899	1408.64
700.092	1388.68
700.285	1405.35
700.477	1342.38
700.67	1418.52
700.863	1405.73
701.056	1509.19
701.248	1502.99
701.441	1482.26
701.634	1420.85
701.826	1558.79
702.019	1475.09
702.212	1541.94
702.404	1489.82
702.597	1509.78
702.79	1541.94
702.982	1569.06
703.175	1628.74
703.367	1622.92
703.56	1630.87
703.752	1724.83
703.945	1677.75
704.137	1705.27
704.33	1719.8
704.522	1747.31
704.715	1752.54
704.907	1750.6
705.1	1818.03
705.292	1808.53
705.484	1799.43
705.677	1848.83
705.869	1846.31
706.061	1884.68
706.254	1924.39
706.446	1893.78
706.638	1857.55
706.831	1928.27
707.023	1904.44
707.215	1991.43
707.407	1973.41
707.599	1981.55
707.792	2033.28
707.984	2050.14
708.176	2049.17
708.368	2019.52
708.56	2097.02
708.752	2067.38
708.944	2054.79
709.136	2090.24
709.329	2108.45
709.521	2207.27
709.713	2132.29
709.905	2157.67
710.097	2188.67
710.289	2167.55
710.481	2168.71
710.672	2247.56
710.864	2214.43
711.056	2283.8
711.248	2266.94
711.44	2260.35
711.632	2266.55
711.824	2296.58
712.016	2345.79
712.207	2328.74
712.399	2304.14
712.591	2370.01
712.783	2365.56
712.975	2362.46
713.166	2345.79
713.358	2360.71
713.55	2414.77
713.741	2425.81
713.933	2447.9
714.125	2404.69
714.316	2378.73
714.508	2483.36
714.7	2413.41
714.891	2401.59
715.083	2462.43
715.274	2414.77
715.466	2457.78
715.657	2497.5
715.849	2351.8
716.04	2402.95
716.232	2367.69
716.423	2428.14
716.615	2345.99
716.806	2239.43
716.998	2200.48
717.189	2096.83
717.381	2077.84
717.572	2026.69
717.763	2047.42
717.955	1961.21
718.146	1973.41
718.337	1907.54
718.528	1840.31
718.72	1785.28
718.911	1851.93
719.102	1826.55
719.293	1864.91
719.485	1821.71
719.676	1817.64
719.867	1754.28
720.058	1738.4
720.249	1743.05
720.44	1836.63
720.632	1851.35
720.823	1895.53
721.014	2078.42
721.205	2078.23
721.396	2150.11
721.587	2242.72
721.778	2288.64
721.969	2305.69
722.16	2406.24
722.351	2399.08
722.542	2451.19
722.733	2510.09
722.924	2412.64
723.115	2492.07
723.305	2432.4
723.496	2469.99
723.687	2317.89
723.878	2343.08
724.069	2298.71
724.26	2362.46
724.45	2237.1
724.641	2282.05
724.832	2298.71
725.023	2270.81
725.213	2242.33
725.404	2201.84
725.595	2213.66
725.785	2202.03
725.976	2308.21
726.167	2278.56
726.357	2255.51
726.548	2374.08
726.739	2278.95
726.929	2376.79
727.12	2382.22
727.31	2402.56
727.501	2340.18
727.691	2342.69
727.882	2356.84
728.072	2402.56
728.263	2457.01
728.453	2475.22
728.644	2466.89
728.834	2442.28
729.024	2413.41
729.215	2396.56
729.405	2461.07
729.596	2478.32
729.786	2514.16
729.976	2575.97
730.167	2540.51
730.357	2503.31
730.547	2508.54
730.737	2536.05
730.928	2548.45
731.118	2569.77
731.308	2570.54
731.498	2586.04
731.688	2669.16
731.879	2675.94
732.069	2735.61
732.259	2750.73
732.449	2790.64
732.639	2871.82
732.829	2910.37
733.019	2950.67
733.209	3011.32
733.399	3008.6
733.589	3072.54
733.779	3126.79
733.969	3072.54
734.159	3156.63
734.349	3190.34
734.539	3234.71
734.729	3276.56
734.919	3222.89
735.109	3339.91
735.299	3202.93
735.488	3238.58
735.678	3276.56
735.868	3267.06
736.058	3247.11
736.248	3247.88
736.437	3203.13
736.627	3250.21
736.817	3322.86
737.007	3256.41
737.196	3323.44
737.386	3318.02
737.576	3287.6
737.765	3345.72
737.955	3347.47
738.144	3450.93
738.334	3359.48
738.524	3348.24
738.713	3393.77
738.903	3392.61
739.092	3439.69
739.282	3435.62
739.471	3429.23
739.661	3421.29
739.85	3494.13
740.04	3460.42
740.229	3489.29
740.419	3565.63
740.608	3526.49
740.797	3543.93
740.987	3608.06
741.176	3563.11
741.365	3551.68
741.555	3487.16
741.744	3595.27
741.933	3553.03
742.123	3598.56
742.312	3618.91
742.501	3621.62
742.69	3647.39
742.88	3555.75
743.069	3708.42
743.258	3620.65
743.447	3695.44
743.636	3682.07
743.825	3644.09
744.014	3662.89
744.204	3691.76
744.393	3636.34
744.582	3748.33
744.771	3764.22
744.96	3677.61
745.149	3699.51
745.338	3660.76
745.527	3776.81
745.716	3698.15
745.905	3720.62
746.094	3725.08
746.283	3733.61
746.471	3738.84
746.66	3771
746.849	3757.82
747.038	3778.75
747.227	3716.36
747.416	3790.37
747.604	3710.36
747.793	3743.87
747.982	3769.64
748.171	3768.29
748.359	3767.9
748.548	3764.8
748.737	3742.52
748.926	3730.31
749.114	3620.46
749.303	3723.34
749.491	3690.4
749.68	3653.98
749.869	3728.96
750.057	3682.46
750.246	3681.29
750.434	3690.59
750.623	3683.81
750.811	3651.07
751	3716.94
751.188	3610.58
751.377	3681.1
751.565	3700.09
751.754	3606.9
751.942	3644.68
752.131	3728.18
752.319	3609.61
752.507	3600.11
752.696	3688.27
752.884	3631.69
753.072	3614.06
753.261	3660.76
753.449	3567.76
753.637	3611.35
753.825	3663.86
754.014	3645.26
754.202	3625.5
754.39	3706.48
754.578	3678
754.766	3601.86
754.955	3570.28
755.143	3662.89
755.331	3578.03
755.519	3625.5
755.707	3621.62
755.895	3567.37
756.083	3608.25
756.271	3588.3
756.459	3593.91
756.647	3583.84
756.835	3536.18
757.023	3543.54
757.211	3542.38
757.399	3546.64
757.587	3570.66
757.775	3485.03
757.963	3521.84
758.151	3492.39
758.339	3436.01
758.526	3411.79
758.714	3472.82
758.902	3315.31
759.09	3287.21
759.278	3013.45
759.465	2811.37
759.653	2370.79
759.841	2179.37
760.028	1884.87
760.216	1634.94
760.404	1511.52
760.591	1226.9
760.779	1071.71
760.967	909.55
761.154	765.98
761.342	806.67
761.529	784.58
761.717	830.69
761.905	836.5
762.092	876.8
762.28	784.19
762.467	810.74
762.655	739.24
762.842	774.31
763.029	755.32
763.217	789.81
763.404	763.07
763.592	809.96
763.779	740.41
763.966	809.57
764.154	859.75
764.341	915.94
764.528	909.93
764.716	974.06
764.903	1055.63
765.09	1089.34
765.277	1156.38
765.465	1298.78
765.652	1376.86
765.839	1452.62
766.026	1607.23
766.213	1638.62
766.4	1761.84
766.588	1951.52
766.775	1947.45
766.962	2130.93
767.149	2192.73
767.336	2327.39
767.523	2307.05
767.71	2390.36
767.897	2555.24
768.084	2628.28
768.271	2667.61
768.458	2713.53
768.645	2770.1
768.832	2815.44
769.019	2814.47
769.206	2850.7
769.392	2939.63
769.579	3000.85
769.766	2996.4
769.953	2978.77
770.14	3035.15
770.327	3006.28
770.513	3066.92
770.7	3138.8
770.887	3094.82
771.073	3114.39
771.26	3116.33
771.447	3075.25
771.634	3039.6
771.82	3170
772.007	3083.58
772.193	3120.4
772.38	3112.45
772.567	3156.63
772.753	3119.23
772.94	3150.43
773.126	3122.14
773.313	3182.4
773.499	3120.2
773.686	3113.42
773.872	3112.26
774.059	3114.97
774.245	3063.63
774.432	3073.32
774.618	3027.2
774.804	3125.24
774.991	3019.84
775.177	3132.21
775.363	3086.3
775.55	3104.31
775.736	3036.31
775.922	3079.13
776.109	3053.94
776.295	3046.19
776.481	3047.35
776.667	3090.37
776.853	3020.42
777.04	3023.13
777.226	3008.02
777.412	3090.17
777.598	2984.77
777.784	3012.09
777.97	3029.72
778.156	3028.75
778.342	2977.22
778.528	2991.55
778.715	2909.02
778.901	2950.67
779.087	2995.24
779.272	2970.82
779.458	2925.29
779.644	2953.77
779.83	2896.62
780.016	3001.24
780.202	2923.55
780.388	2934.98
780.574	2811.95
780.76	2900.69
780.946	2936.14
781.131	2930.72
781.317	2903.21
781.503	2885.57
781.689	2871.62
781.874	2973.34
782.06	2893.71
782.246	2905.53
782.432	2868.14
782.617	2914.06
782.803	2927.04
782.989	2797.42
783.174	2820.28
783.36	2757.51
783.545	2823.38
783.731	2818.93
783.916	2733.48
784.102	2835.98
784.288	2793.35
784.473	2779.01
784.659	2752.08
784.844	2842.17
785.029	2736.78
785.215	2759.44
785.4	2707.91
785.586	2812.92
785.771	2664.51
785.956	2775.14
786.142	2710.43
786.327	2707.13
786.512	2701.71
786.698	2707.13
786.883	2643.2
787.068	2669.55
787.254	2672.84
787.439	2655.98
787.624	2642.23
787.809	2615.3
787.994	2627.89
788.18	2661.41
788.365	2587.98
788.55	2607.16
788.735	2577.32
788.92	2565.12
789.105	2568.99
789.29	2612
789.475	2536.64
789.66	2539.35
789.845	2519.78
790.03	2498.27
790.215	2569.57
790.4	2531.02
790.585	2599.02
790.77	2509.51
790.955	2449.64
791.14	2527.53
791.325	2581.97
791.51	2434.92
791.695	2472.7
791.879	2492.07
792.064	2428.52
792.249	2561.44
792.434	2493.24
792.618	2487.04
792.803	2500.79
792.988	2508.93
793.173	2463.4
793.357	2539.35
793.542	2465.34
793.727	2498.66
793.911	2515.13
794.096	2493.04
794.281	2537.22
794.465	2609.29
794.65	2514.74
794.834	2552.72
795.019	2596.5
795.203	2588.17
795.388	2575.97
795.572	2554.27
795.757	2540.9
795.941	2511.64
796.126	2538.19
796.31	2502.34
796.494	2520.17
796.679	2512.8
796.863	2476.96
797.048	2556.01
797.232	2519.78
797.416	2539.74
797.601	2537.8
797.785	2584.49
797.969	2571.51
798.153	2543.61
798.338	2538.96
798.522	2577.9
798.706	2592.63
798.89	2580.23
799.074	2674.39
799.258	2637.38
799.443	2561.24
799.627	2567.05
799.811	2627.89
799.995	2548.84
800.179	2529.27
800.363	2480.84
800.547	2572.48
800.731	2624.98
800.915	2447.12
801.099	2535.86
801.283	2563.57
801.467	2532.18
801.651	2494.98
801.835	2576.35
802.019	2570.15
802.202	2539.15
802.386	2506.02
802.57	2492.46
802.754	2506.41
802.938	2484.71
803.121	2488.01
803.305	2544
803.489	2530.63
803.673	2519.39
803.856	2550.97
804.04	2515.9
804.224	2521.52
804.407	2506.8
804.591	2513.19
804.775	2484.13
804.958	2497.3
805.142	2594.37
805.326	2554.85
805.509	2543.22
805.693	2552.91
805.876	2590.3
806.06	2562.4
806.243	2579.84
806.427	2597.86
806.61	2611.03
806.794	2561.05
806.977	2568.6
807.16	2558.72
807.344	2543.03
807.527	2572.67
807.71	2547.68
807.894	2550.78
808.077	2566.67
808.26	2502.54
808.444	2491.1
808.627	2560.08
808.81	2506.02
808.993	2456.04
809.177	2470.37
809.36	2467.27
809.543	2449.84
809.726	2412.06
809.909	2391.71
810.092	2376.21
810.276	2357.23
810.459	2413.8
810.642	2330.49
810.825	2357.23
811.008	2362.65
811.191	2255.9
811.374	2277.01
811.557	2301.04
811.74	2330.1
811.923	2200.1
812.106	2222.77
812.289	2181.3
812.472	2154.76
812.654	2215.98
812.837	2119.11
813.02	2093.73
813.203	2070.87
813.386	1961.79
813.569	1982.32
813.751	1907.34
813.934	1920.33
814.117	1912.96
814.3	1859.68
814.482	1817.64
814.665	1759.9
814.848	1778.12
815.03	1675.04
815.213	1686.47
815.396	1684.34
815.578	1664.97
815.761	1590.76
815.943	1695.77
816.126	1604.91
816.309	1533.61
816.491	1509.58
816.674	1431.11
816.856	1519.08
817.039	1506.68
817.221	1606.65
817.403	1513.46
817.586	1545.04
817.768	1531.67
817.951	1475.09
818.133	1453.39
818.315	1478.19
818.498	1509.19
818.68	1583.98
818.862	1534.57
819.045	1597.54
819.227	1590.76
819.409	1530.89
819.591	1602.19
819.774	1555.31
819.956	1537.67
820.138	1628.15
820.32	1604.32
820.502	1661.67
820.684	1760.87
820.866	1713.98
821.048	1775.6
821.231	1802.91
821.413	1759.71
821.595	1763.78
821.777	1757
821.959	1751.38
822.141	1806.21
822.323	1679.69
822.505	1629.32
822.686	1550.27
822.868	1490.79
823.05	1366.98
823.232	1350.9
823.414	1302.08
823.596	1347.61
823.778	1369.89
823.96	1401.28
824.141	1397.6
824.323	1457.46
824.505	1520.43
824.687	1542.71
824.868	1605.29
825.05	1710.3
825.232	1703.91
825.413	1793.23
825.595	1752.35
825.777	1655.47
825.958	1728.32
826.14	1712.43
826.321	1728.32
826.503	1709.14
826.685	1738.4
826.866	1725.61
827.048	1746.73
827.229	1705.85
827.411	1652.57
827.592	1606.07
827.773	1589.79
827.955	1569.64
828.136	1554.53
828.318	1537.48
828.499	1557.82
828.68	1517.91
828.862	1530.7
829.043	1522.37
829.224	1518.88
829.406	1518.11
829.587	1488.85
829.768	1501.06
829.949	1549.3
830.131	1533.61
830.312	1591.34
830.493	1540.39
830.674	1544.07
830.855	1561.89
831.036	1547.94
831.218	1597.54
831.399	1597.35
831.58	1561.51
831.761	1575.26
831.942	1584.37
832.123	1547.94
832.304	1512.29
832.485	1515.98
832.666	1508.61
832.847	1593.86
833.028	1558.99
833.209	1544.26
833.389	1529.54
833.57	1491.56
833.751	1533.22
833.932	1585.34
834.113	1536.12
834.294	1524.69
834.475	1559.96
834.655	1601.03
834.836	1626.6
835.017	1611.69
835.198	1536.32
835.378	1580.3
835.559	1619.63
835.74	1577.59
835.92	1574.87
836.101	1555.31
836.281	1604.71
836.462	1581.85
836.643	1649.27
836.823	1635.32
837.004	1642.88
837.184	1698.29
837.365	1662.64
837.545	1663.8
837.726	1603.94
837.906	1681.24
838.087	1624.67
838.267	1620.02
838.448	1590.37
838.628	1627.96
838.808	1625.05
838.989	1673.69
839.169	1579.72
839.349	1634.55
839.53	1669.04
839.71	1672.91
839.89	1606.84
840.07	1675.82
840.251	1608.01
840.431	1675.82
840.611	1639.97
840.791	1624.67
840.971	1665.16
841.151	1641.14
841.332	1586.5
841.512	1692.87
841.692	1559.76
841.872	1643.65
842.052	1612.66
842.232	1637.65
842.412	1592.31
842.592	1606.26
842.772	1627.38
842.952	1595.22
843.132	1604.32
843.312	1577.2
843.492	1563.06
843.672	1610.91
843.851	1550.46
844.031	1563.25
844.211	1613.62
844.391	1555.69
844.571	1614.01
844.751	1586.31
844.93	1550.07
845.11	1557.63
845.29	1587.66
845.47	1599.29
845.649	1594.06
845.829	1580.69
846.009	1556.47
846.188	1579.33
846.368	1586.89
846.547	1564.41
846.727	1599.67
846.907	1550.07
847.086	1566.54
847.266	1581.46
847.445	1558.02
847.625	1553.37
847.804	1512.68
847.984	1544.65
848.163	1526.63
848.343	1507.84
848.522	1542.13
848.701	1550.85
848.881	1514.04
849.06	1526.05
849.239	1529.92
849.419	1512.68
849.598	1466.57
849.777	1494.86
849.957	1457.08
850.136	1424.33
850.315	1409.61
850.494	1387.71
850.674	1426.85
850.853	1476.26
851.032	1427.63
851.211	1509.97
851.39	1444.68
851.569	1393.33
851.748	1410.19
851.927	1462.11
852.107	1414.26
852.286	1383.45
852.465	1389.65
852.644	1465.6
852.823	1421.62
853.002	1442.74
853.181	1436.35
853.359	1424.14
853.538	1346.64
853.717	1431.89
853.896	1334.63
854.075	1295.68
854.254	1251.9
854.433	1222.06
854.611	1253.25
854.79	1196.87
854.969	1256.94
855.148	1281.54
855.327	1234.27
855.505	1270.3
855.684	1238.53
855.863	1288.32
856.041	1282.12
856.22	1325.52
856.399	1309.63
856.577	1380.74
856.756	1343.93
856.934	1455.33
857.113	1471.41
857.291	1396.24
857.47	1334.05
857.648	1394.3
857.827	1367.76
858.005	1402.83
858.184	1366.4
858.362	1413.68
858.541	1353.23
858.719	1342.96
858.898	1331.33
859.076	1329.01
859.254	1422.59
859.433	1329.98
859.611	1351.1
859.789	1295.49
859.967	1409.8
860.146	1392.75
860.324	1313.12
860.502	1334.24
860.68	1291.23
860.859	1293.75
861.037	1295.3
861.215	1333.27
861.393	1327.07
861.571	1322.42
861.749	1288.13
861.927	1340.05
862.105	1316.61
862.283	1305.18
862.461	1284.06
862.639	1256.35
862.817	1255.58
862.995	1312.15
863.173	1273.79
863.351	1297.04
863.529	1311.96
863.707	1303.43
863.885	1294.13
864.063	1223.03
864.241	1274.18
864.418	1309.63
864.596	1254.22
864.774	1219.74
864.952	1264.49
865.129	1267.98
865.307	1224
865.485	1187.19
865.663	1261.78
865.84	1159.48
866.018	1199.2
866.196	1098.45
866.373	1095.16
866.551	1098.64
866.728	1002.35
866.906	1093.22
867.084	1119.76
867.261	1129.06
867.439	1108.33
867.616	1139.72
867.794	1136.23
867.971	1183.12
868.149	1160.26
868.326	1195.32
868.503	1187.77
868.681	1169.56
868.858	1148.24
869.035	1138.94
869.213	1172.46
869.39	1129.64
869.567	1231.75
869.745	1152.89
869.922	1175.95
870.099	1193.19
870.276	1198.04
870.454	1176.14
870.631	1209.27
870.808	1175.56
870.985	1184.28
871.162	1198.81
871.339	1177.89
871.517	1092.06
871.694	1117.24
871.871	1144.95
872.048	1151.92
872.225	1148.24
872.402	1155.41
872.579	1076.36
872.756	1137.39
872.933	1072.1
873.11	1086.24
873.287	1122.09
873.463	1122.67
873.64	1077.33
873.817	1132.36
873.994	1069.19
874.171	1072.29
874.348	1112.21
874.524	1058.34
874.701	1110.46
874.878	1035.68
875.055	1104.26
875.231	1084.5
875.408	1094.19
875.585	1034.71
875.762	1065.9
875.938	1019.21
876.115	1062.8
876.291	1069
876.468	1044.59
876.645	1034.51
876.821	1033.74
876.998	1051.76
877.174	1059.89
877.351	1048.27
877.527	1020.18
877.704	1050.21
877.88	1010.1
878.057	1021.34
878.233	1087.21
878.409	1019.4
878.586	1030.06
878.762	1004.87
878.938	1010.68
879.115	998.09
879.291	999.64
879.467	957.6
879.644	978.33
879.82	1023.08
879.996	964.18
880.172	938.8
880.349	992.47
880.525	997.31
880.701	969.03
880.877	942.48
881.053	973.87
881.229	980.85
881.405	1008.36
881.581	948.49
881.757	1005.64
881.933	984.14
882.109	1019.59
882.285	1001.58
882.461	913.03
882.637	976.58
882.813	957.21
882.989	953.33
883.165	1000.61
883.341	933.38
883.517	974.06
883.693	985.5
883.869	1027.54
884.044	942.29
884.22	991.89
884.396	1012.23
884.572	1011.26
884.747	1013.98
884.923	987.43
885.099	1004.87
885.275	1008.55
885.45	938.22
885.626	967.09
885.801	922.72
885.977	990.15
886.153	893.27
886.328	997.9
886.504	925.24
886.679	992.08
886.855	932.99
887.03	935.31
887.206	976.58
887.381	971.93
887.557	1005.06
887.732	993.83
887.908	986.46
888.083	999.45
888.258	953.72
888.434	975.61
888.609	955.85
888.784	1037.23
888.96	953.72
889.135	933.38
889.31	941.51
889.485	971.93
889.661	935.12
889.836	981.04
890.011	980.85
890.186	955.46
890.361	909.16
890.537	986.46
890.712	942.48
890.887	944.61
891.062	953.14
891.237	988.98
891.412	922.14
891.587	930.86
891.762	954.11
891.937	1000.22
892.112	916.52
892.287	947.33
892.462	900.25
892.637	844.83
892.812	873.51
892.987	887.65
893.161	853.17
893.336	878.35
893.511	859.95
893.686	879.52
893.861	846.19
894.035	838.63
894.21	861.5
894.385	809.19
894.56	838.25
894.734	782.84
894.909	770.63
895.084	804.34
895.258	779.93
895.433	764.24
895.608	738.47
895.782	697.97
895.957	755.13
896.131	694.49
896.306	695.84
896.48	670.66
896.655	678.99
896.829	612.73
897.004	612.34
897.178	636.36
897.353	601.49
897.527	666.39
897.701	644.69
897.876	582.69
898.05	641.01
898.224	658.45
898.399	659.81
898.573	611.76
898.747	520.11
898.921	570.88
899.096	481.75
899.27	496.09
899.444	524.96
899.618	535.61
899.792	556.15
899.967	542.98
900.141	569.71
900.315	502.87
900.489	543.56
900.663	568.94
900.837	542.59
901.011	475.36
901.185	635.78
901.359	546.85
901.533	579.4
901.707	530.19
901.881	541.81
902.055	517.79
902.229	509.07
902.403	608.85
902.576	547.05
902.75	560.41
902.924	645.28
903.098	600.13
903.272	649.15
903.446	675.69
903.619	672.98
903.793	717.74
903.967	649.73
904.14	711.92
904.314	691
904.488	681.51
904.661	731.69
904.835	691.58
905.009	723.16
905.182	743.5
905.356	716.57
905.529	726.65
905.703	678.41
905.876	643.53
906.05	603.43
906.223	625.71
906.397	582.5
906.57	573.59
906.744	532.71
906.917	540.85
907.09	557.12
907.264	533.29
907.437	510.62
907.61	492.41
907.784	517.21
907.957	526.31
908.13	494.73
908.304	502.1
908.477	492.8
908.65	482.14
908.823	455.79
908.996	520.11
909.17	472.45
909.343	481.95
909.516	470.32
909.689	455.02
909.862	472.65
910.035	486.21
910.208	422.08
910.381	455.98
910.554	536.2
910.727	470.13
910.9	446.49
911.073	443
911.246	542.4
911.419	534.65
911.592	506.55
911.765	453.47
911.938	449.01
912.11	461.02
912.283	459.28
912.456	499.96
912.629	453.85
912.802	449.2
912.974	395.15
913.147	375.58
913.32	342.64
913.493	400.96
913.665	407.16
913.838	428.86
914.01	415.3
914.183	428.08
914.356	403.28
914.528	441.65
914.701	468.58
914.873	461.22
915.046	389.53
915.218	343.8
915.391	346.71
915.563	340.7
915.736	393.6
915.908	415.88
916.081	401.73
916.253	414.72
916.425	430.22
916.598	430.8
916.77	387.2
916.942	378.1
917.115	321.14
917.287	390.5
917.459	367.05
917.632	354.65
917.804	285.87
917.976	406.38
918.148	382.75
918.32	393.6
918.493	427.89
918.665	440.68
918.837	403.87
919.009	460.25
919.181	445.72
919.353	438.16
919.525	411.23
919.697	412.78
919.869	421.69
920.041	493.38
920.213	533.87
920.385	468.77
920.557	441.65
920.729	435.64
920.901	465.67
921.073	442.62
921.244	423.63
921.416	495.31
921.588	438.55
921.76	429.44
921.932	468.58
922.103	429.63
922.275	449.2
922.447	465.09
922.619	387.98
922.79	447.65
922.962	397.47
923.134	432.93
923.305	381
923.477	335.09
923.648	375.97
923.82	377.71
923.991	336.44
924.163	325.2
924.335	375.19
924.506	365.12
924.677	401.73
924.849	326.37
925.02	378.1
925.192	366.28
925.363	370.54
925.535	388.17
925.706	349.42
925.877	421.88
926.049	350.59
926.22	337.41
926.391	368.99
926.562	397.08
926.734	347.29
926.905	369.96
927.076	284.71
927.247	332.37
927.419	313.77
927.59	284.13
927.761	306.6
927.932	268.82
928.103	267.08
928.274	243.25
928.445	238.02
928.616	220
928.787	241.89
928.958	264.37
929.129	262.24
929.3	230.07
929.471	200.04
929.642	150.06
929.813	155.68
929.984	217.68
930.155	161.68
930.326	194.81
930.496	139.59
930.667	128.75
930.838	154.13
931.009	110.53
931.18	114.21
931.35	131.46
931.521	139.59
931.692	91.35
931.863	60.35
932.033	107.05
932.204	120.22
932.374	109.37
932.545	88.83
932.716	141.34
932.886	104.53
933.057	29.16
933.227	43.69
933.398	114.8
933.568	25.87
933.739	5.52
933.909	41.37
934.08	73.53
934.25	11.72
934.421	39.04
934.591	72.36
934.761	19.28
934.932	-16.95
935.102	39.23
935.272	33.62
935.443	39.04
935.613	4.75
935.783	53.76
935.953	30.32
936.123	165.17
936.294	41.75
936.464	21.41
936.634	46.21
936.804	-17.53
936.974	-5.13
937.144	26.45
937.314	48.92
937.484	31.48
937.655	4.36
937.825	78.18
937.995	3
938.165	40.2
938.334	66.55
938.504	62.48
938.674	37.68
938.844	14.82
939.014	100.65
939.184	73.72
939.354	113.05
939.524	122.35
939.694	74.5
939.863	75.46
940.033	120.03
940.203	121.19
940.373	114.99
940.542	112.66
940.712	53.57
940.882	113.83
941.051	107.43
941.221	107.43
941.391	139.01
941.56	67.52
941.73	48.92
941.899	149.67
942.069	53.76
942.238	105.11
942.408	59.38
942.577	121.77
942.747	73.72
942.916	15.02
943.086	34.97
943.255	106.08
943.425	64.23
943.594	57.64
943.763	-12.88
943.933	28.77
944.102	-10.17
944.271	57.64
944.441	83.02
944.61	30.9
944.779	71.4
944.948	134.36
945.117	16.95
945.287	33.23
945.456	-5.52
945.625	25.28
945.794	62.87
945.963	18.89
946.132	44.08
946.301	36.91
946.47	90.96
946.639	-4.17
946.808	43.3
946.977	68.3
947.146	95.23
947.315	40.01
947.484	103.75
947.653	50.08
947.822	37.88
947.991	2.62
948.16	114.21
948.329	87.86
948.498	35.36
948.666	61.32
948.835	58.41
949.004	45.43
949.173	8.43
949.341	46.6
949.51	65.58
949.679	108.79
949.847	97.36
950.016	138.24
950.185	95.23
950.353	37.3
950.522	62.48
950.69	107.43
950.859	28.38
951.028	78.76
951.196	62.48
951.365	25.28
951.533	42.33
951.701	78.18
951.87	57.45
952.038	29.35
952.207	57.83
952.375	109.37
952.543	42.92
952.712	46.01
952.88	71.78
953.048	108.6
953.217	55.7
953.385	44.85
953.553	93.68
953.721	10.95
953.89	55.7
954.058	26.25
954.226	55.9
954.394	43.88
954.562	12.69
954.73	61.51
954.898	51.44
955.067	91.74
955.235	57.25
955.403	69.46
955.571	119.25
955.739	69.07
955.907	29.93
956.075	21.99
956.243	37.88
956.41	67.13
956.578	27.8
956.746	17.53
956.914	39.43
957.082	49.31
957.25	89.61
957.418	68.3
957.585	77.79
957.753	101.43
957.921	39.04
958.089	41.56
958.256	75.08
958.424	95.81
958.592	59.77
958.759	49.11
958.927	92.13
959.095	35.75
959.262	63.06
959.43	60.93
959.597	40.98
959.765	57.64
959.932	28.38
960.1	101.04
960.267	46.79
960.435	59
960.602	83.41
960.77	49.31
960.937	34.39
961.104	46.98
961.272	14.43
961.439	34.2
961.606	79.15
961.774	91.55
961.941	63.45
962.108	73.33
962.275	62.29
962.443	109.18
962.61	73.33
962.777	140.18
962.944	93.29
963.111	68.68
963.278	86.12
963.446	63.06
963.613	78.56
963.78	95.23
963.947	99.88
964.114	115.38
964.281	146.57
964.448	97.75
964.615	52.8
964.782	70.81
964.949	108.4
965.116	90.38
965.282	124.29
965.449	72.36
965.616	59.77
965.783	97.94
965.95	110.15
966.117	27.42
966.283	70.81
966.45	92.13
966.617	71.2
966.784	111.89
966.95	117.12
967.117	115.38
967.284	59.38
967.45	55.12
967.617	143.66
967.784	127.39
967.95	129.52
968.117	69.46
968.283	108.98
968.45	195.39
968.616	105.5
968.783	154.13
968.949	125.84
969.116	131.26
969.282	102.98
969.449	122.35
969.615	85.73
969.781	45.43
969.948	80.89
970.114	62.87
970.28	143.66
970.447	103.75
970.613	117.12
970.779	94.06
970.945	114.41
971.112	118.09
971.278	96
971.444	109.37
971.61	139.79
971.776	88.06
971.942	120.61
972.108	129.33
972.275	102.98
972.441	103.17
972.607	123.32
972.773	84.57
972.939	88.64
973.105	88.25
973.271	38.07
973.437	65.97
973.602	73.91
973.768	98.71
973.934	88.06
974.1	108.01
974.266	32.84
974.432	104.91
974.598	97.36
974.763	127.2
974.929	74.69
975.095	147.54
975.261	68.88
975.426	77.98
975.592	76.63
975.758	164.59
975.923	52.8
976.089	70.43
976.255	101.62
976.42	98.13
976.586	93.48
976.751	95.03
976.917	146.38
977.082	137.66
977.248	32.45
977.413	43.88
977.579	78.18
977.744	108.01
977.91	70.04
978.075	57.83
978.24	69.07
978.406	90.77
978.571	57.64
978.736	60.55
978.902	110.92
979.067	63.26
979.232	35.17
979.397	82.83
979.563	116.93
979.728	70.43
979.893	84.57
980.058	37.1
980.223	122.93
980.388	68.49
980.554	84.18
980.719	64.23
980.884	99.3
981.049	84.96
981.214	60.93
981.379	97.94
981.544	57.45
981.709	93.87
981.874	65.2
982.039	97.36
982.204	92.32
982.368	69.65
982.533	59.96
982.698	115.18
982.863	116.73
983.028	50.47
983.193	91.16
983.357	110.34
983.522	82.63
983.687	82.05
983.852	54.73
984.016	76.05
984.181	64.81
984.346	87.28
984.51	76.82
984.675	69.65
984.839	110.15
985.004	81.08
985.168	120.03
985.333	109.95
985.498	55.9
985.662	117.7
985.827	90.58
985.991	86.9
986.155	79.15
986.32	97.55
986.484	135.72
986.649	91.16
986.813	40.59
986.977	102.4
987.142	91.74
987.306	39.23
987.47	65.58
987.634	95.61
987.799	99.3
987.963	84.76
988.127	97.16
988.291	126.81
988.455	106.85
988.62	67.33
988.784	98.71
988.948	91.16
989.112	74.3
989.276	83.21
989.44	98.33
989.604	65.39
989.768	63.65
989.932	147.54
990.096	32.84
990.26	65
990.424	61.9
990.588	58.41
990.752	152.77
990.915	113.25
991.079	48.73
991.243	64.23
991.407	87.48
991.571	77.6
991.734	97.16
991.898	88.25
992.062	152.19
992.226	83.6
992.389	53.57
992.553	42.72
992.717	52.21
992.88	57.64
993.044	52.41
993.207	51.83
993.371	88.45
993.535	93.68
993.698	73.53
993.862	84.18
994.025	121.58
994.189	65.39
994.352	91.93
994.515	76.82
994.679	88.25
994.842	69.46
995.006	115.18
995.169	50.86
995.332	73.91
995.496	92.13
995.659	3.58
995.822	75.85
995.985	55.51
996.149	88.45
996.312	51.05
996.475	137.66
996.638	93.68
996.801	121.19
996.964	104.72
997.128	49.7
997.291	47.95
997.454	71.2
997.617	20.44
997.78	103.75
997.943	37.88
998.106	97.36
998.269	34.39
998.432	81.28
998.595	49.5
998.758	37.3
998.92	27.61
999.083	23.73
999.246	56.86
999.409	14.63
999.572	7.46
999.735	26.64
999.897	53.76
1000.06	61.13
1000.223	48.92
1000.386	69.65
1000.548	79.34
1000.711	81.47
1000.874	69.65
1001.036	1.65
1001.199	64.42
1001.361	23.93
1001.524	74.69
1001.687	87.28
1001.849	44.08
1002.012	59.96
1002.174	62.1
1002.337	49.7
1002.499	55.51
1002.661	77.6
1002.824	20.25
1002.986	8.23
1003.149	67.71
1003.311	38.65
1003.473	85.93
1003.636	27.61
1003.798	81.08
1003.96	52.6
1004.123	68.49
1004.285	54.15
1004.447	54.54
1004.609	14.82
1004.771	94.84
1004.933	8.43
1005.096	7.07
1005.258	28.58
1005.42	36.33
1005.582	85.15
1005.744	54.54
1005.906	32.65
1006.068	40.4
1006.23	-16.76
1006.392	3
1006.554	21.99
1006.716	62.87
1006.878	62.87
1007.04	6.68
1007.202	38.85
1007.363	25.67
1007.525	39.43
1007.687	71.01
1007.849	80.31
1008.011	11.53
1008.172	22.18
1008.334	41.37
1008.496	67.71
1008.658	-2.42
1008.819	8.04
1008.981	4.55
1009.143	-8.04
1009.304	24.7
1009.466	60.93
1009.627	94.65
1009.789	109.56
1009.95	37.3
1010.112	22.18
1010.273	53.96
1010.435	36.52
1010.596	18.7
1010.758	16.57
1010.919	28.97
1011.081	2.03
1011.242	16.57
1011.403	55.7
1011.565	18.89
1011.726	43.3
1011.887	-2.23
1012.049	30.52
1012.21	50.47
1012.371	87.09
1012.532	-20.25
1012.693	50.08
1012.855	30.9
1013.016	29.16
1013.177	67.71
1013.338	17.73
1013.499	82.05
1013.66	75.85
1013.821	66.75
1013.982	28.97
1014.143	40.98
1014.304	20.63
1014.465	28
1014.626	39.43
1014.787	39.82
1014.948	96
1015.109	-62.68
1015.27	66.16
1015.431	26.45
1015.592	8.43
1015.752	61.32
1015.913	35.36
1016.074	60.35
1016.235	34
1016.395	9.98
1016.556	40.01
1016.717	34.2
1016.877	51.05
1017.038	-9.98
1017.199	42.92
1017.359	56.67
1017.52	32.45
1017.681	0.29
1017.841	23.15
1018.002	36.52
1018.162	11.92
1018.323	93.87
1018.483	27.61
1018.644	15.6
1018.804	-2.81
1018.964	-9.59
1019.125	13.27
1019.285	33.03
1019.446	-9.4
1019.606	-21.41
1019.766	-17.73
1019.926	34.97
1020.087	11.33
1020.247	-5.33
1020.407	41.75
1020.567	59.96
1020.728	38.85
1020.888	-16.18
1021.048	14.82
1021.208	7.27
1021.368	4.36
1021.528	48.53
1021.688	47.95
1021.848	29.93
1022.008	18.89
1022.168	-1.45
1022.328	26.83
1022.488	56.86
1022.648	6.49
1022.808	27.61
1022.968	53.96
1023.128	-18.12
1023.288	5.33
1023.448	6.3
1023.608	24.51
1023.767	43.69
1023.927	12.5
1024.087	0.87
1024.247	5.72
1024.406	-18.5
1024.566	-5.72
1024.726	-4.55
1024.885	-0.1
1025.045	36.33
1025.205	8.82
1025.364	10.37
1025.524	11.72
1025.683	19.86
1025.843	25.48
1026.003	8.04
1026.162	83.8
1026.321	41.37
1026.481	-24.32
1026.64	-18.89
1026.8	41.95
1026.959	14.63
1027.119	47.95
1027.278	-4.75
1027.437	1.84
1027.597	15.4
1027.756	5.33
1027.915	22.77
1028.074	41.75
1028.234	-5.72
1028.393	3.2
1028.552	4.36
1028.711	-67.33
1028.87	42.53
1029.03	-44.46
1029.189	34.2
1029.348	-45.82
1029.507	-7.27
1029.666	-25.28
1029.825	-2.03
1029.984	1.65
1030.143	15.4
1030.302	-5.33
1030.461	-66.55
1030.62	10.17
1030.779	29.55
1030.938	-15.98
1031.097	-30.71
1031.255	32.45
1031.414	25.48
1031.573	58.41
1031.732	-18.5
1031.891	2.42
1032.049	66.75
1032.208	32.84
1032.367	2.42
1032.525	10.75
1032.684	16.18
1032.843	6.88
1033.001	-48.92
1033.16	129.13
1033.319	22.77
1033.477	46.01
1033.636	-14.05
1033.794	-34.78
1033.953	23.93
1034.111	34.97
1034.27	10.75
1034.428	24.51
1034.587	-38.27
1034.745	5.91
1034.903	-3.2
1035.062	33.23
1035.22	-17.73
1035.378	11.33
1035.537	-6.88
1035.695	32.26
1035.853	28.58
1036.011	41.95
1036.17	3
1036.328	-26.25
1036.486	-3.2
1036.644	9.4
1036.802	-71.01
1036.96	-30.32
1037.119	-2.62
1037.277	-25.09
1037.435	-36.13
1037.593	-40.98
1037.751	-4.17
1037.909	29.16
1038.067	29.16
