Data from gum_young_FLMT105791__116__17-40-44-040.txt Node

Date: Mon Mar 20 17:40:44 GMT 2023
User: antho
Spectrometer: FLMT10579
Trigger mode: 0
Integration Time (sec): 1.000000E-1
Scans to average: 10
Electric dark correction enabled: true
Nonlinearity correction enabled: false
Boxcar width: 0
XAxis mode: Wavelengths
Number of Pixels in Spectrum: 3648
>>>>>Begin Spectral Data<<<<<
345.248	-152.59
345.464	-152.59
345.681	-152.59
345.898	-132.64
346.114	-110.74
346.331	-41.57
346.548	21.01
346.764	-22.01
346.981	-27.63
347.197	19.46
347.414	6.28
347.631	-17.74
347.847	38.83
348.064	17.91
348.28	37.67
348.497	-28.01
348.713	-4.18
348.93	14.61
349.146	21.59
349.363	-1.47
349.579	6.86
349.796	9.96
350.012	-22.59
350.229	28.76
350.445	22.94
350.661	10.16
350.878	4.34
351.094	22.36
351.311	39.02
351.527	28.76
351.743	-27.04
351.96	34.18
352.176	45.03
352.392	41.74
352.609	33.41
352.825	-16.97
353.041	32.63
353.257	-6.31
353.474	16.74
353.69	35.15
353.906	14.03
354.122	-20.84
354.339	65.18
354.555	17.52
354.771	-13.68
354.987	71.57
355.203	52.59
355.42	-10.96
355.636	0.86
355.852	6.86
356.068	-12.51
356.284	-9.99
356.5	58.4
356.716	27.01
356.932	23.33
357.148	23.52
357.364	22.17
357.58	45.03
357.796	64.6
358.012	57.24
358.228	27.59
358.444	-39.25
358.66	66.92
358.876	21.78
359.092	-10.58
359.308	22.17
359.524	44.06
359.74	2.6
359.956	7.25
360.172	34.96
360.388	46.77
360.604	-1.47
360.819	84.94
361.035	8.99
361.251	26.82
361.467	-28.98
361.683	49.29
361.898	17.52
362.114	43.67
362.33	-8.06
362.546	45.03
362.762	26.62
362.977	40.77
363.193	-13.87
363.409	55.88
363.624	-18.91
363.84	10.54
364.056	-0.11
364.271	20.42
364.487	47.36
364.703	32.05
364.918	-7.09
365.134	17.13
365.35	16.94
365.565	98.5
365.781	18.1
365.996	41.54
366.212	66.73
366.427	44.64
366.643	17.91
366.858	9.96
367.074	-13.48
367.289	47.36
367.505	117.88
367.72	-30.53
367.936	-14.64
368.151	54.91
368.367	45.81
368.582	22.17
368.798	16.55
369.013	64.6
369.228	38.44
369.444	8.99
369.659	54.72
369.874	54.33
370.09	62.08
370.305	-28.4
370.52	10.35
370.736	59.17
370.951	3.57
371.166	64.99
371.381	74.87
371.597	42.12
371.812	-23.56
372.027	11.32
372.242	18.87
372.458	76.42
372.673	16.36
372.888	31.27
373.103	26.43
373.318	95.4
373.533	69.83
373.749	46.77
373.964	-11.93
374.179	46.39
374.394	9.19
374.609	67.12
374.824	-15.42
375.039	62.66
375.254	8.8
375.469	79.71
375.684	56.85
375.899	65.57
376.114	36.31
376.329	25.46
376.544	48.32
376.759	61.3
376.974	-4.18
377.189	15.58
377.404	-3.79
377.619	53.94
377.834	-37.89
378.049	-3.02
378.264	-3.99
378.478	30.11
378.693	8.99
378.908	39.02
379.123	13.26
379.338	66.73
379.553	34.76
379.767	43.87
379.982	59.56
380.197	44.45
380.412	41.93
380.626	51.04
380.841	112.07
381.056	52.39
381.271	81.26
381.485	14.22
381.7	3.76
381.915	37.86
382.129	12.87
382.344	34.57
382.559	37.67
382.773	63.24
382.988	-29.56
383.202	59.56
383.417	-9.99
383.632	115.55
383.846	46
384.061	31.86
384.275	34.18
384.49	43.48
384.704	53.75
384.919	46.58
385.133	26.43
385.348	32.24
385.562	8.41
385.777	67.12
385.991	33.79
386.206	16.16
386.42	25.46
386.634	76.8
386.849	38.25
387.063	17.32
387.277	7.25
387.492	9.38
387.706	17.71
387.92	26.24
388.135	62.85
388.349	56.46
388.563	64.79
388.778	53.94
388.992	77.97
389.206	49.49
389.42	96.76
389.635	29.92
389.849	60.14
390.063	66.92
390.277	55.3
390.491	77.97
390.706	69.05
390.92	72.93
391.134	65.76
391.348	63.63
391.562	21.78
391.776	49.29
391.99	8.8
392.205	57.24
392.419	23.72
392.633	41.54
392.847	102.38
393.061	19.84
393.275	102.57
393.489	56.27
393.703	33.99
393.917	89.79
394.131	29.34
394.345	57.04
394.559	92.89
394.773	55.49
394.986	70.41
395.2	41.16
395.414	108.39
395.628	34.37
395.842	64.99
396.056	45.81
396.27	9.38
396.484	56.46
396.697	73.9
396.911	89.01
397.125	86.1
397.339	88.62
397.553	70.02
397.766	111.68
397.98	126.21
398.194	89.59
398.408	48.32
398.621	68.67
398.835	94.82
399.049	80.49
399.262	88.82
399.476	125.44
399.69	109.94
399.903	159.15
400.117	77.77
400.331	76.42
400.544	51.81
400.758	178.13
400.971	95.6
401.185	98.5
401.398	55.69
401.612	142.48
401.826	89.01
402.039	123.3
402.253	76.03
402.466	112.84
402.68	79.9
402.893	91.72
403.106	83.2
403.32	117.69
403.533	114.59
403.747	95.02
403.96	109.74
404.174	153.53
404.387	66.34
404.6	91.34
404.814	152.75
405.027	90.56
405.24	102.77
405.454	131.44
405.667	123.89
405.88	50.65
406.094	103.93
406.307	141.9
406.52	114.59
406.733	57.24
406.947	54.14
407.16	141.71
407.373	135.7
407.586	92.11
407.799	66.54
408.012	152.95
408.226	125.24
408.439	159.92
408.652	66.15
408.865	140.16
409.078	124.85
409.291	113.81
409.504	97.73
409.717	161.47
409.93	114.97
410.143	120.59
410.357	78.35
410.57	91.72
410.783	85.33
410.996	107.61
411.209	120.2
411.421	151.78
411.634	131.64
411.847	128.73
412.06	119.62
412.273	135.32
412.486	123.69
412.699	210.68
412.912	132.8
413.125	175.62
413.338	106.25
413.55	155.66
413.763	143.26
413.976	160.12
414.189	135.12
414.402	122.72
414.615	145
414.827	95.4
415.04	175.81
415.253	150.04
415.466	193.83
415.678	185.11
415.891	144.03
416.104	136.67
416.316	156.63
416.529	132.99
416.742	159.73
416.954	181.23
417.167	172.9
417.38	150.43
417.592	169.22
417.805	108.97
418.017	118.46
418.23	155.47
418.442	115.75
418.655	156.24
418.868	177.17
419.08	196.54
419.293	175.62
419.505	148.3
419.718	151.59
419.93	179.49
420.142	140.74
420.355	181.43
420.567	204.1
420.78	167.28
420.992	170.77
421.205	216.5
421.417	127.37
421.629	154.5
421.842	141.13
422.054	110.9
422.266	186.08
422.479	170.58
422.691	147.52
422.903	170.77
423.115	126.21
423.328	154.88
423.54	160.5
423.752	188.6
423.964	133.38
424.177	170.77
424.389	156.63
424.601	245.36
424.813	176.58
425.025	198.09
425.238	204.87
425.45	157.98
425.662	159.92
425.874	462.75
426.086	163.22
426.298	216.69
426.51	176.2
426.722	152.56
426.934	177.36
427.146	196.93
427.358	151.78
427.57	216.88
427.782	184.72
427.994	177.17
428.206	137.06
428.418	126.4
428.63	182.4
428.842	218.05
429.054	204.87
429.266	219.02
429.478	151.59
429.69	194.99
429.902	119.24
430.114	214.75
430.325	140.93
430.537	133.57
430.749	147.52
430.961	121.56
431.173	148.3
431.384	156.05
431.596	120.01
431.808	161.86
432.02	163.99
432.231	221.73
432.443	244.4
432.655	206.42
432.867	194.99
433.078	215.33
433.29	269.2
433.502	227.54
433.713	238.58
433.925	204.1
434.136	228.9
434.348	161.86
434.56	161.47
434.771	273.26
434.983	151.4
435.194	188.4
435.406	226.18
435.617	248.08
435.829	279.85
436.04	237.23
436.252	244.2
436.463	278.69
436.675	252.15
436.886	238.58
437.098	237.23
437.309	295.55
437.521	255.05
437.732	259.7
437.943	224.44
438.155	234.13
438.366	186.08
438.578	256.21
438.789	246.33
439	243.43
439.211	236.84
439.423	248.66
439.634	258.93
439.845	240.13
440.057	258.35
440.268	296.71
440.479	241.88
440.69	273.85
440.902	227.54
441.113	228.7
441.324	232.38
441.535	301.36
441.746	337.98
441.957	219.79
442.168	240.52
442.38	292.25
442.591	289.35
442.802	233.35
443.013	265.51
443.224	313.18
443.435	273.85
443.646	276.36
443.857	275.59
444.068	260.48
444.279	240.33
444.49	343.98
444.701	276.75
444.912	378.08
445.123	315.31
445.334	301.55
445.545	301.36
445.756	298.45
445.967	251.18
446.178	306.78
446.388	320.15
446.599	304.07
446.81	310.08
447.021	285.66
447.232	329.26
447.443	349.02
447.653	292.64
447.864	314.14
448.075	302.13
448.286	350.38
448.496	339.91
448.707	344.37
448.918	324.03
449.129	374.59
449.339	289.15
449.55	352.51
449.761	319.76
449.971	357.35
450.182	339.91
450.393	354.83
450.603	305.81
450.814	363.94
451.024	377.11
451.235	360.64
451.446	388.54
451.656	411.21
451.867	324.03
452.077	369.94
452.288	410.44
452.498	395.33
452.709	361.23
452.919	374.79
453.13	362.19
453.34	376.73
453.55	310.85
453.761	397.07
453.971	360.64
454.182	398.62
454.392	376.92
454.602	430.2
454.813	396.68
455.023	411.79
455.233	341.46
455.444	410.44
455.654	314.53
455.864	349.79
456.075	366.84
456.285	351.54
456.495	373.82
456.705	408.5
456.916	396.1
457.126	441.82
457.336	378.47
457.546	336.04
457.756	366.46
457.967	462.36
458.177	369.75
458.387	394.94
458.597	368.01
458.807	387.38
459.017	347.28
459.227	393.19
459.437	399.2
459.647	422.45
459.857	428.26
460.068	374.59
460.278	408.11
460.488	405.98
460.698	430.78
460.908	395.13
461.117	362
461.327	364.91
461.537	414.31
461.747	433.11
461.957	423.42
462.167	508.86
462.377	447.83
462.587	439.69
462.797	478.25
463.007	405.98
463.216	476.12
463.426	487.36
463.636	465.85
463.846	379.83
464.056	395.91
464.265	454.61
464.475	381.18
464.685	446.28
464.895	442.6
465.104	445.51
465.314	455.77
465.524	423.03
465.733	405.59
465.943	509.25
466.153	494.33
466.362	464.49
466.572	471.27
466.782	455.39
466.991	459.26
467.201	508.47
467.41	382.93
467.62	468.17
467.829	437.17
468.039	484.26
468.249	465.27
468.458	485.03
468.668	482.51
468.877	492.97
469.086	488.13
469.296	527.07
469.505	444.15
469.715	519.71
469.924	523
470.134	504.79
470.343	510.41
470.552	503.82
470.762	480.19
470.971	459.65
471.18	488.71
471.39	498.59
471.599	469.14
471.808	511.19
472.018	458.49
472.227	549.94
472.436	550.71
472.645	521.45
472.855	503.24
473.064	558.65
473.273	547.03
473.482	540.83
473.691	547.22
473.901	560.79
474.11	552.26
474.319	634.6
474.528	548.97
474.737	609.42
474.946	566.21
475.155	560.59
475.364	595.85
475.573	553.42
475.783	582.1
475.992	597.79
476.201	624.14
476.41	566.6
476.619	574.15
476.828	559.43
477.037	557.69
477.245	602.83
477.454	629.95
477.663	614.07
477.872	616.97
478.081	664.25
478.29	608.64
478.499	710.55
478.708	665.21
478.917	678
479.125	626.47
479.334	663.28
479.543	654.37
479.752	660.37
479.961	658.82
480.169	747.95
480.378	653.98
480.587	799.09
480.796	717.91
481.004	685.56
481.213	693.31
481.422	719.27
481.63	734.77
481.839	741.36
482.048	796.38
482.256	735.35
482.465	756.66
482.674	768.29
482.882	779.33
483.091	807.81
483.299	733.41
483.508	793.67
483.716	756.86
483.925	799.48
484.134	763.83
484.342	745.04
484.551	786.89
484.759	783.01
484.967	793.86
485.176	778.17
485.384	793.86
485.593	833.39
485.801	796.77
486.01	792.31
486.218	741.75
486.426	690.21
486.635	716.95
486.843	731.86
487.051	723.73
487.26	739.23
487.468	758.6
487.676	782.04
487.885	775.07
488.093	825.06
488.301	817.89
488.509	836.49
488.717	878.53
488.926	877.17
489.134	823.7
489.342	826.03
489.55	823.12
489.758	852.76
489.967	895.58
490.175	919.22
490.383	891.32
490.591	936.27
490.799	862.06
491.007	940.92
491.215	946.92
491.423	915.15
491.631	905.07
491.839	881.82
492.047	940.14
492.255	884.54
492.463	837.65
492.671	898.87
492.879	968.24
493.087	920.57
493.295	952.54
493.503	967.27
493.711	972.69
493.919	973.27
494.127	1011.25
494.334	987.8
494.542	943.44
494.75	956.03
494.958	978.7
495.166	1013.77
495.374	1021.71
495.581	1007.57
495.789	1034.11
495.997	1072.28
496.205	1003.5
496.412	1011.83
496.62	1031.4
496.828	1054.07
497.035	1041.67
497.243	1075.57
497.451	1043.22
497.658	1046.7
497.866	1065.11
498.074	1131.37
498.281	1046.51
498.489	1107.35
498.696	1093.78
498.904	1049.42
499.112	1042.44
499.319	1129.82
499.527	1093.01
499.734	1118.2
499.942	1061.62
500.149	1055.03
500.357	1133.7
500.564	1088.36
500.771	1096.88
500.979	1068.98
501.186	1051.93
501.394	1122.85
501.601	1090.88
501.808	1085.45
502.016	1111.41
502.223	1085.84
502.43	1091.27
502.638	1072.47
502.845	1066.27
503.052	1176.9
503.26	1125.75
503.467	1211.58
503.674	1163.53
503.881	1186.98
504.089	1211.19
504.296	1196.08
504.503	1128.85
504.71	1151.33
504.917	1138.15
505.125	1211.39
505.332	1196.66
505.539	1246.65
505.746	1283.85
505.953	1249.36
506.16	1242.19
506.367	1313.88
506.574	1342.17
506.781	1321.82
506.988	1275.71
507.195	1284.04
507.402	1296.06
507.609	1346.62
507.816	1298.77
508.023	1286.17
508.23	1277.07
508.437	1278.04
508.644	1321.44
508.851	1369.1
509.058	1371.81
509.265	1385.18
509.472	1397.19
509.679	1489.22
509.885	1401.26
510.092	1430.71
510.299	1405.14
510.506	1433.81
510.713	1441.75
510.92	1446.79
511.126	1454.15
511.333	1521.97
511.54	1527.39
511.746	1535.72
511.953	1536.69
512.16	1607.02
512.367	1508.98
512.573	1567.3
512.78	1533.98
512.987	1520.03
513.193	1558.97
513.4	1513.83
513.606	1581.06
513.813	1599.46
514.02	1600.24
514.226	1649.64
514.433	1639.38
514.639	1561.1
514.846	1617.1
515.052	1582.22
515.259	1640.15
515.465	1651.78
515.672	1661.85
515.878	1765.51
516.085	1676.77
516.291	1740.9
516.497	1674.06
516.704	1694.4
516.91	1641.89
517.117	1587.26
517.323	1553.74
517.529	1564.2
517.736	1564.98
517.942	1630.66
518.148	1640.54
518.354	1647.51
518.561	1694.21
518.767	1697.69
518.973	1721.33
519.179	1762.79
519.386	1735.67
519.592	1743.22
519.798	1786.82
520.004	1894.73
520.21	1869.55
520.417	1919.53
520.623	1958.28
520.829	2009.24
521.035	1979.4
521.241	1993.16
521.447	2036.95
521.653	2109.21
521.859	2039.85
522.065	2122.97
522.271	2138.08
522.477	2123.36
522.683	2178.19
522.889	2149.51
523.095	2141.76
523.301	2160.56
523.507	2095.07
523.713	2158.42
523.919	2125.49
524.125	2226.82
524.331	2222.75
524.537	2322.53
524.742	2306.84
524.948	2320.98
525.154	2299.86
525.36	2444.2
525.566	2352.37
525.772	2404.48
525.977	2304.32
526.183	2384.72
526.389	2424.05
526.595	2319.62
526.8	2311.29
527.006	2237.28
527.212	2191.17
527.417	2156.29
527.623	2184.97
527.829	2253.55
528.034	2328.34
528.24	2314.59
528.446	2330.67
528.651	2492.06
528.857	2472.68
529.062	2568.2
529.268	2531
529.473	2553.86
529.679	2574.01
529.884	2655
530.09	2592.81
530.295	2589.71
530.501	2635.04
530.706	2627.87
530.912	2602.69
531.117	2641.82
531.323	2694.52
531.528	2744.32
531.733	2723.59
531.939	2668.37
532.144	2707.5
532.35	2698.98
532.555	2760.98
532.76	2648.41
532.966	2692
533.171	2644.15
533.376	2616.44
533.581	2609.08
533.787	2687.55
533.992	2718.55
534.197	2742.38
534.402	2752.84
534.607	2727.46
534.813	2818.52
535.018	2731.72
535.223	2741.41
535.428	2783.26
535.633	2848.75
535.838	2924.89
536.043	2863.08
536.249	2995.41
536.454	2875.1
536.659	2911.71
536.864	2904.16
537.069	2863.66
537.274	2878.58
537.479	2879.94
537.684	2862.31
537.889	2829.37
538.094	2943.1
538.299	2901.25
538.504	2937.48
538.708	2925.28
538.913	2996.38
539.118	2935.74
539.323	2918.11
539.528	2861.15
539.733	2904.35
539.938	2902.41
540.142	2898.15
540.347	2871.61
540.552	2859.79
540.757	2845.26
540.962	2828.21
541.166	2799.92
541.371	2805.73
541.576	2869.28
541.781	2780.16
541.985	2903
542.19	2869.28
542.395	3025.25
542.599	2983.4
542.804	2938.26
543.008	2981.08
543.213	2969.06
543.418	2862.31
543.622	2994.06
543.827	2920.82
544.031	2994.64
544.236	3013.63
544.44	3011.88
544.645	3085.89
544.849	2971.58
545.054	3043.85
545.258	3087.83
545.463	3076.4
545.667	2971.58
545.872	3087.25
546.076	3044.62
546.281	3069.04
546.485	3028.74
546.689	3060.51
546.894	3103.33
547.098	3100.62
547.302	3065.16
547.507	3058.96
547.711	3069.42
547.915	3120.57
548.119	3007.62
548.324	3049.47
548.528	3099.84
548.732	3048.69
548.936	3082.21
549.141	3137.82
549.345	3085.51
549.549	3119.99
549.753	3148.09
549.957	3224.62
550.161	3197.1
550.366	3152.93
550.57	3107.79
550.774	3112.24
550.978	3138.4
551.182	3157
551.386	3088.22
551.59	3113.4
551.794	3108.95
551.998	3161.84
552.202	3066.91
552.406	3085.31
552.61	3155.25
552.814	3166.49
553.018	3158.74
553.222	3107.01
553.426	3129.68
553.63	3220.93
553.833	3119.8
554.037	3095.58
554.241	3140.92
554.445	3162.04
554.649	3145.76
554.853	3102.17
555.056	3169.59
555.26	3211.63
555.464	3164.55
555.668	3183.74
555.871	3173.66
556.075	3173.47
556.279	3136.85
556.483	3051.21
556.686	3112.05
556.89	3059.74
557.094	3113.6
557.297	2979.91
557.501	3100.23
557.704	2937.87
557.908	3005.49
558.112	2965.38
558.315	3053.15
558.519	2977.59
558.722	2964.61
558.926	2987.66
559.129	2875.48
559.333	2917.53
559.536	2906.48
559.74	2890.79
559.943	2889.24
560.147	2910.75
560.35	2891.18
560.553	2913.65
560.757	2836.54
560.96	2940.39
561.164	2915.78
561.367	3008.2
561.57	2919.85
561.774	2917.14
561.977	2900.28
562.18	2855.33
562.384	2967.51
562.587	2855.91
562.79	2889.43
562.993	2825.69
563.197	2878
563.4	2929.54
563.603	2940.97
563.806	2963.83
564.009	2867.73
564.212	2867.35
564.416	2761.75
564.619	2842.74
564.822	2753.23
565.025	2879.55
565.228	2838.67
565.431	2821.04
565.634	2710.8
565.837	2753.23
566.04	2693.94
566.243	2691.04
566.446	2620.12
566.649	2732.5
566.852	2653.26
567.055	2699.95
567.258	2688.13
567.461	2732.3
567.664	2727.65
567.867	2618.57
568.07	2637.95
568.273	2648.02
568.475	2661.97
568.678	2549.79
568.881	2601.91
569.084	2534.88
569.287	2470.55
569.489	2476.56
569.692	2540.69
569.895	2537.01
570.098	2496.9
570.3	2458.15
570.503	2404.87
570.706	2414.17
570.909	2413.59
571.111	2358.18
571.314	2339.97
571.516	2369.22
571.719	2392.67
571.922	2340.55
572.124	2353.92
572.327	2400.03
572.529	2323.3
572.732	2354.69
572.935	2366.51
573.137	2416.3
573.34	2290.56
573.542	2396.35
573.745	2360.5
573.947	2366.7
574.15	2341.71
574.352	2327.18
574.554	2395.38
574.757	2284.75
574.959	2268.47
575.162	2274.87
575.364	2250.65
575.566	2367.09
575.769	2195.82
575.971	2243.09
576.173	2139.83
576.376	2202.79
576.578	2273.7
576.78	2270.02
576.982	2156.68
577.185	2168.89
577.387	2140.41
577.589	2142.93
577.791	2180.71
577.993	2192.52
578.196	2162.69
578.398	2195.04
578.6	2183.61
578.802	2115.41
579.004	2086.74
579.206	2063.49
579.408	2150.48
579.61	2084.41
579.812	2197.56
580.014	2151.64
580.216	2120.06
580.418	2172.96
580.62	2091.19
580.822	2148.35
581.024	2163.46
581.226	2140.99
581.428	2131.3
581.63	2223.72
581.832	2131.49
582.034	2201.24
582.236	2136.53
582.438	2175.28
582.64	2209.96
582.841	2207.64
583.043	2272.35
583.245	2199.89
583.447	2177.99
583.649	2111.54
583.85	2208.22
584.052	2208.41
584.254	2133.63
584.456	2229.72
584.657	2135.18
584.859	2226.43
585.061	2147.58
585.262	2087.9
585.464	2084.22
585.666	2174.51
585.867	2115.41
586.069	2140.79
586.27	2109.79
586.472	2081.12
586.674	2097.59
586.875	2044.89
587.077	2067.56
587.278	2084.22
587.48	2016.02
587.681	2153
587.883	2047.41
588.084	1959.25
588.285	2050.9
588.487	1993.55
588.688	1981.73
588.89	1903.26
589.091	1878.65
589.292	1845.91
589.494	1784.11
589.695	1753.49
589.896	1694.98
590.098	1724.62
590.299	1774.03
590.5	1729.08
590.702	1755.43
590.903	1818.01
591.104	1868
591.305	1876.14
591.507	1863.54
591.708	1873.04
591.909	1826.92
592.11	1932.32
592.311	1889.12
592.512	1854.44
592.714	1791.66
592.915	1829.44
593.116	1849.2
593.317	1892.22
593.518	1853.27
593.719	1879.62
593.92	1891.63
594.121	1921.28
594.322	1891.63
594.523	1866.45
594.724	1822.08
594.925	1845.72
595.126	1842.42
595.327	1839.32
595.528	1826.54
595.729	1880.4
595.929	1870.71
596.13	1832.93
596.331	1863.15
596.532	1869.94
596.733	1905.58
596.934	1893.77
597.135	1931.35
597.335	1889.5
597.536	1848.62
597.737	1877.69
597.938	1867.22
598.138	1856.37
598.339	1840.49
598.54	1886.6
598.74	1856.95
598.941	1888.34
599.142	1892.6
599.342	1853.27
599.543	1836.8
599.744	1892.8
599.944	1864.9
600.145	1882.53
600.345	1866.64
600.546	1928.06
600.746	1883.11
600.947	1959.25
601.147	1862.96
601.348	1900.74
601.548	1836.22
601.749	1867.22
601.949	1815.3
602.15	1807.16
602.35	1849.01
602.551	1875.17
602.751	1827.89
602.951	1824.79
603.152	1783.91
603.352	1864.51
603.552	1824.21
603.753	1895.12
603.953	1881.37
604.153	1871.1
604.354	1831.77
604.554	1832.54
604.754	1842.81
604.954	1803.48
605.155	1850.17
605.355	1806.58
605.555	1828.67
605.755	1862.19
605.955	1833.9
606.155	1861.22
606.356	1834.67
606.556	1843.78
606.756	1829.83
606.956	1789.34
607.156	1875.36
607.356	1802.51
607.556	1807.94
607.756	1762.99
607.956	1836.61
608.156	1810.45
608.356	1774.61
608.556	1798.44
608.756	1745.94
608.956	1738.77
609.156	1786.43
609.356	1732.57
609.556	1738.57
609.755	1757.95
609.955	1714.36
610.155	1751.56
610.355	1783.91
610.555	1715.91
610.755	1706.61
610.954	1661.85
611.154	1704.67
611.354	1738.77
611.554	1695.56
611.753	1675.41
611.953	1652.74
612.153	1760.08
612.352	1708.16
612.552	1668.83
612.752	1653.52
612.951	1662.24
613.151	1675.8
613.351	1651.78
613.55	1663.21
613.75	1672.7
613.949	1628.91
614.149	1682.39
614.348	1624.46
614.548	1586.29
614.747	1552.77
614.947	1589.58
615.146	1579.12
615.346	1652.36
615.545	1614
615.745	1596.95
615.944	1649.26
616.144	1616.51
616.343	1607.02
616.542	1535.53
616.742	1551.8
616.941	1583.19
617.14	1522.93
617.34	1544.44
617.539	1526.81
617.738	1566.53
617.938	1632.01
618.137	1578.73
618.336	1516.35
618.535	1586.29
618.734	1547.93
618.934	1579.9
619.133	1560.33
619.332	1597.72
619.531	1497.94
619.73	1570.21
619.929	1576.41
620.128	1564.4
620.328	1591.91
620.527	1531.65
620.726	1538.43
620.925	1548.31
621.124	1543.08
621.323	1533.2
621.522	1511.89
621.721	1501.62
621.92	1477.4
622.119	1535.53
622.318	1461.71
622.517	1524.48
622.715	1480.12
622.914	1442.72
623.113	1476.24
623.312	1444.66
623.511	1488.83
623.71	1470.04
623.909	1459.97
624.107	1497.94
624.306	1412.11
624.505	1441.75
624.704	1438.07
624.902	1395.64
625.101	1459.77
625.3	1425.09
625.499	1396.8
625.697	1411.14
625.896	1376.46
626.095	1398.16
626.293	1391.96
626.492	1381.11
626.69	1436.52
626.889	1417.34
627.088	1466.36
627.286	1380.72
627.485	1384.79
627.683	1377.82
627.882	1394.67
628.08	1304.77
628.279	1337.13
628.477	1365.8
628.676	1285.98
628.874	1333.84
629.073	1302.26
629.271	1301.09
629.469	1347.98
629.668	1289.86
629.866	1312.14
630.065	1303.03
630.263	1357.28
630.461	1302.64
630.66	1339.84
630.858	1321.44
631.056	1361.74
631.254	1368.52
631.453	1321.82
631.651	1369.87
631.849	1318.34
632.047	1350.69
632.245	1326.47
632.444	1330.93
632.642	1333.84
632.84	1396.42
633.038	1363.87
633.236	1335.97
633.434	1324.54
633.632	1338.87
633.83	1312.72
634.028	1353.99
634.227	1343.33
634.425	1417.92
634.623	1359.41
634.821	1373.55
635.019	1365.22
635.216	1320.08
635.414	1386.34
635.612	1332.67
635.81	1340.42
636.008	1418.31
636.206	1364.25
636.404	1375.49
636.602	1326.86
636.8	1332.87
636.997	1351.47
637.195	1385.57
637.393	1334.61
637.591	1409.59
637.789	1378.59
637.986	1375.88
638.184	1364.45
638.382	1379.56
638.58	1370.84
638.777	1442.14
638.975	1325.31
639.173	1356.31
639.37	1343.52
639.568	1322.41
639.765	1336.94
639.963	1313.3
640.161	1346.43
640.358	1372.78
640.556	1313.11
640.753	1281.72
640.951	1280.75
641.148	1310.97
641.346	1283.85
641.543	1303.42
641.741	1318.14
641.938	1250.53
642.136	1261.76
642.333	1259.63
642.531	1296.83
642.728	1320.08
642.925	1298.57
643.123	1261.96
643.32	1260.6
643.517	1251.88
643.715	1258.08
643.912	1258.86
644.109	1259.44
644.306	1213.71
644.504	1190.46
644.701	1254.21
644.898	1234.44
645.095	1195.5
645.293	1229.02
645.49	1220.11
645.687	1230.57
645.884	1218.17
646.081	1124.01
646.278	1147.45
646.475	1159.66
646.672	1174.96
646.87	1171.67
647.067	1145.71
647.264	1127.5
647.461	1107.93
647.658	1073.25
647.855	1115.48
648.052	1111.41
648.249	1068.98
648.446	1093.4
648.642	1062.4
648.839	1036.82
649.036	1054.26
649.233	1032.95
649.43	1017.25
649.627	1018.03
649.824	1043.6
650.021	1030.62
650.217	1072.67
650.414	1039.73
650.611	1079.83
650.808	1057.17
651.004	1079.06
651.201	1060.46
651.398	1105.99
651.595	1051.93
651.791	1008.15
651.988	1061.82
652.185	998.65
652.381	1016.48
652.578	986.25
652.775	1010.67
652.971	1023.65
653.168	1033.92
653.364	1056.78
653.561	971.53
653.757	1017.06
653.954	1039.53
654.15	997.3
654.347	1081
654.543	1030.82
654.74	977.34
654.936	982.38
655.133	1002.53
655.329	1006.21
655.525	977.34
655.722	982.77
655.918	944.4
656.115	965.33
656.311	876.21
656.507	874.85
656.704	836.88
656.9	851.41
657.096	863.03
657.292	864.77
657.489	968.82
657.685	909.92
657.881	866.71
658.077	912.05
658.273	922.9
658.47	994.2
658.666	962.62
658.862	976.76
659.058	941.5
659.254	996.52
659.45	951.77
659.646	981.41
659.842	926.97
660.038	996.33
660.234	944.6
660.43	938.2
660.626	997.49
660.822	989.16
661.018	950.41
661.214	961.84
661.41	903.91
661.606	961.84
661.802	968.82
661.998	941.3
662.194	919.99
662.39	977.15
662.586	963.97
662.781	939.75
662.977	973.27
663.173	954.87
663.369	957.19
663.564	922.9
663.76	962.04
663.956	927.35
664.152	932.2
664.347	851.79
664.543	871.56
664.739	904.88
664.934	840.17
665.13	858.38
665.326	915.54
665.521	914.18
665.717	864.58
665.912	857.02
666.108	786.69
666.304	888.41
666.499	872.72
666.695	786.5
666.89	846.17
667.086	863.81
667.281	902.56
667.477	910.5
667.672	882.41
667.867	842.49
668.063	862.84
668.258	847.14
668.454	868.46
668.649	943.05
668.844	863.03
669.04	857.41
669.235	855.67
669.43	810.72
669.626	808.98
669.821	842.11
670.016	802.19
670.211	815.37
670.407	776.23
670.602	851.6
670.797	820.21
670.992	865.94
671.187	773.13
671.382	844.04
671.578	780.69
671.773	818.08
671.968	794.44
672.163	821.96
672.358	827.38
672.553	804.91
672.748	790.18
672.943	873.88
673.138	796.77
673.333	848.5
673.528	778.36
673.723	814.98
673.918	805.29
674.113	790.57
674.308	888.61
674.503	822.15
674.698	842.11
674.892	804.33
675.087	857.8
675.282	836.49
675.477	804.33
675.672	820.99
675.867	783.98
676.061	797.93
676.256	773.13
676.451	782.24
676.646	828.16
676.84	752.98
677.035	763.83
677.23	783.98
677.424	815.37
677.619	822.93
677.814	825.64
678.008	830.87
678.203	758.99
678.397	778.75
678.592	820.79
678.787	811.3
678.981	816.92
679.176	843.07
679.37	821.18
679.565	806.26
679.759	787.08
679.954	841.33
680.148	835.71
680.342	855.86
680.537	851.6
680.731	836.49
680.926	847.92
681.12	830.09
681.314	831.84
681.509	845.21
681.703	803.36
681.897	841.14
682.092	845.01
682.286	823.89
682.48	876.21
682.674	875.04
682.869	826.61
683.063	840.17
683.257	916.7
683.451	814.4
683.645	866.71
683.839	828.35
684.034	851.21
684.228	882.79
684.422	806.07
684.616	833
684.81	846.56
685.004	824.28
685.198	830.68
685.392	850.82
685.586	862.64
685.78	858.38
685.974	876.21
686.168	867.29
686.362	928.71
686.556	852.57
686.75	789.6
686.944	787.28
687.138	741.36
687.331	697.18
687.525	671.41
687.719	625.69
687.913	686.14
688.107	699.51
688.301	676.65
688.494	741.16
688.688	681.1
688.882	669.28
689.076	687.3
689.269	708.81
689.463	799.09
689.657	721.98
689.85	754.14
690.044	756.28
690.238	773.71
690.431	777.39
690.625	788.05
690.818	840.17
691.012	845.4
691.205	883.57
691.399	834.36
691.593	891.9
691.786	937.82
691.98	961.26
692.173	967.85
692.366	988.39
692.56	1023.26
692.753	1060.65
692.947	978.31
693.14	1058.33
693.333	1036.24
693.527	1023.65
693.72	1045.93
693.914	1031.78
694.107	1053.68
694.3	1100.37
694.493	1085.65
694.687	1143.58
694.88	1098.63
695.073	1177.48
695.266	1164.7
695.46	1149.58
695.653	1223.79
695.846	1250.14
696.039	1183.49
696.232	1231.73
696.425	1328.41
696.618	1309.62
696.812	1325.31
697.005	1418.5
697.198	1464.81
697.391	1423.54
697.584	1462.87
697.777	1544.25
697.97	1490.77
698.163	1533.98
698.356	1511.5
698.549	1581.64
698.742	1590.36
698.935	1533.78
699.127	1547.15
699.32	1570.6
699.513	1573.11
699.706	1628.91
699.899	1637.44
700.092	1621.94
700.285	1646.35
700.477	1603.34
700.67	1692.27
700.863	1699.44
701.056	1779.65
701.248	1744.39
701.441	1767.64
701.634	1747.87
701.826	1796.31
702.019	1756.98
702.212	1865.67
702.404	1776.55
702.597	1814.91
702.79	1855.99
702.982	1855.21
703.175	1941.23
703.367	1934.45
703.56	1967.39
703.752	2050.9
703.945	2012.73
704.137	2059.03
704.33	2082.09
704.522	2111.93
704.715	2151.06
704.907	2185.36
705.1	2177.41
705.292	2194.46
705.484	2176.06
705.677	2256.46
705.869	2280.87
706.061	2270.02
706.254	2339.58
706.446	2289.4
706.638	2319.24
706.831	2395.38
707.023	2350.23
707.215	2413.4
707.407	2443.62
707.599	2423.28
707.792	2535.26
707.984	2494.77
708.176	2541.66
708.368	2524.8
708.56	2556.58
708.752	2566.84
708.944	2558.9
709.136	2610.05
709.329	2580.41
709.521	2758.27
709.713	2666.04
709.905	2729.2
710.097	2707.12
710.289	2682.9
710.481	2723.2
710.672	2736.95
710.864	2785.39
711.056	2803.6
711.248	2808.64
711.44	2810.58
711.632	2880.91
711.824	2902.22
712.016	2942.13
712.207	2907.45
712.399	2937.48
712.591	3016.34
712.783	3013.04
712.975	3012.85
713.166	2960.93
713.358	2991.15
713.55	3047.72
713.741	3033.58
713.933	3028.93
714.125	3042.3
714.316	3056.64
714.508	3105.66
714.7	3130.45
714.891	3072.91
715.083	3185.87
715.274	3118.44
715.466	3143.82
715.657	3104.69
715.849	3033.97
716.04	3058.38
716.232	3047.53
716.423	3033.58
716.615	2969.06
716.806	2856.5
716.998	2846.81
717.189	2708.47
717.381	2638.14
717.572	2600.75
717.763	2547.08
717.955	2484.5
718.146	2475.98
718.337	2383.56
718.528	2357.02
718.72	2280.1
718.911	2349.65
719.102	2269.64
719.293	2293.27
719.485	2263.05
719.676	2264.6
719.867	2234.57
720.058	2232.44
720.249	2208.61
720.44	2265.18
720.632	2324.27
720.823	2415.91
721.014	2538.56
721.205	2596.29
721.396	2675.15
721.587	2826.66
721.778	2866.38
721.969	2910.36
722.16	3004.52
722.351	3029.12
722.542	3143.05
722.733	3160.49
722.924	3063.03
723.115	3124.64
723.305	3037.46
723.496	3066.71
723.687	2927.02
723.878	2951.24
724.069	2960.34
724.26	2909
724.45	2854.95
724.641	2855.91
724.832	2859.4
725.023	2848.94
725.213	2833.63
725.404	2819.49
725.595	2805.93
725.785	2782.87
725.976	2891.18
726.167	2836.93
726.357	2877.23
726.548	2957.83
726.739	2877.42
726.929	2995.61
727.12	2975.84
727.31	2987.47
727.501	2922.37
727.691	2957.24
727.882	2956.28
728.072	2997.93
728.263	2997.93
728.453	3050.63
728.644	3127.74
728.834	3013.43
729.024	3008.98
729.215	3004.52
729.405	3037.84
729.596	3156.61
729.786	3113.21
729.976	3165.14
730.167	3136.07
730.357	3145.37
730.547	3139.37
730.737	3189.94
730.928	3211.44
731.118	3260.27
731.308	3181.6
731.498	3217.83
731.688	3281.38
731.879	3362.37
732.069	3364.11
732.259	3472.42
732.449	3456.92
732.639	3591.19
732.829	3580.53
733.019	3644.85
733.209	3718.28
733.399	3745.6
733.589	3822.33
733.779	3905.64
733.969	3863.98
734.159	3944.19
734.349	3933.54
734.539	3993.6
734.729	4034.48
734.919	4038.55
735.109	4099.58
735.299	3997.86
735.488	4043.78
735.678	4080.59
735.868	4057.34
736.058	4044.17
736.248	4033.7
736.437	4020.72
736.627	3961.82
736.817	4106.75
737.007	4076.52
737.196	4126.51
737.386	4122.25
737.576	4101.71
737.765	4132.71
737.955	4114.3
738.144	4200.71
738.334	4202.26
738.524	4157.12
738.713	4200.33
738.903	4179.21
739.092	4221.45
739.282	4211.56
739.471	4254.96
739.661	4210.79
739.85	4296.62
740.04	4301.46
740.229	4286.16
740.419	4322.97
740.608	4353.39
740.797	4339.82
740.987	4392.14
741.176	4352.03
741.365	4386.52
741.555	4301.66
741.744	4444.25
741.933	4369.47
742.123	4395.24
742.312	4421.97
742.501	4444.84
742.69	4433.99
742.88	4391.56
743.069	4494.05
743.258	4469.83
743.447	4515.17
743.636	4499.09
743.825	4428.56
744.014	4497.15
744.204	4507.42
744.393	4492.89
744.582	4523.69
744.771	4567.87
744.96	4483.59
745.149	4552.95
745.338	4471.96
745.527	4597.9
745.716	4499.09
745.905	4504.7
746.094	4616.3
746.283	4539
746.471	4496.76
746.66	4555.66
746.849	4560.89
747.038	4605.65
747.227	4527.95
747.416	4590.92
747.604	4517.49
747.793	4531.83
747.982	4581.62
748.171	4554.88
748.359	4556.43
748.548	4553.53
748.737	4548.68
748.926	4537.64
749.114	4465.57
749.303	4495.6
749.491	4537.45
749.68	4436.5
749.869	4536.09
750.057	4520.78
750.246	4466.54
750.434	4461.3
750.623	4452.97
750.811	4408.02
751	4447.16
751.188	4426.82
751.377	4477.77
751.565	4438.64
751.754	4418.1
751.942	4395.43
752.131	4465.95
752.319	4457.62
752.507	4410.35
752.696	4432.05
752.884	4443.87
753.072	4393.3
753.261	4450.07
753.449	4382.26
753.637	4368.11
753.825	4434.18
754.014	4363.46
754.202	4341.57
754.39	4425.46
754.578	4407.83
754.766	4343.89
754.955	4269.49
755.143	4410.74
755.331	4335.56
755.519	4333.43
755.707	4262.52
755.895	4330.14
756.083	4345.64
756.271	4253.8
756.459	4301.27
756.647	4335.95
756.835	4238.3
757.023	4249.93
757.211	4234.23
757.399	4278.6
757.587	4304.37
757.775	4207.88
757.963	4193.55
758.151	4193.74
758.339	4182.89
758.526	4155.38
758.714	4203.81
758.902	4003.67
759.09	3930.24
759.278	3700.85
759.465	3428.83
759.653	2961.7
759.841	2700.34
760.028	2332.02
760.216	1999.36
760.404	1855.99
760.591	1522.35
760.779	1278.42
760.967	1115.29
761.154	942.27
761.342	937.24
761.529	916.12
761.717	977.15
761.905	948.28
762.092	1050.77
762.28	986.06
762.467	973.66
762.655	877.17
762.842	902.17
763.029	908.95
763.217	909.53
763.404	920.38
763.592	913.6
763.779	869.04
763.966	977.34
764.154	975.21
764.341	1047.67
764.528	1068.4
764.716	1132.53
764.903	1227.86
765.09	1280.94
765.277	1349.72
765.465	1530.1
765.652	1596.95
765.839	1676.77
766.026	1864.51
766.213	1940.07
766.4	2066.98
766.588	2274.48
766.775	2295.99
766.962	2440.33
767.149	2523.06
767.336	2733.66
767.523	2712.15
767.71	2889.24
767.897	3025.83
768.084	3147.31
768.271	3194.59
768.458	3248.06
768.645	3371.28
768.832	3371.28
769.019	3379.42
769.206	3433.09
769.392	3500.9
769.579	3601.45
769.766	3539.26
769.953	3596.8
770.14	3662.29
770.327	3615.21
770.513	3699.49
770.7	3729.33
770.887	3682.25
771.073	3721
771.26	3772.53
771.447	3707.43
771.634	3664.03
771.82	3811.09
772.007	3716.15
772.193	3766.53
772.38	3742.89
772.567	3750.83
772.753	3712.28
772.94	3799.46
773.126	3757.61
773.313	3813.61
773.499	3709.76
773.686	3821.16
773.872	3690.97
774.059	3758.97
774.245	3728.16
774.432	3702.98
774.618	3633.62
774.804	3705.3
774.991	3637.49
775.177	3693.1
775.363	3676.43
775.55	3705.69
775.736	3621.6
775.922	3682.63
776.109	3676.82
776.295	3667.91
776.481	3665.39
776.667	3690.38
776.853	3628.58
777.04	3608.82
777.226	3610.95
777.412	3700.46
777.598	3573.36
777.784	3625.87
777.97	3571.04
778.156	3631.29
778.342	3597.97
778.528	3563.87
778.715	3502.45
778.901	3544.88
779.087	3572.78
779.272	3539.26
779.458	3558.25
779.644	3580.92
779.83	3491.99
780.016	3609.98
780.202	3531.12
780.388	3487.34
780.574	3456.34
780.76	3475.91
780.946	3526.86
781.131	3491.02
781.317	3435.22
781.503	3405.96
781.689	3411.39
781.874	3577.24
782.06	3416.23
782.246	3447.81
782.432	3436.38
782.617	3414.49
782.803	3479.97
782.989	3394.14
783.174	3414.68
783.36	3335.25
783.545	3379.23
783.731	3363.15
783.916	3289.13
784.102	3390.46
784.288	3344.74
784.473	3301.92
784.659	3315.29
784.844	3358.69
785.029	3283.32
785.215	3293.2
785.4	3237.6
785.586	3329.05
785.771	3252.52
785.956	3297.08
786.142	3238.95
786.327	3249.22
786.512	3245.54
786.698	3219.19
786.883	3180.25
787.068	3202.72
787.254	3225
787.439	3174.63
787.624	3150.6
787.809	3151.57
787.994	3072.91
788.18	3162.42
788.365	3072.72
788.55	3103.52
788.735	3118.25
788.92	3065.16
789.105	3043.07
789.29	3085.7
789.475	3019.24
789.66	3035.32
789.845	2986.11
790.03	3006.46
790.215	2986.31
790.4	3031.64
790.585	3053.54
790.77	2988.44
790.955	2940.39
791.14	2980.11
791.325	3035.71
791.51	2893.31
791.695	2999.09
791.879	2959.57
792.064	2949.49
792.249	3004.91
792.434	2959.57
792.618	2977.98
792.803	2997.35
792.988	2949.88
793.173	2960.93
793.357	2975.26
793.542	2933.61
793.727	2983.01
793.911	3025.64
794.096	2957.05
794.281	3004.91
794.465	3085.89
794.65	2965.38
794.834	3082.02
795.019	3060.32
795.203	3035.91
795.388	3076.79
795.572	3081.24
795.757	3039.59
795.941	3047.53
796.126	3001.61
796.31	2934.19
796.494	2997.74
796.679	2988.24
796.863	2968.09
797.048	3037.26
797.232	2966.35
797.416	3042.3
797.601	3014.79
797.785	3079.11
797.969	3082.99
798.153	3012.27
798.338	3063.03
798.522	3078.92
798.706	3056.44
798.89	3088.8
799.074	3188.77
799.258	3170.17
799.443	3051.02
799.627	3062.06
799.811	3126.19
799.995	3043.27
800.179	3009.56
800.363	3030.67
800.547	3058.38
800.731	3063.81
800.915	2987.08
801.099	3022.54
801.283	3026.61
801.467	3009.94
801.651	3047.72
801.835	3046.17
802.019	3042.3
802.202	3028.54
802.386	2999.09
802.57	2965.77
802.754	2961.31
802.938	2947.17
803.121	2961.51
803.305	3025.83
803.489	2982.82
803.673	3004.33
803.856	3011.88
804.04	2980.69
804.224	2990.18
804.407	2986.31
804.591	2997.35
804.775	2933.41
804.958	3003.74
805.142	3075.82
805.326	2995.41
805.509	3021.76
805.693	3043.85
805.876	3079.69
806.06	3065.36
806.243	3042.49
806.427	3072.33
806.61	3111.85
806.794	3045.59
806.977	3093.06
807.16	3086.09
807.344	3047.14
807.527	3060.51
807.71	3036.29
807.894	3022.92
808.077	3079.31
808.26	3033.97
808.444	2979.14
808.627	3047.72
808.81	2951.04
808.993	2929.54
809.177	2961.51
809.36	2912.88
809.543	2948.72
809.726	2865.02
809.909	2862.31
810.092	2864.25
810.276	2841.77
810.459	2822.2
810.642	2812.9
810.825	2794.69
811.008	2804.18
811.191	2680.19
811.374	2732.69
811.557	2736.18
811.74	2753.81
811.923	2645.7
812.106	2596.1
812.289	2585.44
812.472	2606.76
812.654	2581.76
812.837	2559.87
813.02	2485.86
813.203	2460.09
813.386	2347.33
813.569	2331.05
813.751	2295.99
813.934	2313.23
814.117	2249.87
814.3	2244.06
814.482	2131.49
814.665	2107.86
814.848	2074.92
815.03	2021.83
815.213	2020.67
815.396	2009.63
815.578	1938.91
815.761	1950.34
815.943	1995.48
816.126	1890.86
816.309	1824.99
816.491	1764.54
816.674	1723.27
816.856	1794.96
817.039	1775.19
817.221	1827.89
817.403	1802.12
817.586	1805.61
817.768	1804.06
817.951	1748.46
818.133	1732.76
818.315	1760.47
818.498	1817.82
818.68	1878.85
818.862	1829.25
819.045	1848.04
819.227	1856.57
819.409	1814.52
819.591	1881.75
819.774	1830.41
819.956	1809.87
820.138	1895.32
820.32	1883.11
820.502	1948.79
820.684	2046.63
820.866	2046.25
821.048	2109.41
821.231	2116.19
821.413	2118.71
821.595	2121.03
821.777	2116.77
821.959	2097.78
822.141	2115.03
822.323	1972.23
822.505	1896.48
822.686	1855.02
822.868	1775
823.05	1687.62
823.232	1601.01
823.414	1509.37
823.596	1627.17
823.778	1627.36
823.96	1655.84
824.141	1660.49
824.323	1670.18
824.505	1799.02
824.687	1795.92
824.868	1886.79
825.05	1973.4
825.232	2018.35
825.413	2103.01
825.595	2060.39
825.777	1981.15
825.958	2042.56
826.14	2036.56
826.321	2068.91
826.503	2010.21
826.685	2048.38
826.866	2130.91
827.048	2072.79
827.229	2019.51
827.411	1956.35
827.592	1910.43
827.773	1914.69
827.955	1866.64
828.136	1847.65
828.318	1824.99
828.499	1839.71
828.68	1790.5
828.862	1837.58
829.043	1840.29
829.224	1848.04
829.406	1803.87
829.587	1820.72
829.768	1828.28
829.949	1820.53
830.131	1817.62
830.312	1868.39
830.493	1840.1
830.674	1852.5
830.855	1794.18
831.036	1838.94
831.218	1892.02
831.399	1866.06
831.58	1861.99
831.761	1859.09
831.942	1869.16
832.123	1853.08
832.304	1793.21
832.485	1815.69
832.666	1824.21
832.847	1865.29
833.028	1846.3
833.209	1842.42
833.389	1812.39
833.57	1756.4
833.751	1804.25
833.932	1861.99
834.113	1820.92
834.294	1831.57
834.475	1850.95
834.655	1910.82
834.836	1898.22
835.017	1887.95
835.198	1832.54
835.378	1847.07
835.559	1919.53
835.74	1874.78
835.92	1886.4
836.101	1876.33
836.281	1925.54
836.462	1928.25
836.643	1931.93
836.823	1954.22
837.004	1916.63
837.184	1976.69
837.365	2007.11
837.545	1970.49
837.726	1906.36
837.906	2009.24
838.087	1963.32
838.267	1945.5
838.448	1897.06
838.628	1938.33
838.808	1900.74
838.989	1989.67
839.169	1920.12
839.349	1953.44
839.53	1963.32
839.71	1954.22
839.89	1957.12
840.07	1990.06
840.251	1925.54
840.431	1992.96
840.611	1978.43
840.791	1925.54
840.971	1939.88
841.151	1918.37
841.332	1918.76
841.512	1938.33
841.692	1883.11
841.872	1914.88
842.052	1917.6
842.232	1984.05
842.412	1866.06
842.592	1876.91
842.772	1917.6
842.952	1931.35
843.132	1872.45
843.312	1896.09
843.492	1861.22
843.672	1912.75
843.851	1855.6
844.031	1886.79
844.211	1863.93
844.391	1870.71
844.571	1912.37
844.751	1874.39
844.93	1895.32
845.11	1858.5
845.29	1887.76
845.47	1882.53
845.649	1875.94
845.829	1905.39
846.009	1843.2
846.188	1908.3
846.368	1881.37
846.547	1882.53
846.727	1913.72
846.907	1826.15
847.086	1848.24
847.266	1918.37
847.445	1855.79
847.625	1857.73
847.804	1826.92
847.984	1815.88
848.163	1868.58
848.343	1808.52
848.522	1836.42
848.701	1851.92
848.881	1811.42
849.06	1813.55
849.239	1823.05
849.419	1801.54
849.598	1722.11
849.777	1753.69
849.957	1690.91
850.136	1635.11
850.315	1646.54
850.494	1640.15
850.674	1672.89
850.853	1712.61
851.032	1685.1
851.211	1716.29
851.39	1709.13
851.569	1671.93
851.748	1641.51
851.927	1701.57
852.107	1673.28
852.286	1654.88
852.465	1654.68
852.644	1707.38
852.823	1705.25
853.002	1698.86
853.181	1706.41
853.359	1685.88
853.538	1631.43
853.717	1670.96
853.896	1593.26
854.075	1500.65
854.254	1478.95
854.433	1421.02
854.611	1479.73
854.79	1400.29
854.969	1471.01
855.148	1486.9
855.327	1472.56
855.505	1517.12
855.684	1497.75
855.863	1511.89
856.041	1511.89
856.22	1565.75
856.399	1537.66
856.577	1632.21
856.756	1618.65
856.934	1706.22
857.113	1707.96
857.291	1640.34
857.47	1580.67
857.648	1633.56
857.827	1640.34
858.005	1625.04
858.184	1595.2
858.362	1698.66
858.541	1607.8
858.719	1610.9
858.898	1576.02
859.076	1576.99
859.254	1694.4
859.433	1618.65
859.611	1576.41
859.789	1549.48
859.967	1613.8
860.146	1639.76
860.324	1544.83
860.502	1568.85
860.68	1519.64
860.859	1576.41
861.037	1570.79
861.215	1580.28
861.393	1548.9
861.571	1541.53
861.749	1524.87
861.927	1581.64
862.105	1525.65
862.283	1558.78
862.461	1516.54
862.639	1526.62
862.817	1516.15
862.995	1530.1
863.173	1496.78
863.351	1532.23
863.529	1539.01
863.707	1554.71
863.885	1513.44
864.063	1429.35
864.241	1477.6
864.418	1524.48
864.596	1528.36
864.774	1467.72
864.952	1462.48
865.129	1475.08
865.307	1475.27
865.485	1411.14
865.663	1502.78
865.84	1408.82
866.018	1421.8
866.196	1261.18
866.373	1300.51
866.551	1304.97
866.728	1223.01
866.906	1286.56
867.084	1311.36
867.261	1310.78
867.439	1322.99
867.616	1346.82
867.794	1356.51
867.971	1372.59
868.149	1383.05
868.326	1454.54
868.503	1419.28
868.681	1406.49
868.858	1381.89
869.035	1372.39
869.213	1385.18
869.39	1365.03
869.567	1446.02
869.745	1387.12
869.922	1361.93
870.099	1402.62
870.276	1378.98
870.454	1380.14
870.631	1347.59
870.808	1350.89
870.985	1428.97
871.162	1440.98
871.339	1391.96
871.517	1337.52
871.694	1342.36
871.871	1365.22
872.048	1331.71
872.225	1337.71
872.402	1360.77
872.579	1332.09
872.756	1361.16
872.933	1292.37
873.11	1329.57
873.287	1332.48
873.463	1291.99
873.64	1300.51
873.817	1331.12
873.994	1304.39
874.171	1291.21
874.348	1318.72
874.524	1264.86
874.701	1296.06
874.878	1221.85
875.055	1258.66
875.231	1297.41
875.408	1251.69
875.585	1218.56
875.762	1266.03
875.938	1251.3
876.115	1255.18
876.291	1208.48
876.468	1224.56
876.645	1186.4
876.821	1203.44
876.998	1208.87
877.174	1199.38
877.351	1238.9
877.527	1197.44
877.704	1236.38
877.88	1210.61
878.057	1217.2
878.233	1269.9
878.409	1210.61
878.586	1241.03
878.762	1211.78
878.938	1245.88
879.115	1140.28
879.291	1212.16
879.467	1146.48
879.644	1175.35
879.82	1213.33
879.996	1201.51
880.172	1143.38
880.349	1154.81
880.525	1197.24
880.701	1124.59
880.877	1142.61
881.053	1157.33
881.229	1194.92
881.405	1192.98
881.581	1146.87
881.757	1178.06
881.933	1173.8
882.109	1196.08
882.285	1139.31
882.461	1120.13
882.637	1167.21
882.813	1118.39
882.989	1161.79
883.165	1222.24
883.341	1121.3
883.517	1168.18
883.693	1192.01
883.869	1188.14
884.044	1121.68
884.22	1151.71
884.396	1197.05
884.572	1161.98
884.747	1168.96
884.923	1177.68
885.099	1171.28
885.275	1174.96
885.45	1171.48
885.626	1141.45
885.801	1101.92
885.977	1133.11
886.153	1109.09
886.328	1149.2
886.504	1103.08
886.679	1164.89
886.855	1107.73
887.03	1209.45
887.206	1169.73
887.381	1158.5
887.557	1142.41
887.732	1157.72
887.908	1119.16
888.083	1177.68
888.258	1128.08
888.434	1135.05
888.609	1147.26
888.784	1183.88
888.96	1170.31
889.135	1101.53
889.31	1109.09
889.485	1155.2
889.661	1141.83
889.836	1162.56
890.011	1155.4
890.186	1112.58
890.361	1159.27
890.537	1162.95
890.712	1142.8
890.887	1148.03
891.062	1134.08
891.237	1138.54
891.412	1116.45
891.587	1147.45
891.762	1147.26
891.937	1135.44
892.112	1094.17
892.287	1117.61
892.462	1080.22
892.637	1075.77
892.812	1034.69
892.987	1038.18
893.161	1022.29
893.336	1030.04
893.511	1025.78
893.686	1041.67
893.861	1034.11
894.035	988.77
894.21	981.8
894.385	994.59
894.56	1014.54
894.734	926.97
894.909	936.46
895.084	920.38
895.258	885.7
895.433	901.97
895.608	896.94
895.782	844.43
895.957	829.9
896.131	857.41
896.306	791.54
896.48	800.84
896.655	800.64
896.829	739.23
897.004	733.61
897.178	730.51
897.353	718.11
897.527	799.09
897.701	738.84
897.876	696.21
898.05	814.4
898.224	744.85
898.399	793.48
898.573	743.49
898.747	604.57
898.921	681.3
899.096	592.75
899.27	582.48
899.444	603.99
899.618	625.3
899.792	648.36
899.967	678.97
900.141	696.6
900.315	635.96
900.489	624.53
900.663	684.4
900.837	642.74
901.011	612.71
901.185	675.29
901.359	623.56
901.533	631.89
901.707	644.29
901.881	647.39
902.055	607.48
902.229	630.92
902.403	696.8
902.576	627.43
902.75	648.55
902.924	741.36
903.098	742.13
903.272	740
903.446	804.13
903.619	785.53
903.793	798.9
903.967	785.92
904.14	844.82
904.314	858.96
904.488	811.69
904.661	863.22
904.835	806.65
905.009	875.24
905.182	908.17
905.356	842.3
905.529	828.54
905.703	802.39
905.876	826.61
906.05	763.64
906.223	734.19
906.397	681.88
906.57	665.6
906.744	628.6
906.917	635.57
907.09	635.96
907.264	639.45
907.437	621.23
907.61	567.76
907.784	609.22
907.957	595.66
908.13	550.32
908.304	603.6
908.477	566.4
908.65	589.07
908.823	527.46
908.996	602.63
909.17	552.26
909.343	560.2
909.516	576.28
909.689	563.69
909.862	540.05
910.035	561.17
910.208	529.98
910.381	499.56
910.554	601.67
910.727	559.43
910.9	539.67
911.073	564.66
911.246	616.97
911.419	634.02
911.592	576.67
911.765	540.64
911.938	549.55
912.11	568.34
912.283	550.52
912.456	611.55
912.629	558.65
912.802	524.55
912.974	492.2
913.147	461.39
913.32	407.34
913.493	441.63
913.665	456.94
913.838	481.74
914.01	467.01
914.183	497.04
914.356	479.99
914.528	537.92
914.701	556.72
914.873	516.03
915.046	463.72
915.218	444.34
915.391	372.46
915.563	419.74
915.736	451.12
915.908	487.74
916.081	473.79
916.253	480.19
916.425	509.64
916.598	490.26
916.77	466.24
916.942	470.89
917.115	384.67
917.287	457.13
917.459	414.12
917.632	369.75
917.804	383.89
917.976	436.98
918.148	456.74
918.32	439.11
918.493	473.99
918.665	539.47
918.837	514.09
919.009	548.39
919.181	522.62
919.353	536.18
919.525	481.93
919.697	538.89
919.869	513.32
920.041	573.19
920.213	611.74
920.385	575.32
920.557	541.8
920.729	555.36
920.901	519.13
921.073	524.17
921.244	504.02
921.416	581.13
921.588	500.72
921.76	482.51
921.932	600.5
922.103	501.69
922.275	525.72
922.447	520.29
922.619	443.57
922.79	522.04
922.962	484.64
923.134	534.05
923.305	463.72
923.477	416.64
923.648	455.39
923.82	470.31
923.991	430.2
924.163	416.64
924.335	431.75
924.506	429.23
924.677	491.81
924.849	405.21
925.02	447.06
925.192	448.02
925.363	446.28
925.535	452.87
925.706	428.65
925.877	457.52
926.049	426.13
926.22	438.72
926.391	461.97
926.562	431.56
926.734	401.14
926.905	454.81
927.076	384.67
927.247	397.46
927.419	369.75
927.59	365.88
927.761	357.74
927.932	327.13
928.103	345.14
928.274	309.88
928.445	293.8
928.616	332.36
928.787	315.89
928.958	314.73
929.129	319.38
929.3	295.74
929.471	244.98
929.642	209.33
929.813	200.03
929.984	254.66
930.155	166.12
930.326	233.74
930.496	175.62
930.667	161.08
930.838	216.69
931.009	141.71
931.18	147.13
931.35	164.96
931.521	149.07
931.692	102.38
931.863	87.85
932.033	116.91
932.204	118.27
932.374	106.64
932.545	57.24
932.716	117.88
932.886	109.55
933.057	45.81
933.227	84.94
933.398	145
933.568	31.08
933.739	17.91
933.909	21.59
934.08	76.42
934.25	20.62
934.421	23.72
934.591	74.87
934.761	44.06
934.932	7.83
935.102	75.06
935.272	38.06
935.443	58.01
935.613	42.71
935.783	41.16
935.953	23.33
936.123	171.16
936.294	17.52
936.464	7.83
936.634	49.87
936.804	7.25
936.974	28.76
937.144	67.7
937.314	61.3
937.484	7.44
937.655	2.21
937.825	74.87
937.995	56.27
938.165	76.61
938.334	37.28
938.504	66.92
938.674	35.73
938.844	68.09
939.014	124.66
939.184	97.15
939.354	159.53
939.524	143.07
939.694	82.81
939.863	101.02
940.033	147.33
940.203	145
940.373	105.87
940.542	111.1
940.712	84.17
940.882	122.53
941.051	116.52
941.221	133.77
941.391	151.2
941.56	97.73
941.73	61.3
941.899	164.38
942.069	84.17
942.238	120.4
942.408	51.04
942.577	127.37
942.747	87.65
942.916	16.94
943.086	50.46
943.255	106.06
943.425	94.63
943.594	62.47
943.763	42.71
943.933	57.24
944.102	-3.21
944.271	108.39
944.441	77.19
944.61	38.44
944.779	56.27
944.948	153.14
945.117	24.11
945.287	54.52
945.456	26.43
945.625	34.57
945.794	82.23
945.963	47.16
946.132	87.07
946.301	42.9
946.47	90.56
946.639	17.91
946.808	60.34
946.977	73.12
947.146	124.66
947.315	41.54
947.484	111.1
947.653	62.66
947.822	71.57
947.991	35.92
948.16	123.5
948.329	118.85
948.498	75.84
948.666	64.02
948.835	92.3
949.004	30.11
949.173	33.41
949.341	81.07
949.51	54.52
949.679	104.9
949.847	82.81
950.016	139.77
950.185	104.32
950.353	38.64
950.522	70.6
950.69	112.84
950.859	34.76
951.028	127.76
951.196	72.54
951.365	78.74
951.533	80.87
951.701	100.83
951.87	82.62
952.038	50.46
952.207	54.72
952.375	122.34
952.543	58.4
952.712	64.02
952.88	54.72
953.048	125.63
953.217	98.89
953.385	87.46
953.553	127.37
953.721	36.51
953.89	78.55
954.058	45.03
954.226	49.1
954.394	75.64
954.562	0.86
954.73	62.66
954.898	33.41
955.067	104.9
955.235	77.97
955.403	104.32
955.571	116.33
955.739	104.9
955.907	36.89
956.075	83.97
956.243	53.36
956.41	100.83
956.578	31.66
956.746	41.74
956.914	55.49
957.082	80.87
957.25	85.52
957.418	60.14
957.585	67.89
957.753	113.04
957.921	46.39
958.089	68.09
958.256	92.3
958.424	89.2
958.592	70.99
958.759	49.87
958.927	102.19
959.095	36.12
959.262	65.37
959.43	94.05
959.597	58.59
959.765	71.96
959.932	32.63
960.1	124.08
960.267	94.63
960.435	77.19
960.602	101.22
960.77	81.45
960.937	76.8
961.104	87.65
961.272	26.24
961.439	53.17
961.606	99.47
961.774	106.06
961.941	63.82
962.108	69.64
962.275	92.5
962.443	110.32
962.61	75.06
962.777	156.63
962.944	107.42
963.111	113.23
963.278	100.05
963.446	91.92
963.613	102.19
963.78	114.39
963.947	115.36
964.114	91.92
964.281	172.9
964.448	112.07
964.615	84.94
964.782	88.04
964.949	128.15
965.116	94.24
965.282	144.42
965.449	88.43
965.616	61.89
965.783	98.89
965.95	94.24
966.117	55.88
966.283	98.89
966.45	87.07
966.617	85.91
966.784	116.52
966.95	136.87
967.117	114.78
967.284	77.39
967.45	97.73
967.617	163.8
967.784	125.05
967.95	156.24
968.117	134.74
968.283	139.97
968.45	194.6
968.616	139.38
968.783	151.2
968.949	140.16
969.116	159.92
969.282	119.24
969.449	129.31
969.615	127.57
969.781	99.86
969.948	129.89
970.114	75.84
970.28	172.32
970.447	145.58
970.613	177.36
970.779	109.94
970.945	142.68
971.112	134.54
971.278	107.22
971.444	130.28
971.61	155.08
971.776	101.6
971.942	132.02
972.108	150.04
972.275	114.78
972.441	131.44
972.607	151.01
972.773	97.73
972.939	126.21
973.105	136.09
973.271	87.07
973.437	118.27
973.602	92.5
973.768	120.79
973.934	128.73
974.1	120.4
974.266	39.22
974.432	115.55
974.598	93.27
974.763	127.37
974.929	105.09
975.095	155.08
975.261	79.9
975.426	69.25
975.592	99.09
975.758	170.97
975.923	63.63
976.089	79.32
976.255	99.09
976.42	125.24
976.586	104.12
976.751	103.74
976.917	199.45
977.082	132.8
977.248	75.84
977.413	53.55
977.579	84.94
977.744	101.6
977.91	71.96
978.075	86.88
978.24	118.65
978.406	94.44
978.571	75.64
978.736	89.01
978.902	121.17
979.067	52.59
979.232	46
979.397	99.28
979.563	156.82
979.728	94.63
979.893	83.2
980.058	77.97
980.223	133.77
980.388	91.14
980.554	106.84
980.719	95.02
980.884	114.39
981.049	133.96
981.214	105.29
981.379	111.1
981.544	78.55
981.709	83
981.874	96.18
982.039	107.42
982.204	100.44
982.368	109.94
982.533	62.08
982.698	116.14
982.863	137.64
983.028	112.26
983.193	104.7
983.357	113.04
983.522	138.22
983.687	92.89
983.852	107.8
984.016	92.89
984.181	109.55
984.346	110.13
984.51	144.62
984.675	107.8
984.839	104.12
985.004	120.79
985.168	120.98
985.333	116.52
985.498	92.89
985.662	126.99
985.827	131.83
985.991	111.87
986.155	93.08
986.32	134.35
986.484	182.01
986.649	105.67
986.813	47.55
986.977	101.02
987.142	127.95
987.306	77.77
987.47	80.1
987.634	115.55
987.799	104.32
987.963	90.37
988.127	137.84
988.291	181.62
988.455	112.26
988.62	98.31
988.784	117.49
988.948	107.03
989.112	70.22
989.276	119.24
989.44	78.94
989.604	90.37
989.768	73.12
989.932	140.93
990.096	64.79
990.26	63.05
990.424	78.35
990.588	88.43
990.752	171.93
990.915	119.43
991.079	89.2
991.243	81.84
991.407	103.74
991.571	82.04
991.734	127.37
991.898	149.46
992.062	171.16
992.226	92.69
992.389	74.29
992.553	43.29
992.717	83.2
992.88	80.1
993.044	97.92
993.207	73.7
993.371	109.35
993.535	122.53
993.698	75.25
993.862	137.64
994.025	120.01
994.189	108.97
994.352	103.93
994.515	105.87
994.679	102.77
994.842	81.65
995.006	108.39
995.169	55.3
995.332	67.31
995.496	79.52
995.659	55.49
995.822	88.24
995.985	74.09
996.149	114.78
996.312	83.97
996.475	129.89
996.638	83.39
996.801	125.44
996.964	134.74
997.128	96.37
997.291	84.55
997.454	93.08
997.617	31.27
997.78	124.47
997.943	67.89
998.106	105.29
998.269	64.4
998.432	99.47
998.595	73.9
998.758	47.55
998.92	58.98
999.083	30.89
999.246	89.01
999.409	79.13
999.572	23.72
999.735	72.15
999.897	103.93
1000.06	43.87
1000.223	57.04
1000.386	70.6
1000.548	69.64
1000.711	80.49
1000.874	99.47
1001.036	26.24
1001.199	92.3
1001.361	58.2
1001.524	86.49
1001.687	102.77
1001.849	52.78
1002.012	82.42
1002.174	95.79
1002.337	83.2
1002.499	56.07
1002.661	115.17
1002.824	29.14
1002.986	55.88
1003.149	55.69
1003.311	51.81
1003.473	125.63
1003.636	40.77
1003.798	73.7
1003.96	77.97
1004.123	72.35
1004.285	50.65
1004.447	69.25
1004.609	66.34
1004.771	145.58
1004.933	15.39
1005.096	55.69
1005.258	7.83
1005.42	39.61
1005.582	85.91
1005.744	52
1005.906	6.09
1006.068	77.58
1006.23	26.04
1006.392	37.09
1006.554	51.81
1006.716	101.8
1006.878	50.65
1007.04	30.31
1007.202	55.3
1007.363	73.9
1007.525	53.55
1007.687	58.79
1007.849	109.16
1008.011	31.66
1008.172	16.94
1008.334	48.52
1008.496	83
1008.658	-8.25
1008.819	5.7
1008.981	11.12
1009.143	43.09
1009.304	52.78
1009.466	76.61
1009.627	95.6
1009.789	156.63
1009.95	65.95
1010.112	35.15
1010.273	59.17
1010.435	48.91
1010.596	57.62
1010.758	45.03
1010.919	46.58
1011.081	3.18
1011.242	23.72
1011.403	79.13
1011.565	66.15
1011.726	65.95
1011.887	17.71
1012.049	24.3
1012.21	65.57
1012.371	121.17
1012.532	-6.7
1012.693	87.46
1012.855	15
1013.016	53.17
1013.177	95.21
1013.338	34.57
1013.499	86.69
1013.66	63.63
1013.821	91.72
1013.982	43.09
1014.143	48.91
1014.304	45.22
1014.465	46.97
1014.626	62.66
1014.787	46.58
1014.948	99.28
1015.109	-26.85
1015.27	67.12
1015.431	52.2
1015.592	27.98
1015.752	105.09
1015.913	79.13
1016.074	29.92
1016.235	43.29
1016.395	38.44
1016.556	35.92
1016.717	65.57
1016.877	58.79
1017.038	33.6
1017.199	40.57
1017.359	50.65
1017.52	42.12
1017.681	5.51
1017.841	48.52
1018.002	23.33
1018.162	5.7
1018.323	69.25
1018.483	43.48
1018.644	41.54
1018.804	-11.54
1018.964	8.02
1019.125	61.11
1019.285	-0.69
1019.446	-8.64
1019.606	15.97
1019.766	-13.68
1019.926	58.98
1020.087	4.54
1020.247	9.57
1020.407	63.82
1020.567	84.94
1020.728	23.14
1020.888	11.32
1021.048	14.81
1021.208	14.22
1021.368	22.36
1021.528	76.61
1021.688	71.96
1021.848	44.84
1022.008	29.92
1022.168	12.29
1022.328	35.54
1022.488	35.54
1022.648	23.91
1022.808	38.06
1022.968	50.46
1023.128	19.65
1023.288	-10.19
1023.448	22.36
1023.608	67.7
1023.767	40.38
1023.927	4.92
1024.087	-9.41
1024.247	-20.46
1024.406	24.3
1024.566	-3.41
1024.726	-8.44
1024.885	16.55
1025.045	87.07
1025.205	18.68
1025.364	29.14
1025.524	24.3
1025.683	34.18
1025.843	31.08
1026.003	35.54
1026.162	70.99
1026.321	51.42
1026.481	37.09
1026.64	15.58
1026.8	36.31
1026.959	54.14
1027.119	22.17
1027.278	15.39
1027.437	10.54
1027.597	44.26
1027.756	57.43
1027.915	40.77
1028.074	30.11
1028.234	-4.57
1028.393	27.21
1028.552	26.24
1028.711	-37.12
1028.87	51.81
1029.03	-28.98
1029.189	24.49
1029.348	-20.07
1029.507	20.62
1029.666	10.16
1029.825	-30.73
1029.984	-12.71
1030.143	41.93
1030.302	10.16
1030.461	-25.49
1030.62	29.92
1030.779	48.91
1030.938	7.25
1031.097	-10.38
1031.255	37.09
1031.414	45.03
1031.573	31.66
1031.732	-21.62
1031.891	20.62
1032.049	65.57
1032.208	31.86
1032.367	-3.21
1032.525	-1.66
1032.684	5.12
1032.843	24.69
1033.001	-30.14
1033.16	137.64
1033.319	32.82
1033.477	31.08
1033.636	2.02
1033.794	-30.73
1033.953	11.32
1034.111	41.16
1034.27	-3.02
1034.428	34.76
1034.587	-13.48
1034.745	13.84
1034.903	24.3
1035.062	45.22
1035.22	-10.58
1035.378	68.67
1035.537	-10.96
1035.695	39.61
1035.853	0.27
1036.011	45.22
1036.17	15.58
1036.328	-18.52
1036.486	6.86
1036.644	19.46
1036.802	-49.91
1036.96	-1.47
1037.119	9.38
1037.277	-4.57
1037.435	-32.47
1037.593	-35.96
1037.751	4.15
1037.909	41.35
1038.067	41.35
