Data from gum_young_FLMT105791__24__17-38-23-045.txt Node

Date: Mon Mar 20 17:38:23 GMT 2023
User: antho
Spectrometer: FLMT10579
Trigger mode: 0
Integration Time (sec): 1.000000E-1
Scans to average: 10
Electric dark correction enabled: true
Nonlinearity correction enabled: false
Boxcar width: 0
XAxis mode: Wavelengths
Number of Pixels in Spectrum: 3648
>>>>>Begin Spectral Data<<<<<
345.248	-143.63
345.464	-143.63
345.681	-143.63
345.898	-146.92
346.114	-152.54
346.331	-26.8
346.548	40.82
346.764	11.17
346.981	-21.96
347.197	-15.76
347.414	-2.39
347.631	-21.18
347.847	43.33
348.064	-8.4
348.28	22.8
348.497	-40.17
348.713	18.54
348.93	36.55
349.146	39.27
349.363	-17.5
349.579	-4.33
349.796	24.54
350.012	-6.65
350.229	31.71
350.445	20.86
350.661	-8.01
350.878	-10.91
351.094	24.15
351.311	36.55
351.527	-0.26
351.743	-24.28
351.96	33.26
352.176	47.6
352.392	38.68
352.609	-6.46
352.825	19.12
353.041	36.94
353.257	3.23
353.474	-6.46
353.69	35
353.906	4.2
354.122	-16.34
354.339	65.62
354.555	26.29
354.771	-11.69
354.987	44.11
355.203	58.64
355.42	-0.65
355.636	11.95
355.852	3.62
356.068	-8.59
356.284	-31.26
356.5	47.98
356.716	36.17
356.932	16.02
357.148	47.02
357.364	-3.75
357.58	49.34
357.796	57.48
358.012	60
358.228	21.64
358.444	-46.95
358.66	65.62
358.876	14.85
359.092	-11.69
359.308	19.7
359.524	35.2
359.74	-5.68
359.956	15.63
360.172	24.15
360.388	61.55
360.604	8.85
360.819	82.67
361.035	30.35
361.251	35.78
361.467	-6.07
361.683	18.54
361.898	32.68
362.114	76.27
362.33	23.19
362.546	27.45
362.762	30.74
362.977	35.78
363.193	-11.88
363.409	55.54
363.624	-33.58
363.84	-11.69
364.056	-9.56
364.271	42.75
364.487	16.4
364.703	-2.58
364.918	-18.86
365.134	21.44
365.35	25.7
365.565	104.56
365.781	12.92
365.996	21.05
366.212	51.86
366.427	32.68
366.643	8.46
366.858	12.92
367.074	33.26
367.289	71.43
367.505	94.68
367.72	-14.6
367.936	34.23
368.151	53.02
368.367	38.68
368.582	45.47
368.798	-21.76
369.013	57.28
369.228	12.92
369.444	7.3
369.659	53.41
369.874	27.06
370.09	69.68
370.305	-21.57
370.52	6.91
370.736	68.13
370.951	24.74
371.166	63.48
371.381	100.88
371.597	23.77
371.812	-26.61
372.027	-2.97
372.242	21.64
372.458	80.73
372.673	18.15
372.888	27.64
373.103	21.05
373.318	102.62
373.533	63.1
373.749	54.57
373.964	-21.38
374.179	45.27
374.394	-5.49
374.609	58.64
374.824	2.26
375.039	78.79
375.254	-2
375.469	55.35
375.684	26.48
375.899	63.1
376.114	28.42
376.329	43.53
376.544	69.88
376.759	36.75
376.974	-16.53
377.189	17.76
377.404	2.07
377.619	59.03
377.834	-20.6
378.049	-26.8
378.264	-15.37
378.478	23.77
378.693	12.34
378.908	36.75
379.123	16.6
379.338	71.04
379.553	35.58
379.767	26.09
379.982	62.13
380.197	54.57
380.412	9.24
380.626	41.01
380.841	91.58
381.056	46.82
381.271	93.9
381.485	14.47
381.7	3.42
381.915	41.2
382.129	30.74
382.344	30.93
382.559	22.8
382.773	40.43
382.988	-19.83
383.202	52.83
383.417	-18.28
383.632	108.24
383.846	35
384.061	35
384.275	33.26
384.49	36.94
384.704	53.8
384.919	42.95
385.133	33.84
385.348	44.3
385.562	10.2
385.777	58.83
385.991	21.05
386.206	42.17
386.42	27.06
386.634	71.62
386.849	33.26
387.063	60.38
387.277	-2.97
387.492	6.52
387.706	-0.06
387.92	18.34
388.135	51.67
388.349	66.39
388.563	28.22
388.778	55.54
388.992	53.22
389.206	53.8
389.42	102.04
389.635	15.82
389.849	60
390.063	73.75
390.277	47.79
390.491	98.55
390.706	29.77
390.92	48.57
391.134	34.42
391.348	79.57
391.562	-3.16
391.776	11.95
391.99	4.39
392.205	57.28
392.419	9.62
392.633	56.51
392.847	78.79
393.061	20.28
393.275	110.57
393.489	49.53
393.703	45.66
393.917	72.01
394.131	33.65
394.345	38.49
394.559	82.08
394.773	60
394.986	23.38
395.2	23.77
395.414	64.84
395.628	36.75
395.842	47.79
396.056	34.62
396.27	12.53
396.484	50.7
396.697	48.37
396.911	94.1
397.125	44.5
397.339	69.1
397.553	29.58
397.766	100.49
397.98	78.4
398.194	83.05
398.408	47.4
398.621	47.79
398.835	53.8
399.049	56.7
399.262	84.02
399.476	81.31
399.69	47.98
399.903	122.19
400.117	48.18
400.331	70.27
400.544	27.84
400.758	155.32
400.971	69.49
401.185	107.47
401.398	41.2
401.612	124.13
401.826	108.43
402.039	88.87
402.253	52.44
402.466	84.99
402.68	68.13
402.893	70.46
403.106	89.06
403.32	65.42
403.533	95.45
403.747	72.01
403.96	73.75
404.174	75.11
404.387	37.33
404.6	61.74
404.814	120.25
405.027	79.95
405.24	67.94
405.454	93.13
405.667	101.85
405.88	29.97
406.094	99.33
406.307	112.31
406.52	87.7
406.733	55.73
406.947	23.96
407.16	151.25
407.373	130.71
407.586	57.09
407.799	5.94
408.012	117.35
408.226	89.64
408.439	109.98
408.652	45.08
408.865	83.05
409.078	140.79
409.291	128.2
409.504	76.85
409.717	107.27
409.93	85.96
410.143	91.77
410.357	46.63
410.57	36.36
410.783	51.47
410.996	103.78
411.209	84.02
411.421	137.69
411.634	83.63
411.847	79.37
412.06	97.39
412.273	84.22
412.486	92.16
412.699	167.53
412.912	94.48
413.125	136.53
413.338	100.49
413.55	125.48
413.763	124.9
413.976	119.48
414.189	105.33
414.402	89.25
414.615	146.02
414.827	92.35
415.04	134.98
415.253	128.58
415.466	122.77
415.678	165.2
415.891	90.22
416.104	93.52
416.316	104.17
416.529	103.78
416.742	118.12
416.954	143.89
417.167	122.77
417.38	82.86
417.592	151.64
417.805	89.64
418.017	60.77
418.23	113.86
418.442	77.82
418.655	124.32
418.868	110.37
419.08	135.56
419.293	117.93
419.505	131.1
419.718	103.78
419.93	137.88
420.142	121.03
420.355	142.15
420.567	161.13
420.78	130.71
420.992	129.55
421.205	183.61
421.417	84.99
421.629	123.35
421.842	78.6
422.054	97.2
422.266	132.85
422.479	160.94
422.691	132.46
422.903	135.36
423.115	110.95
423.328	108.82
423.54	138.27
423.752	113.47
423.964	116.38
424.177	145.05
424.389	118.9
424.601	215.58
424.813	165.78
425.025	148.73
425.238	156.48
425.45	96.03
425.662	104.75
425.874	391.69
426.086	123.93
426.298	170.82
426.51	151.45
426.722	126.06
426.934	121.41
427.146	146.6
427.358	103.78
427.57	182.64
427.782	149.51
427.994	139.05
428.206	109.02
428.418	86.54
428.63	151.64
428.842	160.16
429.054	166.56
429.266	172.37
429.478	108.24
429.69	113.86
429.902	104.75
430.114	168.11
430.325	164.81
430.537	128.58
430.749	134.4
430.961	80.73
431.173	122.38
431.384	153.19
431.596	71.43
431.808	134.2
432.02	138.46
432.231	168.88
432.443	189.61
432.655	165.01
432.867	127.81
433.078	163.26
433.29	213.64
433.502	183.61
433.713	199.3
433.925	162.49
434.136	197.95
434.348	126.26
434.56	109.79
434.771	249.68
434.983	98.55
435.194	150.48
435.406	186.71
435.617	190.2
435.829	227.78
436.04	189.23
436.252	200.66
436.463	215.58
436.675	176.63
436.886	182.64
437.098	194.07
437.309	230.3
437.521	193.3
437.732	214.61
437.943	191.94
438.155	173.92
438.366	140.6
438.578	239.02
438.789	216.54
439	185.35
439.211	177.02
439.423	217.13
439.634	210.54
439.845	180.12
440.057	184.96
440.268	221.78
440.479	174.11
440.69	209.38
440.902	191.75
441.113	187.29
441.324	170.63
441.535	214.8
441.746	227.59
441.957	179.93
442.168	191.16
442.38	250.64
442.591	209.57
442.802	190.97
443.013	181.67
443.224	213.64
443.435	207.63
443.646	172.95
443.857	205.69
444.068	188.06
444.279	191.75
444.49	271.18
444.701	228.94
444.912	314.97
445.123	223.71
445.334	241.34
445.545	242.7
445.756	217.32
445.967	202.6
446.178	252
446.388	258.01
446.599	261.88
446.81	253.36
447.021	214.03
447.232	288.04
447.443	298.11
447.653	211.51
447.864	261.3
448.075	254.52
448.286	262.85
448.496	258.2
448.707	287.26
448.918	214.03
449.129	337.06
449.339	226.04
449.55	262.27
449.761	241.93
449.971	275.83
450.182	245.41
450.393	284.94
450.603	274.28
450.814	293.66
451.024	282.81
451.235	318.07
451.446	349.65
451.656	324.85
451.867	254.71
452.077	304.31
452.288	317.49
452.498	319.62
452.709	281.06
452.919	318.65
453.13	262.27
453.34	298.89
453.55	226.62
453.761	265.56
453.971	295.21
454.182	303.54
454.392	299.66
454.602	370.19
454.813	316.32
455.023	309.93
455.233	247.54
455.444	303.54
455.654	226.04
455.864	288.23
456.075	308.57
456.285	245.03
456.495	292.3
456.705	282.03
456.916	330.86
457.126	357.01
457.336	302.57
457.546	234.37
457.756	302.57
457.967	353.72
458.177	315.94
458.387	290.75
458.597	281.06
458.807	295.4
459.017	261.11
459.227	287.65
459.437	294.82
459.647	321.36
459.857	317.1
460.068	303.34
460.278	344.61
460.488	332.79
460.698	354.88
460.908	315.74
461.117	280.29
461.327	318.65
461.537	307.8
461.747	349.46
461.957	331.24
462.167	437.03
462.377	382.97
462.587	355.27
462.797	374.84
463.007	341.12
463.216	365.54
463.426	385.49
463.636	361.27
463.846	302.57
464.056	336.86
464.265	358.17
464.475	311.87
464.685	331.63
464.895	357.98
465.104	334.92
465.314	371.16
465.524	323.69
465.733	330.66
465.943	410.49
466.153	399.25
466.362	379.49
466.572	346.94
466.782	322.91
466.991	350.42
467.201	364.96
467.41	341.9
467.62	368.83
467.829	356.24
468.039	387.24
468.249	370.38
468.458	383.36
468.668	403.51
468.877	385.49
469.086	424.63
469.296	391.11
469.505	381.42
469.715	424.82
469.924	421.92
470.134	424.44
470.343	398.28
470.552	384.14
470.762	384.72
470.971	360.31
471.18	380.84
471.39	382
471.599	382
471.808	421.34
472.018	383.55
472.227	447.69
472.436	450.01
472.645	412.23
472.855	389.75
473.064	454.85
473.273	426.57
473.482	472.68
473.691	461.25
473.901	461.44
474.11	437.61
474.319	505.03
474.528	413.59
474.737	499.03
474.946	463.57
475.155	492.25
475.364	496.51
475.573	452.53
475.783	446.14
475.992	494.77
476.201	502.52
476.41	471.32
476.619	433.93
476.828	461.25
477.037	454.08
477.245	487.02
477.454	515.5
477.663	455.82
477.872	490.89
478.081	528.09
478.29	469.38
478.499	592.41
478.708	518.6
478.917	590.86
479.125	512.78
479.334	535.26
479.543	509.49
479.752	543.59
479.961	540.68
480.169	562.77
480.378	519.18
480.587	605.78
480.796	587.38
481.004	547.85
481.213	547.85
481.422	563.55
481.63	539.91
481.839	599.78
482.048	640.08
482.256	617.41
482.465	612.56
482.674	611.21
482.882	617.99
483.091	680.38
483.299	593.77
483.508	606.95
483.716	611.98
483.925	611.79
484.134	604.04
484.342	583.31
484.551	632.33
484.759	603.85
484.967	632.33
485.176	630.78
485.384	650.34
485.593	657.13
485.801	618.57
486.01	620.51
486.218	565.1
486.426	523.83
486.635	574.4
486.843	573.04
487.051	583.11
487.26	583.7
487.468	596.87
487.676	655.96
487.885	613.34
488.093	658.87
488.301	655.38
488.509	691.81
488.717	666.62
488.926	694.33
489.134	661.39
489.342	678.24
489.55	658.87
489.758	676.5
489.967	718.74
490.175	801.66
490.383	694.13
490.591	801.27
490.799	642.59
491.007	748.77
491.215	748.57
491.423	749.54
491.631	706.34
491.839	718.74
492.047	783.26
492.255	718.35
492.463	681.73
492.671	697.81
492.879	777.83
493.087	730.94
493.295	767.17
493.503	791.39
493.711	764.66
493.919	819.87
494.127	782.09
494.334	812.12
494.542	767.37
494.75	784.42
494.958	770.47
495.166	870.25
495.374	830.92
495.581	807.86
495.789	814.06
495.997	888.07
496.205	823.94
496.412	816
496.62	811.35
496.828	839.64
497.035	873.54
497.243	873.15
497.451	850.29
497.658	860.17
497.866	838.09
498.074	922.95
498.281	863.27
498.489	923.33
498.696	870.25
498.904	856.88
499.112	837.5
499.319	948.52
499.527	869.67
499.734	926.24
499.942	830.72
500.149	866.18
500.357	896.21
500.564	857.27
500.771	870.83
500.979	858.62
501.186	860.56
501.394	898.34
501.601	875.48
501.808	945.62
502.016	894.85
502.223	884.39
502.43	901.83
502.638	911.13
502.845	906.28
503.052	1002.38
503.26	926.43
503.467	999.09
503.674	964.22
503.881	995.41
504.089	1003.93
504.296	983.01
504.503	931.86
504.71	964.8
504.917	922.37
505.125	988.63
505.332	971.38
505.539	981.85
505.746	1082.4
505.953	1050.43
506.16	1050.24
506.367	1101.39
506.574	1119.02
506.781	1118.63
506.988	1065.16
507.195	1079.88
507.402	1064.58
507.609	1106.04
507.816	1054.5
508.023	1085.89
508.23	1076.98
508.437	1041.91
508.644	1104.1
508.851	1166.49
509.058	1162.03
509.265	1162.42
509.472	1190.12
509.679	1231.59
509.885	1169.01
510.092	1175.4
510.299	1177.14
510.506	1178.69
510.713	1207.17
510.92	1192.64
511.126	1215.12
511.333	1260.65
511.54	1240.11
511.746	1280.22
511.953	1290.49
512.16	1302.11
512.367	1246.7
512.573	1262.78
512.78	1278.67
512.987	1291.26
513.193	1271.69
513.4	1221.32
513.606	1291.07
513.813	1298.24
514.02	1310.83
514.226	1368.37
514.433	1355
514.639	1268.2
514.846	1321.49
515.052	1308.89
515.259	1352.29
515.465	1365.47
515.672	1345.32
515.878	1451.88
516.085	1378.06
516.291	1447.23
516.497	1400.73
516.704	1371.28
516.91	1330.79
517.117	1262.2
517.323	1239.34
517.529	1272.85
517.736	1279.05
517.942	1332.14
518.148	1327.3
518.354	1401.31
518.561	1388.33
518.767	1359.46
518.973	1449.75
519.179	1467.38
519.386	1445.29
519.592	1405.38
519.798	1441.41
520.004	1577.23
520.21	1507.29
520.417	1577.81
520.623	1602.42
520.829	1616.17
521.035	1614.24
521.241	1612.49
521.447	1648.53
521.653	1737.65
521.859	1660.54
522.065	1678.76
522.271	1757.03
522.477	1733
522.683	1736.1
522.889	1731.84
523.095	1721.19
523.301	1728.94
523.507	1680.5
523.713	1741.34
523.919	1703.17
524.125	1803.14
524.331	1781.25
524.537	1875.21
524.742	1915.71
524.948	1922.68
525.154	1887.81
525.36	1990.88
525.566	1880.06
525.772	1943.22
525.977	1894.2
526.183	1930.63
526.389	1947.87
526.595	1870.37
526.8	1838.6
527.006	1775.44
527.212	1745.99
527.417	1753.74
527.623	1724.09
527.829	1889.94
528.034	1838.02
528.24	1902.53
528.446	1868.63
528.651	1992.24
528.857	2003.28
529.062	2090.47
529.268	2032.93
529.473	2067.99
529.679	2089.11
529.884	2142.78
530.09	2086.98
530.295	2100.16
530.501	2111.59
530.706	2104.61
530.912	2110.23
531.117	2115.85
531.323	2126.7
531.528	2147.82
531.733	2150.92
531.939	2137.74
532.144	2193.35
532.35	2130.19
532.555	2194.51
532.76	2113.52
532.966	2131.54
533.171	2109.84
533.376	2078.07
533.581	2070.12
533.787	2124.18
533.992	2187.34
534.197	2171.26
534.402	2156.92
534.607	2196.64
534.813	2232.48
535.018	2184.05
535.223	2226.67
535.428	2226.87
535.633	2276.85
535.838	2287.32
536.043	2292.35
536.249	2335.17
536.454	2289.06
536.659	2295.65
536.864	2262.32
537.069	2271.23
537.274	2289.64
537.479	2271.62
537.684	2306.11
537.889	2232.48
538.094	2353.77
538.299	2287.7
538.504	2351.64
538.708	2307.08
538.913	2388.64
539.118	2313.28
539.323	2322.96
539.528	2304.75
539.733	2272.78
539.938	2303.78
540.142	2297.97
540.347	2299.13
540.552	2273.37
540.757	2220.86
540.962	2251.86
541.166	2190.64
541.371	2251.67
541.576	2222.6
541.781	2189.86
541.985	2335.36
542.19	2318.31
542.395	2369.66
542.599	2349.31
542.804	2359.2
543.008	2399.11
543.213	2304.17
543.418	2291.77
543.622	2411.31
543.827	2293.9
544.031	2421.19
544.236	2406.86
544.44	2402.59
544.645	2463.04
544.849	2415.58
545.054	2392.91
545.258	2503.54
545.463	2500.05
545.667	2393.68
545.872	2436.31
546.076	2442.51
546.281	2433.79
546.485	2373.34
546.689	2437.66
546.894	2468.66
547.098	2448.51
547.302	2397.94
547.507	2443.86
547.711	2444.83
547.915	2463.63
548.119	2387.87
548.324	2436.69
548.528	2470.21
548.732	2433.59
548.936	2482.03
549.141	2487.26
549.345	2428.56
549.549	2460.14
549.753	2494.04
549.957	2543.84
550.161	2507.41
550.366	2473.89
550.57	2433.21
550.774	2500.24
550.978	2451.03
551.182	2492.88
551.386	2456.26
551.59	2477.96
551.794	2478.16
551.998	2470.21
552.202	2473.51
552.406	2474.28
552.61	2495.98
552.814	2485.32
553.018	2527.95
553.222	2449.29
553.426	2453.55
553.63	2524.07
553.833	2472.93
554.037	2433.98
554.241	2496.37
554.445	2474.67
554.649	2484.55
554.853	2478.35
555.056	2534.73
555.26	2579.29
555.464	2505.86
555.668	2512.45
555.871	2502.18
556.075	2518.84
556.279	2459.75
556.483	2452.78
556.686	2448.71
556.89	2465.18
557.094	2484.74
557.297	2398.33
557.501	2427.78
557.704	2393.29
557.908	2459.75
558.112	2412.48
558.315	2508.19
558.519	2391.74
558.722	2390.97
558.926	2378.57
559.129	2306.11
559.333	2299.13
559.536	2304.36
559.74	2284.02
559.943	2276.08
560.147	2309.98
560.35	2307.85
560.553	2318.51
560.757	2288.87
560.96	2405.69
561.164	2322.19
561.367	2392.33
561.57	2365.01
561.774	2356.29
561.977	2305.33
562.18	2281.89
562.384	2393.68
562.587	2298.75
562.79	2323.93
562.993	2289.45
563.197	2339.43
563.4	2396.78
563.603	2371.01
563.806	2366.75
564.009	2274.72
564.212	2286.15
564.416	2206.14
564.619	2284.41
564.822	2211.95
565.025	2317.35
565.228	2251.47
565.431	2279.76
565.634	2160.02
565.837	2191.6
566.04	2183.47
566.243	2157.12
566.446	2108.1
566.649	2210.01
566.852	2119.72
567.055	2150.14
567.258	2144.91
567.461	2262.52
567.664	2256.7
567.867	2140.84
568.07	2198.39
568.273	2160.8
568.475	2198.58
568.678	2087.76
568.881	2129.41
569.084	2101.71
569.287	1997.28
569.489	2035.06
569.692	2097.06
569.895	2132.7
570.098	2019.17
570.3	2022.46
570.503	1958.14
570.706	1995.34
570.909	1941.86
571.111	1904.28
571.314	1912.03
571.516	1925.2
571.719	1943.22
571.922	1919.78
572.124	1933.92
572.327	1961.63
572.529	1883.35
572.732	1909.31
572.935	1945.16
573.137	2045.71
573.34	1945.93
573.542	2016.07
573.745	1943.03
573.947	1955.81
574.15	1935.08
574.352	1894.2
574.554	1966.86
574.757	1862.43
574.959	1875.6
575.162	1857
575.364	1843.25
575.566	1935.86
575.769	1824.65
575.971	1847.9
576.173	1749.28
576.376	1816.51
576.578	1834.53
576.78	1874.44
576.982	1786.28
577.185	1804.69
577.387	1742.69
577.589	1757.61
577.791	1844.99
577.993	1842.08
578.196	1791.71
578.398	1779.5
578.6	1836.66
578.802	1721.96
579.004	1752.38
579.206	1759.74
579.408	1793.65
579.61	1734.17
579.812	1832.2
580.014	1781.05
580.216	1755.48
580.418	1761.49
580.62	1766.72
580.822	1757.61
581.024	1781.83
581.226	1797.91
581.428	1772.34
581.63	1863.01
581.832	1770.01
582.034	1827.75
582.236	1813.8
582.438	1809.73
582.64	1869.6
582.841	1872.7
583.043	1885.1
583.245	1816.12
583.447	1825.03
583.649	1827.94
583.85	1805.66
584.052	1816.51
584.254	1773.5
584.456	1807.4
584.657	1755.29
584.859	1810.89
585.061	1780.47
585.262	1784.15
585.464	1722.15
585.666	1786.48
585.867	1742.89
586.069	1782.99
586.27	1754.9
586.472	1779.31
586.674	1744.44
586.875	1745.79
587.077	1728.94
587.278	1768.46
587.48	1722.15
587.681	1825.81
587.883	1775.82
588.084	1635.36
588.285	1701.81
588.487	1671.59
588.688	1665.97
588.89	1586.14
589.091	1577.04
589.292	1567.16
589.494	1514.07
589.695	1505.16
589.896	1455.75
590.098	1434.25
590.299	1499.35
590.5	1464.66
590.702	1531.89
590.903	1564.25
591.104	1572.19
591.305	1565.99
591.507	1592.93
591.708	1611.52
591.909	1554.95
592.11	1635.94
592.311	1609.97
592.512	1555.73
592.714	1561.93
592.915	1549.53
593.116	1528.99
593.317	1559.02
593.518	1559.99
593.719	1578.98
593.92	1611.14
594.121	1652.41
594.322	1569.09
594.523	1568.9
594.724	1502.25
594.925	1542.16
595.126	1582.46
595.327	1588.08
595.528	1557.47
595.729	1577.81
595.929	1553.01
596.13	1595.06
596.331	1600.09
596.532	1552.63
596.733	1618.89
596.934	1642.91
597.135	1616.95
597.335	1605.32
597.536	1559.99
597.737	1560.96
597.938	1541.78
598.138	1565.03
598.339	1585.76
598.54	1597.38
598.74	1552.04
598.941	1583.24
599.142	1636.91
599.342	1573.36
599.543	1568.9
599.744	1579.94
599.944	1569.09
600.145	1553.4
600.345	1574.52
600.546	1643.69
600.746	1597.38
600.947	1623.15
601.147	1536.93
601.348	1624.89
601.548	1541
601.749	1573.55
601.949	1525.89
602.15	1503.22
602.35	1555.73
602.551	1613.85
602.751	1524.73
602.951	1538.87
603.152	1480.75
603.352	1575.29
603.552	1556.5
603.753	1589.05
603.953	1585.18
604.153	1574.71
604.354	1580.91
604.554	1570.45
604.754	1601.06
604.954	1542.36
605.155	1595.06
605.355	1580.33
605.555	1590.79
605.755	1616.56
605.955	1587.5
606.155	1623.73
606.356	1545.84
606.556	1541.19
606.756	1590.21
606.956	1541.78
607.156	1559.02
607.356	1513.3
607.556	1557.08
607.756	1559.41
607.956	1569.09
608.156	1533.83
608.356	1509.03
608.556	1551.46
608.756	1530.15
608.956	1514.26
609.156	1536.35
609.356	1476.87
609.556	1478.03
609.755	1526.47
609.955	1480.16
610.155	1486.95
610.355	1462.15
610.555	1475.9
610.755	1467.18
610.954	1430.76
611.154	1488.11
611.354	1510.2
611.554	1434.44
611.753	1483.85
611.953	1427.66
612.153	1466.21
612.352	1473.96
612.552	1430.56
612.752	1418.55
612.951	1436.57
613.151	1425.33
613.351	1404.02
613.55	1427.08
613.75	1445.48
613.949	1401.31
614.149	1457.88
614.348	1381.93
614.548	1394.14
614.747	1374.38
614.947	1356.55
615.146	1331.37
615.346	1432.5
615.545	1393.95
615.745	1388.72
615.944	1397.82
616.144	1387.94
616.343	1394.14
616.542	1343.38
616.742	1342.02
616.941	1380
617.14	1279.05
617.34	1372.25
617.539	1328.85
617.738	1322.65
617.938	1385.81
618.137	1337.18
618.336	1318.19
618.535	1368.37
618.734	1360.43
618.934	1363.72
619.133	1367.6
619.332	1373.41
619.531	1333.69
619.73	1337.18
619.929	1395.11
620.128	1387.94
620.328	1404.41
620.527	1299.79
620.726	1337.57
620.925	1357.52
621.124	1317.22
621.323	1347.83
621.522	1293
621.721	1303.47
621.92	1270.53
622.119	1304.44
622.318	1271.69
622.517	1295.52
622.715	1290.87
622.914	1237.98
623.113	1276.73
623.312	1218.41
623.511	1290.29
623.71	1248.64
623.909	1225.39
624.107	1326.52
624.306	1215.89
624.505	1226.36
624.704	1245.54
624.902	1251.54
625.101	1292.62
625.3	1238.37
625.499	1237.21
625.697	1250.57
625.896	1221.9
626.095	1271.89
626.293	1172.69
626.492	1212.99
626.69	1229.07
626.889	1231.97
627.088	1240.69
627.286	1217.83
627.485	1184.31
627.683	1185.67
627.882	1209.31
628.08	1147.5
628.279	1165.13
628.477	1207.95
628.676	1133.16
628.874	1155.64
629.073	1127.93
629.271	1124.83
629.469	1167.46
629.668	1140.14
629.866	1151.18
630.065	1126.19
630.263	1147.11
630.461	1120.38
630.66	1178.69
630.858	1170.94
631.056	1177.72
631.254	1214.34
631.453	1128.13
631.651	1207.37
631.849	1171.33
632.047	1150.02
632.245	1148.86
632.444	1183.73
632.642	1177.92
632.84	1173.85
633.038	1148.47
633.236	1131.61
633.434	1140.53
633.632	1165.71
633.83	1152.15
634.028	1204.07
634.227	1171.33
634.425	1234.69
634.623	1174.43
634.821	1200.59
635.019	1172.3
635.216	1163
635.414	1207.37
635.612	1201.17
635.81	1139.36
636.008	1211.44
636.206	1155.44
636.404	1199.04
636.602	1148.86
636.8	1181.02
636.997	1186.83
637.195	1184.31
637.393	1200.01
637.591	1242.44
637.789	1177.14
637.986	1154.48
638.184	1179.08
638.382	1222.87
638.58	1174.24
638.777	1243.02
638.975	1181.21
639.173	1179.27
639.37	1181.02
639.568	1182.37
639.765	1166.49
639.963	1161.06
640.161	1180.63
640.358	1175.01
640.556	1119.02
640.753	1116.69
640.951	1091.7
641.148	1127.93
641.346	1143.63
641.543	1100.23
641.741	1104.29
641.938	1090.15
642.136	1106.04
642.333	1063.41
642.531	1123.09
642.728	1105.46
642.925	1084.14
643.123	1094.99
643.32	1074.65
643.517	1083.76
643.715	1084.53
643.912	1051.98
644.109	1079.88
644.306	1071.55
644.504	1046.36
644.701	1071.75
644.898	1084.34
645.095	1032.22
645.293	1043.07
645.49	1053.92
645.687	1054.5
645.884	1065.93
646.081	944.26
646.278	952.01
646.475	990.76
646.672	1008.39
646.87	1032.22
647.067	981.27
647.264	995.6
647.461	922.37
647.658	887.1
647.855	962.86
648.052	946.2
648.249	880.52
648.446	939.61
648.642	913.84
648.839	873.54
649.036	881.1
649.233	870.64
649.43	890.2
649.627	849.71
649.824	881.68
650.021	848.35
650.217	903.96
650.414	888.85
650.611	933.6
650.808	890.79
651.004	918.1
651.201	937.67
651.398	954.14
651.595	924.11
651.791	882.84
651.988	930.31
652.185	848.74
652.381	901.83
652.578	853.2
652.775	864.82
652.971	893.3
653.168	873.74
653.364	904.35
653.561	852.23
653.757	874.12
653.954	896.21
654.15	873.15
654.347	922.95
654.543	865.6
654.74	832.08
654.936	847.77
655.133	852.42
655.329	864.63
655.525	853
655.722	862.3
655.918	808.83
656.115	809.61
656.311	770.47
656.507	731.72
656.704	717.96
656.9	726.49
657.096	722.42
657.292	728.04
657.489	840.02
657.685	796.62
657.881	755.55
658.077	765.62
658.273	779.96
658.47	841.96
658.666	795.46
658.862	835.76
659.058	820.65
659.254	841.19
659.45	807.47
659.646	820.65
659.842	807.67
660.038	847.97
660.234	764.46
660.43	792.75
660.626	874.12
660.822	830.72
661.018	860.37
661.214	768.14
661.41	748.57
661.606	838.09
661.802	846.22
661.998	814.26
662.194	778.02
662.39	798.95
662.586	808.25
662.781	808.25
662.977	825.3
663.173	828.79
663.369	776.47
663.564	803.21
663.76	812.12
663.956	760.97
664.152	806.51
664.347	743.73
664.543	771.82
664.739	734.82
664.934	730.56
665.13	701.69
665.326	770.08
665.521	745.67
665.717	729.59
665.912	721.26
666.108	655.77
666.304	732.88
666.499	732.3
666.695	662.16
666.89	701.11
667.086	738.5
667.281	726.88
667.477	800.5
667.672	731.14
667.867	712.54
668.063	752.84
668.258	682.7
668.454	705.37
668.649	762.33
668.844	692.78
669.04	727.65
669.235	735.79
669.43	695.88
669.626	665.26
669.821	692.78
670.016	641.63
670.211	656.35
670.407	628.45
670.602	713.12
670.797	675.92
670.992	710.41
671.187	644.73
671.382	735.79
671.578	623.8
671.773	685.22
671.968	666.43
672.163	663.71
672.358	696.26
672.553	636.59
672.748	660.81
672.943	716.61
673.138	659.84
673.333	674.76
673.528	653.06
673.723	665.65
673.918	656.35
674.113	605.59
674.308	725.33
674.503	663.71
674.698	696.65
674.892	662.36
675.087	680.18
675.282	650.34
675.477	654.22
675.672	660.81
675.867	651.89
676.061	624.38
676.256	608.3
676.451	608.3
676.646	619.73
676.84	614.89
677.035	591.06
677.23	605.01
677.424	652.48
677.619	657.9
677.814	685.41
678.008	667.98
678.203	590.28
678.397	624
678.592	638.91
678.787	675.34
678.981	617.21
679.176	625.55
679.37	658.09
679.565	624.77
679.759	619.93
679.954	664.1
680.148	687.35
680.342	674.18
680.537	646.47
680.731	639.11
680.926	656.74
681.12	643.95
681.314	608.5
681.509	619.54
681.703	680.38
681.897	648.02
682.092	665.07
682.286	611.79
682.48	730.56
682.674	646.47
682.869	655.19
683.063	634.07
683.257	694.13
683.451	623.22
683.645	712.73
683.839	658.87
684.034	661.97
684.228	668.94
684.422	649.18
684.616	656.74
684.81	677.47
685.004	656.93
685.198	674.95
685.392	690.26
685.586	712.93
685.78	690.84
685.974	673.79
686.168	716.41
686.362	744.12
686.556	655.58
686.75	626.9
686.944	630.39
687.138	621.48
687.331	542.04
687.525	542.43
687.719	509.68
687.913	550.95
688.107	566.84
688.301	554.83
688.494	622.64
688.688	581.95
688.882	543.4
689.076	584.66
689.269	576.14
689.463	695.49
689.657	628.06
689.85	627.1
690.044	673.79
690.238	664.68
690.431	643.56
690.625	666.62
690.818	706.73
691.012	714.48
691.205	762.72
691.399	726.1
691.593	747.8
691.786	814.06
691.98	827.82
692.173	884.97
692.366	849.71
692.56	852.23
692.753	910.93
692.947	860.56
693.14	944.84
693.333	927.21
693.527	890.01
693.72	919.65
693.914	916.75
694.107	921.59
694.3	942.71
694.493	954.14
694.687	1021.95
694.88	942.9
695.073	1027.38
695.266	1056.63
695.46	1022.53
695.653	1059.35
695.846	1079.49
696.039	1048.69
696.232	1088.99
696.425	1152.73
696.618	1136.46
696.812	1140.33
697.005	1237.98
697.198	1288.74
697.391	1256.58
697.584	1306.57
697.777	1355.78
697.97	1298.82
698.163	1331.75
698.356	1302.89
698.549	1388.52
698.742	1342.02
698.935	1330.59
699.127	1360.23
699.32	1310.83
699.513	1359.46
699.706	1388.13
699.899	1393.17
700.092	1398.02
700.285	1439.28
700.477	1368.37
700.67	1413.52
700.863	1469.9
701.056	1536.16
701.248	1513.1
701.441	1558.05
701.634	1461.18
701.826	1599.51
702.019	1460.01
702.212	1563.09
702.404	1493.73
702.597	1548.56
702.79	1545.84
702.982	1569.87
703.175	1647.37
703.367	1646.79
703.56	1659.77
703.752	1750.05
703.945	1715.37
704.137	1750.05
704.33	1705.88
704.522	1766.52
704.715	1773.11
704.907	1802.56
705.1	1826.58
705.292	1832.01
705.484	1789
705.677	1836.08
705.869	1875.21
706.061	1891.3
706.254	1921.91
706.446	1898.27
706.638	1876.18
706.831	1962.01
707.023	1950.78
707.215	2012.78
707.407	2028.86
707.599	2001.93
707.792	2022.66
707.984	2029.24
708.176	2058.69
708.368	2023.82
708.56	2084.66
708.752	2091.24
708.944	2040.29
709.136	2124.76
709.329	2094.73
709.521	2221.83
709.713	2156.73
709.905	2147.62
710.097	2168.16
710.289	2176.49
710.481	2218.53
710.672	2210.79
710.864	2226.87
711.056	2258.45
711.248	2281.7
711.44	2294.48
711.632	2280.15
711.824	2326.45
712.016	2345.63
712.207	2322.19
712.399	2388.26
712.591	2417.13
712.783	2365.59
712.975	2410.54
713.166	2366.95
713.358	2374.7
713.55	2457.04
713.741	2389.42
713.933	2457.62
714.125	2430.11
714.316	2396.39
714.508	2450.06
714.7	2458.2
714.891	2475.25
715.083	2495.01
715.274	2451.23
715.466	2483.77
715.657	2506.06
715.849	2407.44
716.04	2406.08
716.232	2409.38
716.423	2436.31
716.615	2335.56
716.806	2292.55
716.998	2193.54
717.189	2145.69
717.381	2058.11
717.572	2018.2
717.763	2038.93
717.955	1993.21
718.146	1967.24
718.337	1932.56
718.528	1895.56
718.72	1809.34
718.911	1895.75
719.102	1785.7
719.293	1851.77
719.485	1823.48
719.676	1812.25
719.867	1791.9
720.058	1778.92
720.249	1782.99
720.44	1815.93
720.632	1911.25
720.823	1923.85
721.014	2059.27
721.205	2102.29
721.396	2160.22
721.587	2258.25
721.778	2303.01
721.969	2333.23
722.16	2406.86
722.351	2396.78
722.542	2544.03
722.733	2506.25
722.924	2469.63
723.115	2505.09
723.305	2478.16
723.496	2467.31
723.687	2337.5
723.878	2342.92
724.069	2347.96
724.26	2391.94
724.45	2280.15
724.641	2249.34
724.832	2343.7
725.023	2252.63
725.213	2261.35
725.404	2211.75
725.595	2274.92
725.785	2259.22
725.976	2302.43
726.167	2286.35
726.357	2256.12
726.548	2420.23
726.739	2282.28
726.929	2387.1
727.12	2387.68
727.31	2445.99
727.501	2335.17
727.691	2375.28
727.882	2379.35
728.072	2405.11
728.263	2403.56
728.453	2467.69
728.644	2473.31
728.834	2449.09
729.024	2425.84
729.215	2411.7
729.405	2469.83
729.596	2537.83
729.786	2561.47
729.976	2522.33
730.167	2537.25
730.357	2525.43
730.547	2522.91
730.737	2560.89
730.928	2571.15
731.118	2656.6
731.308	2560.11
731.498	2592.85
731.688	2684.11
731.879	2701.55
732.069	2726.73
732.259	2802.1
732.449	2810.82
732.639	2885.61
732.829	2921.26
733.019	2986.16
733.209	3009.22
733.399	3018.52
733.589	3115.97
733.779	3118.88
733.969	3153.56
734.159	3198.51
734.349	3203.55
734.539	3297.51
734.729	3257.02
734.919	3288.6
735.109	3342.08
735.299	3271.16
735.488	3315.73
735.678	3313.4
735.868	3314.56
736.058	3313.4
736.248	3248.5
736.437	3238.42
736.627	3229.31
736.817	3406.4
737.007	3281.82
737.196	3368.62
737.386	3321.15
737.576	3342.08
737.765	3368.04
737.955	3361.06
738.144	3463.55
738.334	3447.09
738.524	3372.49
738.713	3488.74
738.903	3440.5
739.092	3431.01
739.282	3452.9
739.471	3458.52
739.661	3457.16
739.85	3506.76
740.04	3473.05
740.229	3547.45
740.419	3578.25
740.608	3516.64
740.797	3524.2
740.987	3621.65
741.176	3565.66
741.365	3568.57
741.555	3539.7
741.744	3612.74
741.933	3530.98
742.123	3611.77
742.312	3659.63
742.501	3643.55
742.69	3671.64
742.88	3606.73
743.069	3693.53
743.258	3654.4
743.447	3729.76
743.636	3727.05
743.825	3677.45
744.014	3749.72
744.204	3715.04
744.393	3649.75
744.582	3741.39
744.771	3777.81
744.96	3702.83
745.149	3740.42
745.338	3694.11
745.527	3753.01
745.716	3732.48
745.905	3718.91
746.094	3734.99
746.283	3778.78
746.471	3755.92
746.66	3803
746.849	3761.15
747.038	3815.4
747.227	3753.98
747.416	3787.5
747.604	3716.2
747.793	3732.86
747.982	3761.15
748.171	3815.79
748.359	3777.62
748.548	3766.96
748.737	3756.11
748.926	3767.54
749.114	3682.3
749.303	3754.95
749.491	3755.14
749.68	3672.41
749.869	3763.48
750.057	3724.53
750.246	3694.5
750.434	3713.1
750.623	3706.51
750.811	3692.56
751	3744.49
751.188	3696.05
751.377	3722.01
751.565	3705.16
751.754	3665.25
751.942	3663.5
752.131	3712.91
752.319	3647.42
752.507	3639.48
752.696	3711.74
752.884	3706.32
753.072	3710.58
753.261	3661.95
753.449	3650.13
753.637	3593.17
753.825	3708.45
754.014	3617.97
754.202	3666.8
754.39	3698.96
754.578	3659.82
754.766	3616.61
754.955	3624.17
755.143	3686.17
755.331	3601.31
755.519	3666.02
755.707	3624.36
755.895	3605.77
756.083	3599.37
756.271	3575.35
756.459	3569.15
756.647	3649.75
756.835	3578.45
757.023	3561.4
757.211	3562.75
757.399	3547.25
757.587	3543.18
757.775	3520.32
757.963	3525.75
758.151	3544.73
758.339	3481.19
758.526	3498.04
758.714	3498.24
758.902	3378.31
759.09	3275.04
759.278	3069.28
759.465	2817.99
759.653	2422.55
759.841	2210.4
760.028	1877.93
760.216	1605.32
760.404	1541.58
760.591	1236.62
760.779	1068.26
760.967	922.56
761.154	777.64
761.342	798.37
761.529	772.02
761.717	823.36
761.905	797.59
762.092	886.72
762.28	844.29
762.467	803.6
762.655	778.99
762.842	778.02
763.029	761.94
763.217	795.27
763.404	762.14
763.592	826.46
763.779	756.32
763.966	795.27
764.154	870.64
764.341	917.52
764.528	939.22
764.716	982.62
764.903	1016.72
765.09	1139.75
765.277	1156.03
765.465	1323.42
765.652	1382.32
765.839	1468.15
766.026	1609.97
766.213	1657.64
766.4	1781.25
766.588	1964.73
766.775	1960.27
766.962	2081.94
767.149	2185.21
767.336	2304.75
767.523	2322.58
767.71	2415.38
767.897	2563.02
768.084	2652.53
768.271	2670.16
768.458	2742.62
768.645	2829.23
768.832	2778.27
769.019	2845.69
769.206	2853.25
769.392	2952.06
769.579	3039.64
769.766	3002.63
769.953	3000.89
770.14	3073.74
770.327	3090.4
770.513	3132.05
770.7	3193.08
770.887	3084.78
771.073	3154.92
771.26	3135.93
771.447	3115.78
771.634	3073.93
771.82	3197.93
772.007	3083.81
772.193	3167.12
772.38	3159.76
772.567	3127.6
772.753	3112.29
772.94	3184.75
773.126	3171.97
773.313	3180.88
773.499	3159.37
773.686	3158.6
773.872	3104.73
774.059	3144.07
774.245	3141.74
774.432	3167.51
774.618	3059.79
774.804	3140.97
774.991	3042.74
775.177	3142.52
775.363	3111.32
775.55	3141.74
775.736	3030.53
775.922	3082.84
776.109	3080.32
776.295	3136.9
776.481	3087.68
776.667	3106.87
776.853	3052.04
777.04	3042.35
777.226	3065.99
777.412	3134.38
777.598	3036.92
777.784	3047.77
777.97	3058.62
778.156	3071.8
778.342	3042.74
778.528	3053.78
778.715	2944.31
778.901	3004.95
779.087	3001.85
779.272	2990.42
779.458	2988.1
779.644	3005.54
779.83	2959.23
780.016	3097.76
780.202	2997.4
780.388	2997.4
780.574	2934.24
780.76	2908.66
780.946	2985.97
781.131	2963.11
781.317	2933.85
781.503	2913.7
781.689	2925.91
781.874	3003.02
782.06	2853.64
782.246	2939.86
782.432	2915.44
782.617	2917.57
782.803	2931.33
782.989	2833.49
783.174	2872.43
783.36	2832.91
783.545	2845.89
783.731	2841.63
783.916	2761.8
784.102	2861.19
784.288	2812.37
784.473	2831.16
784.659	2744.95
784.844	2874.76
785.029	2828.06
785.215	2769.16
785.4	2755.41
785.586	2808.69
785.771	2754.63
785.956	2799.78
786.142	2744.95
786.327	2721.7
786.512	2705.03
786.698	2704.26
786.883	2674.81
787.068	2688.57
787.254	2712.59
787.439	2684.11
787.624	2666.67
787.809	2630.44
787.994	2618.43
788.18	2694.77
788.365	2601.38
788.55	2608.16
788.735	2636.84
788.92	2625.6
789.105	2592.27
789.29	2650.98
789.475	2557.79
789.66	2582.2
789.845	2556.43
790.03	2528.14
790.215	2560.31
790.4	2560.5
790.585	2556.43
790.77	2530.27
790.955	2501.21
791.14	2509.93
791.325	2582
791.51	2501.6
791.695	2493.27
791.879	2522.52
792.064	2459.17
792.249	2573.87
792.434	2525.62
792.618	2525.43
792.803	2526.21
792.988	2488.23
793.173	2513.61
793.357	2557.21
793.542	2449.29
793.727	2522.14
793.911	2555.07
794.096	2544.03
794.281	2564.95
794.465	2630.44
794.65	2522.52
794.834	2587.43
795.019	2587.24
795.203	2579.49
795.388	2592.08
795.572	2578.71
795.757	2574.45
795.941	2563.02
796.126	2568.44
796.31	2477.57
796.494	2534.15
796.679	2539.19
796.863	2476.41
797.048	2572.32
797.232	2544.03
797.416	2551.97
797.601	2544.03
797.785	2589.95
797.969	2631.6
798.153	2532.41
798.338	2606.03
798.522	2615.33
798.706	2586.65
798.89	2577.16
799.074	2680.82
799.258	2643.81
799.443	2586.46
799.627	2589.95
799.811	2628.7
799.995	2578.32
800.179	2585.88
800.363	2578.71
800.547	2574.64
800.731	2618.82
800.915	2523.69
801.099	2543.26
801.283	2572.7
801.467	2578.32
801.651	2547.71
801.835	2616.49
802.019	2606.8
802.202	2599.25
802.386	2532.02
802.57	2508.96
802.754	2538.8
802.938	2516.52
803.121	2543.84
803.305	2580.07
803.489	2508.96
803.673	2533.96
803.856	2539.96
804.04	2518.26
804.224	2538.99
804.407	2531.82
804.591	2545.19
804.775	2513.22
804.958	2566.31
805.142	2641.87
805.326	2534.54
805.509	2558.56
805.693	2588.98
805.876	2603.51
806.06	2560.31
806.243	2614.36
806.427	2603.51
806.61	2662.99
806.794	2600.02
806.977	2580.26
807.16	2602.74
807.344	2605.25
807.527	2610.29
807.71	2565.34
807.894	2600.6
808.077	2581.81
808.26	2543.45
808.444	2553.91
808.627	2586.27
808.81	2526.21
808.993	2464.01
809.177	2456.46
809.36	2481.84
809.543	2502.37
809.726	2399.88
809.909	2424.1
810.092	2389.81
810.276	2409.18
810.459	2444.25
810.642	2372.95
810.825	2333.81
811.008	2373.34
811.191	2316.96
811.374	2300.3
811.557	2305.33
811.74	2356.87
811.923	2281.5
812.106	2243.72
812.289	2216.6
812.472	2214.27
812.654	2218.92
812.837	2156.54
813.02	2150.14
813.203	2107.91
813.386	1968.21
813.569	1990.49
813.751	1929.66
813.934	1944.77
814.117	1926.36
814.3	1876.57
814.482	1831.62
814.665	1825.62
814.848	1782.22
815.03	1730.87
815.213	1711.3
815.396	1687.28
815.578	1627.61
815.761	1647.56
815.943	1700.07
816.126	1600.29
816.309	1609.2
816.491	1535.38
816.674	1445.29
816.856	1544.88
817.039	1572.58
817.221	1559.79
817.403	1565.41
817.586	1577.43
817.768	1591.76
817.951	1474.16
818.133	1471.45
818.315	1478.23
818.498	1551.46
818.68	1602.22
818.862	1576.07
819.045	1625.47
819.227	1596.41
819.409	1564.25
819.591	1602.03
819.774	1566.77
819.956	1559.21
820.138	1649.31
820.32	1636.32
820.502	1702.97
820.684	1755.29
820.866	1735.14
821.048	1780.47
821.231	1820.58
821.413	1824.26
821.595	1758.19
821.777	1762.84
821.959	1783.38
822.141	1816.7
822.323	1720.8
822.505	1679.53
822.686	1597.77
822.868	1509.03
823.05	1389.88
823.232	1386.39
823.414	1306.76
823.596	1409.45
823.778	1384.26
823.96	1416.23
824.141	1424.37
824.323	1446.65
824.505	1538.68
824.687	1611.72
824.868	1628.19
825.05	1724.29
825.232	1709.75
825.413	1798.3
825.595	1796.55
825.777	1705.69
825.958	1746.95
826.14	1745.21
826.321	1764.39
826.503	1721.96
826.685	1759.16
826.866	1808.95
827.048	1757.03
827.229	1725.25
827.411	1691.74
827.592	1648.92
827.773	1628.77
827.955	1607.84
828.136	1621.02
828.318	1561.93
828.499	1604.16
828.68	1553.59
828.862	1550.88
829.043	1568.13
829.224	1551.85
829.406	1502.64
829.587	1548.17
829.768	1536.54
829.949	1569.87
830.131	1562.89
830.312	1628.38
830.493	1564.06
830.674	1588.28
830.855	1573.16
831.036	1570.26
831.218	1643.11
831.399	1625.67
831.58	1577.81
831.761	1560.76
831.942	1624.12
832.123	1595.64
832.304	1549.72
832.485	1537.32
832.666	1575.1
832.847	1577.62
833.028	1557.66
833.209	1571.81
833.389	1553.21
833.57	1509.03
833.751	1542.74
833.932	1593.89
834.113	1582.85
834.294	1560.38
834.475	1575.49
834.655	1619.47
834.836	1620.24
835.017	1603.77
835.198	1587.31
835.378	1618.31
835.559	1633.81
835.74	1614.43
835.92	1572.78
836.101	1578.2
836.281	1633.42
836.462	1612.69
836.643	1668.49
836.823	1669.26
837.004	1695.42
837.184	1689.22
837.365	1663.06
837.545	1680.31
837.726	1651.05
837.906	1687.47
838.087	1642.72
838.267	1635.36
838.448	1618.31
838.628	1642.72
838.808	1662.48
838.989	1674.3
839.169	1627.02
839.349	1678.17
839.53	1678.76
839.71	1670.81
839.89	1668.68
840.07	1721.77
840.251	1661.9
840.431	1704.14
840.611	1662.29
840.791	1643.11
840.971	1674.88
841.151	1652.02
841.332	1644.46
841.512	1666.16
841.692	1607.84
841.872	1670.42
842.052	1651.82
842.232	1653.96
842.412	1580.33
842.592	1615.4
842.772	1668.87
842.952	1649.69
843.132	1615.21
843.312	1610.94
843.492	1576.84
843.672	1654.92
843.851	1558.24
844.031	1615.01
844.211	1573.16
844.391	1565.61
844.571	1625.67
844.751	1614.82
844.93	1607.84
845.11	1579.56
845.29	1596.99
845.47	1612.49
845.649	1587.5
845.829	1602.61
846.009	1571.23
846.188	1599.51
846.368	1567.93
846.547	1573.94
846.727	1611.33
846.907	1531.7
847.086	1591.96
847.266	1596.22
847.445	1525.89
847.625	1579.56
847.804	1547.2
847.984	1568.32
848.163	1544.88
848.343	1526.66
848.522	1583.04
848.701	1582.66
848.881	1565.03
849.06	1534.8
849.239	1553.4
849.419	1558.83
849.598	1467.96
849.777	1483.46
849.957	1483.85
850.136	1419.33
850.315	1428.05
850.494	1406.15
850.674	1414.87
850.853	1480.36
851.032	1412.16
851.211	1518.14
851.39	1471.25
851.569	1415.84
851.748	1431.53
851.927	1496.25
852.107	1442
852.286	1389.49
852.465	1408.09
852.644	1486.56
852.823	1441.8
853.002	1435.8
853.181	1420.3
853.359	1441.41
853.538	1380.77
853.717	1454.78
853.896	1356.36
854.075	1307.92
854.254	1307.34
854.433	1246.31
854.611	1255.22
854.79	1230.23
854.969	1276.54
855.148	1267.62
855.327	1240.89
855.505	1314.12
855.684	1305.99
855.863	1343.18
856.041	1318.39
856.22	1327.69
856.399	1318
856.577	1404.22
856.756	1360.43
856.934	1469.9
857.113	1475.13
857.291	1413.13
857.47	1355.78
857.648	1387.94
857.827	1421.07
858.005	1461.95
858.184	1355.2
858.362	1436.76
858.541	1383.68
858.719	1391.82
858.898	1359.27
859.076	1363.14
859.254	1428.43
859.433	1379.03
859.611	1351.13
859.789	1321.29
859.967	1379.42
860.146	1400.73
860.324	1324.78
860.502	1366.43
860.68	1263.36
860.859	1341.83
861.037	1318.97
861.215	1350.35
861.393	1315.29
861.571	1326.33
861.749	1347.06
861.927	1339.12
862.105	1333.5
862.283	1325.75
862.461	1311.6
862.639	1297.85
862.817	1279.83
862.995	1328.65
863.173	1290.1
863.351	1310.44
863.529	1333.3
863.707	1338.92
863.885	1317.42
864.063	1253.09
864.241	1302.69
864.418	1320.32
864.596	1279.25
864.774	1266.65
864.952	1249.02
865.129	1259.49
865.307	1211.82
865.485	1232.56
865.663	1274.21
865.84	1166.1
866.018	1194
866.196	1070.2
866.373	1105.46
866.551	1079.11
866.728	1060.7
866.906	1102.74
867.084	1124.83
867.261	1127.93
867.439	1142.66
867.616	1139.94
867.794	1141.11
867.971	1183.73
868.149	1197.49
868.326	1214.15
868.503	1190.51
868.681	1211.24
868.858	1171.33
869.035	1143.82
869.213	1183.92
869.39	1167.65
869.567	1246.12
869.745	1160.48
869.922	1175.79
870.099	1192.06
870.276	1201.36
870.454	1182.37
870.631	1218.02
870.808	1184.12
870.985	1222.87
871.162	1209.89
871.339	1186.44
871.517	1133.36
871.694	1131.81
871.871	1141.88
872.048	1150.21
872.225	1156.8
872.402	1172.3
872.579	1133.55
872.756	1172.3
872.933	1114.95
873.11	1151.38
873.287	1142.46
873.463	1104.68
873.64	1094.8
873.817	1142.66
873.994	1107.2
874.171	1092.48
874.348	1119.02
874.524	1051.6
874.701	1099.45
874.878	1040.16
875.055	1122.51
875.231	1073.68
875.408	1101.58
875.585	1035.51
875.762	1097.32
875.938	1084.34
876.115	1092.09
876.291	1094.8
876.468	1076.4
876.645	1027.18
876.821	1053.92
876.998	1052.37
877.174	1042.68
877.351	1023.89
877.527	1016.72
877.704	1067.29
877.88	1061.48
878.057	1016.72
878.233	1074.46
878.409	1049.85
878.586	1050.05
878.762	1018.08
878.938	999.67
879.115	978.94
879.291	1015.36
879.467	996.38
879.644	997.35
879.82	1040.16
879.996	1001.22
880.172	985.53
880.349	981.27
880.525	1028.15
880.701	966.93
880.877	963.63
881.053	1024.47
881.229	981.65
881.405	1037.65
881.581	947.17
881.757	993.47
881.933	989.98
882.109	1020.01
882.285	956.66
882.461	952.01
882.637	970.03
882.813	983.59
882.989	973.9
883.165	1019.43
883.341	962.67
883.517	1027.76
883.693	986.5
883.869	1032.41
884.044	975.84
884.22	1002.77
884.396	1026.99
884.572	1002.77
884.747	1006.06
884.923	999.86
885.099	1016.33
885.275	1000.45
885.45	950.27
885.626	988.63
885.801	971
885.977	970.22
886.153	909.77
886.328	984.95
886.504	971
886.679	993.28
886.855	952.59
887.03	985.14
887.206	1028.35
887.381	978.75
887.557	993.08
887.732	993.47
887.908	972.55
888.083	1001.22
888.258	973.71
888.434	992.11
888.609	980.1
888.784	989.6
888.96	966.73
889.135	955.3
889.31	961.7
889.485	940.19
889.661	975.65
889.836	991.73
890.011	992.89
890.186	968.28
890.361	955.11
890.537	995.99
890.712	981.65
890.887	973.9
891.062	970.42
891.237	1022.73
891.412	946.39
891.587	973.32
891.762	1004.71
891.937	983.4
892.112	929.53
892.287	968.87
892.462	907.25
892.637	915.58
892.812	866.18
892.987	866.76
893.161	885.75
893.336	885.55
893.511	905.32
893.686	900.28
893.861	887.3
894.035	887.69
894.21	909.97
894.385	825.69
894.56	853
894.734	785.58
894.909	787.71
895.084	805.92
895.258	785.39
895.433	780.54
895.608	759.62
895.782	713.51
895.957	761.36
896.131	735.59
896.306	677.08
896.48	671.85
896.655	681.15
896.829	625.55
897.004	644.73
897.178	670.69
897.353	641.04
897.527	652.67
897.701	653.44
897.876	589.51
898.05	664.1
898.224	658.68
898.399	699.56
898.573	645.11
898.747	525.77
898.921	591.83
899.096	515.5
899.27	501.93
899.444	530.22
899.618	535.26
899.792	549.21
899.967	549.4
900.141	593.96
900.315	527.32
900.489	545.72
900.663	550.57
900.837	556.38
901.011	528.48
901.185	593.19
901.359	553.08
901.533	568.58
901.707	547.85
901.881	565.1
902.055	467.83
902.229	526.15
902.403	597.06
902.576	509.1
902.75	563.74
902.924	645.69
903.098	594.16
903.272	661.78
903.446	679.99
903.619	681.93
903.793	665.84
903.967	675.92
904.14	715.06
904.314	689.48
904.488	712.15
904.661	712.15
904.835	715.83
905.009	758.65
905.182	773.96
905.356	751.09
905.529	710.6
905.703	693.55
905.876	689.68
906.05	671.85
906.223	627.87
906.397	590.28
906.57	581.56
906.744	554.25
906.917	541.85
907.09	538.55
907.264	564.32
907.437	503.48
907.61	504.26
907.784	498.83
907.957	529.45
908.13	492.83
908.304	530.22
908.477	466.28
908.65	492.05
908.823	458.73
908.996	529.45
909.17	498.25
909.343	485.08
909.516	514.72
909.689	484.5
909.862	462.22
910.035	479.85
910.208	436.06
910.381	470.74
910.554	535.45
910.727	482.37
910.9	470.74
911.073	493.6
911.246	532.74
911.419	551.92
911.592	514.92
911.765	472.68
911.938	463.19
912.11	474.62
912.283	495.15
912.456	532.35
912.629	501.93
912.802	459.12
912.974	406.42
913.147	395.18
913.32	361.86
913.493	386.46
913.665	414.55
913.838	413
914.01	405.64
914.183	416.1
914.356	415.14
914.528	469
914.701	506.39
914.873	461.83
915.046	404.48
915.218	380.65
915.391	322.72
915.563	358.76
915.736	407.19
915.908	440.52
916.081	417.27
916.253	394.99
916.425	422.11
916.598	433.54
916.77	426.95
916.942	375.61
917.115	338.99
917.287	387.24
917.459	379.68
917.632	340.93
917.804	286.1
917.976	370.77
918.148	391.89
918.32	372.51
918.493	424.63
918.665	446.91
918.837	431.8
919.009	513.17
919.181	452.92
919.353	430.44
919.525	447.3
919.697	444
919.869	457.95
920.041	498.45
920.213	535.65
920.385	473.45
920.557	470.93
920.729	480.04
920.901	456.4
921.073	435.67
921.244	442.26
921.416	448.27
921.588	444.39
921.76	431.99
921.932	515.88
922.103	472.68
922.275	456.79
922.447	455.63
922.619	394.4
922.79	431.02
922.962	417.46
923.134	425.99
923.305	378.9
923.477	360.69
923.648	368.06
923.82	398.67
923.991	346.55
924.163	374.64
924.335	378.9
924.506	367.47
924.677	415.33
924.849	351.01
925.02	365.15
925.192	404.48
925.363	410.49
925.535	401.19
925.706	369.02
925.877	417.27
926.049	352.94
926.22	398.09
926.391	388.59
926.562	382.2
926.734	345.39
926.905	400.02
927.076	343.06
927.247	351.97
927.419	313.61
927.59	286.29
927.761	311.29
927.932	281.64
928.103	323.11
928.274	254.52
928.445	241.73
928.616	278.93
928.787	252.58
928.958	259.56
929.129	245.8
929.3	249.48
929.471	207.05
929.642	198.91
929.813	148.54
929.984	247.54
930.155	145.25
930.326	214.41
930.496	162.3
930.667	137.3
930.838	158.81
931.009	127.03
931.18	127.81
931.35	136.91
931.521	141.76
931.692	87.7
931.863	54.18
932.033	117.15
932.204	116.18
932.374	110.76
932.545	56.9
932.716	132.85
932.886	118.31
933.057	47.6
933.227	45.85
933.398	128.58
933.568	52.83
933.739	13.69
933.909	23.77
934.08	103.78
934.25	4.97
934.421	8.65
934.591	56.7
934.761	25.12
934.932	-24.28
935.102	38.88
935.272	30.93
935.443	35.78
935.613	19.5
935.783	39.65
935.953	1.29
936.123	144.08
936.294	5.94
936.464	27.45
936.634	18.73
936.804	0.71
936.974	21.05
937.144	31.52
937.314	34.62
937.484	14.27
937.655	40.04
937.825	66
937.995	23.77
938.165	82.08
938.334	63.68
938.504	29.77
938.674	67.36
938.844	51.08
939.014	91.38
939.184	86.35
939.354	146.41
939.524	116.38
939.694	85.96
939.863	53.99
940.033	125.48
940.203	100.49
940.373	107.85
940.542	121.03
940.712	97.39
940.882	108.05
941.051	112.89
941.221	105.92
941.391	124.32
941.56	78.6
941.73	62.52
941.899	187.29
942.069	92.93
942.238	102.43
942.408	64.65
942.577	100.88
942.747	89.83
942.916	22.8
943.086	72.78
943.255	116.38
943.425	99.91
943.594	46.24
943.763	19.89
943.933	24.15
944.102	-12.46
944.271	45.08
944.441	57.67
944.61	55.93
944.779	37.13
944.948	124.71
945.117	36.36
945.287	66.39
945.456	17.76
945.625	36.55
945.794	65.81
945.963	27.06
946.132	74.92
946.301	62.13
946.47	89.64
946.639	-19.44
946.808	36.94
946.977	76.85
947.146	96.42
947.315	63.68
947.484	89.83
947.653	81.89
947.822	52.83
947.991	39.07
948.16	123.35
948.329	89.25
948.498	69.1
948.666	75.11
948.835	86.54
949.004	18.73
949.173	18.92
949.341	79.95
949.51	87.32
949.679	103.01
949.847	82.47
950.016	107.85
950.185	121.8
950.353	41.98
950.522	49.53
950.69	93.32
950.859	57.67
951.028	107.66
951.196	80.34
951.365	54.38
951.533	71.23
951.701	79.37
951.87	78.21
952.038	32.1
952.207	81.5
952.375	115.22
952.543	49.15
952.712	51.08
952.88	33.26
953.048	122.77
953.217	85.18
953.385	60
953.553	106.3
953.721	44.11
953.89	47.79
954.058	14.85
954.226	41.2
954.394	74.53
954.562	5.94
954.73	70.46
954.898	48.95
955.067	100.49
955.235	34.03
955.403	93.9
955.571	126.84
955.739	73.17
955.907	55.54
956.075	38.1
956.243	16.21
956.41	84.6
956.578	28.03
956.746	22.41
956.914	49.92
957.082	103.01
957.25	71.82
957.418	48.37
957.585	74.53
957.753	101.46
957.921	45.08
958.089	59.22
958.256	91.77
958.424	47.02
958.592	78.6
958.759	54.57
958.927	85.57
959.095	20.09
959.262	51.08
959.43	78.21
959.597	46.43
959.765	35.2
959.932	47.98
960.1	89.45
960.267	57.28
960.435	82.47
960.602	74.92
960.77	66.78
960.937	30.35
961.104	43.33
961.272	22.6
961.439	50.89
961.606	78.02
961.774	97.78
961.941	34.03
962.108	78.98
962.275	66.97
962.443	85.96
962.61	79.57
962.777	149.51
962.944	103.01
963.111	100.68
963.278	83.25
963.446	80.92
963.613	72.78
963.78	111.92
963.947	98.36
964.114	89.83
964.281	148.54
964.448	105.53
964.615	41.98
964.782	81.12
964.949	110.76
965.116	94.48
965.282	86.93
965.449	73.56
965.616	57.48
965.783	97.78
965.95	86.93
966.117	60
966.283	90.42
966.45	92.93
966.617	102.23
966.784	105.53
966.95	115.8
967.117	104.95
967.284	71.62
967.45	78.6
967.617	133.23
967.784	90.22
967.95	169.08
968.117	85.77
968.283	164.43
968.45	185.16
968.616	109.4
968.783	145.44
968.949	139.05
969.116	143.31
969.282	95.07
969.449	104.95
969.615	111.34
969.781	52.83
969.948	73.17
970.114	49.34
970.28	154.55
970.447	124.32
970.613	146.02
970.779	133.23
970.945	134.59
971.112	116.18
971.278	117.73
971.444	92.16
971.61	137.3
971.776	103.2
971.942	136.91
972.108	139.63
972.275	86.73
972.441	115.02
972.607	175.47
972.773	62.52
972.939	121.61
973.105	108.43
973.271	81.5
973.437	87.51
973.602	50.31
973.768	130.52
973.934	84.22
974.1	134.01
974.266	48.18
974.432	102.23
974.598	97.78
974.763	122
974.929	62.71
975.095	150.09
975.261	60.97
975.426	62.13
975.592	84.22
975.758	155.32
975.923	69.1
976.089	50.89
976.255	103.98
976.42	115.6
976.586	109.98
976.751	113.47
976.917	173.92
977.082	89.45
977.248	59.22
977.413	36.17
977.579	65.62
977.744	111.15
977.91	51.28
978.075	86.54
978.24	122.96
978.406	78.02
978.571	77.43
978.736	66.58
978.902	100.1
979.067	64.84
979.232	30.93
979.397	88.09
979.563	135.95
979.728	78.98
979.893	103.59
980.058	47.21
980.223	124.9
980.388	103.2
980.554	87.32
980.719	69.68
980.884	94.1
981.049	115.6
981.214	42.75
981.379	95.26
981.544	91.77
981.709	87.12
981.874	99.33
982.039	70.46
982.204	92.74
982.368	88.48
982.533	70.07
982.698	121.41
982.863	108.82
983.028	82.86
983.193	123.74
983.357	123.16
983.522	104.56
983.687	93.32
983.852	82.28
984.016	96.81
984.181	100.88
984.346	100.49
984.51	100.49
984.675	95.65
984.839	114.44
985.004	54.57
985.168	128
985.333	102.04
985.498	54.38
985.662	112.31
985.827	112.12
985.991	67.36
986.155	92.16
986.32	131.3
986.484	149.31
986.649	134.4
986.813	64.26
986.977	117.73
987.142	86.73
987.306	33.07
987.47	42.37
987.634	82.47
987.799	78.02
987.963	120.45
988.127	106.3
988.291	164.04
988.455	84.02
988.62	75.69
988.784	113.28
988.948	127.03
989.112	43.92
989.276	97.78
989.44	80.15
989.604	95.07
989.768	91.77
989.932	132.65
990.096	52.05
990.26	64.26
990.424	47.6
990.588	88.09
990.752	129.36
990.915	122.96
991.079	69.88
991.243	64.65
991.407	116.57
991.571	93.13
991.734	110.18
991.898	100.3
992.062	175.47
992.226	106.5
992.389	51.47
992.553	70.46
992.717	72.01
992.88	63.87
993.044	75.5
993.207	70.07
993.371	108.24
993.535	111.73
993.698	77.43
993.862	118.51
994.025	105.14
994.189	81.31
994.352	101.85
994.515	91.19
994.679	113.86
994.842	49.53
995.006	117.93
995.169	44.88
995.332	57.48
995.496	106.5
995.659	40.82
995.822	81.5
995.985	91.38
996.149	106.5
996.312	102.62
996.475	141.76
996.638	46.05
996.801	111.92
996.964	128.78
997.128	75.3
997.291	78.98
997.454	62.9
997.617	29
997.78	122.77
997.943	53.8
998.106	107.66
998.269	46.82
998.432	40.23
998.595	70.07
998.758	40.23
998.92	38.49
999.083	42.75
999.246	81.12
999.409	34.03
999.572	23.19
999.735	55.93
999.897	79.95
1000.06	46.82
1000.223	47.98
1000.386	91.38
1000.548	95.07
1000.711	64.45
1000.874	89.06
1001.036	18.54
1001.199	78.02
1001.361	53.41
1001.524	79.57
1001.687	85.18
1001.849	18.15
1002.012	78.21
1002.174	100.3
1002.337	84.8
1002.499	68.33
1002.661	100.1
1002.824	-1.42
1002.986	53.22
1003.149	50.12
1003.311	28.61
1003.473	109.02
1003.636	22.41
1003.798	76.85
1003.96	68.33
1004.123	47.02
1004.285	50.12
1004.447	57.28
1004.609	54.38
1004.771	104.56
1004.933	29
1005.096	28.03
1005.258	9.43
1005.42	39.07
1005.582	82.67
1005.744	39.46
1005.906	44.11
1006.068	62.9
1006.23	21.44
1006.392	-8.78
1006.554	35.2
1006.716	72.4
1006.878	67.94
1007.04	16.6
1007.202	24.93
1007.363	69.1
1007.525	46.05
1007.687	60.19
1007.849	76.27
1008.011	23.77
1008.172	38.3
1008.334	45.47
1008.496	60.77
1008.658	-9.75
1008.819	8.65
1008.981	15.05
1009.143	15.44
1009.304	19.89
1009.466	63.87
1009.627	96.42
1009.789	95.07
1009.95	58.64
1010.112	41.59
1010.273	59.8
1010.435	27.84
1010.596	29.38
1010.758	-1.81
1010.919	36.36
1011.081	37.52
1011.242	54.96
1011.403	63.68
1011.565	24.93
1011.726	65.23
1011.887	8.65
1012.049	22.6
1012.21	64.65
1012.371	94.1
1012.532	-19.05
1012.693	51.08
1012.855	32.1
1013.016	47.21
1013.177	87.51
1013.338	47.21
1013.499	59.03
1013.66	26.87
1013.821	67.36
1013.982	62.52
1014.143	40.04
1014.304	14.27
1014.465	51.86
1014.626	83.63
1014.787	12.53
1014.948	111.34
1015.109	-30.1
1015.27	99.33
1015.431	26.67
1015.592	27.84
1015.752	92.74
1015.913	54.77
1016.074	70.27
1016.235	45.27
1016.395	37.52
1016.556	34.81
1016.717	28.22
1016.877	68.52
1017.038	5.17
1017.199	72.59
1017.359	42.17
1017.52	40.23
1017.681	11.56
1017.841	25.12
1018.002	33.07
1018.162	29.19
1018.323	79.95
1018.483	38.88
1018.644	3.23
1018.804	22.8
1018.964	5.55
1019.125	21.83
1019.285	41.78
1019.446	4.78
1019.606	-0.65
1019.766	-12.27
1019.926	62.13
1020.087	13.3
1020.247	-13.63
1020.407	49.15
1020.567	44.69
1020.728	2.45
1020.888	-12.08
1021.048	20.28
1021.208	-13.05
1021.368	-15.56
1021.528	71.04
1021.688	62.52
1021.848	61.35
1022.008	34.42
1022.168	17.76
1022.328	45.85
1022.488	52.25
1022.648	-9.75
1022.808	30.55
1022.968	37.52
1023.128	12.72
1023.288	-2.58
1023.448	41.78
1023.608	42.95
1023.767	40.43
1023.927	29.58
1024.087	1.1
1024.247	-9.17
1024.406	20.47
1024.566	-2
1024.726	-9.36
1024.885	34.42
1025.045	54.57
1025.205	12.34
1025.364	22.6
1025.524	28.42
1025.683	26.09
1025.843	67.36
1026.003	13.89
1026.162	68.13
1026.321	56.7
1026.481	16.21
1026.64	24.74
1026.8	25.32
1026.959	17.76
1027.119	15.44
1027.278	23.19
1027.437	3.62
1027.597	44.11
1027.756	26.67
1027.915	47.4
1028.074	32.1
1028.234	16.4
1028.393	31.71
1028.552	14.27
1028.711	-40.36
1028.87	52.83
1029.03	9.43
1029.189	11.37
1029.348	-37.07
1029.507	4
1029.666	-23.12
1029.825	-18.47
1029.984	11.95
1030.143	18.15
1030.302	29
1030.461	-39.59
1030.62	3.04
1030.779	26.87
1030.938	19.89
1031.097	-2.78
1031.255	47.98
1031.414	67.36
1031.573	66.2
1031.732	-15.37
1031.891	-2.2
1032.049	60.38
1032.208	22.99
1032.367	2.45
1032.525	12.14
1032.684	13.69
1032.843	39.85
1033.001	-36.88
1033.16	151.45
1033.319	56.12
1033.477	28.03
1033.636	2.84
1033.794	-35.52
1033.953	40.62
1034.111	54.57
1034.27	-1.03
1034.428	20.67
1034.587	7.3
1034.745	17.18
1034.903	2.84
1035.062	48.37
1035.22	-20.41
1035.378	37.72
1035.537	-8.98
1035.695	38.68
1035.853	23.96
1036.011	19.5
1036.17	24.35
1036.328	-30.1
1036.486	1.68
1036.644	25.32
1036.802	-56.25
1036.96	-2.58
1037.119	21.44
1037.277	5.94
1037.435	-9.56
1037.593	-15.37
1037.751	5.36
1037.909	39.65
1038.067	39.65
