Data from gum_young_FLMT105791__97__17-39-55-042.txt Node

Date: Mon Mar 20 17:39:55 GMT 2023
User: antho
Spectrometer: FLMT10579
Trigger mode: 0
Integration Time (sec): 1.000000E-1
Scans to average: 10
Electric dark correction enabled: true
Nonlinearity correction enabled: false
Boxcar width: 0
XAxis mode: Wavelengths
Number of Pixels in Spectrum: 3648
>>>>>Begin Spectral Data<<<<<
345.248	-145.89
345.464	-145.89
345.681	-145.89
345.898	-144.15
346.114	-136.59
346.331	-56.96
346.548	29.26
346.764	-22.86
346.981	13.37
347.197	-1.94
347.414	17.44
347.631	-11.62
347.847	42.24
348.064	2.13
348.28	17.82
348.497	-37.97
348.713	9.11
348.93	14.92
349.146	23.83
349.363	0.97
349.579	6.78
349.796	-18.99
350.012	5.42
350.229	3.29
350.445	-11.62
350.661	-18.99
350.878	-10.46
351.094	27.32
351.311	35.07
351.527	20.73
351.743	18.41
351.96	36.62
352.176	49.99
352.392	24.99
352.609	16.66
352.825	16.08
353.041	18.6
353.257	-6.59
353.474	3.87
353.69	11.43
353.906	29.26
354.122	-2.71
354.339	48.05
354.555	-0.97
354.771	-14.14
354.987	43.79
355.203	41.85
355.42	-3.49
355.636	15.31
355.852	-2.52
356.068	0.58
356.284	-34.29
356.5	44.17
356.716	39.91
356.932	9.88
357.148	36.42
357.364	5.62
357.58	48.24
357.796	47.08
358.012	49.99
358.228	33.91
358.444	-53.28
358.66	40.88
358.876	10.07
359.092	-21.51
359.308	-6.59
359.524	40.88
359.74	3.49
359.956	-9.11
360.172	28.09
360.388	42.43
360.604	33.13
360.819	64.13
361.035	32.16
361.251	25.77
361.467	-7.94
361.683	28.67
361.898	21.31
362.114	29.64
362.33	15.5
362.546	19.18
362.762	24.61
362.977	1.16
363.193	-3.49
363.409	34.68
363.624	-16.86
363.84	6.59
364.056	-22.28
364.271	23.83
364.487	13.37
364.703	7.94
364.918	-6.2
365.134	-11.04
365.35	15.11
365.565	88.35
365.781	31.97
365.996	43.01
366.212	63.94
366.427	18.6
366.643	7.17
366.858	9.69
367.074	-19.37
367.289	54.44
367.505	101.91
367.72	-15.89
367.936	12.21
368.151	44.56
368.367	28.09
368.582	25.57
368.798	6.2
369.013	78.27
369.228	26.16
369.444	14.72
369.659	58.32
369.874	9.3
370.09	66.84
370.305	-33.32
370.52	0
370.736	28.67
370.951	4.26
371.166	75.37
371.381	55.61
371.597	14.72
371.812	-8.14
372.027	1.94
372.242	27.12
372.458	82.15
372.673	18.6
372.888	18.99
373.103	17.63
373.318	79.24
373.533	20.15
373.749	44.37
373.964	-30.42
374.179	57.35
374.394	-28.09
374.609	75.37
374.824	-4.84
375.039	65.29
375.254	-1.55
375.469	58.32
375.684	22.86
375.899	84.28
376.114	9.11
376.329	46.5
376.544	57.93
376.759	60.64
376.974	-5.42
377.189	14.34
377.404	20.92
377.619	78.27
377.834	-22.67
378.049	-28.09
378.264	-12.79
378.478	9.3
378.693	0.39
378.908	32.16
379.123	-12.01
379.338	62
379.553	43.98
379.767	14.72
379.982	42.04
380.197	50.37
380.412	20.73
380.626	47.86
380.841	108.5
381.056	24.02
381.271	59.29
381.485	-8.91
381.7	5.42
381.915	28.87
382.129	-3.29
382.344	32.94
382.559	5.62
382.773	69.56
382.988	-29.45
383.202	35.07
383.417	-0.58
383.632	115.09
383.846	25.96
384.061	25.57
384.275	20.34
384.49	18.21
384.704	63.36
384.919	24.99
385.133	27.32
385.348	25.57
385.562	-22.86
385.777	61.42
385.991	28.09
386.206	24.8
386.42	16.66
386.634	76.92
386.849	52.51
387.063	52.7
387.277	-10.46
387.492	14.72
387.706	19.76
387.92	-24.8
388.135	42.24
388.349	46.5
388.563	30.81
388.778	49.02
388.992	30.03
389.206	27.12
389.42	99
389.635	24.41
389.849	63.74
390.063	64.13
390.277	34.68
390.491	70.91
390.706	35.07
390.92	53.47
391.134	35.46
391.348	57.74
391.562	-4.46
391.776	8.14
391.99	-17.63
392.205	45.14
392.419	-7.75
392.633	6.59
392.847	79.05
393.061	35.65
393.275	84.28
393.489	21.89
393.703	29.26
393.917	67.23
394.131	27.12
394.345	28.48
394.559	88.93
394.773	33.71
394.986	42.04
395.2	38.56
395.414	80.21
395.628	30.81
395.842	24.99
396.056	18.41
396.27	-19.57
396.484	49.79
396.697	52.12
396.911	60.45
397.125	67.42
397.339	60.64
397.553	44.37
397.766	87.19
397.98	78.08
398.194	64.52
398.408	33.13
398.621	46.11
398.835	77.31
399.049	52.31
399.262	81.37
399.476	63.55
399.69	78.66
399.903	102.69
400.117	55.02
400.331	49.21
400.544	30.61
400.758	130.39
400.971	53.09
401.185	92.61
401.398	14.34
401.612	109.08
401.826	80.02
402.039	94.94
402.253	2.91
402.466	76.34
402.68	68.97
402.893	79.05
403.106	71.88
403.32	39.72
403.533	63.94
403.747	53.28
403.96	62.77
404.174	95.52
404.387	25.57
404.6	44.56
404.814	81.37
405.027	62.77
405.24	50.76
405.454	38.94
405.667	100.75
405.88	4.65
406.094	78.86
406.307	76.14
406.52	65.68
406.733	25.19
406.947	29.45
407.16	116.44
407.373	92.61
407.586	50.57
407.799	32.36
408.012	97.07
408.226	66.65
408.439	111.6
408.652	-5.23
408.865	73.82
409.078	80.79
409.291	62.77
409.504	38.56
409.717	91.45
409.93	78.66
410.143	72.27
410.357	40.69
410.57	25.19
410.783	51.54
410.996	67.62
411.209	70.33
411.421	111.02
411.634	51.34
411.847	52.7
412.06	73.24
412.273	90.87
412.486	94.55
412.699	132.33
412.912	75.37
413.125	93.58
413.338	93.77
413.55	87.38
413.763	64.13
413.976	100.94
414.189	46.89
414.402	59.48
414.615	104.62
414.827	51.54
415.04	93.39
415.253	89.51
415.466	124.19
415.678	150.93
415.891	89.32
416.104	62.58
416.316	78.66
416.529	72.66
416.742	107.14
416.954	90.29
417.167	70.14
417.38	81.96
417.592	123.61
417.805	52.51
418.017	47.47
418.23	89.9
418.442	57.35
418.655	76.92
418.868	121.48
419.08	140.27
419.293	130.39
419.505	107.72
419.718	89.7
419.93	112.76
420.142	84.67
420.355	115.67
420.567	135.43
420.78	80.21
420.992	77.69
421.205	149.57
421.417	55.02
421.629	71.3
421.842	64.52
422.054	61.61
422.266	119.35
422.479	143.95
422.691	71.3
422.903	121.67
423.115	90.48
423.328	81.76
423.54	96.68
423.752	103.85
423.964	53.86
424.177	90.87
424.389	89.32
424.601	190.84
424.813	85.06
425.025	111.21
425.238	126.13
425.45	63.74
425.662	70.52
425.874	374.9
426.086	106.56
426.298	138.92
426.51	99.39
426.722	89.51
426.934	80.21
427.146	126.71
427.358	50.37
427.57	140.66
427.782	98.42
427.994	97.26
428.206	73.82
428.418	68.01
428.63	144.15
428.842	138.72
429.054	110.24
429.266	117.6
429.478	84.47
429.69	109.08
429.902	54.64
430.114	113.54
430.325	106.56
430.537	67.42
430.749	80.41
430.961	28.87
431.173	108.89
431.384	113.15
431.596	38.94
431.808	75.37
432.02	127.1
432.231	129.42
432.443	132.91
432.655	91.45
432.867	59.48
433.078	120.32
433.29	156.16
433.502	143.18
433.713	137.56
433.925	110.63
434.136	141.05
434.348	87.19
434.56	88.15
434.771	181.73
434.983	65.29
435.194	110.82
435.406	100.17
435.617	159.07
435.829	157.71
436.04	149.77
436.252	142.99
436.463	163.33
436.675	132.91
436.886	120.7
437.098	138.92
437.309	193.75
437.521	115.67
437.732	129.23
437.943	136.4
438.155	121.29
438.366	88.15
438.578	183.09
438.789	138.92
439	142.21
439.211	129.81
439.423	117.8
439.634	132.72
439.845	157.9
440.057	144.34
440.268	186.77
440.479	124.39
440.69	157.71
440.902	116.44
441.113	146.67
441.324	148.22
441.535	158.68
441.746	203.43
441.957	110.44
442.168	129.42
442.38	149.96
442.591	180.18
442.802	121.09
443.013	139.89
443.224	148.6
443.435	137.75
443.646	130.39
443.857	123.03
444.068	127.68
444.279	132.33
444.49	219.13
444.701	152.09
444.912	233.47
445.123	191.23
445.334	164.88
445.545	142.02
445.756	179.6
445.967	130.39
446.178	172.82
446.388	216.03
446.599	210.6
446.81	163.72
447.021	162.36
447.232	187.55
447.443	202.47
447.653	140.27
447.864	197.43
448.075	180.18
448.286	195.1
448.496	185.22
448.707	191.42
448.918	169.34
449.129	258.85
449.339	158.1
449.55	210.41
449.761	170.5
449.971	201.5
450.182	206.15
450.393	221.26
450.603	168.56
450.814	223.78
451.024	206.15
451.235	228.62
451.446	214.87
451.656	240.83
451.867	161.39
452.077	228.62
452.288	256.13
452.498	243.15
452.709	193.94
452.919	229.98
453.13	195.1
453.34	249.55
453.55	168.75
453.761	218.16
453.971	206.92
454.182	239.86
454.392	230.56
454.602	283.65
454.813	229.4
455.023	241.02
455.233	163.91
455.444	209.83
455.654	156.16
455.864	214.67
456.075	213.9
456.285	205.57
456.495	214.48
456.705	216.42
456.916	249.35
457.126	281.71
457.336	208.67
457.546	158.68
457.756	166.62
457.967	252.45
458.177	205.76
458.387	222.23
458.597	202.66
458.807	197.04
459.017	208.08
459.227	214.28
459.437	186.77
459.647	232.5
459.857	242.96
460.068	195.88
460.278	258.85
460.488	235.98
460.698	278.8
460.908	235.02
461.117	194.33
461.327	194.33
461.537	230.56
461.747	236.95
461.957	214.28
462.167	292.56
462.377	243.73
462.587	237.53
462.797	242.38
463.007	233.08
463.216	254
463.426	263.69
463.636	274.15
463.846	187.55
464.056	195.88
464.265	280.16
464.475	223.97
464.685	226.1
464.895	235.98
465.104	244.9
465.314	273.96
465.524	235.02
465.733	238.5
465.943	325.88
466.153	301.66
466.362	291.01
466.572	261.37
466.782	243.73
466.991	257.49
467.201	280.16
467.41	194.33
467.62	254
467.829	261.37
468.039	247.61
468.249	243.35
468.458	244.32
468.668	294.5
468.877	282.68
469.086	306.51
469.296	299.53
469.505	246.83
469.715	310
469.924	276.86
470.134	308.25
470.343	297.79
470.552	267.76
470.762	286.75
470.971	241.99
471.18	260.98
471.39	249.74
471.599	250.52
471.808	302.05
472.018	263.69
472.227	302.25
472.436	304.38
472.645	283.84
472.855	254.78
473.064	318.52
473.273	306.51
473.482	304.38
473.691	338.09
473.901	320.46
474.11	295.46
474.319	349.13
474.528	290.04
474.737	366.76
474.946	322.2
475.155	301.66
475.364	365.21
475.573	294.88
475.783	332.28
475.992	343.9
476.201	342.93
476.41	326.66
476.619	300.31
476.828	335.76
477.037	323.95
477.245	310.77
477.454	384.98
477.663	331.5
477.872	328.01
478.081	398.34
478.29	324.53
478.499	407.64
478.708	344.48
478.917	388.85
479.125	385.75
479.334	379.74
479.543	348.55
479.752	361.14
479.961	383.62
480.169	403.19
480.378	340.61
480.587	481.66
480.796	393.31
481.004	388.08
481.213	376.06
481.422	384.59
481.63	397.96
481.839	398.73
482.048	456.47
482.256	418.69
482.465	391.95
482.674	451.24
482.882	423.92
483.091	467.12
483.299	433.99
483.508	444.07
483.716	412.49
483.925	430.51
484.134	379.74
484.342	416.75
484.551	461.51
484.759	452.98
484.967	464.99
485.176	484.37
485.384	471.39
485.593	464.8
485.801	438.06
486.01	443.49
486.218	428.76
486.426	361.34
486.635	406.68
486.843	386.91
487.051	425.28
487.26	406.29
487.468	437.67
487.676	435.93
487.885	433.03
488.093	436.71
488.301	462.28
488.509	462.67
488.717	475.46
488.926	423.92
489.134	455.31
489.342	463.44
489.55	439.61
489.758	472.36
489.967	482.62
490.175	554.31
490.383	447.75
490.591	552.18
490.799	477.39
491.007	539.39
491.215	506.46
491.423	502.97
491.631	506.46
491.839	518.47
492.047	555.67
492.255	474.1
492.463	462.67
492.671	508.2
492.879	521.18
493.087	523.7
493.295	539.78
493.503	537.45
493.711	544.04
493.919	592.48
494.127	583.76
494.334	579.3
494.542	517.11
494.75	513.04
494.958	557.02
495.166	576.01
495.374	579.11
495.581	595.77
495.789	587.05
495.997	626.19
496.205	579.3
496.412	548.3
496.62	561.48
496.828	580.27
497.035	574.65
497.243	614.76
497.451	601.59
497.658	618.25
497.866	564.39
498.074	626.19
498.281	564.77
498.489	672.3
498.696	575.24
498.904	606.43
499.112	576.4
499.319	667.07
499.527	634.13
499.734	629.68
499.942	584.92
500.149	576.2
500.357	605.46
500.564	596.94
500.771	586.09
500.979	581.63
501.186	607.2
501.394	615.15
501.601	633.55
501.808	655.45
502.016	625.8
502.223	615.92
502.43	623.87
502.638	634.91
502.845	617.28
503.052	696.52
503.26	590.74
503.467	720.55
503.674	664.75
503.881	643.24
504.089	769.37
504.296	681.02
504.503	618.05
504.71	678.31
504.917	667.46
505.125	702.91
505.332	685.67
505.539	691.1
505.746	750.77
505.953	735.08
506.16	746.31
506.367	758.91
506.574	813.93
506.781	767.43
506.988	702.33
507.195	758.52
507.402	764.72
507.609	775.18
507.816	753.68
508.023	769.76
508.23	757.55
508.437	726.75
508.644	800.18
508.851	837.76
509.058	833.89
509.265	808.7
509.472	815.29
509.679	917.2
509.885	818.39
510.092	854.43
510.299	818.58
510.506	825.94
510.713	832.92
510.92	841.64
511.126	900.34
511.333	909.64
511.54	910.61
511.746	921.46
511.953	933.86
512.16	953.24
512.367	898.02
512.573	919.14
512.78	900.73
512.987	888.33
513.193	931.73
513.4	855.2
513.606	904.61
513.813	958.27
514.02	936.57
514.226	1005.55
514.433	991.21
514.639	905.19
514.846	983.65
515.052	964.28
515.259	966.6
515.465	993.73
515.672	994.7
515.878	1033.84
516.085	997.8
516.291	1043.72
516.497	972.8
516.704	1022.21
516.91	972.03
517.117	959.05
517.323	935.22
517.529	947.42
517.736	930.57
517.942	972.42
518.148	977.65
518.354	1019.69
518.561	989.66
518.767	1011.55
518.973	1067.16
519.179	1095.06
519.386	1055.73
519.592	1072.39
519.798	1062.7
520.004	1163.26
520.21	1116.57
520.417	1164.61
520.623	1197.55
520.829	1219.25
521.035	1200.26
521.241	1241.92
521.447	1218.28
521.653	1308.38
521.859	1230.1
522.065	1263.81
522.271	1346.35
522.477	1315.54
522.683	1361.66
522.889	1307.79
523.095	1316.9
523.301	1328.52
523.507	1292.1
523.713	1302.37
523.919	1307.02
524.125	1385.49
524.331	1347.51
524.537	1450.2
524.742	1441.87
524.948	1454.65
525.154	1439.74
525.36	1557.34
525.566	1457.37
525.772	1518.78
525.977	1413
526.183	1494.95
526.389	1474.22
526.595	1425.4
526.8	1461.24
527.006	1353.71
527.212	1354.87
527.417	1338.21
527.623	1357.2
527.829	1405.64
528.034	1438.96
528.24	1421.91
528.446	1463.76
528.651	1531.77
528.857	1535.06
529.062	1559.86
529.268	1562.57
529.473	1571.87
529.679	1611.2
529.884	1667.78
530.09	1636.39
530.295	1621.66
530.501	1626.9
530.706	1620.11
530.912	1598.41
531.117	1670.49
531.323	1647.24
531.528	1670.49
531.733	1692.58
531.939	1683.47
532.144	1702.65
532.35	1697.61
532.555	1702.65
532.76	1671.65
532.966	1698.78
533.171	1695.87
533.376	1600.35
533.581	1631.74
533.787	1654.41
533.992	1687.15
534.197	1750.89
534.402	1668.36
534.607	1710.59
534.813	1805.34
535.018	1697.42
535.223	1734.43
535.428	1732.88
535.633	1816.38
535.838	1799.14
536.043	1803.4
536.249	1869.27
536.454	1821.03
536.659	1789.06
536.864	1815.02
537.069	1798.94
537.274	1830.52
537.479	1822.39
537.684	1802.43
537.889	1776.66
538.094	1860.36
538.299	1816.57
538.504	1858.81
538.708	1831.11
538.913	1859.59
539.118	1820.26
539.323	1866.75
539.528	1786.74
539.733	1826.07
539.938	1858.04
540.142	1856.49
540.347	1830.91
540.552	1795.26
540.757	1786.93
540.962	1803.98
541.166	1773.95
541.371	1761.16
541.576	1818.51
541.781	1752.64
541.985	1835.56
542.19	1821.22
542.395	1903.37
542.599	1934.37
542.804	1886.52
543.008	1901.44
543.213	1849.7
543.418	1817.35
543.622	1865.2
543.827	1835.17
544.031	1915.39
544.236	1907.25
544.44	1917.13
544.645	1987.07
544.849	1911.7
545.054	1936.7
545.258	1998.5
545.463	1960.14
545.667	1897.95
545.872	1955.1
546.076	1958.98
546.281	1949.1
546.485	1913.06
546.689	1984.75
546.894	2000.25
547.098	1988.62
547.302	1920.62
547.507	1964.21
547.711	1955.88
547.915	1977.58
548.119	1902.4
548.324	1933.79
548.528	2034.73
548.732	1944.25
548.936	1967.12
549.141	1996.76
549.345	1998.89
549.549	1977.19
549.753	1976.03
549.957	2081.62
550.161	2056.05
550.366	2033.57
550.57	1965.76
550.774	1976.22
550.978	1993.85
551.182	2016.71
551.386	1984.36
551.59	1963.43
551.794	1979.9
551.998	1987.07
552.202	1989.2
552.406	1971.96
552.61	2029.89
552.814	1979.32
553.018	2042.68
553.222	1974.28
553.426	1976.61
553.63	2118.04
553.833	2003.73
554.037	1946.38
554.241	2020.59
554.445	1984.94
554.649	2015.55
554.853	1992.3
555.056	2055.66
555.26	2070.77
555.464	2039.96
555.668	2048.1
555.871	2013.03
556.075	2054.3
556.279	2027.76
556.483	1975.83
556.686	1983.78
556.89	2014.78
557.094	2003.93
557.297	1949.68
557.501	1992.3
557.704	1896.59
557.908	2008.77
558.112	1944.25
558.315	2006.45
558.519	1946
558.722	1925.27
558.926	1939.22
559.129	1864.43
559.333	1821.61
559.536	1866.75
559.74	1859.39
559.943	1835.17
560.147	1874.89
560.35	1804.56
560.553	1880.12
560.757	1829.56
560.96	1939.41
561.164	1862.69
561.367	1952.78
561.57	1876.83
561.774	1848.74
561.977	1874.7
562.18	1826.26
562.384	1946.58
562.587	1868.11
562.79	1853.97
562.993	1854.55
563.197	1852.22
563.4	1928.75
563.603	1889.62
563.806	1927.59
564.009	1853.77
564.212	1870.44
564.416	1745.28
564.619	1804.17
564.822	1793.91
565.025	1828.2
565.228	1784.8
565.431	1828.59
565.634	1718.93
565.837	1775.89
566.04	1751.28
566.243	1727.06
566.446	1650.92
566.649	1752.83
566.852	1694.71
567.055	1705.36
567.258	1726.09
567.461	1790.81
567.664	1774.34
567.867	1663.51
568.07	1730.74
568.273	1711.76
568.475	1772.59
568.678	1664.48
568.881	1676.49
569.084	1646.08
569.287	1564.9
569.489	1632.9
569.692	1645.69
569.895	1660.99
570.098	1579.81
570.3	1588.34
570.503	1508.32
570.706	1553.08
570.909	1564.9
571.111	1468.22
571.314	1502.9
571.516	1511.03
571.719	1537.97
571.922	1510.84
572.124	1512
572.327	1557.53
572.529	1472.09
572.732	1466.47
572.935	1526.92
573.137	1588.73
573.34	1510.45
573.542	1521.5
573.745	1523.24
573.947	1470.35
574.15	1491.47
574.352	1456.2
574.554	1502.32
574.757	1475.58
574.959	1439.15
575.162	1455.04
575.364	1435.86
575.566	1514.13
575.769	1390.14
575.971	1444.97
576.173	1333.76
576.376	1423.07
576.578	1472.29
576.78	1479.65
576.982	1346.54
577.185	1404.86
577.387	1349.64
577.589	1351.97
577.791	1400.99
577.993	1417.45
578.196	1384.91
578.398	1384.32
578.6	1419.59
578.802	1320.97
579.004	1301.01
579.206	1351.97
579.408	1362.43
579.61	1329.11
579.812	1370.37
580.014	1314.96
580.216	1318.84
580.418	1347.9
580.62	1345.96
580.822	1293.84
581.024	1347.51
581.226	1376.96
581.428	1361.07
581.63	1405.05
581.832	1344.41
582.034	1404.28
582.236	1363.98
582.438	1374.83
582.64	1389.17
582.841	1429.08
583.043	1441.67
583.245	1390.72
583.447	1365.53
583.649	1360.3
583.85	1391.49
584.052	1423.46
584.254	1310.31
584.456	1393.62
584.657	1324.26
584.859	1361.66
585.061	1319.81
585.262	1312.64
585.464	1308.57
585.666	1360.49
585.867	1307.99
586.069	1376.96
586.27	1356.62
586.472	1332.01
586.674	1275.63
586.875	1313.02
587.077	1319.03
587.278	1320.19
587.48	1321.55
587.681	1383.74
587.883	1325.62
588.084	1256.26
588.285	1252.38
588.487	1242.5
588.688	1250.44
588.89	1215.38
589.091	1197.36
589.292	1188.25
589.494	1136.33
589.695	1128
589.896	1079.17
590.098	1045.46
590.299	1088.08
590.5	1114.24
590.702	1102.42
590.903	1120.63
591.104	1193.29
591.305	1182.44
591.507	1203.75
591.708	1218.28
591.909	1157.06
592.11	1224.48
592.311	1221.38
592.512	1185.93
592.714	1139.23
592.915	1125.87
593.116	1131.87
593.317	1186.7
593.518	1163.45
593.719	1170.81
593.92	1236.49
594.121	1208.98
594.322	1178.95
594.523	1165
594.724	1109.4
594.925	1129.35
595.126	1143.88
595.327	1170.23
595.528	1155.51
595.729	1139.43
595.929	1149.11
596.13	1139.81
596.331	1171.59
596.532	1146.79
596.733	1207.82
596.934	1183.99
597.135	1214.41
597.335	1188.25
597.536	1153.38
597.737	1155.7
597.938	1123.35
598.138	1189.41
598.339	1167.71
598.54	1168.88
598.74	1151.63
598.941	1151.83
599.142	1207.43
599.342	1195.42
599.543	1151.44
599.744	1150.86
599.944	1160.74
600.145	1123.54
600.345	1208.01
600.546	1213.83
600.746	1169.85
600.947	1231.07
601.147	1169.26
601.348	1179.15
601.548	1146.79
601.749	1174.3
601.949	1128.38
602.15	1124.7
602.35	1138.26
602.551	1174.11
602.751	1119.86
602.951	1104.17
603.152	1059.99
603.352	1162.1
603.552	1140.2
603.753	1183.41
603.953	1161.32
604.153	1143.11
604.354	1136.71
604.554	1144.27
604.754	1149.89
604.954	1108.23
605.155	1162.68
605.355	1141.75
605.555	1181.47
605.755	1206.66
605.955	1129.74
606.155	1152.8
606.356	1141.56
606.556	1143.88
606.756	1153.96
606.956	1117.15
607.156	1186.7
607.356	1087.7
607.556	1165
607.756	1139.62
607.956	1169.07
608.156	1089.05
608.356	1090.02
608.556	1154.15
608.756	1063.87
608.956	1082.66
609.156	1093.32
609.356	1085.57
609.556	1053.79
609.755	1099.32
609.955	1078.78
610.155	1074.33
610.355	1071.03
610.555	1035.39
610.755	1086.92
610.954	1044.88
611.154	1064.45
611.354	1093.9
611.554	1017.37
611.753	1045.46
611.953	1008.07
612.153	1096.8
612.352	1069.48
612.552	1048.95
612.752	976.1
612.951	1032.09
613.151	1054.76
613.351	998.19
613.55	1052.82
613.75	1047.79
613.949	1035.58
614.149	1054.18
614.348	989.08
614.548	977.26
614.747	969.9
614.947	998.19
615.146	925.92
615.346	1006.9
615.545	1026.47
615.745	1043.91
615.944	1004.77
616.144	970.67
616.343	1013.88
616.542	966.02
616.742	973
616.941	949.17
617.14	933.28
617.34	954.21
617.539	947.42
617.738	942.39
617.938	1008.07
618.137	957.11
618.336	909.64
618.535	958.47
618.734	966.99
618.934	967.38
619.133	985.2
619.332	983.65
619.531	922.43
619.73	946.84
619.929	965.25
620.128	985.59
620.328	975.13
620.527	957.89
620.726	916.62
620.925	950.52
621.124	938.12
621.323	945.87
621.522	901.51
621.721	928.24
621.92	873.61
622.119	961.95
622.318	888.91
622.517	917.2
622.715	881.36
622.914	845.9
623.113	915.84
623.312	834.66
623.511	912.16
623.71	912.94
623.909	869.54
624.107	945.1
624.306	858.11
624.505	876.9
624.704	888.14
624.902	906.74
625.101	895.89
625.3	867.41
625.499	850.94
625.697	858.88
625.896	841.06
626.095	857.72
626.293	825.17
626.492	854.43
626.69	888.33
626.889	838.73
627.088	899.37
627.286	824.59
627.485	843.77
627.683	828.27
627.882	831.56
628.08	790.68
628.279	825.75
628.477	880.39
628.676	824.39
628.874	883.49
629.073	788.55
629.271	749.61
629.469	809.48
629.668	772.86
629.866	778.86
630.065	773.25
630.263	823.43
630.461	803.47
630.66	788.94
630.858	812.77
631.056	848.61
631.254	862.56
631.453	781.58
631.651	824.01
631.849	817.61
632.047	813.54
632.245	787
632.444	797.85
632.642	824.78
632.84	868.38
633.038	803.28
633.236	795.91
633.434	787
633.632	778.48
633.83	787
634.028	808.51
634.227	803.47
634.425	889.49
634.623	817.42
634.821	824.78
635.019	800.37
635.216	806.57
635.414	813.93
635.612	817.23
635.81	776.35
636.008	879.42
636.206	811.03
636.404	823.23
636.602	798.43
636.8	768.4
636.997	849.39
637.195	829.63
637.393	800.56
637.591	880.58
637.789	793.59
637.986	787.39
638.184	804.05
638.382	857.33
638.58	817.81
638.777	889.88
638.975	816.45
639.173	813.35
639.37	820.33
639.568	804.83
639.765	819.94
639.963	796.49
640.161	821.49
640.358	838.93
640.556	772.28
640.753	742.83
640.951	728.1
641.148	779.64
641.346	748.06
641.543	747.28
641.741	756
641.938	734.5
642.136	764.53
642.333	738.95
642.531	778.28
642.728	785.65
642.925	706.98
643.123	716.67
643.32	729.46
643.517	714.73
643.715	747.28
643.912	702.53
644.109	705.24
644.306	717.06
644.504	706.4
644.701	714.93
644.898	743.02
645.095	681.6
645.293	754.06
645.49	728.1
645.687	709.31
645.884	719.38
646.081	638.59
646.278	666.88
646.475	680.63
646.672	661.07
646.87	659.9
647.067	690.71
647.264	670.56
647.461	626.19
647.658	600.23
647.855	664.94
648.052	637.43
648.249	569.42
648.446	629.48
648.642	594.8
648.839	590.15
649.036	565.35
649.233	537.07
649.43	563.03
649.627	554.5
649.824	576.01
650.021	591.12
650.217	586.09
650.414	583.57
650.611	612.43
650.808	613.02
651.004	594.03
651.201	619.99
651.398	642.85
651.595	598.49
651.791	570.39
651.988	610.5
652.185	593.84
652.381	573.49
652.578	556.64
652.775	610.5
652.971	563.42
653.168	607.79
653.364	602.75
653.561	571.55
653.757	560.7
653.954	594.8
654.15	545.4
654.347	643.82
654.543	591.51
654.74	553.54
654.936	530.87
655.133	599.26
655.329	568.07
655.525	564.77
655.722	578.14
655.918	529.12
656.115	569.23
656.311	477.59
656.507	473.13
656.704	450.27
656.9	483.98
657.096	470.03
657.292	471.97
657.489	535.13
657.685	540.55
657.881	497.54
658.077	521.37
658.273	527.96
658.47	585.7
658.666	518.66
658.862	539.2
659.058	544.82
659.254	573.69
659.45	497.54
659.646	557.41
659.842	523.7
660.038	574.85
660.234	491.92
660.43	549.27
660.626	564.77
660.822	566.71
661.018	545.2
661.214	532.61
661.41	472.36
661.606	549.47
661.802	581.63
661.998	566.52
662.194	492.51
662.39	546.56
662.586	548.5
662.781	534.94
662.977	553.34
663.173	517.69
663.369	527.96
663.564	487.86
663.76	541.14
663.956	510.91
664.152	544.43
664.347	459.76
664.543	509.94
664.739	479.33
664.934	428.18
665.13	448.72
665.326	541.52
665.521	497.93
665.717	453.56
665.912	461.89
666.108	408.23
666.304	476.23
666.499	480.49
666.695	422.56
666.89	475.65
667.086	498.9
667.281	485.34
667.477	511.3
667.672	497.54
667.867	490.18
668.063	493.47
668.258	400.67
668.454	435.93
668.649	523.89
668.844	484.95
669.04	471.97
669.235	476.81
669.43	425.47
669.626	439.61
669.821	448.72
670.016	409.39
670.211	458.99
670.407	415.59
670.602	435.74
670.797	442.52
670.992	481.66
671.187	421.01
671.382	479.52
671.578	425.08
671.773	440.97
671.968	396.6
672.163	420.24
672.358	461.12
672.553	406.48
672.748	428.57
672.943	508.59
673.138	448.14
673.333	447.94
673.528	402.8
673.723	443.49
673.918	427.6
674.113	386.91
674.308	499.67
674.503	473.91
674.698	458.6
674.892	439.81
675.087	445.42
675.282	441.94
675.477	424.69
675.672	436.13
675.867	404.16
676.061	400.09
676.256	405.32
676.451	409
676.646	420.82
676.84	388.08
677.035	394.28
677.23	383.81
677.424	441.16
677.619	467.32
677.814	479.33
678.008	439.42
678.203	418.3
678.397	390.21
678.592	426.63
678.787	467.12
678.981	413.46
679.176	438.45
679.37	435.74
679.565	409.19
679.759	405.71
679.954	433.99
680.148	453.17
680.342	458.6
680.537	436.51
680.731	451.62
680.926	474.1
681.12	454.72
681.314	389.82
681.509	404.74
681.703	442.91
681.897	482.62
682.092	429.54
682.286	430.7
682.48	502.39
682.674	433.99
682.869	428.18
683.063	415.01
683.257	480.49
683.451	412.1
683.645	449.88
683.839	443.29
684.034	421.01
684.228	460.54
684.422	388.08
684.616	410.16
684.81	441.16
685.004	464.22
685.198	471.97
685.392	483.98
685.586	453.17
685.78	482.82
685.974	484.17
686.168	453.56
686.362	501.03
686.556	442.32
686.75	398.73
686.944	427.21
687.138	436.51
687.331	359.01
687.525	389.04
687.719	333.44
687.913	356.11
688.107	406.48
688.301	375.48
688.494	420.24
688.688	376.84
688.882	372.38
689.076	354.56
689.269	397.76
689.463	500.84
689.657	416.36
689.85	431.09
690.044	432.06
690.238	448.52
690.431	438.26
690.625	456.47
690.818	482.04
691.012	504.71
691.205	515.56
691.399	478.94
691.593	549.27
691.786	572.14
691.98	557.6
692.173	610.11
692.366	580.08
692.56	582.21
692.753	669.01
692.947	579.11
693.14	630.84
693.333	644.21
693.527	602.94
693.72	691.48
693.914	652.73
694.107	640.92
694.3	658.93
694.493	683.15
694.687	691.1
694.88	668.43
695.073	765.5
695.266	735.66
695.46	724.03
695.653	784.29
695.846	811.41
696.039	727.71
696.232	786.23
696.425	861.4
696.618	837.18
696.812	863.14
697.005	911
697.198	960.79
697.391	902.28
697.584	965.25
697.777	996.05
697.97	979.78
698.163	980.36
698.356	982.3
698.549	1066.77
698.742	1027.44
698.935	996.05
699.127	1053.79
699.32	1035.58
699.513	1029.96
699.706	1042.94
699.899	1106.49
700.092	1021.24
700.285	1088.28
700.477	1036.55
700.67	1105.91
700.863	1116.95
701.056	1218.09
701.248	1207.43
701.441	1176.43
701.634	1156.67
701.826	1269.43
702.019	1171.4
702.212	1231.46
702.404	1198.52
702.597	1203.36
702.79	1256.84
702.982	1232.04
703.175	1287.45
703.367	1313.02
703.56	1368.63
703.752	1411.84
703.945	1375.99
704.137	1414.74
704.33	1407.19
704.522	1458.92
704.715	1446.32
704.907	1471.51
705.1	1487.98
705.292	1520.72
705.484	1492.63
705.677	1511.03
705.869	1537.77
706.061	1581.36
706.254	1608.49
706.446	1565.48
706.638	1577.1
706.831	1637.75
707.023	1610.23
707.215	1709.82
707.407	1682.11
707.599	1680.56
707.792	1738.11
707.984	1719.31
708.176	1775.69
708.368	1729.39
708.56	1761.55
708.752	1772.01
708.944	1774.92
709.136	1806.11
709.329	1789.06
709.521	1916.16
709.713	1857.45
709.905	1853.58
710.097	1934.37
710.289	1843.7
710.481	1905.12
710.672	1925.65
710.864	1924.3
711.056	1976.8
711.248	1974.09
711.44	2010.51
711.632	1936.89
711.824	2020.2
712.016	2055.66
712.207	2068.45
712.399	2022.53
712.591	2079.1
712.783	2059.15
712.975	2105.06
713.166	2082.59
713.358	2119.59
713.55	2156.79
713.741	2152.34
713.933	2176.36
714.125	2118.63
714.316	2131.61
714.508	2203.1
714.7	2199.42
714.891	2205.81
715.083	2217.24
715.274	2212.98
715.466	2219.57
715.657	2244.17
715.849	2156.41
716.04	2180.04
716.232	2138.78
716.423	2173.65
716.615	2093.25
716.806	2026.79
716.998	2008.77
717.189	1931.27
717.381	1854.55
717.572	1823.55
717.763	1840.79
717.955	1822
718.146	1800.11
718.337	1720.67
718.528	1711.76
718.72	1622.44
718.911	1673.78
719.102	1640.85
719.293	1681.53
719.485	1624.76
719.676	1633.87
719.867	1602.1
720.058	1613.91
720.249	1643.36
720.44	1637.16
720.632	1700.52
720.823	1753.02
721.014	1863.46
721.205	1905.12
721.396	1949.48
721.587	2044.23
721.778	2105.26
721.969	2138.39
722.16	2197.09
722.351	2204.65
722.542	2302.49
722.733	2335.24
722.924	2218.99
723.115	2297.84
723.305	2235.46
723.496	2270.14
723.687	2142.65
723.878	2168.81
724.069	2188.18
724.26	2175.01
724.45	2099.25
724.641	2088.4
724.832	2128.7
725.023	2080.07
725.213	2118.43
725.404	2068.06
725.595	2048.68
725.785	2050.81
725.976	2141.1
726.167	2126.76
726.357	2110.88
726.548	2237.97
726.739	2116.3
726.929	2237.2
727.12	2219.18
727.31	2243.21
727.501	2193.8
727.691	2191.67
727.882	2199.22
728.072	2245.92
728.263	2237.59
728.453	2288.74
728.644	2324.77
728.834	2269.36
729.024	2256.57
729.215	2260.45
729.405	2259.67
729.596	2368.95
729.786	2374.18
729.976	2408.47
730.167	2395.68
730.357	2343.37
730.547	2357.52
730.737	2400.53
730.928	2435.4
731.118	2491.59
731.308	2393.75
731.498	2453.42
731.688	2493.14
731.879	2525.3
732.069	2563.86
732.259	2623.14
732.449	2652.59
732.639	2751.6
732.829	2748.3
733.019	2798.1
733.209	2843.05
733.399	2886.06
733.589	2886.06
733.779	2958.13
733.969	2942.83
734.159	3039.89
734.349	3050.36
734.539	3076.12
734.729	3096.27
734.919	3119.91
735.109	3142.39
735.299	3074.38
735.488	3119.14
735.678	3100.54
735.868	3122.04
736.058	3131.15
736.248	3130.57
736.437	3113.71
736.627	3069.92
736.817	3195.47
737.007	3151.88
737.196	3214.07
737.386	3157.69
737.576	3139.67
737.765	3204.97
737.955	3176.29
738.144	3310.56
738.334	3267.74
738.524	3221.63
738.713	3273.55
738.903	3281.5
739.092	3244.68
739.282	3212.72
739.471	3241.2
739.661	3293.7
739.85	3327.03
740.04	3343.69
740.229	3313.85
740.419	3354.73
740.608	3417.89
740.797	3407.63
740.987	3383.8
741.176	3418.28
741.365	3391.74
741.555	3360.55
741.744	3430.68
741.933	3400.85
742.123	3477.38
742.312	3452.19
742.501	3519.22
742.69	3491.33
742.88	3461.29
743.069	3540.73
743.258	3477.18
743.447	3528.14
743.636	3575.41
743.825	3540.34
744.014	3541.7
744.204	3553.13
744.393	3484.35
744.582	3586.45
744.771	3562.82
744.96	3536.66
745.149	3617.65
745.338	3507.6
745.527	3598.66
745.716	3571.92
745.905	3583.16
746.094	3608.54
746.283	3606.6
746.471	3574.44
746.66	3637.99
746.849	3609.51
747.038	3610.09
747.227	3546.93
747.416	3596.53
747.604	3561.27
747.793	3582.97
747.982	3582.77
748.171	3631.21
748.359	3644.97
748.548	3624.82
748.737	3611.64
748.926	3597.11
749.114	3515.74
749.303	3610.48
749.491	3567.86
749.68	3527.75
749.869	3609.51
750.057	3569.21
750.246	3574.06
750.434	3517.09
750.623	3583.35
750.811	3510.31
751	3549.26
751.188	3535.11
751.377	3495.97
751.565	3522.52
751.754	3543.25
751.942	3517.67
752.131	3541.89
752.319	3516.71
752.507	3504.89
752.696	3541.12
752.884	3507.79
753.072	3515.54
753.261	3547.71
753.449	3482.03
753.637	3482.61
753.825	3608.35
754.014	3482.99
754.202	3496.17
754.39	3548.48
754.578	3574.83
754.766	3495.39
754.955	3429.52
755.143	3550.22
755.331	3457.03
755.519	3480.09
755.707	3451.03
755.895	3468.08
756.083	3462.65
756.271	3429.71
756.459	3419.83
756.647	3449.86
756.835	3394.84
757.023	3378.56
757.211	3403.56
757.399	3360.74
757.587	3405.11
757.775	3344.85
757.963	3376.82
758.151	3355.51
758.339	3321.21
758.526	3309.78
758.714	3343.3
758.902	3238.68
759.09	3153.43
759.278	2946.7
759.465	2758.57
759.653	2387.93
759.841	2160.67
760.028	1819.87
760.216	1588.34
760.404	1463.18
760.591	1207.63
760.779	1005.55
760.967	859.85
761.154	694.58
761.342	685.67
761.529	743.21
761.717	790.29
761.905	755.81
762.092	833.69
762.28	774.99
762.467	762.2
762.655	683.15
762.842	731.4
763.029	726.94
763.217	736.05
763.404	755.81
763.592	771.11
763.779	704.27
763.966	774.41
764.154	783.71
764.341	841.83
764.528	834.28
764.716	935.02
764.903	971.45
765.09	1015.62
765.277	1090.02
765.465	1241.34
765.652	1280.67
765.839	1382.97
766.026	1500.38
766.213	1588.15
766.4	1654.8
766.588	1859.78
766.775	1875.28
766.962	1973.7
767.149	2078.13
767.336	2231.39
767.523	2227.71
767.71	2316.05
767.897	2462.91
768.084	2543.51
768.271	2555.33
768.458	2624.89
768.645	2692.89
768.832	2721.95
769.019	2713.43
769.206	2750.44
769.392	2827.16
769.579	2945.54
769.766	2883.35
769.953	2883.35
770.14	2914.15
770.327	2899.43
770.513	2924.23
770.7	3057.91
770.887	2982.54
771.073	3025.94
771.26	3043.19
771.447	2984.09
771.634	2988.94
771.82	3091.43
772.007	2931.2
772.193	3017.03
772.38	3056.75
772.567	2990.29
772.753	3018
772.94	3093.37
773.126	3057.91
773.313	3054.81
773.499	3040.09
773.686	3068.57
773.872	2990.29
774.059	3032.92
774.245	2960.46
774.432	3019.55
774.618	2947.09
774.804	3008.12
774.991	2916.48
775.177	3008.7
775.363	2979.44
775.55	2996.88
775.736	2945.93
775.922	2978.48
776.109	2971.11
776.295	2933.14
776.481	2998.24
776.667	2945.93
776.853	2956.39
777.04	2926.94
777.226	2974.99
777.412	3005.41
777.598	2949.41
777.784	2918.8
777.97	2915.7
778.156	2929.65
778.342	2921.71
778.528	2912.99
778.715	2851.77
778.901	2898.85
779.087	2883.35
779.272	2850.41
779.458	2824.83
779.644	2870.75
779.83	2848.08
780.016	2944.76
780.202	2865.33
780.388	2804.3
780.574	2779.89
780.76	2819.41
780.946	2860.1
781.131	2812.43
781.317	2794.22
781.503	2776.2
781.689	2808.56
781.874	2848.08
782.06	2762.64
782.246	2801.58
782.432	2740.55
782.617	2783.37
782.803	2830.65
782.989	2734.55
783.174	2750.63
783.36	2743.27
783.545	2721.37
783.731	2729.7
783.916	2636.9
784.102	2732.42
784.288	2656.27
784.473	2703.16
784.659	2702.97
784.844	2705.29
785.029	2662.47
785.215	2652.4
785.4	2623.34
785.586	2727.77
785.771	2620.63
785.956	2689.99
786.142	2662.86
786.327	2638.06
786.512	2601.44
786.698	2622.37
786.883	2555.14
787.068	2587.49
787.254	2598.73
787.439	2556.49
787.624	2579.55
787.809	2552.04
787.994	2557.27
788.18	2603.77
788.365	2511.93
788.55	2491.59
788.735	2545.45
788.92	2487.52
789.105	2497.01
789.29	2497.98
789.475	2433.27
789.66	2453.42
789.845	2436.95
790.03	2403.24
790.215	2470.08
790.4	2480.74
790.585	2488.68
790.77	2461.95
790.955	2346.28
791.14	2440.83
791.325	2486.94
791.51	2358.1
791.695	2390.26
791.879	2380.18
792.064	2379.6
792.249	2432.11
792.434	2407.7
792.618	2384.45
792.803	2451.48
792.988	2430.37
793.173	2393.17
793.357	2446.06
793.542	2408.67
793.727	2415.06
793.911	2418.16
794.096	2434.43
794.281	2426.1
794.465	2529.95
794.65	2429.01
794.834	2479.19
795.019	2471.83
795.203	2487.13
795.388	2490.23
795.572	2496.05
795.757	2484.03
795.941	2434.82
796.126	2443.35
796.31	2342.79
796.494	2443.54
796.679	2401.11
796.863	2379.22
797.048	2461.95
797.232	2454.58
797.416	2419.9
797.601	2427.65
797.785	2499.53
797.969	2498.18
798.153	2413.12
798.338	2433.27
798.522	2512.71
798.706	2473.38
798.89	2527.63
799.074	2588.85
799.258	2529.56
799.443	2489.07
799.627	2507.28
799.811	2531.89
799.995	2484.61
800.179	2445.09
800.363	2463.88
800.547	2498.76
800.731	2479.19
800.915	2392.39
801.099	2409.25
801.283	2464.46
801.467	2459.04
801.651	2433.27
801.835	2493.14
802.019	2459.04
802.202	2486.75
802.386	2431.14
802.57	2414.28
802.754	2398.78
802.938	2397.62
803.121	2383.28
803.305	2443.93
803.489	2415.06
803.673	2448
803.856	2426.1
804.04	2456.13
804.224	2438.31
804.407	2404.6
804.591	2414.67
804.775	2418.74
804.958	2415.45
805.142	2557.46
805.326	2421.45
805.509	2472.6
805.693	2476.48
805.876	2507.48
806.06	2498.95
806.243	2477.64
806.427	2505.15
806.61	2547.97
806.794	2471.05
806.977	2503.8
807.16	2478.41
807.344	2491.4
807.527	2486.55
807.71	2454
807.894	2478.03
808.077	2454.78
808.26	2436.18
808.444	2437.15
808.627	2458.65
808.81	2439.47
808.993	2355.58
809.177	2355
809.36	2357.13
809.543	2382.12
809.726	2313.73
809.909	2334.65
810.092	2300.17
810.276	2296.29
810.459	2299.78
810.642	2313.54
810.825	2261.81
811.008	2269.36
811.191	2191.86
811.374	2188.37
811.557	2218.21
811.74	2278.47
811.923	2146.53
812.106	2150.59
812.289	2099.44
812.472	2105.84
812.654	2128.12
812.837	2090.34
813.02	2008.19
813.203	1982.62
813.386	1892.72
813.569	1883.8
813.751	1829.94
813.934	1877.41
814.117	1829.94
814.3	1801.46
814.482	1731.71
814.665	1742.37
814.848	1698.39
815.03	1647.05
815.213	1599.58
815.396	1636.97
815.578	1601.51
815.761	1535.83
815.943	1648.79
816.126	1511.81
816.309	1503.87
816.491	1458.53
816.674	1395.76
816.856	1474.61
817.039	1447.29
817.221	1549.01
817.403	1460.85
817.586	1491.47
817.768	1501.15
817.951	1420.36
818.133	1405.83
818.315	1409.9
818.498	1455.04
818.68	1517.43
818.862	1505.42
819.045	1538.55
819.227	1518.78
819.409	1509.1
819.591	1490.88
819.774	1464.92
819.956	1463.76
820.138	1557.15
820.32	1588.15
820.502	1584.85
820.684	1636.2
820.866	1679.21
821.048	1699.94
821.231	1745.47
821.413	1693.93
821.595	1702.26
821.777	1710.59
821.959	1718.73
822.141	1762.32
822.323	1642.01
822.505	1572.26
822.686	1510.45
822.868	1475
823.05	1369.6
823.232	1300.63
823.414	1247.54
823.596	1315.16
823.778	1297.33
823.96	1369.02
824.141	1344.61
824.323	1378.71
824.505	1471.12
824.687	1509.29
824.868	1536.8
825.05	1642.59
825.232	1661.96
825.413	1725.13
825.595	1669.71
825.777	1611.2
825.958	1701.49
826.14	1659.25
826.321	1669.33
826.503	1648.4
826.685	1674.36
826.866	1677.08
827.048	1720.09
827.229	1626.9
827.411	1610.43
827.592	1548.62
827.773	1573.03
827.955	1532.35
828.136	1510.07
828.318	1498.05
828.499	1505.61
828.68	1470.93
828.862	1494.18
829.043	1532.35
829.224	1453.88
829.406	1450.78
829.587	1444.58
829.768	1464.73
829.949	1485.27
830.131	1493.79
830.312	1536.03
830.493	1506.58
830.674	1486.82
830.855	1447.68
831.036	1485.65
831.218	1564.9
831.399	1558.12
831.58	1520.33
831.761	1529.83
831.942	1536.22
832.123	1476.94
832.304	1450.97
832.485	1479.84
832.666	1492.63
832.847	1528.28
833.028	1474.8
833.209	1511.23
833.389	1515.88
833.57	1435.86
833.751	1486.04
833.932	1534.87
834.113	1495.73
834.294	1513.94
834.475	1516.65
834.655	1526.34
834.836	1541.07
835.017	1536.8
835.198	1518.4
835.378	1495.34
835.559	1595.51
835.74	1519.56
835.92	1490.88
836.101	1509.68
836.281	1524.6
836.462	1545.52
836.643	1581.17
836.823	1578.85
837.004	1555.4
837.184	1639.49
837.365	1590.66
837.545	1582.33
837.726	1558.89
837.906	1592.6
838.087	1580.4
838.267	1610.81
838.448	1563.15
838.628	1601.9
838.808	1604.61
838.989	1614.69
839.169	1555.6
839.349	1613.91
839.53	1616.43
839.71	1620.11
839.89	1581.56
840.07	1610.62
840.251	1580.98
840.431	1639.1
840.611	1574.58
840.791	1561.22
840.971	1606.36
841.151	1575.36
841.332	1564.51
841.512	1609.46
841.692	1491.08
841.872	1582.91
842.052	1529.83
842.232	1592.6
842.412	1513.55
842.592	1586.21
842.772	1603.84
842.952	1580.59
843.132	1560.63
843.312	1558.12
843.492	1543.2
843.672	1559.08
843.851	1455.62
844.031	1511.62
844.211	1554.24
844.391	1491.27
844.571	1541.45
844.751	1570.13
844.93	1534.67
845.11	1516.65
845.29	1539.32
845.47	1594.15
845.649	1551.72
845.829	1591.25
846.009	1539.32
846.188	1575.94
846.368	1520.92
846.547	1524.98
846.727	1593.38
846.907	1477.9
847.086	1527.12
847.266	1539.52
847.445	1523.43
847.625	1509.68
847.804	1492.43
847.984	1505.22
848.163	1498.25
848.343	1489.92
848.522	1523.63
848.701	1529.44
848.881	1456.2
849.06	1499.22
849.239	1484.69
849.419	1488.95
849.598	1438.96
849.777	1429.85
849.957	1373.86
850.136	1352.55
850.315	1338.21
850.494	1362.04
850.674	1368.24
850.853	1403.89
851.032	1372.7
851.211	1454.65
851.39	1418.04
851.569	1331.04
851.748	1360.3
851.927	1392.27
852.107	1382
852.286	1352.16
852.465	1318.06
852.644	1418.04
852.823	1387.62
853.002	1387.23
853.181	1404.09
853.359	1388.2
853.538	1315.74
853.717	1406.8
853.896	1304.69
854.075	1224.48
854.254	1183.21
854.433	1163.45
854.611	1192.13
854.79	1135.55
854.969	1204.53
855.148	1217.51
855.327	1215.76
855.505	1228.55
855.684	1261.1
855.863	1249.48
856.041	1233.98
856.22	1300.82
856.399	1221.19
856.577	1389.94
856.756	1321.94
856.934	1409.9
857.113	1419.39
857.291	1314.19
857.47	1313.02
857.648	1330.66
857.827	1329.69
858.005	1359.52
858.184	1279.89
858.362	1365.72
858.541	1320.39
858.719	1312.83
858.898	1313.99
859.076	1280.48
859.254	1402.73
859.433	1294.62
859.611	1302.95
859.789	1290.74
859.967	1353.52
860.146	1314.57
860.324	1269.04
860.502	1271.56
860.68	1265.75
860.859	1296.56
861.037	1271.76
861.215	1284.93
861.393	1285.32
861.571	1248.89
861.749	1211.31
861.927	1285.71
862.105	1271.76
862.283	1257.03
862.461	1252.38
862.639	1255.09
862.817	1260.33
862.995	1280.67
863.173	1224.09
863.351	1229.91
863.529	1245.02
863.707	1277.18
863.885	1262.07
864.063	1187.28
864.241	1233.78
864.418	1269.24
864.596	1237.27
864.774	1171.4
864.952	1194.84
865.129	1233.98
865.307	1168.3
865.485	1146.6
865.663	1217.9
865.84	1136.13
866.018	1130.32
866.196	1062.51
866.373	1048.95
866.551	1043.52
866.728	996.05
866.906	1034.22
867.084	1056.7
867.261	1075.88
867.439	1082.66
867.616	1128
867.794	1098.16
867.971	1108.23
868.149	1111.72
868.326	1182.05
868.503	1151.63
868.681	1140.01
868.858	1127.22
869.035	1120.83
869.213	1153.96
869.39	1134.78
869.567	1155.7
869.745	1096.61
869.922	1139.62
870.099	1152.41
870.276	1159.77
870.454	1140.4
870.631	1148.73
870.808	1150.86
870.985	1139.23
871.162	1193.48
871.339	1123.35
871.517	1091.57
871.694	1080.53
871.871	1103.97
872.048	1089.25
872.225	1078.2
872.402	1138.85
872.579	1075.3
872.756	1119.67
872.933	1036.74
873.11	1078.4
873.287	1108.04
873.463	1042.36
873.64	1053.6
873.817	1090.99
873.994	1107.27
874.171	1021.82
874.348	1090.02
874.524	1006.13
874.701	1088.47
874.878	988.11
875.055	1049.92
875.231	1036.94
875.408	1075.3
875.585	1003.42
875.762	1032.67
875.938	1052.82
876.115	1017.56
876.291	1025.31
876.468	1010.2
876.645	961.76
876.821	1027.44
876.998	1025.31
877.174	1017.17
877.351	1004.97
877.527	980.36
877.704	1017.56
877.88	1039.84
878.057	1005.16
878.233	1029.77
878.409	985.4
878.586	1029.57
878.762	1002.45
878.938	977.26
879.115	926.5
879.291	984.24
879.467	936.96
879.644	966.41
879.82	975.71
879.996	929.79
880.172	920.3
880.349	959.05
880.525	964.86
880.701	920.11
880.877	908.67
881.053	962.54
881.229	932.7
881.405	987.72
881.581	914.1
881.757	953.24
881.933	956.34
882.109	982.49
882.285	941.81
882.461	929.99
882.637	932.51
882.813	927.27
882.989	938.9
883.165	955.56
883.341	929.21
883.517	965.64
883.693	967.96
883.869	974.74
884.044	885.42
884.22	946.65
884.396	984.04
884.572	980.55
884.747	970.29
884.923	959.05
885.099	944.91
885.275	977.26
885.45	928.82
885.626	948.97
885.801	913.71
885.977	925.92
886.153	883.68
886.328	926.89
886.504	885.42
886.679	953.82
886.855	928.44
887.03	963.89
887.206	938.51
887.381	948.97
887.557	930.37
887.732	943.36
887.908	933.47
888.083	957.11
888.258	940.06
888.434	911.19
888.609	902.47
888.784	967.38
888.96	912.94
889.135	914.49
889.31	904.02
889.485	930.18
889.661	917.2
889.836	969.7
890.011	951.88
890.186	909.84
890.361	908.87
890.537	947.42
890.712	931.54
890.887	933.67
891.062	922.43
891.237	959.82
891.412	884.07
891.587	929.79
891.762	943.55
891.937	961.76
892.112	863.14
892.287	912.36
892.462	890.46
892.637	828.27
892.812	849.97
892.987	828.46
893.161	845.32
893.336	844.16
893.511	825.75
893.686	829.04
893.861	838.54
894.035	824.2
894.21	833.5
894.385	776.73
894.56	807.54
894.734	729.26
894.909	757.36
895.084	766.08
895.258	742.05
895.433	769.95
895.608	733.53
895.782	698.46
895.957	685.48
896.131	706.98
896.306	644.02
896.48	654.87
896.655	663.78
896.829	590.15
897.004	619.22
897.178	619.99
897.353	582.79
897.527	633.94
897.701	632.2
897.876	585.5
898.05	665.91
898.224	634.13
898.399	616.5
898.573	611.08
898.747	506.46
898.921	548.3
899.096	441.74
899.27	472.55
899.444	478.94
899.618	510.91
899.792	559.93
899.967	546.17
900.141	550.05
900.315	478.56
900.489	533.39
900.663	540.55
900.837	518.08
901.011	462.67
901.185	539
901.359	514.98
901.533	550.05
901.707	508.01
901.881	522.54
902.055	510.72
902.229	518.08
902.403	558.96
902.576	530.67
902.75	509.17
902.924	610.69
903.098	559.35
903.272	611.08
903.446	666.3
903.619	615.15
903.793	640.33
903.967	618.83
904.14	693.62
904.314	695.94
904.488	651.96
904.661	714.93
904.835	654.28
905.009	698.27
905.182	726.16
905.356	684.9
905.529	680.44
905.703	626.77
905.876	614.76
906.05	634.33
906.223	612.24
906.397	548.5
906.57	578.53
906.744	524.09
906.917	487.47
907.09	519.63
907.264	528.74
907.437	507.23
907.61	481.85
907.784	485.34
907.957	483.4
908.13	481.07
908.304	461.31
908.477	435.54
908.65	481.85
908.823	413.26
908.996	500.26
909.17	431.67
909.343	464.22
909.516	458.99
909.689	475.07
909.862	432.06
910.035	445.04
910.208	409.19
910.381	417.72
910.554	464.8
910.727	444.26
910.9	448.72
911.073	432.44
911.246	520.79
911.419	491.92
911.592	486.69
911.765	452.01
911.938	447.17
912.11	473.52
912.283	462.47
912.456	512.66
912.629	465.77
912.802	431.28
912.974	398.15
913.147	379.94
913.32	323.36
913.493	351.84
913.665	385.94
913.838	391.37
914.01	371.22
914.183	373.93
914.356	404.54
914.528	455.89
914.701	461.51
914.873	413.65
915.046	367.93
915.218	360.18
915.391	308.06
915.563	326.46
915.736	359.79
915.908	362.31
916.081	415.39
916.253	396.02
916.425	397.57
916.598	395.05
916.77	383.04
916.942	350.88
917.115	302.05
917.287	371.03
917.459	337.7
917.632	309.41
917.804	296.43
917.976	379.74
918.148	375.87
918.32	374.9
918.493	408.03
918.665	447.75
918.837	395.24
919.009	428.38
919.181	454.34
919.353	379.36
919.525	406.87
919.697	406.09
919.869	415.59
920.041	454.34
920.213	506.46
920.385	469.45
920.557	428.38
920.729	449.3
920.901	456.86
921.073	437.87
921.244	418.49
921.416	444.84
921.588	451.62
921.76	413.65
921.932	512.07
922.103	441.55
922.275	434.77
922.447	455.5
922.619	351.65
922.79	431.09
922.962	409.58
923.134	423.92
923.305	355.53
923.477	387.69
923.648	364.44
923.82	369.09
923.991	295.66
924.163	353.39
924.335	330.53
924.506	349.33
924.677	414.43
924.849	334.99
925.02	362.89
925.192	385.94
925.363	350.49
925.535	381.1
925.706	342.74
925.877	381.68
926.049	339.64
926.22	336.35
926.391	375.87
926.562	377.61
926.734	332.66
926.905	368.7
927.076	304.57
927.247	336.15
927.419	288.49
927.59	268.15
927.761	298.18
927.932	275.31
928.103	300.5
928.274	254.78
928.445	236.57
928.616	239.67
928.787	246.45
928.958	273.38
929.129	277.83
929.3	229.4
929.471	210.99
929.642	160.62
929.813	143.76
929.984	215.64
930.155	106.17
930.326	201.11
930.496	160.62
930.667	101.33
930.838	162.94
931.009	123.61
931.18	144.54
931.35	139.5
931.521	123.22
931.692	88.74
931.863	64.52
932.033	118.57
932.204	129.04
932.374	125.16
932.545	44.37
932.716	112.37
932.886	125.35
933.057	32.94
933.227	38.75
933.398	137.75
933.568	45.34
933.739	17.82
933.909	35.46
934.08	89.51
934.25	12.01
934.421	25.38
934.591	51.73
934.761	31.19
934.932	-4.84
935.102	40.11
935.272	43.4
935.443	43.4
935.613	23.06
935.783	51.15
935.953	6.2
936.123	151.7
936.294	16.08
936.464	30.22
936.634	22.67
936.804	-1.36
936.974	29.06
937.144	72.85
937.314	29.45
937.484	23.25
937.655	19.76
937.825	52.7
937.995	10.46
938.165	63.55
938.334	49.02
938.504	70.72
938.674	29.06
938.844	41.46
939.014	106.75
939.184	86.99
939.354	115.86
939.524	85.64
939.694	84.09
939.863	72.85
940.033	111.4
940.203	99.59
940.373	92.61
940.542	116.25
940.712	69.36
940.882	98.62
941.051	97.07
941.221	103.85
941.391	124
941.56	51.54
941.73	62.77
941.899	157.32
942.069	60.64
942.238	73.04
942.408	71.69
942.577	85.06
942.747	72.07
942.916	12.21
943.086	24.41
943.255	107.92
943.425	105.98
943.594	53.09
943.763	11.04
943.933	-2.32
944.102	-4.26
944.271	54.06
944.441	70.52
944.61	57.93
944.779	69.56
944.948	129.81
945.117	38.17
945.287	56.38
945.456	29.45
945.625	37.59
945.794	52.12
945.963	41.66
946.132	53.47
946.301	41.07
946.47	71.88
946.639	21.51
946.808	25.77
946.977	52.51
947.146	106.95
947.315	59.67
947.484	76.72
947.653	33.52
947.822	32.16
947.991	17.82
948.16	114.31
948.329	77.69
948.498	44.56
948.666	63.55
948.835	72.07
949.004	38.36
949.173	16.66
949.341	76.14
949.51	77.89
949.679	124.97
949.847	52.7
950.016	151.7
950.185	114.31
950.353	40.88
950.522	61.03
950.69	80.21
950.859	49.02
951.028	80.02
951.196	64.52
951.365	36.62
951.533	66.26
951.701	77.89
951.87	84.67
952.038	3.29
952.207	55.8
952.375	94.55
952.543	21.89
952.712	64.32
952.88	37.2
953.048	92.42
953.217	66.65
953.385	25.38
953.553	81.18
953.721	-9.11
953.89	44.76
954.058	25.77
954.226	49.21
954.394	81.76
954.562	28.29
954.73	50.76
954.898	40.11
955.067	94.55
955.235	45.53
955.403	77.69
955.571	128.26
955.739	85.44
955.907	30.61
956.075	23.83
956.243	48.05
956.41	64.32
956.578	28.67
956.746	27.9
956.914	36.81
957.082	99.39
957.25	63.94
957.418	55.22
957.585	62.39
957.753	98.04
957.921	16.47
958.089	55.61
958.256	109.47
958.424	80.6
958.592	66.46
958.759	50.76
958.927	89.32
959.095	32.16
959.262	33.71
959.43	63.55
959.597	26.16
959.765	52.12
959.932	21.51
960.1	79.44
960.267	36.23
960.435	49.99
960.602	90.29
960.77	45.53
960.937	19.37
961.104	82.73
961.272	17.24
961.439	39.91
961.606	61.61
961.774	77.31
961.941	27.32
962.108	71.88
962.275	60.84
962.443	99
962.61	83.12
962.777	113.73
962.944	69.36
963.111	96.68
963.278	86.99
963.446	83.51
963.613	78.47
963.78	82.34
963.947	86.02
964.114	69.94
964.281	166.62
964.448	66.26
964.615	44.17
964.782	81.96
964.949	96.1
965.116	85.25
965.282	103.27
965.449	82.15
965.616	51.73
965.783	116.05
965.95	70.33
966.117	40.69
966.283	54.25
966.45	71.11
966.617	84.28
966.784	117.8
966.95	107.34
967.117	126.13
967.284	69.36
967.45	43.79
967.617	130.78
967.784	88.35
967.95	141.24
968.117	75.95
968.283	135.82
968.45	169.53
968.616	117.8
968.783	142.21
968.949	108.89
969.116	146.86
969.282	100.94
969.449	113.54
969.615	122.25
969.781	76.14
969.948	69.17
970.114	58.51
970.28	161
970.447	94.55
970.613	127.29
970.779	80.6
970.945	117.8
971.112	111.6
971.278	90.29
971.444	87.96
971.61	137.37
971.776	81.96
971.942	117.99
972.108	112.37
972.275	97.65
972.441	117.6
972.607	163.72
972.773	96.49
972.939	114.12
973.105	111.6
973.271	47.86
973.437	91.84
973.602	60.26
973.768	101.33
973.934	78.27
974.1	89.7
974.266	33.52
974.432	109.08
974.598	89.12
974.763	116.44
974.929	63.55
975.095	125.55
975.261	58.71
975.426	62.19
975.592	49.41
975.758	145.89
975.923	36.23
976.089	77.5
976.255	88.54
976.42	96.87
976.586	104.24
976.751	90.48
976.917	160.62
977.082	89.32
977.248	21.89
977.413	33.71
977.579	96.1
977.744	93.39
977.91	50.76
978.075	63.36
978.24	100.17
978.406	62.39
978.571	70.72
978.736	36.81
978.902	111.6
979.067	56.38
979.232	33.13
979.397	74.79
979.563	124
979.728	45.53
979.893	82.92
980.058	60.26
980.223	110.05
980.388	92.61
980.554	67.62
980.719	54.06
980.884	80.99
981.049	97.07
981.214	59.09
981.379	84.28
981.544	62
981.709	99
981.874	85.44
982.039	83.31
982.204	76.72
982.368	97.07
982.533	62
982.698	104.62
982.863	121.48
983.028	61.22
983.193	90.87
983.357	68.59
983.522	70.14
983.687	79.24
983.852	68.78
984.016	61.22
984.181	82.15
984.346	96.68
984.51	105.4
984.675	69.36
984.839	140.66
985.004	95.9
985.168	128.45
985.333	88.74
985.498	64.71
985.662	92.22
985.827	90.09
985.991	85.64
986.155	74.4
986.32	107.72
986.484	121.67
986.649	104.24
986.813	22.67
986.977	86.22
987.142	101.91
987.306	70.91
987.47	84.67
987.634	63.55
987.799	105.59
987.963	94.16
988.127	108.11
988.291	137.95
988.455	108.69
988.62	107.92
988.784	93.97
988.948	104.62
989.112	57.93
989.276	91.25
989.44	80.41
989.604	40.3
989.768	62
989.932	143.18
990.096	44.56
990.26	51.92
990.424	20.34
990.588	78.47
990.752	135.24
990.915	116.05
991.079	76.72
991.243	70.14
991.407	103.27
991.571	62.97
991.734	106.17
991.898	67.62
992.062	152.48
992.226	67.62
992.389	40.49
992.553	21.89
992.717	53.86
992.88	64.32
993.044	80.79
993.207	74.59
993.371	97.45
993.535	103.46
993.698	69.75
993.862	108.5
994.025	105.4
994.189	90.09
994.352	96.87
994.515	55.8
994.679	116.83
994.842	59.29
995.006	93.77
995.169	36.62
995.332	47.27
995.496	89.51
995.659	26.35
995.822	46.69
995.985	64.32
996.149	106.56
996.312	86.61
996.475	123.8
996.638	60.06
996.801	109.08
996.964	148.6
997.128	42.43
997.291	56.77
997.454	81.57
997.617	38.36
997.78	84.67
997.943	47.66
998.106	99.59
998.269	38.36
998.432	85.64
998.595	65.1
998.758	11.24
998.92	47.66
999.083	31.77
999.246	58.32
999.409	30.81
999.572	12.79
999.735	21.31
999.897	91.45
1000.06	54.44
1000.223	51.54
1000.386	84.47
1000.548	82.54
1000.711	86.22
1000.874	77.11
1001.036	6.97
1001.199	71.88
1001.361	30.22
1001.524	66.84
1001.687	89.12
1001.849	20.34
1002.012	92.61
1002.174	72.46
1002.337	84.47
1002.499	53.47
1002.661	93.77
1002.824	26.93
1002.986	44.76
1003.149	42.62
1003.311	39.72
1003.473	103.65
1003.636	40.11
1003.798	85.64
1003.96	73.24
1004.123	29.26
1004.285	24.22
1004.447	58.51
1004.609	45.34
1004.771	95.32
1004.933	-24.41
1005.096	26.93
1005.258	33.52
1005.42	27.32
1005.582	88.93
1005.744	51.15
1005.906	9.11
1006.068	50.76
1006.23	6.97
1006.392	-26.93
1006.554	39.33
1006.716	82.15
1006.878	59.29
1007.04	-1.55
1007.202	30.81
1007.363	52.51
1007.525	44.37
1007.687	55.41
1007.849	95.52
1008.011	2.71
1008.172	-7.17
1008.334	35.46
1008.496	62.39
1008.658	-3.68
1008.819	38.17
1008.981	-22.28
1009.143	10.46
1009.304	39.72
1009.466	51.54
1009.627	73.43
1009.789	110.05
1009.95	33.32
1010.112	21.89
1010.273	42.62
1010.435	52.89
1010.596	29.26
1010.758	28.87
1010.919	41.66
1011.081	-4.07
1011.242	33.91
1011.403	54.25
1011.565	12.98
1011.726	64.52
1011.887	27.9
1012.049	26.74
1012.21	65.1
1012.371	91.45
1012.532	-41.66
1012.693	30.03
1012.855	3.1
1013.016	36.62
1013.177	59.09
1013.338	0.58
1013.499	87.19
1013.66	54.64
1013.821	59.67
1013.982	46.31
1014.143	42.62
1014.304	23.44
1014.465	46.89
1014.626	77.89
1014.787	11.62
1014.948	119.93
1015.109	-15.11
1015.27	45.72
1015.431	24.8
1015.592	-14.53
1015.752	52.51
1015.913	29.06
1016.074	35.46
1016.235	30.42
1016.395	29.84
1016.556	32.55
1016.717	35.65
1016.877	70.33
1017.038	0.19
1017.199	57.93
1017.359	33.52
1017.52	57.16
1017.681	-0.77
1017.841	40.11
1018.002	8.72
1018.162	15.89
1018.323	61.42
1018.483	25.38
1018.644	13.17
1018.804	-37.59
1018.964	-4.07
1019.125	20.73
1019.285	30.42
1019.446	-10.46
1019.606	2.32
1019.766	-33.71
1019.926	67.04
1020.087	24.61
1020.247	11.82
1020.407	40.49
1020.567	62.58
1020.728	18.02
1020.888	-1.16
1021.048	17.05
1021.208	-13.37
1021.368	-2.71
1021.528	72.07
1021.688	36.42
1021.848	51.15
1022.008	31.77
1022.168	18.21
1022.328	52.51
1022.488	34.49
1022.648	13.37
1022.808	50.96
1022.968	52.89
1023.128	-2.52
1023.288	10.27
1023.448	18.99
1023.608	46.31
1023.767	23.06
1023.927	-13.37
1024.087	-14.72
1024.247	-10.07
1024.406	-12.21
1024.566	-0.58
1024.726	-0.39
1024.885	8.91
1025.045	37.2
1025.205	17.63
1025.364	0
1025.524	22.09
1025.683	9.69
1025.843	22.28
1026.003	-2.32
1026.162	81.18
1026.321	46.11
1026.481	10.66
1026.64	11.24
1026.8	18.99
1026.959	19.57
1027.119	40.3
1027.278	-13.56
1027.437	-4.46
1027.597	13.37
1027.756	24.22
1027.915	27.51
1028.074	45.92
1028.234	1.16
1028.393	27.32
1028.552	4.84
1028.711	-52.51
1028.87	31.77
1029.03	-20.92
1029.189	-15.31
1029.348	-44.76
1029.507	-24.8
1029.666	18.79
1029.825	6.39
1029.984	-13.76
1030.143	36.62
1030.302	6.59
1030.461	-22.86
1030.62	1.55
1030.779	42.24
1030.938	0
1031.097	-28.09
1031.255	8.72
1031.414	55.61
1031.573	49.6
1031.732	-16.08
1031.891	9.49
1032.049	53.47
1032.208	37.01
1032.367	-6.78
1032.525	19.96
1032.684	13.56
1032.843	3.29
1033.001	-39.52
1033.16	134.07
1033.319	93.39
1033.477	40.11
1033.636	3.1
1033.794	-29.26
1033.953	52.89
1034.111	29.26
1034.27	-9.3
1034.428	27.51
1034.587	-26.16
1034.745	23.44
1034.903	2.91
1035.062	25.38
1035.22	-8.52
1035.378	15.5
1035.537	-1.16
1035.695	29.45
1035.853	16.27
1036.011	47.08
1036.17	28.87
1036.328	-32.55
1036.486	22.67
1036.644	40.69
1036.802	-55.22
1036.96	-8.72
1037.119	-6.97
1037.277	-2.13
1037.435	-15.89
1037.593	-16.08
1037.751	11.04
1037.909	34.29
1038.067	34.29
