Data from gum_young_FLMT105791__137__17-41-05-040.txt Node

Date: Mon Mar 20 17:41:05 GMT 2023
User: antho
Spectrometer: FLMT10579
Trigger mode: 0
Integration Time (sec): 1.000000E-1
Scans to average: 10
Electric dark correction enabled: true
Nonlinearity correction enabled: false
Boxcar width: 0
XAxis mode: Wavelengths
Number of Pixels in Spectrum: 3648
>>>>>Begin Spectral Data<<<<<
345.248	-144.1
345.464	-144.1
345.681	-144.1
345.898	-129.57
346.114	-148.56
346.331	-14.1
346.548	13.61
346.764	5.47
346.981	-6.15
347.197	-5.38
347.414	24.65
347.631	-31.53
347.847	54.88
348.064	-5.96
348.28	-3.25
348.497	-34.44
348.713	2.18
348.93	23.88
349.146	37.05
349.363	33.57
349.579	9.35
349.796	4.12
350.012	-5.76
350.229	53.52
350.445	44.03
350.661	-2.66
350.878	4.12
351.094	59.34
351.311	38.8
351.527	20.59
351.743	6.64
351.96	23.1
352.176	50.81
352.392	45.77
352.609	85.68
352.825	-3.25
353.041	1.4
353.257	1.99
353.474	6.05
353.69	32.4
353.906	28.34
354.122	-26.49
354.339	54.3
354.555	30.85
354.771	13.61
354.987	88.59
355.203	78.9
355.42	-4.8
355.636	12.06
355.852	-17.78
356.068	8.38
356.284	-24.36
356.5	87.43
356.716	6.25
356.932	26.98
357.148	47.9
357.364	47.32
357.58	43.45
357.796	69.02
358.012	56.43
358.228	25.82
358.444	-26.88
358.66	56.82
358.876	30.47
359.092	11.29
359.308	51.59
359.524	18.26
359.74	24.07
359.956	4.89
360.172	14.39
360.388	77.16
360.604	11.29
360.819	100.99
361.035	61.47
361.251	45
361.467	-15.45
361.683	53.91
361.898	26.59
362.114	32.79
362.33	32.6
362.546	29.5
362.762	17.87
362.977	21.75
363.193	-4.6
363.409	50.62
363.624	8.38
363.84	18.65
364.056	-11.96
364.271	47.71
364.487	49.45
364.703	16.71
364.918	9.93
365.134	42.09
365.35	25.24
365.565	119.78
365.781	39.57
365.996	58.37
366.212	72.51
366.427	32.99
366.643	29.89
366.858	26.4
367.074	-1.7
367.289	44.22
367.505	134.12
367.72	1.02
367.936	19.62
368.151	43.84
368.367	64.76
368.582	51
368.798	27.95
369.013	76.77
369.228	23.69
369.444	37.05
369.659	107.38
369.874	42.87
370.09	85.88
370.305	-7.7
370.52	10.51
370.736	76
370.951	29.69
371.166	86.27
371.381	70.57
371.597	47.13
371.812	-9.25
372.027	18.84
372.242	38.22
372.458	73.48
372.673	10.9
372.888	35.5
373.103	65.54
373.318	113.39
373.533	25.82
373.749	64.95
373.964	-14.29
374.179	85.68
374.394	12.64
374.609	62.44
374.824	6.05
375.039	74.64
375.254	28.72
375.469	86.46
375.684	54.69
375.899	92.66
376.114	51.78
376.329	51
376.544	76
376.759	79.48
376.974	25.04
377.189	38.8
377.404	39.19
377.619	52.17
377.834	-22.04
378.049	4.7
378.264	9.93
378.478	58.95
378.693	22.91
378.908	77.93
379.123	30.47
379.338	69.22
379.553	48.49
379.767	58.75
379.982	53.72
380.197	70.96
380.412	53.52
380.626	69.99
380.841	114.36
381.056	33.76
381.271	114.17
381.485	29.5
381.7	2.57
381.915	54.49
382.129	32.02
382.344	48.68
382.559	45.58
382.773	61.47
382.988	-31.53
383.202	33.18
383.417	4.89
383.632	128.7
383.846	34.92
384.061	75.61
384.275	23.49
384.49	74.25
384.704	73.87
384.919	63.4
385.133	51.2
385.348	60.69
385.562	25.43
385.777	90.53
385.991	37.05
386.206	23.1
386.42	31.82
386.634	80.45
386.849	52.75
387.063	77.74
387.277	6.05
387.492	59.14
387.706	12.25
387.92	40.93
388.135	83.55
388.349	63.21
388.563	46.16
388.778	48.87
388.992	73.28
389.206	84.13
389.42	124.82
389.635	42.87
389.849	91.88
390.063	74.64
390.277	36.67
390.491	87.23
390.706	76.97
390.92	73.48
391.134	82.97
391.348	94.79
391.562	15.94
391.776	51.2
391.99	37.05
392.205	77.55
392.419	40.54
392.633	45.58
392.847	131.22
393.061	38.8
393.275	97.7
393.489	34.54
393.703	62.24
393.917	84.72
394.131	35.5
394.345	72.9
394.559	72.32
394.773	44.22
394.986	71.93
395.2	50.62
395.414	85.49
395.628	60.69
395.842	82.78
396.056	51
396.27	24.07
396.484	70.38
396.697	67.28
396.911	113
397.125	70.96
397.339	69.6
397.553	68.63
397.766	132.18
397.98	93.82
398.194	97.7
398.408	65.15
398.621	118.23
398.835	105.83
399.049	81.42
399.262	138.19
399.476	103.12
399.69	108.93
399.903	174.61
400.117	76
400.331	115.72
400.544	81.23
400.758	207.16
400.971	120.95
401.185	121.92
401.398	63.02
401.612	148.85
401.826	102.35
402.039	119.98
402.253	94.21
402.466	137.03
402.68	107
402.893	122.3
403.106	104.48
403.32	107.58
403.533	116.88
403.747	118.82
403.96	129.08
404.174	164.54
404.387	97.89
404.6	116.88
404.814	123.85
405.027	83.75
405.24	118.04
405.454	118.62
405.667	137.22
405.88	75.42
406.094	109.13
406.307	131.22
406.52	110.48
406.733	82.39
406.947	78.13
407.16	153.11
407.373	162.8
407.586	84.91
407.799	75.03
408.012	140.71
408.226	127.34
408.439	160.66
408.652	94.6
408.865	138.97
409.078	173.45
409.291	150.78
409.504	99.83
409.717	157.76
409.93	151.75
410.143	139.93
410.357	68.44
410.57	80.45
410.783	117.07
410.996	131.41
411.209	109.32
411.421	166.86
411.634	136.25
411.847	106.8
412.06	137.22
412.273	112.42
412.486	133.35
412.699	202.51
412.912	136.83
413.125	162.21
413.338	149.04
413.55	183.53
413.763	153.3
413.976	169.19
414.189	122.3
414.402	156.98
414.615	186.43
414.827	153.5
415.04	217.43
415.253	144.78
415.466	165.31
415.678	221.31
415.891	167.45
416.104	144.2
416.316	159.31
416.529	153.5
416.742	171.71
416.954	165.51
417.167	145.36
417.38	143.81
417.592	196.7
417.805	134.12
418.017	152.14
418.23	174.42
418.442	145.17
418.655	148.65
418.868	162.21
419.08	206.97
419.293	193.02
419.505	177.91
419.718	189.34
419.93	205.42
420.142	155.82
420.355	196.7
420.567	204.65
420.78	199.61
420.992	166.86
421.205	235.84
421.417	135.87
421.629	165.31
421.842	148.27
422.054	125.02
422.266	208.13
422.479	188.56
422.691	164.35
422.903	198.83
423.115	165.12
423.328	164.54
423.54	172.48
423.752	192.25
423.964	163.96
424.177	183.72
424.389	159.31
424.601	250.18
424.813	195.93
425.025	201.74
425.238	186.24
425.45	182.36
425.662	152.14
425.874	456.52
426.086	181.01
426.298	221.11
426.51	187.4
426.722	162.21
426.934	167.83
427.146	226.54
427.358	166.28
427.57	217.63
427.782	180.62
427.994	188.76
428.206	151.75
428.418	167.25
428.63	220.92
428.842	214.14
429.054	199.03
429.266	212.4
429.478	179.85
429.69	206.58
429.902	153.3
430.114	237.39
430.325	208.33
430.537	169.77
430.749	160.86
430.961	142.45
431.173	153.5
431.384	178.3
431.596	115.91
431.808	154.85
432.02	220.15
432.231	218.98
432.443	252.69
432.655	236.61
432.867	194.38
433.078	229.06
433.29	281.18
433.502	260.64
433.713	266.84
433.925	225.76
434.136	257.34
434.348	179.85
434.56	182.95
434.771	291.06
434.983	167.45
435.194	186.43
435.406	212.01
435.617	265.68
435.829	300.94
436.04	265.68
436.252	260.44
436.463	293.38
436.675	285.83
436.886	269.16
437.098	262.77
437.309	278.66
437.521	264.71
437.732	273.81
437.943	261.41
438.155	237
438.366	208.13
438.578	293.19
438.789	234.48
439	258.89
439.211	236.42
439.423	256.76
439.634	290.48
439.845	262.58
440.057	280.4
440.268	298.03
440.479	220.15
440.69	284.86
440.902	264.71
441.113	247.27
441.324	265.68
441.535	278.27
441.746	326.9
441.957	260.83
442.168	270.13
442.38	288.73
442.591	308.11
442.802	288.73
443.013	285.63
443.224	316.83
443.435	275.94
443.646	295.13
443.857	295.32
444.068	287.57
444.279	277.88
444.49	377.47
444.701	312.18
444.912	377.08
445.123	342.59
445.334	322.83
445.545	318.76
445.756	307.91
445.967	253.86
446.178	325.35
446.388	325.54
446.599	346.08
446.81	324.96
447.021	304.23
447.232	331.94
447.443	359.06
447.653	290.09
447.864	359.26
448.075	317.21
448.286	361.58
448.496	313.14
448.707	367.2
448.918	327.87
449.129	402.85
449.339	296.48
449.55	389.29
449.761	333.87
449.971	397.23
450.182	338.33
450.393	381.73
450.603	326.51
450.814	378.44
451.024	334.84
451.235	394.71
451.446	423
451.656	439.66
451.867	373.21
452.077	385.41
452.288	423.58
452.498	419.32
452.709	355.96
452.919	346.08
453.13	374.56
453.34	388.51
453.55	322.25
453.761	377.47
453.971	398.01
454.182	356.93
454.392	387.74
454.602	445.09
454.813	396.07
455.023	407.31
455.233	352.67
455.444	372.04
455.654	335.42
455.864	379.6
456.075	380.37
456.285	356.54
456.495	387.93
456.705	422.22
456.916	432.49
457.126	478.41
457.336	413.31
457.546	352.86
457.756	381.73
457.967	467.17
458.177	394.52
458.387	411.57
458.597	392.97
458.807	398.39
459.017	367.78
459.227	376.69
459.437	388.51
459.647	443.34
459.857	447.22
460.068	371.46
460.278	451.09
460.488	416.99
460.698	489.84
460.908	412.34
461.117	394.91
461.327	401.3
461.537	445.09
461.747	447.22
461.957	435.79
462.167	518.52
462.377	439.85
462.587	466.4
462.797	472.4
463.007	433.07
463.216	459.62
463.426	486.94
463.636	484.22
463.846	420.67
464.056	408.47
464.265	462.52
464.475	419.9
464.685	451.67
464.895	472.99
465.104	430.75
465.314	477.44
465.524	447.02
465.733	411.76
465.943	524.33
466.153	515.03
466.362	487.32
466.572	495.07
466.782	483.64
466.991	480.35
467.201	531.11
467.41	426.49
467.62	489.45
467.829	473.18
468.039	498.75
468.249	478.41
468.458	467.75
468.668	520.84
468.877	504.76
469.086	532.66
469.296	529.37
469.505	481.12
469.715	573.73
469.924	504.95
470.134	550.87
470.343	561.33
470.552	506.7
470.762	491.39
470.971	469.5
471.18	508.05
471.39	492.36
471.599	505.92
471.808	560.17
472.018	511.93
472.227	552.23
472.436	588.27
472.645	524.33
472.855	507.28
473.064	590.4
473.273	574.12
473.482	584.2
473.691	602.6
473.901	583.42
474.11	558.23
474.319	650.85
474.528	575.28
474.737	616.75
474.946	602.41
475.155	575.87
475.364	655.69
475.573	624.88
475.783	589.82
475.992	634.38
476.201	616.36
476.41	603.38
476.619	563.85
476.828	593.3
477.037	569.28
477.245	625.27
477.454	630.7
477.663	620.43
477.872	646.39
478.081	692.89
478.29	605.31
478.499	752.37
478.708	675.65
478.917	726.99
479.125	660.53
479.334	675.26
479.543	699.67
479.752	701.03
479.961	717.69
480.169	712.07
480.378	656.66
480.587	840.33
480.796	693.47
481.004	729.12
481.213	749.27
481.422	714.2
481.63	741.91
481.839	786.66
482.048	809.14
482.256	774.07
482.465	773.1
482.674	793.25
482.882	780.27
483.091	841.69
483.299	779.3
483.508	798.48
483.716	798.48
483.925	778.72
484.134	761.86
484.342	770
484.551	831.61
484.759	817.08
484.967	818.05
485.176	811.46
485.384	823.28
485.593	824.44
485.801	805.84
486.01	787.82
486.218	734.93
486.426	680.1
486.635	722.53
486.843	725.24
487.051	737.64
487.26	711.29
487.468	788.02
487.676	824.06
487.885	788.02
488.093	848.86
488.301	835.1
488.509	882.76
488.717	870.36
488.926	865.71
489.134	823.86
489.342	852.92
489.55	834.52
489.758	854.28
489.967	842.27
490.175	972.66
490.383	888.57
490.591	939.34
490.799	867.84
491.007	969.56
491.215	909.89
491.423	935.27
491.631	927.32
491.839	941.47
492.047	944.18
492.255	878.3
492.463	855.83
492.671	897.29
492.879	963.75
493.087	879.27
493.295	962.58
493.503	1001.14
493.711	1001.53
493.919	1021.29
494.127	1022.26
494.334	989.32
494.542	969.56
494.75	1023.03
494.958	1012.57
495.166	1033.11
495.374	1045.12
495.581	1019.74
495.789	1024.39
495.997	1083.68
496.205	1017.8
496.412	1055.58
496.62	1039.11
496.828	1052.1
497.035	1054.23
497.243	1077.09
497.451	1070.31
497.658	1077.67
497.866	1073.8
498.074	1102.47
498.281	1045.9
498.489	1148.97
498.696	1087.36
498.904	1053.26
499.112	1053.65
499.319	1150.33
499.527	1067.01
499.734	1152.26
499.942	1072.44
500.149	1106.73
500.357	1131.14
500.564	1049.38
500.771	1118.94
500.979	1077.67
501.186	1054.23
501.394	1122.62
501.601	1091.62
501.808	1111.58
502.016	1096.08
502.223	1120.29
502.43	1105.57
502.638	1107.31
502.845	1119.71
503.052	1200.7
503.26	1154.2
503.467	1249.14
503.674	1181.71
503.881	1211.36
504.089	1255.14
504.296	1212.52
504.503	1145.68
504.71	1146.64
504.917	1130.76
505.125	1269.09
505.332	1212.52
505.539	1233.64
505.746	1322.18
505.953	1299.7
506.16	1297.19
506.367	1363.06
506.574	1352.4
506.781	1354.92
506.988	1295.05
507.195	1315.79
507.402	1299.32
507.609	1360.54
507.816	1317.34
508.023	1320.05
508.23	1286.72
508.437	1305.13
508.644	1325.67
508.851	1370.23
509.058	1400.07
509.265	1361.9
509.472	1415.37
509.679	1489.96
509.885	1409.17
510.092	1413.63
510.299	1444.05
510.506	1433.2
510.713	1451.02
510.92	1451.6
511.126	1471.56
511.333	1519.22
511.54	1519.03
511.746	1527.16
511.953	1593.43
512.16	1571.92
512.367	1530.07
512.573	1519.8
512.78	1557.39
512.987	1545.76
513.193	1546.93
513.4	1457.42
513.606	1585.48
513.813	1595.75
514.02	1586.45
514.226	1603.69
514.433	1641.67
514.639	1540.34
514.846	1619.78
515.052	1589.74
515.259	1646.51
515.465	1645.74
515.672	1672.28
515.878	1759.08
516.085	1674.22
516.291	1732.54
516.497	1662.79
516.704	1689.52
516.91	1639.54
517.117	1593.62
517.323	1491.9
517.529	1581.41
517.736	1578.89
517.942	1606.79
518.148	1640.7
518.354	1661.04
518.561	1681.19
518.767	1683.13
518.973	1733.31
519.179	1760.63
519.386	1712.77
519.592	1754.82
519.798	1753.27
520.004	1901.29
520.21	1883.08
520.417	1927.45
520.623	1938.68
520.829	2008.04
521.035	1960
521.241	1964.26
521.447	2009.4
521.653	2106.86
521.859	2026.45
522.065	2084.57
522.271	2156.65
522.477	2137.47
522.683	2201.99
522.889	2135.72
523.095	2076.05
523.301	2108.02
523.507	2083.22
523.713	2146.96
523.919	2102.98
524.125	2219.23
524.331	2217.87
524.537	2321.92
524.742	2279.87
524.948	2314.17
525.154	2339.74
525.36	2414.14
525.566	2317.85
525.772	2394.57
525.977	2319.2
526.183	2334.51
526.389	2371.9
526.595	2304.28
526.8	2288.2
527.006	2232.4
527.212	2180.29
527.417	2148.12
527.623	2169.63
527.829	2267.67
528.034	2300.6
528.24	2304.28
528.446	2356.21
528.651	2441.07
528.857	2468.97
529.062	2519.73
529.268	2515.27
529.473	2551.7
529.679	2575.14
529.884	2620.67
530.09	2567.59
530.295	2592.39
530.501	2591.03
530.706	2585.99
530.912	2563.71
531.117	2600.52
531.323	2641.6
531.528	2666.98
531.733	2686.35
531.939	2662.52
532.144	2688.68
532.35	2695.85
532.555	2671.05
532.76	2668.34
532.966	2654.39
533.171	2608.27
533.376	2568.94
533.581	2571.66
533.787	2587.74
533.992	2668.72
534.197	2697.98
534.402	2675.5
534.607	2653.42
534.813	2752.42
535.018	2683.84
535.223	2783.81
535.428	2741.77
535.633	2758.23
535.838	2858.98
536.043	2828.37
536.249	2909.36
536.454	2835.54
536.659	2857.24
536.864	2809
537.069	2823.53
537.274	2836.51
537.479	2821.2
537.684	2842.51
537.889	2788.07
538.094	2882.62
538.299	2848.71
538.504	2884.56
538.708	2883.59
538.913	2933.38
539.118	2917.49
539.323	2896.57
539.528	2844.26
539.733	2835.35
539.938	2852.78
540.142	2897.15
540.347	2861.5
540.552	2824.11
540.757	2789.43
540.962	2813.26
541.166	2767.53
541.371	2799.89
541.576	2814.23
541.781	2737.31
541.985	2907.81
542.19	2885.14
542.395	2981.24
542.599	2969.81
542.804	2926.99
543.008	2957.99
543.213	2927.57
543.418	2833.41
543.622	2971.16
543.827	2857.82
544.031	2993.64
544.236	2988.21
544.44	2957.6
544.645	3033.74
544.849	2953.92
545.054	3009.14
545.258	3089.35
545.463	3016.31
545.667	2958.76
545.872	3040.14
546.076	3011.66
546.281	3022.7
546.485	3020.18
546.689	3054.86
546.894	3005.07
547.098	3076.17
547.302	3007.97
547.507	3011.85
547.711	3075.01
547.915	3089.93
548.119	2985.11
548.324	3013.4
548.528	3056.99
548.732	3039.36
548.936	3077.92
549.141	3093.8
549.345	3053.5
549.549	3092.06
549.753	3104.65
549.957	3172.66
550.161	3133.91
550.366	3139.72
550.57	3073.85
550.774	3108.72
550.978	3094.97
551.182	3112.79
551.386	3098.07
551.59	3084.12
551.794	3051.76
551.998	3105.43
552.202	3075.79
552.406	3067.07
552.61	3143.98
552.814	3103.3
553.018	3155.22
553.222	3083.54
553.426	3074.43
553.63	3198.23
553.833	3125.58
554.037	3070.17
554.241	3130.42
554.445	3144.95
554.649	3118.02
554.853	3076.37
555.056	3162.97
555.26	3149.41
555.464	3140.3
555.668	3091.09
555.871	3129.07
556.075	3176.53
556.279	3109.3
556.483	3037.04
556.686	3053.5
556.89	3049.24
557.094	3106.98
557.297	3001.77
557.501	3072.88
557.704	2945.59
557.908	3073.65
558.112	2983.56
558.315	3106.2
558.519	2973.49
558.722	2962.25
558.926	2937.06
559.129	2867.12
559.333	2925.24
559.536	2896.18
559.74	2882.04
559.943	2880.49
560.147	2845.42
560.35	2843.87
560.553	2892.31
560.757	2841.74
560.96	2953.14
561.164	2923.69
561.367	2997.9
561.57	2913.62
561.774	2963.99
561.977	2885.14
562.18	2877.97
562.384	2926.02
562.587	2869.83
562.79	2846.97
562.993	2869.06
563.197	2869.25
563.4	2873.32
563.603	2924.86
563.806	2936.09
564.009	2835.73
564.212	2866.73
564.416	2762.5
564.619	2805.7
564.822	2781.1
565.025	2834.57
565.228	2771.41
565.431	2788.65
565.634	2682.87
565.837	2768.89
566.04	2709.6
566.243	2685.58
566.446	2593.36
566.649	2704.95
566.852	2632.88
567.055	2678.8
567.258	2679.38
567.461	2727.43
567.664	2708.25
567.867	2654.19
568.07	2650.7
568.273	2651.67
568.475	2671.63
568.678	2616.22
568.881	2568.94
569.084	2531.55
569.287	2442.62
569.489	2498.03
569.692	2552.86
569.895	2592
570.098	2455.99
570.3	2469.16
570.503	2382.17
570.706	2461.22
570.909	2420.53
571.111	2352.72
571.314	2324.05
571.516	2366.09
571.719	2349.62
571.922	2315.52
572.124	2355.43
572.327	2396.12
572.529	2310.1
572.732	2351.17
572.935	2404.65
573.137	2441.07
573.34	2361.05
573.542	2400.19
573.745	2368.22
573.947	2336.83
574.15	2302.35
574.352	2304.09
574.554	2402.51
574.757	2248.87
574.959	2266.89
575.162	2288.2
575.364	2235.5
575.566	2319.4
575.769	2245.39
575.971	2242.87
576.173	2102.79
576.376	2174.09
576.578	2249.84
576.78	2248.1
576.982	2159.36
577.185	2183
577.387	2157.81
577.589	2188.81
577.791	2177.38
577.993	2167.69
578.196	2164.79
578.398	2149.87
578.6	2183.58
578.802	2090.19
579.004	2082.44
579.206	2098.52
579.408	2137.66
579.61	2080.31
579.812	2157.23
580.014	2113.44
580.216	2080.89
580.418	2125.26
580.62	2115.96
580.822	2083.41
581.024	2132.62
581.226	2174.09
581.428	2153.16
581.63	2179.7
581.832	2121
582.034	2219.42
582.236	2128.56
582.438	2154.13
582.64	2196.95
582.841	2199.27
583.043	2272.9
583.245	2170.79
583.447	2197.34
583.649	2183.58
583.85	2184.35
584.052	2216.9
584.254	2136.31
584.456	2221.55
584.657	2125.07
584.859	2195.98
585.061	2135.92
585.262	2109.96
585.464	2102.01
585.666	2163.62
585.867	2085.35
586.069	2154.91
586.27	2091.55
586.472	2090.77
586.674	2076.05
586.875	2061.13
587.077	2071.01
587.278	2094.84
587.48	2061.52
587.681	2164.98
587.883	2049.31
588.084	1978.6
588.285	2022.19
588.487	1984.8
588.688	2010.18
588.89	1858.28
589.091	1879.98
589.292	1863.7
589.494	1783.49
589.695	1777.29
589.896	1728.66
590.098	1697.27
590.299	1786.01
590.5	1762.76
590.702	1792.4
590.903	1821.47
591.104	1889.86
591.305	1877.85
591.507	1913.69
591.708	1863.51
591.909	1814.88
592.11	1912.33
592.311	1886.76
592.512	1848.2
592.714	1844.52
592.915	1834.45
593.116	1807.32
593.317	1893.93
593.518	1860.41
593.719	1888.89
593.92	1909.81
594.121	1954.38
594.322	1890.25
594.523	1882.11
594.724	1808.1
594.925	1845.49
595.126	1832.51
595.327	1835.22
595.528	1870.29
595.729	1879.4
595.929	1857.5
596.13	1879.2
596.331	1868.16
596.532	1869.32
596.733	1953.6
596.934	1887.73
597.135	1871.45
597.335	1890.05
597.536	1857.7
597.737	1890.25
597.938	1831.54
598.138	1912.33
598.339	1856.73
598.54	1872.81
598.74	1844.91
598.941	1877.07
599.142	1882.88
599.342	1885.6
599.543	1798.22
599.744	1867.58
599.944	1879.98
600.145	1843.94
600.345	1851.11
600.546	1915.24
600.746	1883.47
600.947	1955.35
601.147	1854.4
601.348	1923.18
601.548	1851.5
601.749	1833.87
601.949	1799.19
602.15	1824.37
602.35	1829.6
602.551	1918.73
602.751	1801.51
602.951	1815.07
603.152	1757.14
603.352	1862.73
603.552	1831.15
603.753	1852.08
603.953	1877.07
604.153	1867.38
604.354	1856.92
604.554	1816.43
604.754	1856.53
604.954	1798.22
605.155	1867.58
605.355	1824.57
605.555	1882.3
605.755	1885.6
605.955	1828.83
606.155	1845.88
606.356	1824.18
606.556	1860.6
606.756	1831.93
606.956	1757.34
607.156	1847.82
607.356	1780.2
607.556	1845.1
607.756	1819.14
607.956	1866.22
608.156	1839.29
608.356	1761.4
608.556	1815.85
608.756	1773.61
608.956	1734.86
609.156	1801.7
609.356	1732.15
609.556	1741.25
609.755	1789.89
609.955	1723.04
610.155	1765.47
610.355	1754.82
610.555	1714.91
610.755	1727.11
610.954	1682.74
611.154	1720.33
611.354	1749.2
611.554	1705.99
611.753	1720.14
611.953	1648.84
612.153	1716.84
612.352	1740.48
612.552	1645.93
612.752	1633.53
612.951	1702.12
613.151	1681
613.351	1672.09
613.55	1655.81
613.75	1651.36
613.949	1658.52
614.149	1647.29
614.348	1614.74
614.548	1603.89
614.747	1574.44
614.947	1635.86
615.146	1561.84
615.346	1630.43
615.545	1628.11
615.745	1609.89
615.944	1638.18
616.144	1593.43
616.343	1600.21
616.542	1544.8
616.742	1588.39
616.941	1575.6
617.14	1494.03
617.34	1585.87
617.539	1574.83
617.738	1513.6
617.938	1570.18
618.137	1541.5
618.336	1559.13
618.535	1564.56
618.734	1566.3
618.934	1586.26
619.133	1550.61
619.332	1594.59
619.531	1522.9
619.73	1569.4
619.929	1594.78
620.128	1582.38
620.328	1598.66
620.527	1527.94
620.726	1535.88
620.925	1586.26
621.124	1566.49
621.323	1540.34
621.522	1531.23
621.721	1522.13
621.92	1495.2
622.119	1525.61
622.318	1467.49
622.517	1517.67
622.715	1517.86
622.914	1445.79
623.113	1505.66
623.312	1441.33
623.511	1526.97
623.71	1490.55
623.909	1457.8
624.107	1521.74
624.306	1430.29
624.505	1443.47
624.704	1442.3
624.902	1453.93
625.101	1485.12
625.3	1449.08
625.499	1389.99
625.697	1415.95
625.896	1385.15
626.095	1413.63
626.293	1373.33
626.492	1391.54
626.69	1418.08
626.889	1404.13
627.088	1432.03
627.286	1406.85
627.485	1366.55
627.683	1394.64
627.882	1384.95
628.08	1306.49
628.279	1325.28
628.477	1426.42
628.676	1296.6
628.874	1363.84
629.073	1281.3
629.271	1294.47
629.469	1367.9
629.668	1311.33
629.866	1319.27
630.065	1333.8
630.263	1367.71
630.461	1309.97
630.66	1312.3
630.858	1357.83
631.056	1377.59
631.254	1403.17
631.453	1314.82
631.651	1396.77
631.849	1376.24
632.047	1352.02
632.245	1356.67
632.444	1366.94
632.642	1356.09
632.84	1359.19
633.038	1338.84
633.236	1297.38
633.434	1340.78
633.632	1337.68
633.83	1311.33
634.028	1395.03
634.227	1341.75
634.425	1411.5
634.623	1340
634.821	1362.67
635.019	1397.35
635.216	1349.69
635.414	1407.82
635.612	1390.38
635.81	1342.52
636.008	1384.95
636.206	1362.09
636.404	1358.8
636.602	1316.75
636.8	1347.95
636.997	1352.02
637.195	1357.05
637.393	1371.78
637.591	1406.65
637.789	1367.9
637.986	1363.84
638.184	1349.89
638.382	1418.08
638.58	1402.78
638.777	1412.08
638.975	1326.25
639.173	1368.87
639.37	1355.5
639.568	1385.92
639.765	1332.25
639.963	1322.37
640.161	1352.02
640.358	1370.42
640.556	1317.72
640.753	1294.86
640.951	1261.15
641.148	1306.68
641.346	1301.25
641.543	1316.56
641.741	1297.38
641.938	1270.84
642.136	1295.64
642.333	1235.77
642.531	1300.87
642.728	1294.28
642.925	1260.96
643.123	1283.43
643.32	1281.3
643.517	1288.08
643.715	1263.47
643.912	1256.5
644.109	1265.99
644.306	1242.36
644.504	1217.17
644.701	1223.37
644.898	1282.46
645.095	1220.66
645.293	1244.1
645.49	1274.52
645.687	1259.79
645.884	1237.9
646.081	1175.13
646.278	1168.34
646.475	1186.75
646.672	1181.71
646.87	1213.29
647.067	1203.99
647.264	1158.08
647.461	1118.94
647.658	1076.12
647.855	1154.2
648.052	1101.31
648.249	1072.05
648.446	1119.71
648.642	1087.75
648.839	1062.95
649.036	1068.56
649.233	1057.52
649.43	1039.89
649.627	1036.98
649.824	1062.56
650.021	1051.9
650.217	1042.99
650.414	1077.67
650.611	1105.76
650.808	1105.76
651.004	1097.24
651.201	1129.01
651.398	1160.59
651.595	1078.25
651.791	1017.61
651.988	1109.64
652.185	1021.68
652.381	1108.28
652.578	1016.06
652.775	1052.29
652.971	1043.38
653.168	1040.08
653.364	1079.03
653.561	1024
653.757	1044.73
653.954	1092.4
654.15	1037.18
654.347	1132.5
654.543	1047.83
654.74	974.79
654.936	964.72
655.133	1009.67
655.329	1026.91
655.525	1020.13
655.722	1023.81
655.918	994.55
656.115	993.58
656.311	894.39
656.507	871.72
656.704	869
656.9	890.12
657.096	879.85
657.292	886.64
657.489	940.3
657.685	924.8
657.881	933.33
658.077	941.08
658.273	948.63
658.47	1018.97
658.666	944.76
658.862	993
659.058	977.5
659.254	988.35
659.45	965.3
659.646	957.16
659.842	931.78
660.038	999.4
660.234	936.24
660.43	964.13
660.626	1001.14
660.822	983.32
661.018	978.86
661.214	966.65
661.41	916.67
661.606	958.71
661.802	975.76
661.998	955.8
662.194	909.11
662.39	966.27
662.586	971.88
662.781	960.07
662.977	944.76
663.173	962.2
663.369	942.24
663.564	958.71
663.76	974.98
663.956	904.85
664.152	968.2
664.347	876.75
664.543	950.77
664.739	908.34
664.934	829.29
665.13	852.92
665.326	928.29
665.521	893.8
665.717	887.99
665.912	869.78
666.108	849.05
666.304	891.48
666.499	856.99
666.695	810.69
666.89	871.91
667.086	938.95
667.281	912.99
667.477	927.9
667.672	883.73
667.867	858.93
668.063	863.97
668.258	840.52
668.454	847.5
668.649	919.57
668.844	884.7
669.04	894
669.235	830.45
669.43	801
669.626	810.69
669.821	802.16
670.016	823.86
670.211	861.25
670.407	785.11
670.602	845.37
670.797	816.69
670.992	856.6
671.187	858.35
671.382	851.37
671.578	798.87
671.773	847.89
671.968	806.04
672.163	809.14
672.358	849.24
672.553	808.75
672.748	823.47
672.943	895.55
673.138	832.58
673.333	851.96
673.528	806.62
673.723	856.6
673.918	798.87
674.113	771.74
674.308	872.1
674.503	820.37
674.698	834.13
674.892	829.67
675.087	845.76
675.282	831.61
675.477	806.42
675.672	824.64
675.867	808.94
676.061	793.83
676.256	740.36
676.451	817.66
676.646	814.17
676.84	779.88
677.035	721.37
677.23	773.87
677.424	819.99
677.619	823.86
677.814	835.49
678.008	853.12
678.203	781.43
678.397	803.52
678.592	812.04
678.787	877.72
678.981	812.43
679.176	791.7
679.37	780.46
679.565	782.01
679.759	788.41
679.954	814.56
680.148	835.49
680.342	844.4
680.537	850.21
680.731	802.16
680.926	809.14
681.12	827.54
681.314	788.6
681.509	800.81
681.703	806.04
681.897	834.71
682.092	821.73
682.286	819.6
682.48	885.09
682.674	856.41
682.869	834.91
683.063	838.59
683.257	891.87
683.451	802.16
683.645	863.97
683.839	849.44
684.034	827.35
684.228	832.58
684.422	792.28
684.616	827.74
684.81	846.14
685.004	836.07
685.198	845.76
685.392	876.56
685.586	868.62
685.78	852.54
685.974	856.02
686.168	884.89
686.362	919.38
686.556	788.41
686.75	795.38
686.944	758.76
687.138	753.73
687.331	643.48
687.525	683.2
687.719	622.36
687.913	680.49
688.107	700.64
688.301	652.01
688.494	715.94
688.688	675.84
688.882	661.7
689.076	673.32
689.269	717.88
689.463	807.97
689.657	725.44
689.85	715.56
690.044	743.65
690.238	727.96
690.431	762.06
690.625	790.15
690.818	836.26
691.012	837.23
691.205	836.26
691.399	844.01
691.593	895.35
691.786	948.44
691.98	957.74
692.173	1000.95
692.366	956.58
692.56	999.01
692.753	1048.61
692.947	982.54
693.14	1049.96
693.333	1053.45
693.527	1003.66
693.72	1081.93
693.914	1059.46
694.107	1046.48
694.3	1073.21
694.493	1036.21
694.687	1159.63
694.88	1086
695.073	1174.54
695.266	1165.83
695.46	1139.48
695.653	1213.87
695.846	1237.51
696.039	1193.92
696.232	1203.61
696.425	1284.59
696.618	1333.22
696.812	1305.52
697.005	1388.25
697.198	1466.13
697.391	1405.49
697.584	1484.54
697.777	1524.45
697.97	1506.24
698.163	1502.75
698.356	1504.69
698.549	1610.09
698.742	1576.57
698.935	1523.87
699.127	1588.58
699.32	1548.28
699.513	1562.62
699.706	1560.29
699.899	1610.48
700.092	1613.38
700.285	1656.97
700.477	1576.76
700.67	1653.49
700.863	1672.86
701.056	1788.14
701.248	1763.92
701.441	1749.78
701.634	1731.95
701.826	1863.9
702.019	1758.11
702.212	1847.43
702.404	1834.25
702.597	1815.65
702.79	1821.08
702.982	1846.07
703.175	1945.66
703.367	1965.42
703.56	1940.04
703.752	2100.46
703.945	2067.53
704.137	2031.68
704.33	2080.31
704.522	2109.57
704.715	2107.05
704.907	2151.42
705.1	2202.37
705.292	2168.47
705.484	2171.76
705.677	2232.79
705.869	2266.7
706.061	2291.11
706.254	2313
706.446	2289.95
706.638	2304.09
706.831	2372.29
707.023	2336.06
707.215	2497.06
707.407	2458.7
707.599	2452.5
707.792	2507.91
707.984	2459.09
708.176	2511.79
708.368	2534.65
708.56	2566.62
708.752	2567.2
708.944	2555.96
709.136	2602.85
709.329	2576.11
709.521	2694.3
709.713	2687.32
709.905	2718.71
710.097	2749.71
710.289	2733.24
710.481	2783.23
710.672	2774.32
710.864	2802.41
711.056	2814.61
711.248	2782.45
711.44	2823.91
711.632	2873.51
711.824	2856.27
712.016	2925.44
712.207	2925.44
712.399	2921.95
712.591	2933.19
712.783	2958.96
712.975	2971.94
713.166	2952.95
713.358	2994.22
713.55	3019.6
713.741	3029.29
713.933	3066.49
714.125	3040.14
714.316	3045.95
714.508	3151.15
714.7	3127.52
714.891	3093.8
715.083	3119.77
715.274	3053.31
715.466	3107.56
715.657	3150.77
715.849	3063.77
716.04	3082.18
716.232	2991.31
716.423	3030.45
716.615	2938.42
716.806	2856.08
716.998	2807.06
717.189	2688.68
717.381	2625.13
717.572	2592.97
717.763	2537.94
717.955	2519.73
718.146	2478.08
718.337	2394.96
718.528	2364.73
718.72	2294.79
718.911	2331.22
719.102	2247.9
719.293	2329.08
719.485	2304.87
719.676	2264.95
719.867	2268.63
720.058	2250.81
720.249	2243.25
720.44	2241.32
720.632	2342.26
720.823	2437.19
721.014	2549.57
721.205	2575.34
721.396	2696.23
721.587	2848.33
721.778	2890.37
721.969	2914.2
722.16	2990.15
722.351	3048.47
722.542	3122.29
722.733	3151.35
722.924	3068.04
723.115	3080.63
723.305	3045.75
723.496	3079.47
723.687	2914.98
723.878	2932.41
724.069	2946.75
724.26	2896.96
724.45	2820.04
724.641	2817.91
724.832	2837.09
725.023	2818.68
725.213	2847.36
725.404	2807.45
725.595	2795.82
725.785	2797.18
725.976	2854.14
726.167	2860.53
726.357	2837.86
726.548	2970.39
726.739	2881.65
726.929	2977.36
727.12	2955.08
727.31	2967.48
727.501	2891.14
727.691	2929.89
727.882	2906.64
728.072	3035.29
728.263	2999.26
728.453	3067.07
728.644	3082.76
728.834	3039.55
729.024	3026.77
729.215	2985.31
729.405	3044.01
729.596	3126.74
729.786	3094.39
729.976	3131.78
730.167	3115.89
730.357	3084.31
730.547	3147.08
730.737	3131.97
730.928	3209.67
731.118	3238.15
731.308	3169.37
731.498	3186.03
731.688	3252.29
731.879	3328.43
732.069	3324.17
732.259	3376.87
732.449	3465.61
732.639	3510.55
732.829	3563.45
733.019	3644.63
733.209	3730.26
733.399	3707.21
733.589	3842.06
733.779	3788.39
733.969	3843.61
734.159	3985.04
734.349	3937.19
734.539	4007.71
734.729	4014.49
734.919	4007.52
735.109	4158.64
735.299	4003.83
735.488	4054.4
735.678	4053.43
735.868	4075.33
736.058	4075.33
736.248	4038.13
736.437	3993.95
736.627	3986.01
736.817	4110.78
737.007	4051.69
737.196	4094.51
737.386	4099.55
737.576	4030.96
737.765	4163.29
737.955	4139.85
738.144	4223.93
738.334	4212.31
738.524	4106.13
738.713	4207.46
738.903	4198.36
739.092	4231.1
739.282	4182.28
739.471	4210.56
739.661	4221.61
739.85	4279.54
740.04	4265.2
740.229	4280.12
740.419	4370.99
740.608	4358.78
740.797	4334.95
740.987	4402.37
741.176	4361.49
741.365	4404.5
741.555	4271.21
741.744	4448.87
741.933	4331.85
742.123	4435.89
742.312	4403.73
742.501	4470.96
742.69	4478.52
742.88	4410.51
743.069	4530.44
743.258	4498.47
743.447	4497.5
743.636	4496.15
743.825	4475.61
744.014	4497.12
744.204	4530.83
744.393	4446.74
744.582	4562.21
744.771	4558.53
744.96	4481.42
745.149	4573.06
745.338	4520.75
745.527	4565.51
745.716	4528.7
745.905	4531.8
746.094	4590.31
746.283	4575.78
746.471	4553.88
746.66	4590.5
746.849	4577.71
747.038	4618.98
747.227	4581.01
747.416	4588.76
747.604	4530.25
747.793	4522.11
747.982	4548.65
748.171	4567.64
748.359	4570.16
748.548	4550.78
748.737	4520.75
748.926	4548.85
749.114	4443.83
749.303	4519.59
749.491	4557.37
749.68	4469.6
749.869	4560.86
750.057	4489.95
750.246	4514.94
750.434	4493.43
750.623	4498.67
750.811	4454.3
751	4507.58
751.188	4469.99
751.377	4462.43
751.565	4432.21
751.754	4426.98
751.942	4393.27
752.131	4472.51
752.319	4412.84
752.507	4428.53
752.696	4430.27
752.884	4501.77
753.072	4404.5
753.261	4457.2
753.449	4414.19
753.637	4362.27
753.825	4467.08
754.014	4458.17
754.202	4395.59
754.39	4425.82
754.578	4475.8
754.766	4395.79
754.955	4300.85
755.143	4481.81
755.331	4373.12
755.519	4409.54
755.707	4343.47
755.895	4358
756.083	4336.5
756.271	4309.18
756.459	4327.2
756.647	4364.2
756.835	4280.51
757.023	4332.62
757.211	4306.86
757.399	4254.35
757.587	4293.29
757.775	4239.04
757.963	4269.85
758.151	4242.73
758.339	4205.33
758.526	4195.45
758.714	4188.48
758.902	4084.24
759.09	3931.57
759.278	3783.16
759.465	3419.3
759.653	2963.22
759.841	2663.1
760.028	2316.3
760.216	2006.49
760.404	1837.93
760.591	1536.08
760.779	1297.77
760.967	1122.43
761.154	933.33
761.342	955.03
761.529	911.44
761.717	985.83
761.905	960.07
762.092	1030.2
762.28	1007.15
762.467	976.34
762.655	875.59
762.842	877.53
763.029	900.2
763.217	926.35
763.404	916.28
763.592	931.78
763.779	894.19
763.966	959.87
764.154	991.26
764.341	1031.75
764.528	1054.81
764.716	1136.57
764.903	1190.24
765.09	1282.27
765.277	1368.29
765.465	1537.63
765.652	1633.73
765.839	1709.29
766.026	1885.79
766.213	1938.68
766.4	2088.45
766.588	2278.71
766.775	2336.83
766.962	2475.36
767.149	2576.5
767.336	2735.57
767.523	2744.48
767.71	2896.18
767.897	2994.8
768.084	3095.35
768.271	3182.93
768.458	3246.67
768.645	3346.64
768.832	3318.36
769.019	3402.83
769.206	3479.55
769.392	3538.07
769.579	3618.86
769.766	3597.35
769.953	3592.7
770.14	3676.6
770.327	3671.36
770.513	3760.29
770.7	3791.1
770.887	3719.22
771.073	3769.98
771.26	3760.29
771.447	3707.4
771.634	3728.91
771.82	3798.85
772.007	3669.43
772.193	3783.16
772.38	3828.3
772.567	3757
772.753	3728.52
772.94	3766.11
773.126	3796.91
773.313	3807.38
773.499	3775.6
773.686	3845.93
773.872	3715.54
774.059	3776.38
774.245	3704.3
774.432	3720.96
774.618	3671.56
774.804	3746.34
774.991	3715.35
775.177	3734.91
775.363	3709.53
775.55	3718.45
775.736	3614.02
775.922	3694.03
776.109	3716.31
776.295	3711.28
776.481	3705.85
776.667	3731.43
776.853	3689.96
777.04	3669.62
777.226	3690.35
777.412	3752.93
777.598	3620.41
777.784	3626.61
777.97	3582.63
778.156	3650.44
778.342	3590.96
778.528	3600.84
778.715	3570.42
778.901	3542.52
779.087	3597.93
779.272	3542.14
779.458	3541.55
779.644	3555.89
779.83	3572.55
780.016	3634.55
780.202	3520.82
780.388	3523.34
780.574	3444.49
780.76	3527.6
780.946	3542.33
781.131	3521.99
781.317	3498.54
781.503	3438.29
781.689	3500.87
781.874	3583.6
782.06	3428.6
782.246	3506.87
782.432	3484.2
782.617	3469.87
782.803	3512.69
782.989	3394.31
783.174	3387.14
783.36	3372.22
783.545	3390.62
783.731	3422.4
783.916	3302.28
784.102	3419.11
784.288	3356.53
784.473	3408.64
784.659	3328.24
784.844	3388.3
785.029	3340.83
785.215	3334.24
785.4	3292.4
785.586	3351.88
785.771	3254.23
785.956	3358.08
786.142	3247.83
786.327	3284.06
786.512	3262.75
786.698	3237.18
786.883	3238.53
787.068	3203.27
787.254	3245.7
787.439	3201.53
787.624	3196.49
787.809	3195.52
787.994	3129.45
788.18	3220.9
788.365	3100.2
788.55	3091.87
788.735	3126.35
788.92	3114.54
789.105	3088.19
789.29	3097.29
789.475	3049.24
789.66	3055.44
789.845	3058.93
790.03	3002.36
790.215	3029.48
790.4	3031.61
790.585	3086.64
790.77	3014.37
790.955	2975.23
791.14	3010.11
791.325	3066.1
791.51	2900.44
791.695	3012.82
791.879	2971.74
792.064	2934.35
792.249	3033.55
792.434	2945.59
792.618	2990.15
792.803	3018.82
792.988	2957.21
793.173	3034.52
793.357	3020.37
793.542	2987.24
793.727	2993.06
793.911	3051.76
794.096	3032
794.281	3055.25
794.465	3108.14
794.65	3027.54
794.834	3092.06
795.019	3115.5
795.203	3116.28
795.388	3110.08
795.572	3082.37
795.757	3051.37
795.941	3087.22
796.126	3062.03
796.31	2993.44
796.494	3040.33
796.679	3006.42
796.863	2968.06
797.048	3080.05
797.232	3042.27
797.416	2995.19
797.601	3053.5
797.785	3114.15
797.969	3093.61
798.153	3048.85
798.338	3109.3
798.522	3089.15
798.706	3118.99
798.89	3131.2
799.074	3196.68
799.258	3190.48
799.443	3112.79
799.627	3089.15
799.811	3120.93
799.995	3109.89
800.179	3065.52
800.363	3088.38
800.547	3066.1
800.731	3128.29
800.915	3016.31
801.099	3056.6
801.283	3028.32
801.467	3050.21
801.651	3041.88
801.835	3111.63
802.019	3062.22
802.202	3050.21
802.386	3013.21
802.57	2981.82
802.754	3009.91
802.938	2967.09
803.121	2988.79
803.305	3060.48
803.489	3034.91
803.673	3069.78
803.856	3080.63
804.04	3010.49
804.224	3044.01
804.407	3018.05
804.591	2979.69
804.775	2995.19
804.958	3046.72
805.142	3135.65
805.326	3077.72
805.509	3044.98
805.693	3076.56
805.876	3076.95
806.06	3061.45
806.243	3125.97
806.427	3118.8
806.61	3121.32
806.794	3094
806.977	3076.17
807.16	3107.56
807.344	3055.44
807.527	3102.52
807.71	3061.06
807.894	3082.76
808.077	3141.66
808.26	2995.38
808.444	2986.86
808.627	3077.92
808.81	3004.49
808.993	2993.25
809.177	2932.61
809.36	2962.25
809.543	2991.12
809.726	2848.13
809.909	2861.11
810.092	2886.88
810.276	2865.96
810.459	2889.4
810.642	2866.34
810.825	2812.48
811.008	2782.06
811.191	2714.83
811.374	2746.61
811.557	2746.42
811.74	2802.6
811.923	2675.7
812.106	2664.27
812.289	2623.77
812.472	2640.82
812.654	2627.65
812.837	2545.11
813.02	2522.25
813.203	2527.87
813.386	2374.81
813.569	2335.48
813.751	2291.88
813.934	2311.65
814.117	2278.32
814.3	2223.69
814.482	2191.91
814.665	2119.06
814.848	2112.09
815.03	2053.58
815.213	2026.45
815.396	1965.23
815.578	1956.7
815.761	1918.53
815.943	2005.91
816.126	1931.51
816.309	1852.27
816.491	1809.07
816.674	1761.99
816.856	1769.93
817.039	1802.09
817.221	1861.57
817.403	1808.1
817.586	1833.09
817.768	1844.72
817.951	1761.4
818.133	1736.8
818.315	1778.84
818.498	1811.78
818.68	1865.64
818.862	1866.42
819.045	1874.55
819.227	1871.45
819.409	1835.03
819.591	1876.49
819.774	1830.18
819.956	1809.84
820.138	1890.83
820.32	1915.63
820.502	1945.46
820.684	2071.98
820.866	2069.66
821.048	2113.25
821.231	2146.57
821.413	2132.82
821.595	2116.35
821.777	2107.24
821.959	2126.23
822.141	2183.97
822.323	2008.24
822.505	1931.9
822.686	1880.95
822.868	1821.08
823.05	1657.94
823.232	1619.19
823.414	1558.36
823.596	1654.46
823.778	1615.9
823.96	1632.76
824.141	1681.58
824.323	1703.09
824.505	1794.34
824.687	1866.22
824.868	1894.9
825.05	2002.43
825.232	2038.66
825.413	2098.91
825.595	2069.46
825.777	2019.67
825.958	2061.71
826.14	2079.73
826.321	2089.42
826.503	2028.19
826.685	2091.55
826.866	2096.97
827.048	2101.62
827.229	2034.39
827.411	2002.43
827.592	1949.34
827.773	1916.21
827.955	1883.85
828.136	1912.14
828.318	1834.25
828.499	1867.58
828.68	1802.67
828.862	1850.92
829.043	1874.17
829.224	1805.97
829.406	1796.86
829.587	1799.38
829.768	1821.47
829.949	1846.65
830.131	1882.11
830.312	1909.81
830.493	1828.63
830.674	1852.66
830.855	1856.92
831.036	1839.87
831.218	1886.37
831.399	1914.85
831.58	1849.37
831.761	1854.79
831.942	1866.42
832.123	1850.53
832.304	1795.31
832.485	1856.73
832.666	1851.88
832.847	1921.44
833.028	1854.02
833.209	1832.51
833.389	1854.21
833.57	1808.68
833.751	1825.73
833.932	1879.01
834.113	1839.48
834.294	1825.73
834.475	1873.97
834.655	1916.4
834.836	1946.43
835.017	1900.9
835.198	1886.57
835.378	1887.92
835.559	1908.46
835.74	1898.38
835.92	1871.84
836.101	1878.04
836.281	1958.45
836.462	1958.64
836.643	1963.1
836.823	1976.27
837.004	2013.66
837.184	2016.38
837.365	1985.18
837.545	1981.5
837.726	1934.81
837.906	2012.89
838.087	1961.93
838.267	1929.58
838.448	1932.29
838.628	1967.75
838.808	1961.55
838.989	1999.52
839.169	1911.75
839.349	1975.69
839.53	1986.35
839.71	2003.78
839.89	1980.15
840.07	2017.73
840.251	1918.34
840.431	2012.89
840.611	1958.06
840.791	1933.84
840.971	1939.65
841.151	1940.62
841.332	1908.65
841.512	1968.33
841.692	1910.01
841.872	1926.28
842.052	1915.05
842.232	1978.6
842.412	1861.38
842.592	1942.75
842.772	1925.9
842.952	1925.9
843.132	1914.66
843.312	1929.77
843.492	1889.67
843.672	1961.55
843.851	1849.17
844.031	1931.13
844.211	1899.16
844.391	1873.58
844.571	1900.13
844.751	1889.67
844.93	1905.94
845.11	1876.1
845.29	1879.2
845.47	1897.42
845.649	1919.89
845.829	1904.97
846.009	1893.73
846.188	1908.65
846.368	1880.17
846.547	1886.76
846.727	1935.39
846.907	1864.67
847.086	1904.97
847.266	1947.01
847.445	1883.27
847.625	1879.2
847.804	1855.95
847.984	1853.63
848.163	1810.23
848.343	1811.39
848.522	1862.15
848.701	1867.38
848.881	1799.57
849.06	1835.03
849.239	1839.68
849.419	1818.75
849.598	1790.85
849.777	1761.21
849.957	1743.77
850.136	1683.91
850.315	1659.49
850.494	1641.67
850.674	1698.24
850.853	1767.6
851.032	1700.57
851.211	1769.93
851.39	1722.27
851.569	1655.42
851.748	1664.14
851.927	1761.6
852.107	1706.77
852.286	1690.88
852.465	1678.09
852.644	1710.84
852.823	1690.3
853.002	1724.98
853.181	1741.06
853.359	1722.46
853.538	1640.89
853.717	1715.1
853.896	1604.66
854.075	1556.03
854.254	1548.86
854.433	1450.44
854.611	1485.9
854.79	1429.32
854.969	1493.65
855.148	1551
855.327	1455.28
855.505	1588.78
855.684	1510.7
855.863	1560.49
856.041	1566.3
856.22	1609.12
856.399	1579.48
856.577	1682.94
856.756	1631.79
856.934	1777.68
857.113	1742.03
857.291	1676.54
857.47	1618.03
857.648	1679.26
857.827	1654.84
858.005	1688.17
858.184	1602.92
858.362	1719.94
858.541	1649.03
858.719	1627.91
858.898	1624.04
859.076	1597.11
859.254	1705.61
859.433	1636.44
859.611	1621.13
859.789	1552.74
859.967	1657.17
860.146	1657.94
860.324	1549.06
860.502	1597.11
860.68	1531.43
860.859	1581.03
861.037	1585.29
861.215	1619
861.393	1573.08
861.571	1568.43
861.749	1539.37
861.927	1606.02
862.105	1574.63
862.283	1592.46
862.461	1566.49
862.639	1532.2
862.817	1531.04
862.995	1537.43
863.173	1542.66
863.351	1535.5
863.529	1533.95
863.707	1555.45
863.885	1546.15
864.063	1470.01
864.241	1511.66
864.418	1594.01
864.596	1510.5
864.774	1486.86
864.952	1500.43
865.129	1570.37
865.307	1469.43
865.485	1457.42
865.663	1495.39
865.84	1446.37
866.018	1449.08
866.196	1287.5
866.373	1333.61
866.551	1311.33
866.728	1226.86
866.906	1272.77
867.084	1305.71
867.261	1359.77
867.439	1371.2
867.616	1399.1
867.794	1374.1
867.971	1389.8
868.149	1373.91
868.326	1464
868.503	1400.45
868.681	1401.03
868.858	1391.15
869.035	1379.92
869.213	1392.12
869.39	1380.88
869.567	1455.09
869.745	1388.44
869.922	1420.22
870.099	1398.9
870.276	1429.32
870.454	1415.95
870.631	1399.68
870.808	1404.13
870.985	1391.93
871.162	1424.67
871.339	1407.62
871.517	1346.01
871.694	1336.71
871.871	1386.7
872.048	1339.42
872.225	1365
872.402	1372.94
872.579	1331.67
872.756	1372.75
872.933	1323.54
873.11	1338.65
873.287	1370.23
873.463	1340.97
873.64	1298.93
873.817	1353.95
873.994	1329.35
874.171	1306.68
874.348	1352.6
874.524	1287.5
874.701	1314.24
874.878	1264.25
875.055	1335.35
875.231	1307.65
875.408	1296.22
875.585	1244.1
875.762	1313.07
875.938	1289.44
876.115	1264.64
876.291	1245.84
876.468	1271.61
876.645	1244.87
876.821	1231.12
876.998	1231.7
877.174	1252.04
877.351	1233.64
877.527	1241.19
877.704	1240.61
877.88	1251.07
878.057	1220.46
878.233	1284.98
878.409	1243.32
878.586	1268.71
878.762	1255.34
878.938	1233.06
879.115	1166.21
879.291	1250.11
879.467	1144.32
879.644	1201.86
879.82	1230.34
879.996	1188.69
880.172	1165.24
880.349	1214.65
880.525	1229.37
880.701	1154.59
880.877	1169.31
881.053	1182.29
881.229	1157.11
881.405	1221.04
881.581	1132.69
881.757	1177.84
881.933	1195.86
882.109	1192.37
882.285	1180.94
882.461	1154.01
882.637	1167.96
882.813	1144.32
882.989	1143.54
883.165	1208.26
883.341	1155.36
883.517	1203.41
883.693	1193.73
883.869	1228.41
884.044	1131.14
884.22	1183.07
884.396	1221.62
884.572	1193.53
884.747	1210
884.923	1182.68
885.099	1212.13
885.275	1216.39
885.45	1196.05
885.626	1154.78
885.801	1162.34
885.977	1155.36
886.153	1125.91
886.328	1171.25
886.504	1122.81
886.679	1163.69
886.855	1136.38
887.03	1160.4
887.206	1207.87
887.381	1168.73
887.557	1157.49
887.732	1147.03
887.908	1171.83
888.083	1215.23
888.258	1147.42
888.434	1162.34
888.609	1166.02
888.784	1185.01
888.96	1125.14
889.135	1145.87
889.31	1140.44
889.485	1173.58
889.661	1108.28
889.836	1214.26
890.011	1173.38
890.186	1159.63
890.361	1123.98
890.537	1185.01
890.712	1176.29
890.887	1152.26
891.062	1152.26
891.237	1203.61
891.412	1119.52
891.587	1166.99
891.762	1160.4
891.937	1181.71
892.112	1109.64
892.287	1124.56
892.462	1101.89
892.637	1076.7
892.812	1051.9
892.987	1059.65
893.161	1060.43
893.336	1035.24
893.511	1036.01
893.686	1069.92
893.861	1042.41
894.035	1021.48
894.21	1044.54
894.385	977.5
894.56	1021.29
894.734	954.25
894.909	951.35
895.084	903.69
895.258	951.35
895.433	960.84
895.608	892.06
895.782	871.91
895.957	866.29
896.131	862.22
896.306	821.73
896.48	798.09
896.655	798.67
896.829	738.42
897.004	763.99
897.178	745.01
897.353	744.23
897.527	770.39
897.701	788.21
897.876	711.1
898.05	793.64
898.224	791.7
898.399	815.72
898.573	749.27
898.747	633.21
898.921	675.84
899.096	594.46
899.27	606.09
899.444	615.58
899.618	627.6
899.792	637.28
899.967	658.21
900.141	729.31
900.315	636.51
900.489	633.8
900.663	667.9
900.837	689.21
901.011	592.91
901.185	688.04
901.359	648.71
901.533	645.61
901.707	666.93
901.881	664.8
902.055	588.46
902.229	656.27
902.403	692.5
902.576	655.88
902.75	682.62
902.924	771.55
903.098	748.88
903.272	775.81
903.446	796.74
903.619	804.1
903.793	834.52
903.967	795.96
904.14	865.9
904.314	823.28
904.488	821.92
904.661	852.34
904.835	826.57
905.009	868.23
905.182	873.07
905.356	840.72
905.529	838.2
905.703	811.85
905.876	807.97
906.05	773.49
906.223	775.81
906.397	671.77
906.57	700.83
906.744	666.35
906.917	662.86
907.09	671.96
907.264	652.01
907.437	626.63
907.61	595.24
907.784	626.82
907.957	627.4
908.13	602.41
908.304	625.66
908.477	572.57
908.65	608.8
908.823	549.13
908.996	621.59
909.17	551.45
909.343	548.35
909.516	571.02
909.689	598.34
909.862	552.81
910.035	593.5
910.208	512.7
910.381	569.67
910.554	656.08
910.727	567.92
910.9	553
911.073	542.73
911.246	626.63
911.419	646.97
911.592	629.15
911.765	588.07
911.938	547.58
912.11	586.52
912.283	555.33
912.456	619.26
912.629	600.66
912.802	544.09
912.974	497.79
913.147	456.71
913.32	399.94
913.493	431.14
913.665	482.09
913.838	463.3
914.01	494.69
914.183	497.2
914.356	498.37
914.528	522.39
914.701	586.91
914.873	539.83
915.046	491.39
915.218	466.98
915.391	392.39
915.563	409.24
915.736	456.13
915.908	503.98
916.081	501.47
916.253	465.24
916.425	496.82
916.598	506.31
916.77	511.93
916.942	454.58
917.115	407.11
917.287	453.61
917.459	442.18
917.632	407.69
917.804	359.84
917.976	458.26
918.148	469.69
918.32	473.18
918.493	487.52
918.665	555.13
918.837	493.52
919.009	558.04
919.181	534.79
919.353	505.15
919.525	495.46
919.697	514.45
919.869	532.66
920.041	572.77
920.213	643.68
920.385	561.14
920.557	531.69
920.729	562.5
920.901	557.46
921.073	514.25
921.244	531.11
921.416	574.7
921.588	531.11
921.76	519.68
921.932	602.41
922.103	543.32
922.275	549.13
922.447	588.27
922.619	467.37
922.79	516.38
922.962	478.22
923.134	513.28
923.305	467.75
923.477	462.72
923.648	457.87
923.82	513.87
923.991	391.42
924.163	415.83
924.335	428.81
924.506	410.02
924.677	479.77
924.849	415.64
925.02	474.54
925.192	486.35
925.363	461.17
925.535	458.45
925.706	424.35
925.877	475.5
926.049	423.77
926.22	439.08
926.391	463.69
926.562	485.19
926.734	426.1
926.905	490.23
927.076	400.33
927.247	416.8
927.419	384.25
927.59	392.77
927.761	360.22
927.932	354.99
928.103	374.37
928.274	323.41
928.445	301.33
928.616	304.81
928.787	310.04
928.958	356.35
929.129	308.11
929.3	289.12
929.471	250.18
929.642	210.65
929.813	172.87
929.984	246.69
930.155	166.67
930.326	248.82
930.496	182.56
930.667	160.08
930.838	199.03
931.009	169.19
931.18	145.75
931.35	193.8
931.521	174.61
931.692	122.5
931.863	101.57
932.033	106.03
932.204	120.17
932.374	124.05
932.545	69.02
932.716	170.74
932.886	127.92
933.057	47.52
933.227	81.62
933.398	159.7
933.568	57.59
933.739	39.77
933.909	61.66
934.08	94.79
934.25	45.77
934.421	45.58
934.591	95.76
934.761	42.29
934.932	10.32
935.102	39.19
935.272	31.24
935.443	49.07
935.613	53.33
935.783	48.68
935.953	31.24
936.123	168.41
936.294	26.79
936.464	33.76
936.634	61.08
936.804	37.64
936.974	27.37
937.144	81.62
937.314	55.65
937.484	34.34
937.655	39.77
937.825	75.03
937.995	25.24
938.165	79.87
938.334	55.85
938.504	79.29
938.674	68.83
938.844	82.78
939.014	108.16
939.184	110.29
939.354	177.52
939.524	158.73
939.694	108.74
939.863	97.89
940.033	148.85
940.203	156.6
940.373	105.64
940.542	141.29
940.712	96.53
940.882	145.55
941.051	150.78
941.221	153.3
941.391	155.24
941.56	105.64
941.73	109.32
941.899	200
942.069	91.11
942.238	111.65
942.408	78.71
942.577	143.81
942.747	94.21
942.916	62.24
943.086	68.25
943.255	134.12
943.425	97.89
943.594	81.42
943.763	15.94
943.933	42.67
944.102	20
944.271	82.97
944.441	90.14
944.61	63.02
944.779	76.38
944.948	136.06
945.117	37.44
945.287	65.54
945.456	12.06
945.625	60.11
945.794	86.46
945.963	72.7
946.132	95.18
946.301	46.35
946.47	88.2
946.639	17.1
946.808	57.59
946.977	92.85
947.146	129.28
947.315	77.35
947.484	101.38
947.653	58.17
947.822	54.3
947.991	46.74
948.16	143.42
948.329	117.65
948.498	89.37
948.666	74.06
948.835	101.38
949.004	73.48
949.173	51
949.341	77.16
949.51	86.65
949.679	124.82
949.847	84.52
950.016	134.12
950.185	108.74
950.353	94.98
950.522	74.64
950.69	112.23
950.859	75.61
951.028	125.79
951.196	92.85
951.365	60.11
951.533	89.56
951.701	109.52
951.87	111.84
952.038	60.89
952.207	88.98
952.375	153.69
952.543	41.7
952.712	68.83
952.88	55.85
953.048	143.81
953.217	67.67
953.385	98.86
953.553	149.82
953.721	71.35
953.89	94.6
954.058	46.35
954.226	62.05
954.394	91.69
954.562	35.5
954.73	75.42
954.898	57.2
955.067	118.82
955.235	54.69
955.403	115.72
955.571	119.4
955.739	84.72
955.907	60.3
956.075	58.75
956.243	57.79
956.41	84.72
956.578	26.01
956.746	36.09
956.914	61.85
957.082	116.49
957.25	110.1
957.418	70.57
957.585	75.8
957.753	121.53
957.921	74.25
958.089	58.56
958.256	102.93
958.424	114.36
958.592	83.55
958.759	74.25
958.927	124.43
959.095	41.32
959.262	87.62
959.43	72.9
959.597	75.8
959.765	98.86
959.932	59.34
960.1	115.72
960.267	79.1
960.435	80.45
960.602	100.22
960.77	79.1
960.937	45.58
961.104	97.31
961.272	44.8
961.439	98.08
961.606	106.61
961.774	117.46
961.941	57.98
962.108	107.38
962.275	70.96
962.443	148.27
962.61	119.98
962.777	149.04
962.944	136.45
963.111	111.84
963.278	123.85
963.446	94.4
963.613	111.45
963.78	107.58
963.947	154.46
964.114	102.73
964.281	162.99
964.448	131.99
964.615	128.89
964.782	112.42
964.949	129.86
965.116	126.37
965.282	130.05
965.449	115.13
965.616	85.3
965.783	94.79
965.95	121.14
966.117	47.9
966.283	103.12
966.45	120.95
966.617	99.63
966.784	145.94
966.95	130.44
967.117	144.58
967.284	83.94
967.45	106.03
967.617	160.28
967.784	136.06
967.95	166.86
968.117	114.94
968.283	153.5
968.45	207.36
968.616	146.52
968.783	144.2
968.949	133.35
969.116	163.76
969.282	137.42
969.449	133.54
969.615	126.76
969.781	82.2
969.948	132.96
970.114	88.4
970.28	187.21
970.447	126.76
970.613	171.71
970.779	115.33
970.945	145.55
971.112	161.05
971.278	129.47
971.444	128.31
971.61	176.94
971.776	131.6
971.942	152.92
972.108	129.47
972.275	117.85
972.441	144.78
972.607	180.43
972.773	88.4
972.939	148.46
973.105	144.58
973.271	110.87
973.437	99.25
973.602	115.91
973.768	150.59
973.934	107.19
974.1	141.29
974.266	73.09
974.432	122.88
974.598	107
974.763	124.43
974.929	113.97
975.095	192.63
975.261	85.1
975.426	96.53
975.592	107.77
975.758	185.66
975.923	72.51
976.089	71.93
976.255	105.06
976.42	130.44
976.586	126.37
976.751	139.16
976.917	190.11
977.082	149.43
977.248	86.27
977.413	47.71
977.579	99.63
977.744	136.45
977.91	67.67
978.075	108.93
978.24	110.87
978.406	138.38
978.571	97.89
978.736	87.04
978.902	133.35
979.067	100.22
979.232	55.27
979.397	133.73
979.563	164.93
979.728	72.9
979.893	99.83
980.058	72.12
980.223	134.51
980.388	106.8
980.554	102.93
980.719	98.08
980.884	125.6
981.049	136.83
981.214	98.08
981.379	131.41
981.544	97.7
981.709	110.29
981.874	126.18
982.039	90.72
982.204	140.32
982.368	142.26
982.533	104.87
982.698	116.88
982.863	154.46
983.028	111.84
983.193	95.57
983.357	99.25
983.522	120.95
983.687	95.37
983.852	105.25
984.016	104.48
984.181	103.9
984.346	137.8
984.51	150.01
984.675	97.31
984.839	122.3
985.004	141.29
985.168	143.62
985.333	134.12
985.498	108.93
985.662	125.79
985.827	135.67
985.991	115.52
986.155	108.55
986.32	146.91
986.484	164.35
986.649	144.78
986.813	52.55
986.977	132.18
987.142	139.93
987.306	73.67
987.47	90.72
987.634	97.7
987.799	130.83
987.963	130.44
988.127	148.85
988.291	191.66
988.455	118.82
988.62	106.61
988.784	110.48
988.948	145.75
989.112	76
989.276	135.09
989.44	114.17
989.604	96.73
989.768	84.13
989.932	192.83
990.096	87.82
990.26	107.38
990.424	57.4
990.588	105.25
990.752	152.72
990.915	141.48
991.079	91.3
991.243	93.24
991.407	127.15
991.571	121.33
991.734	128.5
991.898	125.4
992.062	206.78
992.226	106.42
992.389	69.41
992.553	41.51
992.717	77.35
992.88	97.31
993.044	116.3
993.207	115.13
993.371	139.55
993.535	125.4
993.698	104.87
993.862	115.72
994.025	153.11
994.189	131.6
994.352	122.3
994.515	106.8
994.679	109.13
994.842	103.51
995.006	147.88
995.169	81.03
995.332	71.93
995.496	113.2
995.659	86.46
995.822	86.27
995.985	91.11
996.149	131.8
996.312	82.39
996.475	147.88
996.638	80.07
996.801	154.27
996.964	161.44
997.128	102.35
997.291	84.52
997.454	125.6
997.617	63.21
997.78	113.39
997.943	88.98
998.106	124.05
998.269	61.85
998.432	78.71
998.595	106.42
998.758	43.06
998.92	58.56
999.083	58.56
999.246	92.47
999.409	34.34
999.572	16.13
999.735	77.35
999.897	102.15
1000.06	70.96
1000.223	62.44
1000.386	119.4
1000.548	111.45
1000.711	113.2
1000.874	108.74
1001.036	29.11
1001.199	91.69
1001.361	77.93
1001.524	76.77
1001.687	115.33
1001.849	44.8
1002.012	93.43
1002.174	78.32
1002.337	86.46
1002.499	80.07
1002.661	112.81
1002.824	80.65
1002.986	55.85
1003.149	85.68
1003.311	63.4
1003.473	117.65
1003.636	38.8
1003.798	103.12
1003.96	80.65
1004.123	74.45
1004.285	56.04
1004.447	50.04
1004.609	84.52
1004.771	117.46
1004.933	45.39
1005.096	66.12
1005.258	54.49
1005.42	60.5
1005.582	104.09
1005.744	75.61
1005.906	54.69
1006.068	47.71
1006.23	19.23
1006.392	42.48
1006.554	38.41
1006.716	116.1
1006.878	74.06
1007.04	24.07
1007.202	75.03
1007.363	90.72
1007.525	75.22
1007.687	64.95
1007.849	103.12
1008.011	4.12
1008.172	42.87
1008.334	62.44
1008.496	75.8
1008.658	41.9
1008.819	38.41
1008.981	36.28
1009.143	52.17
1009.304	59.34
1009.466	94.79
1009.627	106.22
1009.789	131.02
1009.95	70.18
1010.112	45.58
1010.273	71.15
1010.435	20.2
1010.596	37.05
1010.758	58.37
1010.919	40.15
1011.081	38.6
1011.242	43.25
1011.403	84.33
1011.565	63.6
1011.726	74.25
1011.887	35.5
1012.049	56.82
1012.21	80.65
1012.371	83.17
1012.532	3.73
1012.693	68.63
1012.855	54.88
1013.016	44.8
1013.177	69.8
1013.338	31.63
1013.499	110.48
1013.66	74.45
1013.821	80.65
1013.982	68.05
1014.143	49.84
1014.304	36.67
1014.465	60.5
1014.626	83.94
1014.787	24.65
1014.948	127.73
1015.109	-5.76
1015.27	84.72
1015.431	30.47
1015.592	20.97
1015.752	74.45
1015.913	37.05
1016.074	69.22
1016.235	56.04
1016.395	65.34
1016.556	47.9
1016.717	37.83
1016.877	90.92
1017.038	17.1
1017.199	37.44
1017.359	33.76
1017.52	64.76
1017.681	24.07
1017.841	53.14
1018.002	30.66
1018.162	49.84
1018.323	94.02
1018.483	53.14
1018.644	39.19
1018.804	40.54
1018.964	19.62
1019.125	47.52
1019.285	51.2
1019.446	28.53
1019.606	20.97
1019.766	1.6
1019.926	61.47
1020.087	53.33
1020.247	24.65
1020.407	40.54
1020.567	83.75
1020.728	54.88
1020.888	27.56
1021.048	10.7
1021.208	3.54
1021.368	35.12
1021.528	76.97
1021.688	81.42
1021.848	73.67
1022.008	49.07
1022.168	31.82
1022.328	51.39
1022.488	62.82
1022.648	19.81
1022.808	48.87
1022.968	43.64
1023.128	20.59
1023.288	30.47
1023.448	45.97
1023.608	67.47
1023.767	69.02
1023.927	10.32
1024.087	18.65
1024.247	1.02
1024.406	17.87
1024.566	14.39
1024.726	-0.73
1024.885	28.72
1025.045	54.1
1025.205	57.98
1025.364	26.4
1025.524	50.23
1025.683	28.53
1025.843	53.14
1026.003	31.05
1026.162	106.42
1026.321	64.76
1026.481	30.27
1026.64	20.39
1026.8	40.74
1026.959	45.97
1027.119	49.45
1027.278	32.99
1027.437	30.08
1027.597	38.22
1027.756	58.17
1027.915	55.46
1028.074	68.05
1028.234	27.95
1028.393	24.27
1028.552	31.44
1028.711	-27.46
1028.87	66.5
1029.03	-12.55
1029.189	47.52
1029.348	-3.63
1029.507	-2.66
1029.666	30.47
1029.825	21.17
1029.984	11.48
1030.143	53.33
1030.302	15.35
1030.461	-35.21
1030.62	32.4
1030.779	60.69
1030.938	7.99
1031.097	-24.56
1031.255	44.42
1031.414	86.46
1031.573	66.89
1031.732	-23.78
1031.891	0.05
1032.049	64.76
1032.208	39.38
1032.367	-12.55
1032.525	25.62
1032.684	27.17
1032.843	28.92
1033.001	3.92
1033.16	171.13
1033.319	31.24
1033.477	35.7
1033.636	-5.96
1033.794	-12.93
1033.953	15.55
1034.111	60.3
1034.27	11.09
1034.428	45.77
1034.587	-14.1
1034.745	17.68
1034.903	24.85
1035.062	32.4
1035.22	15.74
1035.378	75.8
1035.537	15.55
1035.695	55.27
1035.853	38.41
1036.011	54.1
1036.17	53.91
1036.328	-54.39
1036.486	32.4
1036.644	25.62
1036.802	-19.52
1036.96	-6.35
1037.119	17.29
1037.277	-2.08
1037.435	-14.87
1037.593	-12.16
1037.751	34.34
1037.909	59.14
1038.067	59.14
