Data from gum_young_FLMT105791__114__17-40-42-040.txt Node

Date: Mon Mar 20 17:40:42 GMT 2023
User: antho
Spectrometer: FLMT10579
Trigger mode: 0
Integration Time (sec): 1.000000E-1
Scans to average: 10
Electric dark correction enabled: true
Nonlinearity correction enabled: false
Boxcar width: 0
XAxis mode: Wavelengths
Number of Pixels in Spectrum: 3648
>>>>>Begin Spectral Data<<<<<
345.248	-155.79
345.464	-155.79
345.681	-155.79
345.898	-182.72
346.114	-149.59
346.331	-48.84
346.548	33.31
346.764	3.67
346.981	-13.19
347.197	7.54
347.414	10.25
347.631	-14.35
347.847	44.93
348.064	-15.9
348.28	30.01
348.497	-37.02
348.713	-0.4
348.93	-0.98
349.146	6.38
349.363	-0.21
349.579	35.83
349.796	-1.37
350.012	-22.49
350.229	27.88
350.445	-5.25
350.661	-18.62
350.878	-20.94
351.094	12
351.311	41.25
351.527	22.26
351.743	0.37
351.96	25.36
352.176	34.47
352.392	23.62
352.609	12.58
352.825	-12.61
353.041	12.58
353.257	10.25
353.474	0.76
353.69	25.56
353.906	-3.89
354.122	-28.88
354.339	74.77
354.555	15.87
354.771	-8.73
354.987	55.98
355.203	77.48
355.42	-8.15
355.636	3.47
355.852	-14.55
356.068	16.06
356.284	-47.87
356.5	60.05
356.716	10.06
356.932	7.15
357.148	27.88
357.364	13.55
357.58	35.05
357.796	56.75
358.012	69.73
358.228	39.31
358.444	-29.27
358.66	35.05
358.876	9.09
359.092	-12.8
359.308	0.76
359.524	23.62
359.74	8.31
359.956	3.47
360.172	2.12
360.388	26.14
360.604	3.67
360.819	79.23
361.035	16.45
361.251	59.85
361.467	-13
361.683	38.73
361.898	44.55
362.114	38.73
362.33	27.88
362.546	45.51
362.762	2.31
362.977	31.76
363.193	-9.7
363.409	24.59
363.624	-21.33
363.84	-1.76
364.056	13.74
364.271	46.29
364.487	26.91
364.703	8.51
364.918	-16.48
365.134	18.97
365.35	13.35
365.565	78.65
365.781	21.3
365.996	45.32
366.212	60.82
366.427	43.96
366.643	0.18
366.858	7.54
367.074	-20.55
367.289	34.66
367.505	92.21
367.72	-31.4
367.936	27.3
368.151	48.23
368.367	29.05
368.582	20.71
368.798	-1.18
369.013	73.03
369.228	25.56
369.444	9.86
369.659	72.83
369.874	52.88
370.09	42.03
370.305	-48.26
370.52	5.41
370.736	55.98
370.951	18.58
371.166	73.03
371.381	61.79
371.597	33.11
371.812	-5.63
372.027	-6.99
372.242	-6.02
372.458	88.72
372.673	-17.84
372.888	7.93
373.103	32.53
373.318	90.27
373.533	40.48
373.749	33.89
373.964	-11.06
374.179	64.89
374.394	19.55
374.609	67.6
374.824	-0.4
375.039	55.98
375.254	-7.57
375.469	72.45
375.684	10.25
375.899	42.8
376.114	18.58
376.329	44.35
376.544	55.78
376.759	51.33
376.974	-1.57
377.189	15.68
377.404	10.83
377.619	45.71
377.834	-24.43
378.049	-25.59
378.264	-7.38
378.478	40.48
378.693	11.8
378.908	63.15
379.123	29.82
379.338	55.78
379.553	43.96
379.767	32.92
379.982	53.85
380.197	65.08
380.412	17.42
380.626	41.45
380.841	88.72
381.056	50.75
381.271	69.54
381.485	-11.83
381.7	-0.21
381.915	28.85
382.129	27.69
382.344	39.9
382.559	29.24
382.773	70.9
382.988	-27.53
383.202	28.85
383.417	0.18
383.632	115.84
383.846	33.11
384.061	37.38
384.275	21.88
384.49	44.55
384.704	78.65
384.919	39.7
385.133	47.65
385.348	36.02
385.562	3.08
385.777	51.52
385.991	25.75
386.206	30.79
386.42	7.54
386.634	71.28
386.849	64.7
387.063	37.76
387.277	17.81
387.492	19.55
387.706	-11.25
387.92	5.02
388.135	63.73
388.349	38.73
388.563	22.85
388.778	48.81
388.992	54.43
389.206	34.28
389.42	106.74
389.635	44.93
389.849	67.02
390.063	90.66
390.277	61.01
390.491	108.09
390.706	53.65
390.92	67.6
391.134	55.98
391.348	56.36
391.562	23.43
391.776	45.71
391.99	30.21
392.205	76.13
392.419	31.95
392.633	40.28
392.847	63.92
393.061	30.21
393.275	93.37
393.489	59.85
393.703	41.25
393.917	76.9
394.131	37.76
394.345	44.35
394.559	66.05
394.773	38.54
394.986	54.04
395.2	55.4
395.414	87.36
395.628	37.96
395.842	44.35
396.056	37.18
396.27	-2.73
396.484	94.73
396.697	68.76
396.911	92.6
397.125	76.13
397.339	82.13
397.553	74.58
397.766	119.14
397.98	89.11
398.194	80
398.408	79.23
398.621	96.66
398.835	82.91
399.049	68.18
399.262	102.67
399.476	88.72
399.69	89.88
399.903	149.75
400.117	73.61
400.331	69.54
400.544	58.69
400.758	163.31
400.971	90.66
401.185	101.12
401.398	73.8
401.612	115.07
401.826	101.89
402.039	97.05
402.253	81.16
402.466	95.69
402.68	91.82
402.893	107.71
403.106	101.51
403.32	92.01
403.533	117.2
403.747	78.06
403.96	96.28
404.174	128.63
404.387	48.03
404.6	80
404.814	132.51
405.027	128.44
405.24	91.05
405.454	98.21
405.667	142.39
405.88	52.88
406.094	111.97
406.307	141.03
406.52	152.27
406.733	98.02
406.947	66.05
407.16	153.82
407.373	147.81
407.586	76.13
407.799	69.73
408.012	115.26
408.226	112.55
408.439	144.33
408.652	108.87
408.865	114.49
409.078	150.91
409.291	110.81
409.504	88.33
409.717	117.2
409.93	129.21
410.143	119.91
410.357	65.08
410.57	70.7
410.783	108.29
410.996	116.81
411.209	105.19
411.421	146.46
411.634	117.98
411.847	99.57
412.06	147.04
412.273	110.42
412.486	144.91
412.699	212.72
412.912	149.94
413.125	179.2
413.338	145.88
413.55	142.97
413.763	115.07
413.976	146.84
414.189	105.58
414.402	120.88
414.615	180.75
414.827	113.71
415.04	153.24
415.253	131.73
415.466	164.28
415.678	187.72
415.891	113.52
416.104	131.93
416.316	125.53
416.529	117.59
416.742	141.23
416.954	180.75
417.167	150.33
417.38	124.95
417.592	192.18
417.805	106.35
418.017	71.86
418.23	170.87
418.442	118.75
418.655	131.15
418.868	157.5
419.08	183.66
419.293	186.56
419.505	163.51
419.718	157.11
419.93	170.29
420.142	148.59
420.355	168.93
420.567	191.02
420.78	175.33
420.992	142
421.205	198.57
421.417	111.19
421.629	152.46
421.842	134.25
422.054	96.47
422.266	181.14
422.479	215.62
422.691	135.99
422.903	141.03
423.115	134.44
423.328	142.19
423.54	157.11
423.752	151.3
423.964	131.73
424.177	163.31
424.389	142.78
424.601	240.62
424.813	181.91
425.025	192.76
425.238	184.62
425.45	161.96
425.662	154.01
425.874	435.72
426.086	161.76
426.298	192.96
426.51	168.93
426.722	156.14
426.934	147.23
427.146	214.66
427.358	136.77
427.57	215.24
427.782	163.7
427.994	180.17
428.206	154.79
428.418	149.75
428.63	183.66
428.842	236.36
429.054	179.78
429.266	191.02
429.478	146.84
429.69	182.88
429.902	130.38
430.114	200.12
430.325	157.31
430.537	102.28
430.749	142
430.961	82.71
431.173	155.18
431.384	159.05
431.596	106.54
431.808	153.82
432.02	192.18
432.231	185.4
432.443	212.14
432.655	218.92
432.867	162.73
433.078	236.36
433.29	240.62
433.502	204.77
433.713	254.37
433.925	191.79
434.136	208.84
434.348	172.42
434.56	120.3
434.771	279.56
434.983	154.59
435.194	163.7
435.406	211.56
435.617	239.26
435.829	244.69
436.04	232.09
436.252	234.61
436.463	282.66
436.675	242.75
436.886	232.67
437.098	245.46
437.309	276.65
437.521	212.52
437.732	220.27
437.943	235.19
438.155	215.62
438.366	172.61
438.578	284.02
438.789	230.74
439	247.79
439.211	210.2
439.423	255.54
439.634	245.66
439.845	263.87
440.057	276.46
440.268	289.64
440.479	220.86
440.69	228.22
440.902	212.72
441.113	237.52
441.324	238.49
441.535	249.92
441.746	280.53
441.957	239.65
442.168	254.96
442.38	263.87
442.591	286.73
442.802	215.82
443.013	243.72
443.224	254.18
443.435	237.52
443.646	280.53
443.857	281.11
444.068	251.47
444.279	261.35
444.49	328.77
444.701	262.32
444.912	370.62
445.123	304.94
445.334	301.65
445.545	273.75
445.756	269.68
445.967	241.97
446.178	275.88
446.388	285.95
446.599	308.43
446.81	295.25
447.021	253.41
447.232	304.36
447.443	346.02
447.653	263.09
447.864	335.17
448.075	310.37
448.286	337.88
448.496	309.4
448.707	329.35
448.918	250.5
449.129	376.24
449.339	306.1
449.55	364.23
449.761	321.41
449.971	352.8
450.182	309.59
450.393	337.49
450.603	332.84
450.814	356.67
451.024	351.44
451.235	362.1
451.446	382.05
451.656	371.59
451.867	316.76
452.077	356.87
452.288	406.47
452.498	376.43
452.709	358.42
452.919	357.64
453.13	319.09
453.34	368.88
453.55	282.66
453.761	383.41
453.971	355.7
454.182	342.72
454.392	369.85
454.602	408.6
454.813	361.52
455.023	380.31
455.233	322.57
455.444	357.83
455.654	296.8
455.864	366.75
456.075	335.75
456.285	329.35
456.495	353.38
456.705	357.64
456.916	406.85
457.126	414.6
457.336	368.1
457.546	362.29
457.756	354.15
457.967	401.43
458.177	342.34
458.387	373.14
458.597	363.84
458.807	375.47
459.017	373.14
459.227	358.22
459.437	367.52
459.647	393.68
459.857	383.22
460.068	377.6
460.278	422.55
460.488	389.03
460.698	447.15
460.908	403.75
461.117	346.21
461.327	338.07
461.537	409.18
461.747	389.8
461.957	394.07
462.167	495.59
462.377	425.07
462.587	369.27
462.797	450.83
463.007	402.59
463.216	416.15
463.426	460.52
463.636	416.54
463.846	373.72
464.056	360.16
464.265	450.64
464.475	393.87
464.685	405.3
464.895	433.78
465.104	402.2
465.314	440.76
465.524	410.53
465.733	377.98
465.943	481.45
466.153	485.13
466.362	447.35
466.572	443.08
466.782	421.19
466.991	406.47
467.201	443.28
467.41	395.03
467.62	458.39
467.829	439.79
468.039	443.67
468.249	426.62
468.458	433.01
468.668	450.64
468.877	457.23
469.086	478.93
469.296	497.33
469.505	424.87
469.715	522.91
469.924	479.9
470.134	513.8
470.343	498.88
470.552	459.94
470.762	442.31
470.971	432.43
471.18	466.53
471.39	460.71
471.599	436.11
471.808	513.61
472.018	440.37
472.227	502.18
472.436	523.1
472.645	488.03
472.855	490.55
473.064	531.82
473.273	540.15
473.482	492.1
473.691	541.51
473.901	519.03
474.11	497.72
474.319	569.02
474.528	514.58
474.737	542.67
474.946	530.46
475.155	538.02
475.364	587.62
475.573	549.64
475.783	574.64
475.992	550.42
476.201	603.89
476.41	559.72
476.619	527.56
476.828	557.01
477.037	549.64
477.245	552.55
477.454	603.7
477.663	584.91
477.872	581.42
478.081	637.41
478.29	552.55
478.499	662.02
478.708	632.57
478.917	662.6
479.125	637.99
479.334	631.6
479.543	597.31
479.752	631.41
479.961	655.24
480.169	653.49
480.378	634.12
480.587	749.4
480.796	689.34
481.004	648.07
481.213	691.66
481.422	678.49
481.63	654.85
481.839	748.04
482.048	748.04
482.256	683.52
482.465	701.93
482.674	724.99
482.882	730.99
483.091	753.27
483.299	698.83
483.508	742.81
483.716	726.92
483.925	750.75
484.134	713.17
484.342	742.04
484.551	798.61
484.759	746.3
484.967	749.4
485.176	780.01
485.384	796.09
485.593	808.68
485.801	759.86
486.01	723.05
486.218	674.03
486.426	660.47
486.635	682.94
486.843	700.19
487.051	668.02
487.26	675.97
487.468	734.87
487.676	777.1
487.885	720.53
488.093	780.98
488.301	772.26
488.509	807.13
488.717	801.9
488.926	788.54
489.134	786.4
489.342	799.19
489.55	759.09
489.758	797.45
489.967	787.57
490.175	907.5
490.383	855.57
490.591	939.46
490.799	832.9
491.007	894.13
491.215	877.47
491.423	892.19
491.631	848.4
491.839	875.72
492.047	875.14
492.255	820.89
492.463	826.51
492.671	838.52
492.879	914.28
493.087	884.83
493.295	898.2
493.503	872.62
493.711	911.56
493.919	939.27
494.127	931.13
494.334	948.38
494.542	884.25
494.75	926.87
494.958	924.16
495.166	974.14
495.374	965.04
495.581	946.44
495.789	952.45
495.997	998.56
496.205	961.75
496.412	975.11
496.62	957.87
496.828	968.72
497.035	975.69
497.243	1020.06
497.451	1005.53
497.658	990.23
497.866	991.97
498.074	1049.51
498.281	976.08
498.489	1026.84
498.696	1022.58
498.904	983.06
499.112	983.44
499.319	1080.32
499.527	1026.65
499.734	1075.67
499.942	1011.54
500.149	990.61
500.357	1037.31
500.564	1037.11
500.771	1006.5
500.979	994.49
501.186	999.33
501.394	1023.74
501.601	1033.63
501.808	1053
502.016	1015.22
502.223	1030.14
502.43	1018.9
502.638	1009.6
502.845	1037.5
503.052	1103.96
503.26	1041.38
503.467	1167.12
503.674	1109.77
503.881	1103.57
504.089	1169.64
504.296	1094.27
504.503	1076.64
504.71	1105.12
504.917	1112.09
505.125	1141.16
505.332	1128.76
505.539	1173.51
505.746	1215.36
505.953	1205.67
506.16	1220.98
506.367	1241.71
506.574	1279.88
506.781	1275.62
506.988	1168.67
507.195	1221.95
507.402	1248.1
507.609	1268.83
507.816	1238.42
508.023	1268.83
508.23	1239.19
508.437	1221.56
508.644	1249.07
508.851	1297.7
509.058	1344.78
509.265	1306.81
509.472	1351.56
509.679	1427.32
509.885	1369.39
510.092	1384.7
510.299	1359.9
510.506	1355.63
510.713	1380.05
510.92	1400.39
511.126	1399.42
511.333	1434.49
511.54	1447.86
511.746	1466.07
511.953	1487.19
512.16	1508.69
512.367	1440.11
512.573	1473.82
512.78	1473.82
512.987	1466.46
513.193	1464.33
513.4	1422.86
513.606	1492.23
513.813	1493
514.02	1497.65
514.226	1551.51
514.433	1543.18
514.639	1472.66
514.846	1547.64
515.052	1518.77
515.259	1534.07
515.465	1555.19
515.672	1580.57
515.878	1648.97
516.085	1593.55
516.291	1680.55
516.497	1615.84
516.704	1602.27
516.91	1588.71
517.117	1515.28
517.323	1468.98
517.529	1520.9
517.736	1504.43
517.942	1546.67
518.148	1597.04
518.354	1589.87
518.561	1628.24
518.767	1622.04
518.973	1653.23
519.179	1712.9
519.386	1678.61
519.592	1669.7
519.798	1710.19
520.004	1819.46
520.21	1792.34
520.417	1838.06
520.623	1842.91
520.829	1917.31
521.035	1891.93
521.241	1926.8
521.447	1923.12
521.653	2034.52
521.859	1923.89
522.065	1990.16
522.271	2054.48
522.477	2057
522.683	2073.27
522.889	2041.5
523.095	2050.41
523.301	2000.81
523.507	1998.1
523.713	2050.41
523.919	2019.22
524.125	2136.82
524.331	2113.77
524.537	2218.58
524.742	2232.15
524.948	2254.43
525.154	2268.18
525.36	2356.14
525.566	2245.9
525.772	2321.27
525.977	2207.93
526.183	2275.74
526.389	2274.77
526.595	2230.79
526.8	2207.35
527.006	2132.17
527.212	2080.25
527.417	2090.71
527.623	2070.37
527.829	2157.17
528.034	2210.25
528.24	2208.31
528.446	2263.15
528.651	2383.46
528.857	2361.18
529.062	2451.86
529.268	2408.65
529.473	2464.45
529.679	2475.69
529.884	2521.8
530.09	2500.1
530.295	2521.41
530.501	2492.54
530.706	2539.24
530.912	2475.69
531.117	2498.55
531.323	2521.22
531.528	2593.87
531.733	2606.85
531.939	2525.29
532.144	2568.88
532.35	2583.22
532.555	2607.24
532.76	2534.2
532.966	2561.13
533.171	2530.71
533.376	2443.72
533.581	2496.22
533.787	2535.36
533.992	2622.35
534.197	2590.58
534.402	2583.8
534.607	2613.63
534.813	2727.56
535.018	2622.35
535.223	2668.66
535.428	2712.83
535.633	2698.69
535.838	2746.74
536.043	2765.92
536.249	2838.57
536.454	2694.43
536.659	2775.8
536.864	2728.33
537.069	2696.75
537.274	2738.21
537.479	2711.67
537.684	2746.35
537.889	2669.63
538.094	2861.82
538.299	2753.52
538.504	2785.68
538.708	2803.31
538.913	2831.02
539.118	2799.05
539.323	2800.21
539.528	2778.13
539.733	2774.44
539.938	2787.23
540.142	2777.93
540.347	2741.31
540.552	2720.58
540.757	2715.55
540.962	2723.29
541.166	2697.14
541.371	2666.53
541.576	2705.08
541.781	2669.43
541.985	2768.63
542.19	2776.38
542.395	2850.39
542.599	2909.49
542.804	2839.35
543.008	2862.21
543.213	2796.14
543.418	2799.24
543.622	2873.84
543.827	2763.98
544.031	2924.21
544.236	2928.09
544.44	2898.64
544.645	2974.59
544.849	2885.07
545.054	2914.33
545.258	2978.27
545.463	2972.65
545.667	2856.79
545.872	2965.29
546.076	2965.09
546.281	2891.66
546.485	2924.6
546.689	2986.79
546.894	2978.65
547.098	2940.87
547.302	2930.8
547.507	2925.76
547.711	2927.7
547.915	2949.01
548.119	2898.83
548.324	2892.63
548.528	2961.02
548.732	2921.3
548.936	2979.23
549.141	3010.82
549.345	2935.25
549.549	2971.1
549.753	3049.37
549.957	3030.58
550.161	3048.21
550.366	3009.46
550.57	2988.15
550.774	2974.78
550.978	3026.32
551.182	3037.17
551.386	2955.21
551.59	3020.5
551.794	3005.97
551.998	3044.72
552.202	2980.59
552.406	2988.73
552.61	3064.87
552.814	3026.9
553.018	3063.13
553.222	2972.45
553.426	2978.07
553.63	3065.65
553.833	2992.6
554.037	2932.93
554.241	3013.33
554.445	2994.93
554.649	2976.33
554.853	2948.04
555.056	3033.1
555.26	3076.11
555.464	2979.23
555.668	2991.63
555.871	3048.98
556.075	3056.15
556.279	2992.8
556.483	2937.19
556.686	2965.87
556.89	2971.87
557.094	2961.99
557.297	2899.41
557.501	2937.19
557.704	2830.05
557.908	2927.89
558.112	2845.55
558.315	2933.32
558.519	2888.56
558.722	2845.74
558.926	2846.91
559.129	2758.94
559.333	2784.71
559.536	2816.1
559.74	2754.88
559.943	2768.83
560.147	2763.21
560.35	2746.54
560.553	2780.06
560.757	2738.79
560.96	2838.57
561.164	2800.79
561.367	2887.98
561.57	2817.07
561.774	2798.28
561.977	2750.23
562.18	2766.11
562.384	2851.36
562.587	2761.46
562.79	2763.01
562.993	2744.41
563.197	2769.6
563.4	2787.62
563.603	2770.38
563.806	2792.85
564.009	2709.93
564.212	2733.95
564.416	2653.16
564.619	2725.43
564.822	2630.49
565.025	2698.88
565.228	2664.78
565.431	2707.6
565.634	2589.8
565.837	2614.02
566.04	2582.44
566.243	2592.52
566.446	2530.13
566.649	2589.03
566.852	2509.79
567.055	2547.76
567.258	2577.98
567.461	2598.52
567.664	2598.52
567.867	2497.19
568.07	2505.52
568.273	2567.91
568.475	2582.83
568.678	2499.32
568.881	2441.39
569.084	2464.84
569.287	2330.38
569.489	2400.51
569.692	2469.68
569.895	2457.09
570.098	2385.59
570.3	2379.2
570.503	2313.71
570.706	2311.39
570.909	2320.88
571.111	2273.41
571.314	2276.71
571.516	2261.6
571.719	2313.91
571.922	2261.4
572.124	2240.09
572.327	2292.21
572.529	2249
572.732	2253.26
572.935	2298.21
573.137	2325.73
573.34	2215.48
573.542	2291.43
573.745	2285.81
573.947	2251.52
574.15	2213.16
574.352	2202.5
574.554	2251.91
574.757	2193.4
574.959	2153.29
575.162	2171.31
575.364	2131.78
575.566	2211.03
575.769	2096.14
575.971	2116.48
576.173	2014.37
576.376	2117.83
576.578	2167.43
576.78	2174.99
576.982	2037.82
577.185	2087.03
577.387	2063.97
577.589	2081.99
577.791	2096.52
577.993	2114.35
578.196	2076.18
578.398	2072.69
578.6	2058.35
578.802	2002.17
579.004	2002.17
579.206	2014.57
579.408	2054.09
579.61	2001.78
579.812	2075.02
580.014	1997.91
580.216	2013.41
580.418	1994.22
580.62	2028.32
580.822	2004.49
581.024	2044.21
581.226	2039.95
581.428	2029.1
581.63	2131.4
581.832	2019.02
582.034	2090.13
582.236	2041.11
582.438	2088.19
582.64	2136.24
582.841	2096.52
583.043	2167.05
583.245	2095.94
583.447	2100.59
583.649	2073.85
583.85	2080.83
584.052	2135.08
584.254	2017.28
584.456	2102.14
584.657	2003.72
584.859	2059.71
585.061	2043.44
585.262	2021.93
585.464	1969.23
585.666	2067.65
585.867	1953.54
586.069	2051.38
586.27	1984.34
586.472	1991.12
586.674	1977.76
586.875	1953.15
587.077	1987.06
587.278	2023.87
587.48	1960.51
587.681	2090.52
587.883	1982.99
588.084	1919.83
588.285	1908.78
588.487	1877.01
588.688	1876.62
588.89	1819.27
589.091	1784.4
589.292	1750.49
589.494	1734.22
589.695	1618.94
589.896	1569.14
590.098	1604.4
590.299	1676.09
590.5	1635.21
590.702	1681.32
590.903	1704.96
591.104	1790.98
591.305	1755.91
591.507	1810.16
591.708	1771.61
591.909	1734.02
592.11	1829.35
592.311	1792.73
592.512	1766.18
592.714	1719.68
592.915	1767.15
593.116	1767.15
593.317	1758.05
593.518	1754.56
593.719	1795.05
593.92	1759.01
594.121	1808.03
594.322	1770.83
594.523	1760.76
594.724	1716
594.925	1740.8
595.126	1787.69
595.327	1754.75
595.528	1788.27
595.729	1746.62
595.929	1754.75
596.13	1744.48
596.331	1802.8
596.532	1770.64
596.733	1843.88
596.934	1796.02
597.135	1819.27
597.335	1815.01
597.536	1738.87
597.737	1739.83
597.938	1744.68
598.138	1801.83
598.339	1766.38
598.54	1780.13
598.74	1725.3
598.941	1755.91
599.142	1851.24
599.342	1765.21
599.543	1760.56
599.744	1755.33
599.944	1750.49
600.145	1770.45
600.345	1749.13
600.546	1808.03
600.746	1858.79
600.947	1847.94
601.147	1790.79
601.348	1813.65
601.548	1734.99
601.749	1740.42
601.949	1737.32
602.15	1721.62
602.35	1719.1
602.551	1793.89
602.751	1715.23
602.951	1725.3
603.152	1696.24
603.352	1790.21
603.552	1753.59
603.753	1799.9
603.953	1763.08
604.153	1767.93
604.354	1760.37
604.554	1745.07
604.754	1761.15
604.954	1716
605.155	1784.4
605.355	1749.52
605.555	1783.81
605.755	1771.8
605.955	1750.1
606.155	1767.73
606.356	1742.93
606.556	1746.23
606.756	1734.02
606.956	1690.62
607.156	1796.99
607.356	1684.81
607.556	1729.37
607.756	1707.09
607.956	1744.87
608.156	1724.92
608.356	1646.06
608.556	1709.61
608.756	1668.92
608.956	1662.92
609.156	1693.14
609.356	1648.97
609.556	1644.32
609.755	1659.62
609.955	1664.66
610.155	1635.02
610.355	1661.37
610.555	1619.52
610.755	1653.62
610.954	1598.79
611.154	1610.8
611.354	1689.07
611.554	1591.42
611.753	1642.19
611.953	1559.26
612.153	1627.85
612.352	1603.44
612.552	1557.91
612.752	1540.86
612.951	1575.15
613.151	1577.28
613.351	1535.04
613.55	1565.66
613.75	1588.13
613.949	1561.2
614.149	1561.39
614.348	1555.19
614.548	1551.12
614.747	1488.54
614.947	1539.69
615.146	1486.03
615.346	1558.29
615.545	1573.79
615.745	1558.68
615.944	1546.09
616.144	1523.22
616.343	1521.67
616.542	1494.16
616.742	1525.55
616.941	1490.09
617.14	1435.84
617.34	1480.99
617.539	1448.44
617.738	1428.68
617.938	1496.29
618.137	1424.03
618.336	1449.02
618.535	1490.68
618.734	1473.63
618.934	1472.08
619.133	1455.41
619.332	1496.49
619.531	1418.99
619.73	1472.08
619.929	1498.04
620.128	1466.84
620.328	1480.02
620.527	1450.57
620.726	1440.49
620.925	1467.43
621.124	1456.96
621.323	1463.36
621.522	1403.68
621.721	1384.5
621.92	1399.42
622.119	1452.89
622.318	1393.61
622.517	1398.06
622.715	1432.74
622.914	1347.11
623.113	1384.11
623.312	1327.73
623.511	1390.31
623.71	1359.31
623.909	1370.55
624.107	1426.35
624.306	1334.9
624.505	1321.53
624.704	1332.77
624.902	1364.16
625.101	1391.86
625.3	1350.21
625.499	1289.37
625.697	1336.84
625.896	1335.87
626.095	1366.29
626.293	1304.29
626.492	1303.52
626.69	1352.92
626.889	1298.67
627.088	1369.78
627.286	1319.79
627.485	1290.73
627.683	1294.6
627.882	1285.88
628.08	1236.09
628.279	1262.25
628.477	1297.7
628.676	1229.89
628.874	1280.07
629.073	1233.18
629.271	1233.57
629.469	1268.06
629.668	1254.3
629.866	1226.4
630.065	1239.58
630.263	1265.93
630.461	1235.12
630.66	1246.17
630.858	1251.4
631.056	1288.6
631.254	1307.97
631.453	1267.09
631.651	1312.23
631.849	1287.05
632.047	1257.79
632.245	1258.37
632.444	1282.59
632.642	1294.41
632.84	1335.1
633.038	1269.03
633.236	1260.12
633.434	1275.42
633.632	1283.95
633.83	1265.54
634.028	1305.65
634.227	1263.02
634.425	1362.22
634.623	1274.45
634.821	1295.57
635.019	1320.18
635.216	1230.47
635.414	1325.21
635.612	1287.05
635.81	1333.16
636.008	1309.72
636.206	1282.59
636.404	1324.05
636.602	1237.25
636.8	1254.11
636.997	1269.61
637.195	1289.57
637.393	1297.7
637.591	1319.98
637.789	1291.12
637.986	1289.76
638.184	1280.27
638.382	1317.47
638.58	1322.5
638.777	1320.37
638.975	1273.48
639.173	1272.52
639.37	1276.58
639.568	1279.68
639.765	1286.27
639.963	1245.2
640.161	1286.85
640.358	1264.38
640.556	1225.44
640.753	1190.17
640.951	1190.37
641.148	1232.41
641.346	1206.45
641.543	1190.37
641.741	1242.87
641.938	1173.32
642.136	1207.42
642.333	1158.4
642.531	1220.79
642.728	1249.65
642.925	1200.25
643.123	1178.94
643.32	1209.55
643.517	1181.84
643.715	1188.82
643.912	1157.82
644.109	1183.2
644.306	1183.39
644.504	1137.86
644.701	1163.82
644.898	1163.24
645.095	1131.27
645.293	1160.14
645.49	1160.14
645.687	1115.97
645.884	1139.22
646.081	1016.77
646.278	1063.46
646.475	1066.37
646.672	1050.48
646.87	1088.26
647.067	1084.19
647.264	1086.91
647.461	1030.72
647.658	1006.11
647.855	1059.59
648.052	1025.88
648.249	962.71
648.446	1001.85
648.642	996.62
648.839	969.3
649.036	983.06
649.233	957.87
649.43	952.45
649.627	943.73
649.824	969.11
650.021	968.53
650.217	986.93
650.414	951.67
650.611	1001.08
650.808	986.16
651.004	1014.44
651.201	989.64
651.398	1057.07
651.595	1032.27
651.791	972.79
651.988	1018.9
652.185	956.9
652.381	1001.46
652.578	945.86
652.775	986.93
652.971	986.74
653.168	963.68
653.364	1018.9
653.561	904.78
653.757	973.95
653.954	994.49
654.15	944.7
654.347	1037.89
654.543	974.34
654.74	920.67
654.936	922.61
655.133	955.16
655.329	939.27
655.525	927.06
655.722	976.08
655.918	889.28
656.115	897.23
656.311	823.6
656.507	808.88
656.704	750.17
656.9	818.57
657.096	818.57
657.292	799
657.489	873.4
657.685	865.45
657.881	837.17
658.077	860.8
658.273	873.4
658.47	944.7
658.666	873.4
658.862	915.63
659.058	866.81
659.254	906.91
659.45	855.38
659.646	905.56
659.842	884.05
660.038	937.33
660.234	904.4
660.43	867.97
660.626	931.33
660.822	915.44
661.018	924.74
661.214	893.16
661.41	863.71
661.606	898.2
661.802	911.18
661.998	885.41
662.194	869.33
662.39	874.75
662.586	923.96
662.781	875.14
662.977	888.7
663.173	914.86
663.369	882.7
663.564	876.3
663.76	910.4
663.956	868.75
664.152	912.92
664.347	816.24
664.543	886.18
664.739	852.67
664.934	809.65
665.13	815.08
665.326	884.83
665.521	851.12
665.717	813.53
665.912	818.95
666.108	777.49
666.304	838.91
666.499	819.34
666.695	754.44
666.89	799.19
667.086	860.61
667.281	814.5
667.477	879.4
667.672	819.73
667.867	819.53
668.063	841.04
668.258	797.83
668.454	804.62
668.649	871.85
668.844	845.5
669.04	840.65
669.235	773.04
669.43	770.13
669.626	749.79
669.821	784.66
670.016	795.51
670.211	810.62
670.407	769.55
670.602	789.12
670.797	744.36
670.992	817.4
671.187	764.7
671.382	818.57
671.578	769.16
671.773	804.42
671.968	718.59
672.163	783.89
672.358	805.2
672.553	750.75
672.748	763.54
672.943	849.95
673.138	759.86
673.333	802.87
673.528	753.27
673.723	780.98
673.918	762.38
674.113	740.1
674.308	873.98
674.503	800.16
674.698	773.81
674.892	768.97
675.087	790.86
675.282	792.99
675.477	782.34
675.672	794.15
675.867	744.55
676.061	748.04
676.256	706
676.451	752.11
676.646	772.65
676.84	745.14
677.035	761.6
677.23	736.42
677.424	783.3
677.619	782.92
677.814	815.47
678.008	795.7
678.203	700.38
678.397	722.66
678.592	774.2
678.787	788.34
678.981	746.3
679.176	794.73
679.37	776.91
679.565	728.67
679.759	746.49
679.954	804.23
680.148	799.77
680.342	823.99
680.537	789.5
680.731	762.77
680.926	787.95
681.12	800.16
681.314	741.45
681.509	771.68
681.703	789.12
681.897	811.01
682.092	781.95
682.286	811.01
682.48	875.33
682.674	810.82
682.869	768.97
683.063	808.3
683.257	849.37
683.451	765.29
683.645	816.63
683.839	791.44
684.034	795.32
684.228	807.33
684.422	755.4
684.616	783.5
684.81	830
685.004	791.83
685.198	797.83
685.392	836.39
685.586	780.01
685.78	847.05
685.974	844.92
686.168	825.15
686.362	897.61
686.556	772.07
686.75	734.67
686.944	726.34
687.138	725.57
687.331	654.07
687.525	644.97
687.719	595.76
687.913	656.59
688.107	668.99
688.301	632.57
688.494	685.85
688.688	671.12
688.882	627.92
689.076	660.08
689.269	673.06
689.463	757.54
689.657	705.42
689.85	693.79
690.044	727.31
690.238	742.04
690.431	734.48
690.625	731.38
690.818	777.69
691.012	810.43
691.205	848.98
691.399	781.17
691.593	847.82
691.786	893.93
691.98	930.36
692.173	942.18
692.366	930.36
692.56	956.71
692.753	979.76
692.947	941.01
693.14	1006.31
693.333	1021.61
693.527	954
693.72	1013.09
693.914	1019.48
694.107	991.78
694.3	1048.54
694.493	1000.69
694.687	1098.14
694.88	1049.13
695.073	1127.21
695.266	1124.11
695.46	1149.1
695.653	1169.83
695.846	1208.39
696.039	1168.67
696.232	1176.03
696.425	1264.18
696.618	1253.14
696.812	1275.62
697.005	1343.81
697.198	1418.41
697.391	1384.5
697.584	1387.99
697.777	1462.58
697.97	1472.27
698.163	1473.04
698.356	1508.31
698.549	1544.73
698.742	1528.84
698.935	1502.11
699.127	1560.62
699.32	1499.01
699.513	1517.02
699.706	1544.15
699.899	1580.96
700.092	1598.98
700.285	1595.1
700.477	1565.07
700.67	1613.9
700.863	1621.26
701.056	1734.02
701.248	1669.89
701.441	1728.79
701.634	1674.73
701.826	1797.18
702.019	1684.42
702.212	1770.64
702.404	1719.88
702.597	1754.95
702.79	1760.76
702.982	1813.07
703.175	1825.86
703.367	1868.87
703.56	1894.83
703.752	2000.81
703.945	1980.66
704.137	1980.27
704.33	2007.01
704.522	2044.6
704.715	2042.47
704.907	2062.04
705.1	2162.78
705.292	2132.37
705.484	2082.19
705.677	2164.33
705.869	2189.72
706.061	2248.81
706.254	2268.96
706.446	2215.48
706.638	2235.63
706.831	2288.53
707.023	2279.42
707.215	2395.28
707.407	2320.69
707.599	2362.54
707.792	2441.97
707.984	2416.21
708.176	2454.95
708.368	2406.13
708.56	2464.06
708.752	2469.49
708.944	2490.99
709.136	2541.56
709.329	2530.71
709.521	2644.63
709.713	2622.55
709.905	2629.52
710.097	2639.21
710.289	2586.12
710.481	2622.55
710.672	2659.16
710.864	2669.82
711.056	2711.48
711.248	2700.05
711.44	2720.58
711.632	2722.52
711.824	2800.21
712.016	2811.06
712.207	2842.84
712.399	2808.74
712.591	2856.79
712.783	2902.9
712.975	2851.36
713.166	2821.72
713.358	2893.4
713.55	2946.49
713.741	2915.3
713.933	2994.93
714.125	2961.99
714.316	2936.8
714.508	3017.79
714.7	3013.14
714.891	2977.3
715.083	3028.64
715.274	2997.06
715.466	3012.56
715.657	3041.04
715.849	2950.95
716.04	2998.61
716.232	2933.51
716.423	2958.7
716.615	2841.09
716.806	2787.62
716.998	2710.51
717.189	2648.9
717.381	2529.35
717.572	2510.37
717.763	2491.38
717.955	2475.88
718.146	2434.22
718.337	2370.29
718.528	2317.78
718.72	2216.45
718.911	2255.2
719.102	2205.41
719.293	2260.24
719.485	2190.68
719.676	2231.56
719.867	2154.07
720.058	2173.44
720.249	2166.08
720.44	2182.55
720.632	2219.55
720.823	2370.09
721.014	2454.95
721.205	2537.88
721.396	2621.38
721.587	2768.44
721.778	2806.02
721.969	2816.49
722.16	2891.85
722.351	2957.92
722.542	3078.82
722.733	3079.79
722.924	2969.74
723.115	3017.02
723.305	2993.77
723.496	2988.34
723.687	2867.64
723.878	2853.69
724.069	2855.04
724.26	2902.12
724.45	2761.27
724.641	2769.21
724.832	2798.08
725.023	2775.03
725.213	2737.63
725.404	2720
725.595	2747.13
725.785	2743.83
725.976	2821.72
726.167	2800.6
726.357	2763.01
726.548	2887.98
726.739	2772.12
726.929	2858.14
727.12	2924.99
727.31	2940.1
727.501	2877.91
727.691	2891.85
727.882	2870.74
728.072	2937
728.263	2933.7
728.453	3007.72
728.644	3008.68
728.834	2955.99
729.024	2897.47
729.215	2949.01
729.405	2968.77
729.596	3039.68
729.786	3030.97
729.976	3067
730.167	3073.01
730.357	3047.24
730.547	3028.45
730.737	3089.48
730.928	3080.76
731.118	3157.48
731.308	3141.21
731.498	3123.77
731.688	3235.95
731.879	3226.07
732.069	3320.81
732.259	3316.74
732.449	3404.12
732.639	3456.24
732.829	3505.26
733.019	3531.03
733.209	3625.19
733.399	3624.22
733.589	3755.58
733.779	3759.07
733.969	3779.02
734.159	3881.32
734.349	3895.85
734.539	3989.24
734.729	3929.37
734.919	3947.58
735.109	4033.61
735.299	3900.5
735.488	3963.47
735.678	4012.88
735.868	3954.95
736.058	3951.65
736.248	3939.45
736.437	3910.38
736.627	3889.07
736.817	4028.96
737.007	3919.3
737.196	4036.32
737.386	3996.21
737.576	3977.23
737.765	4075.84
737.955	4040.97
738.144	4148.31
738.334	4111.49
738.524	4054.34
738.713	4113.43
738.903	4095.03
739.092	4088.24
739.282	4094.44
739.471	4147.14
739.661	4119.82
739.85	4167.68
740.04	4145.21
740.229	4206.43
740.419	4238.2
740.608	4251.57
740.797	4233.94
740.987	4286.84
741.176	4254.67
741.365	4198.49
741.555	4220.38
741.744	4340.5
741.933	4276.76
742.123	4252.93
742.312	4306.79
742.501	4326.75
742.69	4374.22
742.88	4258.16
743.069	4421.49
743.258	4374.6
743.447	4386.42
743.636	4342.44
743.825	4358.72
744.014	4381
744.204	4402.7
744.393	4315.32
744.582	4452.3
744.771	4476.9
744.96	4408.12
745.149	4420.33
745.338	4354.65
745.527	4449.39
745.716	4442.8
745.905	4417.23
746.094	4464.69
746.283	4458.11
746.471	4436.8
746.66	4473.61
746.849	4444.55
747.038	4417.61
747.227	4458.3
747.416	4426.33
747.604	4442.22
747.793	4399.98
747.982	4463.15
748.171	4484.84
748.359	4445.51
748.548	4439.12
748.737	4453.46
748.926	4426.53
749.114	4340.5
749.303	4440.86
749.491	4389.71
749.68	4316.09
749.869	4463.53
750.057	4409.09
750.246	4346.32
750.434	4344.77
750.623	4357.94
750.811	4296.91
751	4376.73
751.188	4302.53
751.377	4305.63
751.565	4366.27
751.754	4283.15
751.942	4341.67
752.131	4408.51
752.319	4339.92
752.507	4282.38
752.696	4367.82
752.884	4300.4
753.072	4291.1
753.261	4300.59
753.449	4343.6
753.637	4270.56
753.825	4385.26
754.014	4303.3
754.202	4277.15
754.39	4370.53
754.578	4301.75
754.766	4260.87
754.955	4221.93
755.143	4268.04
755.331	4272.89
755.519	4251.77
755.707	4288
755.895	4217.86
756.083	4232.97
756.271	4138.81
756.459	4188.99
756.647	4239.17
756.835	4192.29
757.023	4219.02
757.211	4198.29
757.399	4222.32
757.587	4199.07
757.775	4097.74
757.963	4121.57
758.151	4108.98
758.339	4077.59
758.526	4099.29
758.714	4103.94
758.902	4000.48
759.09	3858.46
759.278	3579.66
759.465	3307.64
759.653	2923.63
759.841	2610.34
760.028	2262.95
760.216	1965.55
760.404	1802.22
760.591	1504.43
760.779	1246.94
760.967	1117.52
761.154	942.56
761.342	946.44
761.529	912.73
761.717	966.98
761.905	934.81
762.092	1029.56
762.28	951.86
762.467	935.01
762.655	851.12
762.842	879.21
763.029	888.51
763.217	885.21
763.404	896.26
763.592	899.36
763.779	892.96
763.966	938.3
764.154	963.68
764.341	1037.11
764.528	1015.8
764.716	1147.55
764.903	1173.12
765.09	1253.14
765.277	1323.28
765.465	1478.08
765.652	1592.78
765.839	1623.59
766.026	1840.58
766.213	1882.63
766.4	1988.99
766.588	2210.45
766.775	2230.98
766.962	2415.43
767.149	2477.24
767.336	2661.68
767.523	2660.91
767.71	2797.69
767.897	2939.9
768.084	2996.67
768.271	3110.01
768.458	3165.81
768.645	3227.81
768.832	3231.49
769.019	3311.9
769.206	3327.59
769.392	3447.72
769.579	3528.12
769.766	3491.89
769.953	3506.81
770.14	3559.7
770.327	3538.58
770.513	3585.08
770.7	3636.43
770.887	3621.51
771.073	3610.46
771.26	3630.61
771.447	3622.09
771.634	3584.89
771.82	3711.79
772.007	3631.97
772.193	3626.74
772.38	3650.18
772.567	3642.43
772.753	3623.25
772.94	3713.92
773.126	3674.98
773.313	3652.7
773.499	3621.51
773.686	3666.07
773.872	3640.49
774.059	3681.76
774.245	3642.24
774.432	3662.78
774.618	3553.31
774.804	3654.44
774.991	3582.37
775.177	3595.35
775.363	3585.47
775.55	3651.15
775.736	3552.92
775.922	3545.36
776.109	3589.93
776.295	3628.09
776.481	3597.48
776.667	3639.72
776.853	3575.4
777.04	3544.2
777.226	3524.63
777.412	3567.65
777.598	3563.96
777.784	3516.5
777.97	3526.38
778.156	3539.16
778.342	3475.23
778.528	3481.82
778.715	3494.6
778.901	3459.73
779.087	3498.87
779.272	3464.77
779.458	3428.53
779.644	3427.18
779.83	3462.05
780.016	3493.83
780.202	3435.12
780.388	3445.58
780.574	3358.59
780.76	3408.19
780.946	3458.76
781.131	3379.9
781.317	3338.64
781.503	3384.75
781.689	3357.24
781.874	3504.87
782.06	3360.92
782.246	3397.54
782.432	3352
782.617	3363.05
782.803	3392.89
782.989	3311.9
783.174	3339.8
783.36	3300.66
783.545	3258.23
783.731	3320.81
783.916	3226.26
784.102	3336.12
784.288	3274.12
784.473	3283.03
784.659	3203.01
784.844	3241.57
785.029	3246.02
785.215	3199.91
785.4	3165.62
785.586	3273.54
785.771	3133.46
785.956	3205.34
786.142	3174.14
786.327	3182.09
786.512	3154.38
786.698	3156.32
786.883	3054.22
787.068	3114.86
787.254	3146.83
787.439	3099.55
787.624	3061.38
787.809	3071.65
787.994	3041.43
788.18	3105.36
788.365	2989.7
788.55	3024.18
788.735	2999
788.92	3022.05
789.105	2971.87
789.29	3029.8
789.475	2936.03
789.66	2969.74
789.845	2908.32
790.03	2926.54
790.215	2969.16
790.4	2974.97
790.585	2986.6
790.77	2937.19
790.955	2886.43
791.14	2912.78
791.325	2976.14
791.51	2844.19
791.695	2868.99
791.879	2911.23
792.064	2820.17
792.249	2904.84
792.434	2893.21
792.618	2914.52
792.803	2962.19
792.988	2889.34
793.173	2930.6
793.357	2946.3
793.542	2899.99
793.727	2874.22
793.911	2950.56
794.096	2901.74
794.281	2952.89
794.465	3030.58
794.65	2953.08
794.834	2943.97
795.019	3033.1
795.203	2994.35
795.388	2988.15
795.572	2997.64
795.757	2996.48
795.941	2980.01
796.126	2988.34
796.31	2857.17
796.494	2921.89
796.679	2928.86
796.863	2869.77
797.048	2981.37
797.232	2906.77
797.416	2980.98
797.601	2966.45
797.785	3004.81
797.969	2978.27
798.153	2903.29
798.338	2955.79
798.522	3000.93
798.706	3014.88
798.89	3010.43
799.074	3093.55
799.258	3077.66
799.443	3021.28
799.627	3026.51
799.811	3084.25
799.995	3012.75
800.179	2946.49
800.363	2949.4
800.547	3001.52
800.731	3022.63
800.915	2920.72
801.099	2924.21
801.283	2918.2
801.467	2936.03
801.651	2968.39
801.835	2967.03
802.019	2967.03
802.202	2947.65
802.386	2917.62
802.57	2925.37
802.754	2920.53
802.938	2902.32
803.121	2906.19
803.305	2980.59
803.489	2914.72
803.673	2949.2
803.856	2912.78
804.04	2980.2
804.224	2959.47
804.407	2941.07
804.591	2888.76
804.775	2924.6
804.958	2956.18
805.142	3017.98
805.326	2946.3
805.509	2968.77
805.693	3001.52
805.876	3021.28
806.06	2995.7
806.243	2985.43
806.427	3027.67
806.61	3070.3
806.794	3003.45
806.977	3031.16
807.16	3009.07
807.344	3006.17
807.527	2994.54
807.71	3010.04
807.894	2970.52
808.077	2981.75
808.26	2944.36
808.444	2924.79
808.627	2992.6
808.81	2907.35
808.993	2848.46
809.177	2853.3
809.36	2865.12
809.543	2844.77
809.726	2756.04
809.909	2812.22
810.092	2773.48
810.276	2770.38
810.459	2764.18
810.642	2737.44
810.825	2695.98
811.008	2712.45
811.191	2628.36
811.374	2616.35
811.557	2683.58
811.74	2697.14
811.923	2607.43
812.106	2560.55
812.289	2553.77
812.472	2538.46
812.654	2553.18
812.837	2498.35
813.02	2429.96
813.203	2406.52
813.386	2325.34
813.569	2255.78
813.751	2212.58
813.934	2265.47
814.117	2235.83
814.3	2167.63
814.482	2078.12
814.665	2052.54
814.848	2032.39
815.03	1974.85
815.213	1970.59
815.396	1946.56
815.578	1896.96
815.761	1883.01
815.943	1957.99
816.126	1856.28
816.309	1787.5
816.491	1742.55
816.674	1673.57
816.856	1745.26
817.039	1695.27
817.221	1838.45
817.403	1772.19
817.586	1803.58
817.768	1765.99
817.951	1677.25
818.133	1701.67
818.315	1734.8
818.498	1798.15
818.68	1807.26
818.862	1806.87
819.045	1836.13
819.227	1798.15
819.409	1810.16
819.591	1818.5
819.774	1822.37
819.956	1772.19
820.138	1856.08
820.32	1861.7
820.502	1928.54
820.684	2000.04
820.866	2007.21
821.048	2055.25
821.231	2076.37
821.413	2066.69
821.595	2051.57
821.777	2045.57
821.959	2009.92
822.141	2115.7
822.323	1972.52
822.505	1871.58
822.686	1829.93
822.868	1730.53
823.05	1607.7
823.232	1613.32
823.414	1541.24
823.596	1575.73
823.778	1576.12
823.96	1623.2
824.141	1615.84
824.323	1625.72
824.505	1743.52
824.687	1790.01
824.868	1868.68
825.05	1958.38
825.232	1964.97
825.413	2047.31
825.595	2008.56
825.777	1966.32
825.958	2014.37
826.14	1990.74
826.321	2014.37
826.503	2023.48
826.685	1996.16
826.866	2031.42
827.048	2025.42
827.229	1937.84
827.411	1910.53
827.592	1889.6
827.773	1837.48
827.955	1797.76
828.136	1833.41
828.318	1762.7
828.499	1834.58
828.68	1768.7
828.862	1792.15
829.043	1809.39
829.224	1771.41
829.406	1755.72
829.587	1743.13
829.768	1820.24
829.949	1769.67
830.131	1787.5
830.312	1844.46
830.493	1789.63
830.674	1774.32
830.855	1800.67
831.036	1797.18
831.218	1858.99
831.399	1859.18
831.58	1820.24
831.761	1842.91
831.942	1808.03
832.123	1768.51
832.304	1757.27
832.485	1774.71
832.666	1768.51
832.847	1813.07
833.028	1775.1
833.209	1791.76
833.389	1780.13
833.57	1751.46
833.751	1753.78
833.932	1824.7
834.113	1798.15
834.294	1792.73
834.475	1852.4
834.655	1890.18
834.836	1857.24
835.017	1844.65
835.198	1820.24
835.378	1828.57
835.559	1850.85
835.74	1812.49
835.92	1796.02
836.101	1806.29
836.281	1889.41
836.462	1880.11
836.643	1913.82
836.823	1904.91
837.004	1918.08
837.184	1912.27
837.365	1896.77
837.545	1923.89
837.726	1890.18
837.906	1920.41
838.087	1878.36
838.267	1894.25
838.448	1840.39
838.628	1892.31
838.808	1895.03
838.989	1940.17
839.169	1879.91
839.349	1935.91
839.53	1925.44
839.71	1932.81
839.89	1889.79
840.07	1930.48
840.251	1872.16
840.431	1921.57
840.611	1875.65
840.791	1859.18
840.971	1898.32
841.151	1894.83
841.332	1860.34
841.512	1924.28
841.692	1863.83
841.872	1899.48
842.052	1863.64
842.232	1881.08
842.412	1830.7
842.592	1861.51
842.772	1913.43
842.952	1888.05
843.132	1883.98
843.312	1846.59
843.492	1808.42
843.672	1932.22
843.851	1839.03
844.031	1854.53
844.211	1841.55
844.391	1804.93
844.571	1835.74
844.751	1856.28
844.93	1802.22
845.11	1830.31
845.29	1817.33
845.47	1852.21
845.649	1879.72
845.829	1873.91
846.009	1829.54
846.188	1850.46
846.368	1841.16
846.547	1819.85
846.727	1871
846.907	1832.06
847.086	1820.05
847.266	1859.76
847.445	1800.09
847.625	1769.86
847.804	1763.28
847.984	1798.73
848.163	1783.23
848.343	1770.06
848.522	1812.88
848.701	1772
848.881	1782.85
849.06	1784.78
849.239	1781.88
849.419	1772
849.598	1715.62
849.777	1699.15
849.957	1683.45
850.136	1625.33
850.315	1624.17
850.494	1655.75
850.674	1643.74
850.853	1676.87
851.032	1638.12
851.211	1695.66
851.39	1676.09
851.569	1617.97
851.748	1593.75
851.927	1712.52
852.107	1667.18
852.286	1678.8
852.465	1613.7
852.644	1670.47
852.823	1630.17
853.002	1643.15
853.181	1679.19
853.359	1701.08
853.538	1583.48
853.717	1640.83
853.896	1542.41
854.075	1487.96
854.254	1464.91
854.433	1368.81
854.611	1440.88
854.79	1394.96
854.969	1432.36
855.148	1495.71
855.327	1423.25
855.505	1529.81
855.684	1438.75
855.863	1502.3
856.041	1477.89
856.22	1545.12
856.399	1480.99
856.577	1598.59
856.756	1596.27
856.934	1695.66
857.113	1655.17
857.291	1607.7
857.47	1582.9
857.648	1584.45
857.827	1623
858.005	1600.53
858.184	1601.89
858.362	1661.56
858.541	1557.52
858.719	1576.89
858.898	1569.34
859.076	1579.99
859.254	1615.45
859.433	1548.99
859.611	1555.77
859.789	1519.35
859.967	1551.12
860.146	1586.19
860.324	1523.61
860.502	1545.89
860.68	1492.23
860.859	1504.24
861.037	1509.66
861.215	1516.83
861.393	1511.99
861.571	1514.89
861.749	1493.19
861.927	1520.71
862.105	1489.9
862.283	1496.68
862.461	1503.85
862.639	1452.12
862.817	1488.74
862.995	1550.35
863.173	1468.78
863.351	1489.32
863.529	1518.77
863.707	1487.19
863.885	1516.06
864.063	1423.06
864.241	1470.14
864.418	1515.67
864.596	1459.09
864.774	1445.34
864.952	1461.42
865.129	1436.23
865.307	1463.94
865.485	1376.17
865.663	1443.4
865.84	1356.41
866.018	1359.12
866.196	1290.73
866.373	1263.8
866.551	1239
866.728	1204.51
866.906	1270.58
867.084	1259.34
867.261	1309.52
867.439	1318.82
867.616	1342.46
867.794	1320.95
867.971	1355.83
868.149	1354.66
868.326	1388.76
868.503	1384.11
868.681	1360.48
868.858	1314.37
869.035	1310.1
869.213	1375.98
869.39	1351.56
869.567	1392.83
869.745	1354.47
869.922	1326.76
870.099	1375.98
870.276	1385.66
870.454	1375.2
870.631	1357.18
870.808	1337.81
870.985	1386.63
871.162	1410.08
871.339	1330.83
871.517	1274.26
871.694	1300.22
871.871	1323.08
872.048	1289.37
872.225	1328.31
872.402	1321.34
872.579	1281.04
872.756	1334.51
872.933	1300.8
873.11	1310.1
873.287	1325.6
873.463	1288.21
873.64	1240.55
873.817	1284.14
873.994	1273.87
874.171	1283.17
874.348	1308.55
874.524	1195.99
874.701	1280.46
874.878	1211.87
875.055	1248.68
875.231	1246.94
875.408	1244.62
875.585	1201.02
875.762	1239.97
875.938	1231.44
876.115	1238.22
876.291	1214.97
876.468	1213.81
876.645	1195.4
876.821	1204.32
876.998	1223.69
877.174	1217.49
877.351	1209.55
877.527	1175.06
877.704	1198.89
877.88	1202.38
878.057	1209.35
878.233	1231.44
878.409	1167.12
878.586	1187.65
878.762	1173.51
878.938	1200.83
879.115	1122.36
879.291	1194.82
879.467	1106.67
879.644	1157.04
879.82	1202.77
879.996	1157.82
880.172	1111.51
880.349	1145.61
880.525	1179.32
880.701	1097.95
880.877	1104.15
881.053	1153.55
881.229	1075.47
881.405	1164.21
881.581	1124.49
881.757	1115.77
881.933	1156.07
882.109	1173.7
882.285	1132.24
882.461	1059.01
882.637	1128.95
882.813	1095.04
882.989	1109.96
883.165	1149.29
883.341	1085.74
883.517	1140.57
883.693	1155.69
883.869	1167.5
884.044	1120.42
884.22	1132.05
884.396	1183.97
884.572	1126.82
884.747	1157.04
884.923	1156.07
885.099	1157.43
885.275	1154.72
885.45	1144.25
885.626	1110.54
885.801	1088.46
885.977	1105.51
886.153	1051.45
886.328	1152.97
886.504	1077.8
886.679	1118.68
886.855	1083.22
887.03	1092.52
887.206	1149.68
887.381	1141.93
887.557	1112.29
887.732	1107.06
887.908	1121.39
888.083	1143.09
888.258	1097.17
888.434	1060.36
888.609	1120.04
888.784	1166.34
888.96	1091.94
889.135	1094.66
889.31	1054.94
889.485	1132.24
889.661	1127.98
889.836	1161.3
890.011	1128.95
890.186	1101.82
890.361	1114.22
890.537	1123.91
890.712	1121.39
890.887	1144.25
891.062	1132.24
891.237	1166.92
891.412	1103.57
891.587	1097.76
891.762	1110.93
891.937	1140.19
892.112	1063.85
892.287	1089.04
892.462	1027.04
892.637	1029.75
892.812	1028.2
892.987	987.13
893.161	1008.05
893.336	1010.96
893.511	998.56
893.686	1028.2
893.861	989.06
894.035	995.26
894.21	1013.09
894.385	952.45
894.56	987.13
894.734	890.64
894.909	897.61
895.084	917.76
895.258	880.76
895.433	913.7
895.608	885.6
895.782	824.38
895.957	856.93
896.131	842.98
896.306	776.91
896.48	798.22
896.655	766.06
896.829	708.32
897.004	706.77
897.178	736.42
897.353	722.08
897.527	749.01
897.701	726.34
897.876	672.09
898.05	781.56
898.224	746.88
898.399	755.99
898.573	741.26
898.747	617.46
898.921	679.26
899.096	599.24
899.27	579.87
899.444	575.8
899.618	607.77
899.792	625.21
899.967	605.64
900.141	671.32
900.315	627.92
900.489	586.84
900.663	620.36
900.837	615.33
901.011	555.46
901.185	675.19
901.359	627.34
901.533	625.01
901.707	645.55
901.881	626.56
902.055	597.5
902.229	625.21
902.403	691.66
902.576	632.37
902.75	633.15
902.924	722.85
903.098	681.97
903.272	726.54
903.446	795.51
903.619	757.54
903.793	785.82
903.967	764.12
904.14	828.83
904.314	801.52
904.488	798.03
904.661	819.73
904.835	826.9
905.009	822.83
905.182	857.51
905.356	822.44
905.529	782.92
905.703	793.57
905.876	753.27
906.05	733.7
906.223	711.81
906.397	662.99
906.57	653.88
906.744	642.26
906.917	602.15
907.09	623.85
907.264	625.98
907.437	573.86
907.61	559.53
907.784	589.75
907.957	607.19
908.13	560.49
908.304	598.08
908.477	544.99
908.65	581.42
908.823	510.7
908.996	584.13
909.17	526.78
909.343	530.46
909.516	561.46
909.689	555.46
909.862	511.48
910.035	543.64
910.208	539.38
910.381	523.1
910.554	599.63
910.727	528.53
910.9	537.24
911.073	539.76
911.246	579.29
911.419	613
911.592	558.94
911.765	539.38
911.938	548.09
912.11	540.73
912.283	524.85
912.456	576.96
912.629	557.01
912.802	509.54
912.974	459.94
913.147	441.73
913.32	410.53
913.493	440.95
913.665	442.89
913.838	476.21
914.01	469.82
914.183	499.85
914.356	474.86
914.528	525.43
914.701	529.5
914.873	515.93
915.046	443.28
915.218	417.12
915.391	368.68
915.563	396.78
915.736	453.55
915.908	453.74
916.081	467.11
916.253	467.11
916.425	480.09
916.598	492.68
916.77	496.36
916.942	431.46
917.115	365.58
917.287	447.15
917.459	405.69
917.632	377.98
917.804	326.45
917.976	404.14
918.148	420.22
918.32	462.46
918.493	460.91
918.665	510.7
918.837	468.46
919.009	538.99
919.181	532.4
919.353	518.45
919.525	499.85
919.697	515.93
919.869	498.88
920.041	546.74
920.213	635.47
920.385	516.9
920.557	532.98
920.729	553.91
920.901	528.53
921.073	514.58
921.244	486.87
921.416	522.71
921.588	498.5
921.76	481.64
921.932	552.16
922.103	536.66
922.275	527.95
922.447	539.18
922.619	438.82
922.79	490.36
922.962	461.88
923.134	497.91
923.305	444.83
923.477	439.6
923.648	424.87
923.82	452.58
923.991	395.42
924.163	360.16
924.335	431.07
924.506	390
924.677	444.83
924.849	395.42
925.02	446.76
925.192	443.28
925.363	418.28
925.535	410.53
925.706	399.1
925.877	475.25
926.049	365.2
926.22	427.97
926.391	434.17
926.562	460.33
926.734	404.33
926.905	492.3
927.076	394.65
927.247	414.8
927.419	352.8
927.59	353.38
927.761	340.2
927.932	317.34
928.103	334.59
928.274	296.03
928.445	269.87
928.616	313.47
928.787	291.19
928.958	334.39
929.129	282.47
929.3	275.3
929.471	254.57
929.642	199.54
929.813	168.16
929.984	258.64
930.155	177.46
930.326	228.02
930.496	189.08
930.667	124.76
930.838	145.1
931.009	133.28
931.18	164.67
931.35	168.74
931.521	166.41
931.692	109.06
931.863	77.29
932.033	134.06
932.204	121.85
932.374	118.75
932.545	83.88
932.716	114.49
932.886	118.17
933.057	54.23
933.227	72.45
933.398	128.63
933.568	55.59
933.739	19.94
933.909	42.22
934.08	90.46
934.25	-6.8
934.421	52.68
934.591	60.43
934.761	32.92
934.932	-10.48
935.102	23.23
935.272	30.01
935.443	33.11
935.613	41.06
935.783	78.84
935.953	17.42
936.123	139.48
936.294	47.84
936.464	30.21
936.634	38.15
936.804	1.34
936.974	-17.26
937.144	54.62
937.314	39.7
937.484	38.93
937.655	-0.4
937.825	64.31
937.995	26.33
938.165	96.08
938.334	31.56
938.504	45.9
938.674	43.77
938.844	51.13
939.014	110.61
939.184	98.6
939.354	146.84
939.524	133.67
939.694	60.63
939.863	69.73
940.033	142.19
940.203	135.99
940.373	119.14
940.542	108.87
940.712	75.74
940.882	118.75
941.051	128.24
941.221	131.34
941.391	157.69
941.56	90.46
941.73	78.06
941.899	169.71
942.069	67.21
942.238	112.16
942.408	69.73
942.577	104.03
942.747	80.97
942.916	38.93
943.086	44.16
943.255	120.3
943.425	117.78
943.594	80.2
943.763	25.17
943.933	47.84
944.102	12.19
944.271	61.98
944.441	61.01
944.61	63.92
944.779	56.17
944.948	128.83
945.117	46.29
945.287	57.53
945.456	2.89
945.625	45.32
945.794	76.71
945.963	36.41
946.132	75.93
946.301	40.28
946.47	103.64
946.639	21.49
946.808	28.85
946.977	64.89
947.146	95.5
947.315	68.57
947.484	82.33
947.653	60.24
947.822	34.28
947.991	46.48
948.16	137.93
948.329	116.04
948.498	65.08
948.666	36.41
948.835	94.73
949.004	30.4
949.173	23.23
949.341	70.7
949.51	84.26
949.679	89.3
949.847	79.42
950.016	113.13
950.185	105.58
950.353	71.48
950.522	59.85
950.69	89.11
950.859	70.9
951.028	129.99
951.196	87.56
951.365	48.03
951.533	82.71
951.701	95.89
951.87	62.18
952.038	60.82
952.207	71.28
952.375	110.81
952.543	47.26
952.712	47.45
952.88	49.2
953.048	150.72
953.217	64.7
953.385	70.7
953.553	121.08
953.721	31.95
953.89	46.87
954.058	43.96
954.226	44.74
954.394	62.95
954.562	5.99
954.73	52.3
954.898	59.27
955.067	104.61
955.235	49.2
955.403	98.21
955.571	117.2
955.739	67.99
955.907	38.93
956.075	29.63
956.243	37.57
956.41	70.31
956.578	54.23
956.746	50.36
956.914	86.2
957.082	103.64
957.25	83.1
957.418	68.38
957.585	87.36
957.753	120.88
957.921	48.03
958.089	59.46
958.256	74.38
958.424	75.74
958.592	70.7
958.759	24.59
958.927	115.84
959.095	53.65
959.262	29.24
959.43	78.06
959.597	40.28
959.765	77.1
959.932	36.21
960.1	87.17
960.267	69.54
960.435	65.47
960.602	108.87
960.77	78.84
960.937	64.5
961.104	84.85
961.272	67.41
961.439	67.99
961.606	122.63
961.774	105.38
961.941	59.66
962.108	100.93
962.275	92.6
962.443	109.06
962.61	104.8
962.777	144.13
962.944	107.71
963.111	83.1
963.278	100.54
963.446	78.84
963.613	66.63
963.78	87.95
963.947	109.84
964.114	104.8
964.281	146.46
964.448	113.52
964.615	76.13
964.782	75.93
964.949	134.25
965.116	114.68
965.282	140.84
965.449	75.16
965.616	66.44
965.783	116.62
965.95	108.87
966.117	64.11
966.283	87.17
966.45	70.9
966.617	93.95
966.784	114.68
966.95	120.3
967.117	121.85
967.284	75.74
967.45	116.43
967.617	143.36
967.784	145.49
967.95	141.42
968.117	99.38
968.283	145.68
968.45	190.63
968.616	127.28
968.783	158.28
968.949	146.65
969.116	178.04
969.282	116.81
969.449	129.21
969.615	115.07
969.781	94.92
969.948	87.17
970.114	106.54
970.28	160.79
970.447	122.04
970.613	142
970.779	123.59
970.945	115.26
971.112	139.87
971.278	108.68
971.444	107.32
971.61	122.24
971.776	109.45
971.942	128.83
972.108	134.44
972.275	121.27
972.441	135.41
972.607	171.45
972.773	107.71
972.939	140.64
973.105	104.99
973.271	90.46
973.437	116.43
973.602	98.99
973.768	97.24
973.934	100.34
974.1	129.41
974.266	51.71
974.432	98.41
974.598	114.1
974.763	128.44
974.929	69.93
975.095	152.46
975.261	75.35
975.426	89.11
975.592	103.64
975.758	161.76
975.923	43.58
976.089	90.27
976.255	148.98
976.42	96.86
976.586	103.64
976.751	122.63
976.917	178.81
977.082	127.28
977.248	43.96
977.413	69.93
977.579	87.36
977.744	94.73
977.91	69.54
978.075	65.08
978.24	117.59
978.406	98.02
978.571	84.26
978.736	84.07
978.902	104.99
979.067	62.95
979.232	29.43
979.397	113.52
979.563	141.61
979.728	45.9
979.893	92.98
980.058	62.56
980.223	158.28
980.388	96.86
980.554	107.9
980.719	58.5
980.884	105.38
981.049	127.08
981.214	68.18
981.379	87.56
981.544	79.42
981.709	81.16
981.874	118.17
982.039	84.65
982.204	119.91
982.368	102.86
982.533	61.6
982.698	122.43
982.863	160.41
983.028	90.27
983.193	107.71
983.357	104.8
983.522	114.68
983.687	102.28
983.852	83.3
984.016	90.27
984.181	114.68
984.346	119.53
984.51	120.11
984.675	90.85
984.839	103.06
985.004	113.91
985.168	152.66
985.333	126.11
985.498	92.6
985.662	121.08
985.827	127.86
985.991	89.3
986.155	91.63
986.32	118.36
986.484	152.08
986.649	111.97
986.813	49.58
986.977	139.29
987.142	113.91
987.306	72.06
987.47	75.35
987.634	92.6
987.799	101.89
987.963	94.73
988.127	89.88
988.291	171.06
988.455	127.66
988.62	93.76
988.784	114.1
988.948	98.21
989.112	92.98
989.276	101.31
989.44	80
989.604	84.26
989.768	84.85
989.932	162.15
990.096	58.88
990.26	93.95
990.424	65.66
990.588	87.56
990.752	172.81
990.915	135.22
991.079	81.75
991.243	71.67
991.407	103.83
991.571	77.87
991.734	97.24
991.898	111
992.062	177.84
992.226	86.78
992.389	75.93
992.553	63.53
992.717	66.25
992.88	77.87
993.044	85.62
993.207	73.41
993.371	95.11
993.535	84.46
993.698	103.25
993.862	122.24
994.025	122.43
994.189	98.41
994.352	95.89
994.515	121.46
994.679	120.49
994.842	94.15
995.006	141.03
995.169	66.63
995.332	59.27
995.496	102.86
995.659	33.7
995.822	66.63
995.985	74.58
996.149	117.39
996.312	89.5
996.475	134.44
996.638	71.67
996.801	111.78
996.964	141.23
997.128	77.48
997.291	58.5
997.454	85.62
997.617	41.83
997.78	102.48
997.943	64.31
998.106	124.95
998.269	43
998.432	66.05
998.595	85.04
998.758	25.95
998.92	39.51
999.083	25.75
999.246	55.4
999.409	28.27
999.572	25.17
999.735	27.11
999.897	87.17
1000.06	54.81
1000.223	60.05
1000.386	118.75
1000.548	94.73
1000.711	65.47
1000.874	64.5
1001.036	22.26
1001.199	106.16
1001.361	48.23
1001.524	71.67
1001.687	116.04
1001.849	37.76
1002.012	64.11
1002.174	74
1002.337	65.86
1002.499	57.53
1002.661	86.4
1002.824	8.12
1002.986	54.62
1003.149	67.21
1003.311	46.87
1003.473	105.38
1003.636	37.76
1003.798	77.48
1003.96	86.59
1004.123	63.53
1004.285	27.88
1004.447	57.33
1004.609	70.12
1004.771	124.76
1004.933	28.27
1005.096	55.59
1005.258	9.09
1005.42	46.1
1005.582	104.03
1005.744	50.55
1005.906	28.08
1006.068	55.01
1006.23	14.71
1006.392	20.13
1006.554	33.5
1006.716	54.43
1006.878	60.82
1007.04	24.01
1007.202	43.77
1007.363	35.63
1007.525	79.61
1007.687	74.19
1007.849	127.08
1008.011	0.95
1008.172	9.67
1008.334	25.95
1008.496	72.45
1008.658	-1.76
1008.819	8.7
1008.981	-0.4
1009.143	22.46
1009.304	74
1009.466	67.6
1009.627	98.6
1009.789	125.73
1009.95	71.48
1010.112	19.94
1010.273	72.25
1010.435	52.68
1010.596	52.88
1010.758	40.86
1010.919	55.01
1011.081	20.71
1011.242	35.83
1011.403	50.36
1011.565	25.56
1011.726	52.88
1011.887	25.17
1012.049	42.03
1012.21	74.58
1012.371	117.98
1012.532	-12.8
1012.693	56.36
1012.855	16.06
1013.016	57.14
1013.177	69.93
1013.338	27.69
1013.499	80.97
1013.66	35.25
1013.821	55.01
1013.982	56.36
1014.143	33.31
1014.304	39.12
1014.465	26.72
1014.626	63.15
1014.787	17.03
1014.948	110.42
1015.109	-20.75
1015.27	118.17
1015.431	31.76
1015.592	17.61
1015.752	89.88
1015.913	29.63
1016.074	38.93
1016.235	51.13
1016.395	26.72
1016.556	23.04
1016.717	23.62
1016.877	87.17
1017.038	9.09
1017.199	43.19
1017.359	39.31
1017.52	36.6
1017.681	15.48
1017.841	34.08
1018.002	36.99
1018.162	20.52
1018.323	84.07
1018.483	12.77
1018.644	5.22
1018.804	-2.34
1018.964	13.93
1019.125	24.4
1019.285	41.83
1019.446	20.71
1019.606	22.07
1019.766	-1.95
1019.926	50.94
1020.087	21.3
1020.247	10.06
1020.407	37.96
1020.567	75.55
1020.728	34.66
1020.888	-1.76
1021.048	5.8
1021.208	23.43
1021.368	4.05
1021.528	59.27
1021.688	68.96
1021.848	56.17
1022.008	27.69
1022.168	27.3
1022.328	39.9
1022.488	69.73
1022.648	32.34
1022.808	53.07
1022.968	52.49
1023.128	-8.15
1023.288	-0.79
1023.448	17.03
1023.608	44.55
1023.767	43.77
1023.927	5.22
1024.087	-21.72
1024.247	-2.53
1024.406	-4.08
1024.566	-17.07
1024.726	-1.57
1024.885	11.22
1025.045	60.05
1025.205	19.55
1025.364	27.3
1025.524	29.24
1025.683	42.41
1025.843	36.02
1026.003	23.04
1026.162	72.45
1026.321	65.47
1026.481	28.08
1026.64	4.83
1026.8	24.4
1026.959	36.6
1027.119	22.85
1027.278	10.83
1027.437	-6.41
1027.597	16.65
1027.756	32.73
1027.915	12
1028.074	38.73
1028.234	-21.91
1028.393	35.83
1028.552	52.3
1028.711	-28.11
1028.87	73.8
1029.03	-2.92
1029.189	13.16
1029.348	-31.6
1029.507	9.67
1029.666	14.9
1029.825	16.26
1029.984	-15.13
1030.143	31.56
1030.302	-2.73
1030.461	-39.15
1030.62	19.94
1030.779	44.16
1030.938	-2.73
1031.097	-23.27
1031.255	31.95
1031.414	76.9
1031.573	47.26
1031.732	-37.6
1031.891	2.89
1032.049	35.25
1032.208	16.65
1032.367	12.38
1032.525	29.63
1032.684	7.15
1032.843	17.81
1033.001	-4.47
1033.16	150.14
1033.319	56.75
1033.477	44.93
1033.636	7.73
1033.794	-14.74
1033.953	39.12
1034.111	52.3
1034.27	-0.79
1034.428	20.91
1034.587	-9.51
1034.745	19.94
1034.903	14.51
1035.062	19.75
1035.22	7.93
1035.378	23.62
1035.537	-25.59
1035.695	40.28
1035.853	19.55
1036.011	31.18
1036.17	18
1036.328	-28.69
1036.486	50.36
1036.644	21.68
1036.802	-74.61
1036.96	-16.48
1037.119	-8.35
1037.277	-13.77
1037.435	-17.84
1037.593	-24.04
1037.751	2.7
1037.909	25.56
1038.067	25.56
