Data from gum_young_FLMT105791__46__17-38-45-044.txt Node

Date: Mon Mar 20 17:38:45 GMT 2023
User: antho
Spectrometer: FLMT10579
Trigger mode: 0
Integration Time (sec): 1.000000E-1
Scans to average: 10
Electric dark correction enabled: true
Nonlinearity correction enabled: false
Boxcar width: 0
XAxis mode: Wavelengths
Number of Pixels in Spectrum: 3648
>>>>>Begin Spectral Data<<<<<
345.248	-147.3
345.464	-147.3
345.681	-147.3
345.898	-137.61
346.114	-152.72
346.331	-23.88
346.548	5.38
346.764	-10.12
346.981	-1.79
347.197	-10.7
347.414	12.74
347.631	-29.89
347.847	61.18
348.064	12.16
348.28	38.31
348.497	-49.45
348.713	-3.92
348.93	11.58
349.146	10.8
349.363	0.73
349.579	-4.7
349.796	5.38
350.012	-10.32
350.229	25.72
350.445	31.73
350.661	4.6
350.878	-10.9
351.094	4.41
351.311	24.36
351.527	3.83
351.743	-14.77
351.96	38.89
352.176	42.58
352.392	8.28
352.609	41.99
352.825	4.8
353.041	13.13
353.257	14.1
353.474	-13.42
353.69	10.03
353.906	14.87
354.122	-32.21
354.339	55.36
354.555	30.18
354.771	-32.79
354.987	67.18
355.203	42.19
355.42	-49.45
355.636	-17.68
355.852	2.08
356.068	13.9
356.284	-44.61
356.5	55.94
356.716	21.84
356.932	-8.96
357.148	34.24
357.364	2.66
357.58	36.18
357.796	25.72
358.012	30.56
358.228	18.94
358.444	-48.49
358.66	56.91
358.876	11.38
359.092	-8.96
359.308	13.71
359.524	37.73
359.74	0.15
359.956	3.44
360.172	-1.6
360.388	52.26
360.604	-11.87
360.819	68.73
361.035	13.32
361.251	22.81
361.467	3.63
361.683	48.78
361.898	13.9
362.114	24.17
362.33	28.04
362.546	46.45
362.762	6.54
362.977	2.08
363.193	9.45
363.409	61.18
363.624	-11.87
363.84	15.84
364.056	-14.97
364.271	23.59
364.487	29.21
364.703	2.08
364.918	-41.7
365.134	28.04
365.35	-2.95
365.565	89.66
365.781	19.13
365.996	41.61
366.212	89.46
366.427	12.16
366.643	-14
366.858	8.86
367.074	-19.62
367.289	61.95
367.505	74.54
367.72	-20.59
367.936	-0.63
368.151	36.38
368.367	29.4
368.582	33.86
368.798	-2.18
369.013	71.06
369.228	31.92
369.444	-3.15
369.659	54.78
369.874	29.01
370.09	71.64
370.305	-41.12
370.52	-22.91
370.736	88.3
370.951	-3.73
371.166	69.31
371.381	88.49
371.597	40.64
371.812	-3.92
372.027	32.5
372.242	28.82
372.458	95.47
372.673	20.68
372.888	19.52
373.103	47.61
373.318	96.83
373.533	38.89
373.749	26.11
373.964	-40.35
374.179	89.27
374.394	-3.54
374.609	59.82
374.824	-14.39
375.039	70.28
375.254	2.66
375.469	75.13
375.684	27.27
375.899	41.03
376.114	31.92
376.329	53.23
376.544	56.53
376.759	47.42
376.974	16.42
377.189	18.75
377.404	3.25
377.619	57.69
377.834	-26.2
378.049	-27.37
378.264	-8.96
378.478	44.32
378.693	-7.02
378.908	51.49
379.123	34.24
379.338	59.82
379.553	58.66
379.767	25.33
379.982	47.03
380.197	59.24
380.412	25.91
380.626	57.3
380.841	111.36
381.056	44.51
381.271	76.68
381.485	29.4
381.7	-14.39
381.915	27.27
382.129	24.36
382.344	11
382.559	35.99
382.773	45.68
382.988	-26.01
383.202	39.86
383.417	1.31
383.632	112.71
383.846	42.19
384.061	42.38
384.275	22.23
384.49	59.24
384.704	49.16
384.919	54.01
385.133	67.18
385.348	75.32
385.562	0.15
385.777	58.08
385.991	55.36
386.206	36.57
386.42	25.91
386.634	75.32
386.849	51.1
387.063	43.93
387.277	18.75
387.492	30.18
387.706	7.12
387.92	17
388.135	75.71
388.349	53.04
388.563	72.03
388.778	72.03
388.992	71.06
389.206	50.33
389.42	126.86
389.635	12.35
389.849	65.24
390.063	92.37
390.277	27.08
390.491	96.24
390.706	62.14
390.92	83.65
391.134	66.21
391.348	72.61
391.562	33.08
391.776	58.27
391.99	27.46
392.205	83.26
392.419	23.98
392.633	67.96
392.847	97.41
393.061	47.81
393.275	103.8
393.489	52.84
393.703	54.39
393.917	86.36
394.131	14.1
394.345	72.61
394.559	95.47
394.773	44.51
394.986	99.54
395.2	50.33
395.414	73.19
395.628	40.25
395.842	76.48
396.056	54.2
396.27	33.08
396.484	107.87
396.697	61.76
396.911	93.92
397.125	49.36
397.339	94.31
397.553	101.28
397.766	97.02
397.98	98.57
398.194	119.3
398.408	84.81
398.621	110.77
398.835	120.85
399.049	91.4
399.262	126.08
399.476	124.14
399.69	155.14
399.903	166.77
400.117	118.14
400.331	140.61
400.544	81.52
400.758	215.79
400.971	105.93
401.185	140.22
401.398	98.18
401.612	166.19
401.826	146.42
402.039	116.2
402.253	66.6
402.466	141.39
402.68	102.64
402.893	136.93
403.106	150.11
403.32	111.74
403.533	139.84
403.747	133.64
403.96	133.83
404.174	147.39
404.387	70.28
404.6	117.75
404.814	148.17
405.027	134.61
405.24	122.79
405.454	114.65
405.667	188.08
405.88	88.49
406.094	141.19
406.307	148.56
406.52	137.51
406.733	96.24
406.947	87.91
407.16	197.96
407.373	165.8
407.586	110.58
407.799	98.57
408.012	167.54
408.226	138.09
408.439	179.56
408.652	86.75
408.865	179.56
409.078	197.38
409.291	172.97
409.504	118.14
409.717	154.56
409.93	163.09
410.143	162.12
410.357	100.7
410.57	83.07
410.783	152.43
410.996	158.44
411.209	152.82
411.421	180.91
411.634	147.78
411.847	129.76
412.06	154.37
412.273	163.28
412.486	170.64
412.699	249.3
412.912	175.49
413.125	188.66
413.338	178.39
413.55	196.02
413.763	177.04
413.976	185.37
414.189	162.51
414.402	167.93
414.615	229.93
414.827	124.92
415.04	180.52
415.253	181.88
415.466	205.32
415.678	239.81
415.891	163.86
416.104	180.72
416.316	182.27
416.529	157.47
416.742	213.27
416.954	209.97
417.167	164.44
417.38	164.25
417.592	237.68
417.805	148.94
418.017	153.79
418.23	213.07
418.442	174.71
418.655	173.55
418.868	212.49
419.08	233.42
419.293	238.26
419.505	215.79
419.718	217.92
419.93	223.54
420.142	163.28
420.355	225.47
420.567	264.8
420.78	238.45
420.992	207.07
421.205	267.52
421.417	165.41
421.629	193.12
421.842	199.9
422.054	169.87
422.266	240.78
422.479	239.81
422.691	197.57
422.903	241.94
423.115	188.86
423.328	226.25
423.54	199.7
423.752	213.65
423.964	203.77
424.177	238.84
424.389	211.91
424.601	300.65
424.813	242.72
425.025	258.99
425.238	224.89
425.45	234.77
425.662	223.34
425.874	482.38
426.086	247.37
426.298	234.77
426.51	231.09
426.722	214.43
426.934	214.24
427.146	237.87
427.358	192.34
427.57	245.24
427.782	207.84
427.994	230.51
428.206	221.99
428.418	187.5
428.63	248.34
428.842	268.87
429.054	232.25
429.266	258.41
429.478	219.66
429.69	238.07
429.902	169.48
430.114	272.55
430.325	227.41
430.537	209.39
430.749	189.63
430.961	138.87
431.173	190.41
431.384	243.69
431.596	156.89
431.808	231.87
432.02	251.44
432.231	280.5
432.443	296.58
432.655	282.63
432.867	232.45
433.078	279.14
433.29	340.56
433.502	287.47
433.713	324.09
433.925	308.4
434.136	325.45
434.348	244.85
434.56	222.57
434.771	335.33
434.983	235.35
435.194	262.29
435.406	293.67
435.617	322.15
435.829	336.68
436.04	334.94
436.252	336.49
436.463	372.33
436.675	343.27
436.886	321.57
437.098	320.41
437.309	390.35
437.521	325.45
437.732	332.03
437.943	319.83
438.155	289.02
438.366	290.18
438.578	360.32
438.789	297.93
439	317.5
439.211	303.94
439.423	312.85
439.634	329.52
439.845	351.99
440.057	339.2
440.268	381.63
440.479	303.36
440.69	353.93
440.902	331.65
441.113	352.18
441.324	352.77
441.535	362.84
441.746	415.73
441.957	339.59
442.168	327
442.38	354.51
442.591	401.4
442.802	339.78
443.013	382.02
443.224	388.8
443.435	361.87
443.646	371.36
443.857	405.08
444.068	369.04
444.279	326.61
444.49	446.35
444.701	378.15
444.912	483.35
445.123	421.35
445.334	403.33
445.545	405.66
445.756	396.75
445.967	368.07
446.178	392.29
446.388	430.85
446.599	430.46
446.81	445.76
447.021	373.5
447.232	449.64
447.443	445.57
447.653	389
447.864	481.8
448.075	412.63
448.286	462.81
448.496	421.93
448.707	458.16
448.918	423.29
449.129	520.16
449.339	440.73
449.55	470.56
449.761	429.1
449.971	485.87
450.182	444.6
450.393	475.99
450.603	457.2
450.814	521.71
451.024	499.04
451.235	511.83
451.446	515.71
451.656	531.59
451.867	462.04
452.077	475.6
452.288	552.91
452.498	545.93
452.709	493.62
452.919	502.73
453.13	454.68
453.34	497.3
453.55	423.1
453.761	518.61
453.971	474.24
454.182	511.83
454.392	533.14
454.602	567.44
454.813	527.33
455.023	508.34
455.233	485.48
455.444	518.42
455.654	439.18
455.864	495.56
456.075	506.21
456.285	497.11
456.495	509.31
456.705	538.76
456.916	556.78
457.126	596.11
457.336	513.19
457.546	472.89
457.756	505.44
457.967	548.45
458.177	523.65
458.387	530.04
458.597	501.18
458.807	504.86
459.017	543.41
459.227	546.51
459.437	539.34
459.647	552.13
459.857	538.38
460.068	509.12
460.278	554.65
460.488	567.63
460.698	619.75
460.908	539.54
461.117	482.19
461.327	528.88
461.537	567.63
461.747	593.21
461.957	554.07
462.167	703.45
462.377	592.04
462.587	573.06
462.797	612.19
463.007	575.96
463.216	603.28
463.426	629.05
463.636	625.56
463.846	522.29
464.056	572.28
464.265	646.49
464.475	569.96
464.685	578.48
464.895	599.6
465.104	585.26
465.314	638.35
465.524	589.72
465.733	575.96
465.943	674.77
466.153	660.44
466.362	639.12
466.572	631.18
466.782	624.4
466.991	611.42
467.201	654.43
467.41	571.31
467.62	632.54
467.829	617.23
468.039	631.76
468.249	590.88
468.458	628.08
468.668	660.44
468.877	647.84
469.086	702.87
469.296	686.59
469.505	656.37
469.715	679.42
469.924	669.35
470.134	725.53
470.343	679.23
470.552	621.88
470.762	655.01
470.971	630.02
471.18	678.65
471.39	665.67
471.599	659.27
471.808	699.77
472.018	679.23
472.227	737.93
472.436	741.62
472.645	728.44
472.855	712.36
473.064	767.19
473.273	756.73
473.482	746.65
473.691	781.92
473.901	747.23
474.11	740.07
474.319	842.17
474.528	743.36
474.737	820.08
474.946	767.38
475.155	799.16
475.364	805.94
475.573	787.73
475.783	825.51
475.992	822.41
476.201	837.13
476.41	804.2
476.619	793.15
476.828	802.84
477.037	775.33
477.245	820.28
477.454	850.89
477.663	851.28
477.872	845.08
478.081	887.9
478.29	859.8
478.499	939.43
478.708	899.33
478.917	943.31
479.125	884.99
479.334	902.23
479.543	879.56
479.752	945.44
479.961	926.64
480.169	985.16
480.378	945.44
480.587	1051.03
480.796	990.58
481.004	981.86
481.213	1001.43
481.422	995.23
481.63	1033.21
481.839	1027.2
482.048	1081.45
482.256	1022.16
482.465	1018.29
482.674	1052.58
482.882	1046.57
483.091	1090.17
483.299	1038.24
483.508	1113.8
483.716	1063.82
483.925	1093.27
484.134	1043.28
484.342	1075.64
484.551	1088.04
484.759	1105.28
484.967	1117.49
485.176	1107.41
485.384	1091.91
485.593	1080.67
485.801	1127.56
486.01	1068.66
486.218	1024.29
486.426	927.42
486.635	973.53
486.843	1009.96
487.051	1002.4
487.26	1006.47
487.468	1043.86
487.676	1119.62
487.885	1066.72
488.093	1105.28
488.301	1134.92
488.509	1187.23
488.717	1234.12
488.926	1158.37
489.134	1168.05
489.342	1145.77
489.55	1165.53
489.758	1178.32
489.967	1163.02
490.175	1282.56
490.383	1227.53
490.591	1299.61
490.799	1206.8
491.007	1297.48
491.215	1259.11
491.423	1236.06
491.631	1257.95
491.839	1270.16
492.047	1283.91
492.255	1231.6
492.463	1194.4
492.671	1257.95
492.879	1297.86
493.087	1264.35
493.295	1307.55
493.503	1313.75
493.711	1345.14
493.919	1357.73
494.127	1374.98
494.334	1417.99
494.542	1325.38
494.75	1376.33
494.958	1347.27
495.166	1413.73
495.374	1402.1
495.581	1427.67
495.789	1412.18
495.997	1483.86
496.205	1398.81
496.412	1392.41
496.62	1431.55
496.828	1442.98
497.035	1421.09
497.243	1459.26
497.451	1465.46
497.658	1455.96
497.866	1444.14
498.074	1516.99
498.281	1468.75
498.489	1541.99
498.696	1445.69
498.904	1489.87
499.112	1464.1
499.319	1553.61
499.527	1480.37
499.734	1566.2
499.942	1499.75
500.149	1503.62
500.357	1545.67
500.564	1453.06
500.771	1526.49
500.979	1500.33
501.186	1452.28
501.394	1498.01
501.601	1479.79
501.808	1549.74
502.016	1472.82
502.223	1507.3
502.43	1533.65
502.638	1529.78
502.845	1536.37
503.052	1617.16
503.26	1532.1
503.467	1681.1
503.674	1588.29
503.881	1598.95
504.089	1642.35
504.296	1581.12
504.503	1547.22
504.71	1572.79
504.917	1574.34
505.125	1620.26
505.332	1656.49
505.539	1662.69
505.746	1733.21
505.953	1735.35
506.16	1711.51
506.367	1814.01
506.574	1768.48
506.781	1821.18
506.988	1741.16
507.195	1746.78
507.402	1774.68
507.609	1807.81
507.816	1766.15
508.023	1752.01
508.23	1790.76
508.437	1709.77
508.644	1803.35
508.851	1804.32
509.058	1869.03
509.265	1853.53
509.472	1876.78
509.679	1982.18
509.885	1900.22
510.092	1911.07
510.299	1853.53
510.506	1891.51
510.713	1947.89
510.92	1922.89
511.126	1975.59
511.333	2008.72
511.54	2017.64
511.746	2038.95
511.953	2072.66
512.16	2062.97
512.367	2050.18
512.573	2060.45
512.78	2050.96
512.987	2058.13
513.193	2031.78
513.4	1990.12
513.606	2000.2
513.813	2102.69
514.02	2087
514.226	2113.35
514.433	2139.11
514.639	2048.83
514.846	2100.17
515.052	2048.83
515.259	2128.85
515.465	2119.16
515.672	2158.3
515.878	2235.02
516.085	2229.4
516.291	2242.19
516.497	2188.52
516.704	2143.18
516.91	2089.32
517.117	2018.22
517.323	1971.52
517.529	1986.44
517.736	2029.26
517.942	2043.21
518.148	2103.47
518.354	2138.92
518.561	2145.12
518.767	2144.73
518.973	2209.06
519.179	2252.65
519.386	2259.82
519.592	2231.92
519.798	2246.84
520.004	2425.28
520.21	2399.51
520.417	2428.77
520.623	2431.29
520.829	2469.26
521.035	2474.49
521.241	2475.46
521.447	2518.86
521.653	2616.12
521.859	2576.79
522.065	2569.62
522.271	2623.87
522.477	2638.4
522.683	2696.53
522.889	2613.6
523.095	2591.9
523.301	2589
523.507	2587.25
523.713	2658.74
523.919	2626
524.125	2724.81
524.331	2762.79
524.537	2839.9
524.742	2814.52
524.948	2827.69
525.154	2804.83
525.36	2929.02
525.566	2860.82
525.772	2910.03
525.977	2829.82
526.183	2902.48
526.389	2918.37
526.595	2785.65
526.8	2779.84
527.006	2712.41
527.212	2621.55
527.417	2637.43
527.623	2680.64
527.829	2714.16
528.034	2797.27
528.24	2816.07
528.446	2855.59
528.651	2954.98
528.857	2986.18
529.062	3029.38
529.268	3026.09
529.473	3034.61
529.679	3045.46
529.884	3120.64
530.09	3086.15
530.295	3071.04
530.501	3152.99
530.706	3125.68
530.912	3166.75
531.117	3157.26
531.323	3185.74
531.528	3190.77
531.733	3225.26
531.939	3176.05
532.144	3190.58
532.35	3203.37
532.555	3241.15
532.76	3128
532.966	3159.97
533.171	3134.01
533.376	3067.75
533.581	3070.65
533.787	3149.31
533.992	3180.89
534.197	3216.35
534.402	3182.06
534.607	3208.79
534.813	3308.77
535.018	3247.74
535.223	3236.31
535.428	3290.55
535.633	3311.48
535.838	3383.55
536.043	3390.14
536.249	3518.59
536.454	3384.72
536.659	3427.15
536.864	3365.92
537.069	3347.52
537.274	3414.75
537.479	3390.92
537.684	3395.76
537.889	3311.67
538.094	3409.71
538.299	3396.92
538.504	3436.64
538.708	3407.58
538.913	3458.53
539.118	3469.19
539.323	3499.61
539.528	3395.37
539.733	3351.39
539.938	3423.85
540.142	3415.13
540.347	3334.34
540.552	3337.44
540.757	3287.26
540.962	3351.78
541.166	3279.51
541.371	3289.39
541.576	3340.54
541.781	3270.02
541.985	3393.05
542.19	3379.48
542.395	3497.09
542.599	3503.48
542.804	3454.85
543.008	3469
543.213	3462.8
543.418	3362.24
543.622	3491.28
543.827	3395.37
544.031	3500.58
544.236	3500.19
544.44	3555.41
544.645	3583.5
544.849	3466.09
545.054	3536.61
545.258	3591.64
545.463	3611.01
545.667	3471.71
545.872	3542.23
546.076	3565.68
546.281	3534.87
546.485	3494.96
546.689	3586.79
546.894	3582.34
547.098	3604.04
547.302	3554.63
547.507	3548.82
547.711	3605.97
547.915	3601.33
548.119	3537.97
548.324	3542.43
548.528	3611.79
548.732	3560.64
548.936	3600.55
549.141	3620.7
549.345	3608.3
549.549	3626.71
549.753	3608.69
549.957	3673.4
550.161	3654.61
550.366	3643.37
550.57	3592.41
550.774	3599.78
550.978	3636.2
551.182	3641.82
551.386	3587.57
551.59	3609.27
551.794	3581.95
551.998	3651.12
552.202	3636.59
552.406	3600.74
552.61	3693.55
552.814	3655.57
553.018	3655.19
553.222	3627.09
553.426	3636.97
553.63	3704.01
553.833	3626.51
554.037	3584.08
554.241	3650.54
554.445	3697.42
554.649	3671.07
554.853	3597.64
555.056	3700.14
555.26	3684.06
555.464	3722.03
555.668	3673.59
555.871	3664.68
556.075	3713.5
556.279	3659.64
556.483	3619.54
556.686	3610.04
556.89	3561.61
557.094	3587.18
557.297	3520.73
557.501	3627.09
557.704	3468.61
557.908	3532.35
558.112	3513.36
558.315	3640.66
558.519	3524.41
558.722	3480.04
558.926	3477.33
559.129	3388.4
559.333	3405.06
559.536	3385.1
559.74	3342.29
559.943	3321.94
560.147	3358.56
560.35	3364.95
560.553	3368.44
560.757	3411.45
560.96	3455.43
561.164	3407.97
561.367	3458.73
561.57	3424.43
561.774	3443.42
561.977	3364.95
562.18	3362.63
562.384	3444.39
562.587	3394.6
562.79	3407.58
562.993	3390.33
563.197	3436.64
563.4	3441.48
563.603	3464.15
563.806	3436.83
564.009	3356.43
564.212	3428.5
564.416	3324.46
564.619	3361.27
564.822	3298.11
565.025	3383.17
565.228	3309.74
565.431	3323.3
565.634	3212.28
565.837	3248.71
566.04	3192.52
566.243	3195.81
566.446	3115.02
566.649	3188.45
566.852	3138.46
567.055	3172.95
567.258	3204.92
567.461	3267.5
567.664	3287.65
567.867	3167.14
568.07	3162.88
568.273	3178.37
568.475	3210.54
568.678	3146.41
568.881	3116.96
569.084	3054.38
569.287	2975.33
569.489	3000.9
569.692	3050.31
569.895	3048.37
570.098	2999.55
570.3	2977.65
570.503	2926.89
570.706	2974.55
570.909	2900.35
571.111	2842.42
571.314	2884.07
571.516	2831.57
571.719	2871.87
571.922	2886.4
572.124	2899.57
572.327	2907.13
572.529	2859.27
572.732	2866.25
572.935	2927.47
573.137	2955.57
573.34	2836.6
573.542	2899.96
573.745	2852.1
573.947	2924.95
574.15	2901.7
574.352	2817.62
574.554	2900.15
574.757	2839.7
574.959	2773.83
575.162	2834.28
575.364	2751.74
575.566	2894.15
575.769	2733.14
575.971	2766.08
576.173	2638.4
576.376	2708.54
576.578	2785.07
576.78	2837.96
576.982	2709.7
577.185	2750.39
577.387	2743.22
577.589	2667.27
577.791	2691.29
577.993	2742.25
578.196	2690.71
578.398	2660.49
578.6	2695.56
578.802	2617.09
579.004	2608.18
579.206	2658.94
579.408	2686.45
579.61	2602.36
579.812	2710.48
580.014	2635.5
580.216	2665.53
580.418	2697.3
580.62	2706.21
580.822	2630.46
581.024	2686.45
581.226	2722.49
581.428	2693.43
581.63	2782.74
581.832	2697.49
582.034	2742.83
582.236	2767.63
582.438	2724.23
582.64	2767.63
582.841	2783.13
583.043	2842.8
583.245	2715.51
583.447	2777.9
583.649	2725.01
583.85	2752.71
584.052	2764.34
584.254	2683.74
584.456	2783.13
584.657	2700.01
584.859	2746.12
585.061	2697.49
585.262	2677.73
585.464	2626
585.666	2719
585.867	2610.31
586.069	2699.43
586.27	2672.69
586.472	2657.19
586.674	2659.71
586.875	2649.64
587.077	2603.91
587.278	2674.05
587.48	2623.29
587.681	2699.43
587.883	2646.34
588.084	2542.3
588.285	2584.54
588.487	2527.97
588.688	2521.18
588.89	2412.69
589.091	2371.42
589.292	2355.92
589.494	2275.71
589.695	2280.55
589.896	2142.02
590.098	2154.61
590.299	2240.06
590.5	2221.65
590.702	2327.82
590.903	2325.31
591.104	2385.17
591.305	2379.36
591.507	2432.84
591.708	2417.53
591.909	2369.09
592.11	2404.94
592.311	2423.92
592.512	2339.26
592.714	2332.86
592.915	2370.06
593.116	2361.92
593.317	2396.8
593.518	2412.88
593.719	2409.97
593.92	2429.74
594.121	2435.55
594.322	2393.12
594.523	2394.86
594.724	2331.31
594.925	2345.65
595.126	2346.23
595.327	2386.14
595.528	2386.53
595.729	2366.38
595.929	2370.45
596.13	2401.84
596.331	2393.7
596.532	2416.37
596.733	2477.01
596.934	2450.08
597.135	2469.07
597.335	2443.1
597.536	2368.12
597.737	2397.77
597.938	2399.9
598.138	2445.04
598.339	2424.89
598.54	2439.42
598.74	2413.07
598.941	2362.89
599.142	2459.38
599.342	2421.6
599.543	2367.74
599.744	2401.84
599.944	2400.67
600.145	2405.13
600.345	2403.39
600.546	2475.46
600.746	2438.26
600.947	2482.43
601.147	2381.1
601.348	2471.58
601.548	2381.88
601.749	2409.2
601.949	2328.6
602.15	2338.48
602.35	2368.9
602.551	2373.94
602.751	2359.41
602.951	2345.84
603.152	2300.31
603.352	2379.56
603.552	2347.97
603.753	2401.64
603.953	2418.11
604.153	2421.99
604.354	2362.89
604.554	2372.77
604.754	2400.48
604.954	2341.19
605.155	2420.82
605.355	2365.99
605.555	2410.36
605.755	2413.27
605.955	2387.5
606.155	2428.96
606.356	2394.28
606.556	2423.73
606.756	2388.47
606.956	2340.81
607.156	2410.94
607.356	2348.36
607.556	2396.22
607.756	2379.94
607.956	2399.51
608.156	2358.44
608.356	2280.16
608.556	2364.06
608.756	2336.16
608.956	2288.88
609.156	2330.15
609.356	2278.81
609.556	2286.17
609.755	2300.89
609.955	2252.26
610.155	2287.14
610.355	2294.89
610.555	2234.24
610.755	2294.69
610.954	2184.45
611.154	2294.89
611.354	2306.71
611.554	2223.78
611.753	2249.16
611.953	2212.16
612.153	2270.28
612.352	2248.97
612.552	2206.93
612.752	2183.29
612.951	2221.26
613.151	2202.66
613.351	2153.06
613.55	2195.3
613.75	2190.85
613.949	2198.98
614.149	2190.65
614.348	2160.43
614.548	2129.81
614.747	2110.05
614.947	2111.22
615.146	2106.95
615.346	2160.23
615.545	2139.11
615.745	2143.18
615.944	2162.75
616.144	2130.78
616.343	2103.27
616.542	2109.86
616.742	2066.27
616.941	2107.73
617.14	2008.53
617.34	2089.9
617.539	2076.15
617.738	2025.39
617.938	2121.1
618.137	2076.34
618.336	2063.17
618.535	2149.38
618.734	2087.97
618.934	2097.65
619.133	2134.66
619.332	2145.9
619.531	2072.27
619.73	2096.88
619.929	2104.05
620.128	2097.65
620.328	2154.23
620.527	2083.32
620.726	2072.27
620.925	2087.97
621.124	2082.54
621.323	2097.65
621.522	2007.37
621.721	2038.17
621.92	2025.97
622.119	2044.57
622.318	1989.54
622.517	2040.69
622.715	2000.78
622.914	1973.85
623.113	2005.24
623.312	1912.62
623.511	1982.37
623.71	2012.79
623.909	1956.99
624.107	2037.59
624.306	1975.79
624.505	1935.29
624.704	1947.89
624.902	1967.84
625.101	2025.19
625.3	1894.8
625.499	1919.21
625.697	1942.66
625.896	1894.02
626.095	1946.53
626.293	1862.64
626.492	1937.81
626.69	1919.02
626.889	1908.36
627.088	1961.84
627.286	1897.71
627.485	1867.48
627.683	1865.16
627.882	1841.33
628.08	1787.27
628.279	1799.28
628.477	1850.04
628.676	1756.27
628.874	1813.43
629.073	1781.46
629.271	1764.41
629.469	1810.71
629.668	1810.33
629.866	1758.98
630.065	1743.68
630.263	1824.28
630.461	1775.64
630.66	1828.34
630.858	1840.94
631.056	1907.97
631.254	1900.61
631.453	1770.8
631.651	1874.26
631.849	1819.04
632.047	1837.64
632.245	1808.97
632.444	1832.41
632.642	1876.2
632.84	1893.44
633.038	1834.74
633.236	1812.84
633.434	1834.74
633.632	1830.48
633.83	1820.4
634.028	1881.82
634.227	1860.31
634.425	1913.01
634.623	1861.09
634.821	1872.71
635.019	1851.98
635.216	1832.41
635.414	1894.22
635.612	1858.18
635.81	1823.89
636.008	1904.87
636.206	1858.18
636.404	1849.27
636.602	1835.71
636.8	1861.67
636.997	1903.52
637.195	1854.11
637.393	1891.31
637.591	1879.11
637.789	1890.73
637.986	1830.86
638.184	1829.51
638.382	1882.59
638.58	1880.46
638.777	1901
638.975	1787.66
639.173	1817.3
639.37	1811.68
639.568	1829.7
639.765	1845.39
639.963	1786.69
640.161	1821.95
640.358	1837.64
640.556	1748.71
640.753	1746.97
640.951	1718.3
641.148	1773.9
641.346	1758.01
641.543	1743.48
641.741	1783.01
641.938	1737.48
642.136	1772.93
642.333	1709.58
642.531	1779.71
642.728	1790.56
642.925	1744.45
643.123	1713.26
643.32	1737.09
643.517	1750.26
643.715	1729.92
643.912	1708.22
644.109	1769.83
644.306	1706.28
644.504	1659.98
644.701	1719.65
644.898	1742.51
645.095	1626.46
645.293	1673.93
645.49	1684.78
645.687	1695.82
645.884	1654.17
646.081	1598.95
646.278	1583.25
646.475	1602.63
646.672	1565.62
646.87	1607.67
647.067	1589.26
647.264	1552.25
647.461	1528.04
647.658	1449.18
647.855	1564.65
648.052	1521.64
648.249	1431.55
648.446	1513.31
648.642	1517.77
648.839	1449.76
649.036	1470.69
649.233	1470.3
649.43	1451.31
649.627	1448.02
649.824	1451.12
650.021	1431.36
650.217	1474.76
650.414	1449.37
650.611	1491.22
650.808	1494.91
651.004	1486.77
651.201	1486.77
651.398	1536.95
651.595	1457.9
651.791	1448.21
651.988	1488.9
652.185	1441.43
652.381	1473.79
652.578	1424.19
652.775	1470.69
652.971	1473.59
653.168	1444.92
653.364	1494.52
653.561	1401.71
653.757	1461.97
653.954	1507.5
654.15	1416.83
654.347	1514.09
654.543	1480.57
654.74	1410.24
654.936	1435.04
655.133	1402.68
655.329	1439.69
655.525	1376.53
655.722	1431.16
655.918	1336.61
656.115	1326.93
656.311	1227.92
656.507	1223.47
656.704	1182.2
656.9	1232.96
657.096	1250.59
657.292	1237.42
657.489	1312.59
657.685	1294.38
657.881	1309.49
658.077	1300.77
658.273	1341.65
658.47	1415.08
658.666	1359.09
658.862	1411.01
659.058	1334.48
659.254	1422.06
659.45	1363.93
659.646	1386.41
659.842	1368.58
660.038	1373.81
660.234	1334.87
660.43	1360.83
660.626	1428.45
660.822	1395.71
661.018	1382.34
661.214	1335.64
661.41	1320.53
661.606	1370.71
661.802	1377.3
661.998	1361.61
662.194	1301.93
662.39	1371.88
662.586	1356.57
662.781	1385.83
662.977	1373.81
663.173	1367.81
663.369	1319.37
663.564	1358.7
663.76	1345.91
663.956	1325.96
664.152	1335.26
664.347	1224.24
664.543	1310.07
664.739	1319.37
664.934	1254.27
665.13	1240.32
665.326	1311.04
665.521	1299.41
665.717	1262.41
665.912	1270.93
666.108	1202.15
666.304	1252.72
666.499	1248.65
666.695	1190.72
666.89	1274.03
667.086	1300.58
667.281	1241.1
667.477	1307.36
667.672	1226.57
667.867	1213.97
668.063	1250.2
668.258	1184.52
668.454	1234.32
668.649	1281.01
668.844	1245.75
669.04	1211.65
669.235	1225.02
669.43	1208.55
669.626	1178.52
669.821	1209.9
670.016	1145.77
670.211	1206.03
670.407	1124.85
670.602	1185.3
670.797	1159.92
670.992	1209.52
671.187	1139.96
671.382	1221.72
671.578	1116.32
671.773	1196.15
671.968	1144.22
672.163	1150.04
672.358	1190.14
672.553	1104.12
672.748	1158.37
672.943	1228.5
673.138	1162.82
673.333	1195.18
673.528	1114.58
673.723	1182.58
673.918	1155.27
674.113	1117.1
674.308	1220.17
674.503	1150.42
674.698	1194.4
674.892	1118.26
675.087	1170.57
675.282	1149.07
675.477	1109.74
675.672	1170.38
675.867	1143.64
676.061	1078.74
676.256	1084.94
676.451	1129.89
676.646	1131.63
676.84	1120.78
677.035	1082.03
677.23	1104.7
677.424	1151.39
677.619	1153.52
677.814	1168.63
678.008	1132.6
678.203	1070.99
678.397	1120.39
678.592	1129.5
678.787	1202.15
678.981	1143.64
679.176	1099.66
679.37	1108.19
679.565	1127.56
679.759	1137.64
679.954	1136.67
680.148	1184.91
680.342	1179.48
680.537	1121.55
680.731	1094.43
680.926	1141.32
681.12	1158.75
681.314	1089
681.509	1117.29
681.703	1136.86
681.897	1164.95
682.092	1126.4
682.286	1138.22
682.48	1191.88
682.674	1148.29
682.869	1124.07
683.063	1159.92
683.257	1219.4
683.451	1131.05
683.645	1176.19
683.839	1145.58
684.034	1135.7
684.228	1183.17
684.422	1126.01
684.616	1115.55
684.81	1147.32
685.004	1145.19
685.198	1161.85
685.392	1181.81
685.586	1133.76
685.78	1185.3
685.974	1197.12
686.168	1201.96
686.362	1213
686.556	1094.82
686.75	1059.56
686.944	998.33
687.138	992.13
687.331	886.35
687.525	898.36
687.719	858.64
687.913	901.65
688.107	926.26
688.301	895.84
688.494	986.51
688.688	910.37
688.882	907.85
689.076	943.31
689.269	982.83
689.463	1052.58
689.657	1014.02
689.85	1015.38
690.044	1031.27
690.238	1046.77
690.431	1060.52
690.625	1080.87
690.818	1138.8
691.012	1157.59
691.205	1185.3
691.399	1135.31
691.593	1230.63
691.786	1278.3
691.98	1281.98
692.173	1342.43
692.366	1343.78
692.56	1343.78
692.753	1369.36
692.947	1313.56
693.14	1351.14
693.333	1410.24
693.527	1341.07
693.72	1388.93
693.914	1366.45
694.107	1410.04
694.3	1437.56
694.493	1390.48
694.687	1447.82
694.88	1434.07
695.073	1541.21
695.266	1520.29
695.46	1523
695.653	1581.7
695.846	1581.9
696.039	1580.93
696.232	1580.35
696.425	1695.82
696.618	1697.18
696.812	1737.28
697.005	1801.61
697.198	1867.29
697.391	1832.03
697.584	1870.97
697.777	1917.27
697.97	1938.01
698.163	1933.55
698.356	1964.94
698.549	2016.67
698.742	2014.54
698.935	1944.98
699.127	1995.16
699.32	1954.09
699.513	1976.17
699.706	2022.87
699.899	2043.79
700.092	1985.86
700.285	2021.32
700.477	1947.69
700.67	2043.21
700.863	2064.13
701.056	2143.57
701.248	2124.2
701.441	2144.35
701.634	2088.35
701.826	2198.98
702.019	2099.4
702.212	2220.1
702.404	2179.41
702.597	2189.68
702.79	2210.99
702.982	2220.29
703.175	2272.41
703.367	2305.74
703.56	2320.27
703.752	2419.66
703.945	2407.26
704.137	2416.56
704.33	2435.74
704.522	2448.14
704.715	2509.37
704.907	2529.9
705.1	2565.75
705.292	2529.71
705.484	2529.52
705.677	2594.61
705.869	2598.3
706.061	2635.3
706.254	2661.65
706.446	2617.09
706.638	2622.32
706.831	2719.78
707.023	2699.43
707.215	2800.18
707.407	2814.91
707.599	2761.82
707.792	2814.32
707.984	2821.3
708.176	2876.71
708.368	2818.78
708.56	2857.14
708.752	2869.93
708.944	2851.33
709.136	2915.85
709.329	2881.17
709.521	3000.9
709.713	2968.55
709.905	2960.99
710.097	3005.75
710.289	2999.93
710.481	3029.38
710.672	3059.41
710.864	3097
711.056	3111.14
711.248	3118.31
711.44	3084.41
711.632	3115.21
711.824	3168.49
712.016	3193.87
712.207	3209.37
712.399	3195.42
712.591	3263.62
712.783	3256.26
712.975	3279.51
713.166	3223.13
713.358	3283.39
713.55	3350.23
713.741	3344.03
713.933	3302.57
714.125	3293.27
714.316	3319.04
714.508	3351.39
714.7	3308.57
714.891	3286.49
715.083	3384.13
715.274	3311.09
715.466	3364.18
715.657	3379.1
715.849	3265.95
716.04	3267.11
716.232	3243.09
716.423	3258.78
716.615	3151.25
716.806	3081.69
716.998	2980.56
717.189	2882.91
717.381	2789.33
717.572	2730.62
717.763	2726.56
717.955	2709.31
718.146	2609.53
718.337	2577.95
718.528	2513.05
718.72	2446.2
718.911	2478.56
719.102	2434.58
719.293	2472.75
719.485	2428.19
719.676	2398.35
719.867	2364.83
720.058	2407.65
720.249	2354.56
720.44	2420.24
720.632	2446.01
720.823	2560.51
721.014	2687.81
721.205	2755.42
721.396	2875.35
721.587	2954.02
721.778	3028.61
721.969	3117.54
722.16	3162.49
722.351	3205.5
722.542	3310.9
722.733	3314
722.924	3234.56
723.115	3250.84
723.305	3222.94
723.496	3252.39
723.687	3058.83
723.878	3085.76
724.069	3092.74
724.26	3050.7
724.45	3008.46
724.641	2999.16
724.832	3021.63
725.023	2957.5
725.213	2999.35
725.404	2967.19
725.595	2924.18
725.785	2969.32
725.976	3002.65
726.167	2975.52
726.357	2993.35
726.548	3093.13
726.739	3001.87
726.929	3072.01
727.12	3108.04
727.31	3150.67
727.501	3059.22
727.691	3032.1
727.882	3102.81
728.072	3129.74
728.263	3153.77
728.453	3228.56
728.644	3206.27
728.834	3189.22
729.024	3091.38
729.215	3159
729.405	3144.28
729.596	3263.24
729.786	3267.3
729.976	3299.27
730.167	3261.69
730.357	3245.02
730.547	3293.27
730.737	3265.17
730.928	3324.65
731.118	3403.7
731.308	3315.94
731.498	3320
731.688	3464.54
731.879	3466.09
732.069	3560.83
732.259	3610.24
732.449	3649.37
732.639	3731.72
732.829	3782.48
733.019	3805.73
733.209	3887.68
733.399	3894.66
733.589	3927.21
733.779	4000.64
733.969	4016.14
734.159	4150.4
734.349	4130.64
734.539	4203.3
734.729	4182.76
734.919	4216.67
735.109	4324.58
735.299	4220.93
735.488	4237.59
735.678	4229.84
735.868	4190.32
736.058	4200.59
736.248	4226.55
736.437	4209.3
736.627	4200.78
736.817	4284.09
737.007	4195.94
737.196	4297.46
737.386	4271.11
737.576	4259.87
737.765	4312.96
737.955	4296.3
738.144	4421.07
738.334	4358.1
738.524	4293.2
738.713	4365.85
738.903	4355.2
739.092	4406.15
739.282	4382.13
739.471	4397.43
739.661	4389.49
739.85	4481.91
740.04	4469.7
740.229	4460.21
740.419	4517.56
740.608	4544.1
740.797	4528.41
740.987	4536.54
741.176	4559.02
741.365	4532.67
741.555	4448.19
741.744	4598.74
741.933	4549.52
742.123	4577.42
742.312	4598.74
742.501	4652.02
742.69	4648.72
742.88	4564.83
743.069	4681.08
743.258	4696.97
743.447	4664.61
743.636	4721.96
743.825	4630.12
744.014	4711.69
744.204	4740.75
744.393	4636.9
744.582	4759.55
744.771	4726.61
744.96	4723.12
745.149	4743.66
745.338	4703.55
745.527	4799.46
745.716	4701.81
745.905	4671
746.094	4764
746.283	4750.44
746.471	4738.62
746.66	4810.11
746.849	4778.92
747.038	4788.41
747.227	4751.41
747.416	4801.98
747.604	4686.12
747.793	4757.8
747.982	4750.05
748.171	4788.03
748.359	4746.18
748.548	4759.35
748.737	4762.45
748.926	4775.63
749.114	4618.3
749.303	4737.46
749.491	4738.04
749.68	4611.91
749.869	4710.33
750.057	4667.71
750.246	4658.6
750.434	4696.97
750.623	4703.94
750.811	4628.57
751	4717.12
751.188	4675.27
751.377	4615.59
751.565	4683.4
751.754	4630.9
751.942	4582.65
752.131	4660.73
752.319	4623.92
752.507	4566.96
752.696	4646.01
752.884	4674.3
753.072	4611.14
753.261	4635.16
753.449	4556.31
753.637	4558.44
753.825	4677.2
754.014	4592.15
754.202	4596.6
754.39	4596.6
754.578	4588.08
754.766	4536.54
754.955	4529.18
755.143	4609.97
755.331	4603
755.519	4516.78
755.707	4523.95
755.895	4544.29
756.083	4551.46
756.271	4515.23
756.459	4514.65
756.647	4499.73
756.835	4445.68
757.023	4446.45
757.211	4485.2
757.399	4439.09
757.587	4452.07
757.775	4417.39
757.963	4459.43
758.151	4480.36
758.339	4373.41
758.526	4341.05
758.714	4343.18
758.902	4253.87
759.09	4110.88
759.278	3836.73
759.465	3466.67
759.653	3049.53
759.841	2757.36
760.028	2370.84
760.216	2011.63
760.404	1874.46
760.591	1546.25
760.779	1294.38
760.967	1137.83
761.154	981.09
761.342	1006.47
761.529	989.61
761.717	1030.49
761.905	1008.99
762.092	1133.18
762.28	1030.3
762.467	996.78
762.655	898.74
762.842	938.46
763.029	981.28
763.217	953.96
763.404	945.83
763.592	984.77
763.779	936.91
763.966	983.61
764.154	1046.19
764.341	1108.38
764.528	1113.03
764.716	1252.33
764.903	1274.81
765.09	1370.13
765.277	1441.24
765.465	1642.93
765.652	1732.63
765.839	1793.86
766.026	1973.65
766.213	2077.89
766.4	2191.43
766.588	2428.19
766.775	2484.95
766.962	2597.33
767.149	2711.64
767.336	2883.88
767.523	2917.01
767.71	3010.78
767.897	3198.72
768.084	3269.82
768.271	3353.91
768.458	3446.13
768.645	3516.46
768.832	3499.8
769.019	3565.87
769.206	3642.98
769.392	3689.48
769.579	3772.6
769.766	3768.53
769.953	3726.87
770.14	3847.97
770.327	3824.13
770.513	3850.1
770.7	3934.57
770.887	3878.58
771.073	3901.44
771.26	3895.63
771.447	3899.89
771.634	3873.73
771.82	3997.73
772.007	3859.98
772.193	3904.15
772.38	3950.65
772.567	3885.55
772.753	3897.95
772.94	3961.11
773.126	3984.17
773.313	3960.73
773.499	3916.16
773.686	3979.33
773.872	3926.43
774.059	3952.59
774.245	3875.48
774.432	3921.2
774.618	3802.43
774.804	3918.88
774.991	3836.34
775.177	3868.5
775.363	3879.35
775.55	3883.81
775.736	3825.88
775.922	3856.49
776.109	3905.9
776.295	3840.22
776.481	3856.49
776.667	3876.45
776.853	3791.58
777.04	3788.48
777.226	3834.79
777.412	3865.21
777.598	3815.61
777.784	3796.82
777.97	3755.74
778.156	3835.76
778.342	3793.52
778.528	3762.33
778.715	3694.13
778.901	3690.45
779.087	3728.04
779.272	3735.59
779.458	3738.11
779.644	3678.63
779.83	3676.11
780.016	3774.92
780.202	3713.7
780.388	3703.24
780.574	3617.21
780.76	3666.81
780.946	3692.58
781.131	3672.43
781.317	3658.48
781.503	3601.71
781.689	3628.84
781.874	3755.94
782.06	3624.38
782.246	3619.54
782.432	3655.38
782.617	3639.69
782.803	3704.98
782.989	3505.61
783.174	3596.09
783.36	3495.15
783.545	3552.5
783.731	3566.64
783.916	3432.18
784.102	3538.16
784.288	3491.86
784.473	3468.8
784.659	3473.45
784.844	3539.33
785.029	3521.31
785.215	3495.35
785.4	3388.01
785.586	3482.56
785.771	3394.98
785.956	3446.91
786.142	3419.01
786.327	3441.29
786.512	3385.3
786.698	3407
786.883	3326.79
787.068	3348.1
787.254	3371.35
787.439	3328.34
787.624	3296.37
787.809	3302.57
787.994	3289.2
788.18	3376.19
788.365	3243.28
788.55	3246.19
788.735	3292.1
788.92	3212.09
789.105	3224.87
789.29	3237.27
789.475	3153.96
789.66	3180.12
789.845	3163.46
790.03	3138.27
790.215	3220.81
790.4	3215.19
790.585	3192.91
790.77	3172.37
790.955	3087.7
791.14	3135.56
791.325	3182.06
791.51	3035.2
791.695	3150.48
791.879	3109.01
792.064	3044.5
792.249	3174.69
792.434	3115.02
792.618	3111.14
792.803	3104.56
792.988	3092.74
793.173	3125.09
793.357	3118.31
793.542	3072.01
793.727	3164.04
793.911	3140.01
794.096	3140.4
794.281	3139.43
794.465	3250.45
794.65	3128.58
794.834	3187.09
795.019	3199.88
795.203	3245.61
795.388	3197.94
795.572	3242.7
795.757	3197.36
795.941	3172.95
796.126	3170.82
796.31	3076.08
796.494	3172.56
796.679	3138.27
796.863	3120.44
797.048	3226.04
797.232	3147.96
797.416	3161.71
797.601	3209.76
797.785	3235.72
797.969	3223.91
798.153	3171.4
798.338	3221.39
798.522	3252.19
798.706	3248.12
798.89	3254.91
799.074	3357.4
799.258	3287.45
799.443	3236.31
799.627	3236.11
799.811	3269.82
799.995	3208.6
800.179	3175.27
800.363	3184.77
800.547	3249.09
800.731	3205.31
800.915	3156.68
801.099	3149.89
801.283	3175.86
801.467	3161.71
801.651	3153.38
801.835	3216.35
802.019	3201.24
802.202	3205.69
802.386	3117.34
802.57	3100.29
802.754	3113.86
802.938	3103.2
803.121	3163.65
803.305	3196.59
803.489	3147.18
803.673	3197.94
803.856	3159
804.04	3152.03
804.224	3182.83
804.407	3110.95
804.591	3127.61
804.775	3153.58
804.958	3143.89
805.142	3315.74
805.326	3180.12
805.509	3206.08
805.693	3248.32
805.876	3224.1
806.06	3229.33
806.243	3262.65
806.427	3251.22
806.61	3254.71
806.794	3215.77
806.977	3276.41
807.16	3226.04
807.344	3241.92
807.527	3223.71
807.71	3211.7
807.894	3195.23
808.077	3226.04
808.26	3169.66
808.444	3128.58
808.627	3225.46
808.81	3113.66
808.993	3050.7
809.177	3056.7
809.36	3048.56
809.543	3084.6
809.726	2986.76
809.909	3007.1
810.092	3002.26
810.276	2996.06
810.459	2957.31
810.642	2990.05
810.825	2948.78
811.008	2917.01
811.191	2810.45
811.374	2838.15
811.557	2849.59
811.74	2906.16
811.923	2796.31
812.106	2830.21
812.289	2756.01
812.472	2753.87
812.654	2768.41
812.837	2705.63
813.02	2633.75
813.203	2575.43
813.386	2465.97
813.569	2476.62
813.751	2407.65
813.934	2450.08
814.117	2379.36
814.3	2321.43
814.482	2277.84
814.665	2230.18
814.848	2195.5
815.03	2140.47
815.213	2140.66
815.396	2106.95
815.578	2065.3
815.761	2042.43
815.943	2077.31
816.126	1985.09
816.309	2017.44
816.491	1913.59
816.674	1811.29
816.856	1899.45
817.039	1863.8
817.221	1961.45
817.403	1929.87
817.586	1908.17
817.768	1932.77
817.951	1836.68
818.133	1828.54
818.315	1860.89
818.498	1946.14
818.68	1966.49
818.862	1974.24
819.045	1958.54
819.227	1945.56
819.409	1929.09
819.591	1930.45
819.774	1974.43
819.956	1902.36
820.138	2040.88
820.32	2015.12
820.502	2101.14
820.684	2146.48
820.866	2163.14
821.048	2235.21
821.231	2260.79
821.413	2242.58
821.595	2243.74
821.777	2234.24
821.959	2238.31
822.141	2285.2
822.323	2127.88
822.505	2049.6
822.686	1965.71
822.868	1872.91
823.05	1733.21
823.232	1702.6
823.414	1662.11
823.596	1731.86
823.778	1718.68
823.96	1755.69
824.141	1773.51
824.323	1819.63
824.505	1848.69
824.687	1962.42
824.868	2025.39
825.05	2111.41
825.232	2134.27
825.413	2204.02
825.595	2216.81
825.777	2091.07
825.958	2164.5
826.14	2126.91
826.321	2147.25
826.503	2174.18
826.685	2176.31
826.866	2205.18
827.048	2188.33
827.229	2118
827.411	2080.8
827.592	2046.12
827.773	2011.24
827.955	1942.66
828.136	1955.83
828.318	1939.94
828.499	1995.16
828.68	1926.77
828.862	1941.3
829.043	1980.05
829.224	1895.38
829.406	1887.44
829.587	1919.99
829.768	1927.93
829.949	1943.24
830.131	1932.77
830.312	2005.24
830.493	1939.75
830.674	1951.95
830.855	1924.06
831.036	1929.48
831.218	2043.79
831.399	2004.46
831.58	1975.79
831.761	1913.21
831.942	1987.6
832.123	1957.19
832.304	1874.65
832.485	1913.21
832.666	1963
832.847	1932.97
833.028	1921.54
833.209	1915.34
833.389	1956.02
833.57	1883.56
833.751	1897.9
833.932	1976.56
834.113	1926.57
834.294	1927.93
834.475	1979.27
834.655	2003.49
834.836	1985.67
835.017	2011.63
835.198	1964.16
835.378	2026.74
835.559	2028.68
835.74	2001.36
835.92	1972.88
836.101	1966.87
836.281	2044.18
836.462	2045.92
836.643	2042.43
836.823	2032.17
837.004	2088.74
837.184	2045.15
837.365	2053.87
837.545	2084.67
837.726	2025
837.906	2097.85
838.087	2078.47
838.267	2044.57
838.448	2010.27
838.628	2091.07
838.808	2030.81
838.989	2064.33
839.169	2006.59
839.349	2097.46
839.53	2085.83
839.71	2109.86
839.89	2023.06
840.07	2089.52
840.251	2043.02
840.431	2067.43
840.611	2051.73
840.791	2025.39
840.971	2051.15
841.151	2054.83
841.332	2013.37
841.512	2074.4
841.692	2014.15
841.872	2053.48
842.052	2004.46
842.232	2060.84
842.412	1990.9
842.592	1992.64
842.772	2043.02
842.952	2042.24
843.132	1992.45
843.312	1969.2
843.492	1978.69
843.672	2036.82
843.851	1963.77
844.031	1994.97
844.211	1974.04
844.391	1950.02
844.571	1995.35
844.751	2025.58
844.93	1959.9
845.11	1978.89
845.29	1964.55
845.47	1993.22
845.649	1989.35
845.829	2008.53
846.009	1963.19
846.188	1984.5
846.368	1985.67
846.547	1987.99
846.727	2013.37
846.907	1968.62
847.086	2006.2
847.266	1981.02
847.445	1978.5
847.625	1931.42
847.804	1934.71
847.984	1956.02
848.163	1944.4
848.343	1926.38
848.522	1928.12
848.701	1942.07
848.881	1939.94
849.06	1925.61
849.239	1914.76
849.419	1913.4
849.598	1835.13
849.777	1815.94
849.957	1794.24
850.136	1764.41
850.315	1778.55
850.494	1756.46
850.674	1803.54
850.853	1828.93
851.032	1780.49
851.211	1852.37
851.39	1785.72
851.569	1748.33
851.748	1726.82
851.927	1831.25
852.107	1804.32
852.286	1756.27
852.465	1735.54
852.644	1816.14
852.823	1801.8
853.002	1798.51
853.181	1831.06
853.359	1787.27
853.538	1719.07
853.717	1805.29
853.896	1647.77
854.075	1571.44
854.254	1594.3
854.433	1486.57
854.611	1561.17
854.79	1503.04
854.969	1544.5
855.148	1568.92
855.327	1500.91
855.505	1618.52
855.684	1632.47
855.863	1592.75
856.041	1604.37
856.22	1651.45
856.399	1628.59
856.577	1712.48
856.756	1703.57
856.934	1828.34
857.113	1796.96
857.291	1746.97
857.47	1669.67
857.648	1734.18
857.827	1722.75
858.005	1752.2
858.184	1712.48
858.362	1780.1
858.541	1727.6
858.719	1718.68
858.898	1697.37
859.076	1697.95
859.254	1764.41
859.433	1678.19
859.611	1670.44
859.789	1647.97
859.967	1716.36
860.146	1745.61
860.324	1683.03
860.502	1677.03
860.68	1644.67
860.859	1638.08
861.037	1617.35
861.215	1667.34
861.393	1654.75
861.571	1653.78
861.749	1619.87
861.927	1672.38
862.105	1656.88
862.283	1628.2
862.461	1615.22
862.639	1623.17
862.817	1630.33
862.995	1624.91
863.173	1603.79
863.351	1605.53
863.529	1578.22
863.707	1671.8
863.885	1632.27
864.063	1582.87
864.241	1587.71
864.418	1649.32
864.596	1571.82
864.774	1533.65
864.952	1548.77
865.129	1595.07
865.307	1551.48
865.485	1505.76
865.663	1566.01
865.84	1478.82
866.018	1506.53
866.196	1354.44
866.373	1407.14
866.551	1340.68
866.728	1328.48
866.906	1331
867.084	1373.62
867.261	1432.13
867.439	1423.8
867.616	1466.81
867.794	1459.64
867.971	1447.63
868.149	1462.74
868.326	1510.79
868.503	1462.55
868.681	1486.19
868.858	1433.49
869.035	1439.11
869.213	1482.51
869.39	1450.34
869.567	1525.52
869.745	1446.27
869.922	1449.96
870.099	1472.82
870.276	1484.06
870.454	1485.22
870.631	1442.59
870.808	1448.21
870.985	1493.36
871.162	1476.5
871.339	1454.8
871.517	1390.48
871.694	1415.47
871.871	1447.82
872.048	1404.43
872.225	1448.41
872.402	1440.85
872.579	1383.11
872.756	1431.16
872.933	1401.33
873.11	1377.69
873.287	1422.25
873.463	1378.66
873.64	1374.59
873.817	1416.63
873.994	1378.66
874.171	1346.69
874.348	1368.19
874.524	1326.35
874.701	1345.91
874.878	1311.62
875.055	1369.94
875.231	1331.38
875.408	1350.95
875.585	1321.89
875.762	1370.52
875.938	1328.67
876.115	1355.79
876.291	1300.38
876.468	1340.68
876.645	1300.19
876.821	1298.45
876.998	1283.72
877.174	1346.88
877.351	1286.24
877.527	1285.66
877.704	1293.99
877.88	1301.55
878.057	1299.22
878.233	1328.67
878.409	1283.72
878.586	1320.92
878.762	1271.71
878.938	1285.85
879.115	1241.29
879.291	1275.39
879.467	1212.03
879.644	1254.66
879.82	1297.48
879.996	1244.39
880.172	1208.55
880.349	1251.17
880.525	1281.59
880.701	1205.45
880.877	1212.81
881.053	1213.39
881.229	1218.04
881.405	1283.72
881.581	1179.29
881.757	1214.17
881.933	1241.87
882.109	1258.73
882.285	1221.72
882.461	1205.45
882.637	1191.88
882.813	1204.09
882.989	1225.4
883.165	1260.66
883.341	1185.1
883.517	1235.48
883.693	1209.32
883.869	1257.95
884.044	1189.56
884.22	1230.83
884.396	1279.85
884.572	1229.08
884.747	1250.01
884.923	1225.98
885.099	1230.05
885.275	1245.75
885.45	1191.5
885.626	1180.65
885.801	1153.14
885.977	1191.88
886.153	1144.42
886.328	1227.15
886.504	1178.52
886.679	1226.95
886.855	1188.98
887.03	1188.2
887.206	1225.6
887.381	1224.05
887.557	1227.34
887.732	1238
887.908	1221.14
888.083	1242.45
888.258	1187.04
888.434	1174.45
888.609	1211.45
888.784	1237.22
888.96	1185.1
889.135	1201.96
889.31	1164.76
889.485	1225.79
889.661	1189.56
889.836	1236.06
890.011	1235.87
890.186	1184.52
890.361	1163.4
890.537	1215.13
890.712	1210.68
890.887	1219.01
891.062	1200.22
891.237	1281.98
891.412	1184.52
891.587	1217.07
891.762	1239.35
891.937	1253.11
892.112	1160.3
892.287	1166.12
892.462	1155.07
892.637	1114.19
892.812	1086.29
892.987	1101.02
893.161	1108.57
893.336	1099.27
893.511	1105.47
893.686	1111.67
893.861	1076.41
894.035	1076.8
894.21	1092.88
894.385	1039.41
894.56	1052.58
894.734	1000.66
894.909	993.29
895.084	977.99
895.258	968.3
895.433	983.61
895.608	927.23
895.782	899.33
895.957	911.92
896.131	902.81
896.306	832.29
896.48	811.36
896.655	855.15
896.829	784.82
897.004	761.96
897.178	773.2
897.353	765.06
897.527	802.45
897.701	786.18
897.876	722.63
898.05	850.7
898.224	798
898.399	820.86
898.573	781.14
898.747	666.05
898.921	685.24
899.096	603.47
899.27	611.81
899.444	626.14
899.618	661.4
899.792	714.49
899.967	721.47
900.141	733.09
900.315	674.77
900.489	653.27
900.663	699.19
900.837	673.22
901.011	630.6
901.185	752.47
901.359	663.54
901.533	707.32
901.707	691.05
901.881	689.89
902.055	619.36
902.229	661.99
902.403	714.69
902.576	673.22
902.75	705.97
902.924	807.3
903.098	713.72
903.272	780.95
903.446	848.37
903.619	838.49
903.793	885.76
903.967	840.04
904.14	882.47
904.314	879.18
904.488	883.63
904.661	886.15
904.835	883.63
905.009	892.93
905.182	929.94
905.356	912.89
905.529	862.32
905.703	826.09
905.876	841.59
906.05	811.75
906.223	817.18
906.397	745.49
906.57	687.17
906.744	721.08
906.917	698.02
907.09	694.15
907.264	665.28
907.437	639.7
907.61	593.01
907.784	622.46
907.957	656.56
908.13	618.39
908.304	661.6
908.477	608.51
908.65	626.72
908.823	585.84
908.996	624.59
909.17	612.77
909.343	593.98
909.516	616.46
909.689	564.53
909.862	598.05
910.035	590.11
910.208	571.12
910.381	539.93
910.554	662.95
910.727	582.16
910.9	563.37
911.073	561.04
911.246	647.26
911.419	642.42
911.592	592.62
911.765	576.35
911.938	591.46
912.11	566.86
912.283	598.63
912.456	633.31
912.629	588.36
912.802	570.15
912.974	506.79
913.147	458.36
913.32	417.67
913.493	468.24
913.665	510.86
913.838	515.71
914.01	494.39
914.183	537.79
914.356	501.76
914.528	531.79
914.701	593.01
914.873	554.46
915.046	485.48
915.218	452.55
915.391	412.05
915.563	454.1
915.736	494.59
915.908	508.93
916.081	474.83
916.253	483.54
916.425	506.21
916.598	515.9
916.77	515.13
916.942	467.46
917.115	404.3
917.287	466.69
917.459	456.23
917.632	430.46
917.804	402.36
917.976	464.36
918.148	490.91
918.32	481.03
918.493	543.03
918.665	551.36
918.837	530.63
919.009	566.27
919.181	574.41
919.353	541.67
919.525	508.15
919.697	530.43
919.869	543.41
920.041	618.97
920.213	661.79
920.385	577.71
920.557	573.64
920.729	600.18
920.901	563.37
921.073	559.88
921.244	552.52
921.416	600.37
921.588	558.33
921.76	527.33
921.932	635.05
922.103	543.22
922.275	559.11
922.447	556.39
922.619	505.24
922.79	502.14
922.962	517.84
923.134	536.05
923.305	492.46
923.477	493.43
923.648	488
923.82	502.92
923.991	435.5
924.163	446.15
924.335	491.68
924.506	457.58
924.677	509.89
924.849	456.61
925.02	469.98
925.192	488.78
925.363	451
925.535	469.98
925.706	457.78
925.877	497.11
926.049	454.1
926.22	468.82
926.391	451.38
926.562	483.93
926.734	460.49
926.905	462.81
927.076	411.86
927.247	437.05
927.419	382.41
927.59	359.16
927.761	385.31
927.932	399.85
928.103	372.72
928.274	326.61
928.445	322.15
928.616	324.87
928.787	326.61
928.958	350.05
929.129	312.08
929.3	300.65
929.471	251.82
929.642	218.11
929.813	185.56
929.984	266.74
930.155	194.86
930.326	251.82
930.496	176.07
930.667	163.28
930.838	182.46
931.009	164.83
931.18	176.46
931.35	168.9
931.521	153.21
931.692	126.27
931.863	79.78
932.033	105.16
932.204	134.61
932.374	127.63
932.545	77.06
932.716	153.4
932.886	115.04
933.057	51.1
933.227	64.47
933.398	134.22
933.568	30.56
933.739	-8.38
933.909	60.01
934.08	65.44
934.25	-0.05
934.421	38.12
934.591	62.34
934.761	60.4
934.932	-14.77
935.102	65.83
935.272	30.95
935.443	57.11
935.613	35.21
935.783	60.79
935.953	21.46
936.123	159.79
936.294	19.13
936.464	21.07
936.634	31.92
936.804	11.96
936.974	26.88
937.144	56.33
937.314	20.1
937.484	46.45
937.655	18.75
937.825	68.15
937.995	12.93
938.165	90.04
938.334	44.13
938.504	48
938.674	61.76
938.844	73.96
939.014	130.54
939.184	121.82
939.354	154.95
939.524	132.09
939.694	106.9
939.863	91.59
940.033	136.16
940.203	139.06
940.373	137.9
940.542	138.87
940.712	81.33
940.882	120.46
941.051	149.52
941.221	109.42
941.391	128.21
941.56	84.04
941.73	83.46
941.899	170.06
942.069	86.36
942.238	121.82
942.408	117.36
942.577	102.64
942.747	71.64
942.916	39.48
943.086	67.76
943.255	133.64
943.425	86.56
943.594	66.41
943.763	23.78
943.933	39.86
944.102	8.67
944.271	69.31
944.441	108.06
944.61	67.76
944.779	84.23
944.948	153.21
945.117	34.44
945.287	70.09
945.456	26.69
945.625	48
945.794	64.66
945.963	39.09
946.132	70.86
946.301	47.23
946.47	97.02
946.639	42.58
946.808	53.43
946.977	91.79
947.146	92.37
947.315	59.04
947.484	105.16
947.653	81.13
947.822	48.78
947.991	40.44
948.16	111.55
948.329	102.44
948.498	69.12
948.666	66.79
948.835	88.69
949.004	55.56
949.173	48.19
949.341	72.8
949.51	91.01
949.679	103.8
949.847	86.75
950.016	166.96
950.185	120.66
950.353	41.41
950.522	74.35
950.69	116.39
950.859	50.52
951.028	118.33
951.196	91.98
951.365	46.84
951.533	60.98
951.701	95.28
951.87	73.38
952.038	25.33
952.207	76.68
952.375	116.78
952.543	53.62
952.712	79
952.88	37.54
953.048	121.62
953.217	62.14
953.385	63.31
953.553	120.85
953.721	34.44
953.89	69.89
954.058	32.11
954.226	47.61
954.394	82.49
954.562	27.27
954.73	73.38
954.898	74.74
955.067	115.62
955.235	68.54
955.403	106.32
955.571	143.52
955.739	94.89
955.907	41.41
956.075	60.79
956.243	48.78
956.41	77.06
956.578	33.08
956.746	36.96
956.914	30.76
957.082	68.73
957.25	103.41
957.418	70.67
957.585	77.06
957.753	127.44
957.921	49.16
958.089	108.26
958.256	71.44
958.424	74.16
958.592	103.03
958.759	66.6
958.927	84.62
959.095	55.56
959.262	77.45
959.43	78.61
959.597	50.91
959.765	88.11
959.932	63.11
960.1	96.83
960.267	77.26
960.435	79.97
960.602	100.89
960.77	68.54
960.937	45.87
961.104	65.83
961.272	48.19
961.439	92.56
961.606	81.91
961.774	102.06
961.941	52.07
962.108	93.14
962.275	72.61
962.443	86.17
962.61	92.56
962.777	160.18
962.944	89.08
963.111	126.08
963.278	90.24
963.446	128.41
963.613	83.65
963.78	131.51
963.947	103.03
964.114	115.23
964.281	182.27
964.448	130.34
964.615	80.94
964.782	110.58
964.949	112.91
965.116	122.59
965.282	142.74
965.449	80.94
965.616	85.01
965.783	115.81
965.95	67.38
966.117	60.01
966.283	111.36
966.45	102.64
966.617	113.68
966.784	137.71
966.95	158.63
967.117	138.09
967.284	94.69
967.45	103.99
967.617	140.42
967.784	133.83
967.95	177.81
968.117	122.21
968.283	161.34
968.45	231.29
968.616	122.79
968.783	160.57
968.949	142.16
969.116	174.52
969.282	136.74
969.449	149.33
969.615	120.46
969.781	89.66
969.948	131.12
970.114	97.99
970.28	169.09
970.447	124.72
970.613	157.86
970.779	160.37
970.945	144.1
971.112	120.85
971.278	114.65
971.444	123.95
971.61	161.73
971.776	125.11
971.942	143.71
972.108	177.04
972.275	134.22
972.441	122.4
972.607	193.31
972.773	97.41
972.939	148.56
973.105	101.28
973.271	81.52
973.437	123.37
973.602	103.03
973.768	143.32
973.934	111.55
974.1	117.17
974.266	54.78
974.432	117.56
974.598	112.32
974.763	131.12
974.929	104.96
975.095	156.89
975.261	86.17
975.426	75.51
975.592	91.4
975.758	141.58
975.923	68.73
976.089	79
976.255	108.06
976.42	128.99
976.586	120.66
976.751	127.63
976.917	201.45
977.082	124.34
977.248	82.29
977.413	38.89
977.579	95.86
977.744	112.13
977.91	87.33
978.075	99.34
978.24	131.89
978.406	94.89
978.571	90.82
978.736	87.53
978.902	127.44
979.067	63.11
979.232	46.06
979.397	102.64
979.563	163.28
979.728	75.13
979.893	106.32
980.058	89.66
980.223	132.67
980.388	105.54
980.554	116.97
980.719	96.63
980.884	114.26
981.049	155.53
981.214	110.58
981.379	135.96
981.544	102.64
981.709	111.16
981.874	90.24
982.039	95.47
982.204	132.86
982.368	105.93
982.533	82.49
982.698	115.62
982.863	122.01
983.028	103.41
983.193	121.43
983.357	139.06
983.522	104.38
983.687	91.01
983.852	93.14
984.016	110.77
984.181	98.57
984.346	106.13
984.51	120.27
984.675	106.71
984.839	109.61
985.004	133.64
985.168	155.92
985.333	112.91
985.498	100.7
985.662	114.46
985.827	121.24
985.991	112.52
986.155	77.64
986.32	128.41
986.484	131.51
986.649	113.49
986.813	81.71
986.977	93.73
987.142	91.21
987.306	48.19
987.47	76.48
987.634	86.94
987.799	116.39
987.963	105.93
988.127	129.57
988.291	159.21
988.455	107.68
988.62	100.51
988.784	117.75
988.948	103.61
989.112	81.71
989.276	88.69
989.44	81.52
989.604	78.42
989.768	106.9
989.932	148.17
990.096	55.36
990.26	76.09
990.424	53.62
990.588	91.98
990.752	183.04
990.915	112.52
991.079	81.52
991.243	97.99
991.407	116.59
991.571	73.96
991.734	102.64
991.898	115.23
992.062	191.18
992.226	85.98
992.389	52.65
992.553	46.64
992.717	61.37
992.88	65.05
993.044	94.89
993.207	102.44
993.371	109.61
993.535	129.37
993.698	107.87
993.862	117.56
994.025	118.52
994.189	116.01
994.352	103.8
994.515	94.5
994.679	128.6
994.842	93.14
995.006	115.62
995.169	71.06
995.332	66.21
995.496	109.03
995.659	55.94
995.822	106.9
995.985	84.62
996.149	139.45
996.312	85.39
996.475	153.01
996.638	70.67
996.801	128.99
996.964	147.97
997.128	84.43
997.291	85.2
997.454	68.73
997.617	32.5
997.78	112.32
997.943	60.21
998.106	118.91
998.269	44.71
998.432	85.78
998.595	88.88
998.758	53.23
998.92	62.92
999.083	26.3
999.246	80.55
999.409	69.7
999.572	27.08
999.735	53.23
999.897	92.37
1000.06	76.09
1000.223	68.34
1000.386	52.84
1000.548	111.94
1000.711	71.06
1000.874	69.7
1001.036	12.55
1001.199	86.75
1001.361	62.73
1001.524	61.95
1001.687	82.49
1001.849	31.14
1002.012	100.7
1002.174	94.69
1002.337	81.33
1002.499	56.91
1002.661	100.89
1002.824	38.12
1002.986	38.89
1003.149	109.22
1003.311	46.26
1003.473	118.33
1003.636	47.03
1003.798	88.3
1003.96	84.04
1004.123	72.99
1004.285	53.04
1004.447	79.58
1004.609	58.27
1004.771	96.63
1004.933	18.94
1005.096	43.93
1005.258	30.18
1005.42	52.84
1005.582	91.4
1005.744	71.06
1005.906	28.82
1006.068	50.71
1006.23	11.96
1006.392	14.1
1006.554	51.29
1006.716	87.72
1006.878	83.26
1007.04	25.14
1007.202	64.86
1007.363	47.03
1007.525	53.62
1007.687	74.74
1007.849	105.35
1008.011	4.8
1008.172	32.5
1008.334	44.32
1008.496	86.56
1008.658	17.39
1008.819	54.78
1008.981	4.8
1009.143	35.79
1009.304	27.27
1009.466	90.24
1009.627	99.54
1009.789	141.97
1009.95	50.33
1010.112	10.61
1010.273	76.87
1010.435	34.63
1010.596	35.41
1010.758	35.21
1010.919	18.75
1011.081	-11.09
1011.242	70.28
1011.403	57.11
1011.565	56.53
1011.726	61.18
1011.887	20.3
1012.049	27.85
1012.21	65.05
1012.371	99.15
1012.532	-35.7
1012.693	36.57
1012.855	29.4
1013.016	63.69
1013.177	71.44
1013.338	42.58
1013.499	87.91
1013.66	36.18
1013.821	61.95
1013.982	48.19
1014.143	61.18
1014.304	45.09
1014.465	70.48
1014.626	65.44
1014.787	17.2
1014.948	119.69
1015.109	-15.74
1015.27	85.01
1015.431	7.31
1015.592	16.61
1015.752	56.14
1015.913	47.42
1016.074	37.93
1016.235	34.24
1016.395	30.56
1016.556	8.67
1016.717	27.46
1016.877	83.65
1017.038	33.86
1017.199	45.68
1017.359	52.65
1017.52	47.03
1017.681	48.58
1017.841	35.79
1018.002	32.69
1018.162	-1.21
1018.323	76.29
1018.483	24.36
1018.644	19.91
1018.804	29.01
1018.964	-5.47
1019.125	29.59
1019.285	21.07
1019.446	12.16
1019.606	14.29
1019.766	-6.44
1019.926	63.31
1020.087	52.84
1020.247	-9.15
1020.407	31.34
1020.567	51.88
1020.728	-7.41
1020.888	-5.86
1021.048	17
1021.208	2.86
1021.368	5.18
1021.528	69.7
1021.688	41.99
1021.848	46.26
1022.008	48.97
1022.168	21.84
1022.328	9.25
1022.488	56.14
1022.648	-1.6
1022.808	34.63
1022.968	69.89
1023.128	9.45
1023.288	7.31
1023.448	52.26
1023.608	67.18
1023.767	43.74
1023.927	4.41
1024.087	-1.79
1024.247	-11.09
1024.406	23.98
1024.566	-12.45
1024.726	-2.18
1024.885	14.48
1025.045	30.56
1025.205	18.16
1025.364	10.8
1025.524	29.98
1025.683	37.54
1025.843	17.2
1026.003	31.14
1026.162	66.79
1026.321	53.23
1026.481	41.61
1026.64	4.41
1026.8	43.93
1026.959	36.57
1027.119	31.34
1027.278	-1.21
1027.437	14.48
1027.597	31.73
1027.756	44.32
1027.915	37.34
1028.074	62.14
1028.234	-12.06
1028.393	18.36
1028.552	4.6
1028.711	-40.54
1028.87	29.59
1029.03	-33.18
1029.189	6.15
1029.348	-40.54
1029.507	-1.6
1029.666	22.62
1029.825	-24.46
1029.984	1.11
1030.143	30.95
1030.302	-27.17
1030.461	-29.5
1030.62	24.56
1030.779	24.56
1030.938	-4.7
1031.097	-16.32
1031.255	35.41
1031.414	45.29
1031.573	62.14
1031.732	-52.55
1031.891	17.39
1032.049	36.18
1032.208	35.02
1032.367	13.13
1032.525	6.35
1032.684	-6.44
1032.843	21.26
1033.001	-28.53
1033.16	157.47
1033.319	32.69
1033.477	69.7
1033.636	-4.12
1033.794	-23.69
1033.953	43.74
1034.111	12.93
1034.27	-16.9
1034.428	38.31
1034.587	-11.09
1034.745	10.41
1034.903	36.76
1035.062	20.3
1035.22	-34.15
1035.378	50.71
1035.537	-8.96
1035.695	46.84
1035.853	16.61
1036.011	34.44
1036.17	20.88
1036.328	-51.59
1036.486	34.83
1036.644	3.44
1036.802	-67.67
1036.96	-20.39
1037.119	-8.96
1037.277	12.55
1037.435	-38.02
1037.593	-19.81
1037.751	27.27
1037.909	23.59
1038.067	23.59
