Data from gum_young_FLMT105791__54__17-39-12-043.txt Node

Date: Mon Mar 20 17:39:12 GMT 2023
User: antho
Spectrometer: FLMT10579
Trigger mode: 0
Integration Time (sec): 1.000000E-1
Scans to average: 10
Electric dark correction enabled: true
Nonlinearity correction enabled: false
Boxcar width: 0
XAxis mode: Wavelengths
Number of Pixels in Spectrum: 3648
>>>>>Begin Spectral Data<<<<<
345.248	-122.43
345.464	-122.43
345.681	-122.43
345.898	-153.24
346.114	-166.99
346.331	-15.48
346.548	7.96
346.764	-2.31
346.981	-2.31
347.197	-14.71
347.414	9.32
347.631	-4.83
347.847	53.49
348.064	-1.34
348.28	27.33
348.497	-29.82
348.713	-27.3
348.93	29.08
349.146	11.83
349.363	-0.95
349.579	10.48
349.796	-23.04
350.012	1.95
350.229	20.75
350.445	18.81
350.661	-12
350.878	8.73
351.094	21.72
351.311	19.39
351.527	15.9
351.743	7.77
351.96	19.2
352.176	28.69
352.392	21.13
352.609	29.47
352.825	-2.5
353.041	8.54
353.257	4.28
353.474	7.38
353.69	17.65
353.906	11.83
354.122	-12.77
354.339	58.53
354.555	4.67
354.771	8.73
354.987	80.81
355.203	53.1
355.42	-34.47
355.636	2.73
355.852	-3.67
356.068	5.83
356.284	-36.21
356.5	66.28
356.716	13
356.932	9.32
357.148	26.95
357.364	18.42
357.58	42.45
357.796	74.61
358.012	47.68
358.228	14.93
358.444	-35.05
358.66	42.45
358.876	16.29
359.092	-17.23
359.308	31.21
359.524	32.76
359.74	18.42
359.956	5.05
360.172	-4.44
360.388	37.41
360.604	4.47
360.819	79.84
361.035	6.8
361.251	23.85
361.467	1.37
361.683	30.82
361.898	28.88
362.114	26.37
362.33	9.12
362.546	48.84
362.762	16.1
362.977	27.92
363.193	-25.17
363.409	44
363.624	-16.84
363.84	12.03
364.056	-27.11
364.271	57.56
364.487	7.38
364.703	-8.31
364.918	-21.68
365.134	6.99
365.35	5.25
365.565	96.31
365.781	12.03
365.996	46.52
366.212	99.8
366.427	31.4
366.643	19.39
366.858	8.35
367.074	-2.7
367.289	66.08
367.505	117.62
367.72	-25.75
367.936	-2.7
368.151	48.07
368.367	40.12
368.582	27.53
368.798	7.57
369.013	53.49
369.228	25.2
369.444	38.18
369.659	65.31
369.874	21.33
370.09	67.44
370.305	-25.36
370.52	10.48
370.736	64.92
370.951	11.64
371.166	72.48
371.381	77.52
371.597	43.8
371.812	-22.85
372.027	-7.93
372.242	27.14
372.458	76.55
372.673	2.92
372.888	-3.67
373.103	49.23
373.318	114.71
373.533	44.38
373.749	21.13
373.964	-13.93
374.179	53.88
374.394	-26.14
374.609	63.95
374.824	-24.2
375.039	53.88
375.254	8.54
375.469	70.35
375.684	14.55
375.899	48.45
376.114	4.08
376.329	11.25
376.544	45.74
376.759	40.9
376.974	13.19
377.189	4.47
377.404	10.48
377.619	83.91
377.834	-33.11
378.049	3.7
378.264	-18.97
378.478	24.62
378.693	11.64
378.908	38.18
379.123	2.34
379.338	58.14
379.553	32.37
379.767	7.18
379.982	24.82
380.197	34.5
380.412	24.62
380.626	50.78
380.841	98.44
381.056	42.45
381.271	93.01
381.485	4.67
381.7	-4.63
381.915	27.33
382.129	-20.71
382.344	56.78
382.559	6.22
382.773	55.23
382.988	-25.75
383.202	14.74
383.417	-27.3
383.632	121.88
383.846	49.03
384.061	35.28
384.275	6.6
384.49	46.71
384.704	44.58
384.919	22.3
385.133	30.63
385.348	36.83
385.562	-4.25
385.777	58.92
385.991	21.33
386.206	-12
386.42	29.66
386.634	79.65
386.849	53.68
387.063	34.7
387.277	-2.89
387.492	19.78
387.706	-10.83
387.92	-13.55
388.135	68.99
388.349	41.09
388.563	44.77
388.778	45.93
388.992	57.56
389.206	53.1
389.42	95.34
389.635	39.35
389.849	56.01
390.063	72.48
390.277	50.58
390.491	67.83
390.706	36.83
390.92	66.67
391.134	45.16
391.348	48.65
391.562	0.21
391.776	27.92
391.99	9.7
392.205	85.07
392.419	13.38
392.633	69.57
392.847	55.82
393.061	-2.31
393.275	82.75
393.489	32.37
393.703	37.8
393.917	61.05
394.131	14.55
394.345	21.33
394.559	73.06
394.773	13.19
394.986	29.47
395.2	46.71
395.414	65.12
395.628	7.57
395.842	30.05
396.056	12.22
396.27	-11.03
396.484	36.63
396.697	51.75
396.911	61.24
397.125	59.5
397.339	81.2
397.553	56.4
397.766	100.18
397.98	86.04
398.194	89.33
398.408	37.8
398.621	77.9
398.835	78.29
399.049	68.41
399.262	105.03
399.476	110.65
399.69	87.98
399.903	146.88
400.117	79.84
400.331	104.06
400.544	25.98
400.758	154.05
400.971	56.59
401.185	93.79
401.398	39.15
401.612	124.21
401.826	79.84
402.039	96.5
402.253	55.23
402.466	83.33
402.68	45.55
402.893	87.2
403.106	84.49
403.32	30.63
403.533	83.13
403.747	96.89
403.96	72.87
404.174	96.31
404.387	32.37
404.6	55.82
404.814	117.62
405.027	67.25
405.24	76.35
405.454	70.73
405.667	116.07
405.88	51.55
406.094	85.85
406.307	85.07
406.52	91.46
406.733	74.42
406.947	36.44
407.16	146.1
407.373	130.41
407.586	60.66
407.799	52.72
408.012	116.46
408.226	95.53
408.439	119.75
408.652	59.3
408.865	75.19
409.078	135.83
409.291	103.86
409.504	52.33
409.717	116.65
409.93	101.15
410.143	102.31
410.357	27.14
410.57	26.75
410.783	79.84
410.996	79.45
411.209	96.5
411.421	109.48
411.634	87.4
411.847	64.34
412.06	81.97
412.273	100.57
412.486	75.97
412.699	172.84
412.912	91.08
413.125	103.48
413.338	128.08
413.55	110.65
413.763	81.97
413.976	105.8
414.189	60.47
414.402	100.18
414.615	122.08
414.827	55.43
415.04	125.18
415.253	126.73
415.466	160.83
415.678	166.64
415.891	82.55
416.104	109.1
416.316	97.08
416.529	82.55
416.742	119.36
416.954	141.45
417.167	130.21
417.38	105.22
417.592	135.83
417.805	99.99
418.017	58.33
418.23	114.52
418.442	98.25
418.655	101.35
418.868	96.7
419.08	137.19
419.293	155.01
419.505	115.49
419.718	129.25
419.93	117.81
420.142	113.55
420.355	129.05
420.567	153.46
420.78	134.67
420.992	121.11
421.205	179.04
421.417	68.02
421.629	112.2
421.842	99.21
422.054	81.58
422.266	159.08
422.479	166.25
422.691	108.13
422.903	145.71
423.115	113.75
423.328	145.71
423.54	134.48
423.752	118.01
423.964	96.31
424.177	136.61
424.389	100.96
424.601	197.25
424.813	138.74
425.025	178.07
425.238	153.85
425.45	130.41
425.662	118.78
425.874	374.34
426.086	110.45
426.298	116.26
426.51	158.5
426.722	145.33
426.934	112.39
427.146	167.41
427.358	85.85
427.57	149.4
427.782	140.1
427.994	120.91
428.206	112.39
428.418	115.1
428.63	142.42
428.842	158.7
429.054	148.81
429.266	152.5
429.478	111.42
429.69	129.05
429.902	99.6
430.114	134.28
430.325	139.13
430.537	114.71
430.749	123.05
430.961	77.32
431.173	113.94
431.384	125.56
431.596	72.48
431.808	109.29
432.02	152.11
432.231	178.07
432.443	181.56
432.655	137
432.867	114.13
433.078	171.48
433.29	199.38
433.502	196.67
433.713	196.48
433.925	166.64
434.136	187.56
434.348	127.5
434.56	96.31
434.771	242.98
434.983	93.4
435.194	137.96
435.406	136.8
435.617	211.39
435.829	214.3
436.04	165.28
436.252	197.06
436.463	217.01
436.675	191.63
436.886	185.04
437.098	186.59
437.309	236.78
437.521	179.43
437.732	178.65
437.943	163.15
438.155	180.98
438.366	129.63
438.578	208.68
438.789	180.39
439	196.48
439.211	160.63
439.423	189.5
439.634	192.21
439.845	179.23
440.057	198.8
440.268	222.63
440.479	144.94
440.69	173.03
440.902	167.03
441.113	154.63
441.324	187.56
441.535	191.05
441.746	228.06
441.957	155.6
442.168	187.37
442.38	215.27
442.591	211.2
442.802	192.99
443.013	209.84
443.224	203.64
443.435	171.48
443.646	207.13
443.857	196.09
444.068	183.88
444.279	165.48
444.49	256.92
444.701	219.34
444.912	280.37
445.123	221.47
445.334	238.13
445.545	227.28
445.756	213.14
445.967	194.73
446.178	202.29
446.388	240.07
446.599	245.88
446.81	230.77
447.021	208.49
447.232	254.41
447.443	271.84
447.653	194.93
447.864	242.78
448.075	224.18
448.286	245.3
448.496	231.16
448.707	262.74
448.918	230.38
449.129	313.11
449.339	195.89
449.55	243.94
449.761	238.13
449.971	298.19
450.182	221.28
450.393	266.42
450.603	249.56
450.814	287.73
451.024	259.06
451.235	275.14
451.446	311.76
451.656	290.44
451.867	233.29
452.077	258.86
452.288	316.99
452.498	323.19
452.709	251.11
452.919	260.8
453.13	248.4
453.34	278.82
453.55	219.14
453.761	277.27
453.971	246.27
454.182	284.82
454.392	296.64
454.602	315.82
454.813	287.73
455.023	291.41
455.233	242.39
455.444	270.68
455.654	214.69
455.864	250.73
456.075	268.94
456.285	257.7
456.495	249.18
456.705	296.64
456.916	295.87
457.126	339.46
457.336	277.85
457.546	237.55
457.756	246.85
457.967	304.39
458.177	252.08
458.387	258.67
458.597	275.91
458.807	281.14
459.017	260.8
459.227	264.09
459.437	275.72
459.647	307.88
459.857	291.99
460.068	230.96
460.278	357.67
460.488	311.76
460.698	316.41
460.908	258.09
461.117	254.99
461.327	269.52
461.537	289.67
461.747	317.76
461.957	295.09
462.167	384.22
462.377	346.44
462.587	299.36
462.797	326.87
463.007	329.58
463.216	356.32
463.426	351.86
463.636	334.23
463.846	305.94
464.056	299.94
464.265	331.91
464.475	286.76
464.685	281.92
464.895	337.33
465.104	301.49
465.314	349.73
465.524	303.81
465.733	280.76
465.943	376.66
466.153	351.28
466.362	350.31
466.572	359.61
466.782	333.65
466.991	320.86
467.201	361.94
467.41	277.46
467.62	334.62
467.829	329.77
468.039	341.59
468.249	326.67
468.458	342.56
468.668	356.51
468.877	356.12
469.086	393.9
469.296	374.14
469.505	342.17
469.715	409.21
469.924	360.39
470.134	412.12
470.343	392.74
470.552	378.02
470.762	367.17
470.971	332.29
471.18	363.49
471.39	352.83
471.599	339.85
471.808	392.55
472.018	338.3
472.227	418.7
472.436	410.37
472.645	378.79
472.855	346.63
473.064	442.92
473.273	387.7
473.482	412.7
473.691	427.62
473.901	401.65
474.11	394.87
474.319	455.52
474.528	412.5
474.737	453.19
474.946	412.12
475.155	449.32
475.364	465.78
475.573	404.95
475.783	429.17
475.992	428.2
476.201	456.29
476.41	420.06
476.619	405.92
476.828	443.89
477.037	418.12
477.245	434.2
477.454	471.6
477.663	437.88
477.872	456.48
478.081	532.63
478.29	437.3
478.499	533.98
478.708	459.97
478.917	528.56
479.125	479.73
479.334	486.52
479.543	467.72
479.752	503.37
479.961	514.42
480.169	516.74
480.378	456.87
480.587	600.63
480.796	529.14
481.004	492.33
481.213	523.33
481.422	513.06
481.63	512.28
481.839	553.75
482.048	572.93
482.256	557.62
482.465	533.4
482.674	554.71
482.882	545.41
483.091	622.33
483.299	562.46
483.508	571.38
483.716	548.32
483.925	578.74
484.134	524.68
484.342	532.43
484.551	590.56
484.759	569.83
484.967	621.17
485.176	598.89
485.384	613.81
485.593	622.91
485.801	576.03
486.01	546.96
486.218	553.55
486.426	485.35
486.635	511.32
486.843	501.82
487.051	562.46
487.26	523.52
487.468	552.39
487.676	596.95
487.885	582.03
488.093	578.93
488.301	611.09
488.509	631.24
488.717	670.58
488.926	631.24
489.134	597.73
489.342	632.21
489.55	595.98
489.758	625.24
489.967	615.94
490.175	731.02
490.383	637.83
490.591	686.46
490.799	640.93
491.007	691.31
491.215	676.19
491.423	639.96
491.631	649.07
491.839	660.89
492.047	705.06
492.255	628.92
492.463	597.15
492.671	686.46
492.879	710.1
493.087	670.38
493.295	697.31
493.503	701.77
493.711	719.4
493.919	745.56
494.127	706.03
494.334	767.64
494.542	696.34
494.75	724.05
494.958	719.79
495.166	769.19
495.374	744.2
495.581	757.57
495.789	779.46
495.997	787.99
496.205	740.52
496.412	768.61
496.62	757.18
496.828	768.42
497.035	765.51
497.243	772.29
497.451	764.35
497.658	789.34
497.866	760.28
498.074	850.76
498.281	775.59
498.489	836.81
498.696	786.24
498.904	786.82
499.112	808.72
499.319	835.65
499.527	834.1
499.734	849.02
499.942	778.49
500.149	787.99
500.357	784.11
500.564	767.26
500.771	809.1
500.979	771.13
501.186	792.25
501.394	842.43
501.601	768.42
501.808	855.22
502.016	828.67
502.223	814.34
502.43	799.03
502.638	839.72
502.845	802.71
503.052	893.77
503.26	803.1
503.467	915.28
503.674	851.92
503.881	878.27
504.089	935.43
504.296	877.69
504.503	860.45
504.71	837.39
504.917	843.01
505.125	896.29
505.332	903.07
505.539	885.63
505.746	965.46
505.953	955.96
506.16	960.23
506.367	1018.93
506.574	1012.73
506.781	1014.67
506.988	957.13
507.195	991.42
507.402	961.39
507.609	992.97
507.816	979.02
508.023	970.88
508.23	953.64
508.437	962.16
508.644	992.39
508.851	1044.12
509.058	1037.34
509.265	1052.45
509.472	1055.36
509.679	1124.72
509.885	1063.49
510.092	1060.98
510.299	1059.62
510.506	1074.34
510.713	1079.38
510.92	1060.2
511.126	1088.29
511.333	1128.59
511.54	1115.03
511.746	1159.79
511.953	1163.08
512.16	1187.49
512.367	1109.8
512.573	1163.86
512.78	1144.87
512.987	1148.74
513.193	1138.67
513.4	1087.52
513.606	1158.62
513.813	1172.96
514.02	1176.06
514.226	1235.93
514.433	1225.47
514.639	1151.84
514.846	1219.85
515.052	1184.59
515.259	1200.28
515.465	1236.7
515.672	1256.27
515.878	1300.45
516.085	1235.54
516.291	1301.42
516.497	1260.92
516.704	1229.54
516.91	1202.02
517.117	1147.39
517.323	1117.94
517.529	1172.38
517.736	1153.59
517.942	1216.36
518.148	1190.59
518.354	1265.77
518.561	1238.25
518.767	1234.38
518.973	1297.93
519.179	1316.53
519.386	1280.49
519.592	1288.63
519.798	1315.17
520.004	1424.25
520.21	1374.85
520.417	1442.08
520.623	1465.91
520.829	1460.29
521.035	1513.57
521.241	1499.81
521.447	1460.68
521.653	1587.58
521.859	1519.38
522.065	1504.46
522.271	1617.42
522.477	1618.19
522.683	1609.67
522.889	1549.03
523.095	1539.34
523.301	1610.06
523.507	1555.81
523.713	1577.51
523.919	1591.07
524.125	1666.24
524.331	1666.05
524.537	1719.72
524.742	1712.94
524.948	1705.96
525.154	1746.26
525.36	1783.07
525.566	1734.25
525.772	1811.75
525.977	1708.09
526.183	1738.7
526.389	1778.81
526.595	1686.78
526.8	1732.5
527.006	1635.24
527.212	1575.37
527.417	1588.55
527.623	1603.27
527.829	1680.58
528.034	1712.55
528.24	1748.97
528.446	1740.64
528.651	1853.79
528.857	1804.38
529.062	1879.75
529.268	1869.48
529.473	1909.98
529.679	1909.4
529.884	1925.86
530.09	1935.16
530.295	1918.11
530.501	1927.61
530.706	1933.81
530.912	1915.01
531.117	1944.46
531.323	1911.53
531.528	2006.66
531.733	2014.79
531.939	1966.36
532.144	2004.72
532.35	1993.87
532.555	1983.6
532.76	1954.15
532.966	1979.34
533.171	1948.14
533.376	1909.98
533.581	1920.44
533.787	1997.74
533.992	1994.64
534.197	2029.52
534.402	2023.71
534.607	2024.67
534.813	2127.94
535.018	2030.68
535.223	2012.86
535.428	2050.64
535.633	2104.69
535.838	2146.93
536.043	2113.6
536.249	2177.93
536.454	2117.48
536.659	2154.87
536.864	2106.44
537.069	2098.88
537.274	2129.88
537.479	2112.44
537.684	2111.67
537.889	2105.27
538.094	2206.41
538.299	2129.69
538.504	2171.73
538.708	2182.97
538.913	2153.32
539.118	2168.24
539.323	2154.1
539.528	2126.2
539.733	2111.67
539.938	2157.39
540.142	2151.77
540.347	2127.36
540.552	2124.07
540.757	2143.64
540.962	2136.27
541.166	2047.73
541.371	2096.17
541.576	2082.8
541.781	2042.31
541.985	2172.89
542.19	2130.46
542.395	2270.54
542.599	2232.95
542.804	2173.67
543.008	2231.02
543.213	2186.84
543.418	2138.6
543.622	2199.43
543.827	2159.33
544.031	2249.03
544.236	2284.68
544.44	2231.02
544.645	2311.03
544.849	2210.48
545.054	2289.33
545.258	2341.65
545.463	2320.72
545.667	2218.81
545.872	2275.19
546.076	2286.62
546.281	2286.62
546.485	2254.46
546.689	2302.51
546.894	2318.78
547.098	2301.73
547.302	2262.4
547.507	2264.92
547.711	2297.86
547.915	2336.03
548.119	2248.07
548.324	2268.41
548.528	2304.06
548.732	2276.55
548.936	2314.13
549.141	2308.32
549.345	2303.86
549.549	2327.5
549.753	2314.91
549.957	2369.74
550.161	2384.27
550.366	2345.71
550.57	2312.2
550.774	2326.53
550.978	2320.91
551.182	2362.96
551.386	2290.11
551.59	2325.37
551.794	2311.23
551.998	2343.2
552.202	2360.63
552.406	2277.71
552.61	2376.33
552.814	2343.97
553.018	2399.19
553.222	2329.83
553.426	2341.65
553.63	2396.28
553.833	2308.51
554.037	2281.39
554.241	2334.67
554.445	2362.57
554.649	2326.73
554.853	2298.05
555.056	2373.61
555.26	2401.71
555.464	2349.4
555.668	2367.61
555.871	2387.76
556.075	2410.04
556.279	2326.73
556.483	2300.96
556.686	2311.81
556.89	2334.48
557.094	2322.46
557.297	2288.56
557.501	2322.46
557.704	2230.43
557.908	2307.55
558.112	2233.34
558.315	2315.68
558.519	2217.07
558.722	2207.57
558.926	2234.12
559.129	2126.97
559.333	2155.07
559.536	2161.65
559.74	2161.27
559.943	2135.3
560.147	2151.58
560.35	2170.76
560.553	2197.3
560.757	2140.34
560.96	2266.08
561.164	2194.2
561.367	2238.96
561.57	2196.53
561.774	2190.52
561.977	2151.39
562.18	2167.08
562.384	2225.4
562.587	2150.22
562.79	2146.74
562.993	2139.18
563.197	2196.53
563.4	2170.18
563.603	2213.19
563.806	2215.13
564.009	2148.67
564.212	2193.43
564.416	2087.06
564.619	2136.66
564.822	2069.82
565.025	2161.85
565.228	2108.37
565.431	2087.84
565.634	2042.11
565.837	2038.04
566.04	2038.04
566.243	2039.21
566.446	1951.44
566.649	2063.81
566.852	1997.94
567.055	2012.27
567.258	2022.93
567.461	2041.53
567.664	2053.93
567.867	1976.43
568.07	1989.8
568.273	2025.06
568.475	2041.53
568.678	1952.21
568.881	1977.21
569.084	1944.08
569.287	1847.2
569.489	1915.01
569.692	1932.45
569.895	1912.5
570.098	1861.93
570.3	1927.22
570.503	1809.81
570.706	1833.45
570.909	1845.07
571.111	1808.26
571.314	1779.97
571.516	1773.19
571.719	1849.72
571.922	1802.45
572.124	1817.95
572.327	1782.49
572.529	1766.02
572.732	1791.6
572.935	1782.88
573.137	1878.59
573.34	1794.7
573.542	1805.16
573.745	1807.68
573.947	1785.01
574.15	1763.5
574.352	1744.32
574.554	1819.3
574.757	1743.16
574.959	1694.92
575.162	1728.05
575.364	1685.23
575.566	1781.72
575.769	1673.6
575.971	1712.55
576.173	1563.94
576.376	1669.73
576.578	1739.29
576.78	1742.38
576.982	1609.28
577.185	1683.68
577.387	1652.68
577.589	1654.81
577.791	1676.32
577.993	1685.81
578.196	1635.63
578.398	1655
578.6	1660.62
578.802	1662.56
579.004	1599.79
579.206	1649.39
579.408	1625.75
579.61	1573.05
579.812	1652.49
580.014	1628.27
580.216	1595.14
580.418	1669.15
580.62	1644.93
580.822	1596.49
581.024	1630.21
581.226	1660.24
581.428	1590.68
581.63	1725.72
581.832	1624.59
582.034	1650.55
582.236	1671.28
582.438	1667.99
582.64	1692.01
582.841	1743.35
583.043	1736.77
583.245	1686.2
583.447	1705.96
583.649	1691.43
583.85	1687.94
584.052	1722.04
584.254	1626.33
584.456	1681.16
584.657	1630.59
584.859	1672.05
585.061	1632.53
585.262	1588.55
585.464	1588.16
585.666	1644.35
585.867	1588.36
586.069	1611.41
586.27	1626.33
586.472	1604.44
586.674	1593.2
586.875	1574.41
587.077	1581.77
587.278	1574.79
587.48	1550.58
587.681	1655.78
587.883	1573.44
588.084	1535.27
588.285	1578.86
588.487	1520.35
588.688	1529.84
588.89	1462.61
589.091	1401.97
589.292	1390.73
589.494	1385.89
589.695	1370
589.896	1327.38
590.098	1316.92
590.299	1366.9
590.5	1344.62
590.702	1347.14
590.903	1414.95
591.104	1488.38
591.305	1434.52
591.507	1501.36
591.708	1437.43
591.909	1419.6
592.11	1486.83
592.311	1475.4
592.512	1431.61
592.714	1375.82
592.915	1424.45
593.116	1394.61
593.317	1458.16
593.518	1432.39
593.719	1422.51
593.92	1470.17
594.121	1469.98
594.322	1457.96
594.523	1425.61
594.724	1386.86
594.925	1400.23
595.126	1419.8
595.327	1424.83
595.528	1426
595.729	1428.51
595.929	1411.66
596.13	1442.85
596.331	1444.4
596.532	1438.98
596.733	1491.48
596.934	1463.2
597.135	1442.85
597.335	1448.66
597.536	1409.91
597.737	1425.41
597.938	1390.54
598.138	1477.53
598.339	1446.92
598.54	1464.75
598.74	1385.89
598.941	1420.96
599.142	1474.63
599.342	1416.31
599.543	1412.05
599.744	1407.4
599.944	1409.91
600.145	1417.28
600.345	1403.13
600.546	1464.94
600.746	1451.57
600.947	1479.28
601.147	1430.06
601.348	1460.68
601.548	1395.77
601.749	1433.16
601.949	1351.79
602.15	1363.22
602.35	1402.36
602.551	1411.85
602.751	1376.2
602.951	1400.61
603.152	1325.05
603.352	1438.01
603.552	1392.86
603.753	1436.26
603.953	1434.13
604.153	1431.61
604.354	1383.18
604.554	1388.99
604.754	1420.57
604.954	1357.41
605.155	1399.45
605.355	1400.23
605.555	1437.62
605.755	1441.3
605.955	1383.95
606.155	1429.87
606.356	1396.16
606.556	1391.9
606.756	1401.39
606.956	1343.46
607.156	1440.91
607.356	1370.78
607.556	1396.93
607.756	1377.75
607.956	1425.61
608.156	1415.53
608.356	1352.37
608.556	1415.15
608.756	1389.96
608.956	1328.15
609.156	1365.74
609.356	1355.28
609.556	1303.93
609.755	1348.69
609.955	1319.05
610.155	1335.71
610.355	1369.81
610.555	1310.52
610.755	1312.27
610.954	1260.73
611.154	1348.69
611.354	1346.56
611.554	1292.5
611.753	1293.86
611.953	1221.4
612.153	1303.93
612.352	1336.68
612.552	1252.79
612.752	1180.52
612.951	1261.7
613.151	1247.75
613.351	1256.08
613.55	1271.97
613.75	1282.43
613.949	1259.18
614.149	1242.32
614.348	1234.77
614.548	1222.56
614.747	1215.39
614.947	1233.41
615.146	1211.52
615.346	1244.84
615.545	1251.43
615.745	1238.25
615.944	1229.15
616.144	1225.85
616.343	1247.75
616.542	1181.29
616.742	1182.07
616.941	1184.59
617.14	1140.61
617.34	1190.98
617.539	1169.47
617.738	1178
617.938	1257.63
618.137	1161.92
618.336	1174.51
618.535	1220.43
618.734	1207.45
618.934	1209.19
619.133	1182.84
619.332	1219.27
619.531	1162.69
619.73	1178.77
619.929	1243.29
620.128	1201.64
620.328	1244.07
620.527	1191.17
620.726	1163.47
620.925	1182.46
621.124	1186.91
621.323	1192.34
621.522	1123.75
621.721	1159.4
621.92	1138.09
622.119	1190.98
622.318	1135.76
622.517	1160.76
622.715	1122.59
622.914	1095.85
623.113	1140.99
623.312	1077.06
623.511	1129.56
623.71	1125.11
623.909	1097.4
624.107	1150.68
624.306	1084.61
624.505	1105.34
624.704	1093.72
624.902	1072.79
625.101	1133.24
625.3	1108.25
625.499	1048.19
625.697	1084.42
625.896	1061.94
626.095	1091.2
626.293	1037.73
626.492	1051.48
626.69	1105.15
626.889	1060.78
627.088	1094.11
627.286	1068.73
627.485	1036.18
627.683	1034.05
627.882	1023.39
628.08	914.89
628.279	1013.9
628.477	1042.18
628.676	975.53
628.874	1010.41
629.073	985.41
629.271	979.41
629.469	1011.76
629.668	1018.55
629.866	991.42
630.065	1005.56
630.263	1032.5
630.461	989.29
630.66	1027.46
630.858	1050.9
631.056	1074.93
631.254	1068.53
631.453	977.66
631.651	1010.6
631.849	1013.9
632.047	1003.63
632.245	1000.53
632.444	1059.43
632.642	1033.08
632.84	1054.97
633.038	1020.1
633.236	1000.53
633.434	989.1
633.632	1008.28
633.83	1002.66
634.028	1031.72
634.227	1032.69
634.425	1093.91
634.623	1012.93
634.821	1013.51
635.019	991.81
635.216	1034.05
635.414	1036.95
635.612	1038.89
635.81	1018.35
636.008	1088.49
636.206	993.16
636.404	1043.54
636.602	994.71
636.8	1001.88
636.997	1045.86
637.195	1031.72
637.393	1022.03
637.591	1090.43
637.789	1035.79
637.986	1018.55
638.184	1046.06
638.382	1043.93
638.58	1065.63
638.777	1088.29
638.975	1020.1
639.173	1012.35
639.37	1036.76
639.568	1029.01
639.765	1060.39
639.963	987.16
640.161	1019.32
640.358	1036.95
640.556	950.93
640.753	959.84
640.951	952.09
641.148	973.6
641.346	979.21
641.543	984.06
641.741	1000.91
641.938	942.4
642.136	948.8
642.333	939.3
642.531	977.86
642.728	979.6
642.925	943.37
643.123	902.49
643.32	942.21
643.517	922.06
643.715	946.67
643.912	933.49
644.109	961.78
644.306	910.63
644.504	903.27
644.701	924
644.898	925.16
645.095	901.52
645.293	896.29
645.49	919.73
645.687	876.14
645.884	936.01
646.081	856.57
646.278	860.25
646.475	872.27
646.672	880.02
646.87	877.88
647.067	867.42
647.264	848.82
647.461	824.02
647.658	766.29
647.855	847.85
648.052	822.67
648.249	761.25
648.446	800.39
648.642	766.87
648.839	789.73
649.036	769
649.233	757.76
649.43	739.55
649.627	752.34
649.824	761.06
650.021	750.01
650.217	770.55
650.414	769.58
650.611	788.95
650.808	826.74
651.004	780.24
651.201	774.81
651.398	824.8
651.595	777.52
651.791	763.38
651.988	809.1
652.185	760.86
652.381	806.2
652.578	702.54
652.775	780.24
652.971	764.54
653.168	768.22
653.364	787.02
653.561	721.72
653.757	796.12
653.954	752.14
654.15	707
654.347	812.2
654.543	756.79
654.74	722.69
654.936	695.76
655.133	741.68
655.329	749.24
655.525	724.44
655.722	749.04
655.918	707.19
656.115	712.42
656.311	641.13
656.507	630.08
656.704	608.96
656.9	645.19
657.096	626.59
657.292	661.28
657.489	702.35
657.685	705.45
657.881	682.59
658.077	690.92
658.273	658.37
658.47	739.74
658.666	674.06
658.862	735.09
659.058	669.03
659.254	722.11
659.45	672.71
659.646	721.34
659.842	709.13
660.038	724.24
660.234	714.75
660.43	701.77
660.626	738.77
660.822	731.61
661.018	749.04
661.214	706.22
661.41	649.46
661.606	719.21
661.802	746.52
661.998	695.76
662.194	705.26
662.39	702.35
662.586	694.21
662.781	736.84
662.977	692.27
663.173	734.32
663.369	732.19
663.564	699.06
663.76	724.63
663.956	690.53
664.152	750.01
664.347	641.32
664.543	675.42
664.739	675.03
664.934	608.58
665.13	593.08
665.326	686.66
665.521	679.29
665.717	607.61
665.912	613.81
666.108	577.77
666.304	632.6
666.499	634.34
666.695	569.25
666.89	622.72
667.086	646.55
667.281	645.97
667.477	660.11
667.672	649.84
667.867	620.59
668.063	638.99
668.258	612.45
668.454	602.38
668.649	669.61
668.844	628.14
669.04	644.23
669.235	599.66
669.43	585.71
669.626	566.92
669.821	584.55
670.016	570.6
670.211	612.64
670.407	598.7
670.602	582.61
670.797	589.01
670.992	640.54
671.187	564.4
671.382	627.56
671.578	566.15
671.773	614.78
671.968	521.39
672.163	599.28
672.358	617.49
672.553	538.05
672.748	589.78
672.943	652.94
673.138	567.5
673.333	609.54
673.528	583
673.723	604.31
673.918	576.41
674.113	555.68
674.308	656.04
674.503	613.03
674.698	593.85
674.892	591.72
675.087	625.43
675.282	594.43
675.477	570.02
675.672	620.2
675.867	566.53
676.061	545.61
676.256	529.33
676.451	570.99
676.646	578.93
676.84	557.23
677.035	523.71
677.23	520.61
677.424	573.12
677.619	615.74
677.814	615.55
678.008	594.82
678.203	532.63
678.397	541.15
678.592	558.2
678.787	607.8
678.981	566.73
679.176	573.51
679.37	558.78
679.565	552.78
679.759	555.3
679.954	556.26
680.148	603.73
680.342	610.32
680.537	572.54
680.731	576.41
680.926	568.08
681.12	586.3
681.314	524.68
681.509	549.68
681.703	565.37
681.897	586.88
682.092	555.3
682.286	566.92
682.48	646.94
682.674	617.68
682.869	582.61
683.063	553.75
683.257	614.19
683.451	564.4
683.645	603.93
683.839	580.48
684.034	573.51
684.228	619.04
684.422	557.43
684.616	545.61
684.81	609.16
685.004	584.55
685.198	602.96
685.392	619.81
685.586	602.38
685.78	602.38
685.974	611.09
686.168	641.51
686.362	646.55
686.556	558.4
686.75	532.82
686.944	532.82
687.138	526.81
687.331	443.89
687.525	479.73
687.719	415.02
687.913	486.13
688.107	500.66
688.301	480.7
688.494	524.68
688.688	474.12
688.882	478.18
689.076	458.23
689.269	530.88
689.463	606.06
689.657	509.38
689.85	527.01
690.044	540.38
690.238	563.63
690.431	557.23
690.625	562.27
690.818	631.63
691.012	614
691.205	652.75
691.399	625.63
691.593	633.76
691.786	729.67
691.98	699.64
692.173	747.88
692.366	721.53
692.56	716.3
692.753	813.17
692.947	726.37
693.14	794.57
693.333	793.41
693.527	763.19
693.72	801.74
693.914	758.73
694.107	781.59
694.3	803.87
694.493	785.85
694.687	893.19
694.88	821.7
695.073	913.92
695.266	915.47
695.46	860.84
695.653	913.15
695.846	924.97
696.039	877.11
696.232	925.35
696.425	974.37
696.618	988.51
696.812	1007.11
697.005	1067.76
697.198	1153.01
697.391	1093.14
697.584	1111.35
697.777	1186.52
697.97	1136.34
698.163	1144.48
698.356	1165.79
698.549	1252.59
698.742	1203.96
698.935	1168.31
699.127	1200.47
699.32	1175.87
699.513	1178.58
699.706	1223.72
699.899	1240.39
700.092	1235.15
700.285	1262.47
700.477	1203.38
700.67	1301.03
700.863	1286.3
701.056	1386.86
701.248	1357.02
701.441	1413.01
701.634	1344.23
701.826	1423.48
702.019	1369.23
702.212	1396.74
702.404	1377.37
702.597	1403.33
702.79	1395
702.982	1463.39
703.175	1471.14
703.367	1501.75
703.56	1514.54
703.752	1586.22
703.945	1546.89
704.137	1583.9
704.33	1641.83
704.522	1621.29
704.715	1638.54
704.907	1669.73
705.1	1669.54
705.292	1707.12
705.484	1688.91
705.677	1711.19
705.869	1747.62
706.061	1754.01
706.254	1804.19
706.446	1786.17
706.638	1739.09
706.831	1837.9
707.023	1816.01
707.215	1919.66
707.407	1930.51
707.599	1891.18
707.792	1932.45
707.984	1915.79
708.176	1921.02
708.368	1927.03
708.56	1964.03
708.752	1967.71
708.944	1969.26
709.136	2003.75
709.329	2003.94
709.521	2118.84
709.713	2080.67
709.905	2081.06
710.097	2168.24
710.289	2071.95
710.481	2133.95
710.672	2100.82
710.864	2164.75
711.056	2194.4
711.248	2149.45
711.44	2209.51
711.632	2183.93
711.824	2248.65
712.016	2292.82
712.207	2265.31
712.399	2262.98
712.591	2318.4
712.783	2301.54
712.975	2308.51
713.166	2257.17
713.358	2256.59
713.55	2356.56
713.741	2370.71
713.933	2397.25
714.125	2369.54
714.316	2318.98
714.508	2438.71
714.7	2420.11
714.891	2386.98
715.083	2453.82
715.274	2401.71
715.466	2459.25
715.657	2423.99
715.849	2339.32
716.04	2428.06
716.232	2373.42
716.423	2374.58
716.615	2290.11
716.806	2223.07
716.998	2170.57
717.189	2122.13
717.381	2060.32
717.572	2010.34
717.763	2021.96
717.955	1942.91
718.146	1943.69
718.337	1896.61
718.528	1828.41
718.72	1772.8
718.911	1812.91
719.102	1803.61
719.293	1852.24
719.485	1810.97
719.676	1756.33
719.867	1751.88
720.058	1784.43
720.249	1795.47
720.44	1783.85
720.632	1828.21
720.823	1859.6
721.014	2030.49
721.205	2034.56
721.396	2127.17
721.587	2235.86
721.778	2282.94
721.969	2317.04
722.16	2377.68
722.351	2389.31
722.542	2483.27
722.733	2532.49
722.924	2419.53
723.115	2445.49
723.305	2464.09
723.496	2408.29
723.687	2295.15
723.878	2371.09
724.069	2335.06
724.26	2318.2
724.45	2295.53
724.641	2267.05
724.832	2297.47
725.023	2239.54
725.213	2236.05
725.404	2206.99
725.595	2242.64
725.785	2194.01
725.976	2294.76
726.167	2262.98
726.357	2283.13
726.548	2371.29
726.739	2300.96
726.929	2377.49
727.12	2393.57
727.31	2379.43
727.501	2356.18
727.691	2385.43
727.882	2366.44
728.072	2429.22
728.263	2439.29
728.453	2450.72
728.644	2478.04
728.834	2422.44
729.024	2378.26
729.215	2394.54
729.405	2467.19
729.596	2516.6
729.786	2520.67
729.976	2543.34
730.167	2551.09
730.357	2522.02
730.547	2569.88
730.737	2571.62
730.928	2617.15
731.118	2620.06
731.308	2564.26
731.498	2588.29
731.688	2667.14
731.879	2698.53
732.069	2755.3
732.259	2814.97
732.449	2835.31
732.639	2933.93
732.829	2941.1
733.019	2937.42
733.209	3046.11
733.399	3026.15
733.589	3099.78
733.779	3129.03
733.969	3096.68
734.159	3223.78
734.349	3215.45
734.539	3279.19
734.729	3250.13
734.919	3320.84
735.109	3342.35
735.299	3285.78
735.488	3352.23
735.678	3322.59
735.868	3329.56
736.058	3285
736.248	3318.91
736.437	3228.43
736.627	3230.94
736.817	3375.87
737.007	3346.61
737.196	3385.36
737.386	3355.14
737.576	3331.5
737.765	3412.68
737.955	3364.24
738.144	3517.3
738.334	3445.62
738.524	3418.1
738.713	3437.87
738.903	3423.14
739.092	3474.68
739.282	3462.67
739.471	3479.33
739.661	3476.23
739.85	3514.2
740.04	3526.6
740.229	3538.42
740.419	3565.93
740.608	3573.88
740.797	3559.35
740.987	3634.33
741.176	3613.4
741.365	3589.96
741.555	3556.25
741.744	3621.93
741.933	3600.81
742.123	3614.76
742.312	3662.81
742.501	3675.79
742.69	3711.05
742.88	3605.65
743.069	3731.2
743.258	3684.31
743.447	3746.7
743.636	3745.93
743.825	3727.33
744.014	3742.83
744.204	3738.95
744.393	3671.33
744.582	3799.98
744.771	3830.01
744.96	3731.59
745.149	3724.42
745.338	3699.04
745.527	3790.49
745.716	3750.77
745.905	3708.34
746.094	3802.11
746.283	3762.59
746.471	3777.12
746.66	3835.24
746.849	3763.17
747.038	3842.6
747.227	3752.51
747.416	3812.96
747.604	3737.79
747.793	3742.44
747.982	3790.1
748.171	3842.41
748.359	3779.25
748.548	3780.99
748.737	3774.02
748.926	3795.14
749.114	3688.38
749.303	3769.56
749.491	3761.04
749.68	3657.19
749.869	3808.31
750.057	3705.63
750.246	3699.43
750.434	3721.32
750.623	3755.81
750.811	3715.89
751	3801.53
751.188	3710.66
751.377	3715.89
751.565	3704.27
751.754	3689.54
751.942	3653.7
752.131	3709.5
752.319	3681.6
752.507	3700.2
752.696	3707.37
752.884	3718.22
753.072	3670.36
753.261	3689.35
753.449	3666.68
753.637	3636.26
753.825	3736.04
754.014	3618.44
754.202	3714.54
754.39	3721.51
754.578	3727.91
754.766	3632.97
754.955	3625.61
755.143	3705.24
755.331	3658.16
755.519	3668.04
755.707	3634.33
755.895	3630.65
756.083	3630.65
756.271	3570.2
756.459	3628.71
756.647	3629.68
756.835	3584.15
757.023	3585.31
757.211	3547.92
757.399	3544.23
757.587	3540.17
757.775	3494.83
757.963	3512.07
758.151	3541.13
758.339	3445.23
758.526	3520.98
758.714	3509.36
758.902	3376.06
759.09	3302.05
759.278	3062.97
759.465	2861.28
759.653	2469.32
759.841	2241.67
760.028	1881.69
760.216	1627.3
760.404	1528.1
760.591	1252.79
760.779	1078.61
760.967	919.15
761.154	764.54
761.342	799.03
761.529	760.67
761.717	824.02
761.905	821.89
762.092	889.32
762.28	841.07
762.467	810.27
762.655	735.09
762.842	745.17
763.029	767.84
763.217	781.59
763.404	769.97
763.592	786.44
763.779	785.47
763.966	793.8
764.154	855.6
764.341	894.35
764.528	879.82
764.716	939.69
764.903	1025.33
765.09	1111.93
765.277	1145.06
765.465	1325.44
765.652	1382.21
765.839	1440.53
766.026	1588.36
766.213	1628.66
766.4	1771.64
766.588	1959.58
766.775	1938.65
766.962	2055.48
767.149	2139.95
767.336	2316.46
767.523	2341.65
767.71	2466.81
767.897	2562.52
768.084	2640.21
768.271	2705.7
768.458	2767.5
768.645	2845
768.832	2821.75
769.019	2813.61
769.206	2886.07
769.392	2920.95
769.579	3033.52
769.766	3009.1
769.953	2997.48
770.14	3073.43
770.327	3070.91
770.513	3119.54
770.7	3148.8
770.887	3068.58
771.073	3138.14
771.26	3083.89
771.447	3068.58
771.634	3113.73
771.82	3201.3
772.007	3121.28
772.193	3170.3
772.38	3179.21
772.567	3123.61
772.753	3135.82
772.94	3186.96
773.126	3188.71
773.313	3197.62
773.499	3157.32
773.686	3200.53
773.872	3128.07
774.059	3165.26
774.245	3134.07
774.432	3143.95
774.618	3076.72
774.804	3119.93
774.991	3084.47
775.177	3122.45
775.363	3133.1
775.55	3151.51
775.736	3082.92
775.922	3132.91
776.109	3096.48
776.295	3099.58
776.481	3099.58
776.667	3156.55
776.853	3053.47
777.04	3073.23
777.226	3053.08
777.412	3148.6
777.598	3022.28
777.784	3042.82
777.97	3055.99
778.156	3037.78
778.342	3040.1
778.528	3023.25
778.715	2966.09
778.901	2987.79
779.087	3019.18
779.272	2975.97
779.458	3001.94
779.644	3027.12
779.83	2978.69
780.016	3080.02
780.202	2975.59
780.388	2975.2
780.574	2892.66
780.76	2909.32
780.946	2976.75
781.131	2946.91
781.317	2930.25
781.503	2927.73
781.689	2880.84
781.874	3011.43
782.06	2901.57
782.246	2926.76
782.432	2893.44
782.617	2906.42
782.803	2919.4
782.989	2859.73
783.174	2854.88
783.36	2812.26
783.545	2856.82
783.731	2846.36
783.916	2767.5
784.102	2917.27
784.288	2841.51
784.473	2839.19
784.659	2801.41
784.844	2848.88
785.029	2806.25
785.215	2809.35
785.4	2780.29
785.586	2818.46
785.771	2748.71
785.956	2804.51
786.142	2748.32
786.327	2740.96
786.512	2755.68
786.698	2741.35
786.883	2645.44
787.068	2686.13
787.254	2717.13
787.439	2674.31
787.624	2675.08
787.809	2662.49
787.994	2641.37
788.18	2722.16
788.365	2620.06
788.55	2607.47
788.735	2591.97
788.92	2614.05
789.105	2562.9
789.29	2607.27
789.475	2560.97
789.66	2562.71
789.845	2516.21
790.03	2527.06
790.215	2543.14
790.4	2582.67
790.585	2585.38
790.77	2551.28
790.955	2457.31
791.14	2521.25
791.325	2556.51
791.51	2458.47
791.695	2517.76
791.879	2501.29
792.064	2511.37
792.249	2565.81
792.434	2460.41
792.618	2503.81
792.803	2525.32
792.988	2537.52
793.173	2517.18
793.357	2549.92
793.542	2456.34
793.727	2506.91
793.911	2535.78
794.096	2516.21
794.281	2566.2
794.465	2634.01
794.65	2553.41
794.834	2596.23
795.019	2546.44
795.203	2620.06
795.388	2598.75
795.572	2567.17
795.757	2567.94
795.941	2586.35
796.126	2558.84
796.31	2494.32
796.494	2532.49
796.679	2537.91
796.863	2512.34
797.048	2573.75
797.232	2544.11
797.416	2549.92
797.601	2546.44
797.785	2573.95
797.969	2608.44
798.153	2478.62
798.338	2599.33
798.522	2639.05
798.706	2642.34
798.89	2617.73
799.074	2688.84
799.258	2677.6
799.443	2611.92
799.627	2580.15
799.811	2625.87
799.995	2560.58
800.179	2556.12
800.363	2571.04
800.547	2578.02
800.731	2610.95
800.915	2515.44
801.099	2553.8
801.283	2576.85
801.467	2573.37
801.651	2560
801.835	2616.77
802.019	2597
802.202	2578.4
802.386	2497.61
802.57	2499.36
802.754	2532.1
802.938	2544.11
803.121	2501.49
803.305	2558.25
803.489	2529.97
803.673	2573.17
803.856	2580.54
804.04	2525.9
804.224	2547.79
804.407	2526.67
804.591	2534.62
804.775	2553.41
804.958	2544.5
805.142	2637.5
805.326	2572.59
805.509	2577.82
805.693	2608.24
805.876	2597.39
806.06	2597
806.243	2630.91
806.427	2630.13
806.61	2656.29
806.794	2560.77
806.977	2647.77
807.16	2622
807.344	2622
807.527	2602.62
807.71	2578.02
807.894	2596.04
808.077	2591
808.26	2529.77
808.444	2516.41
808.627	2604.17
808.81	2527.45
808.993	2507.11
809.177	2451.11
809.36	2479.79
809.543	2497.42
809.726	2394.93
809.909	2445.11
810.092	2391.44
810.276	2429.41
810.459	2402.29
810.642	2392.41
810.825	2297.86
811.008	2377.88
811.191	2257.75
811.374	2287.01
811.557	2301.54
811.74	2350.36
811.923	2243.22
812.106	2235.08
812.289	2219
812.472	2186.84
812.654	2209.9
812.837	2145.96
813.02	2127.75
813.203	2095.97
813.386	2002.2
813.569	1975.85
813.751	1940.98
813.934	1988.06
814.117	1897
814.3	1865.8
814.482	1824.53
814.665	1806.71
814.848	1749.36
815.03	1692.98
815.213	1708.29
815.396	1708.09
815.578	1679.03
815.761	1657.72
815.943	1678.25
816.126	1595.52
816.309	1580.99
816.491	1505.63
816.674	1447.31
816.856	1539.34
817.039	1541.28
817.221	1609.28
817.403	1537.98
817.586	1540.69
817.768	1572.08
817.951	1464.16
818.133	1478.11
818.315	1489.16
818.498	1523.26
818.68	1595.72
818.862	1557.55
819.045	1588.16
819.227	1595.72
819.409	1553.68
819.591	1576.73
819.774	1579.25
819.956	1517.06
820.138	1629.24
820.32	1635.24
820.502	1665.27
820.684	1755.56
820.866	1740.83
821.048	1810.39
821.231	1815.04
821.413	1811.36
821.595	1816.01
821.777	1820.08
821.959	1772.61
822.141	1846.23
822.323	1687.55
822.505	1651.71
822.686	1586.22
822.868	1504.46
823.05	1374.65
823.232	1380.27
823.414	1338.81
823.596	1378.53
823.778	1373.1
823.96	1406.81
824.141	1444.4
824.323	1428.9
824.505	1512.99
824.687	1583.32
824.868	1634.66
825.05	1697.82
825.232	1726.11
825.413	1812.72
825.595	1760.98
825.777	1654.23
825.958	1735.6
826.14	1706.15
826.321	1762.73
826.503	1725.53
826.685	1828.6
826.866	1780.36
827.048	1770.87
827.229	1709.84
827.411	1697.05
827.592	1617.42
827.773	1622.26
827.955	1593.59
828.136	1579.83
828.318	1543.41
828.499	1548.06
828.68	1545.93
828.862	1564.33
829.043	1604.63
829.224	1532.36
829.406	1499.81
829.587	1522.09
829.768	1533.53
829.949	1551.16
830.131	1532.75
830.312	1636.41
830.493	1546.89
830.674	1589.13
830.855	1548.64
831.036	1544.96
831.218	1626.91
831.399	1632.92
831.58	1596.11
831.761	1548.83
831.942	1569.76
832.123	1566.66
832.304	1526.55
832.485	1535.46
832.666	1552.9
832.847	1597.66
833.028	1574.02
833.209	1574.41
833.389	1558.33
833.57	1502.72
833.751	1510.08
833.932	1607.92
834.113	1582.35
834.294	1562.2
834.475	1578.28
834.655	1600.95
834.836	1626.52
835.017	1634.08
835.198	1570.72
835.378	1612.57
835.559	1656.17
835.74	1605.99
835.92	1579.44
836.101	1587.19
836.281	1619.55
836.462	1614.51
836.643	1650.94
836.823	1643.57
837.004	1659.85
837.184	1712.94
837.365	1651.71
837.545	1682.13
837.726	1602.69
837.906	1734.05
838.087	1659.85
838.267	1645.51
838.448	1597.46
838.628	1660.82
838.808	1639.51
838.989	1691.04
839.169	1610.44
839.349	1691.43
839.53	1682.13
839.71	1672.83
839.89	1621.49
840.07	1717
840.251	1621.29
840.431	1671.09
840.611	1645.12
840.791	1650.36
840.971	1675.54
841.151	1638.34
841.332	1624.39
841.512	1671.86
841.692	1581.96
841.872	1661.79
842.052	1593.97
842.232	1661.01
842.412	1613.35
842.592	1625.36
842.772	1645.51
842.952	1686.2
843.132	1623.62
843.312	1615.09
843.492	1617.81
843.672	1618.19
843.851	1564.53
844.031	1599.98
844.211	1624.01
844.391	1559.68
844.571	1611.02
844.751	1614.71
844.93	1632.72
845.11	1563.36
845.29	1641.44
845.47	1628.46
845.649	1597.46
845.829	1644.74
846.009	1596.49
846.188	1629.04
846.368	1595.33
846.547	1614.71
846.727	1590.68
846.907	1553.48
847.086	1627.69
847.266	1621.87
847.445	1559.88
847.625	1549.61
847.804	1567.24
847.984	1578.67
848.163	1515.89
848.343	1550.96
848.522	1578.86
848.701	1601.14
848.881	1512.99
849.06	1562.78
849.239	1563.94
849.419	1577.12
849.598	1475.98
849.777	1507.56
849.957	1480.44
850.136	1421.15
850.315	1421.15
850.494	1418.63
850.674	1429.87
850.853	1431.81
851.032	1435.88
851.211	1483.54
851.39	1438.2
851.569	1432
851.748	1395
851.927	1498.65
852.107	1463.97
852.286	1466.3
852.465	1392.86
852.644	1466.3
852.823	1430.26
853.002	1414.18
853.181	1454.67
853.359	1452.15
853.538	1375.23
853.717	1454.48
853.896	1352.95
854.075	1325.44
854.254	1291.15
854.433	1205.71
854.611	1258.4
854.79	1207.64
854.969	1239.42
855.148	1305.68
855.327	1235.93
855.505	1319.05
855.684	1322.34
855.863	1329.12
856.041	1283.98
856.22	1289.6
856.399	1343.46
856.577	1416.7
856.756	1380.66
856.934	1467.07
857.113	1438.01
857.291	1379.3
857.47	1384.34
857.648	1417.28
857.827	1389.57
858.005	1411.08
858.184	1388.22
858.362	1447.31
858.541	1375.23
858.719	1394.03
858.898	1376.78
859.076	1399.26
859.254	1381.05
859.433	1360.32
859.611	1323.31
859.789	1333.97
859.967	1365.74
860.146	1406.04
860.324	1327.96
860.502	1349.85
860.68	1318.66
860.859	1330.28
861.037	1333
861.215	1336.68
861.393	1345.2
861.571	1351.4
861.749	1330.09
861.927	1366.32
862.105	1339.2
862.283	1309.75
862.461	1292.12
862.639	1309.75
862.817	1262.86
862.995	1319.05
863.173	1282.82
863.351	1282.04
863.529	1310.91
863.707	1350.24
863.885	1295.02
864.063	1262.67
864.241	1300.64
864.418	1347.33
864.596	1258.79
864.774	1227.99
864.952	1247.17
865.129	1296.77
865.307	1258.79
865.485	1223.92
865.663	1307.42
865.84	1230.12
866.018	1190.21
866.196	1116.58
866.373	1115.03
866.551	1095.08
866.728	1035.01
866.906	1085.19
867.084	1132.47
867.261	1155.33
867.439	1148.94
867.616	1205.51
867.794	1153.78
867.971	1151.46
868.149	1148.55
868.326	1242.71
868.503	1172.57
868.681	1194.86
868.858	1161.53
869.035	1167.15
869.213	1183.62
869.39	1195.44
869.567	1252.2
869.745	1154.75
869.922	1186.52
870.099	1211.91
870.276	1197.37
870.454	1202.99
870.631	1187.88
870.808	1154.36
870.985	1216.17
871.162	1244.84
871.339	1217.33
871.517	1131.31
871.694	1148.94
871.871	1170.06
872.048	1162.5
872.225	1165.02
872.402	1173.93
872.579	1101.86
872.756	1176.26
872.933	1116.39
873.11	1151.26
873.287	1135.57
873.463	1112.32
873.64	1123.94
873.817	1147
873.994	1119.88
874.171	1104.76
874.348	1122.01
874.524	1069.5
874.701	1088.88
874.878	1045.09
875.055	1135.37
875.231	1100.31
875.408	1128.01
875.585	1003.43
875.762	1104.38
875.938	1096.82
876.115	1080.54
876.291	1052.84
876.468	1062.33
876.645	1038.5
876.821	1037.53
876.998	1034.43
877.174	1071.83
877.351	1053.42
877.527	1024.36
877.704	1092.56
877.88	1063.88
878.057	1022.03
878.233	1089.07
878.409	1044.31
878.586	1065.24
878.762	1041.79
878.938	1038.5
879.115	973.6
879.291	1029.2
879.467	992.97
879.644	992.2
879.82	1038.7
879.996	1002.85
880.172	920.32
880.349	969.91
880.525	1034.82
880.701	992.58
880.877	978.44
881.053	985.41
881.229	1001.69
881.405	1013.7
881.581	980.57
881.757	962.16
881.933	973.01
882.109	1015.25
882.285	991.03
882.461	973.21
882.637	999.36
882.813	936.59
882.989	978.63
883.165	999.56
883.341	988.71
883.517	1043.93
883.693	965.07
883.869	1012.35
884.044	966.23
884.22	1013.51
884.396	1029.01
884.572	998.4
884.747	1009.83
884.923	1012.35
885.099	1035.6
885.275	1029.59
885.45	957.32
885.626	945.89
885.801	968.75
885.977	967.78
886.153	942.98
886.328	954.22
886.504	936.59
886.679	980.18
886.855	952.87
887.03	982.12
887.206	977.86
887.381	981.35
887.557	1021.45
887.732	975.34
887.908	992.2
888.083	1012.15
888.258	955.19
888.434	955.19
888.609	972.05
888.784	1014.48
888.96	969.53
889.135	950.54
889.31	955.19
889.485	973.21
889.661	942.79
889.836	1010.6
890.011	1013.9
890.186	964.3
890.361	927.48
890.537	985.41
890.712	978.25
890.887	975.53
891.062	981.54
891.237	1022.42
891.412	936.78
891.587	973.98
891.762	960.61
891.937	1014.86
892.112	930.39
892.287	954.61
892.462	933.68
892.637	914.12
892.812	885.05
892.987	910.43
893.161	857.93
893.336	888.73
893.511	858.7
893.686	892.8
893.861	862.19
894.035	878.66
894.21	864.71
894.385	839.14
894.56	833.9
894.734	782.37
894.909	786.63
895.084	809.49
895.258	776.17
895.433	785.66
895.608	772.87
895.782	718.62
895.957	729.09
896.131	740.71
896.306	691.11
896.48	691.31
896.655	665.93
896.829	626.21
897.004	655.66
897.178	663.6
897.353	616.33
897.527	651.01
897.701	634.54
897.876	587.26
898.05	675.61
898.224	628.73
898.399	677.55
898.573	596.56
898.747	533.4
898.921	575.06
899.096	477.41
899.27	539.6
899.444	521.39
899.618	534.95
899.792	563.82
899.967	556.46
900.141	621.17
900.315	528.36
900.489	550.26
900.663	554.71
900.837	536.31
901.011	487.48
901.185	586.88
901.359	547.16
901.533	542.51
901.707	568.47
901.881	554.71
902.055	505.31
902.229	528.56
902.403	587.85
902.576	560.72
902.75	551.61
902.924	644.61
903.098	613.03
903.272	656.24
903.446	666.31
903.619	653.14
903.793	726.76
903.967	694.6
904.14	731.02
904.314	721.53
904.488	695.76
904.661	715.14
904.835	723.08
905.009	723.08
905.182	748.66
905.356	717.66
905.529	663.6
905.703	706.61
905.876	698.67
906.05	653.72
906.223	642.29
906.397	548.32
906.57	593.85
906.744	536.11
906.917	563.82
907.09	522.75
907.264	553.75
907.437	515.58
907.61	471.98
907.784	492.13
907.957	539.8
908.13	478.38
908.304	527.4
908.477	459.2
908.65	498.72
908.823	453.97
908.996	529.14
909.17	494.46
909.343	486.13
909.516	478.38
909.689	466.17
909.862	460.55
910.035	475.86
910.208	459.58
910.381	456.68
910.554	570.02
910.727	461.52
910.9	485.35
911.073	450.48
911.246	519.45
911.419	529.33
911.592	499.5
911.765	458.62
911.938	463.27
912.11	444.86
912.283	467.72
912.456	510.54
912.629	476.05
912.802	443.89
912.974	407.66
913.147	386.74
913.32	360
913.493	385.96
913.665	397.97
913.838	400.49
914.01	403.01
914.183	422.77
914.356	422.77
914.528	453.77
914.701	494.07
914.873	436.14
915.046	409.79
915.218	378.79
915.391	337.33
915.563	333.65
915.736	389.25
915.908	416.19
916.081	399.72
916.253	399.14
916.425	407.85
916.598	436.92
916.77	387.7
916.942	382.67
917.115	321.83
917.287	389.06
917.459	367.75
917.632	333.84
917.804	316.6
917.976	376.66
918.148	388.48
918.32	406.11
918.493	428.2
918.665	452.03
918.837	430.72
919.009	469.08
919.181	462.68
919.353	417.54
919.525	436.72
919.697	423.74
919.869	426.45
920.041	522.55
920.213	553.94
920.385	487.1
920.557	454.74
920.729	473.15
920.901	459.2
921.073	445.05
921.244	432.27
921.416	464.23
921.588	459.2
921.76	425.1
921.932	478.18
922.103	439.43
922.275	465.78
922.447	453.77
922.619	368.33
922.79	438.08
922.962	422.97
923.134	428.97
923.305	386.93
923.477	370.65
923.648	361.94
923.82	398.55
923.991	358.06
924.163	332.68
924.335	368.91
924.506	356.32
924.677	392.55
924.849	341.79
925.02	374.53
925.192	374.34
925.363	365.62
925.535	381.5
925.706	356.9
925.877	429.75
926.049	339.07
926.22	391
926.391	373.75
926.562	405.53
926.734	343.14
926.905	405.14
927.076	315.44
927.247	339.07
927.419	304.59
927.59	293.74
927.761	311.76
927.932	305.56
928.103	309.82
928.274	285.79
928.445	257.89
928.616	232.9
928.787	242.59
928.958	278.24
929.129	271.46
929.3	254.99
929.471	230.96
929.642	171.87
929.813	123.05
929.984	223.99
930.155	145.13
930.326	198.22
930.496	178.46
930.667	107.74
930.838	146.3
931.009	123.82
931.18	140.48
931.35	139.51
931.521	139.32
931.692	88.95
931.863	64.92
932.033	112.39
932.204	129.83
932.374	125.37
932.545	66.86
932.716	113.75
932.886	97.08
933.057	42.25
933.227	44.58
933.398	163.54
933.568	62.98
933.739	29.85
933.909	63.95
934.08	100.38
934.25	22.68
934.421	16.1
934.591	64.34
934.761	35.28
934.932	11.06
935.102	55.23
935.272	48.84
935.443	48.45
935.613	44.77
935.783	39.73
935.953	20.36
936.123	164.7
936.294	23.46
936.464	42.83
936.634	36.83
936.804	13.77
936.974	-16.84
937.144	33.53
937.314	28.88
937.484	1.18
937.655	0.79
937.825	37.02
937.995	19.97
938.165	55.62
938.334	34.5
938.504	51.36
938.674	30.63
938.844	35.08
939.014	122.08
939.184	93.98
939.354	140.29
939.524	133.12
939.694	92.05
939.863	57.95
940.033	118.98
940.203	129.44
940.373	72.48
940.542	119.36
940.712	81
940.882	103.28
941.051	122.08
941.221	94.37
941.391	113.75
941.56	58.14
941.73	56.78
941.899	165.28
942.069	54.07
942.238	115.49
942.408	68.02
942.577	116.46
942.747	83.91
942.916	49.42
943.086	41.67
943.255	93.98
943.425	94.95
943.594	75.38
943.763	17.26
943.933	20.75
944.102	2.53
944.271	25.59
944.441	57.75
944.61	43.22
944.779	38.38
944.948	104.83
945.117	32.57
945.287	65.12
945.456	13.19
945.625	46.52
945.794	60.66
945.963	32.37
946.132	76.74
946.301	33.73
946.47	80.42
946.639	-3.08
946.808	39.54
946.977	75.19
947.146	77.71
947.315	51.94
947.484	92.63
947.653	36.63
947.822	45.74
947.991	37.41
948.16	133.12
948.329	79.07
948.498	65.5
948.666	67.25
948.835	81.2
949.004	28.69
949.173	14.55
949.341	76.35
949.51	87.01
949.679	71.9
949.847	84.1
950.016	151.33
950.185	105.41
950.353	46.9
950.522	50.78
950.69	124.98
950.859	45.93
951.028	82.94
951.196	72.09
951.365	25.59
951.533	76.35
951.701	99.02
951.87	83.71
952.038	46.13
952.207	64.53
952.375	117.81
952.543	62.6
952.712	53.1
952.88	13.19
953.048	108.32
953.217	67.63
953.385	56.59
953.553	129.44
953.721	41.87
953.89	69.96
954.058	31.4
954.226	63.76
954.394	49.81
954.562	10.28
954.73	51.55
954.898	40.12
955.067	58.72
955.235	62.02
955.403	68.8
955.571	128.66
955.739	68.22
955.907	39.54
956.075	30.24
956.243	32.37
956.41	75.77
956.578	22.1
956.746	56.59
956.914	25.01
957.082	111.61
957.25	71.12
957.418	59.5
957.585	71.9
957.753	75.19
957.921	57.95
958.089	68.6
958.256	52.13
958.424	87.78
958.592	85.26
958.759	44.19
958.927	73.64
959.095	33.73
959.262	57.17
959.43	68.6
959.597	40.12
959.765	72.87
959.932	43.22
960.1	85.85
960.267	60.47
960.435	63.37
960.602	82.55
960.77	56.2
960.937	33.92
961.104	66.67
961.272	46.71
961.439	62.98
961.606	69.38
961.774	69.18
961.941	64.15
962.108	95.73
962.275	73.25
962.443	99.8
962.61	95.15
962.777	131.76
962.944	80.42
963.111	85.65
963.278	88.56
963.446	68.02
963.613	79.26
963.78	86.04
963.947	105.41
964.114	97.66
964.281	137
964.448	88.36
964.615	68.99
964.782	91.08
964.949	120.72
965.116	103.09
965.282	93.4
965.449	74.03
965.616	41.87
965.783	104.25
965.95	89.72
966.117	40.32
966.283	69.96
966.45	74.8
966.617	80.61
966.784	112.97
966.95	116.46
967.117	87.2
967.284	43.61
967.45	73.83
967.617	115.3
967.784	106
967.95	134.67
968.117	108.9
968.283	108.9
968.45	146.68
968.616	104.06
968.783	132.54
968.949	109.29
969.116	138.55
969.282	108.51
969.449	114.33
969.615	125.76
969.781	52.33
969.948	83.52
970.114	71.12
970.28	146.88
970.447	80.61
970.613	150.95
970.779	92.24
970.945	81.39
971.112	122.46
971.278	93.98
971.444	111.23
971.61	152.69
971.776	90.5
971.942	131.18
972.108	116.26
972.275	97.47
972.441	118.59
972.607	166.45
972.773	63.57
972.939	105.41
973.105	77.9
973.271	60.08
973.437	77.9
973.602	65.31
973.768	107.74
973.934	61.24
974.1	109.1
974.266	45.74
974.432	110.45
974.598	82.55
974.763	116.07
974.929	55.23
975.095	142.61
975.261	56.98
975.426	65.5
975.592	76.93
975.758	173.23
975.923	44.58
976.089	74.61
976.255	130.41
976.42	105.61
976.586	108.51
976.751	93.98
976.917	147.26
977.082	98.83
977.248	57.95
977.413	32.18
977.579	75.19
977.744	117.81
977.91	45.35
978.075	53.88
978.24	122.66
978.406	100.96
978.571	69.57
978.736	49.23
978.902	120.72
979.067	69.18
979.232	28.88
979.397	86.43
979.563	132.15
979.728	53.88
979.893	84.3
980.058	51.36
980.223	108.71
980.388	86.81
980.554	84.3
980.719	85.26
980.884	95.73
981.049	132.93
981.214	79.84
981.379	108.71
981.544	65.12
981.709	80.61
981.874	76.93
982.039	71.9
982.204	124.6
982.368	71.9
982.533	47.29
982.698	144.94
982.863	97.47
983.028	85.85
983.193	89.33
983.357	105.61
983.522	101.73
983.687	93.6
983.852	52.52
984.016	81.97
984.181	93.4
984.346	107.55
984.51	126.73
984.675	71.51
984.839	129.05
985.004	95.92
985.168	109.68
985.333	86.81
985.498	89.91
985.662	84.3
985.827	102.9
985.991	99.21
986.155	83.13
986.32	124.21
986.484	118.98
986.649	109.87
986.813	37.41
986.977	86.43
987.142	109.29
987.306	52.72
987.47	41.09
987.634	115.49
987.799	64.53
987.963	122.08
988.127	95.15
988.291	171.09
988.455	87.01
988.62	64.53
988.784	87.01
988.948	99.21
989.112	47.48
989.276	81.58
989.44	69.18
989.604	77.9
989.768	62.02
989.932	149.59
990.096	60.85
990.26	57.75
990.424	52.33
990.588	88.36
990.752	120.33
990.915	96.7
991.079	77.52
991.243	57.37
991.407	89.72
991.571	84.88
991.734	97.47
991.898	67.83
992.062	145.91
992.226	69.77
992.389	67.83
992.553	27.72
992.717	69.38
992.88	64.73
993.044	47.48
993.207	99.02
993.371	83.91
993.535	72.67
993.698	64.34
993.862	107.74
994.025	96.89
994.189	97.66
994.352	75
994.515	98.63
994.679	91.08
994.842	80.42
995.006	81.78
995.169	47.68
995.332	22.3
995.496	92.05
995.659	12.61
995.822	75.38
995.985	78.68
996.149	92.63
996.312	87.2
996.475	133.31
996.638	75.58
996.801	127.7
996.964	83.13
997.128	56.98
997.291	67.25
997.454	75
997.617	43.61
997.78	87.59
997.943	71.51
998.106	84.3
998.269	74.8
998.432	110.84
998.595	44.38
998.758	30.24
998.92	44.19
999.083	54.46
999.246	50.97
999.409	5.44
999.572	-0.95
999.735	62.98
999.897	64.15
1000.06	48.07
1000.223	46.52
1000.386	109.1
1000.548	69.96
1000.711	60.08
1000.874	75.19
1001.036	31.4
1001.199	61.82
1001.361	69.57
1001.524	65.89
1001.687	87.59
1001.849	41.87
1002.012	58.33
1002.174	63.18
1002.337	86.43
1002.499	58.92
1002.661	72.09
1002.824	45.16
1002.986	31.4
1003.149	62.02
1003.311	39.93
1003.473	107.93
1003.636	52.52
1003.798	79.65
1003.96	46.9
1004.123	39.73
1004.285	38.77
1004.447	46.32
1004.609	61.05
1004.771	126.53
1004.933	1.37
1005.096	23.65
1005.258	17.65
1005.42	80.81
1005.582	94.37
1005.744	48.84
1005.906	-1.53
1006.068	53.68
1006.23	32.95
1006.392	-3.67
1006.554	11.25
1006.716	95.34
1006.878	66.08
1007.04	8.35
1007.202	46.32
1007.363	60.66
1007.525	65.31
1007.687	63.57
1007.849	96.31
1008.011	2.53
1008.172	14.35
1008.334	23.46
1008.496	39.93
1008.658	-9.86
1008.819	17.84
1008.981	8.54
1009.143	34.31
1009.304	14.93
1009.466	19.2
1009.627	79.45
1009.789	132.15
1009.95	38.96
1010.112	19.2
1010.273	46.9
1010.435	23.65
1010.596	35.47
1010.758	39.73
1010.919	12.42
1011.081	12.42
1011.242	50.2
1011.403	54.65
1011.565	48.07
1011.726	64.34
1011.887	16.68
1012.049	12.22
1012.21	53.68
1012.371	83.91
1012.532	-27.11
1012.693	38.77
1012.855	4.08
1013.016	19.97
1013.177	81.58
1013.338	32.37
1013.499	96.11
1013.66	74.22
1013.821	71.32
1013.982	27.33
1014.143	53.49
1014.304	30.05
1014.465	39.15
1014.626	47.1
1014.787	39.54
1014.948	84.88
1015.109	2.73
1015.27	52.91
1015.431	10.48
1015.592	6.41
1015.752	97.86
1015.913	40.51
1016.074	25.78
1016.235	40.9
1016.395	29.08
1016.556	26.56
1016.717	30.05
1016.877	58.14
1017.038	9.9
1017.199	39.93
1017.359	62.21
1017.52	31.98
1017.681	22.3
1017.841	27.72
1018.002	19.2
1018.162	16.1
1018.323	71.9
1018.483	27.92
1018.644	18.42
1018.804	11.45
1018.964	-19.36
1019.125	24.62
1019.285	10.09
1019.446	-1.34
1019.606	10.09
1019.766	-20.91
1019.926	50.2
1020.087	27.14
1020.247	-27.11
1020.407	26.75
1020.567	86.43
1020.728	3.7
1020.888	11.06
1021.048	13.58
1021.208	8.73
1021.368	-2.31
1021.528	41.09
1021.688	53.1
1021.848	74.42
1022.008	14.16
1022.168	5.83
1022.328	43.8
1022.488	39.54
1022.648	32.18
1022.808	40.12
1022.968	40.51
1023.128	-14.9
1023.288	6.6
1023.448	36.83
1023.608	53.1
1023.767	44.97
1023.927	-9.86
1024.087	-24.01
1024.247	-9.86
1024.406	18.42
1024.566	-1.53
1024.726	-15.1
1024.885	25.01
1025.045	51.94
1025.205	7.57
1025.364	24.82
1025.524	47.87
1025.683	-0.37
1025.843	25.98
1026.003	4.86
1026.162	58.14
1026.321	61.43
1026.481	12.61
1026.64	18.03
1026.8	28.11
1026.959	19.2
1027.119	2.92
1027.278	25.59
1027.437	12.22
1027.597	4.67
1027.756	24.62
1027.915	20.17
1028.074	46.9
1028.234	-23.43
1028.393	26.37
1028.552	11.25
1028.711	-64.11
1028.87	53.68
1029.03	2.92
1029.189	23.07
1029.348	-10.45
1029.507	21.72
1029.666	-14.71
1029.825	6.02
1029.984	-5.8
1030.143	32.37
1030.302	31.4
1030.461	-49.97
1030.62	41.48
1030.779	42.45
1030.938	-13.55
1031.097	12.61
1031.255	27.33
1031.414	70.35
1031.573	53.49
1031.732	-27.88
1031.891	11.64
1032.049	49.62
1032.208	36.83
1032.367	-23.81
1032.525	-4.05
1032.684	11.64
1032.843	7.57
1033.001	-18
1033.16	127.7
1033.319	33.15
1033.477	6.99
1033.636	21.91
1033.794	-26.14
1033.953	27.53
1034.111	41.28
1034.27	-15.68
1034.428	36.05
1034.587	-31.18
1034.745	3.89
1034.903	2.92
1035.062	33.53
1035.22	4.08
1035.378	38.18
1035.537	12.03
1035.695	41.87
1035.853	6.8
1036.011	23.46
1036.17	22.49
1036.328	-40.28
1036.486	31.79
1036.644	13
1036.802	-80.58
1036.96	-31.18
1037.119	8.93
1037.277	2.73
1037.435	-34.86
1037.593	-14.32
1037.751	11.25
1037.909	43.42
1038.067	43.42
