Data from gum_young_FLMT105791__93__17-39-51-042.txt Node

Date: Mon Mar 20 17:39:51 GMT 2023
User: antho
Spectrometer: FLMT10579
Trigger mode: 0
Integration Time (sec): 1.000000E-1
Scans to average: 10
Electric dark correction enabled: true
Nonlinearity correction enabled: false
Boxcar width: 0
XAxis mode: Wavelengths
Number of Pixels in Spectrum: 3648
>>>>>Begin Spectral Data<<<<<
345.248	-97.54
345.464	-97.54
345.681	-97.54
345.898	-149.65
346.114	-139.77
346.331	-34.57
346.548	31.31
346.764	2.63
346.981	-14.03
347.197	-7.25
347.414	0.89
347.631	-12.29
347.847	50.49
348.064	-12.87
348.28	32.86
348.497	-53.36
348.713	16.19
348.93	32.66
349.146	21.62
349.363	5.54
349.579	15.61
349.796	2.05
350.012	9.03
350.229	16.78
350.445	6.7
350.661	-4.92
350.878	28.59
351.094	30.92
351.311	1.66
351.527	11.93
351.743	-20.42
351.96	32.86
352.176	34.02
352.392	45.64
352.609	35.76
352.825	-10.93
353.041	-0.86
353.257	0.89
353.474	15.61
353.69	16.19
353.906	2.24
354.122	-11.32
354.339	30.34
354.555	20.07
354.771	-0.27
354.987	48.55
355.203	75.29
355.42	6.31
355.636	-3.96
355.852	-26.82
356.068	-11.12
356.284	-16.16
356.5	53.78
356.716	28.59
356.932	7.09
357.148	22.01
357.364	11.16
357.58	20.65
357.796	67.54
358.012	43.12
358.228	28.98
358.444	-35.92
358.66	65.02
358.876	28.21
359.092	-14.03
359.308	19.49
359.524	37.51
359.74	0.5
359.956	3.02
360.172	24.14
360.388	35.57
360.604	13.09
360.819	75.67
361.035	32.08
361.251	36.15
361.467	-9.38
361.683	28.01
361.898	8.64
362.114	33.44
362.33	15.23
362.546	38.28
362.762	1.08
362.977	-7.44
363.193	9.41
363.409	39.44
363.624	-8.41
363.84	-6.28
364.056	20.84
364.271	25.69
364.487	19.29
364.703	-12.09
364.918	-2.41
365.134	11.93
365.35	18.71
365.565	97.76
365.781	8.25
365.996	37.51
366.212	85.94
366.427	15.03
366.643	16.39
366.858	15.81
367.074	-23.91
367.289	74.71
367.505	106.87
367.72	-18.29
367.936	22.39
368.151	30.34
368.367	25.49
368.582	40.22
368.798	15.23
369.013	46.61
369.228	-14.22
369.444	12.13
369.659	49.13
369.874	41.19
370.09	58.43
370.305	-61.69
370.52	14.64
370.736	71.99
370.951	18.13
371.166	81.29
371.381	84.01
371.597	50.87
371.812	-21.78
372.027	-5.12
372.242	31.11
372.458	61.14
372.673	12.13
372.888	42.16
373.103	34.21
373.318	92.72
373.533	31.11
373.749	26.66
373.964	-30.31
374.179	55.52
374.394	-24.11
374.609	59.79
374.824	5.34
375.039	43.12
375.254	16.58
375.469	79.55
375.684	55.14
375.899	58.62
376.114	8.64
376.329	29.37
376.544	46.61
376.759	41.96
376.974	5.93
377.189	9.8
377.404	23.56
377.619	49.13
377.834	-45.81
378.049	-22.75
378.264	-2.02
378.478	36.34
378.693	33.24
378.908	29.95
379.123	12.9
379.338	58.82
379.553	28.98
379.767	19.68
379.982	43.71
380.197	43.32
380.412	6.31
380.626	34.02
380.841	127.99
381.056	42.54
381.271	76.45
381.485	46.61
381.7	-8.99
381.915	39.64
382.129	15.03
382.344	49.13
382.559	-5.89
382.773	56.11
382.988	-29.34
383.202	37.7
383.417	-8.22
383.632	73.93
383.846	20.84
384.061	16.78
384.275	26.66
384.49	40.22
384.704	36.15
384.919	29.95
385.133	28.21
385.348	29.18
385.562	5.34
385.777	56.49
385.991	7.67
386.206	23.36
386.42	23.36
386.634	57.46
386.849	34.79
387.063	57.85
387.277	13.48
387.492	22.98
387.706	30.14
387.92	11.54
388.135	61.34
388.349	36.73
388.563	30.14
388.778	43.71
388.992	40.8
389.206	36.54
389.42	84.59
389.635	22.39
389.849	45.84
390.063	59.4
390.277	35.18
390.491	103.57
390.706	46.03
390.92	63.86
391.134	37.51
391.348	41.38
391.562	-21.78
391.776	-1.44
391.99	-0.86
392.205	68.51
392.419	14.64
392.633	27.63
392.847	84.97
393.061	9.03
393.275	77.61
393.489	32.08
393.703	38.28
393.917	66.96
394.131	15.42
394.345	51.46
394.559	57.85
394.773	19.49
394.986	40.41
395.2	33.44
395.414	55.33
395.628	-1.44
395.842	40.99
396.056	34.99
396.27	-16.16
396.484	34.02
396.697	53.59
396.911	81.1
397.125	71.61
397.339	56.11
397.553	54.17
397.766	81.68
397.98	41.57
398.194	88.27
398.408	28.59
398.621	76.64
398.835	40.41
399.049	31.11
399.262	106.48
399.476	87.11
399.69	67.34
399.903	110.94
400.117	39.83
400.331	89.24
400.544	22.78
400.758	154.53
400.971	74.9
401.185	81.87
401.398	47.77
401.612	116.75
401.826	71.41
402.039	79.74
402.253	30.53
402.466	75.67
402.68	56.11
402.893	80.32
403.106	89.62
403.32	72.77
403.533	66.96
403.747	63.86
403.96	86.52
404.174	66.18
404.387	28.21
404.6	52.62
404.814	92.72
405.027	75.87
405.24	60.76
405.454	55.91
405.667	99.7
405.88	15.42
406.094	61.53
406.307	91.95
406.52	74.51
406.733	26.27
406.947	44.48
407.16	127.6
407.373	87.69
407.586	32.86
407.799	34.21
408.012	97.37
408.226	55.33
408.439	119.66
408.652	49.13
408.865	83.04
409.078	102.02
409.291	80.91
409.504	44.87
409.717	88.07
409.93	57.85
410.143	80.32
410.357	41.77
410.57	43.51
410.783	65.41
410.996	62.11
411.209	64.24
411.421	105.51
411.634	102.22
411.847	48.16
412.06	68.12
412.273	66.76
412.486	51.65
412.699	145.42
412.912	88.85
413.125	92.92
413.338	95.24
413.55	103.77
413.763	70.83
413.976	88.07
414.189	71.99
414.402	76.45
414.615	133.6
414.827	64.63
415.04	108.03
415.253	91.17
415.466	135.15
415.678	144.84
415.891	78.19
416.104	82.46
416.316	54.94
416.529	64.63
416.742	101.06
416.954	115.01
417.167	104.35
417.38	88.27
417.592	120.62
417.805	61.92
418.017	50.68
418.23	113.46
418.442	64.05
418.655	75.48
418.868	108.61
419.08	128.57
419.293	146.39
419.505	75.67
419.718	112.29
419.93	122.37
420.142	90.01
420.355	136.9
420.567	144.84
420.78	109.77
420.992	110.16
421.205	138.45
421.417	84.2
421.629	79.16
421.842	86.72
422.054	65.6
422.266	109.19
422.479	128.57
422.691	64.82
422.903	113.07
423.115	77.42
423.328	97.76
423.54	120.82
423.752	103.38
423.964	60.17
424.177	139.61
424.389	84.2
424.601	188.82
424.813	91.56
425.025	154.53
425.238	127.6
425.45	75.67
425.662	76.84
425.874	373.08
426.086	100.47
426.298	116.36
426.51	111.52
426.722	128.37
426.934	94.47
427.146	123.72
427.358	43.51
427.57	121.01
427.782	120.62
427.994	105.51
428.206	104.74
428.418	55.14
428.63	115.59
428.842	139.42
429.054	108.42
429.266	134.96
429.478	97.76
429.69	106.09
429.902	82.65
430.114	116.36
430.325	129.34
430.537	101.06
430.749	98.92
430.961	51.65
431.173	104.35
431.384	116.36
431.596	30.14
431.808	101.83
432.02	111.71
432.231	116.56
432.443	141.55
432.655	115.2
432.867	82.26
433.078	136.12
433.29	181.85
433.502	153.37
433.713	161.5
433.925	112.87
434.136	186.69
434.348	90.4
434.56	81.1
434.771	210.91
434.983	67.92
435.194	96.02
435.406	104.35
435.617	159.57
435.829	195.22
436.04	144.65
436.252	130.5
436.463	189.4
436.675	161.31
436.886	111.32
437.098	147.55
437.309	170.61
437.521	123.14
437.732	159.76
437.943	95.44
438.155	140.19
438.366	98.34
438.578	173.32
438.789	141.16
439	131.67
439.211	128.37
439.423	160.34
439.634	155.5
439.845	148.72
440.057	148.91
440.268	168.09
440.479	132.64
440.69	128.76
440.902	152.4
441.113	142.32
441.324	119.85
441.535	182.82
441.746	206.26
441.957	131.09
442.168	142.9
442.38	140.97
442.591	177.59
442.802	134.19
443.013	135.93
443.224	182.62
443.435	141.35
443.646	125.27
443.857	138.45
444.068	151.04
444.279	134.77
444.49	225.44
444.701	140.19
444.912	277.37
445.123	210.72
445.334	174.87
445.545	160.73
445.756	184.17
445.967	138.84
446.178	191.34
446.388	188.82
446.599	195.02
446.81	182.24
447.021	185.14
447.232	189.21
447.443	218.08
447.653	168.67
447.864	220.6
448.075	184.75
448.286	198.32
448.496	203.16
448.707	217.5
448.918	151.82
449.129	270.39
449.339	127.99
449.55	217.5
449.761	172.55
449.971	206.84
450.182	169.45
450.393	226.6
450.603	181.07
450.814	215.95
451.024	214.01
451.235	222.53
451.446	233.97
451.656	244.82
451.867	191.54
452.077	235.13
452.288	230.87
452.498	246.95
452.709	183.01
452.919	197.54
453.13	223.31
453.34	244.04
453.55	176.04
453.761	233.19
453.971	246.17
454.182	229.7
454.392	234.35
454.602	307.98
454.813	204.32
455.023	229.7
455.233	189.79
455.444	239.97
455.654	164.6
455.864	216.33
456.075	204.13
456.285	179.33
456.495	220.6
456.705	212.85
456.916	260.9
457.126	263.22
457.336	226.99
457.546	163.25
457.756	215.56
457.967	265.74
458.177	214.98
458.387	210.72
458.597	209.94
458.807	218.47
459.017	219.43
459.227	217.3
459.437	205.29
459.647	253.92
459.857	215.17
460.068	192.7
460.278	264.38
460.488	259.54
460.698	272.33
460.908	217.5
461.117	194.64
461.327	232.42
461.537	244.43
461.747	238.03
461.957	252.95
462.167	332.2
462.377	276.78
462.587	243.85
462.797	269.23
463.007	270
463.216	269.42
463.426	293.83
463.636	294.42
463.846	212.46
464.056	228.73
464.265	298.1
464.475	216.92
464.685	253.73
464.895	267.1
465.104	232.42
465.314	264.19
465.524	236.87
465.733	229.7
465.943	325.61
466.153	312.63
466.362	295.38
466.572	265.93
466.782	253.34
466.991	268.26
467.201	320.76
467.41	232.03
467.62	275.43
467.829	273.3
468.039	288.6
468.249	258.18
468.458	241.13
468.668	298.87
468.877	257.6
469.086	302.55
469.296	300.61
469.505	243.46
469.715	340.72
469.924	313.6
470.134	329.1
470.343	303.52
470.552	277.75
470.762	266.9
470.971	247.92
471.18	276.78
471.39	271.75
471.599	261.28
471.808	318.83
472.018	257.8
472.227	360.29
472.436	317.66
472.645	315.92
472.855	278.14
473.064	346.53
473.273	314.56
473.482	320.38
473.691	350.21
473.901	334.71
474.11	308.36
474.319	388.19
474.528	338.98
474.737	392.26
474.946	335.3
475.155	323.48
475.364	349.83
475.573	346.34
475.783	355.64
475.992	359.9
476.201	385.09
476.41	349.44
476.619	323.67
476.828	312.24
477.037	319.41
477.245	340.33
477.454	353.12
477.663	306.81
477.872	336.26
478.081	390.32
478.29	321.15
478.499	432.56
478.708	380.63
478.917	432.94
479.125	384.12
479.334	396.71
479.543	328.51
479.752	394.58
479.961	381.99
480.169	401.75
480.378	379.86
480.587	487.97
480.796	420.16
481.004	387.22
481.213	417.25
481.422	398.46
481.63	401.75
481.839	418.61
482.048	454.45
482.256	392.84
482.465	431.59
482.674	461.62
482.882	422.09
483.091	452.13
483.299	427.13
483.508	459.88
483.716	431.01
483.925	443.6
484.134	424.61
484.342	436.43
484.551	456.97
484.759	470.53
484.967	468.59
485.176	464.14
485.384	494.36
485.593	477.89
485.801	447.86
486.01	441.86
486.218	384.31
486.426	375.79
486.635	411.83
486.843	414.34
487.051	416.09
487.26	424.23
487.468	461.43
487.676	458.13
487.885	430.23
488.093	468.4
488.301	485.06
488.509	499.4
488.717	486.81
488.926	457.36
489.134	469.56
489.342	474.99
489.55	452.32
489.758	471.89
489.967	471.11
490.175	569.73
490.383	468.21
490.591	568.76
490.799	454.84
491.007	556.56
491.215	509.47
491.423	520.71
491.631	514.32
491.839	518.19
492.047	524.2
492.255	481.57
492.463	469.18
492.671	505.41
492.879	553.26
493.087	523.04
493.295	553.65
493.503	530.4
493.711	563.53
493.919	560.62
494.127	563.14
494.334	586.39
494.542	514.32
494.75	549.58
494.958	541.25
495.166	601.89
495.374	570.7
495.581	575.93
495.789	573.99
495.997	609.25
496.205	606.93
496.412	575.74
496.62	594.14
496.828	596.66
497.035	579.22
497.243	600.54
497.451	614.68
497.658	626.69
497.866	588.91
498.074	632.89
498.281	581.16
498.489	666.99
498.696	629.21
498.904	587.55
499.112	598.21
499.319	689.08
499.527	595.5
499.734	653.43
499.942	598.21
500.149	617.59
500.357	631.34
500.564	596.66
500.771	656.53
500.979	605.57
501.186	608.48
501.394	618.75
501.601	666.99
501.808	673
502.016	642.39
502.223	647.42
502.43	654.2
502.638	642.19
502.845	606.74
503.052	683.46
503.26	645.49
503.467	743.52
503.674	686.56
503.881	703.61
504.089	736.93
504.296	717.95
504.503	665.25
504.71	665.83
504.917	677.07
505.125	711.94
505.332	730.73
505.539	742.36
505.746	760.57
505.953	767.16
506.16	738.87
506.367	805.13
506.574	808.04
506.781	800.87
506.988	734.61
507.195	762.51
507.402	754.18
507.609	805.13
507.816	748.17
508.023	772.78
508.23	792.54
508.437	726.28
508.644	785.56
508.851	830.9
509.058	830.9
509.265	834.19
509.472	857.44
509.679	901.23
509.885	840.39
510.092	844.27
510.299	873.72
510.506	845.24
510.713	873.14
510.92	869.26
511.126	898.52
511.333	925.45
511.54	903.36
511.746	961.29
511.953	950.44
512.16	966.91
512.367	922.74
512.573	917.7
512.78	946.18
512.987	933.39
513.193	949.47
513.4	867.33
513.606	937.85
513.813	986.48
514.02	973.69
514.226	984.93
514.433	1031.24
514.639	947.15
514.846	1001.01
515.052	990.36
515.259	1000.04
515.465	1031.43
515.672	1046.93
515.878	1138.18
516.085	1049.84
516.291	1111.83
516.497	993.84
516.704	1056.42
516.91	984.16
517.117	972.92
517.323	906.27
517.529	1013.99
517.736	975.82
517.942	1005.08
518.148	998.1
518.354	1037.24
518.561	1056.62
518.767	1051.97
518.973	1093.04
519.179	1124.04
519.386	1078.7
519.592	1120.55
519.798	1110.48
520.004	1222.85
520.21	1156.4
520.417	1206.96
520.623	1268.96
520.829	1227.11
521.035	1246.1
521.241	1273.03
521.447	1288.34
521.653	1374.56
521.859	1277.1
522.065	1302.48
522.271	1372.04
522.477	1352.86
522.683	1396.26
522.889	1370.87
523.095	1369.13
523.301	1345.88
523.507	1312.56
523.713	1421.83
523.919	1318.76
524.125	1440.04
524.331	1401.68
524.537	1460.19
524.742	1464.65
524.948	1508.63
525.154	1461.74
525.36	1551.45
525.566	1495.84
525.772	1516.96
525.977	1483.05
526.183	1511.15
526.389	1541.76
526.595	1463.49
526.8	1425.51
527.006	1434.42
527.212	1412.92
527.417	1399.36
527.623	1380.37
527.829	1470.65
528.034	1495.26
528.24	1502.04
528.446	1491.58
528.651	1581.48
528.857	1548.93
529.062	1633.79
529.268	1605.31
529.473	1650.45
529.679	1624.1
529.884	1700.44
530.09	1677.96
530.295	1704.12
530.501	1685.91
530.706	1668.08
530.912	1672.54
531.117	1689.01
531.323	1682.23
531.528	1760.5
531.733	1740.54
531.939	1730.08
532.144	1739.77
532.35	1703.15
532.555	1808.74
532.76	1738.03
532.966	1760.89
533.171	1701.41
533.376	1676.41
533.581	1670.6
533.787	1730.47
533.992	1747.33
534.197	1731.44
534.402	1768.83
534.607	1763.99
534.813	1845.94
535.018	1744.81
535.223	1754.88
535.428	1808.36
535.633	1841.1
535.838	1854.08
536.043	1829.47
536.249	1899.61
536.454	1841.68
536.659	1871.52
536.864	1842.07
537.069	1846.91
537.274	1829.67
537.479	1810.49
537.684	1872.1
537.889	1798.09
538.094	1954.25
538.299	1859.7
538.504	1903.49
538.708	1921.7
538.913	1937.59
539.118	1870.94
539.323	1905.62
539.528	1888.37
539.733	1854.47
539.938	1884.89
540.142	1894.77
540.347	1869
540.552	1861.44
540.757	1856.21
540.962	1886.44
541.166	1781.62
541.371	1821.92
541.576	1818.82
541.781	1788.4
541.985	1861.44
542.19	1893.41
542.395	1967.23
542.599	1973.23
542.804	1892.25
543.008	1964.32
543.213	1900.39
543.418	1883.72
543.622	1944.17
543.827	1853.31
544.031	1974.01
544.236	1990.09
544.44	1955.6
544.645	2002.88
544.849	1962.58
545.054	2001.33
545.258	2021.48
545.463	2044.92
545.667	1983.31
545.872	1994.35
546.076	1995.13
546.281	2001.72
546.485	1955.02
546.689	1988.54
546.894	1992.8
547.098	1990.87
547.302	1989.12
547.507	1997.84
547.711	2014.31
547.915	2054.61
548.119	1965.1
548.324	2001.72
548.528	2085.22
548.732	2014.12
548.936	2050.73
549.141	2032.33
549.345	2001.13
549.549	2047.25
549.753	2047.25
549.957	2101.3
550.161	2098.2
550.366	2037.95
550.57	2034.65
550.774	2066.81
550.978	2040.08
551.182	2032.13
551.386	2046.47
551.59	2042.79
551.794	2031.55
551.998	2082.12
552.202	2039.3
552.406	2010.05
552.61	2091.61
552.814	2051.31
553.018	2092.58
553.222	2075.34
553.426	2055.19
553.63	2147.03
553.833	2077.66
554.037	2005.78
554.241	2100.53
554.445	2085.8
554.649	2076.89
554.853	2074.76
555.056	2090.65
555.26	2152.26
555.464	2090.45
555.668	2076.11
555.871	2122.23
556.075	2118.93
556.279	2037.37
556.483	2022.83
556.686	2020.51
556.89	2050.54
557.094	2047.83
557.297	1988.73
557.501	2083.67
557.704	1991.45
557.908	2050.73
558.112	1991.25
558.315	2028.65
558.519	2009.47
558.722	1986.8
558.926	1993.38
559.129	1906
559.333	1915.69
559.536	1928.09
559.74	1861.83
559.943	1862.99
560.147	1891.28
560.35	1921.89
560.553	1889.34
560.757	1888.37
560.96	1940.88
561.164	1878.69
561.367	1999.2
561.57	1935.84
561.774	1937.2
561.977	1927.32
562.18	1906.78
562.384	1985.63
562.587	1906.78
562.79	1907.36
562.993	1911.04
563.197	1933.13
563.4	1959.67
563.603	1962.77
563.806	1968.39
564.009	1877.72
564.212	1875.2
564.416	1799.25
564.619	1893.8
564.822	1806.22
565.025	1936.42
565.228	1835.87
565.431	1864.74
565.634	1766.89
565.837	1781.04
566.04	1752.36
566.243	1784.52
566.446	1687.07
566.649	1791.5
566.852	1721.75
567.055	1746.55
567.258	1809.13
567.461	1844.01
567.664	1841.1
567.867	1758.56
568.07	1768.83
568.273	1782.2
568.475	1783.56
568.678	1713.23
568.881	1732.79
569.084	1696.37
569.287	1605.12
569.489	1658.59
569.692	1704.51
569.895	1708.96
570.098	1623.91
570.3	1615
570.503	1578.77
570.706	1575.08
570.909	1578.96
571.111	1571.02
571.314	1571.79
571.516	1571.98
571.719	1570.82
571.922	1560.75
572.124	1565.98
572.327	1578.18
572.529	1526.84
572.732	1535.37
572.935	1571.6
573.137	1606.08
573.34	1538.27
573.542	1610.93
573.745	1577.6
573.947	1565.4
574.15	1493.52
574.352	1500.49
574.554	1589.03
574.757	1455.15
574.959	1460.58
575.162	1471.43
575.364	1455.15
575.566	1576.44
575.769	1439.85
575.971	1495.84
576.173	1370.49
576.376	1467.75
576.578	1471.62
576.78	1504.75
576.982	1369.32
577.185	1429.58
577.387	1405.17
577.589	1406.91
577.791	1467.36
577.993	1449.15
578.196	1418.15
578.398	1443.14
578.6	1420.28
578.802	1368.74
579.004	1357.51
579.206	1371.07
579.408	1427.64
579.61	1351.89
579.812	1426.09
580.014	1362.16
580.216	1391.02
580.418	1357.12
580.62	1368.94
580.822	1337.36
581.024	1380.17
581.226	1411.56
581.428	1387.73
581.63	1443.72
581.832	1334.64
582.034	1450.89
582.236	1416.21
582.438	1439.07
582.64	1439.65
582.841	1444.5
583.043	1465.81
583.245	1421.64
583.447	1416.41
583.649	1406.72
583.85	1407.88
584.052	1422.41
584.254	1379.21
584.456	1458.64
584.657	1354.02
584.859	1419.89
585.061	1380.95
585.262	1354.6
585.464	1329.41
585.666	1406.72
585.867	1352.47
586.069	1390.83
586.27	1372.81
586.472	1365.26
586.674	1292.02
586.875	1330.58
587.077	1319.14
587.278	1354.02
587.48	1333.87
587.681	1439.85
587.883	1377.46
588.084	1270.9
588.285	1304.23
588.487	1281.75
588.688	1321.86
588.89	1236.22
589.091	1210.45
589.292	1178.87
589.494	1177.51
589.695	1168.6
589.896	1091.49
590.098	1118.23
590.299	1139.93
590.5	1139.15
590.702	1165.5
590.903	1170.35
591.104	1218.78
591.305	1219.17
591.507	1236.61
591.708	1207.55
591.909	1204.25
592.11	1275.94
592.311	1228.66
592.512	1215.1
592.714	1147.1
592.915	1176.93
593.116	1178.68
593.317	1182.16
593.518	1223.43
593.719	1207.16
593.92	1205.8
594.121	1247.07
594.322	1206.96
594.523	1226.92
594.724	1168.41
594.925	1171.12
595.126	1187.78
595.327	1189.14
595.528	1210.06
595.729	1202.7
595.929	1199.8
596.13	1237.38
596.331	1216.26
596.532	1215.49
596.733	1241.45
596.934	1245.13
597.135	1219.75
597.335	1179.45
597.536	1185.46
597.737	1204.64
597.938	1190.11
598.138	1236.03
598.339	1184.3
598.54	1218.01
598.74	1155.43
598.941	1191.85
599.142	1237.77
599.342	1206.58
599.543	1185.07
599.744	1205.8
599.944	1173.25
600.145	1199.21
600.345	1206.58
600.546	1279.04
600.746	1254.82
600.947	1240.68
601.147	1225.95
601.348	1235.64
601.548	1189.72
601.749	1207.93
601.949	1144
602.15	1162.98
602.35	1181.39
602.551	1220.91
602.751	1160.08
602.951	1162.6
603.152	1128.11
603.352	1224.79
603.552	1197.08
603.753	1211.81
603.953	1230.99
604.153	1162.02
604.354	1177.71
604.554	1202.7
604.754	1173.45
604.954	1192.43
605.155	1173.64
605.355	1180.42
605.555	1193.98
605.755	1232.93
605.955	1212.39
606.155	1234.48
606.356	1168.99
606.556	1194.76
606.756	1187.2
606.956	1105.05
607.156	1221.3
607.356	1151.55
607.556	1186.81
607.756	1180.42
607.956	1196.31
608.156	1178.48
608.356	1166.86
608.556	1188.75
608.756	1151.36
608.956	1133.53
609.156	1114.74
609.356	1087.42
609.556	1110.67
609.755	1137.8
609.955	1083.94
610.155	1131.21
610.355	1125.98
610.555	1094.2
610.755	1070.76
610.954	1025.23
611.154	1080.84
611.354	1123.85
611.554	1072.89
611.753	1088.97
611.953	1069.99
612.153	1096.14
612.352	1103.89
612.552	1043.44
612.752	1014.57
612.951	1078.7
613.151	1071.15
613.351	1035.89
613.55	1064.17
613.75	1059.52
613.949	1069.99
614.149	1037.63
614.348	1040.92
614.548	1012.64
614.747	981.83
614.947	1041.12
615.146	961.1
615.346	1034.34
615.545	1040.34
615.745	1037.44
615.944	1023.1
616.144	1037.82
616.343	1037.44
616.542	987.45
616.742	1007.79
616.941	999.65
617.14	947.73
617.34	992.87
617.539	972.14
617.738	963.42
617.938	1028.72
618.137	997.14
618.336	938.62
618.535	1007.4
618.734	977.76
618.934	1007.99
619.133	983.57
619.332	1050.8
619.531	913.82
619.73	965.56
619.929	1004.5
620.128	987.45
620.328	1013.02
620.527	951.61
620.726	963.04
620.925	995.97
621.124	962.46
621.323	981.44
621.522	904.72
621.721	934.17
621.92	929.32
622.119	960.52
622.318	915.96
622.517	947.34
622.715	945.99
622.914	893.68
623.113	936.69
623.312	903.75
623.511	899.68
623.71	911.31
623.909	885.54
624.107	970.98
624.306	866.74
624.505	870.81
624.704	889.22
624.902	911.69
625.101	934.75
625.3	918.86
625.499	875.85
625.697	864.42
625.896	839.23
626.095	902.98
626.293	843.49
626.492	869.65
626.69	911.11
626.889	882.24
627.088	911.69
627.286	850.86
627.485	846.21
627.683	803.78
627.882	881.47
628.08	794.28
628.279	832.06
628.477	884.38
628.676	821.21
628.874	851.05
629.073	823.93
629.271	827.03
629.469	834
629.668	830.71
629.866	806.3
630.065	822.96
630.263	822.96
630.461	790.99
630.66	843.69
630.858	862.48
631.056	866.16
631.254	863.45
631.453	791.57
631.651	877.59
631.849	842.91
632.047	835.74
632.245	819.28
632.444	851.83
632.642	848.34
632.84	851.24
633.038	829.16
633.236	777.81
633.434	812.69
633.632	792.93
633.83	838.65
634.028	866.74
634.227	847.37
634.425	899.68
634.623	857.64
634.821	820.25
635.019	837.29
635.216	812.3
635.414	876.63
635.612	856.09
635.81	841.36
636.008	911.69
636.206	835.94
636.404	872.36
636.602	820.25
636.8	807.65
636.997	891.16
637.195	826.06
637.393	846.21
637.591	883.99
637.789	830.71
637.986	822.57
638.184	831.68
638.382	869.84
638.58	849.31
638.777	874.11
638.975	838.84
639.173	845.63
639.37	859.19
639.568	859.19
639.765	822.57
639.963	812.5
640.161	841.75
640.358	834.97
640.556	808.43
640.753	771.61
640.951	751.08
641.148	828.96
641.346	761.73
641.543	780.53
641.741	780.72
641.938	752.82
642.136	766.96
642.333	770.84
642.531	815.4
642.728	818.89
642.925	791.76
643.123	776.85
643.32	782.08
643.517	726.47
643.715	757.08
643.912	733.06
644.109	776.46
644.306	735.77
644.504	706.13
644.701	755.34
644.898	738.48
645.095	731.32
645.293	714.85
645.49	735.58
645.687	726.47
645.884	734.8
646.081	666.02
646.278	661.18
646.475	704.19
646.672	651.68
646.87	695.47
647.067	701.48
647.264	703.03
647.461	639.67
647.658	630.95
647.855	676.87
648.052	657.69
648.249	605.19
648.446	651.49
648.642	615.45
648.839	615.26
649.036	629.21
649.233	597.24
649.43	606.54
649.627	575.74
649.824	594.34
650.021	562.56
650.217	578.06
650.414	604.41
650.611	665.63
650.808	628.24
651.004	628.24
651.201	648.2
651.398	674.74
651.595	610.61
651.791	617.78
651.988	639.09
652.185	601.31
652.381	619.52
652.578	578.84
652.775	604.02
652.971	611.58
653.168	594.53
653.364	635.41
653.561	563.53
653.757	580.77
653.954	627.08
654.15	600.92
654.347	642.77
654.543	597.63
654.74	547.64
654.936	567.4
655.133	595.89
655.329	582.32
655.525	584.45
655.722	596.85
655.918	541.64
656.115	585.81
656.311	498.04
656.507	485.26
656.704	441.28
656.9	481.96
657.096	512.38
657.292	472.28
657.489	570.7
657.685	535.63
657.881	523.23
658.077	539.31
658.273	541.64
658.47	605.96
658.666	522.07
658.862	598.02
659.058	543.19
659.254	598.6
659.45	530.79
659.646	547.06
659.842	547.26
660.038	593.95
660.234	524.78
660.43	570.31
660.626	594.53
660.822	551.32
661.018	551.52
661.214	575.35
661.41	503.08
661.606	573.6
661.802	553.07
661.998	514.71
662.194	531.95
662.39	548.03
662.586	576.9
662.781	538.92
662.977	542.02
663.173	549
663.369	533.69
663.564	543.57
663.76	554.81
663.956	504.24
664.152	553.26
664.347	465.49
664.543	509.47
664.739	487.77
664.934	474.21
665.13	452.13
665.326	514.51
665.521	522.26
665.717	479.64
665.912	470.53
666.108	444.76
666.304	468.98
666.499	493.59
666.695	429.84
666.89	473.05
667.086	523.62
667.281	468.79
667.477	532.53
667.672	511.02
667.867	475.18
668.063	459.29
668.258	436.82
668.454	482.54
668.649	553.26
668.844	490.87
669.04	487.97
669.235	459.88
669.43	443.41
669.626	425.19
669.821	448.83
670.016	427.52
670.211	456.39
670.407	456.19
670.602	464.53
670.797	462.2
670.992	478.09
671.187	400.59
671.382	477.31
671.578	403.69
671.773	484.67
671.968	412.99
672.163	456.39
672.358	439.92
672.553	414.93
672.748	431.01
672.943	489.71
673.138	412.6
673.333	447.28
673.528	402.33
673.723	495.14
673.918	437.98
674.113	401.36
674.308	490.29
674.503	466.08
674.698	453.87
674.892	464.53
675.087	470.14
675.282	450.19
675.477	420.54
675.672	502.69
675.867	437.98
676.061	418.61
676.256	413.57
676.451	376.37
676.646	455.23
676.84	421.71
677.035	385.48
677.23	427.71
677.424	436.04
677.619	448.06
677.814	459.88
678.008	452.32
678.203	382.57
678.397	437.01
678.592	438.95
678.787	498.24
678.981	420.35
679.176	439.34
679.37	432.36
679.565	419.19
679.759	420.74
679.954	425.19
680.148	469.18
680.342	466.27
680.537	460.07
680.731	417.44
680.926	461.43
681.12	476.73
681.314	420.35
681.509	450.38
681.703	420.16
681.897	447.48
682.092	440.31
682.286	445.73
682.48	503.86
682.674	478.28
682.869	445.54
683.063	457.94
683.257	508.12
683.451	437.21
683.645	465.11
683.839	451.16
684.034	437.98
684.228	487.39
684.422	432.94
684.616	407.56
684.81	474.02
685.004	452.13
685.198	454.06
685.392	472.08
685.586	439.34
685.78	489.71
685.974	477.89
686.168	476.73
686.362	527.88
686.556	449.61
686.75	408.34
686.944	449.99
687.138	423.06
687.331	376.18
687.525	400.78
687.719	328.9
687.913	372.3
688.107	397.29
688.301	355.83
688.494	431.59
688.688	367.07
688.882	354.09
689.076	364.94
689.269	409.11
689.463	457.36
689.657	420.54
689.85	415.12
690.044	463.56
690.238	457.74
690.431	458.33
690.625	463.36
690.818	484.48
691.012	508.31
691.205	518.58
691.399	476.54
691.593	523.62
691.786	573.22
691.98	585.62
692.173	608.87
692.366	627.85
692.56	625.72
692.753	680.55
692.947	601.5
693.14	664.47
693.333	691.79
693.527	609.06
693.72	689.27
693.914	685.78
694.107	654.78
694.3	711.94
694.493	683.27
694.687	743.91
694.88	692.37
695.073	791.38
695.266	738.68
695.46	780.33
695.653	774.52
695.846	806.68
696.039	755.34
696.232	769.48
696.425	856.86
696.618	864.61
696.812	881.08
697.005	921.57
697.198	977.76
697.391	915.37
697.584	975.05
697.777	1027.94
697.97	971.56
698.163	1045.38
698.356	1027.75
698.549	1073.28
698.742	1078.7
698.935	1023.1
699.127	1053.9
699.32	1042.86
699.513	1070.18
699.706	1068.82
699.899	1112.03
700.092	1076.77
700.285	1086.45
700.477	1097.88
700.67	1173.64
700.863	1181.58
701.056	1258.31
701.248	1199.8
701.441	1196.7
701.634	1222.85
701.826	1312.56
702.019	1211.23
702.212	1262.57
702.404	1230.6
702.597	1248.81
702.79	1259.66
702.982	1300.93
703.175	1338.91
703.367	1380.76
703.56	1374.36
703.752	1438.69
703.945	1416.99
704.137	1429.39
704.33	1462.13
704.522	1458.06
704.715	1474.72
704.907	1493.13
705.1	1512.7
705.292	1522.19
705.484	1507.66
705.677	1560.55
705.869	1540.98
706.061	1581.09
706.254	1639.02
706.446	1610.73
706.638	1627.78
706.831	1700.44
707.023	1649.48
707.215	1763.02
707.407	1737.44
707.599	1684.75
707.792	1776.58
707.984	1805.26
708.176	1793.63
708.368	1732.6
708.56	1788.59
708.752	1782.98
708.944	1776.39
709.136	1842.26
709.329	1851.17
709.521	1954.83
709.713	1907.55
709.905	1919.18
710.097	1979.24
710.289	1890.5
710.481	1908.33
710.672	1974.01
710.864	1948.24
711.056	2012.95
711.248	1973.23
711.44	2010.05
711.632	1992.03
711.824	2052.28
712.016	2077.86
712.207	2060.42
712.399	2083.28
712.591	2126.1
712.783	2130.95
712.975	2142.38
713.166	2089.87
713.358	2130.75
713.55	2184.42
713.741	2214.84
713.933	2219.1
714.125	2174.93
714.316	2171.63
714.508	2243.32
714.7	2212.71
714.891	2223.36
715.083	2256.88
715.274	2221.23
715.466	2246.03
715.657	2265.6
715.849	2155.74
716.04	2186.74
716.232	2160.39
716.423	2186.55
716.615	2134.82
716.806	2061
716.998	2040.27
717.189	1978.47
717.381	1881.2
717.572	1844.01
717.763	1847.11
717.955	1815.72
718.146	1829.86
718.337	1725.04
718.528	1724.66
718.72	1624.68
718.911	1686.3
719.102	1620.81
719.293	1692.3
719.485	1680.29
719.676	1644.06
719.867	1616.55
720.058	1640.38
720.249	1623.71
720.44	1654.13
720.632	1752.17
720.823	1737.64
721.014	1860.28
721.205	1931.19
721.396	1980.79
721.587	2089.87
721.778	2125.33
721.969	2180.93
722.16	2220.46
722.351	2264.82
722.542	2359.95
722.733	2356.08
722.924	2277.61
723.115	2306.87
723.305	2289.82
723.496	2295.05
723.687	2184.23
723.878	2149.54
724.069	2176.09
724.26	2174.34
724.45	2122.61
724.641	2099.95
724.832	2128.43
725.023	2144.12
725.213	2095.68
725.404	2090.65
725.595	2098.98
725.785	2073.79
725.976	2163.88
726.167	2120.29
726.357	2154.58
726.548	2218.13
726.739	2133.66
726.929	2247.97
727.12	2233.63
727.31	2266.96
727.501	2200.69
727.691	2187.52
727.882	2219.49
728.072	2270.06
728.263	2272.77
728.453	2356.66
728.644	2331.47
728.834	2300.47
729.024	2271.02
729.215	2278.39
729.405	2329.34
729.596	2421.76
729.786	2367.51
729.976	2352.79
730.167	2397.54
730.357	2378.55
730.547	2385.34
730.737	2420.4
730.928	2440.36
731.118	2437.07
731.308	2439.39
731.498	2429.32
731.688	2515.34
731.879	2525.8
732.069	2560.87
732.259	2579.28
732.449	2659.1
732.639	2748.61
732.829	2728.66
733.019	2784.07
733.209	2878.81
733.399	2831.15
733.589	2916.2
733.779	2933.06
733.969	2942.75
734.159	2996.41
734.349	3045.24
734.539	3094.84
734.729	3112.47
734.919	3122.54
735.109	3135.91
735.299	3100.26
735.488	3133.78
735.678	3112.66
735.868	3120.22
736.058	3142.69
736.248	3124.29
736.437	3064.03
736.627	3057.44
736.817	3192.87
737.007	3115.76
737.196	3191.71
737.386	3117.89
737.576	3170.4
737.765	3207.02
737.955	3176.41
738.144	3294.2
738.334	3239.57
738.524	3218.06
738.713	3265.72
738.903	3233.56
739.092	3256.81
739.282	3282.97
739.471	3312.61
739.661	3243.05
739.85	3277.15
740.04	3350.2
740.229	3373.64
740.419	3362.79
740.608	3404.25
740.797	3369.76
740.987	3435.64
741.176	3361.43
741.365	3391.66
741.555	3373.06
741.744	3442.23
741.933	3401.73
742.123	3427.11
742.312	3407.93
742.501	3486.4
742.69	3456.76
742.88	3393.6
743.069	3526.12
743.258	3484.85
743.447	3516.82
743.636	3513.53
743.825	3478.07
744.014	3514.3
744.204	3556.15
744.393	3491.83
744.582	3601.1
744.771	3614.86
744.96	3531.35
745.149	3554.21
745.338	3514.49
745.527	3588.89
745.716	3528.06
745.905	3531.16
746.094	3595.67
746.283	3598.97
746.471	3562.93
746.66	3615.24
746.849	3643.53
747.038	3617.37
747.227	3613.69
747.416	3631.9
747.604	3583.66
747.793	3559.06
747.982	3600.52
748.171	3596.64
748.359	3615.05
748.548	3593.16
748.737	3582.89
748.926	3614.08
749.114	3491.83
749.303	3598
749.491	3546.07
749.68	3551.31
749.869	3591.22
750.057	3556.54
750.246	3513.33
750.434	3542.2
750.623	3529.03
750.811	3505.97
751	3549.17
751.188	3472.26
751.377	3546.46
751.565	3498.03
751.754	3487.95
751.942	3460.83
752.131	3561.96
752.319	3478.07
752.507	3468.77
752.696	3559.25
752.884	3552.08
753.072	3459.47
753.261	3477.29
753.449	3520.5
753.637	3458.31
753.825	3550.14
754.014	3478.46
754.202	3500.35
754.39	3536.77
754.578	3521.47
754.766	3492.21
754.955	3453.46
755.143	3549.95
755.331	3467.99
755.519	3435.45
755.707	3464.31
755.895	3432.73
756.083	3452.3
756.271	3427.5
756.459	3462.57
756.647	3440.1
756.835	3388.75
757.023	3426.34
757.211	3413.55
757.399	3378.1
757.587	3362.21
757.775	3317.84
757.963	3355.43
758.151	3374.61
758.339	3299.82
758.526	3364.15
758.714	3320.55
758.902	3189.58
759.09	3136.49
759.278	2936.35
759.465	2703.08
759.653	2346.59
759.841	2098.4
760.028	1819.4
760.216	1561.91
760.404	1477.24
760.591	1207.16
760.779	970.59
760.967	869.65
761.154	712.13
761.342	722.98
761.529	729.57
761.717	762.12
761.905	789.83
762.092	838.07
762.28	756.89
762.467	790.8
762.655	699.35
762.842	731.9
763.029	716.78
763.217	714.85
763.404	722.21
763.592	730.73
763.779	719.88
763.966	751.66
764.154	798.55
764.341	835.94
764.528	855.31
764.716	925.45
764.903	972.34
765.09	1034.34
765.277	1091.1
765.465	1253.66
765.652	1297.25
765.839	1378.43
766.026	1499.14
766.213	1546.6
766.4	1650.65
766.588	1846.72
766.775	1873.65
766.962	1980.4
767.149	2034.85
767.336	2218.52
767.523	2191.01
767.71	2311.52
767.897	2416.53
768.084	2481.24
768.271	2511.08
768.458	2641.47
768.645	2682.16
768.832	2642.24
769.019	2700.56
769.206	2747.06
769.392	2860.79
769.579	2904
769.766	2808.87
769.953	2869.32
770.14	2915.82
770.327	2867.38
770.513	2940.23
770.7	3021.41
770.887	2913.3
771.073	3015.98
771.26	3000.29
771.447	2969.1
771.634	2941.78
771.82	3041.56
772.007	2979.56
772.193	2998.16
772.38	3012.11
772.567	3000.68
772.753	2977.43
772.94	3065
773.126	3033.61
773.313	3031.68
773.499	2982.27
773.686	3088.83
773.872	2984.01
774.059	3022.96
774.245	2984.4
774.432	3030.32
774.618	2928.8
774.804	2972
774.991	2926.28
775.177	2977.04
775.363	2981.3
775.55	2986.92
775.736	2920.85
775.922	2924.34
776.109	2938.1
776.295	2953.79
776.481	2964.45
776.667	2953.4
776.853	2913.49
777.04	2877.07
777.226	2919.5
777.412	2942.75
777.598	2858.85
777.784	2907.29
777.97	2885.01
778.156	2906.32
778.342	2904.19
778.528	2853.04
778.715	2800.54
778.901	2843.93
779.087	2865.05
779.272	2829.02
779.458	2826.89
779.644	2874.74
779.83	2842.77
780.016	2939.65
780.202	2836.18
780.388	2846.26
780.574	2726.33
780.76	2786.78
780.946	2792.79
781.131	2820.1
781.317	2760.04
781.503	2781.35
781.689	2780.39
781.874	2863.5
782.06	2742.8
782.246	2815.84
782.432	2730.01
782.617	2826.69
782.803	2798.6
782.989	2753.07
783.174	2760.62
783.36	2686.81
783.545	2696.69
783.731	2736.99
783.916	2644.96
784.102	2726.52
784.288	2669.76
784.473	2692.42
784.659	2673.63
784.844	2685.26
785.029	2681.19
785.215	2654.06
785.4	2635.85
785.586	2713.93
785.771	2572.49
785.956	2650.19
786.142	2605.43
786.327	2675.96
786.512	2586.83
786.698	2590.32
786.883	2528.32
787.068	2570.94
787.254	2615.89
787.439	2544.98
787.624	2538.78
787.809	2516.11
787.994	2484.73
788.18	2580.44
788.365	2480.66
788.55	2499.26
788.735	2487.25
788.92	2475.82
789.105	2451.79
789.29	2515.53
789.475	2424.86
789.66	2484.15
789.845	2421.76
790.03	2407.23
790.215	2454.5
790.4	2502.94
790.585	2456.63
790.77	2432.42
790.955	2383.98
791.14	2400.25
791.325	2455.28
791.51	2329.34
791.695	2435.52
791.879	2357.05
792.064	2326.05
792.249	2462.06
792.434	2394.64
792.618	2358.99
792.803	2427.57
792.988	2387.27
793.173	2353.56
793.357	2436.68
793.542	2372.94
793.727	2417.88
793.911	2416.92
794.096	2383.79
794.281	2434.16
794.465	2502.75
794.65	2408.2
794.834	2452.57
795.019	2473.1
795.203	2485.7
795.388	2467.68
795.572	2494.41
795.757	2450.63
795.941	2462.83
796.126	2410.13
796.31	2367.12
796.494	2402.58
796.679	2377.39
796.863	2353.37
797.048	2438.62
797.232	2421.95
797.416	2422.53
797.601	2418.85
797.785	2514.56
797.969	2499.84
798.153	2443.65
798.338	2431.25
798.522	2508.17
798.706	2479.69
798.89	2494.22
799.074	2531.42
799.258	2527.35
799.443	2482.02
799.627	2482.79
799.811	2500.81
799.995	2459.35
800.179	2442.68
800.363	2422.53
800.547	2439.97
800.731	2475.23
800.915	2406.26
801.099	2383.98
801.283	2420.79
801.467	2455.86
801.651	2437.07
801.835	2478.53
802.019	2436.1
802.202	2425.44
802.386	2381.27
802.57	2343.87
802.754	2377.39
802.938	2389.6
803.121	2371.58
803.305	2483.18
803.489	2446.95
803.673	2453.15
803.856	2406.65
804.04	2414.01
804.224	2431.06
804.407	2419.63
804.591	2393.67
804.775	2400.64
804.958	2415.37
805.142	2529.1
805.326	2380.69
805.509	2413.43
805.693	2466.13
805.876	2485.5
806.06	2414.59
806.243	2486.28
806.427	2451.4
806.61	2522.7
806.794	2450.63
806.977	2513.21
807.16	2464.77
807.344	2469.62
807.527	2437.07
807.71	2448.11
807.894	2457.41
808.077	2475.43
808.26	2392.5
808.444	2358.21
808.627	2450.82
808.81	2384.17
808.993	2349.1
809.177	2384.56
809.36	2363.64
809.543	2380.88
809.726	2301.64
809.909	2294.66
810.092	2232.08
810.276	2275.87
810.459	2326.63
810.642	2283.62
810.825	2254.56
811.008	2272.19
811.191	2162.14
811.374	2182.87
811.557	2187.71
811.74	2212.32
811.923	2086.58
812.106	2119.71
812.289	2096.65
812.472	2103.43
812.654	2110.21
812.837	2069.14
813.02	2028.45
813.203	2018.18
813.386	1860.09
813.569	1884.89
813.751	1834.9
813.934	1875.2
814.117	1851.17
814.3	1788.98
814.482	1747.52
814.665	1702.76
814.848	1661.3
815.03	1629.72
815.213	1645.61
815.396	1604.34
815.578	1573.73
815.761	1549.9
815.943	1640.18
816.126	1489.06
816.309	1522.77
816.491	1440.62
816.674	1356.92
816.856	1429.58
817.039	1435.97
817.221	1490.61
817.403	1461.55
817.586	1488.29
817.768	1494.68
817.951	1383.86
818.133	1360.99
818.315	1445.27
818.498	1478.6
818.68	1502.04
818.862	1511.92
819.045	1502.04
819.227	1478.21
819.409	1473.75
819.591	1513.47
819.774	1476.08
819.956	1467.36
820.138	1523.16
820.32	1533.04
820.502	1574.89
820.684	1661.69
820.866	1649.87
821.048	1726.79
821.231	1698.11
821.413	1741.32
821.595	1710.51
821.777	1677.38
821.959	1692.88
822.141	1737.06
822.323	1607.63
822.505	1566.95
822.686	1502.43
822.868	1416.02
823.05	1323.21
823.232	1322.05
823.414	1243
823.596	1344.91
823.778	1305.39
823.96	1351.5
824.141	1366.03
824.323	1382.69
824.505	1444.89
824.687	1485.96
824.868	1522.77
825.05	1590.39
825.232	1646.96
825.413	1709.74
825.595	1663.24
825.777	1599.5
825.958	1619.06
826.14	1605.31
826.321	1664.4
826.503	1633.79
826.685	1690.56
826.866	1714.19
827.048	1681.06
827.229	1652.2
827.411	1581.28
827.592	1534.98
827.773	1548.54
827.955	1490.03
828.136	1467.36
828.318	1480.54
828.499	1500.49
828.68	1436.36
828.862	1487.12
829.043	1525.48
829.224	1467.75
829.406	1444.5
829.587	1454.38
829.768	1448.76
829.949	1517.93
830.131	1493.32
830.312	1529.75
830.493	1475.69
830.674	1493.9
830.855	1494.1
831.036	1472.59
831.218	1506.3
831.399	1545.83
831.58	1500.49
831.761	1522.77
831.942	1520.06
832.123	1487.12
832.304	1469.3
832.485	1460.97
832.666	1505.14
832.847	1505.53
833.028	1497.97
833.209	1478.4
833.389	1480.34
833.57	1435.59
833.751	1476.47
833.932	1491
834.113	1514.64
834.294	1466.78
834.475	1523.35
834.655	1550.67
834.836	1549.7
835.017	1538.47
835.198	1493.13
835.378	1523.93
835.559	1522.97
835.74	1495.26
835.92	1514.25
836.101	1479.37
836.281	1533.43
836.462	1550.67
836.643	1548.73
836.823	1568.88
837.004	1586.71
837.184	1586.13
837.365	1571.02
837.545	1594.27
837.726	1544.67
837.906	1631.27
838.087	1602.02
838.267	1589.23
838.448	1516.19
838.628	1561.33
838.808	1565.98
838.989	1629.53
839.169	1534.01
839.349	1582.45
839.53	1545.83
839.71	1554.16
839.89	1571.4
840.07	1658.4
840.251	1542.92
840.431	1604.73
840.611	1593.1
840.791	1546.02
840.971	1582.25
841.151	1563.85
841.332	1550.67
841.512	1600.27
841.692	1540.79
841.872	1558.81
842.052	1553.97
842.232	1598.53
842.412	1500.1
842.592	1520.25
842.772	1567.14
842.952	1547.96
843.132	1521.22
843.312	1553
843.492	1515.99
843.672	1564.82
843.851	1455.35
844.031	1530.52
844.211	1565.98
844.391	1497.39
844.571	1489.45
844.751	1557.84
844.93	1544.28
845.11	1492.16
845.29	1531.49
845.47	1549.9
845.649	1533.62
845.829	1543.12
846.009	1498.36
846.188	1569.08
846.368	1525.1
846.547	1522.58
846.727	1565.59
846.907	1491
847.086	1542.53
847.266	1557.26
847.445	1515.02
847.625	1504.17
847.804	1472.59
847.984	1504.17
848.163	1459.03
848.343	1475.5
848.522	1485.38
848.701	1481.12
848.881	1441.98
849.06	1471.04
849.239	1476.85
849.419	1482.09
849.598	1442.75
849.777	1421.44
849.957	1390.83
850.136	1361.57
850.315	1338.71
850.494	1337.16
850.674	1345.88
850.853	1393.54
851.032	1361.19
851.211	1427.06
851.39	1405.17
851.569	1370.29
851.748	1380.95
851.927	1391.22
852.107	1391.02
852.286	1348.01
852.465	1319.73
852.644	1384.24
852.823	1387.92
853.002	1382.69
853.181	1347.04
853.359	1389.86
853.538	1286.59
853.717	1389.28
853.896	1305.78
854.075	1227.89
854.254	1210.45
854.433	1161.63
854.611	1232.15
854.79	1115.13
854.969	1234.28
855.148	1222.46
855.327	1174.61
855.505	1227.11
855.684	1208.71
855.863	1279.62
856.041	1197.66
856.22	1262.57
856.399	1244.16
856.577	1324.38
856.756	1337.36
856.934	1414.66
857.113	1376.88
857.291	1318.76
857.47	1329.61
857.648	1327.67
857.827	1295.89
858.005	1349.95
858.184	1284.85
858.362	1393.16
858.541	1293.96
858.719	1324.96
858.898	1299.19
859.076	1304.42
859.254	1366.61
859.433	1310.04
859.611	1243.78
859.789	1239.32
859.967	1348.21
860.146	1329.61
860.324	1246.88
860.502	1299.38
860.68	1183.91
860.859	1255.6
861.037	1275.94
861.215	1291.24
861.393	1302.68
861.571	1269.16
861.749	1279.23
861.927	1292.6
862.105	1268.96
862.283	1223.43
862.461	1244.16
862.639	1187.98
862.817	1229.44
862.995	1228.86
863.173	1225.95
863.351	1229.25
863.529	1233.7
863.707	1280.98
863.885	1247.26
864.063	1203.86
864.241	1180.61
864.418	1280.78
864.596	1190.5
864.774	1218.2
864.952	1205.8
865.129	1207.93
865.307	1169.38
865.485	1170.93
865.663	1202.9
865.84	1140.9
866.018	1141.09
866.196	1031.62
866.373	1086.65
866.551	1035.89
866.728	962.07
866.906	1043.83
867.084	1045.96
867.261	1066.3
867.439	1107.77
867.616	1118.03
867.794	1082.58
867.971	1129.27
868.149	1131.6
868.326	1160.47
868.503	1133.34
868.681	1129.66
868.858	1107.38
869.035	1114.93
869.213	1156.01
869.39	1134.7
869.567	1196.31
869.745	1099.24
869.922	1133.53
870.099	1154.85
870.276	1119.2
870.454	1131.79
870.631	1129.08
870.808	1130.63
870.985	1140.51
871.162	1171.12
871.339	1164.15
871.517	1090.13
871.694	1061.46
871.871	1099.24
872.048	1106.8
872.225	1085.1
872.402	1084.9
872.579	1066.89
872.756	1103.31
872.933	1068.24
873.11	1083.16
873.287	1082.58
873.463	1044.02
873.64	1048.48
873.817	1081.61
873.994	1039.37
874.171	1015.54
874.348	1061.65
874.524	985.71
874.701	1048.09
874.878	1008.57
875.055	1050.42
875.231	1013.6
875.408	1085.1
875.585	973.89
875.762	1036.47
875.938	999.85
876.115	1015.74
876.291	989.39
876.468	1005.66
876.645	973.11
876.821	975.82
876.998	1007.99
877.174	1026
877.351	990.74
877.527	964.01
877.704	980.28
877.88	1009.15
878.057	992.49
878.233	1026
878.409	963.23
878.586	997.52
878.762	979.31
878.938	989.39
879.115	888.25
879.291	970.98
879.467	961.68
879.644	933.59
879.82	975.44
879.996	943.27
880.172	928.74
880.349	932.42
880.525	962.26
880.701	902.98
880.877	931.65
881.053	945.02
881.229	932.23
881.405	964.39
881.581	913.05
881.757	958.97
881.933	935.33
882.109	967.3
882.285	928.74
882.461	897.55
882.637	957.42
882.813	902.01
882.989	910.72
883.165	960.91
883.341	900.84
883.517	977.76
883.693	948.89
883.869	972.53
884.044	917.12
884.22	968.07
884.396	988.61
884.572	956.26
884.747	970.4
884.923	960.91
885.099	954.71
885.275	996.56
885.45	913.24
885.626	917.7
885.801	908.79
885.977	923.12
886.153	856.09
886.328	927.97
886.504	926.81
886.679	939.4
886.855	897.55
887.03	921.19
887.206	976.21
887.381	905.69
887.557	929.71
887.732	954.9
887.908	937.27
888.083	934.17
888.258	948.12
888.434	932.04
888.609	918.09
888.784	969.82
888.96	911.11
889.135	904.33
889.31	908.4
889.485	924.87
889.661	919.83
889.836	935.33
890.011	944.44
890.186	933.39
890.361	911.69
890.537	925.45
890.712	957.03
890.887	928.36
891.062	901.43
891.237	975.44
891.412	897.94
891.587	931.65
891.762	922.93
891.937	963.62
892.112	872.94
892.287	843.88
892.462	852.41
892.637	825.48
892.812	866.94
892.987	843.88
893.161	797.77
893.336	809.4
893.511	835.94
893.686	833.81
893.861	809.4
894.035	833.23
894.21	840.59
894.385	775.49
894.56	792.54
894.734	747.59
894.909	745.65
895.084	728.41
895.258	702.45
895.433	765.8
895.608	736.16
895.782	687.72
895.957	709.03
896.131	673.58
896.306	632.12
896.48	634.64
896.655	651.68
896.829	583.29
897.004	611
897.178	603.25
897.353	578.06
897.527	613.9
897.701	641.42
897.876	541.44
898.05	637.74
898.224	614.1
898.399	652.27
898.573	628.24
898.747	504.24
898.921	535.44
899.096	445.93
899.27	462.39
899.444	481.77
899.618	513.16
899.792	557.91
899.967	521.49
900.141	560.24
900.315	489.91
900.489	508.7
900.663	503.47
900.837	549.58
901.011	486.81
901.185	569.54
901.359	520.32
901.533	510.64
901.707	523.04
901.881	520.71
902.055	446.7
902.229	479.06
902.403	542.02
902.576	517.61
902.75	504.05
902.924	634.64
903.098	572.05
903.272	601.31
903.446	649.75
903.619	644.32
903.793	668.35
903.967	640.45
904.14	712.52
904.314	654.2
904.488	673.38
904.661	700.7
904.835	652.46
905.009	697.41
905.182	728.8
905.356	702.45
905.529	687.53
905.703	634.44
905.876	630.95
906.05	587.75
906.223	581.35
906.397	525.17
906.57	528.85
906.744	514.71
906.917	525.36
907.09	549.58
907.264	521.29
907.437	485.06
907.61	453.87
907.784	460.46
907.957	491.07
908.13	461.81
908.304	510.83
908.477	452.13
908.65	462.59
908.823	444.18
908.996	522.65
909.17	436.43
909.343	451.74
909.516	457.55
909.689	459.88
909.862	405.63
910.035	449.99
910.208	410.86
910.381	441.47
910.554	513.93
910.727	422.68
910.9	426.16
911.073	459.29
911.246	517.81
911.419	495.33
911.592	496.49
911.765	432.36
911.938	445.54
912.11	426.74
912.283	436.24
912.456	470.53
912.629	474.41
912.802	435.66
912.974	400.59
913.147	383.15
913.32	324.83
913.493	345.56
913.665	370.17
913.838	402.14
914.01	381.21
914.183	403.69
914.356	408.14
914.528	421.51
914.701	468.01
914.873	425.19
915.046	366.1
915.218	394.78
915.391	284.15
915.563	328.13
915.736	390.9
915.908	400.78
916.081	393.81
916.253	364.94
916.425	375.98
916.598	376.18
916.77	394.39
916.942	356.8
917.115	304.68
917.287	353.51
917.459	349.44
917.632	334.33
917.804	274.46
917.976	364.16
918.148	338.59
918.32	376.37
918.493	381.8
918.665	428.29
918.837	394.58
919.009	453.48
919.181	434.49
919.353	389.16
919.525	398.46
919.697	426.36
919.869	411.83
920.041	467.43
920.213	504.63
920.385	471.5
920.557	422.87
920.729	477.7
920.901	409.5
921.073	439.73
921.244	418.61
921.416	464.14
921.588	430.62
921.76	416.28
921.932	476.34
922.103	413.57
922.275	412.6
922.447	435.08
922.619	353.9
922.79	423.64
922.962	380.63
923.134	432.94
923.305	349.63
923.477	345.37
923.648	359.51
923.82	353.51
923.991	344.6
924.163	313.98
924.335	353.51
924.506	321.93
924.677	403.11
924.849	321.93
925.02	384.31
925.192	374.82
925.363	340.53
925.535	360.87
925.706	315.34
925.877	417.83
926.049	318.05
926.22	340.53
926.391	374.82
926.562	374.24
926.734	361.84
926.905	388.77
927.076	279.5
927.247	310.11
927.419	290.15
927.59	277.95
927.761	307.4
927.932	277.37
928.103	291.12
928.274	230.87
928.445	225.25
928.616	241.33
928.787	253.15
928.958	259.73
929.129	238.81
929.3	234.35
929.471	192.12
929.642	175.84
929.813	154.92
929.984	223.7
930.155	132.64
930.326	168.67
930.496	162.86
930.667	87.3
930.838	159.18
931.009	97.18
931.18	123.92
931.35	114.04
931.521	136.9
931.692	86.52
931.863	46.22
932.033	71.99
932.204	109.97
932.374	104.93
932.545	47.58
932.716	133.41
932.886	97.96
933.057	78.19
933.227	32.86
933.398	102.99
933.568	78.77
933.739	20.07
933.909	53.39
934.08	91.76
934.25	-5.7
934.421	-2.21
934.591	42.16
934.761	21.62
934.932	1.47
935.102	23.94
935.272	29.37
935.443	47.97
935.613	26.08
935.783	34.41
935.953	24.33
936.123	125.85
936.294	28.01
936.464	14.26
936.634	37.7
936.804	-16.55
936.974	4.96
937.144	51.26
937.314	30.92
937.484	16.78
937.655	23.36
937.825	62.31
937.995	32.08
938.165	55.72
938.334	7.48
938.504	61.92
938.674	52.23
938.844	53.97
939.014	80.32
939.184	59.4
939.354	127.02
939.524	97.76
939.694	60.95
939.863	71.61
940.033	141.74
940.203	107.45
940.373	122.37
940.542	87.69
940.712	69.09
940.882	91.56
941.051	107.64
941.221	101.06
941.391	109.77
941.56	79.94
941.73	35.96
941.899	155.69
942.069	81.68
942.238	68.7
942.408	72.96
942.577	109
942.747	86.72
942.916	15.42
943.086	46.42
943.255	92.34
943.425	76.84
943.594	18.33
943.763	2.63
943.933	14.84
944.102	-15.39
944.271	51.46
944.441	71.02
944.61	51.84
944.779	46.42
944.948	156.08
945.117	15.61
945.287	39.44
945.456	8.25
945.625	25.49
945.794	74.32
945.963	39.83
946.132	65.41
946.301	44.09
946.47	72.38
946.639	9.99
946.808	46.42
946.977	56.11
947.146	71.61
947.315	57.27
947.484	71.99
947.653	33.83
947.822	54.75
947.991	33.44
948.16	127.21
948.329	78.97
948.498	59.79
948.666	75.09
948.835	77.81
949.004	0.11
949.173	34.79
949.341	67.73
949.51	48.16
949.679	99.89
949.847	80.32
950.016	119.46
950.185	97.37
950.353	40.41
950.522	50.87
950.69	82.65
950.859	41.19
951.028	87.3
951.196	59.79
951.365	44.87
951.533	88.66
951.701	77.03
951.87	74.12
952.038	38.28
952.207	55.14
952.375	122.37
952.543	33.44
952.712	53.97
952.88	53.59
953.048	98.15
953.217	67.54
953.385	64.44
953.553	93.31
953.721	27.63
953.89	39.06
954.058	18.33
954.226	6.7
954.394	34.6
954.562	-6.47
954.73	45.06
954.898	67.54
955.067	106.09
955.235	19.29
955.403	87.11
955.571	104.54
955.739	91.17
955.907	44.87
956.075	25.88
956.243	30.53
956.41	77.22
956.578	19.29
956.746	38.86
956.914	39.25
957.082	83.81
957.25	94.47
957.418	45.06
957.585	80.52
957.753	96.79
957.921	29.95
958.089	34.41
958.256	79.94
958.424	50.1
958.592	49.32
958.759	51.84
958.927	61.92
959.095	30.53
959.262	60.17
959.43	93.69
959.597	4.76
959.765	58.24
959.932	1.47
960.1	86.72
960.267	79.94
960.435	65.79
960.602	74.9
960.77	49.52
960.937	20.46
961.104	69.86
961.272	20.07
961.439	45.06
961.606	64.82
961.774	100.09
961.941	41.77
962.108	81.1
962.275	73.54
962.443	80.52
962.61	77.03
962.777	117.33
962.944	71.22
963.111	69.47
963.278	93.69
963.446	63.66
963.613	78
963.78	104.93
963.947	102.02
964.114	72.57
964.281	144.45
964.448	114.62
964.615	47.39
964.782	68.31
964.949	100.09
965.116	85.94
965.282	120.24
965.449	56.88
965.616	37.12
965.783	109
965.95	90.98
966.117	36.54
966.283	75.09
966.45	75.67
966.617	86.14
966.784	92.92
966.95	84.59
967.117	86.72
967.284	59.79
967.45	58.62
967.617	115.59
967.784	106.67
967.95	117.91
968.117	89.82
968.283	149.69
968.45	170.8
968.616	104.54
968.783	116.94
968.949	94.27
969.116	128.95
969.282	99.31
969.449	133.8
969.615	90.79
969.781	57.27
969.948	84.39
970.114	65.02
970.28	128.37
970.447	93.11
970.613	141.55
970.779	77.81
970.945	94.86
971.112	113.26
971.278	53.01
971.444	101.25
971.61	135.35
971.776	91.76
971.942	113.65
972.108	91.37
972.275	107.06
972.441	102.99
972.607	147.55
972.773	81.87
972.939	97.96
973.105	100.09
973.271	47.97
973.437	70.44
973.602	73.93
973.768	108.81
973.934	80.52
974.1	98.34
974.266	36.73
974.432	82.84
974.598	62.69
974.763	114.81
974.929	78.77
975.095	144.45
975.261	57.46
975.426	60.56
975.592	81.87
975.758	138.25
975.923	56.88
976.089	49.52
976.255	119.07
976.42	112.1
976.586	98.92
976.751	103.38
976.917	169.64
977.082	111.32
977.248	49.91
977.413	28.4
977.579	77.61
977.744	96.99
977.91	29.18
978.075	49.71
978.24	113.26
978.406	66.18
978.571	48.74
978.736	61.72
978.902	103.96
979.067	54.36
979.232	36.34
979.397	68.89
979.563	143.29
979.728	53.39
979.893	63.47
980.058	71.22
980.223	115.01
980.388	81.29
980.554	94.08
980.719	67.54
980.884	84.2
981.049	103.38
981.214	79.94
981.379	89.43
981.544	81.87
981.709	57.07
981.874	62.11
982.039	75.48
982.204	122.76
982.368	97.37
982.533	68.89
982.698	115.01
982.863	108.03
983.028	79.74
983.193	84.01
983.357	84.2
983.522	89.24
983.687	67.15
983.852	86.91
984.016	62.5
984.181	79.55
984.346	69.67
984.51	114.62
984.675	69.47
984.839	85.36
985.004	82.07
985.168	122.37
985.333	82.26
985.498	71.22
985.662	108.42
985.827	74.71
985.991	80.32
986.155	81.49
986.32	117.14
986.484	137.48
986.649	86.52
986.813	40.02
986.977	76.64
987.142	94.47
987.306	66.18
987.47	78.77
987.634	66.76
987.799	83.04
987.963	120.43
988.127	111.52
988.291	153.95
988.455	87.88
988.62	55.52
988.784	93.69
988.948	120.24
989.112	72.57
989.276	107.45
989.44	83.23
989.604	30.53
989.768	90.98
989.932	125.47
990.096	54.17
990.26	48.94
990.424	39.25
990.588	63.66
990.752	128.18
990.915	96.79
991.079	88.27
991.243	59.98
991.407	101.83
991.571	79.36
991.734	119.27
991.898	88.07
992.062	159.37
992.226	73.16
992.389	61.53
992.553	52.23
992.717	53.2
992.88	42.54
993.044	81.68
993.207	97.96
993.371	96.02
993.535	71.8
993.698	61.72
993.862	108.42
994.025	142.52
994.189	53.01
994.352	94.86
994.515	75.09
994.679	105.71
994.842	57.46
995.006	84.97
995.169	47.77
995.332	46.61
995.496	97.96
995.659	27.43
995.822	73.74
995.985	63.47
996.149	103.77
996.312	53.78
996.475	89.24
996.638	41.57
996.801	125.08
996.964	126.44
997.128	66.96
997.291	66.18
997.454	78
997.617	27.43
997.78	124.3
997.943	40.02
998.106	97.76
998.269	36.54
998.432	59.59
998.595	53.78
998.758	28.98
998.92	36.54
999.083	24.33
999.246	38.67
999.409	43.9
999.572	0.89
999.735	49.71
999.897	65.41
1000.06	28.98
1000.223	24.72
1000.386	69.09
1000.548	99.7
1000.711	63.86
1000.874	74.9
1001.036	24.14
1001.199	82.26
1001.361	45.45
1001.524	69.86
1001.687	59.98
1001.849	49.91
1002.012	65.02
1002.174	65.79
1002.337	70.06
1002.499	39.44
1002.661	97.37
1002.824	33.05
1002.986	15.23
1003.149	59.59
1003.311	41.38
1003.473	101.44
1003.636	28.98
1003.798	53.39
1003.96	59.98
1004.123	47.19
1004.285	52.81
1004.447	46.22
1004.609	50.49
1004.771	73.93
1004.933	5.54
1005.096	17.94
1005.258	-2.41
1005.42	29.76
1005.582	89.82
1005.744	78
1005.906	33.83
1006.068	44.29
1006.23	20.46
1006.392	-15.97
1006.554	20.46
1006.716	62.69
1006.878	56.88
1007.04	18.52
1007.202	59.01
1007.363	46.61
1007.525	50.1
1007.687	54.36
1007.849	101.83
1008.011	15.81
1008.172	41.38
1008.334	22.01
1008.496	72.96
1008.658	-4.92
1008.819	27.63
1008.981	8.44
1009.143	30.53
1009.304	42.16
1009.466	82.46
1009.627	83.62
1009.789	101.06
1009.95	60.76
1010.112	50.29
1010.273	45.45
1010.435	26.85
1010.596	-0.27
1010.758	3.79
1010.919	42.54
1011.081	19.29
1011.242	44.29
1011.403	79.74
1011.565	39.83
1011.726	54.56
1011.887	13.68
1012.049	61.53
1012.21	59.21
1012.371	83.62
1012.532	-15.19
1012.693	24.72
1012.855	34.79
1013.016	35.76
1013.177	65.21
1013.338	29.18
1013.499	98.92
1013.66	70.25
1013.821	62.31
1013.982	49.52
1014.143	39.44
1014.304	27.82
1014.465	59.59
1014.626	82.84
1014.787	25.11
1014.948	105.9
1015.109	-37.47
1015.27	48.36
1015.431	5.73
1015.592	21.81
1015.752	75.29
1015.913	30.53
1016.074	47.39
1016.235	57.07
1016.395	34.21
1016.556	38.28
1016.717	20.07
1016.877	81.29
1017.038	-4.15
1017.199	41.19
1017.359	37.12
1017.52	36.34
1017.681	21.62
1017.841	17.16
1018.002	26.08
1018.162	28.79
1018.323	87.3
1018.483	-8.22
1018.644	26.66
1018.804	-13.06
1018.964	-12.48
1019.125	12.9
1019.285	42.93
1019.446	-12.67
1019.606	12.9
1019.766	-55.3
1019.926	36.34
1020.087	44.48
1020.247	-26.04
1020.407	43.71
1020.567	68.51
1020.728	27.43
1020.888	-17.32
1021.048	18.52
1021.208	1.47
1021.368	-9.38
1021.528	61.92
1021.688	49.91
1021.848	45.45
1022.008	40.61
1022.168	16.58
1022.328	8.64
1022.488	51.26
1022.648	11.16
1022.808	3.41
1022.968	3.41
1023.128	0.89
1023.288	21.62
1023.448	24.33
1023.608	55.33
1023.767	46.81
1023.927	-11.51
1024.087	-7.25
1024.247	-22.36
1024.406	7.28
1024.566	-21.2
1024.726	11.35
1024.885	30.92
1025.045	23.36
1025.205	3.21
1025.364	13.48
1025.524	31.89
1025.683	29.56
1025.843	26.08
1026.003	8.06
1026.162	48.55
1026.321	53.78
1026.481	8.44
1026.64	16.19
1026.8	45.84
1026.959	32.28
1027.119	-2.79
1027.278	5.15
1027.437	7.67
1027.597	0.69
1027.756	10.77
1027.915	42.16
1028.074	24.53
1028.234	-4.92
1028.393	25.69
1028.552	5.54
1028.711	-73.12
1028.87	35.38
1029.03	3.99
1029.189	5.15
1029.348	-70.22
1029.507	25.88
1029.666	-22.75
1029.825	-20.62
1029.984	14.06
1030.143	37.51
1030.302	11.16
1030.461	-37.28
1030.62	22.98
1030.779	22.59
1030.938	-8.61
1031.097	-3.37
1031.255	26.27
1031.414	79.94
1031.573	57.27
1031.732	6.89
1031.891	16.19
1032.049	56.69
1032.208	17.94
1032.367	-16.55
1032.525	0.89
1032.684	9.03
1032.843	21.23
1033.001	-24.88
1033.16	140.77
1033.319	50.1
1033.477	22.78
1033.636	-33.02
1033.794	-16.94
1033.953	28.98
1034.111	31.69
1034.27	22.01
1034.428	17.94
1034.587	-18.87
1034.745	1.47
1034.903	3.02
1035.062	8.83
1035.22	-21.59
1035.378	35.18
1035.537	-2.41
1035.695	38.28
1035.853	-14.42
1036.011	45.06
1036.17	24.14
1036.328	-50.84
1036.486	32.47
1036.644	13.29
1036.802	-41.54
1036.96	-0.66
1037.119	17.36
1037.277	0.89
1037.435	-33.6
1037.593	-25.07
1037.751	18.52
1037.909	13.48
1038.067	13.48
