Data from gum_young_FLMT105791__13__17-38-12-045.txt Node

Date: Mon Mar 20 17:38:12 GMT 2023
User: antho
Spectrometer: FLMT10579
Trigger mode: 0
Integration Time (sec): 1.000000E-1
Scans to average: 10
Electric dark correction enabled: true
Nonlinearity correction enabled: false
Boxcar width: 0
XAxis mode: Wavelengths
Number of Pixels in Spectrum: 3648
>>>>>Begin Spectral Data<<<<<
345.248	-139.14
345.464	-139.14
345.681	-139.14
345.898	-169.56
346.114	-157.94
346.331	-33.74
346.548	24.96
346.764	-24.64
346.981	11.01
347.197	0.94
347.414	0.16
347.631	-5.26
347.847	48.99
348.064	-13.79
348.28	29.8
348.497	-35.1
348.713	-3.33
348.93	12.76
349.146	37.55
349.363	-13.01
349.579	25.74
349.796	6.17
350.012	19.73
350.229	24.77
350.445	3.65
350.661	-43.24
350.878	-11.46
351.094	14.31
351.311	21.28
351.527	12.37
351.743	-19.99
351.96	11.59
352.176	23.99
352.392	-4.29
352.609	41.04
352.825	-15.92
353.041	-2.55
353.257	-10.11
353.474	-9.33
353.69	29.8
353.906	14.11
354.122	-20.96
354.339	43.17
354.555	-12.82
354.771	12.17
354.987	52.86
355.203	38.14
355.42	-10.69
355.636	-1.78
355.852	-7.98
356.068	11.4
356.284	-32.78
356.5	49.37
356.716	20.12
356.932	8.88
357.148	26.51
357.364	13.92
357.58	33.68
357.796	69.14
358.012	40.65
358.228	10.82
358.444	-31.61
358.66	50.92
358.876	29.03
359.092	-8.36
359.308	-8.36
359.524	36.97
359.74	15.47
359.956	-8.75
360.172	-3.91
360.388	27.87
360.604	-22.89
360.819	72.43
361.035	26.7
361.251	30.58
361.467	-24.64
361.683	42.79
361.898	33.29
362.114	26.32
362.33	-13.59
362.546	51.12
362.762	13.92
362.977	13.53
363.193	-17.08
363.409	47.05
363.624	-12.82
363.84	-27.54
364.056	-7.01
364.271	30.39
364.487	12.95
364.703	-27.93
364.918	-14.95
365.134	-22.12
365.35	-2.94
365.565	89.48
365.781	11.98
365.996	29.03
366.212	66.42
366.427	-7.59
366.643	22.83
366.858	-9.91
367.074	-9.91
367.289	53.83
367.505	82.89
367.72	-29.48
367.936	11.21
368.151	57.51
368.367	20.89
368.582	23.22
368.798	-3.33
369.013	53.25
369.228	4.04
369.444	6.56
369.659	38.72
369.874	19.54
370.09	49.76
370.305	-57.58
370.52	-22.89
370.736	43.95
370.951	21.09
371.166	56.35
371.381	68.55
371.597	19.34
371.812	-21.73
372.027	-16.69
372.242	5.2
372.458	47.44
372.673	3.07
372.888	-10.69
373.103	31.35
373.318	92.97
373.533	27.87
373.749	5.59
373.964	-68.43
374.179	43.56
374.394	-13.4
374.609	39.49
374.824	4.81
375.039	68.75
375.254	-1.78
375.469	60.8
375.684	28.25
375.899	53.25
376.114	12.56
376.329	38.14
376.544	36.59
376.759	54.99
376.974	-6.43
377.189	7.14
377.404	-4.68
377.619	62.35
377.834	-21.54
378.049	-18.63
378.264	-22.7
378.478	59.84
378.693	1.32
378.908	40.07
379.123	3.84
379.338	42.01
379.553	19.73
379.767	0.74
379.982	42.4
380.197	21.47
380.412	-2.94
380.626	37.17
380.841	86.57
381.056	56.74
381.271	65.07
381.485	8.3
381.7	-11.66
381.915	20.89
382.129	15.08
382.344	46.66
382.559	8.49
382.773	58.87
382.988	-23.09
383.202	39.1
383.417	-11.08
383.632	86.38
383.846	20.7
384.061	23.99
384.275	0.16
384.49	30.97
384.704	44.53
384.919	36.2
385.133	12.56
385.348	38.52
385.562	-24.44
385.777	65.45
385.991	15.08
386.206	45.3
386.42	17.21
386.634	52.67
386.849	38.52
387.063	60.22
387.277	9.27
387.492	-10.11
387.706	6.94
387.92	13.14
388.135	46.27
388.349	37.75
388.563	15.66
388.778	34.26
388.992	43.56
389.206	40.85
389.42	80.57
389.635	25.93
389.849	19.54
390.063	78.44
390.277	66.04
390.491	67.59
390.706	45.11
390.92	46.08
391.134	28.84
391.348	61.58
391.562	-9.14
391.776	23.99
391.99	8.88
392.205	59.06
392.419	0.94
392.633	45.69
392.847	80.37
393.061	-5.65
393.275	67.2
393.489	12.76
393.703	31.74
393.917	56.15
394.131	23.8
394.345	43.17
394.559	52.28
394.773	27.29
394.986	44.34
395.2	40.27
395.414	52.28
395.628	-16.5
395.842	29.42
396.056	43.17
396.27	-1
396.484	57.51
396.697	60.03
396.911	67
397.125	54.8
397.339	73.2
397.553	25.54
397.766	95.68
397.98	66.81
398.194	67.97
398.408	45.11
398.621	71.46
398.835	60.61
399.049	38.52
399.262	71.65
399.476	90.25
399.69	67.78
399.903	79.02
400.117	50.15
400.331	73.2
400.544	57.32
400.758	148.96
400.971	49.95
401.185	103.23
401.398	56.74
401.612	107.11
401.826	83.67
402.039	70.49
402.253	49.57
402.466	107.11
402.68	69.52
402.893	65.65
403.106	35.04
403.32	56.15
403.533	72.82
403.747	86.38
403.96	72.62
404.174	92
404.387	35.81
404.6	63.13
404.814	95.87
405.027	77.47
405.24	72.82
405.454	51.89
405.667	95.68
405.88	32.32
406.094	79.79
406.307	121.06
406.52	79.99
406.733	47.82
406.947	31.16
407.16	132.3
407.373	116.41
407.586	74.56
407.799	34.07
408.012	94.71
408.226	73.79
408.439	117.18
408.652	56.74
408.865	102.46
409.078	100.52
409.291	105.95
409.504	48.4
409.717	126.87
409.93	89.09
410.143	75.72
410.357	32.13
410.57	35.42
410.783	54.6
410.996	62.16
411.209	92.19
411.421	93.16
411.634	94.9
411.847	67.39
412.06	96.84
412.273	91.8
412.486	75.34
412.699	199.53
412.912	77.47
413.125	104.01
413.338	81.73
413.55	119.32
413.763	87.54
413.976	93.35
414.189	73.4
414.402	97.23
414.615	133.85
414.827	71.46
415.04	106.72
415.253	126.1
415.466	133.46
415.678	142.37
415.891	90.45
416.104	105.56
416.316	102.85
416.529	66.23
416.742	136.95
416.954	139.08
417.167	88.9
417.38	74.37
417.592	148.77
417.805	86.77
418.017	44.92
418.23	142.95
418.442	85.8
418.655	86.77
418.868	114.08
419.08	132.49
419.293	119.51
419.505	97.23
419.718	106.72
419.93	147.6
420.142	99.55
420.355	126.68
420.567	158.84
420.78	118.93
420.992	116.22
421.205	180.73
421.417	86.38
421.629	98.97
421.842	61.77
422.054	68.75
422.266	130.94
422.479	147.8
422.691	112.34
422.903	116.99
423.115	106.33
423.328	102.27
423.54	145.47
423.752	134.62
423.964	123
424.177	130.75
424.389	113.7
424.601	221.81
424.813	125.13
425.025	178.02
425.238	132.1
425.45	79.4
425.662	110.4
425.874	396.57
426.086	128.62
426.298	121.45
426.51	122.42
426.722	111.37
426.934	108.66
427.146	153.42
427.358	69.91
427.57	149.54
427.782	137.14
427.994	116.99
428.206	97.42
428.418	82.5
428.63	150.51
428.842	155.35
429.054	135.98
429.266	160
429.478	108.27
429.69	125.52
429.902	84.64
430.114	164.65
430.325	112.53
430.537	122.22
430.749	99.94
430.961	68.36
431.173	110.98
431.384	141.21
431.596	71.65
431.808	110.79
432.02	145.28
432.231	172.6
432.443	155.35
432.655	138.5
432.867	118.73
433.078	144.12
433.29	222.58
433.502	194.3
433.713	161.17
433.925	144.7
434.136	177.25
434.348	115.05
434.56	98.2
434.771	233.43
434.983	124.55
435.194	144.12
435.406	149.54
435.617	193.71
435.829	217.35
436.04	204.37
436.252	186.55
436.463	207.08
436.675	202.82
436.886	171.82
437.098	169.69
437.309	233.05
437.521	155.35
437.732	199.91
437.943	186.35
438.155	177.83
438.366	140.63
438.578	212.31
438.789	181.7
439	167.37
439.211	176.67
439.423	182.09
439.634	186.93
439.845	196.23
440.057	207.86
440.268	221.81
440.479	184.42
440.69	174.15
440.902	171.82
441.113	177.25
441.324	170.85
441.535	177.05
441.746	228.01
441.957	189.45
442.168	176.08
442.38	200.69
442.591	222.58
442.802	162.33
443.013	190.23
443.224	194.49
443.435	188.68
443.646	199.53
443.857	198.75
444.068	192.55
444.279	194.3
444.49	256.68
444.701	192.36
444.912	305.31
445.123	269.47
445.334	221.23
445.545	226.65
445.756	211.35
445.967	194.68
446.178	231.5
446.388	242.15
446.599	238.28
446.81	236.53
447.021	214.45
447.232	261.33
447.443	286.91
447.653	187.9
447.864	244.28
448.075	236.34
448.286	234.4
448.496	254.16
448.707	265.4
448.918	210.18
449.129	299.31
449.339	211.73
449.55	267.92
449.761	227.81
449.971	306.67
450.182	266.56
450.393	274.31
450.603	245.45
450.814	284.58
451.024	254.36
451.235	291.56
451.446	307.25
451.656	317.52
451.867	249.71
452.077	277.03
452.288	333.41
452.498	321.98
452.709	260.95
452.919	331.28
453.13	265.21
453.34	297.95
453.55	261.33
453.761	291.17
453.971	280.32
454.182	290.98
454.392	284.58
454.602	354.14
454.813	312.48
455.023	347.16
455.233	251.06
455.444	302.79
455.654	236.53
455.864	283.23
456.075	268.7
456.285	269.66
456.495	316.16
456.705	321.98
456.916	368.09
457.126	367.89
457.336	285.36
457.546	234.6
457.756	291.56
457.967	329.92
458.177	293.88
458.387	321.98
458.597	247.38
458.807	281.48
459.017	286.33
459.227	285.36
459.437	293.11
459.647	327.98
459.857	331.28
460.068	279.35
460.278	351.62
460.488	316.16
460.698	356.46
460.908	296.21
461.117	285.55
461.327	299.69
461.537	311.51
461.747	339.22
461.957	308.22
462.167	410.91
462.377	350.65
462.587	333.6
462.797	368.09
463.007	339.99
463.216	373.51
463.426	390.17
463.636	368.09
463.846	304.15
464.056	295.63
464.265	367.12
464.475	333.79
464.685	329.53
464.895	341.35
465.104	325.46
465.314	379.32
465.524	308.03
465.733	323.91
465.943	402.77
466.153	429.89
466.362	374.09
466.572	378.16
466.782	350.84
466.991	365.18
467.201	407.81
467.41	310.16
467.62	358.98
467.829	366.15
468.039	382.04
468.249	364.41
468.458	377
468.668	379.32
468.877	400.44
469.086	399.28
469.296	438.42
469.505	369.06
469.715	420.21
469.924	369.44
470.134	432.8
470.343	420.01
470.552	363.63
470.762	368.28
470.971	330.31
471.18	402.77
471.39	366.15
471.599	365.37
471.808	418.27
472.018	382.04
472.227	432.02
472.436	422.53
472.645	394.24
472.855	385.52
473.064	433.96
473.273	425.05
473.482	427.76
473.691	458.57
473.901	461.67
474.11	411.1
474.319	497.51
474.528	439.77
474.737	481.04
474.946	444.23
475.155	443.65
475.364	495.38
475.573	435.32
475.783	476.59
475.992	489.18
476.201	495.77
476.41	445.59
476.619	438.22
476.828	484.72
477.037	413.04
477.245	476.39
477.454	517.66
477.663	467.48
477.872	472.13
478.081	547.11
478.29	463.22
478.499	587.6
478.708	528.51
478.917	555.83
479.125	508.17
479.334	518.63
479.543	528.32
479.752	506.04
479.961	534.32
480.169	568.42
480.378	501.77
480.587	614.53
480.796	556.02
481.004	567.26
481.213	554.67
481.422	564.74
481.63	559.12
481.839	596.13
482.048	647.86
482.256	579.47
482.465	612.98
482.674	606.4
482.882	605.62
483.091	649.8
483.299	599.42
483.508	653.28
483.716	621.51
483.925	618.99
484.134	596.32
484.342	599.23
484.551	645.34
484.759	633.71
484.967	643.98
485.176	653.28
485.384	659.1
485.593	655.61
485.801	652.7
486.01	618.6
486.218	585.86
486.426	539.75
486.635	549.24
486.843	556.22
487.051	580.24
487.26	563.38
487.468	614.73
487.676	620.35
487.885	609.11
488.093	631.97
488.301	639.72
488.509	646.89
488.717	682.73
488.926	680.21
489.134	644.37
489.342	674.79
489.55	646.5
489.758	666.65
489.967	697.26
490.175	757.52
490.383	700.75
490.591	770.11
490.799	699.4
491.007	760.04
491.215	733.49
491.423	741.83
491.631	748.41
491.839	737.95
492.047	754.81
492.255	686.8
492.463	690.87
492.671	717.03
492.879	750.93
493.087	744.15
493.295	753.64
493.503	801.89
493.711	818.94
493.919	822.81
494.127	800.53
494.334	831.72
494.542	760.62
494.75	794.53
494.958	788.52
495.166	834.63
495.374	832.69
495.581	825.72
495.789	851.49
495.997	876.29
496.205	810.22
496.412	803.82
496.62	818.94
496.828	844.71
497.035	824.36
497.243	893.34
497.451	866.21
497.658	842.96
497.866	867.37
498.074	909.61
498.281	836.96
498.489	933.64
498.696	849.55
498.904	852.46
499.112	846.45
499.319	939.84
499.527	859.24
499.734	929.95
499.942	885.59
500.149	866.02
500.357	928.6
500.564	879
500.771	901.67
500.979	890.43
501.186	849.36
501.394	930.73
501.601	874.93
501.808	933.05
502.016	910.77
502.223	897.02
502.43	926.08
502.638	917.17
502.845	919.3
503.052	1002.03
503.26	939.25
503.467	1005.52
503.674	955.14
503.881	980.72
504.089	992.53
504.296	1011.91
504.503	921.43
504.71	930.15
504.917	949.52
505.125	1007.84
505.332	1008.23
505.539	1014.62
505.746	1101.03
505.953	1059.77
506.16	1057.83
506.367	1095.03
506.574	1130.48
506.781	1124.48
506.988	1045.82
507.195	1099.1
507.402	1073.13
507.609	1124.09
507.816	1072.55
508.023	1096
508.23	1079.53
508.437	1049.3
508.644	1131.65
508.851	1143.66
509.058	1188.8
509.265	1131.45
509.472	1203.53
509.679	1260.1
509.885	1168.46
510.092	1167.1
510.299	1157.99
510.506	1211.28
510.713	1225.03
510.92	1222.32
511.126	1238.21
511.333	1262.81
511.54	1235.69
511.746	1304.27
511.953	1299.04
512.16	1321.32
512.367	1284.32
512.573	1257
512.78	1295.36
512.987	1290.71
513.193	1319
513.4	1230.07
513.606	1342.64
513.813	1354.07
514.02	1271.53
514.226	1387.97
514.433	1418
514.639	1311.25
514.846	1312.61
515.052	1346.32
515.259	1364.53
515.465	1365.5
515.672	1424.59
515.878	1490.08
516.085	1448.62
516.291	1425.75
516.497	1419.17
516.704	1365.5
516.91	1331.98
517.117	1295.56
517.323	1261.26
517.529	1308.34
517.736	1275.6
517.942	1356
518.148	1348.45
518.354	1400.18
518.561	1403.09
518.767	1420.52
518.973	1446.87
519.179	1491.24
519.386	1461.79
519.592	1470.12
519.798	1476.13
520.004	1604
520.21	1535.22
520.417	1634.42
520.623	1634.61
520.829	1656.51
521.035	1644.11
521.241	1648.95
521.447	1675.11
521.653	1757.26
521.859	1680.53
522.065	1707.27
522.271	1776.82
522.477	1725.29
522.683	1826.04
522.889	1759.39
523.095	1792.32
523.301	1768.88
523.507	1731.87
523.713	1808.99
523.919	1772.17
524.125	1857.62
524.331	1839.4
524.537	1940.15
524.742	1898.3
524.948	1938.02
525.154	1925.43
525.36	2004.48
525.566	1885.9
525.772	1983.16
525.977	1918.07
526.183	1915.35
526.389	1976.38
526.595	1891.72
526.8	1877.96
527.006	1823.71
527.212	1805.11
527.417	1789.03
527.623	1794.84
527.829	1895.01
528.034	1909.15
528.24	1923.49
528.446	1947.32
528.651	2062.41
528.857	2057.37
529.062	2100.77
529.268	2071.13
529.473	2105.81
529.679	2051.36
529.884	2171.49
530.09	2140.29
530.295	2125.76
530.501	2121.5
530.706	2139.71
530.912	2107.74
531.117	2144.75
531.323	2153.08
531.528	2209.07
531.733	2234.84
531.939	2168.58
532.144	2197.26
532.35	2207.91
532.555	2253.64
532.76	2196.29
532.966	2215.27
533.171	2152.31
533.376	2152.69
533.581	2133.9
533.787	2129.44
533.992	2205.2
534.197	2194.16
534.402	2225.35
534.607	2217.6
534.813	2305.17
535.018	2246.27
535.223	2267.39
535.428	2276.3
535.633	2319.51
535.838	2308.85
536.043	2304.2
536.249	2414.25
536.454	2333.07
536.659	2375.11
536.864	2318.93
537.069	2326.68
537.274	2313.5
537.479	2321.45
537.684	2310.4
537.889	2262.35
538.094	2437.7
538.299	2331.13
538.504	2378.6
538.708	2361.17
538.913	2405.73
539.118	2359.81
539.323	2391.39
539.528	2358.65
539.733	2344.89
539.938	2355.74
540.142	2371.82
540.347	2332.68
540.552	2304.78
540.757	2261.97
540.962	2316.99
541.166	2228.84
541.371	2265.65
541.576	2303.04
541.781	2240.85
541.985	2378.99
542.19	2323.77
542.395	2445.06
542.599	2412.9
542.804	2404.56
543.008	2445.83
543.213	2374.34
543.418	2349.93
543.622	2425.1
543.827	2353.22
544.031	2434.4
544.236	2436.34
544.44	2472.18
544.645	2519.84
544.849	2424.33
545.054	2471.99
545.258	2493.69
545.463	2492.91
545.667	2415.22
545.872	2472.38
546.076	2471.41
546.281	2470.63
546.485	2468.11
546.689	2506.48
546.894	2524.11
547.098	2460.36
547.302	2442.93
547.507	2442.73
547.711	2491.36
547.915	2523.72
548.119	2392.16
548.324	2447.58
548.528	2538.44
548.732	2479.54
548.936	2493.49
549.141	2518.1
549.345	2506.67
549.549	2520.81
549.753	2530.11
549.957	2600.06
550.161	2601.02
550.366	2521.78
550.57	2495.24
550.774	2549.29
550.978	2520.23
551.182	2530.89
551.386	2514.03
551.59	2541.54
551.794	2513.26
551.998	2558.98
552.202	2513.64
552.406	2491.75
552.61	2545.23
552.814	2535.34
553.018	2583.39
553.222	2515.78
553.426	2504.54
553.63	2614.97
553.833	2541.54
554.037	2463.46
554.241	2534.18
554.445	2537.28
554.649	2551.23
554.853	2498.73
555.056	2557.24
555.26	2626.21
555.464	2538.44
555.668	2515.58
555.871	2526.04
556.075	2569.44
556.279	2484.39
556.483	2472.96
556.686	2500.86
556.89	2506.09
557.094	2535.93
557.297	2428.01
557.501	2516.55
557.704	2376.08
557.908	2491.36
558.112	2482.06
558.315	2498.34
558.519	2433.82
558.722	2435.18
558.926	2396.62
559.129	2357.29
559.333	2358.45
559.536	2346.83
559.74	2336.37
559.943	2303.04
560.147	2354.19
560.35	2317.38
560.553	2357.48
560.757	2316.6
560.96	2413.67
561.164	2379.96
561.367	2434.98
561.57	2404.18
561.774	2388.48
561.977	2361.36
562.18	2332.49
562.384	2420.45
562.587	2364.07
562.79	2354.97
562.993	2355.35
563.197	2372.6
563.4	2406.11
563.603	2384.41
563.806	2433.43
564.009	2322.42
564.212	2371.43
564.416	2252.47
564.619	2292
564.822	2286.19
565.025	2337.14
565.228	2286.19
565.431	2309.63
565.634	2187.37
565.837	2229.03
566.04	2197.64
566.243	2180.79
566.446	2104.84
566.649	2221.47
566.852	2182.92
567.055	2196.67
567.258	2239.69
567.461	2237.75
567.664	2240.07
567.867	2149.79
568.07	2181.56
568.273	2174.59
568.475	2239.3
568.678	2088.76
568.881	2147.85
569.084	2112.39
569.287	2020.75
569.489	2052.33
569.692	2106.39
569.895	2109.29
570.098	2055.04
570.3	2054.27
570.503	1997.5
570.706	2023.46
570.909	2017.85
571.111	1953.13
571.314	1943.45
571.516	1994.4
571.719	1980.84
571.922	1958.56
572.124	1969.21
572.327	1987.81
572.529	1929.3
572.732	1902.57
572.935	1952.55
573.137	2023.66
573.34	1926.2
573.542	2001.96
573.745	1958.95
573.947	1963.98
574.15	1939.96
574.352	1945.77
574.554	1975.8
574.757	1917.87
574.959	1895.78
575.162	1889.58
575.364	1859.17
575.566	1972.9
575.769	1859.75
575.971	1876.8
576.173	1772.56
576.376	1854.13
576.578	1904.89
576.78	1911.87
576.982	1807.05
577.185	1817.7
577.387	1823.9
577.589	1822.16
577.791	1871.57
577.993	1834.95
578.196	1788.25
578.398	1846.19
578.6	1809.18
578.802	1757.64
579.004	1752.02
579.206	1757.64
579.408	1802.98
579.61	1776.82
579.812	1854.71
580.014	1780.12
580.216	1762.29
580.418	1758.22
580.62	1760.36
580.822	1761.71
581.024	1799.3
581.226	1843.09
581.428	1794.65
581.63	1900.63
581.832	1793.29
582.034	1852.19
582.236	1836.69
582.438	1854.71
582.64	1870.98
582.841	1903.53
583.043	1899.27
583.245	1881.64
583.447	1846.77
583.649	1838.24
583.85	1848.7
584.052	1885.13
584.254	1818.29
584.456	1859.94
584.657	1780.7
584.859	1833.59
585.061	1798.72
585.262	1778.37
585.464	1763.45
585.666	1856.65
585.867	1742.14
586.069	1825.65
586.27	1750.86
586.472	1765.97
586.674	1763.45
586.875	1762.1
587.077	1762.87
587.278	1812.47
587.48	1779.34
587.681	1832.62
587.883	1757.84
588.084	1687.31
588.285	1746.79
588.487	1685.57
588.688	1717.92
588.89	1635.58
589.091	1596.25
589.292	1605.16
589.494	1539.87
589.695	1481.75
589.896	1432.92
590.098	1434.28
590.299	1523.79
590.5	1525.73
590.702	1550.33
590.903	1531.93
591.104	1609.81
591.305	1592.57
591.507	1661.16
591.708	1581.53
591.909	1561.38
592.11	1623.57
592.311	1611.56
592.512	1580.75
592.714	1556.73
592.915	1590.05
593.116	1577.46
593.317	1622.79
593.518	1581.14
593.719	1580.95
593.92	1623.96
594.121	1640.81
594.322	1588.89
594.523	1581.53
594.724	1524.18
594.925	1541.23
595.126	1590.05
595.327	1550.33
595.528	1575.91
595.729	1588.31
595.929	1556.34
596.13	1572.42
596.331	1600.51
596.532	1591.41
596.733	1656.7
596.934	1625.12
597.135	1601.29
597.335	1624.54
597.536	1533.09
597.737	1587.34
597.938	1577.46
598.138	1636.36
598.339	1589.86
598.54	1630.93
598.74	1560.6
598.941	1602.06
599.142	1673.56
599.342	1609.62
599.543	1573.2
599.744	1591.21
599.944	1564.48
600.145	1567.19
600.345	1581.14
600.546	1656.51
600.746	1653.99
600.947	1675.69
601.147	1619.89
601.348	1647.4
601.548	1578.04
601.749	1587.53
601.949	1542
602.15	1561.18
602.35	1549.75
602.551	1579.59
602.751	1535.41
602.951	1560.8
603.152	1511
603.352	1571.06
603.552	1570.48
603.753	1621.44
603.953	1582.3
604.153	1571.45
604.354	1570.68
604.554	1578.81
604.754	1620.08
604.954	1543.94
605.155	1626.28
605.355	1580.56
605.555	1650.5
605.755	1620.08
605.955	1591.41
606.155	1584.24
606.356	1575.52
606.556	1589.66
606.756	1568.35
606.956	1518.95
607.156	1630.74
607.356	1548.2
607.556	1567.38
607.756	1557.31
607.956	1577.46
608.156	1547.62
608.356	1508.1
608.556	1583.85
608.756	1523.6
608.956	1514.3
609.156	1529.99
609.356	1504.22
609.556	1482.72
609.755	1519.33
609.955	1489.5
610.155	1485.23
610.355	1509.26
610.555	1453.85
610.755	1474.77
610.954	1487.37
611.154	1481.36
611.354	1518.17
611.554	1467.02
611.753	1485.23
611.953	1428.27
612.153	1490.47
612.352	1529.6
612.552	1407.74
612.752	1408.9
612.951	1445.52
613.151	1443.77
613.351	1412
613.55	1412.77
613.75	1457.72
613.949	1438.15
614.149	1452.1
614.348	1408.51
614.548	1366.47
614.747	1373.25
614.947	1400.37
615.146	1336.44
615.346	1466.83
615.545	1415.1
615.745	1452.68
615.944	1389.72
616.144	1396.11
616.343	1420.91
616.542	1384.29
616.742	1356
616.941	1385.26
617.14	1318.42
617.34	1374.41
617.539	1356.2
617.738	1325.97
617.938	1442.03
618.137	1362.4
618.336	1321.52
618.535	1393.98
618.734	1335.66
618.934	1375.19
619.133	1349.03
619.332	1363.95
619.531	1336.63
619.73	1349.8
619.929	1428.66
620.128	1367.82
620.328	1387.59
620.527	1321.71
620.726	1341.09
620.925	1374.41
621.124	1378.87
621.323	1346.9
621.522	1314.74
621.721	1304.86
621.92	1261.65
622.119	1363.75
622.318	1311.83
622.517	1319
622.715	1298.27
622.914	1275.6
623.113	1277.15
623.312	1212.24
623.511	1313.19
623.71	1312.41
623.909	1279.67
624.107	1313.19
624.306	1236.85
624.505	1251.77
624.704	1220.38
624.902	1246.15
625.101	1305.82
625.3	1263.2
625.499	1223.09
625.697	1241.5
625.896	1214.76
626.095	1246.92
626.293	1169.81
626.492	1232.01
626.69	1262.42
626.889	1194.23
627.088	1291.49
627.286	1223.87
627.485	1203.14
627.683	1191.9
627.882	1227.55
628.08	1109.75
628.279	1165.55
628.477	1233.75
628.676	1160.9
628.874	1203.91
629.073	1142.5
629.271	1134.55
629.469	1164.58
629.668	1145.98
629.866	1144.05
630.065	1156.25
630.263	1177.95
630.461	1141.72
630.66	1164
630.858	1181.24
631.056	1232.59
631.254	1209.73
631.453	1149.08
631.651	1215.73
631.849	1163.23
632.047	1192.29
632.245	1171.17
632.444	1212.05
632.642	1162.45
632.84	1214.38
633.038	1170.98
633.236	1153.54
633.434	1148.31
633.632	1141.14
633.83	1154.89
634.028	1215.15
634.227	1175.43
634.425	1290.13
634.623	1147.53
634.821	1190.74
635.019	1222.51
635.216	1176.98
635.414	1252.93
635.612	1208.56
635.81	1189.19
636.008	1225.03
636.206	1193.45
636.404	1218.06
636.602	1153.54
636.8	1177.56
636.997	1172.14
637.195	1187.06
637.393	1181.44
637.591	1265.52
637.789	1176.21
637.986	1184.93
638.184	1164.97
638.382	1214.57
638.58	1215.73
638.777	1213.99
638.975	1154.89
639.173	1172.33
639.37	1186.28
639.568	1185.7
639.765	1180.08
639.963	1156.64
640.161	1151.02
640.358	1194.61
640.556	1124.09
640.753	1114.21
640.951	1082.05
641.148	1133
641.346	1102.97
641.543	1107.23
641.741	1113.63
641.938	1079.53
642.136	1085.73
642.333	1097.74
642.531	1121.18
642.728	1162.06
642.925	1070.42
643.123	1106.85
643.32	1074.1
643.517	1069.45
643.715	1092.12
643.912	1090.18
644.109	1090.38
644.306	1055.7
644.504	1031.67
644.701	1076.62
644.898	1079.53
645.095	1057.05
645.293	1059.96
645.49	1048.92
645.687	1021.79
645.884	1036.52
646.081	966.38
646.278	1020.05
646.475	1008.81
646.672	965.6
646.87	1028.96
647.067	1002.8
647.264	988.27
647.461	945.07
647.658	916
647.855	1003.77
648.052	938.09
648.249	875.12
648.446	909.8
648.642	924.92
648.839	882.29
649.036	881.32
649.233	878.22
649.43	875.51
649.627	882.29
649.824	902.83
650.021	900.89
650.217	903.02
650.414	890.04
650.611	954.17
650.808	933.25
651.004	916
651.201	916
651.398	981.68
651.595	913.87
651.791	892.56
651.988	925.3
652.185	852.46
652.381	910.58
652.578	864.27
652.775	877.84
652.971	907.87
653.168	838.31
653.364	942.16
653.561	810.41
653.757	887.91
653.954	893.34
654.15	853.81
654.347	927.05
654.543	872.02
654.74	833.86
654.936	837.54
655.133	865.24
655.329	880.74
655.525	843.74
655.722	873.38
655.918	791.43
656.115	819.71
656.311	765.46
656.507	742.6
656.704	683.7
656.9	693.39
657.096	733.3
657.292	728.07
657.489	805.96
657.685	801.31
657.881	753.45
658.077	790.46
658.273	785.81
658.47	867.96
658.666	793.56
658.862	835.02
659.058	796.85
659.254	860.21
659.45	796.46
659.646	838.12
659.842	773.02
660.038	845.48
660.234	791.81
660.43	832.31
660.626	842.96
660.822	847.81
661.018	853.23
661.214	826.88
661.41	774.57
661.606	815.06
661.802	825.52
661.998	790.26
662.194	765.08
662.39	802.47
662.586	816.42
662.781	808.09
662.977	830.37
663.173	828.82
663.369	792.59
663.564	800.92
663.76	832.11
663.956	802.66
664.152	826.88
664.347	730.98
664.543	763.14
664.739	775.34
664.934	680.6
665.13	695.71
665.326	765.66
665.521	797.24
665.717	728.84
665.912	732.53
666.108	675.56
666.304	738.34
666.499	730.39
666.695	651.54
666.89	721.29
667.086	742.41
667.281	700.17
667.477	755.58
667.672	706.37
667.867	698.23
668.063	731.36
668.258	687.38
668.454	688.55
668.649	738.14
668.844	699.78
669.04	745.12
669.235	702.11
669.43	693.97
669.626	653.67
669.821	707.15
670.016	675.18
670.211	693.78
670.407	633.13
670.602	698.43
670.797	680.21
670.992	708.7
671.187	666.46
671.382	716.06
671.578	630.61
671.773	667.81
671.968	638.95
672.163	673.82
672.358	683.31
672.553	659.1
672.748	640.88
672.943	722.06
673.138	642.05
673.333	690.1
673.528	631.58
673.723	681.96
673.918	645.15
674.113	598.65
674.308	711.21
674.503	656.96
674.698	690.87
674.892	688.93
675.087	659.1
675.282	663.36
675.477	639.14
675.672	676.73
675.867	641.08
676.061	620.93
676.256	594.77
676.451	625.58
676.646	650.18
676.84	614.92
677.035	599.03
677.23	633.52
677.424	636.23
677.619	678.47
677.814	675.95
678.008	686.61
678.203	607.17
678.397	626.16
678.592	626.74
678.787	696.1
678.981	635.07
679.176	634.1
679.37	625.97
679.565	635.07
679.759	625.19
679.954	648.05
680.148	681.38
680.342	690.87
680.537	663.55
680.731	649.8
680.926	679.05
681.12	699.01
681.314	625.97
681.509	625.77
681.703	642.43
681.897	659.48
682.092	639.91
682.286	630.81
682.48	705.21
682.674	659.68
682.869	629.84
683.063	651.54
683.257	735.43
683.451	637.01
683.645	687.77
683.839	674.6
684.034	682.73
684.228	684.28
684.422	640.69
684.616	635.65
684.81	704.05
685.004	667.81
685.198	651.93
685.392	689.9
685.586	654.25
685.78	711.21
685.974	755.58
686.168	700.36
686.362	777.86
686.556	670.33
686.75	646.7
686.944	630.03
687.138	607.37
687.331	545.37
687.525	574.04
687.719	516.3
687.913	584.89
688.107	542.85
688.301	577.72
688.494	614.53
688.688	575.98
688.882	538.39
689.076	566.1
689.269	628.48
689.463	690.48
689.657	620.54
689.85	615.31
690.044	653.67
690.238	668.59
690.431	660.65
690.625	671.11
690.818	726.91
691.012	714.31
691.205	734.46
691.399	723.23
691.593	790.65
691.786	813.51
691.98	834.63
692.173	887.33
692.366	863.5
692.56	851.49
692.753	901.47
692.947	858.07
693.14	922.79
693.333	910.58
693.527	884.42
693.72	953.79
693.914	951.07
694.107	920.27
694.3	988.08
694.493	941.19
694.687	1029.54
694.88	963.67
695.073	1016.17
695.266	1010.36
695.46	1037.1
695.653	1073.52
695.846	1087.66
696.039	1018.69
696.232	1071.58
696.425	1136.68
696.618	1131.06
696.812	1188.61
697.005	1225.81
697.198	1323.26
697.391	1265.91
697.584	1300.21
697.777	1349.22
697.97	1337.21
698.163	1326.55
698.356	1364.14
698.549	1414.52
698.742	1357.17
698.935	1345.74
699.127	1372.09
699.32	1332.37
699.513	1358.33
699.706	1423.82
699.899	1432.15
700.092	1392.04
700.285	1435.44
700.477	1394.17
700.67	1453.27
700.863	1463.92
701.056	1557.7
701.248	1503.45
701.441	1522.43
701.634	1493.95
701.826	1628.99
702.019	1507.32
702.212	1580.95
702.404	1563.12
702.597	1544.33
702.79	1571.06
702.982	1587.92
703.175	1632.29
703.367	1671.43
703.56	1687.89
703.752	1732.65
703.945	1710.95
704.137	1750.09
704.33	1758.03
704.522	1802.98
704.715	1808.4
704.907	1830.1
705.1	1878.73
705.292	1842.89
705.484	1832.62
705.677	1875.83
705.869	1905.08
706.061	1904.5
706.254	1961.08
706.446	1905.47
706.638	1922.33
706.831	2003.9
707.023	1941.9
707.215	2047.88
707.407	2069.58
707.599	2035.09
707.792	2097.09
707.984	2046.33
708.176	2108.71
708.368	2068.99
708.56	2105.81
708.752	2086.04
708.944	2084.49
709.136	2154.05
709.329	2105.03
709.521	2247.82
709.713	2210.82
709.905	2215.85
710.097	2223.99
710.289	2215.08
710.481	2227.29
710.672	2264.1
710.864	2265.26
711.056	2279.79
711.248	2289.67
711.44	2325.32
711.632	2302.27
711.824	2339.85
712.016	2363.68
712.207	2388.48
712.399	2370.66
712.591	2407.66
712.783	2433.63
712.975	2404.56
713.166	2381.9
713.358	2410.38
713.55	2449.71
713.741	2461.14
713.933	2471.6
714.125	2462.11
714.316	2458.81
714.508	2511.32
714.7	2494.85
714.891	2481.68
715.083	2532.05
715.274	2454.16
715.466	2487.68
715.657	2530.69
715.849	2438.86
716.04	2502.21
716.232	2423.75
716.423	2408.44
716.615	2375.11
716.806	2325.52
716.998	2268.55
717.189	2163.54
717.381	2070.54
717.572	2069.96
717.763	2065.51
717.955	2030.24
718.146	2006.8
718.337	1958.36
718.528	1926.59
718.72	1832.24
718.911	1881.06
719.102	1814.99
719.293	1882.61
719.485	1853.74
719.676	1829.91
719.867	1822.94
720.058	1780.7
720.249	1840.37
720.44	1848.32
720.632	1923.68
720.823	1963.79
721.014	2077.91
721.205	2126.54
721.396	2165.67
721.587	2293.16
721.778	2325.13
721.969	2396.23
722.16	2460.56
722.351	2453.97
722.542	2561.89
722.733	2595.99
722.924	2461.53
723.115	2511.51
723.305	2463.27
723.496	2504.73
723.687	2385.96
723.878	2369.3
724.069	2401.27
724.26	2402.63
724.45	2296.26
724.641	2290.64
724.832	2295.87
725.023	2304.98
725.213	2329
725.404	2262.74
725.595	2269.52
725.785	2263.52
725.976	2337.92
726.167	2313.7
726.357	2304.78
726.548	2435.18
726.739	2326.29
726.929	2443.7
727.12	2415.03
727.31	2427.23
727.501	2384.03
727.691	2413.86
727.882	2390.03
728.072	2460.36
728.263	2441.96
728.453	2530.69
728.644	2525.46
728.834	2459.2
729.024	2444.48
729.215	2438.66
729.405	2476.83
729.596	2555.69
729.786	2566.54
729.976	2580.29
730.167	2590.76
730.357	2549.68
730.547	2585.14
730.737	2582.23
730.928	2658.37
731.118	2654.89
731.308	2613.23
731.498	2611.1
731.688	2712.82
731.879	2719.02
732.069	2770.55
732.259	2795.74
732.449	2859.1
732.639	2942.21
732.829	2980.58
733.019	3012.16
733.209	3083.45
733.399	3068.54
733.589	3141.97
733.779	3175.48
733.969	3148.75
734.159	3251.05
734.349	3284.18
734.539	3311.3
734.729	3310.91
734.919	3368.46
735.109	3387.64
735.299	3295.61
735.488	3326.61
735.678	3366.13
735.868	3299.68
736.058	3363.03
736.248	3357.8
736.437	3235.93
736.627	3284.18
736.817	3438.98
737.007	3325.45
737.196	3420.77
737.386	3392.68
737.576	3369.62
737.765	3459.13
737.955	3382.6
738.144	3520.74
738.334	3472.11
738.524	3408.18
738.713	3458.94
738.903	3435.69
739.092	3554.26
739.282	3518.42
739.471	3528.69
739.661	3471.14
739.85	3553.1
740.04	3548.06
740.229	3566.47
740.419	3622.46
740.608	3584.87
740.797	3551.94
740.987	3691.43
741.176	3633.89
741.365	3637.57
741.555	3568.21
741.744	3674.97
741.933	3653.27
742.123	3650.55
742.312	3687.75
742.501	3737.93
742.69	3739.29
742.88	3658.88
743.069	3802.06
743.258	3712.94
743.447	3783.27
743.636	3750.91
743.825	3735.22
744.014	3778.23
744.204	3736.58
744.393	3706.35
744.582	3809.81
744.771	3845.08
744.96	3772.42
745.149	3771.45
745.338	3784.82
745.527	3769.51
745.716	3760.99
745.905	3747.43
746.094	3805.36
746.283	3810.01
746.471	3804
746.66	3841.78
746.849	3772.61
747.038	3826.67
747.227	3779.01
747.416	3808.26
747.604	3790.83
747.793	3817.18
747.982	3801.48
748.171	3874.91
748.359	3860.57
748.548	3828.99
748.737	3840.62
748.926	3800.13
749.114	3671.28
749.303	3804.78
749.491	3782.49
749.68	3725.92
749.869	3848.95
750.057	3776.68
750.246	3768.16
750.434	3783.66
750.623	3788.5
750.811	3711.78
751	3788.31
751.188	3736
751.377	3713.71
751.565	3740.45
751.754	3648.81
751.942	3696.47
752.131	3784.04
752.319	3657.92
752.507	3678.07
752.696	3749.36
752.884	3754.6
753.072	3735.03
753.261	3703.25
753.449	3718.17
753.637	3683.3
753.825	3762.93
754.014	3652.88
754.202	3676.52
754.39	3714.88
754.578	3692.98
754.766	3699.96
754.955	3632.92
755.143	3773
755.331	3664.31
755.519	3699.38
755.707	3656.17
755.895	3642.8
756.083	3670.9
756.271	3599.98
756.459	3644.55
756.647	3695.7
756.835	3668.57
757.023	3608.12
757.211	3598.24
757.399	3600.95
757.587	3650.94
757.775	3564.72
757.963	3568.02
758.151	3596.11
758.339	3498.85
758.526	3503.69
758.714	3504.66
758.902	3407.01
759.09	3346.18
759.278	3117.55
759.465	2787.6
759.653	2432.08
759.841	2233.68
760.028	1907.8
760.216	1676.07
760.404	1544.52
760.591	1277.34
760.779	1058.6
760.967	950.49
761.154	785.42
761.342	814.29
761.529	789.49
761.717	846.06
761.905	813.9
762.092	876.48
762.28	817.77
762.467	834.63
762.655	757.91
762.842	783.09
763.029	766.43
763.217	798.01
763.404	766.04
763.592	802.66
763.779	773.41
763.966	834.63
764.154	848
764.341	944.68
764.528	917.75
764.716	1005.52
764.903	1032.06
765.09	1127.19
765.277	1176.98
765.465	1345.15
765.652	1425.37
765.839	1485.43
766.026	1652.63
766.213	1703.2
766.4	1783.99
766.588	1969.41
766.775	1997.89
766.962	2095.34
767.149	2217.99
767.336	2380.54
767.523	2359.03
767.71	2495.63
767.897	2625.82
768.084	2670.58
768.271	2723.28
768.458	2805.43
768.645	2844.76
768.832	2877.7
769.019	2886.61
769.206	2902.11
769.392	2965.27
769.579	3054.2
769.766	3024.17
769.953	3027.46
770.14	3120.27
770.327	3082.87
770.513	3138.09
770.7	3210.55
770.887	3111.35
771.073	3159.4
771.26	3154.75
771.447	3128.79
771.634	3147.78
771.82	3255.89
772.007	3156.89
772.193	3181.3
772.38	3202.42
772.567	3139.64
772.753	3190.4
772.94	3218.69
773.126	3192.73
773.313	3218.88
773.499	3193.31
773.686	3247.37
773.872	3128.21
774.059	3169.48
774.245	3139.64
774.432	3154.37
774.618	3078.03
774.804	3165.41
774.991	3112.13
775.177	3186.72
775.363	3103.02
775.55	3116.2
775.736	3110.39
775.922	3133.25
776.109	3100.89
776.295	3116.78
776.481	3142.55
776.667	3137.32
776.853	3089.27
777.04	3097.99
777.226	3081.71
777.412	3179.55
777.598	3078.8
777.784	3072.8
777.97	3074.35
778.156	3065.63
778.342	3100.7
778.528	3056.72
778.715	3016.22
778.901	3021.07
779.087	3048.39
779.272	3049.36
779.458	2963.91
779.644	3043.16
779.83	2960.81
780.016	3078.61
780.202	3020.29
780.388	2974.18
780.574	2927.49
780.76	2949.58
780.946	3027.46
781.131	2973.21
781.317	2985.42
781.503	2929.04
781.689	2927.29
781.874	3051.87
782.06	2934.66
782.246	2947.64
782.432	2929.04
782.617	2947.83
782.803	2964.49
782.989	2912.18
783.174	2881.96
783.36	2855.22
783.545	2847.47
783.731	2875.76
783.916	2791.28
784.102	2891.84
784.288	2850.76
784.473	2849.02
784.659	2807.37
784.844	2888.55
785.029	2854.45
785.215	2759.32
785.4	2794
785.586	2859.29
785.771	2736.26
785.956	2850.57
786.142	2771.52
786.327	2760.67
786.512	2741.49
786.698	2762.03
786.883	2691.31
787.068	2738.97
787.254	2734.52
787.439	2756.22
787.624	2701.58
787.809	2641.9
787.994	2637.25
788.18	2749.82
788.365	2634.74
788.55	2632.99
788.735	2639.97
788.92	2629.7
789.105	2619.43
789.29	2663.6
789.475	2587.27
789.66	2580.1
789.845	2561.5
790.03	2565.57
790.215	2561.89
790.4	2608.58
790.585	2611.1
790.77	2548.33
790.955	2503.57
791.14	2533.99
791.325	2594.24
791.51	2482.45
791.695	2523.53
791.879	2540.77
792.064	2471.41
792.249	2568.86
792.434	2544.45
792.618	2547.74
792.803	2538.64
792.988	2504.73
793.173	2533.79
793.357	2586.49
793.542	2512.68
793.727	2540.96
793.911	2579.71
794.096	2519.46
794.281	2576.03
794.465	2634.35
794.65	2560.72
794.834	2627.96
795.019	2637.64
795.203	2604.32
795.388	2601.41
795.572	2617.3
795.757	2621.37
795.941	2576.03
796.126	2579.71
796.31	2495.04
796.494	2558.01
796.679	2508.22
796.863	2560.92
797.048	2625.44
797.232	2552.01
797.416	2604.9
797.601	2568.86
797.785	2668.84
797.969	2656.82
798.153	2580.49
798.338	2599.09
798.522	2671.35
798.706	2640.55
798.89	2643.07
799.074	2725.41
799.258	2685.89
799.443	2667.67
799.627	2612.26
799.811	2677.17
799.995	2594.44
800.179	2563.24
800.363	2583.78
800.547	2622.72
800.731	2634.35
800.915	2552.78
801.099	2566.73
801.283	2557.04
801.467	2574.29
801.651	2532.24
801.835	2604.51
802.019	2618.27
802.202	2580.29
802.386	2513.26
802.57	2518.1
802.754	2538.44
802.938	2516.55
803.121	2559.17
803.305	2587.27
803.489	2529.73
803.673	2591.92
803.856	2604.9
804.04	2535.34
804.224	2584.75
804.407	2549.68
804.591	2526.82
804.775	2533.6
804.958	2574.09
805.142	2695.57
805.326	2564.21
805.509	2611.87
805.693	2634.93
805.876	2614.97
806.06	2610.71
806.243	2619.43
806.427	2655.66
806.61	2655.27
806.794	2595.02
806.977	2630.47
807.16	2652.75
807.344	2634.93
807.527	2615.94
807.71	2589.01
807.894	2604.9
808.077	2609.16
808.26	2561.5
808.444	2557.62
808.627	2600.44
808.81	2517.13
808.993	2504.73
809.177	2453
809.36	2543.09
809.543	2539.8
809.726	2438.66
809.909	2451.26
810.092	2431.5
810.276	2418.71
810.459	2431.5
810.642	2378.8
810.825	2385
811.008	2394.3
811.191	2298.39
811.374	2293.93
811.557	2323.19
811.74	2351.48
811.923	2268.55
812.106	2238.33
812.289	2267.2
812.472	2243.56
812.654	2225.93
812.837	2205.39
813.02	2127.12
813.203	2143.78
813.386	1968.83
813.569	1974.45
813.751	1972.31
813.934	1971.93
814.117	1925.23
814.3	1919.81
814.482	1859.17
814.665	1822.74
814.848	1761.52
815.03	1725.09
815.213	1728.39
815.396	1728.58
815.578	1679.56
815.761	1638.68
815.943	1700.49
816.126	1641.78
816.309	1608.26
816.491	1540.45
816.674	1453.07
816.856	1567.96
817.039	1522.24
817.221	1579.01
817.403	1545.1
817.586	1575.13
817.768	1560.99
817.951	1494.92
818.133	1530.96
818.315	1526.5
818.498	1575.13
818.68	1602.06
818.862	1585.01
819.045	1601.87
819.227	1613.3
819.409	1564.67
819.591	1612.14
819.774	1582.3
819.956	1552.08
820.138	1648.18
820.32	1633.84
820.502	1701.84
820.684	1766.55
820.866	1747.96
821.048	1794.45
821.231	1840.95
821.413	1796.39
821.595	1792.71
821.777	1811.31
821.959	1784.57
822.141	1852.58
822.323	1709.59
822.505	1632.48
822.686	1618.34
822.868	1508.87
823.05	1399.99
823.232	1391.07
823.414	1356.39
823.596	1426.53
823.778	1408.9
823.96	1438.15
824.141	1433.31
824.323	1434.47
824.505	1519.91
824.687	1593.54
824.868	1638.1
825.05	1735.56
825.232	1760.74
825.413	1819.25
825.595	1793.1
825.777	1682.66
825.958	1760.55
826.14	1769.07
826.321	1794.26
826.503	1744.66
826.685	1745.44
826.866	1804.92
827.048	1753.38
827.229	1702.81
827.411	1695.84
827.592	1694.67
827.773	1661.16
827.955	1574.75
828.136	1620.66
828.318	1520.5
828.499	1620.47
828.68	1573.39
828.862	1552.08
829.043	1630.35
829.224	1572.23
829.406	1552.08
829.587	1579.98
829.768	1535.8
829.949	1607.1
830.131	1554.98
830.312	1617.37
830.493	1602.26
830.674	1559.25
830.855	1567.96
831.036	1574.55
831.218	1661.93
831.399	1647.79
831.58	1573.39
831.761	1622.21
831.942	1616.01
832.123	1584.82
832.304	1549.95
832.485	1553.43
832.666	1566.22
832.847	1599.35
833.028	1611.75
833.209	1582.11
833.389	1536
833.57	1514.3
833.751	1544.13
833.932	1623.57
834.113	1566.03
834.294	1543.94
834.475	1610.98
834.655	1666.97
834.836	1652.05
835.017	1629.96
835.198	1565.83
835.378	1589.86
835.559	1662.32
835.74	1634.23
835.92	1597.22
836.101	1612.53
836.281	1674.53
836.462	1637.71
836.643	1675.49
836.823	1677.62
837.004	1661.35
837.184	1701.84
837.365	1680.34
837.545	1699.71
837.726	1641.01
837.906	1721.61
838.087	1650.11
838.267	1653.21
838.448	1635.78
838.628	1643.14
838.808	1622.79
838.989	1700.29
839.169	1607.68
839.349	1690.02
839.53	1692.74
839.71	1705.52
839.89	1666.19
840.07	1710.95
840.251	1650.31
840.431	1710.95
840.611	1669.49
840.791	1660.77
840.971	1675.11
841.151	1674.72
841.332	1609.62
841.512	1666.19
841.692	1590.63
841.872	1659.8
842.052	1670.46
842.232	1649.34
842.412	1590.44
842.592	1641.01
842.772	1657.09
842.952	1673.36
843.132	1640.04
843.312	1616.4
843.492	1599.74
843.672	1661.35
843.851	1597.8
844.031	1656.89
844.211	1616.01
844.391	1578.43
844.571	1642.94
844.751	1639.46
844.93	1607.49
845.11	1595.48
845.29	1630.54
845.47	1656.51
845.649	1614.66
845.829	1655.54
846.009	1594.12
846.188	1641.2
846.368	1618.14
846.547	1567.38
846.727	1619.69
846.907	1570.1
847.086	1607.49
847.266	1607.68
847.445	1611.56
847.625	1593.34
847.804	1551.5
847.984	1585.79
848.163	1589.86
848.343	1563.12
848.522	1589.86
848.701	1572.23
848.881	1542.97
849.06	1571.84
849.239	1578.23
849.419	1567.58
849.598	1524.18
849.777	1488.14
849.957	1469.35
850.136	1426.14
850.315	1390.88
850.494	1430.21
850.674	1452.49
850.853	1497.25
851.032	1452.88
851.211	1514.3
851.39	1474
851.569	1429.24
851.748	1435.63
851.927	1508.29
852.107	1460.43
852.286	1400.76
852.465	1422.27
852.644	1478.45
852.823	1470.12
853.002	1437.77
853.181	1466.44
853.359	1455.98
853.538	1389.52
853.717	1459.47
853.896	1337.4
854.075	1278.7
854.254	1269.79
854.433	1211.28
854.611	1274.44
854.79	1226.58
854.969	1260.68
855.148	1293.62
855.327	1281.8
855.505	1313.96
855.684	1299.62
855.863	1328.1
856.041	1314.54
856.22	1308.92
856.399	1338.37
856.577	1426.14
856.756	1377.12
856.934	1478.26
857.113	1511.2
857.291	1373.05
857.47	1359.88
857.648	1409.29
857.827	1417.81
858.005	1418.2
858.184	1352.9
858.362	1459.85
858.541	1408.9
858.719	1385.45
858.898	1397.08
859.076	1346.7
859.254	1432.34
859.433	1338.95
859.611	1380.03
859.789	1308.73
859.967	1398.63
860.146	1408.9
860.324	1314.16
860.502	1346.12
860.68	1313.57
860.859	1336.82
861.037	1353.29
861.215	1366.85
861.393	1358.72
861.571	1351.55
861.749	1321.91
861.927	1357.94
862.105	1335.08
862.283	1339.34
862.461	1308.54
862.639	1262.04
862.817	1319.77
862.995	1322.29
863.173	1323.65
863.351	1314.35
863.529	1295.36
863.707	1367.05
863.885	1332.17
864.063	1264.94
864.241	1287.61
864.418	1349.8
864.596	1255.84
864.774	1252.54
864.952	1306.02
865.129	1317.64
865.307	1230.84
865.485	1226.97
865.663	1244.99
865.84	1220.58
866.018	1210.69
866.196	1107.81
866.373	1117.31
866.551	1071.97
866.728	1047.17
866.906	1100.26
867.084	1133.39
867.261	1154.31
867.439	1135.13
867.616	1177.56
867.794	1187.25
867.971	1161.87
868.149	1167.1
868.326	1197.91
868.503	1188.22
868.681	1186.67
868.858	1174.08
869.035	1160.32
869.213	1198.49
869.39	1177.56
869.567	1277.34
869.745	1164.58
869.922	1196.94
870.099	1200.81
870.276	1216.89
870.454	1199.26
870.631	1184.34
870.808	1152.76
870.985	1204.49
871.162	1232.78
871.339	1183.38
871.517	1094.25
871.694	1103.94
871.871	1158.96
872.048	1156.25
872.225	1170.39
872.402	1156.25
872.579	1098.32
872.756	1156.06
872.933	1098.13
873.11	1159.93
873.287	1126.8
873.463	1124.09
873.64	1106.46
873.817	1133.39
873.994	1125.83
874.171	1100.84
874.348	1122.15
874.524	1083.6
874.701	1093.67
874.878	1042.13
875.055	1120.6
875.231	1101.61
875.408	1110.72
875.585	1050.27
875.762	1081.85
875.938	1060.93
876.115	1062.67
876.291	1088.83
876.468	1065.77
876.645	1024.12
876.821	1065.58
876.998	1062.87
877.174	1080.5
877.351	1064.03
877.527	1022.18
877.704	1053.18
877.88	1055.31
878.057	1046.4
878.233	1092.7
878.409	1021.02
878.586	1055.7
878.762	1043.3
878.938	1027.02
879.115	981.68
879.291	1057.05
879.467	980.91
879.644	1003.58
879.82	1039.03
879.996	978.78
880.172	967.54
880.349	1015.78
880.525	1014.23
880.701	964.05
880.877	945.26
881.053	999.9
881.229	1001.25
881.405	1022.57
881.581	960.76
881.757	1001.83
881.933	1007.65
882.109	1016.37
882.285	992.92
882.461	940.03
882.637	1002.61
882.813	930.15
882.989	995.44
883.165	1042.52
883.341	966.38
883.517	1019.27
883.693	978.97
883.869	1003.38
884.044	977.23
884.22	1005.13
884.396	1016.56
884.572	990.79
884.747	1011.72
884.923	989.63
885.099	1006.29
885.275	974.71
885.45	978.78
885.626	989.43
885.801	957.27
885.977	1005.71
886.153	939.25
886.328	973.16
886.504	961.54
886.679	990.02
886.855	947.78
887.03	1014.82
887.206	996.41
887.381	1003
887.557	1000.09
887.732	1002.22
887.908	985.56
888.083	991.76
888.258	996.99
888.434	960.57
888.609	964.05
888.784	1006.87
888.96	996.6
889.135	933.64
889.31	944.68
889.485	996.41
889.661	980.33
889.836	1011.91
890.011	992.92
890.186	961.73
890.361	970.64
890.537	974.52
890.712	963.47
890.887	975.49
891.062	968.51
891.237	1029.73
891.412	948.17
891.587	975.68
891.762	985.75
891.937	1006.1
892.112	949.91
892.287	951.85
892.462	911.55
892.637	885.59
892.812	881.91
892.987	911.94
893.161	901.47
893.336	878.61
893.511	886.75
893.686	908.06
893.861	863.31
894.035	873.38
894.21	880.16
894.385	826.69
894.56	860.79
894.734	821.26
894.909	787.55
895.084	786.19
895.258	765.46
895.433	789.88
895.608	761.98
895.782	679.83
895.957	738.34
896.131	744.93
896.306	685.06
896.48	705.98
896.655	663.94
896.829	628.1
897.004	619.18
897.178	643.01
897.353	604.07
897.527	667.62
897.701	644.56
897.876	610.85
898.05	683.9
898.224	663.16
898.399	694.16
898.573	632.36
898.747	539.75
898.921	577.53
899.096	486.27
899.27	547.88
899.444	489.95
899.618	567.26
899.792	559.51
899.967	596.32
900.141	577.92
900.315	522.89
900.489	543.23
900.663	548.27
900.837	560.67
901.011	488.21
901.185	626.93
901.359	520.37
901.533	552.53
901.707	564.74
901.881	544.01
902.055	507.59
902.229	554.47
902.403	596.32
902.576	538
902.75	564.16
902.924	665.3
903.098	633.52
903.272	658.71
903.446	690.87
903.619	650.18
903.793	719.74
903.967	662
904.14	729.81
904.314	730.01
904.488	714.31
904.661	711.21
904.835	695.52
905.009	762.56
905.182	773.79
905.356	721.48
905.529	707.73
905.703	661.42
905.876	698.23
906.05	639.53
906.223	633.91
906.397	575.2
906.57	605.62
906.744	578.11
906.917	545.75
907.09	538.97
907.264	567.65
907.437	534.71
907.61	502.35
907.784	513.2
907.957	535.29
908.13	495.38
908.304	515.34
908.477	482.79
908.65	474.65
908.823	439.58
908.996	529.09
909.17	481.24
909.343	468.25
909.516	465.74
909.689	478.91
909.862	443.26
910.035	503.32
910.208	427.57
910.381	463.22
910.554	530.84
910.727	472.32
910.9	447.52
911.073	456.82
911.246	518.63
911.419	547.69
911.592	496.15
911.765	473.68
911.938	476.59
912.11	493.05
912.283	471.35
912.456	532.97
912.629	470.97
912.802	452.75
912.974	432.41
913.147	422.34
913.32	356.27
913.493	370.8
913.665	384.17
913.838	416.91
914.01	386.11
914.183	443.46
914.356	432.8
914.528	445.78
914.701	490.34
914.873	453.34
915.046	386.49
915.218	400.83
915.391	354.72
915.563	345.61
915.736	384.17
915.908	432.02
916.081	394.82
916.253	421.37
916.425	416.14
916.598	417.69
916.77	386.11
916.942	415.17
917.115	332.83
917.287	390.95
917.459	331.08
917.632	350.07
917.804	309.77
917.976	382.04
918.148	371.57
918.32	394.05
918.493	438.61
918.665	449.07
918.837	397.92
919.009	468.45
919.181	488.02
919.353	421.37
919.525	421.95
919.697	426.79
919.869	426.99
920.041	471.94
920.213	525.41
920.385	477.75
920.557	460.7
920.729	469.8
920.901	444.04
921.073	431.06
921.244	435.9
921.416	456.63
921.588	451.59
921.76	434.54
921.932	493.83
922.103	455.47
922.275	455.27
922.447	477.75
922.619	418.85
922.79	416.14
922.962	402.38
923.134	445.39
923.305	368.86
923.477	366.15
923.648	356.27
923.82	395.21
923.991	337.67
924.163	355.69
924.335	374.67
924.506	364.41
924.677	414.59
924.849	360.14
925.02	406.26
925.192	412.07
925.363	379.71
925.535	398.89
925.706	377.39
925.877	425.82
926.049	364.02
926.22	368.67
926.391	368.67
926.562	384.36
926.734	332.24
926.905	403.16
927.076	320.43
927.247	370.61
927.419	292.53
927.59	275.86
927.761	284.58
927.932	277.61
928.103	309.96
928.274	267.73
928.445	250.29
928.616	267.15
928.787	277.8
928.958	295.04
929.129	260.17
929.3	237.89
929.471	209.8
929.642	172.4
929.813	121.64
929.984	194.3
930.155	119.12
930.326	200.5
930.496	168.53
930.667	118.93
930.838	148.38
931.009	118.15
931.18	124.93
931.35	137.14
931.521	135.98
931.692	83.86
931.863	35.23
932.033	110.6
932.204	95.1
932.374	123.38
932.545	75.53
932.716	108.27
932.886	143.73
933.057	42.98
933.227	64.29
933.398	123.77
933.568	25.93
933.739	24.77
933.909	36.59
934.08	64.49
934.25	4.42
934.421	15.27
934.591	40.07
934.761	25.15
934.932	6.36
935.102	24.77
935.272	17.02
935.443	43.37
935.613	33.29
935.783	36.97
935.953	13.14
936.123	156.32
936.294	-17.66
936.464	12.37
936.634	50.15
936.804	-1.97
936.974	1.71
937.144	31.55
937.314	31.35
937.484	-2.74
937.655	-2.36
937.825	51.7
937.995	30.39
938.165	60.42
938.334	37.55
938.504	31.94
938.674	33.68
938.844	53.25
939.014	95.68
939.184	92
939.354	142.57
939.524	131.52
939.694	70.49
939.863	64.49
940.033	110.02
940.203	137.92
940.373	118.54
940.542	98.97
940.712	73.01
940.882	108.08
941.051	132.49
941.221	84.25
941.391	108.66
941.56	68.75
941.73	71.46
941.899	185.97
942.069	74.17
942.238	86.38
942.408	97.23
942.577	104.78
942.747	58.67
942.916	5.59
943.086	36.97
943.255	85.8
943.425	64.49
943.594	33.49
943.763	12.95
943.933	23.99
944.102	-3.33
944.271	44.72
944.441	88.51
944.61	37.55
944.779	36.97
944.948	104.2
945.117	27.67
945.287	36.2
945.456	41.43
945.625	45.89
945.794	62.74
945.963	21.47
946.132	48.4
946.301	54.99
946.47	73.01
946.639	28.84
946.808	45.3
946.977	55.38
947.146	86.38
947.315	59.64
947.484	76.3
947.653	36.97
947.822	43.75
947.991	27.87
948.16	125.71
948.329	93.94
948.498	41.43
948.666	52.86
948.835	85.41
949.004	31.74
949.173	14.69
949.341	33.29
949.51	49.37
949.679	88.9
949.847	64.1
950.016	141.02
950.185	115.05
950.353	40.46
950.522	31.35
950.69	99.75
950.859	42.4
951.028	106.92
951.196	52.67
951.365	32.71
951.533	43.75
951.701	82.5
951.87	73.59
952.038	13.34
952.207	41.04
952.375	91.8
952.543	55.38
952.712	47.63
952.88	27.29
953.048	128.81
953.217	85.41
953.385	42.79
953.553	100.52
953.721	43.17
953.89	61
954.058	34.84
954.226	48.79
954.394	83.09
954.562	34.84
954.73	35.62
954.898	31.94
955.067	98.78
955.235	39.1
955.403	82.12
955.571	100.14
955.739	75.72
955.907	16.63
956.075	51.5
956.243	16.82
956.41	64.29
956.578	6.75
956.746	33.49
956.914	68.75
957.082	72.82
957.25	78.63
957.418	36.78
957.585	87.54
957.753	69.91
957.921	24.96
958.089	53.05
958.256	79.79
958.424	112.73
958.592	51.89
958.759	39.1
958.927	76.3
959.095	42.79
959.262	62.94
959.43	48.6
959.597	29.42
959.765	76.89
959.932	30.58
960.1	85.22
960.267	63.32
960.435	58.09
960.602	79.6
960.77	52.09
960.937	48.99
961.104	63.71
961.272	23.99
961.439	18.37
961.606	94.71
961.774	75.53
961.941	54.8
962.108	86.57
962.275	86.38
962.443	76.69
962.61	75.14
962.777	109.43
962.944	85.8
963.111	77.66
963.278	99.75
963.446	73.98
963.613	79.21
963.78	87.15
963.947	83.67
964.114	78.63
964.281	144.31
964.448	86.38
964.615	54.02
964.782	96.45
964.949	76.11
965.116	84.05
965.282	101.49
965.449	85.22
965.616	55.38
965.783	100.33
965.95	55.77
966.117	36.59
966.283	67.59
966.45	79.21
966.617	107.11
966.784	118.73
966.95	133.27
967.117	114.08
967.284	65.07
967.45	55.96
967.617	127.07
967.784	112.92
967.95	146.63
968.117	79.02
968.283	133.46
968.45	185.38
968.616	106.33
968.783	155.16
968.949	116.22
969.116	116.02
969.282	93.74
969.449	98
969.615	92.19
969.781	60.61
969.948	86.57
970.114	65.65
970.28	158.84
970.447	125.52
970.613	138.11
970.779	79.4
970.945	116.41
971.112	115.25
971.278	101.69
971.444	128.03
971.61	134.43
971.776	63.13
971.942	126.68
972.108	127.84
972.275	106.33
972.441	88.7
972.607	155.55
972.773	72.04
972.939	127.65
973.105	115.83
973.271	83.47
973.437	67.59
973.602	68.36
973.768	82.31
973.934	95.1
974.1	123.77
974.266	38.72
974.432	89.48
974.598	72.62
974.763	134.04
974.929	91.61
975.095	144.89
975.261	62.16
975.426	31.55
975.592	74.56
975.758	144.5
975.923	48.21
976.089	63.9
976.255	105.17
976.42	106.33
976.586	118.73
976.751	102.85
976.917	160.97
977.082	115.44
977.248	52.47
977.413	46.08
977.579	83.28
977.744	98
977.91	68.75
978.075	71.46
978.24	102.65
978.406	78.63
978.571	61.39
978.736	68.75
978.902	88.51
979.067	61.19
979.232	46.27
979.397	55.57
979.563	120.48
979.728	63.71
979.893	72.62
980.058	57.7
980.223	105.17
980.388	82.12
980.554	65.07
980.719	74.95
980.884	94.52
981.049	88.51
981.214	57.7
981.379	109.05
981.544	46.27
981.709	69.14
981.874	97.62
982.039	64.87
982.204	96.07
982.368	82.7
982.533	42.4
982.698	89.29
982.863	119.7
983.028	64.68
983.193	115.44
983.357	67.39
983.522	66.62
983.687	82.89
983.852	69.33
984.016	90.45
984.181	104.2
984.346	103.43
984.51	106.14
984.675	75.34
984.839	100.52
985.004	79.21
985.168	123.58
985.333	90.06
985.498	56.35
985.662	92.19
985.827	109.05
985.991	98.2
986.155	73.59
986.32	114.47
986.484	124.55
986.649	90.06
986.813	20.31
986.977	88.32
987.142	102.27
987.306	44.53
987.47	75.92
987.634	50.54
987.799	82.89
987.963	88.32
988.127	103.62
988.291	160.2
988.455	89.29
988.62	85.41
988.784	104.01
988.948	89.48
989.112	89.87
989.276	78.24
989.44	97.23
989.604	82.89
989.768	55.38
989.932	135.98
990.096	63.13
990.26	35.81
990.424	34.45
990.588	76.11
990.752	123.38
990.915	102.46
991.079	82.5
991.243	64.49
991.407	64.29
991.571	61.97
991.734	89.48
991.898	104.78
992.062	153.61
992.226	53.05
992.389	52.67
992.553	26.9
992.717	39.69
992.88	73.01
993.044	50.73
993.207	56.54
993.371	115.83
993.535	91.8
993.698	66.62
993.862	83.47
994.025	98
994.189	87.35
994.352	80.18
994.515	78.05
994.679	118.35
994.842	64.68
995.006	95.49
995.169	53.05
995.332	47.05
995.496	99.75
995.659	33.1
995.822	61.97
995.985	79.99
996.149	128.23
996.312	64.49
996.475	122.22
996.638	38.14
996.801	135.78
996.964	102.46
997.128	59.25
997.291	63.9
997.454	73.4
997.617	8.11
997.78	108.27
997.943	55.19
998.106	99.75
998.269	23.99
998.432	62.35
998.595	50.73
998.758	14.11
998.92	37.36
999.083	-8.56
999.246	70.3
999.409	31.16
999.572	10.82
999.735	37.36
999.897	70.3
1000.06	39.1
1000.223	26.51
1000.386	84.83
1000.548	72.82
1000.711	67.2
1000.874	49.37
1001.036	12.37
1001.199	80.57
1001.361	35.81
1001.524	54.6
1001.687	88.12
1001.849	46.66
1002.012	51.7
1002.174	76.89
1002.337	79.6
1002.499	47.44
1002.661	80.57
1002.824	41.43
1002.986	28.64
1003.149	71.27
1003.311	29.8
1003.473	82.12
1003.636	45.3
1003.798	85.22
1003.96	69.14
1004.123	54.6
1004.285	34.45
1004.447	55.19
1004.609	19.34
1004.771	112.53
1004.933	6.94
1005.096	18.95
1005.258	-22.31
1005.42	38.72
1005.582	78.44
1005.744	56.15
1005.906	0.36
1006.068	53.44
1006.23	11.79
1006.392	-8.36
1006.554	28.06
1006.716	77.85
1006.878	87.15
1007.04	17.79
1007.202	29.42
1007.363	36.39
1007.525	51.31
1007.687	65.45
1007.849	67.78
1008.011	6.94
1008.172	25.15
1008.334	9.85
1008.496	52.86
1008.658	-22.51
1008.819	24.38
1008.981	-13.21
1009.143	43.95
1009.304	31.16
1009.466	52.67
1009.627	74.56
1009.789	112.92
1009.95	51.31
1010.112	19.92
1010.273	63.32
1010.435	21.47
1010.596	35.81
1010.758	32.13
1010.919	16.24
1011.081	16.82
1011.242	30.19
1011.403	51.5
1011.565	36.2
1011.726	48.79
1011.887	-3.71
1012.049	23.41
1012.21	73.98
1012.371	95.49
1012.532	-41.3
1012.693	50.54
1012.855	19.92
1013.016	40.27
1013.177	64.29
1013.338	37.17
1013.499	73.01
1013.66	56.15
1013.821	53.05
1013.982	55.77
1014.143	36
1014.304	19.92
1014.465	37.36
1014.626	43.75
1014.787	6.17
1014.948	89.87
1015.109	-17.08
1015.27	70.49
1015.431	25.35
1015.592	-0.81
1015.752	74.75
1015.913	27.87
1016.074	62.35
1016.235	40.46
1016.395	30.58
1016.556	37.75
1016.717	54.02
1016.877	95.87
1017.038	5.59
1017.199	43.37
1017.359	38.72
1017.52	38.14
1017.681	-1.58
1017.841	18.37
1018.002	5.59
1018.162	20.5
1018.323	69.91
1018.483	-6.04
1018.644	-3.52
1018.804	14.69
1018.964	5.97
1019.125	13.92
1019.285	13.92
1019.446	-0.23
1019.606	-15.92
1019.766	-11.85
1019.926	15.47
1020.087	63.32
1020.247	-28.71
1020.407	39.69
1020.567	61.97
1020.728	-11.08
1020.888	-8.36
1021.048	2.29
1021.208	27.87
1021.368	-16.89
1021.528	45.3
1021.688	61.58
1021.848	45.69
1022.008	53.05
1022.168	13.14
1022.328	27.67
1022.488	63.52
1022.648	-16.69
1022.808	30.97
1022.968	36.39
1023.128	-3.52
1023.288	6.36
1023.448	26.12
1023.608	4.04
1023.767	55.96
1023.927	-17.66
1024.087	2.49
1024.247	-21.93
1024.406	20.5
1024.566	-8.56
1024.726	-9.14
1024.885	18.57
1025.045	52.67
1025.205	11.59
1025.364	4.42
1025.524	25.54
1025.683	4.62
1025.843	23.41
1026.003	46.08
1026.162	64.68
1026.321	27.29
1026.481	39.49
1026.64	-25.99
1026.8	26.51
1026.959	10.62
1027.119	16.44
1027.278	-7.01
1027.437	-18.63
1027.597	26.7
1027.756	27.09
1027.915	22.25
1028.074	14.11
1028.234	-5.07
1028.393	29.03
1028.552	2.29
1028.711	-74.62
1028.87	40.46
1029.03	-37.62
1029.189	20.5
1029.348	-46.14
1029.507	20.89
1029.666	-10.11
1029.825	-17.08
1029.984	-14.37
1030.143	3.46
1030.302	-9.72
1030.461	-50.21
1030.62	6.75
1030.779	38.52
1030.938	10.62
1031.097	-12.24
1031.255	17.4
1031.414	59.06
1031.573	32.32
1031.732	-63.19
1031.891	0.94
1032.049	33.87
1032.208	23.02
1032.367	-10.69
1032.525	8.49
1032.684	-6.43
1032.843	24.19
1033.001	-32.58
1033.16	150.32
1033.319	16.24
1033.477	20.12
1033.636	-4.68
1033.794	-42.27
1033.953	43.95
1034.111	38.14
1034.27	-19.99
1034.428	19.34
1034.587	-21.34
1034.745	35.81
1034.903	2.68
1035.062	15.08
1035.22	-24.44
1035.378	20.5
1035.537	-10.88
1035.695	31.55
1035.853	23.99
1036.011	29.22
1036.17	13.14
1036.328	-43.04
1036.486	24.38
1036.644	12.95
1036.802	-42.08
1036.96	-19.02
1037.119	7.33
1037.277	-13.21
1037.435	-19.6
1037.593	-8.36
1037.751	-10.3
1037.909	21.86
1038.067	21.86
