Data from gum_young_FLMT105791__61__17-39-19-043.txt Node

Date: Mon Mar 20 17:39:19 GMT 2023
User: antho
Spectrometer: FLMT10579
Trigger mode: 0
Integration Time (sec): 1.000000E-1
Scans to average: 10
Electric dark correction enabled: true
Nonlinearity correction enabled: false
Boxcar width: 0
XAxis mode: Wavelengths
Number of Pixels in Spectrum: 3648
>>>>>Begin Spectral Data<<<<<
345.248	-157.69
345.464	-157.69
345.681	-157.69
345.898	-147.04
346.114	-135.61
346.331	-33.7
346.548	23.46
346.764	-12.96
346.981	-6.18
347.197	-31.56
347.414	8.54
347.631	-10.06
347.847	65.7
348.064	-7.35
348.28	30.63
348.497	-17.23
348.713	-9.28
348.93	32.95
349.146	12.8
349.363	-9.48
349.579	10.09
349.796	2.73
350.012	-4.05
350.229	32.37
350.445	12.42
350.661	11.45
350.878	-1.15
351.094	26.56
351.311	10.28
351.527	28.3
351.743	-5.6
351.96	19.97
352.176	35.28
352.392	50.97
352.609	44.77
352.825	28.5
353.041	12.61
353.257	-12.58
353.474	21.52
353.69	12.22
353.906	48.45
354.122	-22.85
354.339	33.15
354.555	11.45
354.771	5.25
354.987	67.05
355.203	73.83
355.42	-0.95
355.636	-2.7
355.852	1.57
356.068	17.26
356.284	-40.09
356.5	49.81
356.716	34.7
356.932	20.75
357.148	51.36
357.364	17.26
357.58	32.18
357.796	49.42
358.012	71.12
358.228	31.98
358.444	-44.35
358.66	65.12
358.876	17.45
359.092	-13.74
359.308	12.42
359.524	24.43
359.74	-7.35
359.956	-19.94
360.172	8.35
360.388	62.21
360.604	-9.28
360.819	90.5
361.035	16.29
361.251	19.78
361.467	-0.95
361.683	35.86
361.898	28.88
362.114	38.57
362.33	26.37
362.546	54.46
362.762	-2.5
362.977	19
363.193	-35.05
363.409	41.09
363.624	-9.28
363.84	9.51
364.056	-14.13
364.271	26.95
364.487	36.44
364.703	-14.32
364.918	-22.07
365.134	6.22
365.35	-3.47
365.565	102.12
365.781	33.73
365.996	34.31
366.212	83.13
366.427	22.49
366.643	-20.13
366.858	19.97
367.074	-13.93
367.289	60.66
367.505	102.51
367.72	-16.45
367.936	-7.15
368.151	62.4
368.367	29.27
368.582	46.32
368.798	-8.51
369.013	70.93
369.228	33.34
369.444	10.09
369.659	81.39
369.874	56.78
370.09	53.68
370.305	-25.17
370.52	29.27
370.736	46.13
370.951	15.32
371.166	48.65
371.381	72.87
371.597	57.95
371.812	0.98
372.027	-4.25
372.242	21.13
372.458	85.65
372.673	18.42
372.888	-17.03
373.103	53.3
373.318	97.08
373.533	57.17
373.749	55.43
373.964	-10.06
374.179	58.33
374.394	24.62
374.609	59.69
374.824	-2.7
375.039	51.36
375.254	-25.36
375.469	94.18
375.684	55.82
375.899	53.3
376.114	28.5
376.329	18.42
376.544	54.07
376.759	38.96
376.974	-4.05
377.189	11.64
377.404	3.12
377.619	34.12
377.834	-19.75
378.049	-5.6
378.264	-6.18
378.478	15.52
378.693	26.75
378.908	40.12
379.123	30.24
379.338	65.7
379.553	45.74
379.767	22.68
379.982	65.89
380.197	42.45
380.412	41.09
380.626	62.6
380.841	96.5
381.056	55.82
381.271	86.62
381.485	8.73
381.7	-1.34
381.915	30.63
382.129	22.49
382.344	34.5
382.559	20.75
382.773	71.7
382.988	-28.85
383.202	27.33
383.417	-11.22
383.632	94.95
383.846	24.62
384.061	28.3
384.275	9.7
384.49	34.12
384.704	65.12
384.919	47.29
385.133	17.45
385.348	39.15
385.562	18.62
385.777	68.02
385.991	15.32
386.206	21.33
386.42	41.48
386.634	86.81
386.849	50.39
387.063	35.28
387.277	11.64
387.492	43.22
387.706	-3.08
387.92	-0.95
388.135	75.38
388.349	38.77
388.563	28.88
388.778	42.45
388.992	70.73
389.206	45.74
389.42	100.57
389.635	28.88
389.849	80.81
390.063	70.73
390.277	48.26
390.491	100.38
390.706	73.64
390.92	46.71
391.134	48.07
391.348	46.9
391.562	1.37
391.776	42.83
391.99	2.53
392.205	74.03
392.419	10.28
392.633	47.29
392.847	83.91
393.061	-8.31
393.275	65.31
393.489	42.06
393.703	31.4
393.917	63.57
394.131	12.61
394.345	54.85
394.559	72.48
394.773	12.61
394.986	42.83
395.2	52.72
395.414	85.26
395.628	33.15
395.842	43.22
396.056	34.31
396.27	-7.54
396.484	61.24
396.697	39.15
396.911	79.84
397.125	33.92
397.339	91.85
397.553	59.3
397.766	106
397.98	67.05
398.194	102.9
398.408	20.17
398.621	76.35
398.835	65.7
399.049	70.54
399.262	120.72
399.476	87.4
399.69	93.98
399.903	147.85
400.117	51.17
400.331	83.52
400.544	62.02
400.758	160.83
400.971	93.98
401.185	124.79
401.398	60.85
401.612	97.28
401.826	81.78
402.039	73.06
402.253	71.9
402.466	104.83
402.68	69.96
402.893	85.65
403.106	56.2
403.32	88.56
403.533	87.78
403.747	85.85
403.96	91.08
404.174	88.56
404.387	57.75
404.6	86.23
404.814	86.43
405.027	81.2
405.24	67.83
405.454	75
405.667	108.32
405.88	41.67
406.094	74.61
406.307	86.43
406.52	96.31
406.733	40.7
406.947	63.95
407.16	148.81
407.373	117.62
407.586	70.93
407.799	69.38
408.012	127.31
408.226	93.01
408.439	129.83
408.652	56.98
408.865	109.87
409.078	125.56
409.291	103.86
409.504	65.5
409.717	96.89
409.93	87.59
410.143	83.33
410.357	69.57
410.57	65.12
410.783	69.57
410.996	86.04
411.209	98.25
411.421	145.71
411.634	92.82
411.847	77.9
412.06	82.16
412.273	124.98
412.486	93.6
412.699	187.76
412.912	117.23
413.125	144.75
413.338	110.06
413.55	124.79
413.763	107.93
413.976	118.78
414.189	104.25
414.402	103.67
414.615	141.26
414.827	101.73
415.04	105.8
415.253	131.57
415.466	139.9
415.678	165.09
415.891	108.51
416.104	110.45
416.316	118.59
416.529	92.24
416.742	126.92
416.954	161.8
417.167	106.19
417.38	100.76
417.592	135.06
417.805	81.2
418.017	56.98
418.23	134.48
418.442	102.12
418.655	113.94
418.868	102.9
419.08	151.72
419.293	150.95
419.505	136.8
419.718	136.8
419.93	140.1
420.142	124.4
420.355	177.29
420.567	166.64
420.78	128.08
420.992	119.95
421.205	194.34
421.417	90.69
421.629	120.91
421.842	85.07
422.054	104.64
422.266	143.58
422.479	162.38
422.691	107.93
422.903	155.79
423.115	120.72
423.328	111.03
423.54	136.03
423.752	133.12
423.964	120.91
424.177	143
424.389	104.25
424.601	224.57
424.813	134.28
425.025	151.14
425.238	164.7
425.45	125.56
425.662	118.4
425.874	399.91
426.086	145.33
426.298	150.75
426.51	167.99
426.722	140.48
426.934	125.56
427.146	161.99
427.358	104.25
427.57	127.11
427.782	136.41
427.994	159.08
428.206	116.07
428.418	105.22
428.63	150.75
428.842	162.18
429.054	133.31
429.266	183.69
429.478	122.08
429.69	140.87
429.902	95.73
430.114	178.65
430.325	151.14
430.537	105.22
430.749	104.83
430.961	69.77
431.173	134.48
431.384	140.68
431.596	66.47
431.808	112.78
432.02	158.5
432.231	171.87
432.443	174.97
432.655	174.39
432.867	127.5
433.078	172.06
433.29	215.46
433.502	193.18
433.713	201.51
433.925	155.21
434.136	202.68
434.348	129.44
434.56	92.82
434.771	231.54
434.983	117.81
435.194	149.98
435.406	163.15
435.617	193.96
435.829	232.13
436.04	201.13
436.252	186.01
436.463	234.64
436.675	197.44
436.886	197.06
437.098	170.51
437.309	253.24
437.521	185.24
437.732	192.6
437.943	195.12
438.155	198.8
438.366	151.33
438.578	241.43
438.789	184.46
439	197.83
439.211	204.42
439.423	184.85
439.634	195.12
439.845	219.34
440.057	180.59
440.268	184.08
440.479	184.27
440.69	198.22
440.902	186.4
441.113	190.28
441.324	191.83
441.535	235.61
441.746	260.8
441.957	185.43
442.168	182.91
442.38	208.29
442.591	243.94
442.802	169.93
443.013	174.78
443.224	210.43
443.435	219.53
443.646	214.88
443.857	214.69
444.068	183.11
444.279	200.93
444.49	307.3
444.701	217.98
444.912	316.99
445.123	256.15
445.334	229.41
445.545	238.91
445.756	207.71
445.967	187.56
446.178	227.28
446.388	252.47
446.599	249.95
446.81	259.83
447.021	198.8
447.232	273.39
447.443	288.7
447.653	211.2
447.864	259.25
448.075	245.11
448.286	279.4
448.496	253.24
448.707	281.53
448.918	235.03
449.129	300.13
449.339	235.81
449.55	263.9
449.761	271.07
449.971	286.37
450.182	255.76
450.393	283.47
450.603	251.31
450.814	286.18
451.024	261.96
451.235	271.46
451.446	327.26
451.656	301.1
451.867	251.89
452.077	284.82
452.288	310.98
452.498	311.56
452.709	251.11
452.919	285.02
453.13	234.84
453.34	278.43
453.55	227.48
453.761	307.88
453.971	283.08
454.182	307.69
454.392	308.27
454.602	375.11
454.813	277.66
455.023	303.62
455.233	264.67
455.444	285.21
455.654	242.59
455.864	290.44
456.075	266.03
456.285	279.98
456.495	265.45
456.705	315.82
456.916	362.32
457.126	348.18
457.336	329.19
457.546	252.47
457.756	298.58
457.967	335.2
458.177	293.74
458.387	299.94
458.597	288.12
458.807	286.96
459.017	295.09
459.227	281.34
459.437	250.73
459.647	329.58
459.857	312.53
460.068	281.34
460.278	327.45
460.488	320.09
460.698	341.01
460.908	319.7
461.117	266.22
461.327	245.69
461.537	298
461.747	338.69
461.957	312.72
462.167	409.6
462.377	360.19
462.587	319.31
462.797	352.25
463.007	317.37
463.216	350.31
463.426	372.4
463.636	368.52
463.846	284.44
464.056	327.84
464.265	362.52
464.475	298
464.685	343.92
464.895	365.42
465.104	318.15
465.314	328.42
465.524	306.72
465.733	308.27
465.943	405.53
466.153	397
466.362	364.45
466.572	328.42
466.782	331.13
466.991	356.12
467.201	395.45
467.41	286.18
467.62	384.02
467.829	333.84
468.039	362.9
468.249	326.87
468.458	370.65
468.668	384.6
468.877	379.76
469.086	380.73
469.296	406.89
469.505	342.56
469.715	428
469.924	380.73
470.134	404.17
470.343	391.39
470.552	374.14
470.762	357.09
470.971	368.72
471.18	379.95
471.39	372.98
471.599	322.8
471.808	396.62
472.018	388.48
472.227	415.22
472.436	451.25
472.645	386.54
472.855	373.56
473.064	424.52
473.273	395.45
473.482	423.16
473.691	460.94
473.901	446.8
474.11	396.23
474.319	503.57
474.528	444.08
474.737	470.63
474.946	467.72
475.155	439.24
475.364	487.87
475.573	447.96
475.783	454.35
475.992	484.19
476.201	479.73
476.41	446.22
476.619	414.83
476.828	453.77
477.037	390.8
477.245	432.65
477.454	505.31
477.663	454.74
477.872	460.55
478.081	495.43
478.29	451.64
478.499	528.56
478.708	473.15
478.917	563.24
479.125	470.24
479.334	506.28
479.543	477.02
479.752	511.12
479.961	490.97
480.169	535.34
480.378	500.47
480.587	600.25
480.796	562.46
481.004	533.79
481.213	541.93
481.422	527.2
481.63	506.67
481.839	567.11
482.048	587.65
482.256	577.58
482.465	571.76
482.674	597.53
482.882	580.68
483.091	615.36
483.299	603.73
483.508	592.3
483.716	562.66
483.925	589.78
484.134	579.71
484.342	559.95
484.551	623.49
484.759	615.74
484.967	625.04
485.176	622.53
485.384	624.46
485.593	645.78
485.801	609.93
486.01	589.98
486.218	550.84
486.426	533.79
486.635	519.45
486.843	543.86
487.051	570.6
487.26	552.97
487.468	573.7
487.676	582.03
487.885	566.34
488.093	599.66
488.301	617.1
488.509	629.11
488.717	657.98
488.926	632.21
489.134	625.24
489.342	626.4
489.55	623.69
489.758	635.89
489.967	648.29
490.175	742.46
490.383	644.42
490.591	721.34
490.799	632.99
491.007	740.52
491.215	717.85
491.423	701.96
491.631	694.99
491.839	678.52
492.047	712.04
492.255	637.83
492.463	641.71
492.671	682.2
492.879	689.37
493.087	708.94
493.295	698.67
493.503	763.19
493.711	718.62
493.919	771.91
494.127	740.71
494.334	776.94
494.542	713.78
494.75	745.94
494.958	729.86
495.166	765.71
495.374	762.22
495.581	798.45
495.789	765.12
495.997	830.61
496.205	782.37
496.412	757.57
496.62	753.89
496.828	777.72
497.035	785.66
497.243	799.22
497.451	800.39
497.658	795.15
497.866	776.17
498.074	829.25
498.281	781.4
498.489	865.87
498.696	818.99
498.904	788.18
499.112	806.2
499.319	834.68
499.527	802.52
499.734	853.86
499.942	787.6
500.149	817.05
500.357	834.29
500.564	823.44
500.771	815.69
500.979	812.59
501.186	796.9
501.394	833.32
501.601	822.67
501.808	853.09
502.016	853.28
502.223	829.64
502.43	830.03
502.638	831.97
502.845	847.85
503.052	918.77
503.26	871.1
503.467	914.5
503.674	884.86
503.881	892.42
504.089	958.48
504.296	930.2
504.503	867.62
504.71	868.39
504.917	859.09
505.125	907.92
505.332	935.82
505.539	939.5
505.746	980.76
505.953	966.43
506.16	969.72
506.367	1005.76
506.574	1031.91
506.781	1012.73
506.988	976.11
507.195	991.81
507.402	1006.15
507.609	1041.79
507.816	975.53
508.023	977.47
508.23	1000.14
508.437	976.7
508.644	989.29
508.851	1068.92
509.058	1063.88
509.265	1050.9
509.472	1058.65
509.679	1149.91
509.885	1089.07
510.092	1094.69
510.299	1082.87
510.506	1097.59
510.713	1094.11
510.92	1108.25
511.126	1094.11
511.333	1168.12
511.54	1184.97
511.746	1192.72
511.953	1202.22
512.16	1189.62
512.367	1181.68
512.573	1161.92
512.78	1221.01
512.987	1186.33
513.193	1167.54
513.4	1128.01
513.606	1178.19
513.813	1211.13
514.02	1208.61
514.226	1271.19
514.433	1244.26
514.639	1193.69
514.846	1263.83
515.052	1216.55
515.259	1269.84
515.465	1287.66
515.672	1273.9
515.878	1337.84
516.085	1285.53
516.291	1347.33
516.497	1280.1
516.704	1305.68
516.91	1247.36
517.117	1236.32
517.323	1149.13
517.529	1256.85
517.736	1209.77
517.942	1249.1
518.148	1258.79
518.354	1323.7
518.561	1310.33
518.767	1294.83
518.973	1326.41
519.179	1379.5
519.386	1370.39
519.592	1384.15
519.798	1374.85
520.004	1498.07
520.21	1471.14
520.417	1489.54
520.623	1528.68
520.829	1551.54
521.035	1578.86
521.241	1541.28
521.447	1582.74
521.653	1685.42
521.859	1549.41
522.065	1618.97
522.271	1706.93
522.477	1661.4
522.683	1680
522.889	1682.71
523.095	1667.99
523.301	1646.67
523.507	1646.29
523.713	1696.47
523.919	1629.62
524.125	1742.77
524.331	1721.46
524.537	1830.15
524.742	1841
524.948	1825.31
525.154	1821.05
525.36	1911.91
525.566	1834.41
525.772	1889.05
525.977	1819.69
526.183	1843.13
526.389	1883.05
526.595	1784.82
526.8	1782.88
527.006	1731.15
527.212	1719.33
527.417	1703.83
527.623	1706.35
527.829	1787.33
528.034	1836.55
528.24	1847.2
528.446	1865.22
528.651	1933.03
528.857	1942.91
529.062	1970.81
529.268	1978.56
529.473	2015.57
529.679	1992.13
529.884	2067.49
530.09	2041.72
530.295	2074.27
530.501	2077.96
530.706	2066.52
530.912	2019.64
531.117	2057.42
531.323	2088.61
531.528	2124.07
531.733	2152.74
531.939	2083.77
532.144	2129.88
532.35	2117.29
532.555	2121.55
532.76	2113.41
532.966	2114.77
533.171	2090.35
533.376	2046.96
533.581	2023.51
533.787	2078.15
533.992	2140.15
534.197	2124.84
534.402	2131.62
534.607	2142.47
534.813	2213.97
535.018	2162.82
535.223	2179.09
535.428	2236.44
535.633	2263.95
535.838	2242.64
536.043	2258.33
536.249	2339.9
536.454	2264.15
536.659	2305.03
536.864	2256.4
537.069	2258.33
537.274	2233.53
537.479	2286.62
537.684	2282.75
537.889	2188.58
538.094	2317.23
538.299	2254.85
538.504	2301.35
538.708	2319.17
538.913	2300.38
539.118	2297.66
539.323	2284.49
539.528	2309.48
539.733	2303.28
539.938	2317.81
540.142	2296.89
540.347	2277.9
540.552	2230.05
540.757	2206.99
540.962	2273.83
541.166	2209.12
541.371	2228.11
541.576	2268.6
541.781	2198.66
541.985	2310.45
542.19	2272.09
542.395	2360.83
542.599	2360.44
542.804	2355.01
543.008	2360.05
543.213	2323.63
543.418	2300.96
543.622	2380.01
543.827	2343.97
544.031	2388.53
544.236	2400.93
544.44	2370.51
544.645	2437.74
544.849	2343.97
545.054	2421.86
545.258	2456.92
545.463	2483.86
545.667	2396.48
545.872	2423.79
546.076	2427.67
546.281	2408.49
546.485	2392.79
546.689	2413.91
546.894	2459.06
547.098	2470.49
547.302	2389.89
547.507	2457.31
547.711	2443.75
547.915	2510.59
548.119	2403.26
548.324	2407.52
548.528	2497.61
548.732	2430.58
548.936	2489.28
549.141	2499.94
549.345	2442.59
549.549	2475.72
549.753	2530.35
549.957	2521.25
550.161	2539.27
550.366	2500.13
550.57	2450.34
550.774	2514.66
550.978	2479.4
551.182	2506.72
551.386	2447.82
551.59	2454.79
551.794	2448.4
551.998	2486.96
552.202	2487.92
552.406	2440.84
552.61	2515.24
552.814	2566.39
553.018	2549.73
553.222	2474.56
553.426	2484.44
553.63	2541.4
553.833	2494.51
554.037	2460.41
554.241	2529.19
554.445	2494.12
554.649	2508.07
554.853	2471.26
555.056	2534.81
555.26	2571.82
555.464	2530.35
555.668	2496.26
555.871	2533.45
556.075	2546.63
556.279	2482.31
556.483	2464.29
556.686	2455.57
556.89	2435.03
557.094	2518.92
557.297	2389.31
557.501	2464.67
557.704	2408.88
557.908	2443.17
558.112	2404.03
558.315	2475.33
558.519	2418.18
558.722	2385.43
558.926	2346.1
559.129	2291.46
559.333	2337.38
559.536	2325.18
559.74	2315.68
559.943	2296.31
560.147	2283.52
560.35	2330.99
560.553	2319.36
560.757	2304.25
560.96	2414.11
561.164	2380.2
561.367	2424.38
561.57	2380.59
561.774	2332.15
561.977	2343.97
562.18	2290.69
562.384	2398.41
562.587	2324.21
562.79	2271.12
562.993	2268.8
563.197	2324.79
563.4	2380.01
563.603	2332.54
563.806	2382.91
564.009	2295.73
564.212	2313.75
564.416	2241.09
564.619	2287.78
564.822	2207.18
565.025	2309.48
565.228	2266.86
565.431	2240.51
565.634	2153.13
565.837	2191.49
566.04	2184.32
566.243	2180.25
566.446	2075.82
566.649	2210.87
566.852	2116.7
567.055	2148.87
567.258	2154.87
567.461	2218.81
567.664	2188.97
567.867	2115.15
568.07	2140.15
568.273	2134.53
568.475	2157.97
568.678	2085.9
568.881	2067.49
569.084	2058.39
569.287	1972.17
569.489	2038.62
569.692	2086.87
569.895	2049.67
570.098	1994.45
570.3	2002.2
570.503	1931.87
570.706	1923.34
570.909	1973.14
571.111	1892.54
571.314	1893.51
571.516	1904.55
571.719	1932.06
571.922	1884.01
572.124	1863.48
572.327	1939.04
572.529	1849.72
572.732	1878.59
572.935	1865.03
573.137	1988.44
573.34	1854.76
573.542	1935.74
573.745	1892.54
573.947	1890.21
574.15	1857.66
574.352	1833.83
574.554	1924.12
574.757	1821.24
574.959	1785.78
575.162	1813.1
575.364	1803.22
575.566	1856.89
575.769	1782.68
575.971	1805.16
576.173	1682.71
576.376	1759.63
576.578	1820.27
576.78	1833.45
576.982	1712.35
577.185	1749.75
577.387	1731.92
577.589	1767.57
577.791	1759.24
577.993	1822.4
578.196	1747.62
578.398	1732.12
578.6	1766.6
578.802	1692.59
579.004	1695.3
579.206	1662.56
579.408	1724.56
579.61	1698.4
579.812	1759.63
580.014	1703.05
580.216	1727.08
580.418	1733.86
580.62	1709.25
580.822	1679.03
581.024	1739.29
581.226	1748.58
581.428	1757.11
581.63	1814.46
581.832	1672.64
582.034	1786.75
582.236	1743.74
582.438	1768.54
582.64	1787.53
582.841	1814.07
583.043	1846.23
583.245	1754.01
583.447	1784.23
583.649	1748.78
583.85	1738.32
584.052	1811.36
584.254	1697.63
584.456	1784.04
584.657	1702.86
584.859	1753.04
585.061	1702.86
585.262	1702.09
585.464	1664.5
585.666	1737.93
585.867	1672.05
586.069	1755.17
586.27	1654.81
586.472	1696.47
586.674	1653.07
586.875	1663.53
587.077	1667.21
587.278	1667.79
587.48	1629.82
587.681	1727.85
587.883	1671.09
588.084	1592.62
588.285	1613.16
588.487	1612.96
588.688	1630.4
588.89	1546.31
589.091	1481.6
589.292	1500.98
589.494	1457
589.695	1427.35
589.896	1377.17
590.098	1375.62
590.299	1390.73
590.5	1385.12
590.702	1440.72
590.903	1470.75
591.104	1530.23
591.305	1518.22
591.507	1536.82
591.708	1530.81
591.909	1505.63
592.11	1530.62
592.311	1526.74
592.512	1491.68
592.714	1459.13
592.915	1463.78
593.116	1452.73
593.317	1492.26
593.518	1509.11
593.719	1506.79
593.92	1537.59
594.121	1543.6
594.322	1479.86
594.523	1475.4
594.724	1434.91
594.925	1484.89
595.126	1464.16
595.327	1466.68
595.528	1530.23
595.729	1496.33
595.929	1488.38
596.13	1459.32
596.331	1493.81
596.532	1452.54
596.733	1539.92
596.934	1536.63
597.135	1536.43
597.335	1526.36
597.536	1452.73
597.737	1492.64
597.938	1441.3
598.138	1498.84
598.339	1460.68
598.54	1514.54
598.74	1474.43
598.941	1489.54
599.142	1558.52
599.342	1499.04
599.543	1491.29
599.744	1461.06
599.944	1489.35
600.145	1506.79
600.345	1469.59
600.546	1554.84
600.746	1523.26
600.947	1539.53
601.147	1473.85
601.348	1537.98
601.548	1460.87
601.749	1477.73
601.949	1417.86
602.15	1459.51
602.35	1462.03
602.551	1505.63
602.751	1487.99
602.951	1460.29
603.152	1408.75
603.352	1474.43
603.552	1466.68
603.753	1509.69
603.953	1529.07
604.153	1481.02
604.354	1486.25
604.554	1470.75
604.754	1471.91
604.954	1445.56
605.155	1496.91
605.355	1476.76
605.555	1491.29
605.755	1510.66
605.955	1492.84
606.155	1489.35
606.356	1454.09
606.556	1467.46
606.756	1473.66
606.956	1410.88
607.156	1514.34
607.356	1442.27
607.556	1464.94
607.756	1469.98
607.956	1475.21
608.156	1447.7
608.356	1396.35
608.556	1495.94
608.756	1436.46
608.956	1379.11
609.156	1424.83
609.356	1401
609.556	1389.96
609.755	1413.21
609.955	1400.23
610.155	1396.55
610.355	1374.07
610.555	1368.84
610.755	1378.14
610.954	1315.95
611.154	1356.25
611.354	1380.27
611.554	1330.09
611.753	1372.72
611.953	1341.91
612.153	1375.23
612.352	1376.98
612.552	1355.86
612.752	1275.07
612.951	1334.16
613.151	1321.95
613.351	1283.79
613.55	1312.46
613.75	1343.07
613.949	1322.73
614.149	1349.47
614.348	1287.08
614.548	1283.2
614.747	1236.7
614.947	1251.82
615.146	1230.7
615.346	1349.47
615.545	1346.17
615.745	1290.37
615.944	1277.2
616.144	1262.86
616.343	1254.92
616.542	1233.8
616.742	1237.09
616.941	1240.19
617.14	1139.25
617.34	1240.39
617.539	1209.77
617.738	1234.57
617.938	1295.6
618.137	1229.54
618.336	1202.8
618.535	1268.67
618.734	1244.26
618.934	1259.57
619.133	1229.34
619.332	1271.19
619.531	1195.44
619.73	1228.18
619.929	1253.17
620.128	1261.12
620.328	1290.76
620.527	1178.19
620.726	1222.56
620.925	1238.25
621.124	1217.91
621.323	1220.82
621.522	1177.81
621.721	1172.96
621.92	1134.99
622.119	1242.52
622.318	1162.11
622.517	1201.06
622.715	1175.48
622.914	1117.55
623.113	1171.61
623.312	1115.23
623.511	1163.27
623.71	1143.9
623.909	1122.59
624.107	1193.69
624.306	1138.09
624.505	1126.08
624.704	1143.51
624.902	1111.35
625.101	1169.47
625.3	1158.24
625.499	1139.64
625.697	1103.99
625.896	1087.91
626.095	1151.84
626.293	1076.09
626.492	1100.69
626.69	1137.12
626.889	1111.74
627.088	1154.56
627.286	1096.04
627.485	1077.83
627.683	1066.79
627.882	1113.09
628.08	1012.93
628.279	1050.32
628.477	1093.91
628.676	1041.79
628.874	1075.12
629.073	1004.01
629.271	1003.05
629.469	1075.12
629.668	1012.73
629.866	1043.34
630.065	1047.99
630.263	1083.84
630.461	992.39
630.66	1069.69
630.858	1117.36
631.056	1105.34
631.254	1135.57
631.453	1032.5
631.651	1111.54
631.849	1045.48
632.047	1059.81
632.245	1026.3
632.444	1075.31
632.642	1099.34
632.84	1108.64
633.038	1025.71
633.236	1021.65
633.434	1034.82
633.632	1030.17
633.83	1046.83
634.028	1060.59
634.227	1056.13
634.425	1103.41
634.623	1058.26
634.821	1086.94
635.019	1061.17
635.216	1074.15
635.414	1091.2
635.612	1075.89
635.81	1039.08
636.008	1110.77
636.206	1030.36
636.404	1079.96
636.602	1010.8
636.8	1052.64
636.997	1062.33
637.195	1091.2
637.393	1051.09
637.591	1114.45
637.789	1054
637.986	1051.29
638.184	1049.54
638.382	1073.38
638.58	1081.32
638.777	1086.74
638.975	1064.66
639.173	1044.31
639.37	1031.72
639.568	1047.99
639.765	1030.56
639.963	1013.9
640.161	1048.96
640.358	1050.51
640.556	981.15
640.753	968.36
640.951	1000.33
641.148	1000.14
641.346	971.08
641.543	996.65
641.741	1032.88
641.938	951.32
642.136	1010.8
642.333	969.14
642.531	998.2
642.728	1028.62
642.925	972.63
643.123	962.36
643.32	941.63
643.517	935.43
643.715	981.73
643.912	934.85
644.109	986.19
644.306	978.25
644.504	908.69
644.701	966.43
644.898	944.34
645.095	918.96
645.293	914.12
645.49	936.01
645.687	924.77
645.884	909.47
646.081	835.07
646.278	890.28
646.475	868.39
646.672	849.4
646.87	872.07
647.067	889.9
647.264	875.95
647.461	852.5
647.658	826.93
647.855	837.59
648.052	850.37
648.249	765.71
648.446	840.3
648.642	833.32
648.839	807.94
649.036	809.69
649.233	781.2
649.43	804.07
649.627	789.92
649.824	807.94
650.021	764.35
650.217	772.1
650.414	798.64
650.611	791.86
650.808	821.31
651.004	820.15
651.201	816.27
651.398	846.69
651.595	833.52
651.791	764.54
651.988	819.18
652.185	793.02
652.381	824.99
652.578	746.14
652.775	776.75
652.971	779.85
653.168	793.41
653.364	813.17
653.561	753.31
653.757	800
653.954	774.42
654.15	755.82
654.347	809.49
654.543	788.76
654.74	737.61
654.936	750.79
655.133	766.67
655.329	768.03
655.525	766.67
655.722	788.95
655.918	725.79
656.115	743.23
656.311	670.96
656.507	641.71
656.704	630.66
656.9	642.87
657.096	632.99
657.292	655.66
657.489	712.04
657.685	706.61
657.881	695.57
658.077	688.4
658.273	706.61
658.47	764.16
658.666	707.97
658.862	710.1
659.058	693.44
659.254	745.17
659.45	708.55
659.646	748.66
659.842	701.19
660.038	747.88
660.234	685.69
660.43	710.68
660.626	776.17
660.822	724.44
661.018	736.26
661.214	717.27
661.41	675.42
661.606	739.74
661.802	749.43
661.998	720.56
662.194	669.8
662.39	708.16
662.586	721.34
662.781	713.59
662.977	707.58
663.173	722.11
663.369	692.47
663.564	712.81
663.76	715.14
663.956	702.16
664.152	715.72
664.347	645.58
664.543	687.04
664.739	669.99
664.934	621.75
665.13	617.88
665.326	677.94
665.521	685.3
665.717	626.21
665.912	607.8
666.108	596.95
666.304	659.92
666.499	647.52
666.695	583.97
666.89	639.19
667.086	661.66
667.281	653.72
667.477	681.04
667.672	659.53
667.867	662.24
668.063	622.91
668.258	616.71
668.454	648.68
668.649	690.53
668.844	627.18
669.04	637.25
669.235	632.79
669.43	613.03
669.626	614.58
669.821	620.98
670.016	577.77
670.211	619.04
670.407	604.31
670.602	618.26
670.797	592.5
670.992	634.73
671.187	606.44
671.382	654.88
671.578	587.65
671.773	626.79
671.968	590.56
672.163	636.86
672.358	633.76
672.553	574.67
672.748	600.44
672.943	677.36
673.138	601.21
673.333	619.23
673.528	595.4
673.723	613.42
673.918	604.89
674.113	563.82
674.308	646.16
674.503	636.28
674.698	636.48
674.892	601.8
675.087	623.88
675.282	605.67
675.477	568.86
675.672	586.1
675.867	575.06
676.061	554.91
676.256	552.39
676.451	563.24
676.646	580.29
676.84	559.75
677.035	529.91
677.23	573.12
677.424	607.99
677.619	615.36
677.814	622.72
678.008	633.57
678.203	558.59
678.397	560.72
678.592	576.61
678.787	627.56
678.981	570.02
679.176	589.01
679.37	562.46
679.565	558.4
679.759	576.41
679.954	584.36
680.148	638.41
680.342	639.19
680.537	579.13
680.731	540.18
680.926	597.92
681.12	604.7
681.314	542.7
681.509	577.77
681.703	588.23
681.897	638.99
682.092	589.59
682.286	585.71
682.48	633.57
682.674	615.55
682.869	577.58
683.063	614.39
683.257	648.1
683.451	587.26
683.645	605.09
683.839	603.93
684.034	602.57
684.228	638.99
684.422	556.46
684.616	560.91
684.81	605.67
685.004	607.22
685.198	614.97
685.392	650.81
685.586	594.43
685.78	635.7
685.974	642.87
686.168	613.03
686.362	659.14
686.556	592.5
686.75	565.95
686.944	549.68
687.138	549.29
687.331	504.15
687.525	514.8
687.719	428.78
687.913	491.55
688.107	510.15
688.301	491.36
688.494	565.37
688.688	483.61
688.882	491.75
689.076	479.54
689.269	543.09
689.463	607.22
689.657	549.87
689.85	566.73
690.044	570.02
690.238	581.65
690.431	602.76
690.625	590.17
690.818	613.61
691.012	632.02
691.205	648.29
691.399	626.21
691.593	674.64
691.786	720.17
691.98	743.81
692.173	788.18
692.366	732.19
692.56	787.4
692.753	818.4
692.947	723.47
693.14	796.9
693.333	831.58
693.527	792.44
693.72	813.95
693.914	810.27
694.107	803.87
694.3	854.25
694.493	843.01
694.687	900.75
694.88	862.77
695.073	940.08
695.266	924.58
695.46	920.12
695.653	987.74
695.846	953.45
696.039	926.13
696.232	968.36
696.425	1045.67
696.618	1046.44
696.812	1068.73
697.005	1149.52
697.198	1186.52
697.391	1164.44
697.584	1188.66
697.777	1250.65
697.97	1194.47
698.163	1257.24
698.356	1228.76
698.549	1306.07
698.742	1295.02
698.935	1255.3
699.127	1267.7
699.32	1264.41
699.513	1277.59
699.706	1309.17
699.899	1340.17
700.092	1331.06
700.285	1336.1
700.477	1311.88
700.67	1360.7
700.863	1377.56
701.056	1478.89
701.248	1454.48
701.441	1450.41
701.634	1428.51
701.826	1505.24
702.019	1439.95
702.212	1527.52
702.404	1464.55
702.597	1504.66
702.79	1527.71
702.982	1567.04
703.175	1587.58
703.367	1647.45
703.56	1637.76
703.752	1694.14
703.945	1673.02
704.137	1703.83
704.33	1711
704.522	1738.32
704.715	1775.71
704.907	1801.87
705.1	1828.8
705.292	1843.52
705.484	1823.37
705.677	1888.08
705.869	1879.17
706.061	1917.92
706.254	1944.27
706.446	1923.15
706.638	1898.93
706.831	2002.39
707.023	1979.73
707.215	2063.81
707.407	2069.43
707.599	2050.83
707.792	2110.31
707.984	2079.12
708.176	2128.72
708.368	2104.11
708.56	2139.76
708.752	2148.67
708.944	2153.71
709.136	2185.1
709.329	2183.55
709.521	2282.94
709.713	2272.67
709.905	2265.89
710.097	2322.08
710.289	2257.75
710.481	2269.76
710.672	2337
710.864	2337.96
711.056	2405.78
711.248	2386.79
711.44	2361.02
711.632	2384.46
711.824	2452.86
712.016	2476.69
712.207	2482.11
712.399	2474.75
712.591	2543.72
712.783	2509.43
712.975	2541.2
713.166	2485.99
713.358	2511.17
713.55	2575.5
713.741	2553.22
713.933	2643.7
714.125	2560.97
714.316	2556.51
714.508	2641.57
714.7	2637.88
714.891	2607.47
715.083	2656.1
715.274	2637.88
715.466	2679.54
715.657	2674.5
715.849	2575.89
716.04	2611.34
716.232	2559.42
716.423	2606.11
716.615	2513.31
716.806	2436.39
716.998	2415.66
717.189	2270.35
717.381	2236.05
717.572	2141.7
717.763	2150.22
717.955	2172.31
718.146	2149.64
718.337	2074.66
718.528	1989.03
718.72	1963.84
718.911	1988.25
719.102	1949.11
719.293	1997.94
719.485	1958.99
719.676	1926.06
719.867	1869.68
720.058	1914.43
720.249	1935.36
720.44	1942.33
720.632	2030.68
720.823	2097.72
721.014	2184.71
721.205	2234.31
721.396	2319.36
721.587	2427.09
721.778	2474.36
721.969	2524.74
722.16	2589.64
722.351	2626.07
722.542	2733.98
722.733	2735.53
722.924	2729.14
723.115	2685.93
723.305	2650.28
723.496	2665.01
723.687	2531.9
723.878	2552.05
724.069	2531.71
724.26	2553.8
724.45	2463.9
724.641	2466.81
724.832	2496.84
725.023	2455.76
725.213	2428.06
725.404	2445.88
725.595	2422.83
725.785	2445.49
725.976	2512.53
726.167	2472.42
726.357	2516.79
726.548	2621.42
726.739	2508.07
726.929	2614.05
727.12	2621.22
727.31	2597.2
727.501	2575.11
727.691	2601.27
727.882	2593.13
728.072	2666.75
728.263	2642.92
728.453	2722.94
728.644	2682.64
728.834	2697.75
729.024	2651.45
729.215	2632.46
729.405	2659.58
729.596	2731.85
729.786	2750.65
729.976	2773.51
730.167	2761.11
730.357	2706.08
730.547	2746.38
730.737	2791.33
730.928	2848.68
731.118	2936.64
731.308	2836.86
731.498	2842.48
731.688	2934.51
731.879	2952.72
732.069	2982.17
732.259	3041.85
732.449	3062.38
732.639	3149.38
732.829	3210.99
733.019	3213.51
733.209	3301.08
733.399	3256.13
733.589	3390.21
733.779	3430.89
733.969	3417.14
734.159	3530.28
734.349	3549.85
734.539	3587.63
734.729	3601.97
734.919	3640.72
735.109	3656.61
735.299	3577.95
735.488	3634.33
735.678	3624.83
735.868	3642.46
736.058	3609.72
736.248	3622.7
736.437	3587.25
736.627	3576.01
736.817	3696.33
737.007	3608.36
737.196	3661.26
737.386	3694
737.576	3649.44
737.765	3755.42
737.955	3705.82
738.144	3888.91
738.334	3733.91
738.524	3709.31
738.713	3773.63
738.903	3727.91
739.092	3837.76
739.282	3773.24
739.471	3783.71
739.661	3808.7
739.85	3852.68
740.04	3814.9
740.229	3916.42
740.419	3888.91
740.608	3937.73
740.797	3915.45
740.987	3953.43
741.176	3977.26
741.365	3917.39
741.555	3871.28
741.744	3995.28
741.933	3917
742.123	4012.13
742.312	4007.29
742.501	4009.42
742.69	4022.01
742.88	3940.06
743.069	4096.61
743.258	4062.9
743.447	4056.5
743.636	4092.15
743.825	3999.93
744.014	4091.38
744.204	4051.66
744.393	4054.95
744.582	4138.46
744.771	4180.5
744.96	4079.95
745.149	4078.01
745.338	4064.25
745.527	4156.48
745.716	4107.65
745.905	4063.28
746.094	4139.04
746.283	4119.47
746.471	4165.78
746.66	4170.23
746.849	4145.04
747.038	4160.54
747.227	4155.7
747.416	4172.56
747.604	4114.43
747.793	4142.33
747.982	4135.74
748.171	4190.19
748.359	4133.03
748.548	4157.25
748.737	4124.89
748.926	4134.58
749.114	4060.18
749.303	4123.15
749.491	4108.81
749.68	4069.1
749.869	4131.87
750.057	4093.9
750.246	4075.49
750.434	4055.15
750.623	4081.88
750.811	4019.88
751	4082.08
751.188	4048.17
751.377	4062.9
751.565	4030.15
751.754	4035.19
751.942	4004
752.131	4107.26
752.319	4041.58
752.507	3958.85
752.696	4041.97
752.884	4063.67
753.072	4035.96
753.261	4062.12
753.449	4005.93
753.637	3991.98
753.825	4072.78
754.014	4008.26
754.202	4016.78
754.39	4084.98
754.578	4101.06
754.766	3968.54
754.955	3990.43
755.143	4039.26
755.331	3949.17
755.519	4010.39
755.707	3992.57
755.895	3909.06
756.083	3985.2
756.271	3906.93
756.459	3987.33
756.647	3987.72
756.835	3919.91
757.023	3915.07
757.211	3886.39
757.399	3889.1
757.587	3926.69
757.775	3803.66
757.963	3875.74
758.151	3901.12
758.339	3835.24
758.526	3795.91
758.714	3779.25
758.902	3697.49
759.09	3614.37
759.278	3376.26
759.465	3092.03
759.653	2703.18
759.841	2419.14
760.028	2062.65
760.216	1805.93
760.404	1661.01
760.591	1399.06
760.779	1148.55
760.967	991.23
761.154	806.78
761.342	862.19
761.529	829.64
761.717	886.41
761.905	888.54
762.092	978.05
762.28	896.1
762.467	894.74
762.655	789.92
762.842	812.59
763.029	845.53
763.217	863.74
763.404	853.86
763.592	864.9
763.779	806.78
763.966	863.94
764.154	909.85
764.341	967.2
764.528	968.75
764.716	1027.26
764.903	1119.1
765.09	1192.34
765.277	1250.07
765.465	1415.73
765.652	1492.84
765.839	1587.58
766.026	1721.07
766.213	1804
766.4	1921.79
766.588	2096.94
766.775	2147.12
766.962	2268.02
767.149	2368.96
767.336	2531.52
767.523	2505.56
767.71	2704.92
767.897	2789.78
768.084	2895.18
768.271	2929.28
768.458	3019.95
768.645	3058.9
768.832	3051.34
769.019	3093.19
769.206	3123.42
769.392	3267.56
769.579	3304.96
769.766	3265.43
769.953	3307.86
770.14	3362.89
770.327	3284.61
770.513	3378.19
770.7	3470.22
770.887	3340.61
771.073	3448.72
771.26	3410.55
771.447	3380.32
771.634	3421.01
771.82	3478.75
772.007	3430.89
772.193	3459.57
772.38	3426.82
772.567	3435.74
772.753	3427.79
772.94	3479.52
773.126	3477.97
773.313	3452.2
773.499	3471.77
773.686	3489.79
773.872	3386.72
774.059	3444.26
774.245	3419.65
774.432	3397.96
774.618	3369.28
774.804	3431.09
774.991	3377.42
775.177	3393.11
775.363	3361.34
775.55	3402.6
775.736	3352.62
775.922	3372.96
776.109	3366.96
776.295	3403.38
776.481	3397.37
776.667	3416.55
776.853	3377.61
777.04	3340.02
777.226	3350.49
777.412	3414.04
777.598	3298.56
777.784	3344.09
777.97	3299.73
778.156	3309.03
778.342	3283.45
778.528	3311.35
778.715	3286.36
778.901	3232.88
779.087	3285
779.272	3253.42
779.458	3257.88
779.644	3287.33
779.83	3225.91
780.016	3342.74
780.202	3249.35
780.388	3228.43
780.574	3192
780.76	3194.71
780.946	3239.47
781.131	3188.13
781.317	3162.36
781.503	3158.68
781.689	3189.68
781.874	3318.52
782.06	3156.74
782.246	3218.35
782.432	3192.58
782.617	3199.75
782.803	3245.28
782.989	3128.65
783.174	3144.34
783.36	3069.17
783.545	3090.28
783.731	3110.24
783.916	3025.38
784.102	3110.24
784.288	3080.02
784.473	3069.36
784.659	3059.87
784.844	3077.69
785.029	3047.27
785.215	3086.22
785.4	2970.16
785.586	3058.9
785.771	2971.13
785.956	3041.65
786.142	3010.27
786.327	3003.68
786.512	2997.87
786.698	2949.82
786.883	2903.12
787.068	2957.18
787.254	2972.68
787.439	2905.84
787.624	2917.66
787.809	2866.89
787.994	2890.14
788.18	2956.6
788.365	2833.18
788.55	2850.81
788.735	2871.16
788.92	2854.11
789.105	2851.39
789.29	2878.13
789.475	2819.81
789.66	2788.23
789.845	2771.18
790.03	2750.84
790.215	2789.2
790.4	2826.98
790.585	2790.94
790.77	2781.26
790.955	2722.16
791.14	2792.49
791.325	2808.38
791.51	2685.93
791.695	2760.72
791.879	2781.26
792.064	2684.19
792.249	2825.24
792.434	2723.91
792.618	2702.4
792.803	2784.16
792.988	2716.16
793.173	2703.95
793.357	2772.73
793.542	2690
793.727	2761.88
793.911	2773.51
794.096	2766.15
794.281	2779.51
794.465	2830.47
794.65	2748.13
794.834	2803.93
795.019	2852.36
795.203	2823.88
795.388	2859.14
795.572	2828.34
795.757	2807.61
795.941	2827.37
796.126	2745.41
796.31	2724.1
796.494	2794.04
796.679	2748.71
796.863	2712.28
797.048	2836.28
797.232	2793.66
797.416	2794.24
797.601	2781.84
797.785	2843.06
797.969	2838.22
798.153	2807.8
798.338	2829.89
798.522	2840.93
798.706	2876
798.89	2889.76
799.074	2929.09
799.258	2878.71
799.443	2851.59
799.627	2867.67
799.811	2906.42
799.995	2821.56
800.179	2794.04
800.363	2828.73
800.547	2842.48
800.731	2847.33
800.915	2733.01
801.099	2757.23
801.283	2794.82
801.467	2783.78
801.651	2784.55
801.835	2848.49
802.019	2808.58
802.202	2797.92
802.386	2751.81
802.57	2720.42
802.754	2769.63
802.938	2771.76
803.121	2749.29
803.305	2864.96
803.489	2748.9
803.673	2762.08
803.856	2807.03
804.04	2742.7
804.224	2770.02
804.407	2777.19
804.591	2749.48
804.775	2760.14
804.958	2760.72
805.142	2907.19
805.326	2832.6
805.509	2796.37
805.693	2840.35
805.876	2858.18
806.06	2804.12
806.243	2834.54
806.427	2879.1
806.61	2894.99
806.794	2822.72
806.977	2860.89
807.16	2849.26
807.344	2877.36
807.527	2829.69
807.71	2837.44
807.894	2799.66
808.077	2829.31
808.26	2783.39
808.444	2765.37
808.627	2835.7
808.81	2782.23
808.993	2701.24
809.177	2714.22
809.36	2743.67
809.543	2735.15
809.726	2662.1
809.909	2636.72
810.092	2622
810.276	2623.16
810.459	2587.9
810.642	2628.39
810.825	2564.84
811.008	2611.54
811.191	2499.55
811.374	2511.95
811.557	2530.74
811.74	2517.18
811.923	2446.66
812.106	2463.51
812.289	2398.61
812.472	2407.52
812.654	2427.28
812.837	2388.34
813.02	2324.98
813.203	2304.45
813.386	2182.77
813.569	2160.69
813.751	2075.44
813.934	2132.2
814.117	2097.33
814.3	2028.55
814.482	1961.71
814.665	1957.64
814.848	1923.15
815.03	1861.73
815.213	1829.76
815.396	1842.94
815.578	1832.86
815.761	1765.83
815.943	1890.6
816.126	1708.87
816.309	1733.47
816.491	1696.66
816.674	1590.68
816.856	1664.3
817.039	1656.75
817.221	1718.75
817.403	1704.6
817.586	1710.22
817.768	1739.67
817.951	1605.79
818.133	1620.91
818.315	1646.67
818.498	1715.65
818.68	1756.53
818.862	1733.09
819.045	1771.06
819.227	1737.74
819.409	1716.81
819.591	1702.28
819.774	1704.41
819.956	1685.42
820.138	1772.61
820.32	1775.9
820.502	1848.75
820.684	1917.14
820.866	1914.63
821.048	1975.66
821.231	1957.25
821.413	1961.71
821.595	1919.47
821.777	1912.88
821.959	1948.53
822.141	2009.56
822.323	1849.33
822.505	1759.63
822.686	1711.77
822.868	1626.14
823.05	1552.13
823.232	1465.13
823.414	1427.35
823.596	1512.02
823.778	1507.56
823.96	1551.74
824.141	1522.87
824.323	1563.56
824.505	1642.22
824.687	1705.96
824.868	1790.05
825.05	1865.8
825.232	1882.46
825.413	1976.63
825.595	1910.17
825.777	1837.51
825.958	1885.76
826.14	1862.31
826.321	1889.25
826.503	1907.26
826.685	1912.3
826.866	1940.39
827.048	1965.78
827.229	1854.56
827.411	1809.03
827.592	1796.05
827.773	1783.27
827.955	1760.21
828.136	1728.82
828.318	1705.77
828.499	1735.99
828.68	1665.47
828.862	1723.98
829.043	1724.17
829.224	1715.84
829.406	1656.55
829.587	1689.49
829.768	1665.27
829.949	1707.32
830.131	1712.74
830.312	1753.43
830.493	1731.73
830.674	1716.04
830.855	1696.66
831.036	1692.4
831.218	1777.26
831.399	1776.1
831.58	1752.85
831.761	1690.46
831.942	1717.59
832.123	1754.2
832.304	1676.51
832.485	1667.4
832.666	1691.82
832.847	1730.37
833.028	1712.74
833.209	1700.92
833.389	1692.4
833.57	1644.93
833.751	1667.02
833.932	1724.17
834.113	1705.57
834.294	1680.19
834.475	1742.38
834.655	1753.43
834.836	1763.5
835.017	1754.2
835.198	1703.25
835.378	1739.29
835.559	1795.08
835.74	1736.96
835.92	1765.25
836.101	1721.65
836.281	1760.6
836.462	1764.28
836.643	1810.2
836.823	1797.02
837.004	1822.21
837.184	1835.19
837.365	1819.11
837.545	1835.77
837.726	1794.89
837.906	1856.7
838.087	1798.38
838.267	1782.68
838.448	1771.06
838.628	1785.98
838.808	1832.28
838.989	1816.59
839.169	1803.8
839.349	1817.75
839.53	1803.42
839.71	1838.87
839.89	1797.8
840.07	1830.93
840.251	1791.21
840.431	1835.19
840.611	1795.67
840.791	1810.2
840.971	1829.76
841.151	1791.79
841.332	1777.26
841.512	1838.1
841.692	1745.87
841.872	1767.18
842.052	1753.82
842.232	1780.94
842.412	1740.83
842.592	1784.62
842.772	1783.46
842.952	1813.49
843.132	1773
843.312	1765.05
843.492	1740.83
843.672	1818.92
843.851	1719.72
844.031	1764.86
844.211	1749.36
844.391	1740.25
844.571	1762.92
844.751	1793.92
844.93	1780.36
845.11	1755.17
845.29	1754.4
845.47	1779.78
845.649	1747.62
845.829	1779.97
846.009	1754.2
846.188	1742.19
846.368	1749.75
846.547	1753.04
846.727	1779
846.907	1691.43
847.086	1746.65
847.266	1781.72
847.445	1695.69
847.625	1720.88
847.804	1724.95
847.984	1719.52
848.163	1698.4
848.343	1700.54
848.522	1708.67
848.701	1725.72
848.881	1656.94
849.06	1702.47
849.239	1704.41
849.419	1704.99
849.598	1612.77
849.777	1606.37
849.957	1585.84
850.136	1567.62
850.315	1538.18
850.494	1563.75
850.674	1582.74
850.853	1614.32
851.032	1582.93
851.211	1654.04
851.39	1618.77
851.569	1560.46
851.748	1537.59
851.927	1647.26
852.107	1576.92
852.286	1566.85
852.465	1542.05
852.644	1632.53
852.823	1604.24
853.002	1578.09
853.181	1547.86
853.359	1576.15
853.538	1518.22
853.717	1586.61
853.896	1493.03
854.075	1400.81
854.254	1392.48
854.433	1321.18
854.611	1397.13
854.79	1295.8
854.969	1379.88
855.148	1364.58
855.327	1351.21
855.505	1430.06
855.684	1419.41
855.863	1422.12
856.041	1397.32
856.22	1463.97
856.399	1450.8
856.577	1553.48
856.756	1533.33
856.934	1620.71
857.113	1652.68
857.291	1524.81
857.47	1484.12
857.648	1513.38
857.827	1517.44
858.005	1543.21
858.184	1536.63
858.362	1572.86
858.541	1531.01
858.719	1511.63
858.898	1483.34
859.076	1481.21
859.254	1562.2
859.433	1457.77
859.611	1474.05
859.789	1439.75
859.967	1550.38
860.146	1499.43
860.324	1444.79
860.502	1468.04
860.68	1435.49
860.859	1434.13
861.037	1434.33
861.215	1459.13
861.393	1480.63
861.571	1441.88
861.749	1437.43
861.927	1452.73
862.105	1458.74
862.283	1467.65
862.461	1431.03
862.639	1412.05
862.817	1412.24
862.995	1452.35
863.173	1433.75
863.351	1419.6
863.529	1417.08
863.707	1490.13
863.885	1408.75
864.063	1382.21
864.241	1399.06
864.418	1438.4
864.596	1397.51
864.774	1366.71
864.952	1404.88
865.129	1435.1
865.307	1364.58
865.485	1338.03
865.663	1380.85
865.84	1278.17
866.018	1326.02
866.196	1185.56
866.373	1226.63
866.551	1179.55
866.728	1127.04
866.906	1191.37
867.084	1214.23
867.261	1262.67
867.439	1242.13
867.616	1284.17
867.794	1266.54
867.971	1270.03
868.149	1273.13
868.326	1326.8
868.503	1347.72
868.681	1328.35
868.858	1284.17
869.035	1255.3
869.213	1310.13
869.39	1264.41
869.567	1368.84
869.745	1280.88
869.922	1299.48
870.099	1303.35
870.276	1316.92
870.454	1306.84
870.631	1329.7
870.808	1269.25
870.985	1321.76
871.162	1318.85
871.339	1264.6
871.517	1228.37
871.694	1253.75
871.871	1278.94
872.048	1285.72
872.225	1265.96
872.402	1282.62
872.579	1222.17
872.756	1274.68
872.933	1202.02
873.11	1208.81
873.287	1289.4
873.463	1246.39
873.64	1212.49
873.817	1245.81
873.994	1218.1
874.171	1183.23
874.348	1219.27
874.524	1149.52
874.701	1209.58
874.878	1125.3
875.055	1247.94
875.231	1217.33
875.408	1221.98
875.585	1139.44
875.762	1193.31
875.938	1184.39
876.115	1177.61
876.291	1168.31
876.468	1162.69
876.645	1124.14
876.821	1144.48
876.998	1148.55
877.174	1145.64
877.351	1168.7
877.527	1109.41
877.704	1157.85
877.88	1170.83
878.057	1130.72
878.233	1170.64
878.409	1134.79
878.586	1145.64
878.762	1146.61
878.938	1158.04
879.115	1060.78
879.291	1129.95
879.467	1034.05
879.644	1115.42
879.82	1125.11
879.996	1102.05
880.172	1085
880.349	1082.09
880.525	1140.61
880.701	1065.24
880.877	1038.11
881.053	1095.85
881.229	1071.44
881.405	1098.76
881.581	1087.71
881.757	1078.41
881.933	1081.32
882.109	1088.68
882.285	1103.02
882.461	1044.31
882.637	1067.37
882.813	1051.87
882.989	1074.34
883.165	1119.68
883.341	1037.92
883.517	1101.08
883.693	1110.19
883.869	1111.74
884.044	1073.38
884.22	1074.34
884.396	1142.74
884.572	1099.92
884.747	1088.49
884.923	1089.26
885.099	1115.81
885.275	1134.99
885.45	1055.36
885.626	1074.73
885.801	1052.26
885.977	1052.06
886.153	1012.54
886.328	1064.46
886.504	1035.21
886.679	1075.12
886.855	1039.28
887.03	1029.01
887.206	1070.08
887.381	1087.13
887.557	1087.71
887.732	1070.28
887.908	1069.11
888.083	1098.56
888.258	1081.71
888.434	1064.08
888.609	1058.26
888.784	1108.44
888.96	1073.57
889.135	1044.51
889.31	1049.74
889.485	1094.11
889.661	1050.51
889.836	1100.5
890.011	1105.15
890.186	1080.74
890.361	1061.75
890.537	1079.58
890.712	1094.11
890.887	1078.61
891.062	1060.78
891.237	1115.61
891.412	1069.5
891.587	1075.31
891.762	1074.15
891.937	1098.37
892.112	1025.71
892.287	1047.61
892.462	992.58
892.637	982.51
892.812	959.45
892.987	997.04
893.161	969.53
893.336	979.8
893.511	971.08
893.686	965.07
893.861	955.19
894.035	960.42
894.21	960.03
894.385	912.37
894.56	934.27
894.734	851.73
894.909	888.54
895.084	880.4
895.258	849.4
895.433	849.79
895.608	841.46
895.782	805.62
895.957	790.7
896.131	787.02
896.306	739.55
896.48	749.04
896.655	716.88
896.829	671.54
897.004	698.67
897.178	692.47
897.353	674.84
897.527	709.52
897.701	710.29
897.876	649.46
898.05	752.72
898.224	725.79
898.399	721.53
898.573	704.48
898.747	569.25
898.921	636.09
899.096	552.39
899.27	560.53
899.444	536.7
899.618	596.18
899.792	613.03
899.967	614.97
900.141	623.11
900.315	595.98
900.489	593.46
900.663	600.63
900.837	591.53
901.011	555.49
901.185	657.21
901.359	607.41
901.533	589.59
901.707	593.27
901.881	614.58
902.055	570.21
902.229	595.4
902.403	643.64
902.576	576.41
902.75	614.19
902.924	680.07
903.098	671.93
903.272	712.23
903.446	756.6
903.619	715.72
903.793	776.36
903.967	744.39
904.14	798.45
904.314	766.87
904.488	743.04
904.661	781.59
904.835	773.26
905.009	782.95
905.182	826.35
905.356	789.92
905.529	791.47
905.703	750.21
905.876	739.55
906.05	726.96
906.223	682.98
906.397	651.98
906.57	637.83
906.744	598.89
906.917	599.08
907.09	591.14
907.264	594.43
907.437	582.23
907.61	554.91
907.784	572.35
907.957	570.8
908.13	547.16
908.304	566.92
908.477	521.58
908.65	535.53
908.823	502.02
908.996	573.51
909.17	512.09
909.343	540.76
909.516	519.65
909.689	505.5
909.862	501.05
910.035	517.71
910.208	491.17
910.381	505.5
910.554	584.55
910.727	538.63
910.9	509.18
911.073	510.73
911.246	558.4
911.419	582.81
911.592	577.96
911.765	489.03
911.938	508.99
912.11	517.51
912.283	539.99
912.456	567.5
912.629	537.47
912.802	500.08
912.974	479.73
913.147	431.88
913.32	393.13
913.493	440.02
913.665	465.4
913.838	466.75
914.01	423.35
914.183	457.26
914.356	471.98
914.528	458.42
914.701	516.55
914.873	513.06
915.046	443.12
915.218	429.17
915.391	344.89
915.563	371.04
915.736	420.06
915.908	468.3
916.081	428.2
916.253	438.85
916.425	458.42
916.598	467.53
916.77	462.68
916.942	395.26
917.115	359.03
917.287	428.2
917.459	393.32
917.632	374.92
917.804	343.53
917.976	440.02
918.148	414.25
918.32	423.16
918.493	477.22
918.665	483.8
918.837	453
919.009	519.26
919.181	523.71
919.353	471.02
919.525	500.27
919.697	484
919.869	501.43
920.041	534.76
920.213	575.45
920.385	546
920.557	474.7
920.729	516.74
920.901	524.1
921.073	468.69
921.244	482.64
921.416	477.99
921.588	512.28
921.76	476.63
921.932	543.28
922.103	501.05
922.275	503.18
922.447	489.42
922.619	433.82
922.79	459.58
922.962	442.73
923.134	487.87
923.305	417.15
923.477	370.07
923.648	420.84
923.82	426.45
923.991	362.13
924.163	380.34
924.335	425.68
924.506	397.2
924.677	460.36
924.849	369.69
925.02	429.55
925.192	432.65
925.363	416.19
925.535	447.96
925.706	420.45
925.877	446.22
926.049	398.36
926.22	414.83
926.391	411.15
926.562	419.67
926.734	415.02
926.905	454.55
927.076	368.91
927.247	387.9
927.419	323.77
927.59	341.59
927.761	337.14
927.932	314.27
928.103	313.69
928.274	288.31
928.445	308.85
928.616	289.47
928.787	268.94
928.958	298.77
929.129	273.78
929.3	286.76
929.471	235.23
929.642	174.39
929.813	166.45
929.984	225.93
930.155	181.36
930.326	223.41
930.496	198.03
930.667	148.62
930.838	183.11
931.009	126.15
931.18	134.09
931.35	123.63
931.521	149.78
931.692	95.73
931.863	70.35
932.033	121.11
932.204	124.21
932.374	106.19
932.545	79.65
932.716	137
932.886	109.29
933.057	50.58
933.227	75.77
933.398	126.34
933.568	34.12
933.739	17.26
933.909	44
934.08	111.03
934.25	-0.95
934.421	44.58
934.591	62.98
934.761	43.42
934.932	14.35
935.102	51.94
935.272	47.1
935.443	27.72
935.613	49.23
935.783	59.5
935.953	8.93
936.123	143.39
936.294	21.52
936.464	43.22
936.634	62.21
936.804	14.93
936.974	6.8
937.144	68.02
937.314	49.62
937.484	45.93
937.655	28.69
937.825	79.07
937.995	32.76
938.165	81.78
938.334	32.76
938.504	73.25
938.674	33.15
938.844	53.49
939.014	117.43
939.184	104.25
939.354	164.12
939.524	123.82
939.694	88.75
939.863	79.65
940.033	141.65
940.203	137.96
940.373	111.23
940.542	121.5
940.712	62.6
940.882	104.06
941.051	125.18
941.221	111.81
941.391	151.14
941.56	76.16
941.73	60.27
941.899	171.09
942.069	96.89
942.238	100.38
942.408	75.97
942.577	114.33
942.747	92.43
942.916	36.83
943.086	70.93
943.255	98.05
943.425	101.35
943.594	54.46
943.763	29.66
943.933	49.81
944.102	0.02
944.271	50.2
944.441	87.2
944.61	55.82
944.779	52.33
944.948	115.68
945.117	51.17
945.287	41.48
945.456	21.52
945.625	39.93
945.794	70.54
945.963	38.38
946.132	77.52
946.301	64.15
946.47	81.39
946.639	31.98
946.808	37.02
946.977	81.39
947.146	115.49
947.315	46.9
947.484	70.93
947.653	66.86
947.822	60.47
947.991	45.55
948.16	106.58
948.329	109.48
948.498	65.89
948.666	83.71
948.835	90.88
949.004	43.61
949.173	43.61
949.341	55.62
949.51	64.53
949.679	121.3
949.847	78.48
950.016	137.19
950.185	120.72
950.353	51.94
950.522	64.15
950.69	130.41
950.859	42.25
951.028	72.48
951.196	99.41
951.365	72.48
951.533	67.63
951.701	84.1
951.87	86.43
952.038	37.22
952.207	70.15
952.375	120.33
952.543	26.56
952.712	83.71
952.88	48.84
953.048	124.21
953.217	66.86
953.385	74.03
953.553	124.6
953.721	39.93
953.89	77.52
954.058	43.8
954.226	39.15
954.394	67.63
954.562	30.43
954.73	46.13
954.898	81.97
955.067	95.92
955.235	60.08
955.403	110.84
955.571	133.51
955.739	106.96
955.907	51.75
956.075	68.6
956.243	44.19
956.41	102.51
956.578	24.82
956.746	44.38
956.914	83.71
957.082	104.06
957.25	91.66
957.418	31.79
957.585	116.46
957.753	106.58
957.921	36.63
958.089	86.81
958.256	85.26
958.424	104.06
958.592	81.58
958.759	52.13
958.927	86.62
959.095	62.02
959.262	82.36
959.43	94.37
959.597	34.12
959.765	84.49
959.932	15.71
960.1	93.98
960.267	63.76
960.435	55.43
960.602	94.18
960.77	43.42
960.937	45.16
961.104	82.36
961.272	6.8
961.439	48.84
961.606	98.83
961.774	79.84
961.941	45.16
962.108	100.96
962.275	74.03
962.443	113.16
962.61	112.2
962.777	154.63
962.944	104.45
963.111	71.51
963.278	104.45
963.446	110.84
963.613	78.48
963.78	96.5
963.947	79.07
964.114	92.24
964.281	170.9
964.448	105.41
964.615	81
964.782	105.41
964.949	92.63
965.116	80.23
965.282	112.39
965.449	73.64
965.616	60.85
965.783	95.73
965.95	97.86
966.117	60.47
966.283	97.86
966.45	128.47
966.617	76.74
966.784	149.01
966.95	113.55
967.117	109.29
967.284	87.01
967.45	67.83
967.617	150.56
967.784	115.49
967.95	147.85
968.117	89.72
968.283	133.51
968.45	185.04
968.616	130.8
968.783	143.97
968.949	106.77
969.116	168.77
969.282	125.76
969.449	145.52
969.615	112
969.781	74.22
969.948	123.63
970.114	93.21
970.28	181.94
970.447	128.47
970.613	145.71
970.779	103.67
970.945	124.21
971.112	106
971.278	111.23
971.444	91.08
971.61	142.23
971.776	82.36
971.942	115.49
972.108	111.42
972.275	103.67
972.441	128.08
972.607	174.97
972.773	90.5
972.939	104.06
973.105	102.12
973.271	61.24
973.437	94.37
973.602	86.04
973.768	110.06
973.934	103.67
974.1	125.95
974.266	46.13
974.432	103.67
974.598	96.31
974.763	102.7
974.929	80.23
975.095	164.7
975.261	74.8
975.426	43.8
975.592	81.58
975.758	142.23
975.923	76.55
976.089	77.13
976.255	140.48
976.42	118.78
976.586	114.13
976.751	122.27
976.917	166.64
977.082	128.08
977.248	63.18
977.413	44
977.579	80.03
977.744	93.21
977.91	70.35
978.075	81.58
978.24	123.24
978.406	108.71
978.571	109.68
978.736	89.14
978.902	114.13
979.067	50.2
979.232	34.89
979.397	94.76
979.563	158.11
979.728	60.47
979.893	103.86
980.058	76.55
980.223	134.48
980.388	90.88
980.554	100.76
980.719	85.85
980.884	123.24
981.049	114.71
981.214	74.22
981.379	101.15
981.544	72.28
981.709	92.82
981.874	94.18
982.039	64.53
982.204	115.88
982.368	104.83
982.533	79.65
982.698	105.41
982.863	118.4
983.028	59.5
983.193	129.83
983.357	98.63
983.522	70.54
983.687	68.99
983.852	88.56
984.016	97.66
984.181	105.03
984.346	104.25
984.51	112
984.675	96.7
984.839	97.86
985.004	99.41
985.168	136.8
985.333	114.13
985.498	83.91
985.662	102.9
985.827	87.2
985.991	84.88
986.155	72.67
986.32	118.01
986.484	132.73
986.649	119.56
986.813	53.68
986.977	85.46
987.142	112
987.306	54.46
987.47	69.57
987.634	92.43
987.799	106
987.963	93.4
988.127	104.45
988.291	143.39
988.455	110.45
988.62	105.03
988.784	124.79
988.948	104.83
989.112	70.35
989.276	92.63
989.44	95.34
989.604	92.24
989.768	109.1
989.932	158.89
990.096	41.48
990.26	57.95
990.424	50.97
990.588	86.62
990.752	164.31
990.915	120.33
991.079	68.41
991.243	62.4
991.407	120.72
991.571	86.04
991.734	119.95
991.898	115.1
992.062	173.03
992.226	93.79
992.389	75
992.553	66.67
992.717	80.23
992.88	67.25
993.044	77.52
993.207	94.56
993.371	111.61
993.535	114.13
993.698	71.9
993.862	131.96
994.025	105.8
994.189	78.68
994.352	93.01
994.515	95.53
994.679	130.8
994.842	74.22
995.006	132.73
995.169	70.93
995.332	41.87
995.496	120.14
995.659	30.63
995.822	70.93
995.985	102.7
996.149	114.71
996.312	82.36
996.475	144.36
996.638	61.82
996.801	140.87
996.964	139.13
997.128	80.23
997.291	52.72
997.454	95.34
997.617	26.75
997.78	124.01
997.943	77.13
998.106	108.51
998.269	67.05
998.432	83.33
998.595	71.9
998.758	23.65
998.92	42.64
999.083	44.97
999.246	77.71
999.409	24.23
999.572	25.4
999.735	38.18
999.897	113.94
1000.06	55.43
1000.223	67.44
1000.386	93.6
1000.548	96.89
1000.711	84.1
1000.874	59.3
1001.036	44
1001.199	75.77
1001.361	50.2
1001.524	61.43
1001.687	108.71
1001.849	41.28
1002.012	69.18
1002.174	55.04
1002.337	90.11
1002.499	73.83
1002.661	99.21
1002.824	43.8
1002.986	44.58
1003.149	81.39
1003.311	41.67
1003.473	108.9
1003.636	29.47
1003.798	87.98
1003.96	98.83
1004.123	61.82
1004.285	37.41
1004.447	95.34
1004.609	53.1
1004.771	105.8
1004.933	25.59
1005.096	25.01
1005.258	16.1
1005.42	17.26
1005.582	127.31
1005.744	66.28
1005.906	17.26
1006.068	46.32
1006.23	14.93
1006.392	22.49
1006.554	47.29
1006.716	88.95
1006.878	75.97
1007.04	21.52
1007.202	30.43
1007.363	42.25
1007.525	70.73
1007.687	66.67
1007.849	107.74
1008.011	15.71
1008.172	22.49
1008.334	27.92
1008.496	56.01
1008.658	-0.76
1008.819	27.92
1008.981	15.13
1009.143	26.56
1009.304	48.07
1009.466	37.02
1009.627	97.47
1009.789	146.49
1009.95	48.45
1010.112	51.94
1010.273	53.68
1010.435	19.97
1010.596	42.64
1010.758	29.27
1010.919	58.72
1011.081	20.75
1011.242	43.03
1011.403	62.98
1011.565	41.67
1011.726	65.31
1011.887	23.07
1012.049	66.47
1012.21	63.76
1012.371	92.05
1012.532	5.05
1012.693	45.74
1012.855	16.48
1013.016	55.04
1013.177	77.32
1013.338	34.31
1013.499	96.89
1013.66	39.54
1013.821	69.77
1013.982	65.5
1014.143	42.83
1014.304	37.8
1014.465	53.3
1014.626	56.2
1014.787	25.98
1014.948	111.81
1015.109	-22.26
1015.27	77.52
1015.431	28.11
1015.592	4.08
1015.752	78.48
1015.913	38.18
1016.074	35.28
1016.235	19.39
1016.395	49.03
1016.556	18.42
1016.717	27.53
1016.877	61.82
1017.038	27.72
1017.199	63.18
1017.359	48.45
1017.52	51.75
1017.681	45.35
1017.841	23.27
1018.002	29.08
1018.162	-6.57
1018.323	108.51
1018.483	15.71
1018.644	37.6
1018.804	7.18
1018.964	7.18
1019.125	-7.54
1019.285	71.32
1019.446	8.35
1019.606	-24.78
1019.766	5.05
1019.926	42.83
1020.087	52.33
1020.247	-0.18
1020.407	57.56
1020.567	78.87
1020.728	30.43
1020.888	10.48
1021.048	11.83
1021.208	17.65
1021.368	-1.34
1021.528	79.07
1021.688	45.55
1021.848	55.62
1022.008	25.2
1022.168	31.21
1022.328	39.15
1022.488	46.32
1022.648	-9.28
1022.808	24.04
1022.968	49.42
1023.128	11.25
1023.288	27.33
1023.448	2.15
1023.608	35.47
1023.767	29.08
1023.927	1.76
1024.087	-10.06
1024.247	-10.25
1024.406	18.62
1024.566	6.41
1024.726	-5.22
1024.885	28.3
1025.045	47.68
1025.205	-2.89
1025.364	10.67
1025.524	23.07
1025.683	-4.44
1025.843	37.22
1026.003	27.53
1026.162	63.57
1026.321	54.07
1026.481	21.91
1026.64	16.1
1026.8	41.87
1026.959	13.77
1027.119	55.82
1027.278	4.67
1027.437	9.51
1027.597	12.03
1027.756	57.75
1027.915	46.9
1028.074	25.2
1028.234	-18
1028.393	35.86
1028.552	26.37
1028.711	-43.96
1028.87	36.83
1029.03	-24.01
1029.189	0.21
1029.348	-28.66
1029.507	-15.48
1029.666	9.32
1029.825	-8.12
1029.984	-6.57
1030.143	45.74
1030.302	13.58
1030.461	-49
1030.62	17.45
1030.779	54.85
1030.938	16.1
1031.097	-29.63
1031.255	28.88
1031.414	53.49
1031.573	62.21
1031.732	-2.7
1031.891	20.55
1032.049	63.37
1032.208	34.31
1032.367	-6.18
1032.525	30.05
1032.684	6.02
1032.843	24.23
1033.001	-6.38
1033.16	156.95
1033.319	59.88
1033.477	61.43
1033.636	23.85
1033.794	-24.98
1033.953	27.14
1034.111	47.48
1034.27	-7.35
1034.428	22.68
1034.587	-25.56
1034.745	31.98
1034.903	7.77
1035.062	43.61
1035.22	-19.36
1035.378	53.68
1035.537	-9.48
1035.695	45.74
1035.853	-5.22
1036.011	35.08
1036.17	6.41
1036.328	-27.11
1036.486	26.17
1036.644	47.29
1036.802	-52.1
1036.96	-6.38
1037.119	-14.32
1037.277	13.38
1037.435	-40.67
1037.593	17.26
1037.751	31.02
1037.909	64.34
1038.067	64.34
