Data from gum_young_FLMT105791__19__17-38-18-045.txt Node

Date: Mon Mar 20 17:38:18 GMT 2023
User: antho
Spectrometer: FLMT10579
Trigger mode: 0
Integration Time (sec): 1.000000E-1
Scans to average: 10
Electric dark correction enabled: true
Nonlinearity correction enabled: false
Boxcar width: 0
XAxis mode: Wavelengths
Number of Pixels in Spectrum: 3648
>>>>>Begin Spectral Data<<<<<
345.248	-152.87
345.464	-152.87
345.681	-152.87
345.898	-144.92
346.114	-161.59
346.331	-24.22
346.548	16.08
346.764	-7.36
346.981	1.55
347.197	-0.39
347.414	8.14
347.631	3.29
347.847	51.54
348.064	-2.52
348.28	10.27
348.497	-54.06
348.713	-2.32
348.93	32.74
349.146	23.64
349.363	-0.97
349.579	6.97
349.796	-2.13
350.012	-10.07
350.229	28.87
350.445	12.59
350.661	-12.01
350.878	25.77
351.094	7.94
351.311	12.4
351.527	21.89
351.743	5.04
351.96	51.54
352.176	49.41
352.392	12.01
352.609	37.78
352.825	-17.44
353.041	7.56
353.257	-14.34
353.474	26.35
353.69	-10.27
353.906	15.5
354.122	-31.39
354.339	65.49
354.555	-6.97
354.771	-3.87
354.987	70.52
355.203	62.19
355.42	-4.07
355.636	0.19
355.852	-10.27
356.068	-11.82
356.284	-45.92
356.5	32.16
356.716	18.02
356.932	-2.52
357.148	32.74
357.364	12.4
357.58	43.01
357.796	66.65
358.012	55.41
358.228	24.61
358.444	-36.23
358.66	21.12
358.876	33.91
359.092	-34.87
359.308	17.63
359.524	12.59
359.74	1.74
359.956	0.39
360.172	5.04
360.388	32.94
360.604	3.68
360.819	54.06
361.035	22.28
361.251	41.85
361.467	-0.58
361.683	61.42
361.898	26.35
362.114	47.27
362.33	20.54
362.546	40.69
362.762	16.47
362.977	5.04
363.193	-25.19
363.409	31.77
363.624	-27.71
363.84	-11.24
364.056	0.19
364.271	6.01
364.487	24.02
364.703	18.21
364.918	-12.01
365.134	-22.09
365.35	-3.87
365.565	75.95
365.781	39.52
365.996	18.99
366.212	60.26
366.427	49.02
366.643	11.82
366.858	-7.36
367.074	-25.19
367.289	65.68
367.505	74.4
367.72	-27.32
367.936	5.23
368.151	65.1
368.367	30.22
368.582	-2.91
368.798	8.14
369.013	51.34
369.228	29.26
369.444	20.15
369.659	72.07
369.874	20.34
370.09	49.41
370.305	-28.48
370.52	-11.43
370.736	61.03
370.951	-8.91
371.166	43.79
371.381	79.44
371.597	48.44
371.812	-3.87
372.027	-11.82
372.242	6.39
372.458	47.66
372.673	3.29
372.888	19.57
373.103	2.32
373.318	94.35
373.533	30.42
373.749	37.97
373.964	-44.37
374.179	54.44
374.394	0.77
374.609	54.44
374.824	0.39
375.039	55.02
375.254	11.43
375.469	56.38
375.684	32.55
375.899	62.39
376.114	19.76
376.329	36.62
376.544	50.18
376.759	54.25
376.974	-5.42
377.189	21.12
377.404	-9.11
377.619	50.18
377.834	-22.67
378.049	-30.42
378.264	-5.23
378.478	37.39
378.693	-2.52
378.908	36.62
379.123	10.27
379.338	48.24
379.553	44.95
379.767	26.16
379.982	40.88
380.197	31.39
380.412	4.46
380.626	42.24
380.841	94.94
381.056	58.12
381.271	83.7
381.485	-4.07
381.7	11.62
381.915	24.99
382.129	17.44
382.344	40.69
382.559	21.89
382.773	55.99
382.988	-16.08
383.202	14.14
383.417	9.88
383.632	110.63
383.846	34.68
384.061	21.89
384.275	25.96
384.49	48.63
384.704	49.41
384.919	39.72
385.133	24.22
385.348	46.5
385.562	-2.13
385.777	36.42
385.991	24.22
386.206	18.6
386.42	8.72
386.634	70.91
386.849	42.24
387.063	33.52
387.277	-24.99
387.492	16.27
387.706	-0.39
387.92	6.78
388.135	66.07
388.349	40.49
388.563	38.17
388.778	26.54
388.992	35.65
389.206	48.24
389.42	78.86
389.635	17.82
389.849	53.67
390.063	89.9
390.277	30.42
390.491	118.96
390.706	58.9
390.92	61.61
391.134	30.22
391.348	71.69
391.562	-27.71
391.776	21.51
391.99	-8.91
392.205	91.25
392.419	8.91
392.633	25.77
392.847	60.84
393.061	25.57
393.275	95.13
393.489	11.82
393.703	28.67
393.917	74.59
394.131	16.86
394.345	44.37
394.559	45.92
394.773	24.8
394.986	35.26
395.2	49.99
395.414	36.23
395.628	18.99
395.842	38.56
396.056	28.87
396.27	-10.85
396.484	64.32
396.697	54.83
396.911	76.14
397.125	63.55
397.339	83.7
397.553	66.26
397.766	98.62
397.98	44.76
398.194	60.84
398.408	50.96
398.621	72.27
398.835	68.01
399.049	45.34
399.262	66.07
399.476	78.66
399.69	65.87
399.903	106.17
400.117	30.61
400.331	59.09
400.544	34.49
400.758	147.05
400.971	76.92
401.185	61.22
401.398	60.26
401.612	115.09
401.826	83.51
402.039	80.21
402.253	37.59
402.466	79.44
402.68	33.71
402.893	87.77
403.106	67.23
403.32	51.34
403.533	91.84
403.747	85.64
403.96	54.83
404.174	93.77
404.387	35.07
404.6	89.51
404.814	90.87
405.027	70.14
405.24	69.56
405.454	48.05
405.667	88.93
405.88	19.18
406.094	69.56
406.307	69.75
406.52	87.96
406.733	40.3
406.947	40.11
407.16	144.92
407.373	110.24
407.586	49.99
407.799	63.16
408.012	84.09
408.226	99.59
408.439	113.54
408.652	52.51
408.865	97.07
409.078	96.87
409.291	98.04
409.504	50.76
409.717	99.59
409.93	92.61
410.143	88.74
410.357	26.74
410.57	43.21
410.783	86.41
410.996	87.96
411.209	61.61
411.421	117.02
411.634	86.8
411.847	47.08
412.06	77.5
412.273	90.67
412.486	65.29
412.699	158.1
412.912	89.32
413.125	130.78
413.338	80.21
413.55	114.31
413.763	80.02
413.976	105.01
414.189	48.82
414.402	93.19
414.615	124.97
414.827	65.68
415.04	111.79
415.253	120.51
415.466	117.99
415.678	168.37
415.891	95.71
416.104	95.52
416.316	95.52
416.529	89.51
416.742	102.49
416.954	127.68
417.167	84.28
417.38	96.29
417.592	133.69
417.805	43.98
418.017	61.81
418.23	124.39
418.442	88.15
418.655	82.34
418.868	89.32
419.08	136.59
419.293	128.26
419.505	117.8
419.718	101.72
419.93	158.49
420.142	121.09
420.355	138.92
420.567	124.97
420.78	140.85
420.992	97.45
421.205	172.63
421.417	93.58
421.629	93.97
421.842	77.11
422.054	74.59
422.266	126.71
422.479	126.13
422.691	82.34
422.903	138.92
423.115	84.67
423.328	103.65
423.54	122.84
423.752	123.42
423.964	94.16
424.177	120.51
424.389	110.63
424.601	193.94
424.813	103.85
425.025	155.19
425.238	149.57
425.45	91.25
425.662	120.32
425.874	363.66
426.086	72.66
426.298	148.6
426.51	125.55
426.722	142.4
426.934	101.52
427.146	159.26
427.358	87.77
427.57	157.32
427.782	114.89
427.994	111.79
428.206	102.69
428.418	109.47
428.63	132.52
428.842	163.72
429.054	135.43
429.266	165.46
429.478	81.18
429.69	116.83
429.902	100.36
430.114	127.1
430.325	122.64
430.537	95.32
430.749	125.35
430.961	59.48
431.173	91.45
431.384	130.78
431.596	41.85
431.808	128.84
432.02	128.45
432.231	169.53
432.443	157.71
432.655	124.19
432.867	116.44
433.078	147.05
433.29	186.77
433.502	148.8
433.713	200.14
433.925	148.99
434.136	187.35
434.348	99.78
434.56	109.47
434.771	237.53
434.983	109.47
435.194	104.82
435.406	131.36
435.617	174.95
435.829	206.34
436.04	169.14
436.252	182.9
436.463	191.42
436.675	182.32
436.886	182.12
437.098	184.06
437.309	210.99
437.521	154.8
437.732	161.97
437.943	177.86
438.155	155
438.366	113.73
438.578	203.82
438.789	183.67
439	179.99
439.211	138.14
439.423	168.17
439.634	188.13
439.845	205.18
440.057	175.73
440.268	186.58
440.479	171.08
440.69	184.83
440.902	165.85
441.113	196.85
441.324	150.54
441.535	198.98
441.746	238.12
441.957	174.57
442.168	179.02
442.38	200.53
442.591	231.72
442.802	184.45
443.013	171.27
443.224	174.18
443.435	195.88
443.646	168.75
443.857	186.38
444.068	174.95
444.279	162.55
444.49	282.68
444.701	185.22
444.912	298.95
445.123	224.17
445.334	211.18
445.545	200.33
445.756	173.21
445.967	166.62
446.178	199.17
446.388	235.98
446.599	222.62
446.81	236.76
447.021	165.65
447.232	255.75
447.443	236.57
447.653	196.07
447.864	235.21
448.075	230.95
448.286	254.2
448.496	218.16
448.707	259.43
448.918	213.32
449.129	288.3
449.339	224.36
449.55	223
449.761	218.74
449.971	263.3
450.182	226.68
450.393	257.3
450.603	219.52
450.814	274.54
451.024	253.23
451.235	301.86
451.446	312.9
451.656	297.6
451.867	199.95
452.077	272.41
452.288	280.16
452.498	303.6
452.709	241.02
452.919	289.65
453.13	217.58
453.34	313.87
453.55	220.1
453.761	267.56
453.971	262.33
454.182	286.55
454.392	272.02
454.602	322.4
454.813	252.26
455.023	314.26
455.233	260.98
455.444	275.9
455.654	218.16
455.864	265.43
456.075	245.87
456.285	255.75
456.495	288.88
456.705	302.63
456.916	331.89
457.126	343.32
457.336	246.64
457.546	235.6
457.756	256.33
457.967	321.04
458.177	276.28
458.387	290.43
458.597	260.59
458.807	289.46
459.017	261.95
459.227	276.86
459.437	278.61
459.647	287.33
459.857	309.22
460.068	264.08
460.278	298.56
460.488	320.07
460.698	329.76
460.908	281.9
461.117	255.36
461.327	265.43
461.537	265.05
461.747	300.31
461.957	299.15
462.167	391.37
462.377	316.58
462.587	312.13
462.797	341.19
463.007	317.16
463.216	345.84
463.426	351.26
463.636	356.88
463.846	263.69
464.056	279.58
464.265	352.62
464.475	287.52
464.685	318.52
464.895	335.76
465.104	312.9
465.314	319.68
465.524	319.49
465.733	286.55
465.943	380.71
466.153	385.94
466.362	359.01
466.572	329.18
466.782	307.09
466.991	337.7
467.201	376.64
467.41	301.08
467.62	324.72
467.829	329.95
468.039	359.4
468.249	368.51
468.458	315.23
468.668	325.69
468.877	355.53
469.086	380.13
469.296	358.43
469.505	326.66
469.715	435.54
469.924	399.31
470.134	383.81
470.343	349.33
470.552	344.48
470.762	363.08
470.971	340.41
471.18	344.29
471.39	360.76
471.599	328.01
471.808	375.09
472.018	351.46
472.227	400.67
472.436	430.51
472.645	353.39
472.855	381.49
473.064	419.08
473.273	390.01
473.482	423.92
473.691	432.44
473.901	420.82
474.11	401.06
474.319	486.11
474.528	420.04
474.737	435.93
474.946	414.62
475.155	428.57
475.364	480.88
475.573	429.93
475.783	425.08
475.992	445.42
476.201	460.15
476.41	437.48
476.619	388.08
476.828	429.34
477.037	445.04
477.245	436.51
477.454	483.21
477.663	470.03
477.872	426.24
478.081	527.77
478.29	429.34
478.499	523.89
478.708	467.9
478.917	519.63
479.125	474.1
479.334	472.55
479.543	455.69
479.752	503.16
479.961	498.9
480.169	534.35
480.378	514.01
480.587	601.78
480.796	523.31
481.004	525.25
481.213	522.15
481.422	535.9
481.63	540.55
481.839	530.29
482.048	607.79
482.256	534.35
482.465	549.47
482.674	556.64
482.882	611.66
483.091	616.31
483.299	579.69
483.508	579.5
483.716	588.22
483.925	584.15
484.134	528.35
484.342	551.6
484.551	594.61
484.759	584.92
484.967	565.16
485.176	625.8
485.384	599.07
485.593	601.2
485.801	585.5
486.01	537.84
486.218	548.3
486.426	496.57
486.635	533.97
486.843	531.45
487.051	554.5
487.26	538.04
487.468	582.4
487.676	596.35
487.885	591.7
488.093	610.89
488.301	602.94
488.509	642.85
488.717	650.02
488.926	630.84
489.134	597.32
489.342	607.79
489.55	622.51
489.758	608.75
489.967	624.64
490.175	737.6
490.383	688.38
490.591	708.53
490.799	642.85
491.007	679.67
491.215	702.33
491.423	686.25
491.631	649.05
491.839	671.92
492.047	707.95
492.255	633.75
492.463	618.44
492.671	696.33
492.879	725.58
493.087	696.13
493.295	724.81
493.503	712.8
493.711	739.73
493.919	747.28
494.127	767.63
494.334	747.09
494.542	713.76
494.75	753.1
494.958	729.26
495.166	762.2
495.374	772.66
495.581	744.76
495.789	778.28
495.997	828.27
496.205	747.28
496.412	732.75
496.62	797.66
496.828	775.38
497.035	753.1
497.243	828.27
497.451	782.93
497.658	825.75
497.866	827.3
498.074	864.69
498.281	765.69
498.489	865.86
498.696	806.76
498.904	820.91
499.112	789.71
499.319	864.5
499.527	818.58
499.734	850.74
499.942	804.05
500.149	813.93
500.357	851.71
500.564	830.01
500.771	832.73
500.979	819.16
501.186	803.86
501.394	843.96
501.601	826.14
501.808	857.33
502.016	840.48
502.223	793.2
502.43	848.23
502.638	878.26
502.845	857.72
503.052	921.07
503.26	831.56
503.467	958.27
503.674	878.84
503.881	915.46
504.089	940.26
504.296	904.02
504.503	864.69
504.71	922.82
504.917	887.75
505.125	930.57
505.332	947.42
505.539	956.92
505.746	1020.66
505.953	1005.74
506.16	1015.04
506.367	1036.74
506.574	1070.84
506.781	1048.75
506.988	988.5
507.195	1008.26
507.402	995.09
507.609	1053.02
507.816	1017.17
508.023	1015.24
508.23	1018.14
508.437	1039.26
508.644	1077.23
508.851	1082.85
509.058	1106.88
509.265	1065.42
509.472	1118.12
509.679	1211.5
509.885	1103.2
510.092	1107.85
510.299	1111.72
510.506	1105.91
510.713	1173.53
510.92	1159.77
511.126	1147.95
511.333	1218.09
511.54	1184.57
511.746	1234.56
511.953	1257.81
512.16	1234.94
512.367	1195.61
512.573	1211.5
512.78	1228.55
512.987	1173.91
513.193	1233.2
513.4	1182.44
513.606	1222.93
513.813	1243.47
514.02	1248.31
514.226	1312.64
514.433	1300.82
514.639	1229.52
514.846	1253.54
515.052	1269.24
515.259	1273.69
515.465	1287.06
515.672	1281.83
515.878	1393.62
516.085	1301.4
516.291	1348.09
516.497	1314.38
516.704	1338.99
516.91	1257.81
517.117	1196.58
517.323	1143.88
517.529	1255.68
517.736	1228.16
517.942	1292.1
518.148	1260.52
518.354	1301.21
518.561	1295.98
518.767	1327.17
518.973	1368.05
519.179	1391.11
519.386	1353.52
519.592	1384.13
519.798	1403.7
520.004	1490.3
520.21	1455.43
520.417	1519.75
520.623	1531.96
520.829	1562.57
521.035	1510.45
521.241	1578.07
521.447	1590.08
521.653	1662.16
521.859	1558.12
522.065	1586.4
522.271	1704.2
522.477	1654.21
522.683	1675.14
522.889	1648.01
523.095	1649.37
523.301	1658.28
523.507	1632.51
523.713	1692.96
523.919	1633.1
524.125	1718.93
524.331	1724.74
524.537	1802.43
524.742	1814.06
524.948	1809.6
525.154	1818.9
525.36	1904.15
525.566	1813.67
525.772	1891.94
525.977	1789.64
526.183	1816.57
526.389	1876.25
526.595	1772.01
526.8	1747.99
527.006	1729.19
527.212	1709.04
527.417	1659.06
527.623	1666.61
527.829	1778.6
528.034	1825.68
528.24	1794.1
528.446	1818.71
528.651	1867.92
528.857	1905.12
529.062	1958.59
529.268	1969.63
529.473	1960.14
529.679	1953.75
529.884	2063.8
530.09	2012.26
530.295	2013.03
530.501	2016.52
530.706	2001.8
530.912	1971.96
531.117	2049.85
531.323	2034.15
531.528	2074.26
531.733	2075.03
531.939	2022.33
532.144	2093.25
532.35	2056.05
532.555	2077.94
532.76	2059.34
532.966	2033.18
533.171	2034.15
533.376	2003.73
533.581	1984.17
533.787	2031.25
533.992	2117.85
534.197	2045.97
534.402	2082.59
534.607	2098.67
534.813	2174.04
535.018	2094.21
535.223	2123.28
535.428	2124.05
535.633	2198.06
535.838	2209.49
536.043	2155.83
536.249	2242.24
536.454	2167.64
536.659	2205.04
536.864	2191.47
537.069	2147.49
537.274	2168.42
537.479	2201.16
537.684	2210.07
537.889	2139.36
538.094	2268.39
538.299	2193.61
538.504	2244.37
538.708	2241.66
538.913	2256.77
539.118	2226.16
539.323	2203.68
539.528	2174.43
539.733	2200.97
539.938	2206.2
540.142	2198.45
540.347	2188.57
540.552	2155.44
540.757	2197.67
540.962	2158.15
541.166	2114.36
541.371	2152.73
541.576	2183.73
541.781	2105.26
541.985	2198.06
542.19	2173.84
542.395	2274.4
542.599	2322.25
542.804	2248.63
543.008	2274.01
543.213	2222.09
543.418	2222.86
543.622	2254.64
543.827	2198.84
544.031	2333.49
544.236	2271.3
544.44	2323.03
544.645	2392.2
544.849	2298.81
545.054	2325.94
545.258	2393.36
545.463	2355.19
545.667	2276.34
545.872	2334.07
546.076	2342.6
546.281	2317.6
546.485	2300.75
546.689	2311.79
546.894	2329.62
547.098	2336.59
547.302	2297.26
547.507	2313.54
547.711	2396.65
547.915	2394.33
548.119	2291.45
548.324	2308.11
548.528	2351.7
548.732	2334.85
548.936	2375.34
549.141	2364.1
549.345	2329.04
549.549	2336.2
549.753	2366.23
549.957	2417.97
550.161	2430.56
550.366	2366.62
550.57	2340.08
550.774	2343.57
550.978	2381.35
551.182	2392
551.386	2349.57
551.59	2377.67
551.794	2302.1
551.998	2390.45
552.202	2352.29
552.406	2341.63
552.61	2385.22
552.814	2373.02
553.018	2433.66
553.222	2349.19
553.426	2361.39
553.63	2414.28
553.833	2360.42
554.037	2340.27
554.241	2429.2
554.445	2414.87
554.649	2400.53
554.853	2368.56
555.056	2395.3
555.26	2433.47
555.464	2386.77
555.668	2396.85
555.871	2414.48
556.075	2427.27
556.279	2368.17
556.483	2348.22
556.686	2369.53
556.89	2344.15
557.094	2358.29
557.297	2292.03
557.501	2345.89
557.704	2297.26
557.908	2364.3
558.112	2284.47
558.315	2375.53
558.519	2301.72
558.722	2290.87
558.926	2277.69
559.129	2238.94
559.333	2193.61
559.536	2194.77
559.74	2179.46
559.943	2221.7
560.147	2178.3
560.35	2200
560.553	2218.79
560.757	2167.84
560.96	2273.24
561.164	2203.87
561.367	2296.1
561.57	2254.25
561.774	2239.52
561.977	2200.97
562.18	2211.82
562.384	2326.13
562.587	2218.02
562.79	2223.64
562.993	2189.34
563.197	2227.71
563.4	2266.84
563.603	2230.61
563.806	2305.79
564.009	2187.21
564.212	2229.26
564.416	2126.18
564.619	2179.66
564.822	2151.95
565.025	2200.19
565.228	2130.25
565.431	2188.37
565.634	2071.93
565.837	2113.59
566.04	2057.4
566.243	2071.74
566.446	1959.17
566.649	2105.64
566.852	1997.92
567.055	2058.18
567.258	2080.46
567.461	2108.94
567.664	2118.63
567.867	2066.9
568.07	2089.76
568.273	2094.8
568.475	2094.8
568.678	2029.31
568.881	2037.45
569.084	2007.22
569.287	1913.06
569.489	1962.47
569.692	1989.78
569.895	1991.92
570.098	1944.25
570.3	1898.14
570.503	1894.65
570.706	1872.76
570.909	1898.34
571.111	1852.22
571.314	1831.3
571.516	1842.54
571.719	1888.45
571.922	1851.45
572.124	1850.09
572.327	1885.74
572.529	1825.87
572.732	1848.74
572.935	1852.8
573.137	1929.53
573.34	1820.26
573.542	1896.2
573.745	1845.05
573.947	1880.9
574.15	1840.79
574.352	1778.21
574.554	1880.32
574.757	1794.49
574.959	1766.01
575.162	1783.64
575.364	1780.92
575.566	1817.74
575.769	1747.79
575.971	1780.73
576.173	1673.2
576.376	1744.69
576.578	1774.34
576.78	1769.88
576.982	1696.26
577.185	1697.61
577.387	1708.27
577.589	1675.14
577.791	1739.46
577.993	1743.92
578.196	1707.49
578.398	1739.08
578.6	1714.08
578.802	1675.91
579.004	1654.6
579.206	1690.64
579.408	1688.31
579.61	1651.89
579.812	1723.77
580.014	1641.81
580.216	1656.15
580.418	1705.36
580.62	1685.02
580.822	1664.87
581.024	1690.25
581.226	1731.33
581.428	1687.34
581.63	1788.48
581.832	1698.97
582.034	1763.1
582.236	1692.38
582.438	1707.11
582.64	1749.15
582.841	1746.24
583.043	1791.97
583.245	1713.89
583.447	1766.78
583.649	1725.13
583.85	1732.68
584.052	1762.91
584.254	1665.06
584.456	1746.24
584.657	1705.94
584.859	1751.47
585.061	1672.04
585.262	1717.76
585.464	1647.05
585.666	1698
585.867	1659.83
586.069	1699.94
586.27	1693.74
586.472	1664.68
586.674	1652.47
586.875	1638.91
587.077	1658.28
587.278	1633.87
587.48	1641.62
587.681	1722.22
587.883	1647.82
588.084	1613.14
588.285	1615.46
588.487	1584.27
588.688	1607.13
588.89	1495.15
589.091	1436.25
589.292	1487.01
589.494	1425.2
589.695	1414.35
589.896	1346.54
590.098	1368.05
590.299	1424.82
590.5	1408.15
590.702	1416.1
590.903	1477.9
591.104	1543.39
591.305	1508.9
591.507	1546.49
591.708	1497.47
591.909	1480.81
592.11	1559.47
592.311	1515.3
592.512	1487.59
592.714	1438.77
592.915	1472.67
593.116	1504.64
593.317	1509.29
593.518	1465.31
593.719	1514.13
593.92	1524.79
594.121	1555.02
594.322	1492.24
594.523	1497.28
594.724	1485.46
594.925	1464.15
595.126	1500.96
595.327	1512.2
595.528	1481.2
595.729	1487.2
595.929	1460.27
596.13	1483.33
596.331	1533.32
596.532	1501.93
596.733	1551.33
596.934	1515.1
597.135	1562.38
597.335	1504.83
597.536	1485.85
597.737	1490.88
597.938	1469.96
598.138	1526.34
598.339	1511.81
598.54	1515.49
598.74	1506.97
598.941	1519.56
599.142	1528.28
599.342	1509.29
599.543	1461.63
599.744	1506.77
599.944	1485.46
600.145	1547.65
600.345	1481.2
600.546	1565.48
600.746	1566.45
600.947	1570.9
601.147	1493.4
601.348	1549.4
601.548	1478.87
601.749	1469.96
601.949	1436.05
602.15	1469.38
602.35	1479.26
602.551	1510.45
602.751	1450.2
602.951	1465.5
603.152	1426.95
603.352	1529.63
603.552	1493.6
603.753	1486.62
603.953	1523.63
604.153	1495.34
604.354	1496.12
604.554	1510.65
604.754	1493.98
604.954	1460.08
605.155	1481.78
605.355	1461.63
605.555	1483.91
605.755	1552.5
605.955	1485.27
606.155	1514.33
606.356	1469.77
606.556	1522.47
606.756	1542.42
606.956	1455.62
607.156	1517.82
607.356	1439.54
607.556	1489.14
607.756	1462.99
607.956	1532.93
608.156	1481.97
608.356	1447.68
608.556	1486.82
608.756	1435.67
608.956	1438.38
609.156	1453.88
609.356	1388.97
609.556	1423.27
609.755	1444.19
609.955	1399.63
610.155	1418.62
610.355	1414.94
610.555	1394.98
610.755	1420.55
610.954	1343.64
611.154	1447.29
611.354	1424.43
611.554	1385.1
611.753	1388.78
611.953	1331.43
612.153	1434.12
612.352	1377.35
612.552	1368.24
612.752	1331.43
612.951	1362.24
613.151	1365.53
613.351	1328.52
613.55	1362.62
613.75	1398.08
613.949	1335.11
614.149	1395.56
614.348	1332.59
614.548	1297.91
614.747	1295.01
614.947	1319.22
615.146	1249.09
615.346	1348.29
615.545	1329.69
615.745	1312.25
615.944	1304.89
616.144	1309.54
616.343	1336.66
616.542	1267.49
616.742	1276.41
616.941	1282.03
617.14	1241.73
617.34	1294.81
617.539	1294.04
617.738	1273.69
617.938	1351.39
618.137	1280.86
618.336	1248.7
618.535	1313.02
618.734	1272.73
618.934	1286.68
619.133	1280.28
619.332	1336.08
619.531	1259.94
619.73	1285.32
619.929	1338.21
620.128	1302.18
620.328	1328.52
620.527	1262.65
620.726	1254.9
620.925	1277.96
621.124	1270.59
621.323	1276.99
621.522	1238.82
621.721	1234.94
621.92	1215.76
622.119	1273.31
622.318	1198.71
622.517	1219.25
622.715	1218.28
622.914	1194.84
623.113	1226.23
623.312	1157.64
623.511	1249.28
623.71	1204.72
623.909	1194.06
624.107	1257.61
624.306	1187.67
624.505	1182.44
624.704	1171.78
624.902	1161.13
625.101	1197.16
625.3	1181.86
625.499	1154.35
625.697	1184.38
625.896	1149.11
626.095	1164.23
626.293	1139.81
626.492	1148.34
626.69	1167.91
626.889	1167.71
627.088	1168.49
627.286	1152.21
627.485	1111.53
627.683	1137.68
627.882	1125.67
628.08	1046.24
628.279	1086.34
628.477	1114.05
628.676	1068.9
628.874	1134.39
629.073	1075.3
629.271	1064.45
629.469	1098.35
629.668	1072.78
629.866	1108.23
630.065	1101.45
630.263	1123.35
630.461	1062.51
630.66	1070.84
630.858	1128.19
631.056	1145.43
631.254	1151.05
631.453	1082.85
631.651	1114.05
631.849	1108.43
632.047	1109.4
632.245	1108.23
632.444	1132.65
632.642	1127.61
632.84	1140.2
633.038	1130.71
633.236	1091.38
633.434	1082.47
633.632	1083.82
633.83	1108.82
634.028	1149.31
634.227	1103.78
634.425	1171.98
634.623	1106.3
634.821	1131.29
635.019	1119.28
635.216	1114.05
635.414	1128.97
635.612	1113.08
635.81	1139.04
636.008	1147.18
636.206	1101.45
636.404	1122.96
636.602	1084.4
636.8	1127.61
636.997	1151.83
637.195	1128.38
637.393	1131.29
637.591	1157.45
637.789	1123.54
637.986	1143.69
638.184	1125.87
638.382	1135.75
638.58	1160.55
638.777	1161.9
638.975	1117.73
639.173	1091.38
639.37	1134.39
639.568	1098.35
639.765	1135.55
639.963	1083.63
640.161	1143.5
640.358	1106.1
640.556	1039.07
640.753	1050.88
640.951	1035.19
641.148	1064.45
641.346	1041.59
641.543	1059.8
641.741	1058.63
641.938	1033.45
642.136	1041.2
642.333	1009.62
642.531	1109.01
642.728	1064.83
642.925	1037.71
643.123	1016.59
643.32	1033.06
643.517	1038.87
643.715	1025.5
643.912	989.85
644.109	1010.78
644.306	982.88
644.504	969.51
644.701	1030.54
644.898	1049.53
645.095	984.82
645.293	974.74
645.49	986.17
645.687	1000.32
645.884	983.46
646.081	930.18
646.278	925.92
646.475	955.76
646.672	936.19
646.87	978.62
647.067	941.81
647.264	966.41
647.461	881.94
647.658	873.61
647.855	940.26
648.052	851.91
648.249	815.29
648.446	882.71
648.642	877.87
648.839	865.66
649.036	878.26
649.233	832.92
649.43	818
649.627	802.31
649.824	801.34
650.021	842.99
650.217	870.31
650.414	856.36
650.611	867.79
650.808	854.43
651.004	855.2
651.201	867.79
651.398	904.99
651.595	830.98
651.791	824.59
651.988	857.33
652.185	842.03
652.381	869.93
652.578	793.98
652.775	848.61
652.971	827.88
653.168	847.64
653.364	876.9
653.561	785.65
653.757	828.27
653.954	849.19
654.15	813.74
654.347	898.21
654.543	828.46
654.74	794.17
654.936	766.66
655.133	829.04
655.329	830.98
655.525	802.69
655.722	802.89
655.918	762.98
656.115	800.56
656.311	717.45
656.507	678.5
656.704	663.97
656.9	698.65
657.096	684.51
657.292	704.46
657.489	746.31
657.685	745.73
657.881	734.88
658.077	738.37
658.273	772.28
658.47	822.65
658.666	766.85
658.862	809.86
659.058	730.81
659.254	795.91
659.45	754.45
659.646	793.01
659.842	770.15
660.038	793.98
660.234	744.38
660.43	768.4
660.626	808.7
660.822	792.23
661.018	775.38
661.214	768.4
661.41	714.15
661.606	795.91
661.802	793.01
661.998	756.2
662.194	726.16
662.39	745.54
662.586	760.26
662.781	766.08
662.977	785.45
663.173	767.43
663.369	727.13
663.564	741.47
663.76	773.63
663.956	730.81
664.152	736.63
664.347	671.72
664.543	726.16
664.739	689.74
664.934	652.35
665.13	646.73
665.326	723.65
665.521	734.88
665.717	715.31
665.912	664.36
666.108	621.93
666.304	666.49
666.499	670.95
666.695	602.94
666.89	673.08
667.086	709.7
667.281	711.63
667.477	731.59
667.672	665.72
667.867	654.48
668.063	655.06
668.258	642.47
668.454	656.03
668.649	700.01
668.844	647.7
669.04	677.15
669.235	630.26
669.43	655.83
669.626	644.79
669.821	616.31
670.016	607.4
670.211	667.85
670.407	607.2
670.602	631.81
670.797	632.58
670.992	677.92
671.187	592.67
671.382	635.3
671.578	583.57
671.773	647.7
671.968	588.22
672.163	605.65
672.358	654.87
672.553	596.16
672.748	619.02
672.943	671.72
673.138	609.14
673.333	642.47
673.528	596.16
673.723	626
673.918	580.85
674.113	584.15
674.308	664.75
674.503	655.25
674.698	668.43
674.892	621.73
675.087	656.22
675.282	606.04
675.477	615.53
675.672	618.63
675.867	602.94
676.061	570.2
676.256	566.52
676.451	586.47
676.646	611.85
676.84	572.72
677.035	559.54
677.23	586.28
677.424	621.15
677.619	629.68
677.814	613.6
678.008	645.57
678.203	567.49
678.397	571.36
678.592	600.81
678.787	629.48
678.981	575.82
679.176	618.63
679.37	578.53
679.565	565.16
679.759	588.8
679.954	615.92
680.148	663.2
680.342	632.97
680.537	642.85
680.731	593.64
680.926	596.74
681.12	612.05
681.314	567.29
681.509	616.31
681.703	628.32
681.897	632.97
682.092	587.44
682.286	595.39
682.48	658.74
682.674	622.51
682.869	601.39
683.063	598.49
683.257	653.7
683.451	596.55
683.645	644.4
683.839	612.24
684.034	608.56
684.228	620.38
684.422	584.92
684.616	621.35
684.81	673.85
685.004	616.5
685.198	637.43
685.392	654.87
685.586	636.07
685.78	641.69
685.974	678.31
686.168	650.99
686.362	724.61
686.556	608.95
686.75	598.29
686.944	570.39
687.138	595.19
687.331	496.38
687.525	544.82
687.719	450.27
687.913	528.15
688.107	548.5
688.301	519.44
688.494	570.97
688.688	546.37
688.882	520.6
689.076	532.22
689.269	575.82
689.463	630.07
689.657	613.6
689.85	594.42
690.044	643.05
690.238	650.99
690.431	586.28
690.625	656.22
690.818	658.55
691.012	698.46
691.205	717.06
691.399	692.84
691.593	744.96
691.786	782.93
691.98	808.51
692.173	830.21
692.366	800.18
692.56	831.18
692.753	905.57
692.947	793.59
693.14	849.97
693.333	873.61
693.527	840.67
693.72	852.1
693.914	898.79
694.107	868.57
694.3	898.21
694.493	885.81
694.687	941.03
694.88	912.36
695.073	978.04
695.266	989.27
695.46	970.87
695.653	1020.66
695.846	1034.42
696.039	980.94
696.232	1023.37
696.425	1077.04
696.618	1095.45
696.812	1112.5
697.005	1165.58
697.198	1236.3
697.391	1205.11
697.584	1190.38
697.777	1263.23
697.97	1249.67
698.163	1245.99
698.356	1233.2
698.549	1369.21
698.742	1325.23
698.935	1261.1
699.127	1314.77
699.32	1279.7
699.513	1314.38
699.706	1316.12
699.899	1311.86
700.092	1310.89
700.285	1359.52
700.477	1305.28
700.67	1369.6
700.863	1396.14
701.056	1452.14
701.248	1428.69
701.441	1418.62
701.634	1429.27
701.826	1490.88
702.019	1392.66
702.212	1482.36
702.404	1417.45
702.597	1461.63
702.79	1483.72
702.982	1505.03
703.175	1566.06
703.367	1566.25
703.56	1596.86
703.752	1647.63
703.945	1644.91
704.137	1639.3
704.33	1649.76
704.522	1714.08
704.715	1702.84
704.907	1718.15
705.1	1715.05
705.292	1707.88
705.484	1740.24
705.677	1788.09
705.869	1791.58
706.061	1801.07
706.254	1836.53
706.446	1813.28
706.638	1842.54
706.831	1890.78
707.023	1847.96
707.215	1951.23
707.407	1935.92
707.599	1881.09
707.792	1957.82
707.984	1979.32
708.176	1989.98
708.368	1941.73
708.56	1997.15
708.752	1979.71
708.944	1970.22
709.136	2036.28
709.329	2014.58
709.521	2101.58
709.713	2054.69
709.905	2074.26
710.097	2148.46
710.289	2075.61
710.481	2119.4
710.672	2107.78
710.864	2143.81
711.056	2191.09
711.248	2187.02
711.44	2188.57
711.632	2182.76
711.824	2230.03
712.016	2239.14
712.207	2248.82
712.399	2233.71
712.591	2302.1
712.783	2275.95
712.975	2302.1
713.166	2244.76
713.358	2296.1
713.55	2378.63
713.741	2348.8
713.933	2369.92
714.125	2323.61
714.316	2315.47
714.508	2371.27
714.7	2378.83
714.891	2332.52
715.083	2402.27
715.274	2343.37
715.466	2385.42
715.657	2440.05
715.849	2336.59
716.04	2365.85
716.232	2282.34
716.423	2331.17
716.615	2257.93
716.806	2194.77
716.998	2149.24
717.189	2058.76
717.381	1988.43
717.572	1994.63
717.763	1970.02
717.955	1947.55
718.146	1870.44
718.337	1835.37
718.528	1809.79
718.72	1761.16
718.911	1792.94
719.102	1748.57
719.293	1796.23
719.485	1769.3
719.676	1726.68
719.867	1746.05
720.058	1758.06
720.249	1725.9
720.44	1757.87
720.632	1791.97
720.823	1853.77
721.014	1977.19
721.205	1975.06
721.396	2079.1
721.587	2184.31
721.778	2248.44
721.969	2229.45
722.16	2315.67
722.351	2322.25
722.542	2416.8
722.733	2428.82
722.924	2379.8
723.115	2385.42
723.305	2327.49
723.496	2355.58
723.687	2249.6
723.878	2252.89
724.069	2256.77
724.26	2300.75
724.45	2175.98
724.641	2173.46
724.832	2208.33
725.023	2174.81
725.213	2177.91
725.404	2138.58
725.595	2170.74
725.785	2175.39
725.976	2243.98
726.167	2170.16
726.357	2201.94
726.548	2292.03
726.739	2207.94
726.929	2329.04
727.12	2346.67
727.31	2317.41
727.501	2247.47
727.691	2291.25
727.882	2314.12
728.072	2325.35
728.263	2312.37
728.453	2387.93
728.644	2400.53
728.834	2405.76
729.024	2327.29
729.215	2349.19
729.405	2329.23
729.596	2443.35
729.786	2417.19
729.976	2468.34
730.167	2434.82
730.357	2406.73
730.547	2460.59
730.737	2500.7
730.928	2521.81
731.118	2538.28
731.308	2485.58
731.498	2507.48
731.688	2610.16
731.879	2590.59
732.069	2687.66
732.259	2694.83
732.449	2745.01
732.639	2813.6
732.829	2818.83
733.019	2845.57
733.209	2930.62
733.399	2911.25
733.589	3042.22
733.779	3027.11
733.969	3001.92
734.159	3074.19
734.349	3075.35
734.539	3176.87
734.729	3170.29
734.919	3154.79
735.109	3254.37
735.299	3166.6
735.488	3194.7
735.678	3196.25
735.868	3183.65
736.058	3179.2
736.248	3176.49
736.437	3150.72
736.627	3117.39
736.817	3286.92
737.007	3229.96
737.196	3250.69
737.386	3253.98
737.576	3149.94
737.765	3304.94
737.955	3237.32
738.144	3401.23
738.334	3354.15
738.524	3215.82
738.713	3294.48
738.903	3292.35
739.092	3348.15
739.282	3318.31
739.471	3355.7
739.661	3347.37
739.85	3374.88
740.04	3377.21
740.229	3464.01
740.419	3417.12
740.608	3411.69
740.797	3429.33
740.987	3473.69
741.176	3479.7
741.365	3433.39
741.555	3461.29
741.744	3511.09
741.933	3451.22
742.123	3539.96
742.312	3538.6
742.501	3567.47
742.69	3550.61
742.88	3513.02
743.069	3602.92
743.258	3542.86
743.447	3595.56
743.636	3566.89
743.825	3541.89
744.014	3567.08
744.204	3607.19
744.393	3537.24
744.582	3654.65
744.771	3625.2
744.96	3602.92
745.149	3638.38
745.338	3614.94
745.527	3671.9
745.716	3635.67
745.905	3597.69
746.094	3668.99
746.283	3697.67
746.471	3678.68
746.66	3681.39
746.849	3668.02
747.038	3678.29
747.227	3615.71
747.416	3658.92
747.604	3636.44
747.793	3611.64
747.982	3684.68
748.171	3662.99
748.359	3680.62
748.548	3657.37
748.737	3672.48
748.926	3646.71
749.114	3547.9
749.303	3633.34
749.491	3623.85
749.68	3569.41
749.869	3672.48
750.057	3578.51
750.246	3618.81
750.434	3571.34
750.623	3596.92
750.811	3626.37
751	3614.55
751.188	3594.2
751.377	3602.54
751.565	3590.52
751.754	3572.12
751.942	3523.1
752.131	3605.25
752.319	3557.2
752.507	3532.98
752.696	3576.19
752.884	3608.74
753.072	3573.47
753.261	3532.79
753.449	3570.96
753.637	3502.37
753.825	3621.14
754.014	3579.09
754.202	3562.43
754.39	3606.41
754.578	3584.9
754.766	3478.15
754.955	3496.75
755.143	3580.45
755.331	3524.46
755.519	3521.16
755.707	3514.38
755.895	3482.99
756.083	3522.91
756.271	3458.58
756.459	3476.21
756.647	3499.85
756.835	3477.96
757.023	3463.62
757.211	3435.91
757.399	3437.27
757.587	3405.3
757.775	3362.68
757.963	3477.57
758.151	3412.08
758.339	3350.08
758.526	3392.32
758.714	3432.23
758.902	3245.27
759.09	3193.15
759.278	2967.05
759.465	2754.7
759.653	2363.13
759.841	2173.46
760.028	1811.73
760.216	1585.63
760.404	1505.22
760.591	1221.77
760.779	1007.87
760.967	903.44
761.154	728.1
761.342	777.9
761.529	769.37
761.717	826.14
761.905	768.21
762.092	846.48
762.28	813.35
762.467	783.51
762.655	733.33
762.842	744.96
763.029	737.79
763.217	730.23
763.404	744.38
763.592	761.62
763.779	749.61
763.966	806.18
764.154	829.24
764.341	863.73
764.528	868.76
764.716	952.07
764.903	986.75
765.09	1070.07
765.277	1134.39
765.465	1295.01
765.652	1328.52
765.839	1411.84
766.026	1554.82
766.213	1617.21
766.4	1709.43
766.588	1901.05
766.775	1900.08
766.962	2054.5
767.149	2084.14
767.336	2262.39
767.523	2203.29
767.71	2343.18
767.897	2484.03
768.084	2528.79
768.271	2624.89
768.458	2673.71
768.645	2701.61
768.832	2740.55
769.019	2783.76
769.206	2760.9
769.392	2896.52
769.579	2919
769.766	2933.53
769.953	2918.8
770.14	2977.51
770.327	2937.4
770.513	3036.6
770.7	3092.21
770.887	3012.19
771.073	3018.19
771.26	3037.96
771.447	3028.08
771.634	3001.73
771.82	3114.68
772.007	2958.33
772.193	3078.84
772.38	3090.46
772.567	3067.02
772.753	3018.78
772.94	3088.33
773.126	3059.07
773.313	3051.71
773.499	3081.36
773.686	3089.69
773.872	3057.33
774.059	3087.17
774.245	3015.68
774.432	3017.23
774.618	3012.96
774.804	3034.28
774.991	2990.49
775.177	3029.43
775.363	3007.54
775.55	3032.34
775.736	2951.93
775.922	2978.09
776.109	2967.63
776.295	3002.89
776.481	2996.88
776.667	3018.19
776.853	2978.86
777.04	2972.86
777.226	2955.81
777.412	3039.31
777.598	2940.5
777.784	2951.35
777.97	2916.28
778.156	2960.65
778.342	2925
778.528	2945.73
778.715	2882.18
778.901	2851.77
779.087	2938.18
779.272	2896.13
779.458	2881.6
779.644	2877.73
779.83	2881.6
780.016	2966.85
780.202	2851.77
780.388	2858.93
780.574	2799.26
780.76	2869.01
780.946	2897.1
781.131	2867.65
781.317	2838.98
781.503	2826.97
781.689	2815.15
781.874	2898.85
782.06	2784.92
782.246	2859.13
782.432	2816.5
782.617	2832.39
782.803	2857.77
782.989	2787.44
783.174	2772.91
783.36	2757.22
783.545	2784.34
783.731	2766.9
783.916	2695.41
784.102	2775.43
784.288	2745.2
784.473	2734.94
784.659	2694.25
784.844	2741.91
785.029	2746.17
785.215	2715.95
785.4	2655.5
785.586	2767.29
785.771	2667.9
785.956	2709.36
786.142	2658.21
786.327	2654.34
786.512	2669.45
786.698	2665.19
786.883	2600.09
787.068	2624.31
787.254	2621.79
787.439	2564.05
787.624	2582.46
787.809	2595.83
787.994	2582.26
788.18	2620.43
788.365	2549.91
788.55	2548.74
788.735	2556.3
788.92	2563.28
789.105	2505.73
789.29	2551.84
789.475	2473.96
789.66	2480.74
789.845	2461.56
790.03	2448.38
790.215	2509.03
790.4	2530.53
790.585	2496.82
790.77	2453.81
790.955	2410.41
791.14	2428.82
791.325	2497.21
791.51	2331.75
791.695	2452.65
791.879	2428.23
792.064	2421.26
792.249	2512.71
792.434	2402.47
792.618	2400.14
792.803	2429.2
792.988	2451.68
793.173	2458.46
793.357	2477.64
793.542	2425.72
793.727	2457.49
793.911	2474.35
794.096	2453.42
794.281	2478.22
794.465	2545.64
794.65	2446.06
794.834	2470.66
795.019	2517.75
795.203	2547.78
795.388	2499.15
795.572	2541.77
795.757	2473.76
795.941	2505.73
796.126	2454.97
796.31	2422.03
796.494	2448.19
796.679	2466.79
796.863	2434.24
797.048	2503.41
797.232	2499.73
797.416	2499.53
797.601	2454.97
797.785	2542.35
797.969	2537.31
798.153	2476.48
798.338	2527.24
798.522	2542.54
798.706	2528.21
798.89	2525.3
799.074	2592.53
799.258	2586.91
799.443	2505.15
799.627	2501.86
799.811	2566.57
799.995	2458.46
800.179	2482.1
800.363	2477.25
800.547	2574.51
800.731	2540.41
800.915	2460.59
801.099	2448.58
801.283	2488.3
801.467	2481.13
801.651	2458.07
801.835	2522.78
802.019	2508.64
802.202	2502.05
802.386	2474.35
802.57	2459.43
802.754	2434.24
802.938	2415.06
803.121	2428.23
803.305	2532.28
803.489	2488.68
803.673	2480.55
803.856	2505.54
804.04	2464.46
804.224	2528.98
804.407	2465.63
804.591	2424.55
804.775	2454
804.958	2452.26
805.142	2573.93
805.326	2502.05
805.509	2516.97
805.693	2517.94
805.876	2578.58
806.06	2515.81
806.243	2543.51
806.427	2510.38
806.61	2543.71
806.794	2514.26
806.977	2539.83
807.16	2483.84
807.344	2551.07
807.527	2498.76
807.71	2526.27
807.894	2526.27
808.077	2548.55
808.26	2474.35
808.444	2442.18
808.627	2470.47
808.81	2467.18
808.993	2383.48
809.177	2380.77
809.36	2434.43
809.543	2403.43
809.726	2333.49
809.909	2349.38
810.092	2322.45
810.276	2346.86
810.459	2330.97
810.642	2347.25
810.825	2259.48
811.008	2287.96
811.191	2183.53
811.374	2197.67
811.557	2227.9
811.74	2235.46
811.923	2207.75
812.106	2187.41
812.289	2115.91
812.472	2125.99
812.654	2154.08
812.837	2111.46
813.02	2042.48
813.203	2026.6
813.386	1954.13
813.569	1870.82
813.751	1824.91
813.934	1909.96
814.117	1877.99
814.3	1821.61
814.482	1743.73
814.665	1774.53
814.848	1719.31
815.03	1653.63
815.213	1638.33
815.396	1659.25
815.578	1640.85
815.761	1551.72
815.943	1616.43
816.126	1575.55
816.309	1540.29
816.491	1466.09
816.674	1411.84
816.856	1512.39
817.039	1474.42
817.221	1547.85
817.403	1499.02
817.586	1517.62
817.768	1492.63
817.951	1446.71
818.133	1443.42
818.315	1455.43
818.498	1509.1
818.68	1550.95
818.862	1539.71
819.045	1544.17
819.227	1526.73
819.409	1496.7
819.591	1532.35
819.774	1534.48
819.956	1520.14
820.138	1580.59
820.32	1578.26
820.502	1625.73
820.684	1712.34
820.866	1709.82
821.048	1736.36
821.231	1752.44
821.413	1756.9
821.595	1702.65
821.777	1773.95
821.959	1750.12
822.141	1781.31
822.323	1645.5
822.505	1562.18
822.686	1548.43
822.868	1452.33
823.05	1340.34
823.232	1329.49
823.414	1306.44
823.596	1353.91
823.778	1340.92
823.96	1408.15
824.141	1360.88
824.323	1391.3
824.505	1466.67
824.687	1493.21
824.868	1561.22
825.05	1692.19
825.232	1701.1
825.413	1785.19
825.595	1716.41
825.777	1636.39
825.958	1695.68
826.14	1671.84
826.321	1716.6
826.503	1693.54
826.685	1709.04
826.866	1701.1
827.048	1727.45
827.229	1646.66
827.411	1636.39
827.592	1587.37
827.773	1588.34
827.955	1554.63
828.136	1525.76
828.318	1526.53
828.499	1543.97
828.68	1455.04
828.862	1491.08
829.043	1525.76
829.224	1491.85
829.406	1476.94
829.587	1500.38
829.768	1495.15
829.949	1525.76
830.131	1527.31
830.312	1574.97
830.493	1528.67
830.674	1512.2
830.855	1539.71
831.036	1522.47
831.218	1563.35
831.399	1588.15
831.58	1539.9
831.761	1519.37
831.942	1563.35
832.123	1521.88
832.304	1498.05
832.485	1494.95
832.666	1510.84
832.847	1522.85
833.028	1529.63
833.209	1536.22
833.389	1504.25
833.57	1470.15
833.751	1498.83
833.932	1525.37
834.113	1530.22
834.294	1517.62
834.475	1543.39
834.655	1565.28
834.836	1602.1
835.017	1571.48
835.198	1535.06
835.378	1554.05
835.559	1583.88
835.74	1541.07
835.92	1543.97
836.101	1536.03
836.281	1591.25
836.462	1567.03
836.643	1603.06
836.823	1623.8
837.004	1635.23
837.184	1665.45
837.365	1580.01
837.545	1636.78
837.726	1603.45
837.906	1623.21
838.087	1590.08
838.267	1604.61
838.448	1584.85
838.628	1603.06
838.808	1598.61
838.989	1628.25
839.169	1587.76
839.349	1604.03
839.53	1630.38
839.71	1636.39
839.89	1598.61
840.07	1657.7
840.251	1586.79
840.431	1635.61
840.611	1602.48
840.791	1576.52
840.971	1622.25
841.151	1585.05
841.332	1573.03
841.512	1619.15
841.692	1555.6
841.872	1608.49
842.052	1572.45
842.232	1640.07
842.412	1565.28
842.592	1590.28
842.772	1609.65
842.952	1630.77
843.132	1580.59
843.312	1534.67
843.492	1522.47
843.672	1614.69
843.851	1533.51
844.031	1562.38
844.211	1555.6
844.391	1537.58
844.571	1563.93
844.751	1567.8
844.93	1572.84
845.11	1515.68
845.29	1559.86
845.47	1584.27
845.649	1550.56
845.829	1553.47
846.009	1546.1
846.188	1584.66
846.368	1559.67
846.547	1560.63
846.727	1582.53
846.907	1522.27
847.086	1557.92
847.266	1602.29
847.445	1495.73
847.625	1530.41
847.804	1513.36
847.984	1535.83
848.163	1499.99
848.343	1484.88
848.522	1509.48
848.701	1527.5
848.881	1485.85
849.06	1515.49
849.239	1527.89
849.419	1502.32
849.598	1423.46
849.777	1465.89
849.957	1428.69
850.136	1368.82
850.315	1367.66
850.494	1401.57
850.674	1400.79
850.853	1453.1
851.032	1385.49
851.211	1427.72
851.39	1419.78
851.569	1389.36
851.748	1382.97
851.927	1424.43
852.107	1406.22
852.286	1401.95
852.465	1347.12
852.644	1409.51
852.823	1429.08
853.002	1399.24
853.181	1421.52
853.359	1404.28
853.538	1351.97
853.717	1404.86
853.896	1305.28
854.075	1248.31
854.254	1212.47
854.433	1224.29
854.611	1234.56
854.79	1155.12
854.969	1215.96
855.148	1234.17
855.327	1218.48
855.505	1236.3
855.684	1254.71
855.863	1299.08
856.041	1250.06
856.22	1328.14
856.399	1281.83
856.577	1377.16
856.756	1371.54
856.934	1440.32
857.113	1427.34
857.291	1303.34
857.47	1300.63
857.648	1359.52
857.827	1331.82
858.005	1369.02
858.184	1313.99
858.362	1385.87
858.541	1339.57
858.719	1324.65
858.898	1358.94
859.076	1301.79
859.254	1342.67
859.433	1295.39
859.611	1309.93
859.789	1271.56
859.967	1360.88
860.146	1369.79
860.324	1293.46
860.502	1280.86
860.68	1263.43
860.859	1277.76
861.037	1279.12
861.215	1311.09
861.393	1288.42
861.571	1287.06
861.749	1254.32
861.927	1266.33
862.105	1274.47
862.283	1257.03
862.461	1257.61
862.639	1240.37
862.817	1269.43
862.995	1262.84
863.173	1250.06
863.351	1277.38
863.529	1278.93
863.707	1298.49
863.885	1279.7
864.063	1201.23
864.241	1239.21
864.418	1290.74
864.596	1254.71
864.774	1206.27
864.952	1206.27
865.129	1247.54
865.307	1214.02
865.485	1152.41
865.663	1219.06
865.84	1124.32
866.018	1153.18
866.196	1047.98
866.373	1087.31
866.551	1048.37
866.728	1008.84
866.906	1061.73
867.084	1083.24
867.261	1107.46
867.439	1108.62
867.616	1125.48
867.794	1149.11
867.971	1124.51
868.149	1133.62
868.326	1207.82
868.503	1162.29
868.681	1151.44
868.858	1107.65
869.035	1085.76
869.213	1179.34
869.39	1137.88
869.567	1180.31
869.745	1133.03
869.922	1153.38
870.099	1152.41
870.276	1158.61
870.454	1162.1
870.631	1155.7
870.808	1125.87
870.985	1175.08
871.162	1210.15
871.339	1121.22
871.517	1101.84
871.694	1083.05
871.871	1132.07
872.048	1092.15
872.225	1094.28
872.402	1134.97
872.579	1098.74
872.756	1122.18
872.933	1108.23
873.11	1099.52
873.287	1112.3
873.463	1074.72
873.64	1059.02
873.817	1105.33
873.994	1110.75
874.171	1052.24
874.348	1067.93
874.524	1033.45
874.701	1107.46
874.878	1023.37
875.055	1056.31
875.231	1061.93
875.408	1113.47
875.585	1008.45
875.762	1050.3
875.938	1040.23
876.115	1023.57
876.291	1033.45
876.468	1032.09
876.645	969.7
876.821	1036.35
876.998	1022.4
877.174	1032.29
877.351	971.45
877.527	1047.01
877.704	1007.29
877.88	1070.07
878.057	1010.97
878.233	1031.51
878.409	1021.82
878.586	1012.91
878.762	1020.85
878.938	1020.47
879.115	954.01
879.291	987.34
879.467	942.39
879.644	944.13
879.82	989.08
879.996	933.67
880.172	927.27
880.349	973.19
880.525	1005.35
880.701	910.61
880.877	949.94
881.053	971.45
881.229	954.01
881.405	998.57
881.581	920.69
881.757	940.06
881.933	977.07
882.109	965.25
882.285	947.81
882.461	949.94
882.637	959.05
882.813	910.22
882.989	953.82
883.165	971.84
883.341	923.79
883.517	964.86
883.693	961.37
883.869	974.16
884.044	939.29
884.22	950.33
884.396	994.12
884.572	965.44
884.747	1002.64
884.923	974.55
885.099	1002.64
885.275	999.35
885.45	930.57
885.626	946.07
885.801	925.72
885.977	919.72
886.153	897.63
886.328	958.86
886.504	918.94
886.679	947.23
886.855	901.89
887.03	942.97
887.206	941.81
887.381	979.2
887.557	953.82
887.732	966.6
887.908	922.43
888.083	985.01
888.258	935.41
888.434	932.31
888.609	923.21
888.784	975.71
888.96	899.18
889.135	954.79
889.31	929.99
889.485	942.58
889.661	942.19
889.836	985.98
890.011	937.54
890.186	938.9
890.361	929.41
890.537	928.63
890.712	932.12
890.887	947.62
891.062	966.6
891.237	1010.59
891.412	896.86
891.587	937.16
891.762	980.36
891.937	1008.65
892.112	885.42
892.287	916.81
892.462	855.98
892.637	886.01
892.812	867.21
892.987	871.09
893.161	853.84
893.336	841.06
893.511	848.23
893.686	871.48
893.861	837.18
894.035	845.9
894.21	865.86
894.385	790.29
894.56	822.26
894.734	802.31
894.909	781.38
895.084	781.58
895.258	764.72
895.433	780.61
895.608	739.53
895.782	705.63
895.957	699.43
896.131	692.65
896.306	655.45
896.48	661.84
896.655	645.37
896.829	622.12
897.004	599.65
897.178	615.73
897.353	591.12
897.527	661.45
897.701	591.12
897.876	591.12
898.05	638.59
898.224	636.46
898.399	633.75
898.573	605.46
898.747	513.62
898.921	546.56
899.096	504.71
899.27	469.45
899.444	507.62
899.618	527.77
899.792	545.2
899.967	558.57
900.141	563.03
900.315	511.3
900.489	509.36
900.663	544.24
900.837	532.8
901.011	483.98
901.185	567.87
901.359	528.54
901.533	529.7
901.707	554.31
901.881	544.24
902.055	507.42
902.229	509.75
902.403	581.63
902.576	515.95
902.75	557.8
902.924	630.65
903.098	593.06
903.272	608.75
903.446	655.25
903.619	632
903.793	676.18
903.967	678.7
904.14	707.56
904.314	686.83
904.488	684.32
904.661	683.93
904.835	671.14
905.009	693.03
905.182	750.38
905.356	708.15
905.529	682.18
905.703	661.84
905.876	643.63
906.05	633.36
906.223	619.99
906.397	558.57
906.57	567.1
906.744	525.05
906.917	540.75
907.09	524.28
907.264	516.53
907.437	509.94
907.61	492.31
907.784	490.57
907.957	516.72
908.13	456.86
908.304	496.38
908.477	471.39
908.65	485.14
908.823	446.78
908.996	501.42
909.17	474.68
909.343	462.47
909.516	499.87
909.689	460.34
909.862	423.73
910.035	455.5
910.208	440.58
910.381	436.51
910.554	527.19
910.727	447.36
910.9	449.88
911.073	434.58
911.246	530.09
911.419	511.11
911.592	521.37
911.765	456.47
911.938	435.16
912.11	487.66
912.283	448.91
912.456	498.12
912.629	458.99
912.802	447.94
912.974	401.64
913.147	361.53
913.32	329.95
913.493	355.14
913.665	378.78
913.838	384.01
914.01	378
914.183	412.1
914.356	400.48
914.528	463.83
914.701	468.09
914.873	458.6
915.046	384.78
915.218	352.81
915.391	345.06
915.563	324.53
915.736	384.59
915.908	425.66
916.081	418.49
916.253	384.78
916.425	404.74
916.598	426.24
916.77	385.75
916.942	361.92
917.115	328.98
917.287	384.2
917.459	354.17
917.632	342.16
917.804	305.15
917.976	377.61
918.148	363.86
918.32	396.41
918.493	426.63
918.665	428.38
918.837	433.41
919.009	452.98
919.181	449.3
919.353	433.61
919.525	411.71
919.697	412.88
919.869	431.28
920.041	465.77
920.213	536.87
920.385	458.21
920.557	427.02
920.729	454.14
920.901	419.08
921.073	435.35
921.244	430.31
921.416	441.94
921.588	418.69
921.76	426.24
921.932	500.06
922.103	419.66
922.275	433.22
922.447	415.01
922.619	384.01
922.79	425.66
922.962	390.4
923.134	431.67
923.305	383.23
923.477	380.33
923.648	374.13
923.82	388.66
923.991	329.95
924.163	337.9
924.335	357.08
924.506	315.03
924.677	408.61
924.849	345.65
925.02	385.56
925.192	379.55
925.363	379.16
925.535	363.08
925.706	359.01
925.877	407.26
926.049	347
926.22	367.34
926.391	383.04
926.562	400.67
926.734	350.68
926.905	380.71
927.076	278.22
927.247	293.91
927.419	282.87
927.59	300.5
927.761	328.79
927.932	277.06
928.103	297.98
928.274	264.27
928.445	249.55
928.616	269.31
928.787	257.1
928.958	275.31
929.129	270.86
929.3	266.01
929.471	191.62
929.642	151.12
929.813	116.25
929.984	221.65
930.155	144.54
930.326	194.13
930.496	180.77
930.667	105.98
930.838	168.37
931.009	121.67
931.18	132.91
931.35	106.17
931.521	134.27
931.692	70.72
931.863	37.2
932.033	131.36
932.204	85.83
932.374	111.79
932.545	75.95
932.716	138.34
932.886	83.89
933.057	42.43
933.227	57.54
933.398	152.87
933.568	57.74
933.739	23.64
933.909	30.42
934.08	88.15
934.25	15.89
934.421	32.94
934.591	58.51
934.761	18.21
934.932	-2.71
935.102	41.07
935.272	23.25
935.443	32.55
935.613	14.53
935.783	49.21
935.953	14.14
936.123	152.29
936.294	26.16
936.464	19.76
936.634	30.42
936.804	46.89
936.974	7.36
937.144	40.11
937.314	39.52
937.484	11.24
937.655	-8.33
937.825	63.55
937.995	30.81
938.165	86.8
938.334	34.49
938.504	67.23
938.674	21.12
938.844	53.28
939.014	81.57
939.184	81.96
939.354	112.37
939.524	122.64
939.694	54.64
939.863	94.94
940.033	122.45
940.203	120.51
940.373	72.07
940.542	103.07
940.712	62.97
940.882	103.27
941.051	130
941.221	93.19
941.391	123.8
941.56	62.58
941.73	31.77
941.899	173.21
942.069	64.13
942.238	81.96
942.408	74.4
942.577	110.82
942.747	83.12
942.916	14.92
943.086	53.86
943.255	107.53
943.425	62.77
943.594	48.24
943.763	22.47
943.933	28.48
944.102	-12.98
944.271	54.44
944.441	83.7
944.61	51.92
944.779	61.61
944.948	124.19
945.117	45.53
945.287	43.21
945.456	4.26
945.625	30.22
945.794	63.74
945.963	24.02
946.132	74.59
946.301	43.01
946.47	89.7
946.639	8.14
946.808	29.64
946.977	39.72
947.146	70.52
947.315	18.21
947.484	72.46
947.653	67.04
947.822	49.79
947.991	22.86
948.16	99.2
948.329	108.5
948.498	46.5
948.666	71.3
948.835	72.85
949.004	18.6
949.173	14.34
949.341	77.89
949.51	78.86
949.679	82.73
949.847	87.19
950.016	106.56
950.185	91.06
950.353	41.07
950.522	34.1
950.69	108.3
950.859	58.32
951.028	93
951.196	105.79
951.365	42.04
951.533	42.24
951.701	70.33
951.87	77.69
952.038	34.87
952.207	52.51
952.375	108.3
952.543	42.04
952.712	56.38
952.88	34.68
953.048	108.69
953.217	62.39
953.385	41.07
953.553	83.12
953.721	30.61
953.89	58.9
954.058	26.93
954.226	38.56
954.394	86.02
954.562	3.87
954.73	54.44
954.898	31
955.067	80.02
955.235	45.53
955.403	77.11
955.571	136.59
955.739	41.66
955.907	28.87
956.075	35.07
956.243	30.22
956.41	55.99
956.578	42.43
956.746	8.72
956.914	43.4
957.082	96.49
957.25	68.01
957.418	36.62
957.585	68.01
957.753	114.12
957.921	43.79
958.089	64.13
958.256	74.4
958.424	66.84
958.592	52.89
958.759	36.81
958.927	77.31
959.095	50.18
959.262	88.93
959.43	63.36
959.597	34.87
959.765	51.73
959.932	36.42
960.1	78.86
960.267	31.97
960.435	73.24
960.602	75.56
960.77	40.3
960.937	27.71
961.104	72.85
961.272	17.82
961.439	44.37
961.606	76.34
961.774	107.53
961.941	37.97
962.108	70.14
962.275	85.06
962.443	92.03
962.61	68.39
962.777	147.05
962.944	94.55
963.111	78.86
963.278	91.45
963.446	76.53
963.613	72.85
963.78	78.66
963.947	81.57
964.114	58.32
964.281	135.62
964.448	96.1
964.615	79.44
964.782	94.74
964.949	114.89
965.116	80.02
965.282	104.04
965.449	79.44
965.616	43.4
965.783	95.9
965.95	69.56
966.117	51.54
966.283	80.6
966.45	68.78
966.617	77.11
966.784	116.83
966.95	105.01
967.117	125.55
967.284	65.1
967.45	67.23
967.617	134.27
967.784	120.51
967.95	135.43
968.117	81.76
968.283	102.3
968.45	179.02
968.616	93.77
968.783	122.06
968.949	125.74
969.116	132.14
969.282	70.52
969.449	93.97
969.615	105.79
969.781	68.01
969.948	62
970.114	70.33
970.28	136.2
970.447	93
970.613	156.55
970.779	59.09
970.945	106.56
971.112	101.52
971.278	82.92
971.444	88.54
971.61	127.29
971.776	90.67
971.942	97.45
972.108	98.42
972.275	83.51
972.441	98.23
972.607	162.36
972.773	63.74
972.939	108.69
973.105	99
973.271	62.58
973.437	99.59
973.602	72.46
973.768	117.8
973.934	104.43
974.1	109.85
974.266	53.47
974.432	109.85
974.598	73.82
974.763	102.1
974.929	56.19
975.095	134.85
975.261	67.04
975.426	76.92
975.592	78.08
975.758	161.2
975.923	60.84
976.089	70.72
976.255	112.57
976.42	98.62
976.586	92.03
976.751	63.16
976.917	140.08
977.082	111.6
977.248	38.75
977.413	27.51
977.579	89.12
977.744	83.7
977.91	49.02
978.075	83.12
978.24	86.22
978.406	98.81
978.571	64.71
978.736	52.7
978.902	93.39
979.067	50.76
979.232	35.26
979.397	93.58
979.563	141.44
979.728	43.21
979.893	79.82
980.058	64.71
980.223	103.27
980.388	74.4
980.554	93.97
980.719	41.85
980.884	81.57
981.049	106.56
981.214	86.22
981.379	119.54
981.544	67.81
981.709	78.66
981.874	85.25
982.039	66.65
982.204	89.12
982.368	82.15
982.533	38.94
982.698	107.92
982.863	110.63
983.028	51.15
983.193	92.42
983.357	78.27
983.522	84.86
983.687	50.18
983.852	56.38
984.016	73.04
984.181	68.2
984.346	99.2
984.51	109.27
984.675	73.24
984.839	94.55
985.004	79.24
985.168	118.38
985.333	98.04
985.498	53.47
985.662	105.2
985.827	88.54
985.991	73.04
986.155	80.21
986.32	114.7
986.484	130.2
986.649	98.42
986.813	32.74
986.977	110.44
987.142	88.93
987.306	50.18
987.47	81.37
987.634	62.39
987.799	84.47
987.963	75.95
988.127	101.91
988.291	127.68
988.455	91.25
988.62	79.05
988.784	87.57
988.948	106.75
989.112	55.8
989.276	78.47
989.44	69.75
989.604	59.29
989.768	37.97
989.932	134.07
990.096	48.82
990.26	22.28
990.424	11.62
990.588	78.47
990.752	143.37
990.915	104.04
991.079	52.89
991.243	37.2
991.407	65.1
991.571	42.43
991.734	97.07
991.898	115.86
992.062	120.51
992.226	83.12
992.389	49.99
992.553	30.81
992.717	69.56
992.88	51.15
993.044	65.87
993.207	41.27
993.371	90.67
993.535	80.79
993.698	63.74
993.862	95.71
994.025	116.83
994.189	84.47
994.352	62.39
994.515	71.3
994.679	114.89
994.842	70.72
995.006	102.3
995.169	35.07
995.332	40.69
995.496	95.13
995.659	22.86
995.822	59.09
995.985	61.03
996.149	125.55
996.312	69.17
996.475	133.88
996.638	73.62
996.801	88.93
996.964	104.43
997.128	62.39
997.291	27.71
997.454	97.84
997.617	32.36
997.78	86.41
997.943	54.06
998.106	96.1
998.269	20.92
998.432	53.47
998.595	69.17
998.758	-6.39
998.92	43.01
999.083	12.01
999.246	62.77
999.409	26.74
999.572	31.97
999.735	33.91
999.897	45.92
1000.06	34.68
1000.223	45.53
1000.386	111.02
1000.548	83.51
1000.711	54.83
1000.874	96.29
1001.036	29.64
1001.199	79.44
1001.361	46.5
1001.524	35.46
1001.687	80.99
1001.849	33.91
1002.012	43.01
1002.174	65.87
1002.337	76.72
1002.499	46.31
1002.661	90.29
1002.824	49.21
1002.986	18.02
1003.149	40.3
1003.311	11.24
1003.473	80.6
1003.636	37.01
1003.798	75.37
1003.96	79.24
1004.123	56.38
1004.285	21.12
1004.447	41.66
1004.609	55.22
1004.771	93
1004.933	17.44
1005.096	17.63
1005.258	23.44
1005.42	26.74
1005.582	62
1005.744	50.96
1005.906	4.26
1006.068	41.46
1006.23	-2.52
1006.392	-4.07
1006.554	47.08
1006.716	87.38
1006.878	59.87
1007.04	17.44
1007.202	2.71
1007.363	39.14
1007.525	37.59
1007.687	54.06
1007.849	102.49
1008.011	-1.36
1008.172	21.89
1008.334	19.76
1008.496	40.69
1008.658	-18.41
1008.819	23.64
1008.981	13.76
1009.143	11.24
1009.304	35.46
1009.466	52.89
1009.627	64.91
1009.789	119.15
1009.95	21.7
1010.112	4.65
1010.273	51.73
1010.435	30.81
1010.596	25.19
1010.758	28.67
1010.919	22.86
1011.081	-18.02
1011.242	18.21
1011.403	67.42
1011.565	14.72
1011.726	61.03
1011.887	-8.14
1012.049	-3.1
1012.21	52.89
1012.371	87.77
1012.532	-24.8
1012.693	17.44
1012.855	1.94
1013.016	23.44
1013.177	69.75
1013.338	11.82
1013.499	76.72
1013.66	41.07
1013.821	66.07
1013.982	52.7
1014.143	13.76
1014.304	32.16
1014.465	56.96
1014.626	56.96
1014.787	-5.23
1014.948	112.18
1015.109	-43.79
1015.27	54.64
1015.431	23.83
1015.592	16.08
1015.752	89.7
1015.913	7.36
1016.074	50.57
1016.235	29.84
1016.395	44.17
1016.556	31
1016.717	9.11
1016.877	35.26
1017.038	15.11
1017.199	38.94
1017.359	30.03
1017.52	20.73
1017.681	25.96
1017.841	39.91
1018.002	49.79
1018.162	25.19
1018.323	51.54
1018.483	30.22
1018.644	30.42
1018.804	1.16
1018.964	-4.07
1019.125	21.31
1019.285	51.15
1019.446	4.65
1019.606	-13.76
1019.766	-37.2
1019.926	28.09
1020.087	32.55
1020.247	-11.24
1020.407	16.86
1020.567	49.79
1020.728	1.74
1020.888	-1.16
1021.048	5.42
1021.208	23.25
1021.368	-3.87
1021.528	58.71
1021.688	61.81
1021.848	63.36
1022.008	30.22
1022.168	25.19
1022.328	0.58
1022.488	57.35
1022.648	18.6
1022.808	31.19
1022.968	38.75
1023.128	-15.5
1023.288	6.78
1023.448	10.07
1023.608	48.05
1023.767	37.78
1023.927	-23.83
1024.087	-23.25
1024.247	-39.14
1024.406	16.66
1024.566	-21.7
1024.726	-17.05
1024.885	19.57
1025.045	39.14
1025.205	13.95
1025.364	3.87
1025.524	32.55
1025.683	6.59
1025.843	12.21
1026.003	-1.74
1026.162	87.38
1026.321	76.14
1026.481	29.26
1026.64	-2.91
1026.8	36.23
1026.959	17.63
1027.119	6.78
1027.278	28.48
1027.437	-8.91
1027.597	16.86
1027.756	39.14
1027.915	28.67
1028.074	26.93
1028.234	4.84
1028.393	18.21
1028.552	12.98
1028.711	-39.72
1028.87	49.6
1029.03	-24.61
1029.189	21.12
1029.348	-22.09
1029.507	6.59
1029.666	-16.27
1029.825	-14.92
1029.984	-7.56
1030.143	15.69
1030.302	7.56
1030.461	-35.07
1030.62	10.66
1030.779	21.51
1030.938	8.91
1031.097	-20.73
1031.255	30.61
1031.414	64.52
1031.573	20.34
1031.732	-24.8
1031.891	9.11
1032.049	43.98
1032.208	38.17
1032.367	12.21
1032.525	-2.91
1032.684	-4.84
1032.843	11.04
1033.001	-41.07
1033.16	148.02
1033.319	43.4
1033.477	38.36
1033.636	3.1
1033.794	-44.76
1033.953	31.58
1034.111	21.89
1034.27	4.84
1034.428	27.9
1034.587	-32.36
1034.745	22.47
1034.903	2.32
1035.062	25.38
1035.22	-21.12
1035.378	52.51
1035.537	-13.37
1035.695	11.24
1035.853	-9.49
1036.011	15.31
1036.17	23.83
1036.328	-46.69
1036.486	16.66
1036.644	20.54
1036.802	-79.05
1036.96	-13.76
1037.119	5.23
1037.277	-7.75
1037.435	-44.95
1037.593	6.2
1037.751	-0.19
1037.909	33.71
1038.067	33.71
