Data from gum_young_FLMT105791__48__17-38-47-044.txt Node

Date: Mon Mar 20 17:38:47 GMT 2023
User: antho
Spectrometer: FLMT10579
Trigger mode: 0
Integration Time (sec): 1.000000E-1
Scans to average: 10
Electric dark correction enabled: true
Nonlinearity correction enabled: false
Boxcar width: 0
XAxis mode: Wavelengths
Number of Pixels in Spectrum: 3648
>>>>>Begin Spectral Data<<<<<
345.248	-135.03
345.464	-135.03
345.681	-135.03
345.898	-169.9
346.114	-145.88
346.331	-49.78
346.548	22.88
346.764	4.08
346.981	14.55
347.197	-7.93
347.414	30.43
347.631	-14.32
347.847	34.7
348.064	4.67
348.28	5.05
348.497	-38.73
348.713	-5.6
348.93	37.8
349.146	35.47
349.363	7.18
349.579	46.52
349.796	22.3
350.012	1.76
350.229	51.36
350.445	5.25
350.661	-13.35
350.878	21.52
351.094	27.33
351.311	13.97
351.527	37.02
351.743	4.08
351.96	34.89
352.176	57.17
352.392	41.87
352.609	50.97
352.825	22.1
353.041	17.26
353.257	-0.76
353.474	24.04
353.69	33.73
353.906	15.9
354.122	-20.33
354.339	43.03
354.555	-4.05
354.771	14.93
354.987	48.45
355.203	80.03
355.42	-0.57
355.636	4.47
355.852	-11.41
356.068	23.65
356.284	-21.88
356.5	58.72
356.716	28.88
356.932	21.52
357.148	8.93
357.364	10.09
357.58	50.39
357.796	86.04
358.012	61.24
358.228	34.7
358.444	-14.71
358.66	77.71
358.876	37.99
359.092	-17.23
359.308	19
359.524	30.05
359.74	1.37
359.956	0.21
360.172	23.85
360.388	54.27
360.604	5.63
360.819	71.7
361.035	27.33
361.251	39.35
361.467	-30.21
361.683	15.71
361.898	34.5
362.114	49.23
362.33	33.73
362.546	64.92
362.762	2.92
362.977	46.9
363.193	-2.12
363.409	39.15
363.624	0.79
363.84	-9.28
364.056	32.18
364.271	50.39
364.487	51.36
364.703	8.54
364.918	6.02
365.134	0.02
365.35	42.06
365.565	96.5
365.781	20.94
365.996	43.22
366.212	98.63
366.427	54.07
366.643	13.58
366.858	19.58
367.074	17.45
367.289	56.98
367.505	125.18
367.72	1.76
367.936	33.92
368.151	54.65
368.367	42.06
368.582	38.38
368.798	25.78
369.013	72.28
369.228	25.2
369.444	34.7
369.659	94.56
369.874	51.55
370.09	82.55
370.305	-32.92
370.52	40.12
370.736	84.68
370.951	28.69
371.166	61.63
371.381	95.34
371.597	52.13
371.812	3.5
372.027	14.55
372.242	54.27
372.458	76.74
372.673	32.57
372.888	36.63
373.103	44.77
373.318	128.28
373.533	60.47
373.749	62.21
373.964	-21.49
374.179	73.45
374.394	5.44
374.609	70.73
374.824	16.68
375.039	48.65
375.254	5.05
375.469	100.76
375.684	57.56
375.899	71.32
376.114	25.2
376.329	53.49
376.544	70.35
376.759	77.13
376.974	9.32
377.189	41.28
377.404	29.47
377.619	52.33
377.834	-13.93
378.049	7.96
378.264	9.7
378.478	64.15
378.693	27.53
378.908	48.45
379.123	36.83
379.338	84.68
379.553	38.77
379.767	54.65
379.982	68.99
380.197	47.48
380.412	34.31
380.626	61.05
380.841	96.31
381.056	53.88
381.271	105.03
381.485	30.43
381.7	20.75
381.915	32.37
382.129	49.42
382.344	47.1
382.559	36.05
382.773	77.52
382.988	-8.31
383.202	31.79
383.417	50.78
383.632	145.91
383.846	29.08
384.061	24.43
384.275	43.61
384.49	77.32
384.704	76.35
384.919	81.39
385.133	40.7
385.348	82.55
385.562	17.65
385.777	74.03
385.991	72.09
386.206	35.86
386.42	57.75
386.634	76.35
386.849	64.15
387.063	61.05
387.277	16.68
387.492	3.89
387.706	16.48
387.92	33.15
388.135	69.57
388.349	65.31
388.563	62.98
388.778	64.92
388.992	81.2
389.206	59.69
389.42	121.88
389.635	66.28
389.849	77.52
390.063	93.98
390.277	73.64
390.491	119.56
390.706	80.03
390.92	78.87
391.134	75
391.348	76.93
391.562	24.23
391.776	57.75
391.99	35.08
392.205	91.85
392.419	32.76
392.633	55.04
392.847	106.96
393.061	32.76
393.275	107.55
393.489	31.6
393.703	64.53
393.917	80.61
394.131	37.02
394.345	70.15
394.559	131.96
394.773	45.55
394.986	73.45
395.2	68.6
395.414	85.07
395.628	50
395.842	80.03
396.056	48.26
396.27	28.11
396.484	64.34
396.697	88.95
396.911	110.06
397.125	79.45
397.339	104.64
397.553	71.51
397.766	126.92
397.98	100.38
398.194	108.13
398.408	64.53
398.621	97.28
398.835	116.85
399.049	97.28
399.262	146.88
399.476	136.61
399.69	132.15
399.903	162.38
400.117	95.53
400.331	139.51
400.544	81.78
400.758	219.92
400.971	120.53
401.185	163.54
401.398	68.02
401.612	190.66
401.826	159.86
402.039	157.34
402.253	110.06
402.466	110.84
402.68	130.41
402.893	146.1
403.106	138.16
403.32	118.4
403.533	134.86
403.747	106.58
403.96	140.87
404.174	150.17
404.387	107.55
404.6	116.85
404.814	164.9
405.027	150.56
405.24	118.01
405.454	131.96
405.667	170.71
405.88	82.75
406.094	145.91
406.307	178.46
406.52	141.84
406.733	110.06
406.947	95.92
407.16	197.64
407.373	163.15
407.586	134.28
407.799	124.79
408.012	171.87
408.226	168.77
408.439	189.5
408.652	100.18
408.865	158.11
409.078	194.54
409.291	162.18
409.504	137
409.717	190.08
409.93	170.71
410.143	186.59
410.357	120.72
410.57	104.45
410.783	132.35
410.996	175.36
411.209	161.21
411.421	182.91
411.634	161.8
411.847	165.67
412.06	183.11
412.273	161.8
412.486	180.78
412.699	264.67
412.912	201.32
413.125	215.27
413.338	186.21
413.55	196.86
413.763	173.81
413.976	184.27
414.189	156.95
414.402	173.23
414.615	212.94
414.827	161.41
415.04	183.11
415.253	195.89
415.466	224.96
415.678	265.64
415.891	184.08
416.104	189.5
416.316	189.69
416.529	180.59
416.742	231.74
416.954	228.44
417.167	192.79
417.38	210.43
417.592	221.08
417.805	157.92
418.017	154.63
418.23	220.89
418.442	197.06
418.655	186.98
418.868	214.11
419.08	249.95
419.293	224.96
419.505	210.43
419.718	224.76
419.93	244.72
420.142	168.77
420.355	242.39
420.567	258.86
420.78	229.03
420.992	211.01
421.205	275.72
421.417	193.18
421.629	232.71
421.842	184.46
422.054	203.26
422.266	244.33
422.479	267.58
422.691	185.04
422.903	244.91
423.115	191.24
423.328	215.46
423.54	204.61
423.752	201.13
423.964	183.11
424.177	228.64
424.389	219.53
424.601	326.48
424.813	251.11
425.025	265.06
425.238	270.87
425.45	240.65
425.662	244.33
425.874	522.36
426.086	258.47
426.298	229.99
426.51	265.84
426.722	236.58
426.934	229.22
427.146	243.36
427.358	238.13
427.57	278.62
427.782	226.12
427.994	246.46
428.206	213.33
428.418	207.71
428.63	279.01
428.842	255.96
429.054	246.08
429.266	248.21
429.478	212.56
429.69	235.61
429.902	194.15
430.114	266.42
430.325	210.04
430.537	209.46
430.749	200.16
430.961	156.37
431.173	193.18
431.384	231.35
431.596	190.86
431.808	236.19
432.02	273.01
432.231	306.52
432.443	324.74
432.655	298.39
432.867	249.18
433.078	275.14
433.29	328.81
433.502	316.41
433.713	324.16
433.925	278.62
434.136	330.74
434.348	264.48
434.56	223.21
434.771	335.78
434.983	255.57
435.194	272.42
435.406	298.97
435.617	321.25
435.829	353.22
436.04	312.72
436.252	365.62
436.463	352.83
436.675	354.19
436.886	340.24
437.098	365.42
437.309	357.29
437.521	341.98
437.732	324.93
437.943	308.46
438.155	299.55
438.366	262.74
438.578	375.89
438.789	329.58
439	343.92
439.211	305.17
439.423	332.68
439.634	334.62
439.845	374.53
440.057	331.52
440.268	366.2
440.479	319.31
440.69	345.27
440.902	315.44
441.113	346.63
441.324	336.56
441.535	357.67
441.746	430.13
441.957	368.33
442.168	385.19
442.38	380.15
442.591	390.42
442.802	370.46
443.013	353.02
443.224	398.94
443.435	360
443.646	374.72
443.857	390.22
444.068	356.32
444.279	361.74
444.49	460.55
444.701	392.74
444.912	490.97
445.123	425.87
445.334	409.99
445.545	424.52
445.756	394.49
445.967	366.59
446.178	414.44
446.388	401.46
446.599	423.74
446.81	466.37
447.021	403.98
447.232	446.99
447.443	448.15
447.653	386.15
447.864	443.5
448.075	424.52
448.286	465.98
448.496	453.38
448.707	466.95
448.918	440.6
449.129	498.33
449.339	411.34
449.55	474.31
449.761	454.55
449.971	484
450.182	422.39
450.393	482.64
450.603	465.59
450.814	511.32
451.024	493.88
451.235	519.26
451.446	534.56
451.656	511.9
451.867	477.99
452.077	503.95
452.288	553.94
452.498	549.68
452.709	501.24
452.919	474.12
453.13	439.82
453.34	505.31
453.55	414.25
453.761	494.27
453.971	506.86
454.182	535.73
454.392	518.68
454.602	552.97
454.813	536.89
455.023	565.37
455.233	483.61
455.444	515.77
455.654	435.37
455.864	495.23
456.075	490.78
456.285	502.21
456.495	498.72
456.705	517.51
456.916	585.52
457.126	583.78
457.336	552.78
457.546	482.25
457.756	512.67
457.967	597.92
458.177	529.72
458.387	518.87
458.597	504.73
458.807	525.46
459.017	510.93
459.227	510.54
459.437	519.45
459.647	567.7
459.857	560.14
460.068	532.05
460.278	559.56
460.488	546.19
460.698	599.47
460.908	561.88
461.117	536.89
461.327	538.05
461.537	564.4
461.747	589.01
461.957	580.68
462.167	662.63
462.377	618.07
462.587	583.58
462.797	622.72
463.007	577.58
463.216	614.19
463.426	658.95
463.636	619.23
463.846	524.49
464.056	581.26
464.265	613.03
464.475	565.18
464.685	587.85
464.895	590.75
465.104	568.66
465.314	629.11
465.524	592.3
465.733	553.55
465.943	697.51
466.153	649.84
466.362	632.79
466.572	617.88
466.782	604.51
466.991	601.21
467.201	655.27
467.41	553.16
467.62	646.36
467.829	609.74
468.039	676.58
468.249	607.61
468.458	609.54
468.668	659.92
468.877	648.88
469.086	701.19
469.296	736.06
469.505	662.63
469.715	736.84
469.924	664.57
470.134	716.69
470.343	683.36
470.552	647.13
470.762	661.86
470.971	640.93
471.18	644.81
471.39	682.2
471.599	638.61
471.808	711.84
472.018	661.08
472.227	744.78
472.436	742.07
472.645	737.42
472.855	725.21
473.064	778.49
473.273	733.74
473.482	762.22
473.691	776.94
473.901	774.23
474.11	755.24
474.319	851.15
474.528	743.62
474.737	840.49
474.946	807.36
475.155	795.35
475.364	849.4
475.573	800.97
475.783	820.15
475.992	849.4
476.201	830.61
476.41	834.49
476.619	799.03
476.828	818.99
477.037	769.39
477.245	816.27
477.454	859.87
477.663	835.26
477.872	871.1
478.081	921.09
478.29	838.75
478.499	936.98
478.708	878.66
478.917	947.05
479.125	872.85
479.334	909.66
479.543	930.58
479.752	908.69
479.961	941.82
480.169	962.55
480.378	919.73
480.587	1052.64
480.796	970.3
481.004	979.41
481.213	975.92
481.422	982.51
481.63	1009.25
481.839	1018.74
482.048	1065.24
482.256	1032.5
482.465	1067.18
482.674	1055.36
482.882	1050.71
483.091	1120.84
483.299	1064.08
483.508	1113.29
483.716	1081.13
483.925	1109.99
484.134	1069.5
484.342	1060.98
484.551	1112.32
484.759	1106.7
484.967	1115.61
485.176	1126.27
485.384	1095.66
485.593	1152.62
485.801	1094.88
486.01	1059.04
486.218	980.57
486.426	952.87
486.635	955.58
486.843	979.8
487.051	1032.11
487.26	1034.63
487.468	1075.51
487.676	1107.09
487.885	1082.68
488.093	1108.25
488.301	1176.06
488.509	1131.5
488.717	1186.72
488.926	1187.11
489.134	1154.56
489.342	1175.87
489.55	1138.28
489.758	1194.86
489.967	1204.35
490.175	1328.35
490.383	1240.97
490.591	1299.29
490.799	1255.3
491.007	1281.07
491.215	1306.07
491.423	1265.38
491.631	1266.35
491.839	1253.37
492.047	1279.72
492.255	1209.77
492.463	1183.23
492.671	1206.29
492.879	1309.94
493.087	1260.73
493.295	1293.47
493.503	1308.97
493.711	1377.56
493.919	1353.73
494.127	1374.65
494.334	1397.9
494.542	1324.08
494.75	1391.12
494.958	1351.79
495.166	1442.46
495.374	1398.48
495.581	1393.45
495.789	1448.08
495.997	1460.29
496.205	1389.38
496.412	1412.63
496.62	1439.36
496.828	1450.21
497.035	1418.44
497.243	1488.77
497.451	1475.21
497.658	1455.64
497.866	1440.91
498.074	1515.51
498.281	1459.71
498.489	1529.46
498.696	1456.61
498.904	1441.88
499.112	1432.2
499.319	1517.44
499.527	1488.19
499.734	1529.84
499.942	1511.44
500.149	1512.41
500.357	1524.42
500.564	1459.32
500.771	1503.11
500.979	1462.03
501.186	1469.98
501.394	1519.96
501.601	1447.11
501.808	1513.96
502.016	1512.41
502.223	1455.25
502.43	1510.86
502.638	1517.64
502.845	1521.71
503.052	1606.18
503.26	1572.27
503.467	1646.29
503.674	1609.09
503.881	1623.81
504.089	1663.92
504.296	1645.12
504.503	1577.12
504.71	1566.27
504.917	1589.32
505.125	1641.83
505.332	1637.76
505.539	1663.72
505.746	1741.42
505.953	1720.88
506.16	1755.37
506.367	1810.39
506.574	1806.9
506.781	1812.52
506.988	1755.95
507.195	1784.43
507.402	1771.64
507.609	1814.07
507.816	1775.71
508.023	1755.37
508.23	1762.73
508.437	1725.72
508.644	1819.3
508.851	1843.13
509.058	1872.39
509.265	1874.52
509.472	1882.66
509.679	1981.86
509.885	1872
510.092	1906.3
510.299	1927.22
510.506	1872.39
510.713	1910.75
510.92	1934.19
511.126	1972.56
511.333	2001.04
511.54	2001.04
511.746	2027.97
511.953	2054.51
512.16	2103.14
512.367	2057.22
512.573	2026.42
512.78	2030.1
512.987	2017.89
513.193	2044.24
513.4	1984.38
513.606	2047.15
513.813	2116.9
514.02	2062.84
514.226	2128.91
514.433	2148.67
514.639	2043.86
514.846	2107.4
515.052	2069.82
515.259	2163.79
515.465	2146.54
515.672	2135.11
515.878	2225.59
516.085	2210.28
516.291	2256.59
516.497	2189.55
516.704	2137.44
516.91	2103.34
517.117	2050.64
517.323	1956.09
517.529	1995.23
517.736	2013.24
517.942	2049.28
518.148	2083.57
518.354	2143.25
518.561	2144.41
518.767	2153.13
518.973	2213.58
519.179	2256.98
519.386	2205.25
519.592	2231.21
519.798	2262.6
520.004	2417.4
520.21	2384.66
520.417	2447.43
520.623	2457.12
520.829	2501.29
521.035	2494.9
521.241	2477.46
521.447	2541.59
521.653	2620.25
521.859	2514.27
522.065	2569.3
522.271	2691.94
522.477	2647.77
522.683	2708.8
522.889	2640.4
523.095	2590.8
523.301	2625.68
523.507	2594.29
523.713	2663.65
523.919	2647.38
524.125	2739.6
524.331	2775.64
524.537	2887.24
524.742	2843.64
524.948	2862.24
525.154	2859.73
525.36	2958.34
525.566	2792.69
525.772	2928.7
525.977	2814.58
526.183	2871.74
526.389	2933.93
526.595	2789.59
526.8	2827.76
527.006	2712.09
527.212	2637.88
527.417	2637.88
527.623	2683.61
527.829	2748.13
528.034	2784.75
528.24	2801.79
528.446	2848.68
528.651	2947.49
528.857	2942.07
529.062	3030.8
529.268	3031.39
529.473	3093
529.679	3035.84
529.884	3132.72
530.09	3105.78
530.295	3092.42
530.501	3087.77
530.706	3107.53
530.912	3137.17
531.117	3153.45
531.323	3161.2
531.528	3254.58
531.733	3220.1
531.939	3199.36
532.144	3215.45
532.35	3246.44
532.555	3235.4
532.76	3163.33
532.966	3144.53
533.171	3117.6
533.376	3056.38
533.581	3077.3
533.787	3146.86
533.992	3198.01
534.197	3158.68
534.402	3175.53
534.607	3228.04
534.813	3308.25
535.018	3265.24
535.223	3283.26
535.428	3304.96
535.633	3344.48
535.838	3357.27
536.043	3383.04
536.249	3431.09
536.454	3363.47
536.659	3386.52
536.864	3421.4
537.069	3336.15
537.274	3391.37
537.479	3340.02
537.684	3354.36
537.889	3321.04
538.094	3449.88
538.299	3358.82
538.504	3442.52
538.708	3432.64
538.913	3458.21
539.118	3447.55
539.323	3464.02
539.528	3357.27
539.733	3365.02
539.938	3387.11
540.142	3434.77
540.347	3353.59
540.552	3312.32
540.757	3298.76
540.962	3340.41
541.166	3293.91
541.371	3299.73
541.576	3291.39
541.781	3268.53
541.985	3416.75
542.19	3375.67
542.395	3528.15
542.599	3519.63
542.804	3439.03
543.008	3494.44
543.213	3462.67
543.418	3397.57
543.622	3472.55
543.827	3406.29
544.031	3486.69
544.236	3553.53
544.44	3483.59
544.645	3608.95
544.849	3474.68
545.054	3513.23
545.258	3626
545.463	3562.45
545.667	3509.55
545.872	3588.99
546.076	3586.28
546.281	3541.33
546.485	3515.56
546.689	3564.58
546.894	3534.16
547.098	3595.96
547.302	3510.72
547.507	3556.63
547.711	3588.8
547.915	3587.63
548.119	3482.43
548.324	3530.48
548.528	3577.56
548.732	3526.02
548.936	3626.58
549.141	3596.74
549.345	3609.91
549.549	3616.5
549.753	3614.37
549.957	3643.63
550.161	3701.36
550.366	3649.05
550.57	3614.18
550.774	3595.77
550.978	3652.54
551.182	3648.86
551.386	3575.43
551.59	3590.93
551.794	3625.61
551.998	3662.42
552.202	3682.38
552.406	3619.21
552.61	3689.74
552.814	3663.78
553.018	3660.1
553.222	3627.74
553.426	3586.47
553.63	3699.04
553.833	3604.1
554.037	3558.57
554.241	3648.66
554.445	3632.58
554.649	3673.27
554.853	3636.26
555.056	3681.02
555.26	3683.93
555.464	3665.91
555.668	3683.15
555.871	3666.49
556.075	3721.32
556.279	3589.57
556.483	3559.93
556.686	3608.17
556.89	3633.16
557.094	3616.5
557.297	3548.88
557.501	3600.61
557.704	3524.47
557.908	3578.91
558.112	3504.52
558.315	3610.11
558.519	3539.58
558.722	3507.42
558.926	3500.64
559.129	3368.7
559.333	3390.01
559.536	3378
559.74	3356.49
559.943	3346.42
560.147	3361.14
560.35	3391.17
560.553	3435.35
560.757	3374.32
560.96	3469.84
561.164	3438.06
561.367	3534.74
561.57	3472.55
561.774	3466.35
561.977	3413.26
562.18	3363.86
562.384	3490.95
562.587	3373.35
562.79	3412.87
562.993	3368.89
563.197	3397.96
563.4	3484.37
563.603	3446.2
563.806	3471
564.009	3359.98
564.212	3419.65
564.416	3336.73
564.619	3354.94
564.822	3283.64
565.025	3365.41
565.228	3324.91
565.431	3335.76
565.634	3241.21
565.837	3232.69
566.04	3201.69
566.243	3193.94
566.446	3092.61
566.649	3238.31
566.852	3113.15
567.055	3169.14
567.258	3204.21
567.461	3262.14
567.664	3247.61
567.867	3165.85
568.07	3187.55
568.273	3206.92
568.475	3231.14
568.678	3113.53
568.881	3115.86
569.084	3090.09
569.287	3004.07
569.489	3005.62
569.692	3094.93
569.895	3081.37
570.098	2981.79
570.3	2967.64
570.503	2918.04
570.706	2936.64
570.909	2936.45
571.111	2865.93
571.314	2851.59
571.516	2883.75
571.719	2908.36
571.922	2867.48
572.124	2862.05
572.327	2928.51
572.529	2870.96
572.732	2887.43
572.935	2927.54
573.137	2977.33
573.34	2869.61
573.542	2955.24
573.745	2905.06
573.947	2928.7
574.15	2839.58
574.352	2890.72
574.554	2938.39
574.757	2839.58
574.959	2789.98
575.162	2832.99
575.364	2800.44
575.566	2890.34
575.769	2735.34
575.971	2777.38
576.173	2635.75
576.376	2727.01
576.578	2776.61
576.78	2813.81
576.982	2712.67
577.185	2722.55
577.387	2714.03
577.589	2721
577.791	2738.63
577.993	2732.63
578.196	2687.68
578.398	2742.7
578.6	2693.1
578.802	2622.77
579.004	2623.16
579.206	2635.17
579.408	2684
579.61	2694.46
579.812	2755.68
580.014	2665.78
580.216	2669.27
580.418	2720.23
580.62	2671.6
580.822	2632.27
581.024	2709.18
581.226	2736.11
581.428	2699.88
581.63	2771.38
581.832	2695.43
582.034	2727.98
582.236	2731.85
582.438	2777.77
582.64	2782.42
582.841	2787.65
583.043	2871.16
583.245	2733.79
583.447	2766.34
583.649	2747.35
583.85	2783.2
584.052	2779.32
584.254	2680.51
584.456	2749.87
584.657	2700.66
584.859	2751.61
585.061	2720.81
585.262	2705.89
585.464	2672.95
585.666	2715.96
585.867	2654.74
586.069	2705.5
586.27	2647.18
586.472	2648.15
586.674	2626.26
586.875	2615.99
587.077	2600.1
587.278	2633.62
587.48	2635.17
587.681	2714.03
587.883	2613.09
588.084	2534.62
588.285	2595.45
588.487	2502.07
588.688	2512.53
588.89	2400.74
589.091	2384.46
589.292	2308.71
589.494	2268.21
589.695	2258.72
589.896	2148.09
590.098	2173.47
590.299	2266.66
590.5	2277.51
590.702	2268.41
590.903	2348.04
591.104	2445.49
591.305	2435.42
591.507	2451.89
591.708	2409.26
591.909	2397.06
592.11	2420.11
592.311	2463.12
592.512	2340.48
592.714	2337.19
592.915	2382.72
593.116	2388.34
593.317	2428.06
593.518	2388.14
593.719	2409.65
593.92	2438.71
594.121	2438.91
594.322	2402.09
594.523	2379.62
594.724	2334.67
594.925	2312
595.126	2322.46
595.327	2383.3
595.528	2372.64
595.729	2362.76
595.929	2381.75
596.13	2392.79
596.331	2442.2
596.532	2399.96
596.733	2465.84
596.934	2411.59
597.135	2462.74
597.335	2449.37
597.536	2389.69
597.737	2423.02
597.938	2399.19
598.138	2452.66
598.339	2397.06
598.54	2407.33
598.74	2407.13
598.941	2421.86
599.142	2439.1
599.342	2439.29
599.543	2356.37
599.744	2393.57
599.944	2405.97
600.145	2402.68
600.345	2423.6
600.546	2457.31
600.746	2428.64
600.947	2486.76
601.147	2422.24
601.348	2444.52
601.548	2379.81
601.749	2386.59
601.949	2337.38
602.15	2317.62
602.35	2324.21
602.551	2391.63
602.751	2340.29
602.951	2366.64
603.152	2285.46
603.352	2412.36
603.552	2358.5
603.753	2392.6
603.953	2418.56
604.153	2410.62
604.354	2382.91
604.554	2386.98
604.754	2357.14
604.954	2361.79
605.155	2411.2
605.355	2390.66
605.555	2411.01
605.755	2384.46
605.955	2344.94
606.155	2381.75
606.356	2355.21
606.556	2428.83
606.756	2417.01
606.956	2336.8
607.156	2388.92
607.356	2367.99
607.556	2359.28
607.756	2361.21
607.956	2374.39
608.156	2337.77
608.356	2313.94
608.556	2366.06
608.756	2339.13
608.956	2296.7
609.156	2293.4
609.356	2306
609.556	2288.95
609.755	2326.92
609.955	2265.89
610.155	2287.98
610.355	2273.64
610.555	2223.85
610.755	2257.56
610.954	2224.62
611.154	2282.55
611.354	2324.6
611.554	2234.89
611.753	2278.1
611.953	2227.53
612.153	2320.33
612.352	2254.85
612.552	2184.71
612.752	2151.58
612.951	2205.63
613.151	2213
613.351	2203.31
613.55	2173.86
613.75	2214.55
613.949	2198.08
614.149	2217.65
614.348	2191.68
614.548	2130.85
614.747	2085.51
614.947	2153.32
615.146	2087.45
615.346	2192.46
615.545	2125.04
615.745	2139.57
615.944	2131.24
616.144	2093.26
616.343	2123.1
616.542	2095.97
616.742	2079.12
616.941	2084.74
617.14	2037.85
617.34	2034.94
617.539	2061.68
617.738	2068.07
617.938	2155.45
618.137	2078.73
618.336	2083.96
618.535	2149.64
618.734	2086.48
618.934	2078.92
619.133	2119.42
619.332	2135.3
619.531	2067.88
619.73	2049.67
619.929	2105.47
620.128	2081.64
620.328	2126.39
620.527	2083.77
620.726	2084.74
620.925	2106.24
621.124	2089.39
621.323	2066.33
621.522	2029.91
621.721	2014.02
621.92	1965
622.119	2075.24
622.318	2006.27
622.517	2027.58
622.715	2019.06
622.914	1976.82
623.113	2005.88
623.312	1924.89
623.511	2017.89
623.71	2005.49
623.909	1957.64
624.107	2017.12
624.306	1941.94
624.505	1960.74
624.704	1958.99
624.902	1960.16
625.101	1989.99
625.3	1969.46
625.499	1941.75
625.697	1928.19
625.896	1904.36
626.095	1956.09
626.293	1908.81
626.492	1937.29
626.69	1912.5
626.889	1942.91
627.088	1966.74
627.286	1931.87
627.485	1902.81
627.683	1859.8
627.882	1860.57
628.08	1775.71
628.279	1795.67
628.477	1841.97
628.676	1767.96
628.874	1846.62
629.073	1758.66
629.271	1776.48
629.469	1801.09
629.668	1798.96
629.866	1748.39
630.065	1784.04
630.263	1801.28
630.461	1774.93
630.66	1830.73
630.858	1823.76
631.056	1854.56
631.254	1853.21
631.453	1797.41
631.651	1857.86
631.849	1828.99
632.047	1822.98
632.245	1840.03
632.444	1838.87
632.642	1886.73
632.84	1876.07
633.038	1838.87
633.236	1815.04
633.434	1843.52
633.632	1850.88
633.83	1836.74
634.028	1850.88
634.227	1873.16
634.425	1902.81
634.623	1843.91
634.821	1879.36
635.019	1846.81
635.216	1867.16
635.414	1891.76
635.612	1867.55
635.81	1870.65
636.008	1896.8
636.206	1851.85
636.404	1917.53
636.602	1852.05
636.8	1844.49
636.997	1889.44
637.195	1874.13
637.393	1847.78
637.591	1935.36
637.789	1895.45
637.986	1899.32
638.184	1903.2
638.382	1898.55
638.58	1892.15
638.777	1968.1
638.975	1880.33
639.173	1833.83
639.37	1868.13
639.568	1853.6
639.765	1883.43
639.963	1821.63
640.161	1827.25
640.358	1873.36
640.556	1789.47
640.753	1803.22
640.951	1793.34
641.148	1809.42
641.346	1772.8
641.543	1752.07
641.741	1762.34
641.938	1752.27
642.136	1790.05
642.333	1721.46
642.531	1805.16
642.728	1808.65
642.925	1760.4
643.123	1729.4
643.32	1766.41
643.517	1733.67
643.715	1723.01
643.912	1729.99
644.109	1767.18
644.306	1699.76
644.504	1687.36
644.701	1733.09
644.898	1714.1
645.095	1688.52
645.293	1690.27
645.49	1702.67
645.687	1671.67
645.884	1703.83
646.081	1599.98
646.278	1587.77
646.475	1611.41
646.672	1596.88
646.87	1635.24
647.067	1616.84
647.264	1586.42
647.461	1525.97
647.658	1516.86
647.855	1559.49
648.052	1516.67
648.249	1463.39
648.446	1525.19
648.642	1542.83
648.839	1507.18
649.036	1503.3
649.233	1480.05
649.43	1531.2
649.627	1449.25
649.824	1463.2
650.021	1447.7
650.217	1495.16
650.414	1506.4
650.611	1520.54
650.808	1517.44
651.004	1561.04
651.201	1554.26
651.398	1527.33
651.595	1506.4
651.791	1487.8
651.988	1513.38
652.185	1434.52
652.381	1492.84
652.578	1445.95
652.775	1477.15
652.971	1470.17
653.168	1507.56
653.364	1495.36
653.561	1459.9
653.757	1497.88
653.954	1512.79
654.15	1460.87
654.347	1518.99
654.543	1493.81
654.74	1427.93
654.936	1429.29
655.133	1417.08
655.329	1468.43
655.525	1397.13
655.722	1467.85
655.918	1357.6
656.115	1371.75
656.311	1290.57
656.507	1246.2
656.704	1203.77
656.9	1257.63
657.096	1278.55
657.292	1278.75
657.489	1323.12
657.685	1313.43
657.881	1286.5
658.077	1344.43
658.273	1368.45
658.47	1408.17
658.666	1370.97
658.862	1420.38
659.058	1366.52
659.254	1400.42
659.45	1378.53
659.646	1363.22
659.842	1380.08
660.038	1429.29
660.234	1357.22
660.43	1379.11
660.626	1420.57
660.822	1411.66
661.018	1405.07
661.214	1390.15
661.41	1335.71
661.606	1405.07
661.802	1410.3
661.998	1389.77
662.194	1338.62
662.39	1352.57
662.586	1424.25
662.781	1403.33
662.977	1389.96
663.173	1383.95
663.369	1320.98
663.564	1385.5
663.76	1382.79
663.956	1362.06
664.152	1365.16
664.347	1298.7
664.543	1320.21
664.739	1319.05
664.934	1247.75
665.13	1260.92
665.326	1335.13
665.521	1325.25
665.717	1264.6
665.912	1310.33
666.108	1207.26
666.304	1246.59
666.499	1270.61
666.695	1208.42
666.89	1227.4
667.086	1303.74
667.281	1264.8
667.477	1308.78
667.672	1231.47
667.867	1272.94
668.063	1252.59
668.258	1195.63
668.454	1245.42
668.649	1303.35
668.844	1270.42
669.04	1256.47
669.235	1213.26
669.43	1205.71
669.626	1189.24
669.821	1222.75
670.016	1171.41
670.211	1209.19
670.407	1159.4
670.602	1196.99
670.797	1200.86
670.992	1221.2
671.187	1169.09
671.382	1222.17
671.578	1137.7
671.773	1192.92
671.968	1139.25
672.163	1179.36
672.358	1162.31
672.553	1134.6
672.748	1145.26
672.943	1227.02
673.138	1168.12
673.333	1202.8
673.528	1126.08
673.723	1198.73
673.918	1148.94
674.113	1128.4
674.308	1233.02
674.503	1166.37
674.698	1238.45
674.892	1156.88
675.087	1195.82
675.282	1152.04
675.477	1128.21
675.672	1191.37
675.867	1157.85
676.061	1145.06
676.256	1111.16
676.451	1124.91
676.646	1157.66
676.84	1106.51
677.035	1099.14
677.23	1163.08
677.424	1191.95
677.619	1213.65
677.814	1171.8
678.008	1192.53
678.203	1109.61
678.397	1118.91
678.592	1138.09
678.787	1179.36
678.981	1164.63
679.176	1168.7
679.37	1149.52
679.565	1138.67
679.759	1150.68
679.954	1134.21
680.148	1180.91
680.342	1214.81
680.537	1146.42
680.731	1113.48
680.926	1190.4
681.12	1166.18
681.314	1132.27
681.509	1125.88
681.703	1150.49
681.897	1162.89
682.092	1117.55
682.286	1119.49
682.48	1244.65
682.674	1162.5
682.869	1166.37
683.063	1150.29
683.257	1213.07
683.451	1108.83
683.645	1183.62
683.839	1145.64
684.034	1159.79
684.228	1192.34
684.422	1118.52
684.616	1162.89
684.81	1193.11
685.004	1177.81
685.198	1124.33
685.392	1210.36
685.586	1193.11
685.78	1160.95
685.974	1245.04
686.168	1208.42
686.362	1221.4
686.556	1120.07
686.75	1069.69
686.944	1036.37
687.138	983.28
687.331	921.48
687.525	876.92
687.719	843.2
687.913	934.85
688.107	912.37
688.301	921.87
688.494	976.11
688.688	943.76
688.882	903.85
689.076	910.05
689.269	977.47
689.463	1054
689.657	978.83
689.85	981.15
690.044	1026.49
690.238	1049.74
690.431	1068.73
690.625	1042.57
690.818	1116.78
691.012	1158.04
691.205	1174.51
691.399	1145.64
691.593	1217.52
691.786	1260.54
691.98	1314.01
692.173	1319.43
692.366	1354.31
692.56	1348.69
692.753	1326.41
692.947	1353.73
693.14	1373.3
693.333	1396.93
693.527	1377.75
693.72	1410.88
693.914	1381.05
694.107	1399.65
694.3	1435.1
694.493	1415.73
694.687	1506.01
694.88	1438.4
695.073	1537.01
695.266	1521.32
695.46	1497.29
695.653	1575.18
695.846	1594.17
696.039	1546.7
696.232	1593.78
696.425	1663.34
696.618	1731.15
696.812	1739.87
697.005	1815.23
697.198	1903.39
697.391	1834.03
697.584	1920.63
697.777	1953.96
697.97	1922.96
698.163	1934.58
698.356	1945.63
698.549	2055.67
698.742	1978.95
698.935	1937.88
699.127	1950.66
699.32	1941.56
699.513	1958.8
699.706	2003.17
699.899	2014.99
700.092	1988.83
700.285	1999.49
700.477	1986.51
700.67	2027
700.863	2077.18
701.056	2166.3
701.248	2085.32
701.441	2156.42
701.634	2120.97
701.826	2206.6
702.019	2133.95
702.212	2207.96
702.404	2155.84
702.597	2121.55
702.79	2209.12
702.982	2200.6
703.175	2283.33
703.367	2275.96
703.56	2338.93
703.752	2370.9
703.945	2387.76
704.137	2400.54
704.33	2453.63
704.522	2488.51
704.715	2509.82
704.907	2543.92
705.1	2551.28
705.292	2539.85
705.484	2509.04
705.677	2572.2
705.869	2600.69
706.061	2653
706.254	2663.46
706.446	2634.59
706.638	2654.93
706.831	2723.52
707.023	2687.48
707.215	2812.84
707.407	2795.4
707.599	2762.85
707.792	2826.98
707.984	2838.99
708.176	2870.58
708.368	2851.39
708.56	2851.98
708.752	2861.86
708.944	2831.63
709.136	2891.69
709.329	2889.37
709.521	3043.01
709.713	2973.45
709.905	3021.12
710.097	3049.4
710.289	2984.89
710.481	3042.24
710.672	3063.16
710.864	3101.72
711.056	3123.42
711.248	3069.36
711.44	3106.95
711.632	3121.67
711.824	3161.58
712.016	3193.36
712.207	3220.1
712.399	3194.33
712.591	3271.83
712.783	3230.56
712.975	3287.91
713.166	3208.66
713.358	3200.33
713.55	3265.63
713.741	3297.21
713.933	3315.61
714.125	3270.28
714.316	3282.09
714.508	3337.51
714.7	3284.03
714.891	3315.03
715.083	3351.84
715.274	3280.54
715.466	3361.34
715.657	3353.39
715.849	3249.93
716.04	3281.13
716.232	3217.96
716.423	3218.35
716.615	3099.97
716.806	3075.56
716.998	2983.53
717.189	2881.42
717.381	2820.01
717.572	2729.72
717.763	2729.14
717.955	2692.72
718.146	2579.95
718.337	2558.84
718.528	2532.1
718.72	2443.17
718.911	2521.06
719.102	2436
719.293	2483.27
719.485	2422.44
719.676	2448.98
719.867	2380.59
720.058	2392.6
720.249	2384.85
720.44	2404.03
720.632	2492.38
720.823	2541.98
721.014	2660.17
721.205	2784.75
721.396	2814.97
721.587	3037.2
721.778	3060.64
721.969	3105.2
722.16	3183.28
722.351	3199.17
722.542	3334.79
722.733	3358.04
722.924	3254.39
723.115	3251.87
723.305	3217.19
723.496	3232.88
723.687	3076.72
723.878	3079.05
724.069	3055.22
724.26	3099.39
724.45	3009.3
724.641	2992.64
724.832	2984.89
725.023	2967.06
725.213	2996.32
725.404	2970.16
725.595	2960.09
725.785	2973.07
725.976	3019.95
726.167	2978.49
726.357	3023.44
726.548	3122.06
726.739	2995.74
726.929	3107.92
727.12	3143.76
727.31	3126.52
727.501	3063.55
727.691	3051.92
727.882	3037.78
728.072	3126.71
728.263	3162.75
728.453	3208.47
728.644	3172.63
728.834	3161.58
729.024	3135.23
729.215	3161.78
729.405	3164.3
729.596	3254.39
729.786	3251.29
729.976	3277.25
730.167	3296.82
730.357	3266.21
730.547	3300.11
730.737	3331.31
730.928	3378.97
731.118	3353.59
731.308	3281.13
731.498	3356.49
731.688	3452.98
731.879	3480.69
732.069	3542.3
732.259	3576.4
732.449	3624.45
732.639	3750.57
732.829	3729.26
733.019	3771.31
733.209	3863.53
733.399	3936.38
733.589	4001.48
733.779	4003.61
733.969	4015.81
734.159	4131.09
734.349	4177.21
734.539	4203.94
734.729	4201.04
734.919	4220.8
735.109	4285.12
735.299	4176.63
735.488	4221.77
735.678	4191.35
735.868	4247.34
736.058	4236.3
736.248	4199.68
736.437	4159.38
736.627	4207.62
736.817	4304.69
737.007	4205.11
737.196	4319.61
737.386	4274.47
737.576	4234.56
737.765	4377.35
737.955	4291.13
738.144	4435.86
738.334	4371.73
738.524	4327.36
738.713	4413.19
738.903	4352.35
739.092	4393.43
739.282	4398.85
739.471	4418.42
739.661	4409.32
739.85	4413.77
740.04	4430.63
740.229	4477.9
740.419	4471.7
740.608	4537.77
740.797	4508.71
740.987	4523.82
741.176	4535.06
741.365	4549.78
741.555	4487.01
741.744	4590.47
741.933	4517.62
742.123	4592.79
742.312	4601.9
742.501	4632.9
742.69	4642.97
742.88	4573.61
743.069	4704.39
743.258	4677.07
743.447	4678.43
743.636	4682.11
743.825	4632.32
744.014	4733.65
744.204	4740.24
744.393	4593.96
744.582	4749.15
744.771	4779.76
744.96	4698.77
745.149	4730.55
745.338	4681.92
745.527	4717.18
745.716	4721.83
745.905	4685.41
746.094	4754.77
746.283	4727.64
746.471	4735.97
746.66	4780.54
746.849	4779.76
747.038	4760.19
747.227	4779.76
747.416	4709.43
747.604	4706.52
747.793	4764.65
747.982	4751.47
748.171	4726.67
748.359	4766.78
748.548	4706.33
748.737	4691.22
748.926	4736.94
749.114	4615.46
749.303	4710.21
749.491	4737.14
749.68	4603.45
749.869	4750.7
750.057	4699.74
750.246	4635.03
750.434	4672.62
750.623	4687.15
750.811	4624.37
751	4713.5
751.188	4678.62
751.377	4658.28
751.565	4588.34
751.754	4582.91
751.942	4607.13
752.131	4675.14
752.319	4574.97
752.507	4579.81
752.696	4662.35
752.884	4630.19
753.072	4612.17
753.261	4599.58
753.449	4594.73
753.637	4579.04
753.825	4653.63
754.014	4562.38
754.202	4537.19
754.39	4613.91
754.578	4589.5
754.766	4503.09
754.955	4552.69
755.143	4626.31
755.331	4523.05
755.519	4578.26
755.707	4575.36
755.895	4493.21
756.083	4583.88
756.271	4497.08
756.459	4523.24
756.647	4504.64
756.835	4462.21
757.023	4487.59
757.211	4443.42
757.399	4471.51
757.587	4455.81
757.775	4403.12
757.963	4435.28
758.151	4434.12
758.339	4359.52
758.526	4366.69
758.714	4360.3
758.902	4216.54
759.09	4105.33
759.278	3844.54
759.465	3511.1
759.653	3048.24
759.841	2729.14
760.028	2361.21
760.216	2056.45
760.404	1871.42
760.591	1556.97
760.779	1338.42
760.967	1140.99
761.154	967.4
761.342	988.32
761.529	959.26
761.717	1037.15
761.905	1015.83
762.092	1122.2
762.28	1019.71
762.467	1018.35
762.655	920.12
762.842	946.28
763.029	955.38
763.217	952.09
763.404	972.43
763.592	1016.41
763.779	960.81
763.966	1016.41
764.154	1052.84
764.341	1122.2
764.528	1169.47
764.716	1220.62
764.903	1304.9
765.09	1383.95
765.277	1469.78
765.465	1625.94
765.652	1735.02
765.839	1823.76
766.026	2012.86
766.213	2035.91
766.4	2174.05
766.588	2458.67
766.775	2466.03
766.962	2605.92
767.149	2725.26
767.336	2891.5
767.523	2902.74
767.71	3057.35
767.897	3178.63
768.084	3296.04
768.271	3379.94
768.458	3442.52
768.645	3517.5
768.832	3510.91
769.019	3534.74
769.206	3631.61
769.392	3713.96
769.579	3807.92
769.766	3793.39
769.953	3787.77
770.14	3833.89
770.327	3849
770.513	3875.15
770.7	3959.82
770.887	3870.12
771.073	3905.96
771.26	3932.5
771.447	3896.08
771.634	3855.78
771.82	4041.78
772.007	3881.74
772.193	3968.54
772.38	3950.91
772.567	3912.35
772.753	3899.37
772.94	3949.94
773.126	4016.2
773.313	3926.11
773.499	3984.43
773.686	4027.05
773.872	3871.47
774.059	3956.72
774.245	3892.2
774.432	3934.25
774.618	3838.92
774.804	3954.2
774.991	3838.15
775.177	3881.16
775.363	3855.97
775.55	3916.23
775.736	3845.12
775.922	3897.63
776.109	3890.27
776.295	3852.29
776.481	3869.92
776.667	3890.27
776.853	3849.77
777.04	3851.71
777.226	3829.04
777.412	3927.85
777.598	3795.72
777.784	3809.28
777.97	3782.93
778.156	3824.2
778.342	3789.52
778.528	3748.83
778.715	3698.84
778.901	3768.59
779.087	3780.22
779.272	3742.63
779.458	3736.24
779.644	3711.05
779.83	3696.52
780.016	3806.37
780.202	3738.76
780.388	3740.5
780.574	3649.83
780.76	3641.88
780.946	3680.05
781.131	3679.47
781.317	3665.52
781.503	3621.93
781.689	3627.74
781.874	3722.09
782.06	3619.41
782.246	3641.69
782.432	3641.11
782.617	3604.68
782.803	3649.05
782.989	3530.67
783.174	3579.11
783.36	3528.35
783.545	3557.22
783.731	3527.77
783.916	3446.97
784.102	3545.78
784.288	3525.83
784.473	3546.75
784.659	3458.99
784.844	3527.96
785.029	3457.05
785.215	3433.6
785.4	3367.15
785.586	3528.73
785.771	3429.34
785.956	3496.57
786.142	3413.84
786.327	3420.24
786.512	3384.59
786.698	3440
786.883	3328.79
787.068	3403.57
787.254	3388.85
787.439	3346.42
787.624	3325.11
787.809	3284.81
787.994	3326.46
788.18	3388.27
788.365	3234.63
788.55	3237.92
788.735	3297.4
788.92	3292.56
789.105	3222.03
789.29	3248.38
789.475	3171.46
789.66	3222.61
789.845	3138.91
790.03	3153.25
790.215	3196.85
790.4	3197.62
790.585	3192.78
790.77	3157.32
790.955	3121.09
791.14	3126.13
791.325	3194.71
791.51	3055.41
791.695	3153.45
791.879	3121.28
792.064	3060.45
792.249	3185.03
792.434	3123.61
792.618	3151.12
792.803	3166.62
792.988	3104.62
793.173	3126.52
793.357	3151.51
793.542	3089.9
793.727	3152.67
793.911	3148.41
794.096	3167.98
794.281	3228.23
794.465	3217.38
794.65	3115.28
794.834	3169.14
795.019	3225.13
795.203	3269.5
795.388	3211.57
795.572	3252.26
795.757	3217.38
795.941	3185.22
796.126	3168.36
796.31	3127.48
796.494	3123.8
796.679	3112.95
796.863	3143.76
797.048	3233.08
797.232	3190.65
797.416	3185.41
797.601	3212.15
797.785	3231.72
797.969	3208.66
798.153	3150.73
798.338	3207.89
798.522	3241.6
798.706	3276.48
798.89	3249.16
799.074	3331.11
799.258	3270.28
799.443	3254.19
799.627	3222.61
799.811	3308.44
799.995	3242.38
800.179	3201.88
800.363	3199.36
800.547	3243.34
800.731	3246.25
800.915	3155.96
801.099	3152.48
801.283	3155.77
801.467	3223.97
801.651	3157.13
801.835	3284.23
802.019	3156.35
802.202	3218.16
802.386	3162.75
802.57	3088.54
802.754	3144.53
802.938	3137.95
803.121	3139.69
803.305	3204.01
803.489	3125.74
803.673	3169.14
803.856	3191.81
804.04	3145.7
804.224	3167.4
804.407	3160.81
804.591	3138.33
804.775	3152.28
804.958	3193.94
805.142	3282.09
805.326	3171.27
805.509	3189.87
805.693	3267.56
805.876	3261.17
806.06	3202.66
806.243	3218.93
806.427	3280.16
806.61	3259.81
806.794	3169.14
806.977	3233.08
807.16	3228.04
807.344	3222.03
807.527	3209.63
807.71	3198.98
807.894	3206.15
808.077	3229.01
808.26	3218.55
808.444	3149.76
808.627	3192
808.81	3143.56
808.993	3065.87
809.177	3105.59
809.36	3128.45
809.543	3088.35
809.726	2972.49
809.909	3000.97
810.092	3000.19
810.276	2919.01
810.459	3035.84
810.642	2960.09
810.825	2952.34
811.008	2944.59
811.191	2843.64
811.374	2853.91
811.557	2860.11
811.74	2915.72
811.923	2801.41
812.106	2844.03
812.289	2760.53
812.472	2744.25
812.654	2697.37
812.837	2721.78
813.02	2656.68
813.203	2579.76
813.386	2483.27
813.569	2454.21
813.751	2410.62
813.934	2419.34
814.117	2381.56
814.3	2329.83
814.482	2248.45
814.665	2214.93
814.848	2190.33
815.03	2154.1
815.213	2147.9
815.396	2100.82
815.578	2075.63
815.761	2055.09
815.943	2124.26
816.126	1992.9
816.309	1954.93
816.491	1891.76
816.674	1856.89
816.856	1914.05
817.039	1904.75
817.221	1958.41
817.403	1961.13
817.586	1930.9
817.768	1957.64
817.951	1865.61
818.133	1839.84
818.315	1869.68
818.498	1912.88
818.68	1965.97
818.862	1958.99
819.045	1983.99
819.227	1970.62
819.409	1925.67
819.591	1966.94
819.774	1937.1
819.956	1933.61
820.138	2029.32
820.32	2014.99
820.502	2096.17
820.684	2172.12
820.866	2178.12
821.048	2225.78
821.231	2248.07
821.413	2231.98
821.595	2234.31
821.777	2255.82
821.959	2205.25
822.141	2256.59
822.323	2116.7
822.505	2053.16
822.686	1979.34
822.868	1850.69
823.05	1763.12
823.232	1675.74
823.414	1639.7
823.596	1753.62
823.778	1744.9
823.96	1768.54
824.141	1790.05
824.323	1805.55
824.505	1872.39
824.687	1954.15
824.868	2033.01
825.05	2142.09
825.232	2157.78
825.413	2225.59
825.595	2162.04
825.777	2127.94
825.958	2186.84
826.14	2153.32
826.321	2186.07
826.503	2175.02
826.685	2178.51
826.866	2209.51
827.048	2209.9
827.229	2179.28
827.411	2098.69
827.592	2002.59
827.773	2031.26
827.955	1966.94
828.136	1942.72
828.318	1925.86
828.499	1971.78
828.68	1911.53
828.862	1925.28
829.043	1986.51
829.224	1913.08
829.406	1906.68
829.587	1901.84
829.768	1936.52
829.949	1950.08
830.131	1918.89
830.312	1992.32
830.493	1937.49
830.674	1962.48
830.855	1959.58
831.036	1916.37
831.218	1998.13
831.399	2029.91
831.58	1955.12
831.761	1953.96
831.942	1971.78
832.123	1929.35
832.304	1945.82
832.485	1925.86
832.666	1944.08
832.847	1970.81
833.028	1962.87
833.209	1965.58
833.389	1927.99
833.57	1877.43
833.751	1907.26
833.932	1982.24
834.113	1934.97
834.294	1907.85
834.475	1958.8
834.655	2061.87
834.836	2025.45
835.017	2001.04
835.198	1970.62
835.378	1962.68
835.559	2046.57
835.74	1991.54
835.92	1998.13
836.101	1961.13
836.281	2058.97
836.462	2014.21
836.643	2063.23
836.823	2078.54
837.004	2049.47
837.184	2094.42
837.365	2054.51
837.545	2060.71
837.726	2031.65
837.906	2095
838.087	2040.95
838.267	2025.06
838.448	2012.27
838.628	2041.34
838.808	2038.62
838.989	2082.61
839.169	2021.96
839.349	2071.37
839.53	2078.54
839.71	2134.14
839.89	2018.47
840.07	2104.5
840.251	2017.12
840.431	2098.69
840.611	2041.34
840.791	2012.66
840.971	2070.59
841.151	2045.21
841.332	2022.93
841.512	2062.84
841.692	1983.02
841.872	2024.29
842.052	2019.83
842.232	2051.22
842.412	1971.98
842.592	1997.74
842.772	2072.14
842.952	2071.17
843.132	2004.33
843.312	2003.75
843.492	2005.69
843.672	2020.8
843.851	1977.4
844.031	1950.08
844.211	1968.68
844.391	1962.48
844.571	2012.47
844.751	1995.23
844.93	1997.55
845.11	1968.68
845.29	1977.4
845.47	2046.18
845.649	2014.99
845.829	2008.79
846.009	1967.13
846.188	2020.99
846.368	1966.74
846.547	1973.72
846.727	2017.12
846.907	1945.82
847.086	1947.76
847.266	2012.27
847.445	1969.07
847.625	1965.78
847.804	1925.67
847.984	1957.25
848.163	1917.34
848.343	1925.86
848.522	1948.53
848.701	1965.78
848.881	1938.26
849.06	1942.33
849.239	1911.33
849.419	1934.78
849.598	1865.41
849.777	1869.48
849.957	1840.81
850.136	1777.84
850.315	1735.99
850.494	1787.33
850.674	1813.3
850.853	1838.48
851.032	1773.38
851.211	1868.13
851.39	1801.28
851.569	1779
851.748	1771.64
851.927	1825.12
852.107	1792.37
852.286	1768.15
852.465	1777.84
852.644	1823.76
852.823	1848.17
853.002	1785.01
853.181	1797.99
853.359	1795.86
853.538	1758.08
853.717	1802.83
853.896	1679.42
854.075	1576.54
854.254	1571.69
854.433	1499.81
854.611	1560.84
854.79	1481.79
854.969	1592.81
855.148	1596.88
855.327	1533.53
855.505	1653.07
855.684	1594.75
855.863	1625.56
856.041	1603.86
856.22	1662.17
856.399	1649
856.577	1754.01
856.756	1696.47
856.934	1811.55
857.113	1783.65
857.291	1752.85
857.47	1702.28
857.648	1731.73
857.827	1719.72
858.005	1782.1
858.184	1704.99
858.362	1806.13
858.541	1734.05
858.719	1724.95
858.898	1681.55
859.076	1654.81
859.254	1780.94
859.433	1689.88
859.611	1697.24
859.789	1666.63
859.967	1726.89
860.146	1745.48
860.324	1627.49
860.502	1662.75
860.68	1630.98
860.859	1623.62
861.037	1667.02
861.215	1653.07
861.393	1649
861.571	1664.5
861.749	1584.09
861.927	1646.29
862.105	1640.47
862.283	1626.91
862.461	1611.8
862.639	1607.34
862.817	1620.13
862.995	1637.57
863.173	1622.84
863.351	1612.38
863.529	1595.33
863.707	1664.11
863.885	1631.37
864.063	1563.94
864.241	1592.42
864.418	1668.95
864.596	1618.97
864.774	1552.51
864.952	1580.41
865.129	1609.09
865.307	1540.69
865.485	1517.44
865.663	1605.99
865.84	1494.39
866.018	1488.58
866.196	1366.71
866.373	1379.69
866.551	1343.07
866.728	1334.93
866.906	1342.68
867.084	1402.16
867.261	1410.69
867.439	1425.8
867.616	1464.75
867.794	1446.73
867.971	1464.16
868.149	1463.78
868.326	1519.96
868.503	1475.01
868.681	1449.83
868.858	1474.82
869.035	1459.71
869.213	1479.08
869.39	1458.16
869.567	1510.28
869.745	1433.36
869.922	1461.65
870.099	1491.09
870.276	1497.1
870.454	1470.56
870.631	1490.13
870.808	1455.83
870.985	1483.34
871.162	1505.43
871.339	1470.56
871.517	1454.67
871.694	1413.4
871.871	1445.56
872.048	1420.57
872.225	1444.4
872.402	1452.15
872.579	1381.24
872.756	1437.62
872.933	1373.3
873.11	1429.1
873.287	1423.86
873.463	1404.3
873.64	1376.59
873.817	1397.9
873.994	1389.57
874.171	1338.81
874.348	1404.49
874.524	1359.35
874.701	1396.16
874.878	1335.13
875.055	1329.9
875.231	1351.4
875.408	1362.25
875.585	1322.53
875.762	1356.63
875.938	1374.65
876.115	1310.72
876.291	1326.6
876.468	1339.58
876.645	1274.87
876.821	1294.25
876.998	1293.09
877.174	1327.18
877.351	1321.57
877.527	1302.77
877.704	1310.33
877.88	1336.29
878.057	1298.51
878.233	1357.6
878.409	1282.82
878.586	1335.9
878.762	1292.12
878.938	1285.14
879.115	1209
879.291	1270.8
879.467	1216.94
879.644	1245.42
879.82	1261.89
879.996	1227.21
880.172	1223.72
880.349	1260.92
880.525	1299.29
880.701	1220.24
880.877	1189.43
881.053	1234.38
881.229	1230.7
881.405	1259.18
881.581	1202.02
881.757	1222.37
881.933	1233.22
882.109	1268.09
882.285	1240.19
882.461	1178.77
882.637	1227.4
882.813	1215.78
882.989	1213.26
883.165	1265.77
883.341	1197.96
883.517	1265.77
883.693	1234.38
883.869	1239.61
884.044	1209.97
884.22	1229.92
884.396	1268.09
884.572	1251.82
884.747	1254.72
884.923	1235.35
885.099	1282.04
885.275	1263.44
885.45	1254.72
885.626	1196.6
885.801	1174.71
885.977	1205.9
886.153	1158.82
886.328	1200.47
886.504	1184.01
886.679	1206.87
886.855	1178.58
887.03	1201.83
887.206	1249.49
887.381	1224.11
887.557	1215.39
887.732	1222.17
887.908	1250.27
888.083	1249.69
888.258	1174.12
888.434	1188.27
888.609	1218.49
888.784	1211.71
888.96	1213.07
889.135	1225.66
889.31	1180.52
889.485	1224.5
889.661	1186.72
889.836	1199.12
890.011	1226.82
890.186	1181.87
890.361	1214.04
890.537	1213.46
890.712	1226.44
890.887	1213.46
891.062	1195.63
891.237	1237.29
891.412	1173.54
891.587	1211.71
891.762	1231.47
891.937	1221.4
892.112	1182.07
892.287	1173.93
892.462	1147.77
892.637	1111.16
892.812	1113.87
892.987	1124.91
893.161	1078.03
893.336	1103.6
893.511	1085
893.686	1117.36
893.861	1101.47
894.035	1119.1
894.21	1105.15
894.385	1024.55
894.56	1066.21
894.734	998.2
894.909	972.05
895.084	999.95
895.258	969.33
895.433	983.86
895.608	956.16
895.782	887.38
895.957	926.13
896.131	916.05
896.306	887.96
896.48	840.69
896.655	826.74
896.829	775.59
897.004	786.24
897.178	778.88
897.353	756.99
897.527	812.98
897.701	797.48
897.876	755.82
898.05	818.02
898.224	803.29
898.399	860.64
898.573	782.17
898.747	699.44
898.921	706.22
899.096	606.44
899.27	640.93
899.444	657.79
899.618	705.26
899.792	681.43
899.967	707.58
900.141	736.64
900.315	666.89
900.489	633.96
900.663	717.07
900.837	673.09
901.011	643.64
901.185	727.54
901.359	666.7
901.533	685.3
901.707	705.06
901.881	699.64
902.055	641.13
902.229	690.14
902.403	713.39
902.576	711.65
902.75	693.63
902.924	790.5
903.098	781.4
903.272	805.04
903.446	856.19
903.619	813.37
903.793	885.44
903.967	847.27
904.14	885.05
904.314	898.81
904.488	854.83
904.661	902.68
904.835	901.91
905.009	889.9
905.182	947.83
905.356	914.89
905.529	898.81
905.703	850.37
905.876	823.25
906.05	809.49
906.223	804.84
906.397	705.45
906.57	690.34
906.744	691.5
906.917	676
907.09	706.03
907.264	635.12
907.437	614.58
907.61	601.41
907.784	643.45
907.957	663.99
908.13	606.06
908.304	629.31
908.477	604.89
908.65	615.16
908.823	580.48
908.996	644.81
909.17	607.22
909.343	593.85
909.516	605.28
909.689	571.57
909.862	543.28
910.035	595.21
910.208	589.98
910.381	548.71
910.554	633.18
910.727	620.59
910.9	589.4
911.073	600.25
911.246	628.92
911.419	667.48
911.592	623.49
911.765	619.62
911.938	586.49
912.11	585.52
912.283	578.16
912.456	656.82
912.629	608.96
912.802	567.89
912.974	494.46
913.147	496.4
913.32	442.34
913.493	481.48
913.665	513.83
913.838	508.22
914.01	501.05
914.183	518.29
914.356	564.4
914.528	565.56
914.701	592.3
914.873	575.64
915.046	523.13
915.218	469.66
915.391	393.13
915.563	428.78
915.736	506.28
915.908	498.14
916.081	531.46
916.253	517.71
916.425	504.15
916.598	538.63
916.77	503.95
916.942	442.92
917.115	431.49
917.287	498.72
917.459	461.72
917.632	437.3
917.804	375.5
917.976	483.22
918.148	486.13
918.32	475.47
918.493	512.48
918.665	555.88
918.837	542.9
919.009	583.58
919.181	579.13
919.353	566.15
919.525	541.73
919.697	550.45
919.869	570.99
920.041	610.71
920.213	650.62
920.385	601.02
920.557	552.97
920.729	595.79
920.901	606.44
921.073	537.86
921.244	546.38
921.416	605.48
921.588	576.8
921.76	548.32
921.932	603.93
922.103	573.7
922.275	570.41
922.447	587.65
922.619	498.14
922.79	539.02
922.962	557.43
923.134	533.01
923.305	490.39
923.477	492.33
923.648	470.05
923.82	496.59
923.991	459.2
924.163	442.53
924.335	486.9
924.506	467.72
924.677	519.45
924.849	445.44
925.02	504.53
925.192	489.42
925.363	489.03
925.535	472.57
925.706	465.98
925.877	526.43
926.049	481.87
926.22	472.18
926.391	506.28
926.562	495.04
926.734	447.38
926.905	521.78
927.076	459.97
927.247	447.77
927.419	392.16
927.59	372.59
927.761	387.12
927.932	359.03
928.103	376.08
928.274	312.92
928.445	340.62
928.616	357.09
928.787	326.48
928.958	375.11
929.129	327.84
929.3	304.97
929.471	279.01
929.642	217.01
929.813	197.83
929.984	266.81
930.155	182.33
930.326	222.63
930.496	211.01
930.667	178.46
930.838	205.39
931.009	155.21
931.18	184.85
931.35	145.33
931.521	161.6
931.692	105.03
931.863	102.12
932.033	125.95
932.204	126.73
932.374	133.9
932.545	84.3
932.716	126.53
932.886	151.53
933.057	66.28
933.227	87.78
933.398	121.88
933.568	60.47
933.739	41.87
933.909	39.54
934.08	102.9
934.25	-7.54
934.421	35.86
934.591	82.16
934.761	66.08
934.932	5.05
935.102	50.2
935.272	30.24
935.443	68.02
935.613	30.24
935.783	62.21
935.953	13
936.123	189.31
936.294	18.23
936.464	27.92
936.634	39.93
936.804	36.83
936.974	-1.73
937.144	70.54
937.314	61.82
937.484	48.84
937.655	25.59
937.825	58.53
937.995	31.4
938.165	91.08
938.334	63.18
938.504	105.22
938.674	58.14
938.844	65.89
939.014	123.63
939.184	114.71
939.354	179.81
939.524	127.89
939.694	107.16
939.863	98.05
940.033	140.29
940.203	129.44
940.373	113.16
940.542	143.58
940.712	97.28
940.882	126.53
941.051	156.18
941.221	141.06
941.391	153.66
941.56	98.83
941.73	87.01
941.899	202.87
942.069	89.72
942.238	110.45
942.408	88.56
942.577	107.55
942.747	111.23
942.916	52.52
943.086	80.42
943.255	125.37
943.425	101.15
943.594	96.7
943.763	18.81
943.933	74.8
944.102	-3.28
944.271	76.35
944.441	88.95
944.61	64.34
944.779	96.5
944.948	150.17
945.117	55.23
945.287	59.11
945.456	54.65
945.625	54.85
945.794	96.89
945.963	44.58
946.132	88.17
946.301	75
946.47	97.86
946.639	42.06
946.808	48.65
946.977	93.4
947.146	114.33
947.315	84.68
947.484	104.06
947.653	70.35
947.822	73.45
947.991	42.25
948.16	118.2
948.329	138.35
948.498	79.65
948.666	87.78
948.835	117.04
949.004	52.33
949.173	31.79
949.341	75.77
949.51	94.56
949.679	112.97
949.847	95.53
950.016	145.71
950.185	126.73
950.353	65.31
950.522	85.85
950.69	139.13
950.859	79.45
951.028	129.63
951.196	97.28
951.365	40.7
951.533	82.36
951.701	92.24
951.87	101.93
952.038	44.58
952.207	74.42
952.375	121.3
952.543	70.73
952.712	82.55
952.88	65.89
953.048	110.06
953.217	99.02
953.385	91.85
953.553	123.05
953.721	56.4
953.89	83.71
954.058	59.11
954.226	52.72
954.394	73.06
954.562	34.89
954.73	70.35
954.898	66.86
955.067	90.88
955.235	63.76
955.403	102.51
955.571	137.38
955.739	96.89
955.907	56.78
956.075	50.58
956.243	59.69
956.41	95.92
956.578	49.81
956.746	32.95
956.914	68.99
957.082	103.67
957.25	121.69
957.418	59.11
957.585	104.83
957.753	118.4
957.921	51.94
958.089	84.1
958.256	103.09
958.424	103.09
958.592	97.86
958.759	71.32
958.927	96.7
959.095	75
959.262	76.55
959.43	70.15
959.597	44.77
959.765	84.3
959.932	31.21
960.1	146.3
960.267	80.42
960.435	120.72
960.602	108.13
960.77	57.17
960.937	52.52
961.104	108.13
961.272	58.33
961.439	99.21
961.606	110.84
961.774	93.4
961.941	74.03
962.108	94.37
962.275	93.01
962.443	131.18
962.61	91.46
962.777	149.4
962.944	114.33
963.111	96.5
963.278	109.87
963.446	116.07
963.613	125.56
963.78	111.42
963.947	110.65
964.114	105.22
964.281	167.03
964.448	110.65
964.615	89.72
964.782	124.21
964.949	111.81
965.116	126.73
965.282	156.37
965.449	112.39
965.616	76.16
965.783	103.48
965.95	114.13
966.117	74.42
966.283	100.76
966.45	101.93
966.617	101.93
966.784	137
966.95	155.6
967.117	144.16
967.284	85.07
967.45	103.67
967.617	159.86
967.784	115.88
967.95	168.19
968.117	110.26
968.283	159.08
968.45	210.43
968.616	142.42
968.783	163.93
968.949	179.62
969.116	177.88
969.282	144.16
969.449	137.58
969.615	126.34
969.781	111.23
969.948	111.03
970.114	118.98
970.28	179.62
970.447	133.7
970.613	170.51
970.779	159.86
970.945	158.7
971.112	152.11
971.278	148.04
971.444	129.83
971.61	163.93
971.776	105.22
971.942	149.2
972.108	133.51
972.275	142.81
972.441	148.04
972.607	182.53
972.773	117.04
972.939	149.4
973.105	130.6
973.271	105.22
973.437	111.42
973.602	99.6
973.768	171.48
973.934	106.19
974.1	127.11
974.266	66.86
974.432	137.38
974.598	105.41
974.763	132.54
974.929	127.5
975.095	139.9
975.261	104.64
975.426	97.28
975.592	119.95
975.758	174
975.923	65.31
976.089	92.05
976.255	129.44
976.42	106.19
976.586	154.24
976.751	121.88
976.917	183.69
977.082	138.55
977.248	77.71
977.413	69.96
977.579	96.5
977.744	103.28
977.91	99.02
978.075	104.64
978.24	109.1
978.406	117.81
978.571	96.89
978.736	62.98
978.902	149.78
979.067	94.76
979.232	32.57
979.397	126.15
979.563	134.09
979.728	74.61
979.893	131.57
980.058	108.13
980.223	136.41
980.388	120.91
980.554	110.26
980.719	79.84
980.884	140.48
981.049	158.11
981.214	88.36
981.379	134.28
981.544	100.18
981.709	97.08
981.874	99.41
982.039	107.35
982.204	143.58
982.368	114.13
982.533	82.55
982.698	146.88
982.863	124.79
983.028	95.15
983.193	123.63
983.357	114.33
983.522	109.48
983.687	117.23
983.852	103.09
984.016	100.76
984.181	136.8
984.346	126.15
984.51	135.25
984.675	93.01
984.839	108.32
985.004	146.3
985.168	154.24
985.333	128.28
985.498	89.33
985.662	154.63
985.827	100.57
985.991	110.26
986.155	103.67
986.32	145.33
986.484	139.9
986.649	131.38
986.813	69.18
986.977	140.1
987.142	108.71
987.306	99.99
987.47	88.56
987.634	129.44
987.799	110.06
987.963	130.21
988.127	135.06
988.291	135.45
988.455	104.06
988.62	113.55
988.784	138.93
988.948	131.38
989.112	57.95
989.276	126.15
989.44	103.48
989.604	81.97
989.768	91.08
989.932	171.68
990.096	94.95
990.26	67.05
990.424	83.33
990.588	91.08
990.752	169.35
990.915	124.01
991.079	119.56
991.243	87.59
991.407	90.88
991.571	83.71
991.734	114.71
991.898	117.04
992.062	189.89
992.226	106.19
992.389	83.91
992.553	48.84
992.717	100.38
992.88	74.22
993.044	98.25
993.207	85.46
993.371	107.74
993.535	122.27
993.698	93.01
993.862	109.1
994.025	125.37
994.189	95.53
994.352	90.5
994.515	88.56
994.679	141.45
994.842	92.05
995.006	106.19
995.169	72.87
995.332	91.66
995.496	94.56
995.659	53.68
995.822	80.03
995.985	83.71
996.149	133.51
996.312	81.2
996.475	134.67
996.638	78.68
996.801	135.64
996.964	146.88
997.128	83.13
997.291	67.83
997.454	110.06
997.617	53.3
997.78	93.4
997.943	67.25
998.106	111.81
998.269	56.2
998.432	98.25
998.595	94.95
998.758	56.4
998.92	80.03
999.083	47.1
999.246	74.03
999.409	76.55
999.572	28.5
999.735	71.9
999.897	115.3
1000.06	76.74
1000.223	55.04
1000.386	87.2
1000.548	132.54
1000.711	87.2
1000.874	100.96
1001.036	33.53
1001.199	102.12
1001.361	71.12
1001.524	93.4
1001.687	108.32
1001.849	83.52
1002.012	99.02
1002.174	88.36
1002.337	104.64
1002.499	56.78
1002.661	101.93
1002.824	51.17
1002.986	26.17
1003.149	85.85
1003.311	42.64
1003.473	118.78
1003.636	26.37
1003.798	113.16
1003.96	101.15
1004.123	81.97
1004.285	74.61
1004.447	61.24
1004.609	67.83
1004.771	113.55
1004.933	24.23
1005.096	51.17
1005.258	-1.73
1005.42	70.35
1005.582	103.09
1005.744	61.63
1005.906	14.35
1006.068	54.07
1006.23	47.48
1006.392	15.32
1006.554	30.43
1006.716	108.9
1006.878	61.43
1007.04	28.5
1007.202	49.62
1007.363	45.16
1007.525	98.83
1007.687	73.64
1007.849	101.93
1008.011	21.13
1008.172	53.49
1008.334	49.23
1008.496	72.87
1008.658	23.85
1008.819	33.34
1008.981	22.3
1009.143	17.26
1009.304	26.37
1009.466	86.43
1009.627	70.54
1009.789	140.29
1009.95	61.24
1010.112	38.57
1010.273	78.68
1010.435	39.35
1010.596	58.33
1010.758	63.37
1010.919	19.2
1011.081	18.23
1011.242	37.41
1011.403	74.42
1011.565	44.19
1011.726	59.11
1011.887	5.25
1012.049	65.5
1012.21	91.46
1012.371	87.01
1012.532	7.38
1012.693	52.52
1012.855	50.2
1013.016	62.02
1013.177	53.49
1013.338	60.27
1013.499	87.78
1013.66	82.16
1013.821	66.47
1013.982	59.3
1014.143	57.17
1014.304	36.05
1014.465	85.46
1014.626	75.58
1014.787	38.96
1014.948	135.25
1015.109	-9.09
1015.27	52.91
1015.431	48.07
1015.592	27.33
1015.752	80.23
1015.913	75.77
1016.074	57.95
1016.235	62.02
1016.395	46.71
1016.556	46.32
1016.717	32.57
1016.877	83.52
1017.038	5.44
1017.199	43.22
1017.359	52.91
1017.52	48.84
1017.681	39.15
1017.841	26.75
1018.002	44.97
1018.162	43.03
1018.323	75.19
1018.483	53.1
1018.644	36.83
1018.804	9.51
1018.964	37.41
1019.125	30.05
1019.285	31.79
1019.446	16.68
1019.606	7.57
1019.766	-19.94
1019.926	79.26
1020.087	50.58
1020.247	-19.16
1020.407	52.52
1020.567	86.04
1020.728	33.73
1020.888	2.92
1021.048	29.27
1021.208	12.8
1021.368	13.19
1021.528	79.65
1021.688	62.6
1021.848	47.48
1022.008	56.4
1022.168	37.02
1022.328	43.42
1022.488	40.32
1022.648	19.39
1022.808	39.54
1022.968	43.42
1023.128	-23.43
1023.288	16.29
1023.448	29.47
1023.608	24.62
1023.767	32.37
1023.927	1.76
1024.087	4.67
1024.247	2.73
1024.406	29.66
1024.566	23.27
1024.726	-7.15
1024.885	10.48
1025.045	68.02
1025.205	17.45
1025.364	32.18
1025.524	28.88
1025.683	18.03
1025.843	31.79
1026.003	28.3
1026.162	89.14
1026.321	70.35
1026.481	13.38
1026.64	15.13
1026.8	20.75
1026.959	47.1
1027.119	25.78
1027.278	-5.41
1027.437	15.52
1027.597	16.68
1027.756	21.33
1027.915	18.03
1028.074	46.71
1028.234	13.97
1028.393	31.79
1028.552	17.84
1028.711	-32.15
1028.87	65.31
1029.03	-17.61
1029.189	26.37
1029.348	-26.91
1029.507	15.52
1029.666	21.33
1029.825	-36.02
1029.984	17.84
1030.143	-0.18
1030.302	9.12
1030.461	-14.9
1030.62	57.37
1030.779	27.14
1030.938	-6.57
1031.097	-3.86
1031.255	35.86
1031.414	86.43
1031.573	64.34
1031.732	-12.19
1031.891	17.45
1032.049	51.17
1032.208	39.35
1032.367	25.2
1032.525	12.03
1032.684	32.37
1032.843	34.31
1033.001	-27.5
1033.16	155.6
1033.319	62.79
1033.477	37.8
1033.636	-4.63
1033.794	-27.5
1033.953	48.07
1034.111	56.2
1034.27	-10.45
1034.428	38.77
1034.587	-1.73
1034.745	59.3
1034.903	25.01
1035.062	42.83
1035.22	-14.51
1035.378	37.41
1035.537	-16.45
1035.695	42.45
1035.853	27.72
1036.011	42.06
1036.17	31.21
1036.328	-48.81
1036.486	22.3
1036.644	15.71
1036.802	-52.3
1036.96	-3.08
1037.119	17.45
1037.277	12.22
1037.435	-43.38
1037.593	-11.03
1037.751	14.93
1037.909	42.06
1038.067	42.06
