Data from gum_young_FLMT105791__143__17-41-11-040.txt Node

Date: Mon Mar 20 17:41:11 GMT 2023
User: antho
Spectrometer: FLMT10579
Trigger mode: 0
Integration Time (sec): 1.000000E-1
Scans to average: 10
Electric dark correction enabled: true
Nonlinearity correction enabled: false
Boxcar width: 0
XAxis mode: Wavelengths
Number of Pixels in Spectrum: 3648
>>>>>Begin Spectral Data<<<<<
345.248	-141.74
345.464	-141.74
345.681	-141.74
345.898	-146.2
346.114	-165.19
346.331	-30.34
346.548	37.67
346.764	-18.13
346.981	4.34
347.197	-3.79
347.414	31.66
347.631	-17.36
347.847	56.46
348.064	-8.83
348.28	9.77
348.497	-41.77
348.713	-19.68
348.93	19.84
349.146	18.49
349.363	5.7
349.579	37.28
349.796	15.97
350.012	-12.9
350.229	23.72
350.445	6.67
350.661	-1.66
350.878	11.32
351.094	10.54
351.311	19.46
351.527	29.53
351.743	-25.88
351.96	28.95
352.176	60.53
352.392	30.11
352.609	65.18
352.825	20.23
353.041	3.76
353.257	18.29
353.474	36.7
353.69	31.66
353.906	12.09
354.122	-17.36
354.339	58.01
354.555	23.72
354.771	11.51
354.987	24.69
355.203	40.57
355.42	-9.03
355.636	2.99
355.852	-9.03
356.068	0.47
356.284	-24.53
356.5	56.46
356.716	26.04
356.932	16.55
357.148	21.39
357.364	20.23
357.58	41.74
357.796	74.67
358.012	70.8
358.228	40.77
358.444	-34.6
358.66	56.07
358.876	40.38
359.092	1.05
359.308	-4.76
359.524	41.54
359.74	-8.25
359.956	8.22
360.172	11.12
360.388	16.94
360.604	6.86
360.819	91.92
361.035	25.07
361.251	49.1
361.467	-8.25
361.683	51.04
361.898	25.27
362.114	52.2
362.33	13.84
362.546	30.69
362.762	26.04
362.977	40.77
363.193	-18.71
363.409	21.2
363.624	-9.8
363.84	-24.53
364.056	2.6
364.271	23.91
364.487	1.82
364.703	-5.73
364.918	-2.63
365.134	18.49
365.35	12.48
365.565	112.07
365.781	18.1
365.996	44.84
366.212	54.33
366.427	49.49
366.643	-2.24
366.858	8.41
367.074	0.66
367.289	61.11
367.505	125.24
367.72	-18.13
367.936	-4.96
368.151	36.51
368.367	34.57
368.582	37.86
368.798	8.02
369.013	77
369.228	36.7
369.444	35.34
369.659	43.09
369.874	51.04
370.09	66.92
370.305	-33.83
370.52	36.31
370.736	81.07
370.951	21.2
371.166	52.97
371.381	71.77
371.597	53.17
371.812	12.67
372.027	8.99
372.242	43.87
372.458	100.83
372.673	5.51
372.888	31.27
373.103	54.91
373.318	110.9
373.533	50.07
373.749	17.13
373.964	-32.28
374.179	75.25
374.394	-2.63
374.609	54.52
374.824	7.44
375.039	62.85
375.254	-5.54
375.469	73.32
375.684	30.5
375.899	74.29
376.114	35.15
376.329	36.12
376.544	46
376.759	66.54
376.974	33.99
377.189	10.54
377.404	59.56
377.619	34.57
377.834	-38.28
378.049	1.05
378.264	-4.18
378.478	38.83
378.693	22.56
378.908	51.04
379.123	20.81
379.338	73.9
379.553	30.11
379.767	48.71
379.982	30.11
380.197	57.24
380.412	13.64
380.626	46
380.841	107.8
381.056	65.57
381.271	91.34
381.485	21.97
381.7	-5.34
381.915	26.82
382.129	35.54
382.344	39.61
382.559	47.55
382.773	70.41
382.988	-12.13
383.202	44.06
383.417	-6.89
383.632	129.89
383.846	17.52
384.061	21.01
384.275	16.55
384.49	51.42
384.704	70.02
384.919	29.34
385.133	54.72
385.348	70.41
385.562	10.16
385.777	77.77
385.991	50.26
386.206	10.54
386.42	9.96
386.634	70.99
386.849	37.86
387.063	32.05
387.277	10.16
387.492	31.27
387.706	-3.79
387.92	7.25
388.135	87.65
388.349	64.79
388.563	53.55
388.778	48.71
388.992	57.04
389.206	51.62
389.42	117.1
389.635	46
389.849	61.3
390.063	85.14
390.277	66.73
390.491	105.48
390.706	60.72
390.92	49.49
391.134	64.99
391.348	102.38
391.562	24.49
391.776	44.84
391.99	30.89
392.205	92.11
392.419	43.09
392.633	33.79
392.847	90.37
393.061	29.72
393.275	115.55
393.489	29.14
393.703	46
393.917	98.31
394.131	15.97
394.345	79.13
394.559	65.37
394.773	38.44
394.986	74.87
395.2	42.12
395.414	80.1
395.628	33.41
395.842	53.55
396.056	57.04
396.27	12.09
396.484	83.2
396.697	45.81
396.911	79.9
397.125	72.15
397.339	77.19
397.553	64.79
397.766	129.12
397.98	102.57
398.194	77.39
398.408	70.02
398.621	89.98
398.835	80.87
399.049	73.32
399.262	109.94
399.476	108.39
399.69	101.41
399.903	159.92
400.117	75.64
400.331	116.14
400.544	88.04
400.758	172.9
400.971	97.92
401.185	134.15
401.398	60.72
401.612	129.7
401.826	127.18
402.039	108
402.253	86.3
402.466	135.12
402.68	94.24
402.893	102.38
403.106	122.53
403.32	96.95
403.533	111.87
403.747	108.19
403.96	111.29
404.174	138.61
404.387	80.68
404.6	119.24
404.814	134.15
405.027	90.56
405.24	119.82
405.454	91.72
405.667	139
405.88	53.36
406.094	123.69
406.307	127.76
406.52	99.86
406.733	91.72
406.947	57.24
407.16	146.94
407.373	147.72
407.586	115.55
407.799	89.59
408.012	138.61
408.226	108.58
408.439	185.88
408.652	80.87
408.865	140.55
409.078	177.36
409.291	103.15
409.504	108.97
409.717	164.77
409.93	137.25
410.143	109.74
410.357	109.16
410.57	76.42
410.783	89.59
410.996	122.34
411.209	117.3
411.421	166.32
411.634	120.79
411.847	109.35
412.06	148.49
412.273	119.82
412.486	130.86
412.699	215.14
412.912	150.62
413.125	144.62
413.338	135.9
413.55	158.18
413.763	141.71
413.976	151.2
414.189	126.79
414.402	128.34
414.615	173.48
414.827	94.05
415.04	143.07
415.253	157.6
415.466	155.66
415.678	191.7
415.891	132.99
416.104	142.48
416.316	147.91
416.529	139.97
416.742	206.81
416.954	177.55
417.167	157.02
417.38	144.03
417.592	208.17
417.805	118.27
418.017	91.14
418.23	140.74
418.442	134.54
418.655	115.94
418.868	149.85
419.08	195.38
419.293	190.34
419.505	163.6
419.718	173.87
419.93	183.56
420.142	150.62
420.355	184.92
420.567	191.12
420.78	173.1
420.992	164.96
421.205	248.27
421.417	113.04
421.629	164.77
421.842	125.44
422.054	126.21
422.266	191.7
422.479	211.85
422.691	140.35
422.903	214.17
423.115	139.38
423.328	167.67
423.54	155.08
423.752	183.17
423.964	144.81
424.177	196.15
424.389	153.92
424.601	292.25
424.813	198.48
425.025	193.44
425.238	228.31
425.45	156.43
425.662	146.55
425.874	440.27
426.086	202.55
426.298	172.13
426.51	174.26
426.722	151.4
426.934	175.23
427.146	198.28
427.358	146.17
427.57	225.8
427.782	191.7
427.994	193.83
428.206	194.22
428.418	147.52
428.63	217.27
428.842	232.77
429.054	200.03
429.266	225.6
429.478	166.51
429.69	196.73
429.902	150.62
430.114	197.32
430.325	170.38
430.537	137.06
430.749	147.13
430.961	109.16
431.173	179.88
431.384	192.47
431.596	137.45
431.808	165.35
432.02	211.27
432.231	229.86
432.443	224.63
432.655	231.61
432.867	205.45
433.078	176.97
433.29	275.2
433.502	225.99
433.713	253.11
433.925	216.3
434.136	240.13
434.348	192.28
434.56	164.77
434.771	290.7
434.983	176.2
435.194	210.68
435.406	227.54
435.617	257.57
435.829	290.7
436.04	259.51
436.252	268.03
436.463	266.68
436.675	281.4
436.886	255.83
437.098	254.08
437.309	321.7
437.521	249.82
437.732	239.75
437.943	262.41
438.155	271.52
438.366	210.88
438.578	301.75
438.789	249.63
439	264.55
439.211	216.5
439.423	257.38
439.634	270.94
439.845	274.81
440.057	288.96
440.268	294.38
440.479	244.2
440.69	257.76
440.902	237.42
441.113	267.26
441.324	272.88
441.535	265.13
441.746	306.2
441.957	257.18
442.168	279.08
442.38	287.8
442.591	309.88
442.802	268.03
443.013	262.8
443.224	291.86
443.435	282.95
443.646	291.09
443.857	261.06
444.068	257.57
444.279	275.2
444.49	334.88
444.701	297.29
444.912	386.03
445.123	323.44
445.334	301.94
445.545	330.42
445.756	298.45
445.967	274.62
446.178	300.39
446.388	345.73
446.599	302.33
446.81	334.68
447.021	305.81
447.232	352.89
447.443	333.71
447.653	307.75
447.864	346.11
448.075	322.09
448.286	351.73
448.496	340.3
448.707	364.33
448.918	310.66
449.129	393.78
449.339	312.4
449.55	349.41
449.761	327.51
449.971	373.43
450.182	349.21
450.393	357.35
450.603	341.85
450.814	408.5
451.024	359.48
451.235	407.34
451.446	413.92
451.656	426.52
451.867	352.7
452.077	372.46
452.288	409.08
452.498	404.24
452.709	357.93
452.919	379.05
453.13	339.72
453.34	370.72
453.55	316.47
453.761	397.07
453.971	377.31
454.182	399.78
454.392	373.82
454.602	460.81
454.813	398.81
455.023	405.21
455.233	370.91
455.444	380.79
455.654	338.36
455.864	388.16
456.075	376.92
456.285	373.82
456.495	403.27
456.705	399.39
456.916	441.24
457.126	452.48
457.336	417.8
457.546	363.55
457.756	360.84
457.967	421.09
458.177	393.78
458.387	422.64
458.597	360.64
458.807	377.31
459.017	368.78
459.227	386.8
459.437	405.4
459.647	414.12
459.857	427.68
460.068	372.08
460.278	423.22
460.488	424
460.698	468.37
460.908	430.97
461.117	391.64
461.327	409.86
461.537	408.31
461.747	432.72
461.957	425.94
462.167	494.14
462.377	480.57
462.587	404.24
462.797	482.32
463.007	420.12
463.216	460.62
463.426	496.46
463.636	458.29
463.846	406.17
464.056	420.51
464.265	461.78
464.475	414.7
464.685	473.02
464.895	464.69
465.104	455
465.314	451.51
465.524	429.23
465.733	404.24
465.943	543.93
466.153	505.76
466.362	501.69
466.572	493.36
466.782	433.69
466.991	455.77
467.201	510.22
467.41	408.89
467.62	481.93
467.829	472.44
468.039	463.91
468.249	444.92
468.458	465.46
468.668	509.83
468.877	502.08
469.086	556.72
469.296	523.2
469.505	456.55
469.715	566.02
469.924	515.06
470.134	517.77
470.343	556.72
470.552	504.99
470.762	489.1
470.971	460.04
471.18	511.19
471.39	497.82
471.599	484.45
471.808	511.19
472.018	501.3
472.227	566.6
472.436	579
472.645	548.58
472.855	511.57
473.064	565.63
473.273	570.47
473.482	548.39
473.691	599.15
473.901	556.14
474.11	540.25
474.319	644.29
474.528	564.08
474.737	614.84
474.946	594.69
475.155	614.84
475.364	637.7
475.573	598.37
475.783	607.87
475.992	622.78
476.201	623.75
476.41	612.52
476.619	574.54
476.828	603.22
477.037	590.04
477.245	582.29
477.454	642.74
477.663	628.21
477.872	601.47
478.081	667.15
478.29	606.9
478.499	715.59
478.708	665.99
478.917	725.47
479.125	668.9
479.334	667.35
479.543	660.18
479.752	694.66
479.961	698.93
480.169	739.03
480.378	687.69
480.587	803.74
480.796	732.45
481.004	704.35
481.213	734.38
481.422	769.45
481.63	735.74
481.839	755.89
482.048	812.46
482.256	732.83
482.465	762.28
482.674	779.14
482.882	791.15
483.091	842.11
483.299	778.75
483.508	805.1
483.716	786.69
483.925	789.02
484.134	777.78
484.342	772.36
484.551	809.56
484.759	845.98
484.967	829.13
485.176	848.31
485.384	823.7
485.593	875.62
485.801	831.06
486.01	772.74
486.218	789.21
486.426	700.67
486.635	709.78
486.843	694.47
487.051	765.77
487.26	740.78
487.468	802.58
487.676	823.7
487.885	765.58
488.093	836.1
488.301	866.71
488.509	853.73
488.717	888.61
488.926	883.76
489.134	853.15
489.342	874.07
489.55	836.68
489.758	881.82
489.967	863.81
490.175	984.12
490.383	901.39
490.591	962.23
490.799	892.29
491.007	936.65
491.215	950.99
491.423	919.99
491.631	940.34
491.839	939.95
492.047	957.77
492.255	912.24
492.463	858.19
492.671	913.02
492.879	1000.01
493.087	918.44
493.295	949.05
493.503	960.49
493.711	985.09
493.919	1014.93
494.127	1009.5
494.334	1015.51
494.542	969.2
494.75	999.82
494.958	1036.24
495.166	1045.73
495.374	1035.66
495.581	1030.62
495.789	1049.22
495.997	1080.8
496.205	1035.08
496.412	1032.37
496.62	1069.57
496.828	1046.7
497.035	1050
497.243	1095.92
497.451	1084.29
497.658	1062.2
497.866	1053.87
498.074	1132.53
498.281	1024.81
498.489	1149.2
498.696	1059.1
498.904	1025.78
499.112	1043.8
499.319	1152.68
499.527	1102.89
499.734	1178.45
499.942	1068.02
500.149	1097.47
500.357	1117.81
500.564	1080.42
500.771	1133.11
500.979	1074.22
501.186	1081.38
501.394	1131.37
501.601	1093.98
501.808	1159.66
502.016	1137.96
502.223	1119.16
502.43	1152.88
502.638	1127.3
502.845	1122.26
503.052	1217.01
503.26	1126.91
503.467	1246.26
503.674	1201.51
503.881	1206.74
504.089	1268.93
504.296	1192.79
504.503	1143.58
504.71	1170.12
504.917	1162.95
505.125	1227.86
505.332	1201.51
505.539	1259.05
505.746	1289.27
505.953	1267.19
506.16	1294.89
506.367	1315.43
506.574	1351.47
506.781	1362.7
506.988	1297.41
507.195	1337.71
507.402	1319.31
507.609	1328.41
507.816	1312.72
508.023	1344.88
508.23	1305.36
508.437	1247.62
508.644	1348.56
508.851	1407.46
509.058	1416.18
509.265	1423.15
509.472	1418.12
509.679	1510.92
509.885	1442.14
510.092	1432.84
510.299	1445.82
510.506	1424.12
510.713	1480.31
510.92	1460.16
511.126	1505.88
511.333	1520.8
511.54	1538.82
511.746	1539.6
511.953	1564.98
512.16	1609.15
512.367	1565.56
512.573	1564.2
512.78	1553.93
512.987	1536.3
513.193	1580.28
513.4	1485.35
513.606	1564.59
513.813	1610.9
514.02	1597.33
514.226	1658.17
514.433	1640.54
514.639	1568.46
514.846	1625.43
515.052	1601.6
515.259	1652.74
515.465	1671.54
515.672	1657.2
515.878	1764.34
516.085	1727.34
516.291	1742.45
516.497	1722.3
516.704	1708.93
516.91	1654.88
517.117	1604.11
517.323	1533.01
517.529	1584.93
517.736	1575.25
517.942	1622.71
518.148	1655.65
518.354	1675.8
518.561	1687.04
518.767	1703.89
518.973	1728.31
519.179	1807.74
519.386	1725.59
519.592	1777.52
519.798	1761.63
520.004	1929.22
520.21	1851.53
520.417	1938.52
520.623	1969.52
520.829	1954.8
521.035	2009.63
521.241	1968.17
521.447	2012.15
521.653	2129.17
521.859	2026.87
522.065	2085.96
522.271	2170.82
522.477	2125.1
522.683	2165.4
522.889	2148.74
523.095	2112.12
523.301	2127.43
523.507	2121.23
523.713	2149.9
523.919	2116.77
524.125	2183.03
524.331	2228.37
524.537	2338.22
524.742	2321.37
524.948	2310.32
525.154	2330.28
525.36	2426.18
525.566	2335.51
525.772	2388.6
525.977	2331.44
526.183	2387.05
526.389	2390.53
526.595	2318.46
526.8	2287.07
527.006	2207.25
527.212	2188.07
527.417	2160.94
527.623	2180.51
527.829	2269.05
528.034	2320.98
528.24	2319.24
528.446	2351.4
528.651	2435.48
528.857	2454.47
529.062	2518.02
529.268	2540.3
529.473	2559.87
529.679	2573.04
529.884	2621.48
530.09	2591.84
530.295	2570.33
530.501	2633.11
530.706	2599.59
530.912	2590.67
531.117	2602.88
531.323	2615.09
531.528	2709.64
531.733	2708.67
531.939	2624.19
532.144	2668.56
532.35	2699.17
532.555	2673.21
532.76	2663.91
532.966	2658.29
533.171	2590.87
533.376	2612.76
533.581	2573.24
533.787	2625.36
533.992	2690.26
534.197	2680.19
534.402	2668.37
534.607	2687.35
534.813	2784.42
535.018	2718.16
535.223	2772.02
535.428	2752.84
535.633	2796.43
535.838	2873.55
536.043	2837.12
536.249	2948.72
536.454	2879.55
536.659	2902.22
536.864	2878.78
537.069	2827.24
537.274	2813.1
537.479	2836.15
537.684	2844.68
537.889	2743.74
538.094	2922.56
538.299	2889.05
538.504	2901.45
538.708	2897.57
538.913	2973.52
539.118	2886.14
539.323	2943.29
539.528	2874.9
539.733	2854.75
539.938	2878
540.142	2893.7
540.347	2867.35
540.552	2825.3
540.757	2811.55
540.962	2838.48
541.166	2793.33
541.371	2815.23
541.576	2810.77
541.781	2773.57
541.985	2913.85
542.19	2856.5
542.395	2971.19
542.599	2967.32
542.804	2912.49
543.008	2981.66
543.213	2934.58
543.418	2883.62
543.622	2976.04
543.827	2865.41
544.031	2994.25
544.236	3029.71
544.44	2979.14
544.645	3046.95
544.849	2987.66
545.054	3050.24
545.258	3090.93
545.463	3084.54
545.667	2998.9
545.872	3029.12
546.076	3072.14
546.281	3039.01
546.485	2977.98
546.689	3054.89
546.894	3087.06
547.098	3082.79
547.302	2988.44
547.507	3071.56
547.711	3073.3
547.915	3121.74
548.119	2991.93
548.324	2996.96
548.528	3086.86
548.732	3016.73
548.936	3036.87
549.141	3097.52
549.345	3038.42
549.549	3075.62
549.753	3085.31
549.957	3193.23
550.161	3138.79
550.366	3140.72
550.57	3054.51
550.774	3095.77
550.978	3128.52
551.182	3148.86
551.386	3075.43
551.59	3113.99
551.794	3090.35
551.998	3152.15
552.202	3079.11
552.406	3051.41
552.61	3174.44
552.814	3161.45
553.018	3138.2
553.222	3107.21
553.426	3110.3
553.63	3214.35
553.833	3112.24
554.037	3071.56
554.241	3110.11
554.445	3172.89
554.649	3130.07
554.853	3099.84
555.056	3155.25
555.26	3173.47
555.464	3169.01
555.668	3131.81
555.871	3168.24
556.075	3185.67
556.279	3118.05
556.483	3038.23
556.686	3097.91
556.89	3116.31
557.094	3081.82
557.297	2990.38
557.501	3058.77
557.704	2981.08
557.908	3060.32
558.112	2973.33
558.315	3106.43
558.519	3047.14
558.722	2952.59
558.926	2992.7
559.129	2906.1
559.333	2892.73
559.536	2911.71
559.74	2882.46
559.943	2879.94
560.147	2885.36
560.35	2876.06
560.553	2923.53
560.757	2882.65
560.96	2997.74
561.164	2935.74
561.367	2997.35
561.57	2915.2
561.774	2949.69
561.977	2865.6
562.18	2824.33
562.384	2937.68
562.587	2858.24
562.79	2905.13
562.993	2824.33
563.197	2897.38
563.4	2931.09
563.603	2890.98
563.806	2963.25
564.009	2882.46
564.212	2855.72
564.416	2787.91
564.619	2841
564.822	2749.35
565.025	2858.24
565.228	2797.21
565.431	2781.32
565.634	2724.94
565.837	2722.81
566.04	2731.34
566.243	2689.49
566.446	2633.69
566.649	2733.85
566.852	2632.91
567.055	2648.41
567.258	2692.39
567.461	2775.7
567.664	2724.36
567.867	2652.29
568.07	2691.81
568.273	2663.52
568.475	2709.05
568.678	2619.35
568.881	2605.21
569.084	2588.35
569.287	2499.03
569.489	2536.62
569.692	2569.36
569.895	2544.76
570.098	2488.76
570.3	2478.3
570.503	2402.74
570.706	2444.4
570.909	2436.06
571.111	2372.32
571.314	2392.67
571.516	2386.85
571.719	2407.78
571.922	2385.5
572.124	2367.48
572.327	2410.68
572.529	2337.06
572.732	2321.75
572.935	2377.36
573.137	2444.2
573.34	2361.08
573.542	2406.03
573.745	2349.46
573.947	2361.67
574.15	2322.53
574.352	2336.48
574.554	2364.96
574.757	2277.97
574.959	2246.77
575.162	2252.2
575.364	2239.22
575.566	2311.1
575.769	2243.67
575.971	2237.28
576.173	2131.69
576.376	2213.84
576.578	2224.49
576.78	2236.31
576.982	2117.16
577.185	2184.58
577.387	2184.19
577.589	2177.41
577.791	2188.65
577.993	2229.14
578.196	2203.76
578.398	2177.02
578.6	2173.15
578.802	2130.53
579.004	2080.15
579.206	2083.44
579.408	2132.46
579.61	2071.43
579.812	2164.43
580.014	2119.48
580.216	2118.71
580.418	2115.22
580.62	2121.81
580.822	2114.44
581.024	2143.12
581.226	2169.47
581.428	2120.84
581.63	2224.88
581.832	2140.6
582.034	2214.61
582.236	2123.94
582.438	2178.77
582.64	2201.24
582.841	2208.99
583.043	2245.61
583.245	2157.84
583.447	2221.78
583.649	2140.99
583.85	2207.06
584.052	2220.04
584.254	2126.46
584.456	2200.27
584.657	2122.97
584.859	2152.03
585.061	2119.87
585.262	2103.98
585.464	2097.01
585.666	2144.67
585.867	2091.78
586.069	2138.08
586.27	2126.65
586.472	2081.12
586.674	2065.04
586.875	2037.14
587.077	2031.71
587.278	2094.88
587.48	2046.44
587.681	2178.77
587.883	2078.41
588.084	2006.33
588.285	2004.78
588.487	1994.13
588.688	2020.48
588.89	1911.2
589.091	1865.87
589.292	1854.05
589.494	1846.49
589.695	1770.74
589.896	1692.08
590.098	1711.45
590.299	1755.04
590.5	1746.32
590.702	1788.37
590.903	1827.89
591.104	1910.82
591.305	1862.96
591.507	1908.49
591.708	1866.06
591.909	1873.42
592.11	1923.6
592.311	1938.72
592.512	1870.9
592.714	1812.2
592.915	1808.9
593.116	1867.42
593.317	1888.34
593.518	1871.87
593.719	1913.92
593.92	1892.41
594.121	1948.79
594.322	1874.2
594.523	1887.57
594.724	1805.42
594.925	1847.85
595.126	1818.2
595.327	1844.75
595.528	1841.45
595.729	1852.69
595.929	1845.91
596.13	1860.83
596.331	1844.36
596.532	1881.56
596.733	1911.98
596.934	1880.2
597.135	1875.17
597.335	1881.56
597.536	1831.19
597.737	1895.7
597.938	1865.09
598.138	1878.07
598.339	1856.57
598.54	1906.17
598.74	1854.24
598.941	1845.72
599.142	1930.77
599.342	1892.02
599.543	1854.44
599.744	1865.09
599.944	1853.85
600.145	1861.02
600.345	1865.67
600.546	1931.55
600.746	1927.09
600.947	1963.71
601.147	1885.05
601.348	1926.32
601.548	1850.75
601.749	1860.83
601.949	1826.34
602.15	1859.09
602.35	1832.15
602.551	1902.48
602.751	1798.25
602.951	1807.55
603.152	1765.89
603.352	1866.84
603.552	1829.05
603.753	1870.9
603.953	1884.47
604.153	1865.09
604.354	1852.69
604.554	1853.27
604.754	1868.19
604.954	1838.35
605.155	1892.22
605.355	1837.39
605.555	1879.24
605.755	1891.25
605.955	1860.44
606.155	1883.3
606.356	1824.21
606.556	1867.03
606.756	1856.37
606.956	1804.25
607.156	1861.41
607.356	1805.8
607.556	1843.78
607.756	1830.8
607.956	1874
608.156	1806
608.356	1762.79
608.556	1845.91
608.756	1783.91
608.956	1768.99
609.156	1797.09
609.356	1781.97
609.556	1762.79
609.755	1789.14
609.955	1751.17
610.155	1751.56
610.355	1745.74
610.555	1740.71
610.755	1778.1
610.954	1679.68
611.154	1747.68
611.354	1766.28
611.554	1729.08
611.753	1728.31
611.953	1664.18
612.153	1716.1
612.352	1743.22
612.552	1677.93
612.752	1627.94
612.951	1711.64
613.151	1689.36
613.351	1657.98
613.55	1647.13
613.75	1644.8
613.949	1671.15
614.149	1626.78
614.348	1670.18
614.548	1629.3
614.747	1599.08
614.947	1667.66
615.146	1545.8
615.346	1680.26
615.545	1630.85
615.745	1637.24
615.944	1615.16
616.144	1604.89
616.343	1616.32
616.542	1575.63
616.742	1593.07
616.941	1589.2
617.14	1533.01
617.34	1583.38
617.539	1565.56
617.738	1559.36
617.938	1604.31
618.137	1567.3
618.336	1548.31
618.535	1600.82
618.734	1574.08
618.934	1575.44
619.133	1597.72
619.332	1558.2
619.531	1503.56
619.73	1587.26
619.929	1597.14
620.128	1606.83
620.328	1615.35
620.527	1532.04
620.726	1550.64
620.925	1569.63
621.124	1549.67
621.323	1564.2
621.522	1481.28
621.721	1513.44
621.92	1509.57
622.119	1544.05
622.318	1505.3
622.517	1497.75
622.715	1521.77
622.914	1476.24
623.113	1507.43
623.312	1410.75
623.511	1483.22
623.71	1449.12
623.909	1458.22
624.107	1516.54
624.306	1426.45
624.505	1426.06
624.704	1440.01
624.902	1417.34
625.101	1432.07
625.3	1446.4
625.499	1415.21
625.697	1445.24
625.896	1410.75
626.095	1431.49
626.293	1353.41
626.492	1369.29
626.69	1433.62
626.889	1400.1
627.088	1488.45
627.286	1417.73
627.485	1376.65
627.683	1377.24
627.882	1379.75
628.08	1291.21
628.279	1322.6
628.477	1404.17
628.676	1278.81
628.874	1361.16
629.073	1347.01
629.271	1318.34
629.469	1353.99
629.668	1337.71
629.866	1327.25
630.065	1311.94
630.263	1365.42
630.461	1336.36
630.66	1345.66
630.858	1349.92
631.056	1384.6
631.254	1330.35
631.453	1353.21
631.651	1359.99
631.849	1323.37
632.047	1341.78
632.245	1365.42
632.444	1362.12
632.642	1385.18
632.84	1395.64
633.038	1325.12
633.236	1332.67
633.434	1330.35
633.632	1336.36
633.83	1370.26
634.028	1405.72
634.227	1349.53
634.425	1404.75
634.623	1385.76
634.821	1385.76
635.019	1393.7
635.216	1367.74
635.414	1432.65
635.612	1373.75
635.81	1361.35
636.008	1443.11
636.206	1384.4
636.404	1377.24
636.602	1350.31
636.8	1358.83
636.997	1361.93
637.195	1366.58
637.393	1349.34
637.591	1421.8
637.789	1393.12
637.986	1393.7
638.184	1373.55
638.382	1412.5
638.58	1406.88
638.777	1467.33
638.975	1360.57
639.173	1400.49
639.37	1361.35
639.568	1352.05
639.765	1399.52
639.963	1338.87
640.161	1369.87
640.358	1377.43
640.556	1290.44
640.753	1276.68
640.951	1249.75
641.148	1311.17
641.346	1276.87
641.543	1304.58
641.741	1314.46
641.938	1242.78
642.136	1285.01
642.333	1233.86
642.531	1305.94
642.728	1326.67
642.925	1282.49
643.123	1258.86
643.32	1285.59
643.517	1239.29
643.715	1250.14
643.912	1257.69
644.109	1241.23
644.306	1269.71
644.504	1208.87
644.701	1262.73
644.898	1251.49
645.095	1208.68
645.293	1236.58
645.49	1260.99
645.687	1266.03
645.884	1271.84
646.081	1140.48
646.278	1164.31
646.475	1160.24
646.672	1182.91
646.87	1161.6
647.067	1173.03
647.264	1149.39
647.461	1079.64
647.658	1077.9
647.855	1155.2
648.052	1076.93
648.249	1049.61
648.446	1093.4
648.642	1099.79
648.839	1039.15
649.036	1076.54
649.233	1020.55
649.43	1039.73
649.627	1018.03
649.824	1040.12
650.021	1039.53
650.217	1016.67
650.414	1037.21
650.611	1070.73
650.808	1079.45
651.004	1078.48
651.201	1103.86
651.398	1115.48
651.595	1052.9
651.791	994.78
651.988	1107.54
652.185	1030.23
652.381	1062.78
652.578	1031.4
652.775	1048.64
652.971	1031.01
653.168	1054.65
653.364	1068.79
653.561	989.35
653.757	1056.78
653.954	1064.72
654.15	995.94
654.347	1089.33
654.543	1060.65
654.74	977.34
654.936	969.59
655.133	1003.11
655.329	1037.4
655.525	992.45
655.722	1028.68
655.918	958.94
656.115	974.63
656.311	912.63
656.507	805.68
656.704	846.37
656.9	870.01
657.096	883.57
657.292	882.99
657.489	912.82
657.685	938.01
657.881	899.84
658.077	914.57
658.273	937.04
658.47	1015.9
658.666	933.36
658.862	985.87
659.058	942.27
659.254	1011.25
659.45	958.35
659.646	974.05
659.842	983.74
660.038	1015.12
660.234	928.13
660.43	1009.31
660.626	1027.72
660.822	979.28
661.018	981.41
661.214	965.91
661.41	946.15
661.606	978.5
661.802	980.44
661.998	977.73
662.194	915.73
662.39	977.73
662.586	964.55
662.781	989.35
662.977	977.34
663.173	978.31
663.369	958.94
663.564	966.69
663.76	948.09
663.956	903.91
664.152	959.71
664.347	874.27
664.543	923.87
664.739	926.39
664.934	876.21
665.13	855.47
665.326	952.74
665.521	928.52
665.717	898.29
665.912	878.53
666.108	826.61
666.304	898.29
666.499	876.01
666.695	809.75
666.89	895.39
667.086	900.04
667.281	892.67
667.477	945.57
667.672	895.97
667.867	840.94
668.063	884.54
668.258	837.65
668.454	870.59
668.649	947.12
668.844	875.82
669.04	858.96
669.235	879.89
669.43	841.33
669.626	822.93
669.821	851.99
670.016	809.94
670.211	832.03
670.407	794.64
670.602	857.41
670.797	826.61
670.992	875.43
671.187	826.22
671.382	852.37
671.578	832.61
671.773	853.34
671.968	781.27
672.163	836.68
672.358	859.16
672.553	791.34
672.748	823.12
672.943	879.31
673.138	830.09
673.333	856.25
673.528	804.91
673.723	882.21
673.918	824.86
674.113	774.1
674.308	920.57
674.503	844.43
674.698	834.94
674.892	852.18
675.087	838.42
675.282	835.52
675.477	793.67
675.672	855.28
675.867	804.52
676.061	739.23
676.256	766.54
676.451	822.73
676.646	820.21
676.84	781.08
677.035	765.58
677.23	765.96
677.424	828.35
677.619	859.54
677.814	850.82
678.008	849.08
678.203	769.84
678.397	778.17
678.592	808.59
678.787	832.03
678.981	824.48
679.176	854.89
679.37	812.66
679.565	771.58
679.759	775.26
679.954	812.27
680.148	869.81
680.342	838.23
680.537	816.73
680.731	829.13
680.926	860.51
681.12	837.46
681.314	828.54
681.509	810.91
681.703	819.44
681.897	839.78
682.092	807.81
682.286	808.01
682.48	857.99
682.674	839.39
682.869	842.11
683.063	830.48
683.257	897.91
683.451	816.92
683.645	845.79
683.839	828.54
684.034	838.62
684.228	882.6
684.422	776.62
684.616	807.62
684.81	857.22
685.004	829.9
685.198	854.12
685.392	852.96
685.586	832.81
685.78	831.45
685.974	868.84
686.168	865.55
686.362	895
686.556	797.93
686.75	777.59
686.944	743.3
687.138	779.14
687.331	667.15
687.525	653.98
687.719	630.73
687.913	677.81
688.107	681.49
688.301	660.95
688.494	710.94
688.688	659.4
688.882	663.66
689.076	694.47
689.269	716.17
689.463	804.71
689.657	727.99
689.85	739.81
690.044	767.32
690.238	766.74
690.431	779.33
690.625	783.01
690.818	833.39
691.012	814.01
691.205	877.76
691.399	845.98
691.593	893.45
691.786	950.6
691.98	952.35
692.173	992.45
692.366	990.71
692.56	1006.99
692.753	1024.62
692.947	969.01
693.14	1045.35
693.333	1057.94
693.527	1005.24
693.72	1097.27
693.914	1046.7
694.107	1067.82
694.3	1092.43
694.493	1091.46
694.687	1149.97
694.88	1105.99
695.073	1175.55
695.266	1148.61
695.46	1187.36
695.653	1210.23
695.846	1243.74
696.039	1211.58
696.232	1250.91
696.425	1316.79
696.618	1346.62
696.812	1336.36
697.005	1398.74
697.198	1498.72
697.391	1437.1
697.584	1451.83
697.777	1501.62
697.97	1500.65
698.163	1514.6
698.356	1533.4
698.549	1650.81
698.742	1608.18
698.935	1557.23
699.127	1587.84
699.32	1585.13
699.513	1564.4
699.706	1597.53
699.899	1646.54
700.092	1630.27
700.285	1653.13
700.477	1611.09
700.67	1662.82
700.863	1703.51
701.056	1791.86
701.248	1747.29
701.441	1796.12
701.634	1750.2
701.826	1854.44
702.019	1734.12
702.212	1827.7
702.404	1802.9
702.597	1792.82
702.79	1818.98
702.982	1872.45
703.175	1940.65
703.367	1967.39
703.56	1993.35
703.752	2037.91
703.945	2037.33
704.137	2080.54
704.33	2090.81
704.522	2079.76
704.715	2130.14
704.907	2150.87
705.1	2189.62
705.292	2234.37
705.484	2169.47
705.677	2242.32
705.869	2257.24
706.061	2283.59
706.254	2310.9
706.446	2267.12
706.638	2320.2
706.831	2395.18
707.023	2355.27
707.215	2484.7
707.407	2490.9
707.599	2481.79
707.792	2446.53
707.984	2470.55
708.176	2558.71
708.368	2505.81
708.56	2560.64
708.752	2585.83
708.944	2553.86
709.136	2606.95
709.329	2624.97
709.521	2713.9
709.713	2682.12
709.905	2702.66
710.097	2789.46
710.289	2704.79
710.481	2738.31
710.672	2733.85
710.864	2824.53
711.056	2817.17
711.248	2851.65
711.44	2862.89
711.632	2846.42
711.824	2888.85
712.016	2898.54
712.207	2943.1
712.399	2911.71
712.591	3001.81
712.783	2948.14
712.975	2981.27
713.166	2969.26
713.358	3022.15
713.55	3049.47
713.741	3060.32
713.933	3022.73
714.125	3044.24
714.316	3018.47
714.508	3120.19
714.7	3081.24
714.891	3086.47
715.083	3139.75
715.274	3094.22
715.466	3066.91
715.657	3112.24
715.849	3064.77
716.04	3128.52
716.232	3026.61
716.423	3057.8
716.615	2937.09
716.806	2876.06
716.998	2801.47
717.189	2724.55
717.381	2586.02
717.572	2579.05
717.763	2546.5
717.955	2529.84
718.146	2421.15
718.337	2426.57
718.528	2358.18
718.72	2278.55
718.911	2331.25
719.102	2278.55
719.293	2305.29
719.485	2261.11
719.676	2263.82
719.867	2246.19
720.058	2212.48
720.249	2214.03
720.44	2278.74
720.632	2335.32
720.823	2381.82
721.014	2520.34
721.205	2638.53
721.396	2687.74
721.587	2806.7
721.778	2846.81
721.969	2905.9
722.16	3014.59
722.351	3046.95
722.542	3131.04
722.733	3169.2
722.924	3107.21
723.115	3148.67
723.305	3050.82
723.496	3096.74
723.687	2909.2
723.878	2923.15
724.069	2906.29
724.26	2934.19
724.45	2836.15
724.641	2846.42
724.832	2866.18
725.023	2801.08
725.213	2828.79
725.404	2774.15
725.595	2816.78
725.785	2797.21
725.976	2898.15
726.167	2839.45
726.357	2867.93
726.548	2994.25
726.739	2877.81
726.929	2963.06
727.12	2962.09
727.31	2943.88
727.501	2944.26
727.691	2936.71
727.882	2950.66
728.072	3002.39
728.263	2979.53
728.453	3032.61
728.644	3086.86
728.834	3023.7
729.024	2971
729.215	3000.45
729.405	3025.64
729.596	3108.17
729.786	3098.49
729.976	3147.7
730.167	3142.85
730.357	3103.14
730.547	3122.12
730.737	3147.5
730.928	3225.78
731.118	3237.6
731.308	3152.54
731.498	3155.06
731.688	3293.01
731.879	3267.05
732.069	3386.39
732.259	3447.81
732.449	3475.91
732.639	3548.75
732.829	3535
733.019	3587.7
733.209	3669.46
733.399	3727.97
733.589	3762.85
733.779	3832.59
733.969	3864.37
734.159	3971.71
734.349	3968.02
734.539	4034.09
734.729	4025.95
734.919	4042.23
735.109	4108.68
735.299	4018.59
735.488	4076.33
735.678	4065.67
735.868	4088.73
736.058	4062.96
736.248	4032.15
736.437	4018.01
736.627	4029.05
736.817	4123.99
737.007	4056.18
737.196	4134.26
737.386	4112.56
737.576	4088.73
737.765	4201.88
737.955	4113.14
738.144	4281.31
738.334	4197.61
738.524	4170.68
738.713	4209.63
738.903	4181.73
739.092	4205.17
739.282	4215.25
739.471	4270.08
739.661	4205.75
739.85	4306.5
740.04	4261.94
740.229	4289.26
740.419	4349.32
740.608	4331.11
740.797	4383.81
740.987	4389.81
741.176	4402.02
741.365	4344.67
741.555	4302.04
741.744	4402.99
741.933	4340.02
742.123	4418.68
742.312	4433.6
742.501	4471.96
742.69	4448.13
742.88	4363.07
743.069	4531.25
743.258	4459.17
743.447	4469.44
743.636	4519.23
743.825	4449.29
744.014	4465.95
744.204	4503.74
744.393	4462.85
744.582	4539.19
744.771	4516.33
744.96	4537.83
745.149	4519.43
745.338	4502.57
745.527	4571.93
745.716	4533.77
745.905	4510.9
746.094	4556.82
746.283	4595.96
746.471	4543.65
746.66	4587.24
746.849	4597.12
747.038	4576.2
747.227	4552.95
747.416	4603.9
747.604	4536.48
747.793	4565.35
747.982	4572.52
748.171	4575.42
748.359	4615.72
748.548	4547.52
748.737	4544.03
748.926	4564.77
749.114	4462.47
749.303	4507.61
749.491	4516.33
749.68	4444.06
749.869	4550.62
750.057	4467.5
750.246	4487.07
750.434	4511.68
750.623	4454.72
750.811	4407.44
751	4501.02
751.188	4481.26
751.377	4464.79
751.565	4453.17
751.754	4425.27
751.942	4396.4
752.131	4529.31
752.319	4428.75
752.507	4417.32
752.696	4453.94
752.884	4458.01
753.072	4380.71
753.261	4448.13
753.449	4429.34
753.637	4433.6
753.825	4472.54
754.014	4386.71
754.202	4389.81
754.39	4454.91
754.578	4414.81
754.766	4348.74
754.955	4318.71
755.143	4442.7
755.331	4360.17
755.519	4384
755.707	4347.77
755.895	4326.07
756.083	4303.59
756.271	4325.29
756.459	4335.95
756.647	4342.54
756.835	4326.46
757.023	4310.96
757.211	4234.23
757.399	4281.7
757.587	4249.54
757.775	4237.72
757.963	4261.94
758.151	4253.8
758.339	4208.46
758.526	4173.4
758.714	4186.18
758.902	4036.03
759.09	3948.65
759.278	3720.22
759.465	3419.33
759.653	2990.38
759.841	2676.31
760.028	2320.98
760.216	2005.36
760.404	1873.81
760.591	1540.37
760.779	1299.35
760.967	1104.25
761.154	916.51
761.342	956.03
761.529	930.07
761.717	953.32
761.905	955.84
762.092	1033.72
762.28	950.02
762.467	960.29
762.655	909.53
762.842	918.83
763.029	897.71
763.217	913.99
763.404	891.71
763.592	914.57
763.779	889.96
763.966	953.12
764.154	978.5
764.341	1074.8
764.528	1060.85
764.716	1138.54
764.903	1205.77
765.09	1278.23
765.277	1357.67
765.465	1544.44
765.652	1608.18
765.839	1701.38
766.026	1864.7
766.213	1956.15
766.4	2053.41
766.588	2310.71
766.775	2302.57
766.962	2473.07
767.149	2570.33
767.336	2747.03
767.523	2739.86
767.71	2883.43
767.897	3025.44
768.084	3105.85
768.271	3190.9
768.458	3225.78
768.645	3385.04
768.832	3343.96
769.019	3397.83
769.206	3429.99
769.392	3508.84
769.579	3650.08
769.766	3590.6
769.953	3571.81
770.14	3687.87
770.327	3663.65
770.513	3722.35
770.7	3786.48
770.887	3677.21
771.073	3741.92
771.26	3741.15
771.447	3727.58
771.634	3696.78
771.82	3815.16
772.007	3751.03
772.193	3773.11
772.38	3766.91
772.567	3722.55
772.753	3727.39
772.94	3824.84
773.126	3770.98
773.313	3797.72
773.499	3771.18
773.686	3801.21
773.872	3773.5
774.059	3747.54
774.245	3747.54
774.432	3754.9
774.618	3713.83
774.804	3750.25
774.991	3696.58
775.177	3697.94
775.363	3739.6
775.55	3755.48
775.736	3655.7
775.922	3687.28
776.109	3673.92
776.295	3682.25
776.481	3726.23
776.667	3702.98
776.853	3687.28
777.04	3656.09
777.226	3631.49
777.412	3714.22
777.598	3639.04
777.784	3653.57
777.97	3652.99
778.156	3662.48
778.342	3594.09
778.528	3597
778.715	3562.9
778.901	3560.96
779.087	3587.89
779.272	3548.95
779.458	3532.48
779.644	3553.21
779.83	3574.14
780.016	3648.92
780.202	3554.57
780.388	3524.34
780.574	3448.39
780.76	3481.91
780.946	3535.39
781.131	3526.47
781.317	3487.92
781.503	3451.88
781.689	3495.86
781.874	3578.01
782.06	3428.05
782.246	3510.01
782.432	3443.74
782.617	3480.56
782.803	3540.81
782.989	3398.02
783.174	3423.98
783.36	3374.58
783.545	3375.93
783.731	3373.61
783.916	3318.39
784.102	3421.27
784.288	3329.05
784.473	3380.97
784.659	3336.8
784.844	3355.01
785.029	3313.16
785.215	3281.38
785.4	3270.53
785.586	3337.96
785.771	3255.23
785.956	3330.6
786.142	3217.83
786.327	3266.66
786.512	3222.1
786.698	3253.87
786.883	3197.68
787.068	3187.03
787.254	3259.1
787.439	3240.5
787.624	3195.55
787.809	3131.62
787.994	3153.7
788.18	3214.54
788.365	3106.43
788.55	3123.29
788.735	3142.85
788.92	3086.28
789.105	3113.79
789.29	3109.53
789.475	3013.04
789.66	3026.99
789.845	3011.3
790.03	3018.47
790.215	3055.67
790.4	3073.69
790.585	3078.92
790.77	3009.94
790.955	2933.22
791.14	3001.61
791.325	3033.39
791.51	2914.04
791.695	2974.29
791.879	2956.47
792.064	2924.7
792.249	3061.09
792.434	2995.61
792.618	2983.79
792.803	3028.16
792.988	3002.58
793.173	2991.15
793.357	3020.79
793.542	2991.73
793.727	2989.41
793.911	3039.59
794.096	3038.62
794.281	3046.76
794.465	3115.34
794.65	3034.74
794.834	3078.14
795.019	3084.54
795.203	3053.92
795.388	3113.99
795.572	3130.65
795.757	3077.56
795.941	3036.1
796.126	3047.34
796.31	2961.12
796.494	3042.49
796.679	3001.61
796.863	2961.51
797.048	3090.54
797.232	3052.18
797.416	3047.92
797.601	2981.27
797.785	3125.61
797.969	3095.77
798.153	3023.89
798.338	3078.92
798.522	3105.07
798.706	3133.55
798.89	3114.95
799.074	3209.31
799.258	3178.7
799.443	3129.49
799.627	3094.03
799.811	3148.28
799.995	3059.93
800.179	3043.66
800.363	3034.55
800.547	3100.81
800.731	3065.36
800.915	2983.98
801.099	2992.12
801.283	3041.91
801.467	3035.52
801.651	3051.41
801.835	3086.86
802.019	3027.19
802.202	3106.43
802.386	3000.45
802.57	2990.18
802.754	2998.32
802.938	3002.19
803.121	2992.51
803.305	3041.91
803.489	2979.53
803.673	3082.21
803.856	3027.57
804.04	2993.48
804.224	3021.18
804.407	3029.12
804.591	3026.41
804.775	2976.62
804.958	3046.17
805.142	3136.07
805.326	3024.47
805.509	3095.97
805.693	3120.77
805.876	3079.31
806.06	3073.3
806.243	3119.22
806.427	3139.37
806.61	3124.45
806.794	3092.09
806.977	3144.6
807.16	3092.87
807.344	3104.69
807.527	3068.65
807.71	3043.07
807.894	3023.89
808.077	3092.09
808.26	3019.83
808.444	3027.77
808.627	3064.58
808.81	3037.07
808.993	2953.76
809.177	2959.57
809.36	2983.4
809.543	2984.95
809.726	2864.44
809.909	2869.09
810.092	2859.79
810.276	2879.36
810.459	2858.05
810.642	2818.91
810.825	2799.15
811.008	2815.62
811.191	2703.63
811.374	2726.49
811.557	2710.02
811.74	2769.89
811.923	2668.37
812.106	2640.47
812.289	2579.83
812.472	2585.25
812.654	2619.35
812.837	2558.32
813.02	2519.76
813.203	2503.49
813.386	2386.27
813.569	2341.71
813.751	2272.35
813.934	2342.68
814.117	2279.9
814.3	2215.39
814.482	2159.97
814.665	2115.03
814.848	2058.26
815.03	2046.05
815.213	2002.26
815.396	1994.9
815.578	1980.95
815.761	1930.77
815.943	1976.5
816.126	1889.89
816.309	1861.6
816.491	1808.13
816.674	1777.52
816.856	1789.14
817.039	1807.16
817.221	1897.45
817.403	1809.1
817.586	1818.98
817.768	1874.39
817.951	1747.68
818.133	1741.87
818.315	1775.77
818.498	1838.35
818.68	1894.15
818.862	1834.48
819.045	1875.75
819.227	1877.69
819.409	1850.75
819.591	1849.4
819.774	1846.88
819.956	1795.73
820.138	1891.63
820.32	1915.08
820.502	1974.75
820.684	2073.37
820.866	2068.33
821.048	2115.8
821.231	2146.03
821.413	2133.63
821.595	2101.46
821.777	2124.71
821.959	2139.44
822.141	2187.68
822.323	2026.68
822.505	1972.62
822.686	1871.1
822.868	1777.13
823.05	1662.43
823.232	1655.84
823.414	1581.64
823.596	1635.5
823.778	1596.95
823.96	1651.39
824.141	1672.31
824.323	1688.98
824.505	1775
824.687	1818.01
824.868	1917.4
825.05	2000.13
825.232	2042.56
825.413	2074.73
825.595	2085.77
825.777	2025.71
825.958	2056.32
826.14	2034.04
826.321	2098.17
826.503	2085.96
826.685	2092.36
826.866	2097.01
827.048	2057.68
827.229	2031.33
827.411	1965.45
827.592	1924.77
827.773	1925.73
827.955	1842.81
828.136	1874.2
828.318	1831.77
828.499	1861.02
828.68	1834.29
828.862	1847.65
829.043	1862.96
829.224	1817.04
829.406	1815.69
829.587	1819.95
829.768	1848.43
829.949	1835.64
830.131	1855.4
830.312	1890.08
830.493	1862.38
830.674	1847.27
830.855	1868.77
831.036	1838.16
831.218	1936.78
831.399	1969.72
831.58	1826.15
831.761	1855.79
831.942	1906.94
832.123	1843
832.304	1795.73
832.485	1826.15
832.666	1852.5
832.847	1849.01
833.028	1849.4
833.209	1853.08
833.389	1836.8
833.57	1776.16
833.751	1792.44
833.932	1829.83
834.113	1872.84
834.294	1838.35
834.475	1865.67
834.655	1952.86
834.836	1929.22
835.017	1896.87
835.198	1832.35
835.378	1902.29
835.559	1935.03
835.74	1926.51
835.92	1912.95
836.101	1905.39
836.281	1950.92
836.462	1911.2
836.643	1948.4
836.823	1961.97
837.004	1992.38
837.184	1976.69
837.365	1954.22
837.545	1993.16
837.726	1924.38
837.906	1987.35
838.087	1986.38
838.267	1999.55
838.448	1897.25
838.628	1928.64
838.808	1934.07
838.989	2014.28
839.169	1929.22
839.349	1955.77
839.53	2001.49
839.71	1989.67
839.89	1913.14
840.07	2018.93
840.251	1946.66
840.431	2000.71
840.611	1958.28
840.791	1920.89
840.971	1977.85
841.151	1976.5
841.332	1932.32
841.512	1971.07
841.692	1872.26
841.872	1979.79
842.052	1908.49
842.232	1942.78
842.412	1887.95
842.592	1954.02
842.772	1921.47
842.952	1953.63
843.132	1897.25
843.312	1938.13
843.492	1890.86
843.672	1921.86
843.851	1853.27
844.031	1878.85
844.211	1895.9
844.391	1855.99
844.571	1896.87
844.751	1908.1
844.93	1930
845.11	1885.44
845.29	1888.34
845.47	1923.6
845.649	1918.37
845.829	1940.27
846.009	1862.77
846.188	1906.36
846.368	1906.75
846.547	1903.07
846.727	1915.27
846.907	1865.48
847.086	1906.94
847.266	1913.33
847.445	1895.51
847.625	1878.27
847.804	1848.62
847.984	1868
848.163	1843.59
848.343	1858.7
848.522	1840.68
848.701	1864.7
848.881	1845.52
849.06	1824.02
849.239	1842.42
849.419	1848.43
849.598	1765.31
849.777	1787.01
849.957	1765.31
850.136	1706.41
850.315	1676.38
850.494	1680.84
850.674	1704.48
850.853	1745.74
851.032	1707.58
851.211	1780.81
851.39	1746.13
851.569	1648.68
851.748	1693.24
851.927	1762.99
852.107	1706.61
852.286	1698.66
852.465	1695.37
852.644	1721.72
852.823	1761.44
853.002	1682
853.181	1715.52
853.359	1703.12
853.538	1659.72
853.717	1718.42
853.896	1592.68
854.075	1515.38
854.254	1520.22
854.433	1452.6
854.611	1496.39
854.79	1441.75
854.969	1481.67
855.148	1496
855.327	1483.22
855.505	1511.89
855.684	1520.8
855.863	1538.82
856.041	1542.7
856.22	1549.48
856.399	1557.81
856.577	1644.03
856.756	1620.39
856.934	1732.18
857.113	1689.75
857.291	1636.86
857.47	1614.38
857.648	1643.83
857.827	1627.36
858.005	1687.23
858.184	1594.62
858.362	1712.03
858.541	1626.2
858.719	1651.97
858.898	1628.53
859.076	1625.43
859.254	1656.81
859.433	1614.19
859.611	1594.04
859.789	1544.63
859.967	1646.93
860.146	1672.31
860.324	1546.38
860.502	1591.91
860.68	1537.85
860.859	1563.43
861.037	1549.09
861.215	1581.45
861.393	1580.48
861.571	1580.67
861.749	1561.68
861.927	1613.41
862.105	1562.65
862.283	1527.2
862.461	1517.12
862.639	1514.22
862.817	1517.51
862.995	1539.4
863.173	1528.36
863.351	1557.61
863.529	1563.43
863.707	1572.53
863.885	1540.37
864.063	1478.95
864.241	1505.88
864.418	1575.83
864.596	1506.08
864.774	1496
864.952	1486.9
865.129	1525.26
865.307	1457.64
865.485	1427.61
865.663	1520.8
865.84	1416.57
866.018	1461.32
866.196	1299.16
866.373	1318.72
866.551	1289.08
866.728	1284.04
866.906	1307.1
867.084	1310.2
867.261	1341.97
867.439	1368.52
867.616	1385.95
867.794	1370.65
867.971	1407.65
868.149	1375.1
868.326	1415.99
868.503	1423.54
868.681	1399.32
868.858	1418.31
869.035	1401.65
869.213	1403
869.39	1368.52
869.567	1458.22
869.745	1370.45
869.922	1399.9
870.099	1423.93
870.276	1402.42
870.454	1422.19
870.631	1411.14
870.808	1385.18
870.985	1422.96
871.162	1417.54
871.339	1407.07
871.517	1342.75
871.694	1358.44
871.871	1379.37
872.048	1378.59
872.225	1397.58
872.402	1382.47
872.579	1299.35
872.756	1370.45
872.933	1324.15
873.11	1323.37
873.287	1392.74
873.463	1306.13
873.64	1268.93
873.817	1373.94
873.994	1340.04
874.171	1302.06
874.348	1316.79
874.524	1291.41
874.701	1330.74
874.878	1248.39
875.055	1299.74
875.231	1295.86
875.408	1290.63
875.585	1232.31
875.762	1283.46
875.938	1281.14
876.115	1274.74
876.291	1248.01
876.468	1251.69
876.645	1233.67
876.821	1262.15
876.998	1235.61
877.174	1293.54
877.351	1245.1
877.527	1232.7
877.704	1248.98
877.88	1254.79
878.057	1224.56
878.233	1276.1
878.409	1224.95
878.586	1251.88
878.762	1258.28
878.938	1200.54
879.115	1146.87
879.291	1204.99
879.467	1159.27
879.644	1195.69
879.82	1228.83
879.996	1232.7
880.172	1128.85
880.349	1203.44
880.525	1217.01
880.701	1168.38
880.877	1160.24
881.053	1162.56
881.229	1167.8
881.405	1235.41
881.581	1144.93
881.757	1139.51
881.933	1162.76
882.109	1196.47
882.285	1178.26
882.461	1112.19
882.637	1188.33
882.813	1151.13
882.989	1141.45
883.165	1237.74
883.341	1153.65
883.517	1223.98
883.693	1168.76
883.869	1197.83
884.044	1143.96
884.22	1176.9
884.396	1193.18
884.572	1170.51
884.747	1188.14
884.923	1188.53
885.099	1203.25
885.275	1187.94
885.45	1171.09
885.626	1137.18
885.801	1154.04
885.977	1167.8
886.153	1137.57
886.328	1217.59
886.504	1089.13
886.679	1166.63
886.855	1149
887.03	1168.76
887.206	1190.85
887.381	1122.07
887.557	1172.83
887.732	1169.73
887.908	1176.13
888.083	1183.68
888.258	1155.4
888.434	1166.44
888.609	1138.35
888.784	1194.14
888.96	1126.91
889.135	1137.38
889.31	1135.25
889.485	1134.28
889.661	1135.44
889.836	1172.25
890.011	1189.88
890.186	1157.72
890.361	1141.06
890.537	1167.02
890.712	1170.12
890.887	1142.41
891.062	1143.58
891.237	1194.34
891.412	1113.74
891.587	1186.98
891.762	1166.83
891.937	1200.34
892.112	1081
892.287	1134.86
892.462	1075.96
892.637	1089.52
892.812	1049.61
892.987	1068.4
893.161	1051.93
893.336	1052.71
893.511	1032.56
893.686	1034.69
893.861	1007.18
894.035	1022.29
894.21	1047.87
894.385	967.07
894.56	1047.67
894.734	962.23
894.909	963.78
895.084	929.68
895.258	893.45
895.433	936.85
895.608	884.92
895.782	857.22
895.957	871.17
896.131	902.17
896.306	827.58
896.48	779.91
896.655	807.04
896.829	717.33
897.004	723.34
897.178	760.15
897.353	740.58
897.527	779.72
897.701	755.69
897.876	707.26
898.05	786.11
898.224	756.86
898.399	804.13
898.573	755.11
898.747	621.62
898.921	682.07
899.096	587.52
899.27	580.55
899.444	614.26
899.618	638.67
899.792	653.01
899.967	656.5
900.141	683.23
900.315	616.97
900.489	625.11
900.663	653.01
900.837	635.77
901.011	581.52
901.185	676.06
901.359	675.1
901.533	650.3
901.707	673.35
901.881	665.41
902.055	592.75
902.229	647.39
902.403	724.11
902.576	647
902.75	674.51
902.924	775.84
903.098	723.34
903.272	765.96
903.446	790.38
903.619	783.01
903.793	789.6
903.967	798.9
904.14	843.46
904.314	839.97
904.488	826.8
904.661	877.76
904.835	825.83
905.009	866.52
905.182	891.32
905.356	833.58
905.529	849.66
905.703	818.66
905.876	778.94
906.05	739.61
906.223	749.5
906.397	706.68
906.57	654.37
906.744	666.18
906.917	655.14
907.09	633.83
907.264	654.95
907.437	618.72
907.61	587.33
907.784	591.59
907.957	622.98
908.13	588.1
908.304	617.17
908.477	554.2
908.65	582.48
908.823	562.72
908.996	625.3
909.17	541.99
909.343	559.24
909.516	578.61
909.689	561.75
909.862	545.09
910.035	561.17
910.208	539.09
910.381	515.25
910.554	626.08
910.727	560.2
910.9	537.73
911.073	515.64
911.246	607.87
911.419	619.88
911.592	591.78
911.765	544.7
911.938	546.25
912.11	578.03
912.283	584.03
912.456	597.98
912.629	566.99
912.802	550.71
912.974	515.45
913.147	495.49
913.32	421.67
913.493	456.36
913.665	430.97
913.838	469.14
914.01	455.77
914.183	472.63
914.356	492.97
914.528	537.92
914.701	575.32
914.873	514.48
915.046	469.53
915.218	459.07
915.391	377.89
915.563	410.63
915.736	469.53
915.908	479.41
916.081	491.04
916.253	470.89
916.425	514.67
916.598	514.48
916.77	489.29
916.942	427.1
917.115	403.66
917.287	449.57
917.459	417.41
917.632	378.66
917.804	389.13
917.976	444.15
918.148	446.86
918.32	443.96
918.493	498.98
918.665	516.22
918.837	482.9
919.009	559.43
919.181	515.84
919.353	521.84
919.525	505.95
919.697	518.74
919.869	540.64
920.041	569.31
920.213	612.13
920.385	558.07
920.557	535.6
920.729	534.24
920.901	559.04
921.073	509.64
921.244	530.75
921.416	569.31
921.588	516.8
921.76	520.29
921.932	585
922.103	516.22
922.275	547.61
922.447	564.08
922.619	465.46
922.79	508.67
922.962	470.69
923.134	542.19
923.305	459.84
923.477	442.99
923.648	446.47
923.82	456.16
923.991	431.94
924.163	421.48
924.335	452.48
924.506	421.48
924.677	468.56
924.849	404.43
925.02	447.83
925.192	465.46
925.363	439.11
925.535	444.73
925.706	453.45
925.877	482.12
926.049	429.04
926.22	444.73
926.391	433.88
926.562	465.46
926.734	406.76
926.905	459.84
927.076	417.61
927.247	425.16
927.419	350.57
927.59	380.6
927.761	390.29
927.932	360.06
928.103	349.6
928.274	289.73
928.445	285.28
928.616	318.02
928.787	319.96
928.958	332.74
929.129	319.38
929.3	304.46
929.471	244.01
929.642	220.76
929.813	165.15
929.984	274.43
930.155	179.88
930.326	235.48
930.496	195.96
930.667	134.74
930.838	187.24
931.009	135.7
931.18	152.17
931.35	183.37
931.521	161.08
931.692	122.53
931.863	75.45
932.033	140.35
932.204	149.85
932.374	126.79
932.545	93.27
932.716	114.78
932.886	118.65
933.057	52.2
933.227	80.49
933.398	134.54
933.568	71.38
933.739	43.87
933.909	53.94
934.08	88.82
934.25	-11.54
934.421	42.32
934.591	58.2
934.761	40.77
934.932	20.81
935.102	50.65
935.272	57.82
935.443	33.79
935.613	31.47
935.783	41.93
935.953	10.54
936.123	174.07
936.294	28.76
936.464	52.39
936.634	35.15
936.804	-14.06
936.974	20.23
937.144	67.7
937.314	44.64
937.484	34.57
937.655	24.69
937.825	59.95
937.995	40.19
938.165	112.26
938.334	22.36
938.504	75.84
938.674	36.89
938.844	45.03
939.014	116.52
939.184	100.05
939.354	151.98
939.524	155.66
939.694	78.16
939.863	85.14
940.033	157.98
940.203	140.93
940.373	91.53
940.542	119.43
940.712	79.71
940.882	108
941.051	147.72
941.221	97.54
941.391	128.54
941.56	75.25
941.73	76.03
941.899	176.58
942.069	83.97
942.238	115.36
942.408	67.89
942.577	117.88
942.747	85.91
942.916	51.04
943.086	70.02
943.255	138.22
943.425	97.34
943.594	52.78
943.763	14.22
943.933	42.12
944.102	-20.84
944.271	75.25
944.441	92.5
944.61	47.36
944.779	72.74
944.948	162.63
945.117	23.14
945.287	56.07
945.456	13.64
945.625	40.19
945.794	66.73
945.963	11.71
946.132	73.32
946.301	68.28
946.47	105.67
946.639	18.68
946.808	49.29
946.977	91.34
947.146	106.25
947.315	44.64
947.484	87.07
947.653	60.92
947.822	43.67
947.991	37.67
948.16	129.7
948.329	118.46
948.498	71.38
948.666	77
948.835	94.24
949.004	59.17
949.173	18.29
949.341	71.19
949.51	79.13
949.679	99.86
949.847	95.79
950.016	146.75
950.185	112.07
950.353	45.22
950.522	51.42
950.69	103.35
950.859	75.84
951.028	97.15
951.196	86.3
951.365	56.46
951.533	82.62
951.701	81.07
951.87	78.74
952.038	32.44
952.207	58.01
952.375	115.75
952.543	43.48
952.712	96.57
952.88	52.39
953.048	148.88
953.217	77.58
953.385	81.45
953.553	115.94
953.721	44.26
953.89	76.8
954.058	67.89
954.226	52.59
954.394	66.73
954.562	46
954.73	88.24
954.898	70.41
955.067	95.21
955.235	42.32
955.403	101.22
955.571	117.88
955.739	95.02
955.907	45.03
956.075	53.55
956.243	35.34
956.41	113.62
956.578	32.24
956.746	22.36
956.914	39.02
957.082	78.94
957.25	93.66
957.418	59.17
957.585	86.3
957.753	121.17
957.921	72.15
958.089	99.47
958.256	78.74
958.424	80.1
958.592	84.17
958.759	20.04
958.927	106.25
959.095	75.64
959.262	64.02
959.43	73.51
959.597	39.02
959.765	58.4
959.932	41.35
960.1	92.89
960.267	89.79
960.435	67.89
960.602	111.29
960.77	59.37
960.937	56.85
961.104	91.72
961.272	16.94
961.439	46
961.606	61.3
961.774	126.6
961.941	41.93
962.108	91.92
962.275	79.9
962.443	122.53
962.61	117.88
962.777	135.51
962.944	112.84
963.111	114
963.278	107.03
963.446	110.13
963.613	133.96
963.78	83.97
963.947	105.29
964.114	112.07
964.281	161.67
964.448	97.73
964.615	55.49
964.782	93.85
964.949	107.42
965.116	121.56
965.282	124.47
965.449	93.66
965.616	53.94
965.783	107.61
965.95	116.33
966.117	64.21
966.283	76.22
966.45	79.52
966.617	92.89
966.784	154.88
966.95	152.75
967.117	106.45
967.284	103.15
967.45	101.22
967.617	158.57
967.784	118.27
967.95	169.03
968.117	111.29
968.283	165.35
968.45	186.27
968.616	133.57
968.783	171.35
968.949	148.68
969.116	150.43
969.282	126.4
969.449	159.73
969.615	120.98
969.781	97.34
969.948	130.86
970.114	95.6
970.28	182.4
970.447	128.92
970.613	202.55
970.779	137.84
970.945	139.97
971.112	125.82
971.278	117.88
971.444	107.61
971.61	141.71
971.776	116.14
971.942	166.7
972.108	154.3
972.275	122.53
972.441	151.2
972.607	173.48
972.773	101.6
972.939	151.01
973.105	119.43
973.271	103.74
973.437	114.2
973.602	89.59
973.768	120.59
973.934	114.78
974.1	124.27
974.266	37.47
974.432	143.65
974.598	120.98
974.763	120.4
974.929	120.98
975.095	176.78
975.261	42.9
975.426	63.63
975.592	109.35
975.758	184.53
975.923	89.2
976.089	85.14
976.255	118.27
976.42	123.89
976.586	144.62
976.751	143.45
976.917	176.39
977.082	118.46
977.248	69.64
977.413	64.79
977.579	98.5
977.744	109.74
977.91	85.33
978.075	86.1
978.24	134.15
978.406	71.57
978.571	71.77
978.736	98.7
978.902	130.86
979.067	59.56
979.232	40.57
979.397	100.05
979.563	149.46
979.728	109.35
979.893	97.15
980.058	72.93
980.223	133.77
980.388	109.94
980.554	104.32
980.719	95.4
980.884	94.24
981.049	149.46
981.214	83.78
981.379	119.43
981.544	96.76
981.709	96.76
981.874	91.72
982.039	122.14
982.204	131.64
982.368	126.79
982.533	63.44
982.698	141.52
982.863	130.47
983.028	99.28
983.193	128.15
983.357	110.13
983.522	128.34
983.687	116.72
983.852	95.6
984.016	77.77
984.181	103.74
984.346	122.72
984.51	118.27
984.675	107.8
984.839	137.45
985.004	115.36
985.168	154.5
985.333	155.47
985.498	104.7
985.662	145.78
985.827	104.51
985.991	117.1
986.155	114.39
986.32	126.02
986.484	164.77
986.649	136.48
986.813	78.74
986.977	102.77
987.142	113.04
987.306	68.67
987.47	90.37
987.634	122.92
987.799	118.27
987.963	108.77
988.127	138.03
988.291	163.99
988.455	118.07
988.62	105.09
988.784	105.09
988.948	120.98
989.112	84.94
989.276	136.09
989.44	95.4
989.604	89.01
989.768	77.39
989.932	176.78
990.096	83.2
990.26	81.65
990.424	70.41
990.588	103.35
990.752	188.02
990.915	129.7
991.079	76.22
991.243	98.12
991.407	113.04
991.571	106.64
991.734	137.45
991.898	113.42
992.062	204.87
992.226	74.29
992.389	80.49
992.553	49.29
992.717	59.56
992.88	67.31
993.044	97.54
993.207	107.8
993.371	109.35
993.535	99.09
993.698	81.26
993.862	114.97
994.025	110.9
994.189	105.67
994.352	96.18
994.515	118.46
994.679	108.77
994.842	68.47
995.006	107.61
995.169	56.27
995.332	76.03
995.496	109.16
995.659	52
995.822	79.71
995.985	87.85
996.149	162.83
996.312	71.19
996.475	140.16
996.638	86.1
996.801	150.82
996.964	147.72
997.128	82.04
997.291	66.34
997.454	113.23
997.617	35.73
997.78	122.72
997.943	61.69
998.106	129.5
998.269	62.27
998.432	81.84
998.595	94.82
998.758	48.13
998.92	57.04
999.083	18.87
999.246	62.66
999.409	77.58
999.572	0.66
999.735	87.85
999.897	114.2
1000.06	77.39
1000.223	64.99
1000.386	107.8
1000.548	112.07
1000.711	89.59
1000.874	104.9
1001.036	51.42
1001.199	112.84
1001.361	33.02
1001.524	53.36
1001.687	109.16
1001.849	63.82
1002.012	85.91
1002.174	88.43
1002.337	97.34
1002.499	74.67
1002.661	95.21
1002.824	44.64
1002.986	51.81
1003.149	72.74
1003.311	35.54
1003.473	139.58
1003.636	46.77
1003.798	64.6
1003.96	93.08
1004.123	59.75
1004.285	45.42
1004.447	68.28
1004.609	65.95
1004.771	124.27
1004.933	2.79
1005.096	39.8
1005.258	21.39
1005.42	54.72
1005.582	101.02
1005.744	62.47
1005.906	37.28
1006.068	40.19
1006.23	29.53
1006.392	12.67
1006.554	16.55
1006.716	76.22
1006.878	83.78
1007.04	39.22
1007.202	41.74
1007.363	46.77
1007.525	63.44
1007.687	70.6
1007.849	104.32
1008.011	-5.93
1008.172	44.06
1008.334	45.42
1008.496	80.1
1008.658	11.71
1008.819	22.17
1008.981	14.22
1009.143	32.44
1009.304	54.14
1009.466	66.54
1009.627	87.85
1009.789	139.77
1009.95	46.19
1010.112	40.57
1010.273	74.87
1010.435	35.34
1010.596	61.3
1010.758	50.26
1010.919	42.71
1011.081	31.47
1011.242	39.22
1011.403	69.44
1011.565	24.3
1011.726	60.53
1011.887	18.49
1012.049	61.89
1012.21	77.97
1012.371	80.1
1012.532	-19.88
1012.693	81.84
1012.855	37.67
1013.016	53.36
1013.177	79.32
1013.338	46.77
1013.499	115.17
1013.66	70.8
1013.821	83
1013.982	31.66
1014.143	52.39
1014.304	58.2
1014.465	61.11
1014.626	70.02
1014.787	20.23
1014.948	109.16
1015.109	-26.66
1015.27	90.95
1015.431	23.72
1015.592	27.79
1015.752	81.26
1015.913	68.86
1016.074	47.16
1016.235	54.52
1016.395	40.38
1016.556	31.66
1016.717	41.54
1016.877	75.25
1017.038	20.62
1017.199	19.26
1017.359	62.08
1017.52	62.47
1017.681	41.16
1017.841	31.66
1018.002	32.05
1018.162	29.53
1018.323	95.6
1018.483	39.8
1018.644	42.32
1018.804	-2.63
1018.964	2.02
1019.125	26.43
1019.285	67.31
1019.446	-0.69
1019.606	-10.96
1019.766	-12.13
1019.926	58.98
1020.087	22.36
1020.247	-7.67
1020.407	67.31
1020.567	57.04
1020.728	2.41
1020.888	-0.89
1021.048	-0.11
1021.208	-14.64
1021.368	8.22
1021.528	53.55
1021.688	12.67
1021.848	73.51
1022.008	59.95
1022.168	7.64
1022.328	52
1022.488	61.3
1022.648	29.72
1022.808	38.44
1022.968	51.42
1023.128	6.28
1023.288	11.9
1023.448	28.56
1023.608	23.14
1023.767	31.08
1023.927	0.47
1024.087	-6.12
1024.247	-22.2
1024.406	14.22
1024.566	-9.22
1024.726	7.64
1024.885	21.01
1025.045	52.39
1025.205	12.87
1025.364	8.22
1025.524	35.73
1025.683	8.41
1025.843	24.49
1026.003	39.99
1026.162	82.42
1026.321	49.1
1026.481	39.22
1026.64	10.16
1026.8	34.18
1026.959	27.01
1027.119	26.82
1027.278	23.72
1027.437	16.36
1027.597	30.69
1027.756	44.64
1027.915	34.57
1028.074	33.99
1028.234	5.31
1028.393	34.18
1028.552	33.99
1028.711	-39.06
1028.87	55.3
1029.03	-12.13
1029.189	4.34
1029.348	-52.04
1029.507	14.61
1029.666	16.16
1029.825	-20.07
1029.984	-0.11
1030.143	55.1
1030.302	-3.41
1030.461	-33.63
1030.62	23.14
1030.779	13.84
1030.938	8.61
1031.097	-24.53
1031.255	40.96
1031.414	65.37
1031.573	82.23
1031.732	-34.79
1031.891	21.2
1032.049	77.39
1032.208	47.74
1032.367	8.61
1032.525	-13.29
1032.684	14.61
1032.843	21.59
1033.001	-31.11
1033.16	144.23
1033.319	47.74
1033.477	47.16
1033.636	21.78
1033.794	-23.36
1033.953	48.52
1034.111	52.78
1034.27	-5.34
1034.428	38.25
1034.587	7.25
1034.745	18.87
1034.903	33.02
1035.062	36.12
1035.22	-24.33
1035.378	36.31
1035.537	-10.38
1035.695	41.35
1035.853	24.11
1036.011	34.76
1036.17	30.69
1036.328	-30.92
1036.486	8.8
1036.644	27.98
1036.802	-75.09
1036.96	-24.91
1037.119	19.65
1037.277	1.63
1037.435	-20.07
1037.593	-28.01
1037.751	8.99
1037.909	24.11
1038.067	24.11
