Data from gum_young_FLMT105791__69__17-39-27-043.txt Node

Date: Mon Mar 20 17:39:27 GMT 2023
User: antho
Spectrometer: FLMT10579
Trigger mode: 0
Integration Time (sec): 1.000000E-1
Scans to average: 10
Electric dark correction enabled: true
Nonlinearity correction enabled: false
Boxcar width: 0
XAxis mode: Wavelengths
Number of Pixels in Spectrum: 3648
>>>>>Begin Spectral Data<<<<<
345.248	-144.18
345.464	-144.18
345.681	-144.18
345.898	-166.65
346.114	-142.24
346.331	-43.63
346.548	12.76
346.764	11.4
346.981	-17.47
347.197	-4.29
347.414	7.14
347.631	-3.52
347.847	37.55
348.064	-0.42
348.28	20.12
348.497	-16.5
348.713	-3.13
348.93	11.4
349.146	13.72
349.363	3.84
349.579	7.91
349.796	18.37
350.012	0.36
350.229	25.74
350.445	-16.89
350.661	-17.86
350.878	11.98
351.094	12.17
351.311	10.43
351.527	35.42
351.743	-33.55
351.96	25.93
352.176	8.88
352.392	29.03
352.609	33.68
352.825	-23.09
353.041	-11.66
353.257	-10.69
353.474	23.99
353.69	4.81
353.906	34.07
354.122	-23.28
354.339	36
354.555	-6.62
354.771	-36.46
354.987	42.98
355.203	43.37
355.42	-17.86
355.636	-3.71
355.852	-25.99
356.068	5.78
356.284	-16.5
356.5	32.52
356.716	14.31
356.932	11.01
357.148	29.61
357.364	-2.36
357.58	21.86
357.796	54.6
358.012	32.71
358.228	11.4
358.444	-70.75
358.66	37.75
358.876	7.33
359.092	-33.55
359.308	12.76
359.524	5.01
359.74	-12.82
359.956	-36.46
360.172	9.27
360.388	40.46
360.604	-7.01
360.819	79.79
361.035	1.13
361.251	38.72
361.467	-3.52
361.683	42.2
361.898	14.89
362.114	53.44
362.33	21.67
362.546	47.82
362.762	7.14
362.977	18.18
363.193	-31.61
363.409	36.39
363.624	-28.51
363.84	-22.51
364.056	2.87
364.271	8.49
364.487	1.32
364.703	-3.13
364.918	-37.62
365.134	-16.11
365.35	2.29
365.565	84.05
365.781	19.54
365.996	26.7
366.212	79.4
366.427	26.32
366.643	21.09
366.858	-0.81
367.074	-22.51
367.289	49.57
367.505	97.04
367.72	-20.18
367.936	-23.67
368.151	49.76
368.367	28.45
368.582	14.11
368.798	4.81
369.013	50.92
369.228	7.14
369.444	15.27
369.659	63.13
369.874	-0.03
370.09	58.87
370.305	-45.37
370.52	-3.52
370.736	63.9
370.951	16.63
371.166	71.85
371.381	47.44
371.597	28.64
371.812	-19.02
372.027	0.94
372.242	-1.39
372.458	65.45
372.673	19.34
372.888	-15.14
373.103	23.02
373.318	82.31
373.533	29.42
373.749	-3.13
373.964	-11.66
374.179	63.13
374.394	6.36
374.609	83.86
374.824	-19.99
375.039	55.77
375.254	-17.86
375.469	66.62
375.684	12.76
375.899	35.04
376.114	35.04
376.329	11.21
376.544	60.61
376.759	51.12
376.974	-26.19
377.189	22.83
377.404	20.31
377.619	43.56
377.834	-42.46
378.049	-10.69
378.264	-16.69
378.478	25.35
378.693	-2.94
378.908	23.6
379.123	10.24
379.338	44.72
379.553	7.91
379.767	19.15
379.982	38.52
380.197	52.86
380.412	6.56
380.626	47.05
380.841	93.55
381.056	45.3
381.271	106.53
381.485	24.19
381.7	-5.65
381.915	12.56
382.129	1.32
382.344	20.5
382.559	17.99
382.773	61.58
382.988	-18.05
383.202	5.78
383.417	16.63
383.632	93.74
383.846	38.33
384.061	32.13
384.275	14.5
384.49	49.95
384.704	22.83
384.919	38.72
385.133	23.41
385.348	32.13
385.562	-3.91
385.777	47.63
385.991	20.7
386.206	21.67
386.42	9.46
386.634	55.57
386.849	59.64
387.063	17.99
387.277	5.78
387.492	8.69
387.706	-12.63
387.92	-17.66
388.135	65.84
388.349	39.69
388.563	27.48
388.778	52.67
388.992	19.15
389.206	43.75
389.42	92.19
389.635	1.71
389.849	42.01
390.063	65.45
390.277	38.33
390.491	96.26
390.706	39.3
390.92	66.62
391.134	36.59
391.348	52.28
391.562	5.01
391.776	43.75
391.99	24.57
392.205	63.71
392.419	2.29
392.633	14.89
392.847	69.14
393.061	18.95
393.275	66.04
393.489	41.04
393.703	22.83
393.917	73.2
394.131	7.33
394.345	27.87
394.559	36.59
394.773	50.73
394.986	61
395.2	20.12
395.414	61
395.628	10.04
395.842	37.55
396.056	14.5
396.27	-10.11
396.484	63.32
396.697	35.81
396.911	73.79
397.125	42.59
397.339	54.6
397.553	42.98
397.766	118.15
397.98	50.73
398.194	86.96
398.408	18.18
398.621	34.65
398.835	83.67
399.049	53.05
399.262	100.52
399.476	61.97
399.69	74.17
399.903	136.17
400.117	56.35
400.331	79.21
400.544	56.54
400.758	146.05
400.971	73.59
401.185	86.19
401.398	51.5
401.612	103.23
401.826	92.77
402.039	100.91
402.253	50.92
402.466	86.77
402.68	54.6
402.893	83.09
403.106	71.65
403.32	75.72
403.533	69.14
403.747	86.77
403.96	97.62
404.174	101.1
404.387	53.25
404.6	75.14
404.814	80.76
405.027	74.37
405.24	56.35
405.454	43.95
405.667	85.02
405.88	31.94
406.094	82.5
406.307	118.35
406.52	74.37
406.733	28.45
406.947	17.79
407.16	137.33
407.373	98.59
407.586	80.57
407.799	22.83
408.012	92.39
408.226	62.35
408.439	121.64
408.652	57.12
408.865	78.05
409.078	108.27
409.291	100.72
409.504	46.27
409.717	95.49
409.93	84.64
410.143	70.88
410.357	47.82
410.57	38.33
410.783	51.31
410.996	87.93
411.209	74.17
411.421	109.43
411.634	75.72
411.847	59.84
412.06	79.4
412.273	80.95
412.486	103.62
412.699	159.23
412.912	78.24
413.125	128.62
413.338	92.58
413.55	147.8
413.763	83.86
413.976	112.53
414.189	71.27
414.402	70.1
414.615	121.45
414.827	62.55
415.04	111.18
415.253	103.62
415.466	113.31
415.678	161.36
415.891	117.57
416.104	120.87
416.316	106.33
416.529	100.72
416.742	157.48
416.954	145.86
417.167	122.42
417.38	106.14
417.592	132.88
417.805	62.16
418.017	90.64
418.23	125.71
418.442	76.5
418.655	70.3
418.868	114.86
419.08	146.25
419.293	150.32
419.505	145.47
419.718	125.9
419.93	134.82
420.142	93.35
420.355	136.17
420.567	164.27
420.78	131.91
420.992	96.84
421.205	150.51
421.417	62.55
421.629	91.42
421.842	97.62
422.054	73.79
422.266	145.47
422.479	144.7
422.691	95.68
422.903	139.27
423.115	109.63
423.328	103.62
423.54	128.23
423.752	118.93
423.964	78.82
424.177	145.28
424.389	119.9
424.601	203.4
424.813	143.15
425.025	164.07
425.238	141.4
425.45	114.47
425.662	132.3
425.874	386.88
426.086	137.53
426.298	145.28
426.51	151.28
426.722	163.49
426.934	104.4
427.146	148.57
427.358	84.64
427.57	147.99
427.782	103.62
427.994	160.2
428.206	119.9
428.418	82.89
428.63	142.18
428.842	150.7
429.054	123.38
429.266	154.38
429.478	137.33
429.69	132.49
429.902	96.45
430.114	146.05
430.325	151.09
430.537	94.32
430.749	138.11
430.961	86.19
431.173	114.67
431.384	125.52
431.596	56.35
431.808	106.92
432.02	124.55
432.231	171.82
432.443	172.79
432.655	153.8
432.867	128.42
433.078	167.56
433.29	208.25
433.502	159.81
433.713	206.31
433.925	160.58
434.136	182.28
434.348	126.48
434.56	85.02
434.771	251.65
434.983	100.72
435.194	128.81
435.406	126.48
435.617	190.03
435.829	198.95
436.04	187.32
436.252	173.57
436.463	223.16
436.675	190.42
436.886	172.79
437.098	191.39
437.309	236.53
437.521	163.1
437.732	203.98
437.943	175.31
438.155	189.45
438.366	102.27
438.578	220.45
438.789	164.27
439	180.54
439.211	174.34
439.423	170.08
439.634	216.38
439.845	196.81
440.057	157.68
440.268	205.15
440.479	167.75
440.69	184.03
440.902	185
441.113	167.56
441.324	169.3
441.535	176.67
441.746	261.14
441.957	164.65
442.168	195.26
442.38	199.33
442.591	240.21
442.802	188.68
443.013	187.71
443.224	212.51
443.435	203.79
443.646	201.46
443.857	211.93
444.068	215.8
444.279	190.42
444.49	255.71
444.701	226.26
444.912	292.91
445.123	253.39
445.334	229.75
445.545	234.79
445.756	189.26
445.967	184.8
446.178	216.77
446.388	228.4
446.599	246.41
446.81	249.13
447.021	247
447.232	243.7
447.443	254.55
447.653	192.94
447.864	254.75
448.075	258.81
448.286	262.88
448.496	247.77
448.707	273.54
448.918	229.95
449.129	311.9
449.339	209.6
449.55	247.77
449.761	220.84
449.971	284.39
450.182	239.05
450.393	267.92
450.603	217.74
450.814	271.02
451.024	242.15
451.235	279.74
451.446	295.04
451.656	304.93
451.867	222.39
452.077	267.34
452.288	291.17
452.498	303.18
452.709	246.41
452.919	243.51
453.13	244.86
453.34	277.41
453.55	197.2
453.761	302.02
453.971	258.43
454.182	304.15
454.392	276.25
454.602	348.33
454.813	274.9
455.023	290.78
455.233	251.06
455.444	258.62
455.654	192.36
455.864	265.4
456.075	277.41
456.285	249.51
456.495	254.55
456.705	270.63
456.916	312.09
457.126	350.07
457.336	282.06
457.546	244.48
457.756	273.73
457.967	276.25
458.177	269.86
458.387	275.67
458.597	262.3
458.807	282.84
459.017	291.17
459.227	270.44
459.437	293.11
459.647	330.31
459.857	300.66
460.068	256.88
460.278	320.43
460.488	293.69
460.698	352.39
460.908	320.62
461.117	271.6
461.327	256.3
461.537	311.32
461.747	326.04
461.957	300.08
462.167	405.87
462.377	338.25
462.587	295.24
462.797	367.51
463.007	306.86
463.216	323.53
463.426	325.66
463.636	321.2
463.846	304.15
464.056	270.25
464.265	344.45
464.475	308.41
464.685	302.79
464.895	363.24
465.104	317.71
465.314	336.12
465.524	293.11
465.733	296.01
465.943	373.9
466.153	368.09
466.362	376.03
466.572	337.48
466.782	328.18
466.991	321.01
467.201	365.57
467.41	309.58
467.62	350.65
467.829	318.88
468.039	349.88
468.249	317.33
468.458	338.25
468.668	371.19
468.877	363.05
469.086	391.72
469.296	383.59
469.505	342.32
469.715	406.06
469.924	348.71
470.134	391.34
470.343	382.42
470.552	358.98
470.762	367.51
470.971	316.36
471.18	356.85
471.39	349.88
471.599	340.58
471.808	371.77
472.018	345.61
472.227	429.89
472.436	433.38
472.645	391.34
472.855	377.77
473.064	410.71
473.273	413.04
473.482	420.01
473.691	446.36
473.901	445.2
474.11	383.39
474.319	498.29
474.528	423.11
474.737	450.82
474.946	421.95
475.155	416.33
475.364	467.48
475.573	428.73
475.783	429.12
475.992	469.03
476.201	474.45
476.41	449.66
476.619	417.3
476.828	427.96
477.037	431.64
477.245	450.62
477.454	488.79
477.663	455.85
477.872	442.49
478.081	535.49
478.29	421.17
478.499	540.91
478.708	489.18
478.917	526.19
479.125	476.97
479.334	502.16
479.543	476.59
479.752	488.79
479.961	511.46
480.169	510.1
480.378	464.96
480.587	612.98
480.796	507.2
481.004	512.62
481.213	544.98
481.422	533.94
481.63	531.03
481.839	571.52
482.048	610.27
482.256	512.43
482.465	563
482.674	548.47
482.882	577.14
483.091	612.98
483.299	590.7
483.508	600.97
483.716	575.01
483.925	567.07
484.134	549.05
484.342	526.38
484.551	610.66
484.759	586.83
484.967	612.79
485.176	597.48
485.384	616.28
485.593	630.03
485.801	623.25
486.01	543.23
486.218	531.8
486.426	487.63
486.635	504.1
486.843	552.15
487.051	557.18
487.26	509.72
487.468	584.31
487.676	630.81
487.885	587.8
488.093	616.67
488.301	623.06
488.509	613.76
488.717	676.53
488.926	629.06
489.134	620.54
489.342	648.83
489.55	611.43
489.758	641.27
489.967	618.8
490.175	730.2
490.383	655.03
490.591	706.18
490.799	620.93
491.007	706.76
491.215	703.27
491.423	699.59
491.631	687.19
491.839	687.19
492.047	683.9
492.255	660.26
492.463	631.39
492.671	646.89
492.879	734.66
493.087	694.36
493.295	718.96
493.503	694.94
493.711	765.08
493.919	756.16
494.127	732.14
494.334	726.71
494.542	698.04
494.75	747.64
494.958	755.39
495.166	800.73
495.374	782.32
495.581	764.69
495.789	777.09
495.997	807.89
496.205	738.34
496.412	737.18
496.62	739.11
496.828	795.3
497.035	773.41
497.243	800.73
497.451	817.19
497.658	788.33
497.866	797.04
498.074	877.45
498.281	750.35
498.489	845.09
498.696	784.26
498.904	764.88
499.112	798.98
499.319	847.42
499.527	791.62
499.734	864.08
499.942	806.15
500.149	818.36
500.357	805.18
500.564	789.68
500.771	833.86
500.979	771.86
501.186	806.92
501.394	824.17
501.601	815.84
501.808	842.77
502.016	799.56
502.223	832.11
502.43	827.85
502.638	832.89
502.845	860.59
503.052	895.08
503.26	842.57
503.467	954.17
503.674	878.42
503.881	891.98
504.089	948.94
504.296	896.63
504.503	826.69
504.71	916.39
504.917	852.46
505.125	903.8
505.332	911.74
505.539	931.89
505.746	954.17
505.953	960.95
506.16	947.97
506.367	1007.26
506.574	1029.35
506.781	995.05
506.988	961.54
507.195	1040.78
507.402	1011.91
507.609	1033.22
507.816	995.44
508.023	982.07
508.23	992.73
508.437	972.77
508.644	1027.8
508.851	1046.2
509.058	1052.21
509.265	1041.17
509.472	1071
509.679	1139.98
509.885	1100.84
510.092	1070.61
510.299	1084.95
510.506	1100.06
510.713	1129.32
510.92	1099.29
511.126	1149.86
511.333	1176.21
511.54	1157.41
511.746	1190.54
511.953	1223.48
512.16	1220.19
512.367	1161.29
512.573	1202.36
512.78	1202.17
512.987	1190.54
513.193	1212.44
513.4	1135.33
513.606	1185.7
513.813	1213.41
514.02	1216.31
514.226	1269.59
514.433	1276.37
514.639	1220.96
514.846	1270.95
515.052	1250.8
515.259	1258.36
515.465	1277.15
515.672	1285.48
515.878	1376.74
516.085	1303.5
516.291	1342.64
516.497	1317.45
516.704	1290.32
516.91	1256.03
517.117	1206.43
517.323	1200.62
517.529	1233.56
517.736	1231.81
517.942	1273.47
518.148	1266.49
518.354	1276.96
518.561	1271.34
518.767	1330.43
518.973	1349.03
519.179	1362.4
519.386	1392.43
519.592	1348.06
519.798	1392.82
520.004	1485.62
520.21	1457.92
520.417	1478.84
520.623	1541.03
520.829	1530.76
521.035	1534.83
521.241	1543.75
521.447	1591.6
521.653	1693.12
521.859	1578.04
522.065	1626.28
522.271	1692.74
522.477	1666.58
522.683	1693.32
522.889	1658.64
523.095	1635.39
523.301	1686.73
523.507	1648.37
523.713	1693.32
523.919	1668.52
524.125	1764.42
524.331	1745.05
524.537	1831.07
524.742	1843.47
524.948	1834.75
525.154	1840.18
525.36	1925.04
525.566	1827.97
525.772	1907.22
525.977	1828.94
526.183	1880.67
526.389	1922.13
526.595	1816.35
526.8	1803.75
527.006	1782.25
527.212	1697.58
527.417	1687.51
527.623	1735.75
527.829	1809.95
528.034	1825.65
528.24	1856.26
528.446	1851.03
528.651	1958.17
528.857	1940.35
529.062	2018.62
529.268	2003.7
529.473	1998.86
529.679	2029.47
529.884	2156.96
530.09	2055.04
530.295	2078.1
530.501	2103.68
530.706	2060.28
530.912	2056.21
531.117	2112.01
531.323	2098.83
531.528	2181.17
531.733	2145.33
531.939	2093.21
532.144	2168.77
532.35	2150.56
532.555	2200.74
532.76	2114.52
532.966	2149.4
533.171	2074.23
533.376	2098.64
533.581	2032.96
533.787	2115.11
533.992	2162.57
534.197	2142.04
534.402	2126.73
534.607	2147.85
534.813	2202.29
535.018	2184.47
535.223	2213.14
535.428	2234.84
535.633	2283.67
535.838	2243.37
536.043	2277.08
536.249	2364.85
536.454	2247.63
536.659	2310.98
536.864	2267
537.069	2258.09
537.274	2275.34
537.479	2245.11
537.684	2270.88
537.889	2217.6
538.094	2348.77
538.299	2307.69
538.504	2329.2
538.708	2340.63
538.913	2309.43
539.118	2305.17
539.323	2349.54
539.528	2280.76
539.733	2279.4
539.938	2316.8
540.142	2290.06
540.347	2310.21
540.552	2248.6
540.757	2259.64
540.962	2246.27
541.166	2234.45
541.371	2220.5
541.576	2279.6
541.781	2193.96
541.985	2353.8
542.19	2317.57
542.395	2425.3
542.599	2413.48
542.804	2362.52
543.008	2399.72
543.213	2377.25
543.418	2313.12
543.622	2383.45
543.827	2360.58
544.031	2453.2
544.236	2406.5
544.44	2435.56
544.645	2490.39
544.849	2384.8
545.054	2476.44
545.258	2501.44
545.463	2511.71
545.667	2380.15
545.872	2478.38
546.076	2412.9
546.281	2459.2
546.485	2400.5
546.689	2479.54
546.894	2441.57
547.098	2447
547.302	2479.16
547.507	2469.47
547.711	2468.5
547.915	2501.83
548.119	2414.45
548.324	2432.66
548.528	2499.89
548.732	2490.98
548.936	2529.73
549.141	2507.83
549.345	2462.11
549.549	2511.13
549.753	2551.42
549.957	2559.56
550.161	2563.05
550.366	2562.27
550.57	2468.69
550.774	2512.48
550.978	2545.42
551.182	2557.43
551.386	2525.08
551.59	2521.01
551.794	2498.53
551.998	2504.73
552.202	2548.71
552.406	2518.88
552.61	2540.38
552.814	2543.29
553.018	2607.03
553.222	2507.25
553.426	2511.9
553.63	2581.65
553.833	2537.48
554.037	2483.81
554.241	2562.27
554.445	2544.06
554.649	2542.71
554.853	2512.48
555.056	2568.09
555.26	2598.7
555.464	2533.99
555.668	2534.96
555.871	2583.59
556.075	2567.12
556.279	2539.99
556.483	2465.4
556.686	2521.2
556.89	2516.94
557.094	2517.91
557.297	2413.67
557.501	2518.49
557.704	2411.93
557.908	2512.87
558.112	2439.44
558.315	2501.24
558.519	2453
558.722	2432.27
558.926	2421.81
559.129	2334.23
559.333	2367.37
559.536	2398.95
559.74	2327.45
559.943	2310.4
560.147	2316.22
560.35	2370.66
560.553	2361.94
560.757	2323.77
560.96	2448.93
561.164	2347.6
561.367	2439.05
561.57	2371.24
561.774	2392.94
561.977	2341.21
562.18	2304.2
562.384	2400.88
562.587	2324.93
562.79	2339.85
562.993	2350.7
563.197	2328.62
563.4	2375.31
563.603	2356.52
563.806	2393.71
564.009	2316.02
564.212	2308.47
564.416	2263.71
564.619	2300.33
564.822	2227.87
565.025	2308.27
565.228	2254.6
565.431	2286.19
565.634	2181.56
565.837	2213.53
566.04	2174.39
566.243	2204.04
566.446	2083.72
566.649	2242.4
566.852	2144.56
567.055	2154.05
567.258	2178.46
567.461	2220.5
567.664	2217.02
567.867	2120.53
568.07	2152.11
568.273	2168.39
568.475	2205.59
568.678	2102.51
568.881	2084.11
569.084	2089.53
569.287	1975.41
569.489	2029.28
569.692	2037.8
569.895	2084.49
570.098	1963.01
570.3	2040.13
570.503	1949.65
570.706	1968.05
570.909	1990.14
571.111	1925.23
571.314	1908.18
571.516	1950.42
571.719	1944.8
571.922	1886.68
572.124	1874.86
572.327	1945
572.529	1856.65
572.732	1907.02
572.935	1916.32
573.137	1943.25
573.34	1883.38
573.542	1938.02
573.745	1902.57
573.947	1910.9
574.15	1881.45
574.352	1850.06
574.554	1930.08
574.757	1852.58
574.959	1804.14
575.162	1851.03
575.364	1809.18
575.566	1892.1
575.769	1813.25
575.971	1851.22
576.173	1693.9
576.376	1788.06
576.578	1811.89
576.78	1825.65
576.982	1725.29
577.185	1775.08
577.387	1753.38
577.589	1749.31
577.791	1782.44
577.993	1796.78
578.196	1775.08
578.398	1736.33
578.6	1776.63
578.802	1700.49
579.004	1674.53
579.206	1707.46
579.408	1752.02
579.61	1694.48
579.812	1740.98
580.014	1686.34
580.216	1730.32
580.418	1726.45
580.62	1696.22
580.822	1658.44
581.024	1712.5
581.226	1751.06
581.428	1720.44
581.63	1831.27
581.832	1727.61
582.034	1764.23
582.236	1748.34
582.438	1761.91
582.64	1777.21
582.841	1808.79
583.043	1838.63
583.245	1767.52
583.447	1765.97
583.649	1791.55
583.85	1699.91
584.052	1784.19
584.254	1719.47
584.456	1778.37
584.657	1683.05
584.859	1758.22
585.061	1729.55
585.262	1736.52
585.464	1686.34
585.666	1716.76
585.867	1675.49
586.069	1726.06
586.27	1718.7
586.472	1704.94
586.674	1642.17
586.875	1650.11
587.077	1671.43
587.278	1675.11
587.48	1667.74
587.681	1724.71
587.883	1659.41
588.084	1594.7
588.285	1636.94
588.487	1609.23
588.688	1598.38
588.89	1535.03
589.091	1522.82
589.292	1508.87
589.494	1448.03
589.695	1432.53
589.896	1385.45
590.098	1339.92
590.299	1434.67
590.5	1402.12
590.702	1436.8
590.903	1476.71
591.104	1531.93
591.305	1506.55
591.507	1554.01
591.708	1491.82
591.909	1481.94
592.11	1526.89
592.311	1506.74
592.512	1475.74
592.714	1426.53
592.915	1490.85
593.116	1486.59
593.317	1474.77
593.518	1508.48
593.719	1492.98
593.92	1541.61
594.121	1558.86
594.322	1513.33
594.523	1493.76
594.724	1468.77
594.925	1486.78
595.126	1476.71
595.327	1534.64
595.528	1496.47
595.729	1503.06
595.929	1454.82
596.13	1490.47
596.331	1505.58
596.532	1506.93
596.733	1526.5
596.934	1561.18
597.135	1513.91
597.335	1541.03
597.536	1457.33
597.737	1520.69
597.938	1451.72
598.138	1500.93
598.339	1486.59
598.54	1518.56
598.74	1479.23
598.941	1500.54
599.142	1538.13
599.342	1508.68
599.543	1483.3
599.744	1496.08
599.944	1477.87
600.145	1491.05
600.345	1485.62
600.546	1555.95
600.746	1545.88
600.947	1563.31
601.147	1489.11
601.348	1495.12
601.548	1446.87
601.749	1515.26
601.949	1447.65
602.15	1431.18
602.35	1432.34
602.551	1463.73
602.751	1424.78
602.951	1457.53
603.152	1427.88
603.352	1443.38
603.552	1459.85
603.753	1501.51
603.953	1494.34
604.153	1481.55
604.354	1462.95
604.554	1463.53
604.754	1470.12
604.954	1449.78
605.155	1516.04
605.355	1447.07
605.555	1495.89
605.755	1531.73
605.955	1524.56
606.155	1507.9
606.356	1451.72
606.556	1491.63
606.756	1482.91
606.956	1411.8
607.156	1525.34
607.356	1425.95
607.556	1465.28
607.756	1447.65
607.956	1456.56
608.156	1455.4
608.356	1395.92
608.556	1456.95
608.756	1400.57
608.956	1390.49
609.156	1430.4
609.356	1341.47
609.556	1368.4
609.755	1404.83
609.955	1344.96
610.155	1382.35
610.355	1386.81
610.555	1355.04
610.755	1364.53
610.954	1341.86
611.154	1385.07
611.354	1407.74
611.554	1370.15
611.753	1370.92
611.953	1302.72
612.153	1410.64
612.352	1370.15
612.552	1302.53
612.752	1259.13
612.951	1348.06
613.151	1310.67
613.351	1293.42
613.55	1304.47
613.75	1353.29
613.949	1300.79
614.149	1319.77
614.348	1331.4
614.548	1278.31
614.747	1266.11
614.947	1260.1
615.146	1234.53
615.346	1348.06
615.545	1303.31
615.745	1297.11
615.944	1284.9
616.144	1276.18
616.343	1299.24
616.542	1227.36
616.742	1258.16
616.941	1236.66
617.14	1189.96
617.34	1249.64
617.539	1241.89
617.738	1228.52
617.938	1304.08
618.137	1215.15
618.336	1185.7
618.535	1256.81
618.734	1205.27
618.934	1241.5
619.133	1243.24
619.332	1284.9
619.531	1172.91
619.73	1241.69
619.929	1276.57
620.128	1230.07
620.328	1260.49
620.527	1216.7
620.726	1222.71
620.925	1244.41
621.124	1187.44
621.323	1257.19
621.522	1159.93
621.721	1197.33
621.92	1166.13
622.119	1239.76
622.318	1191.71
622.517	1166.33
622.715	1167.68
622.914	1120.21
623.113	1179.31
623.312	1125.64
623.511	1167.1
623.71	1144.82
623.909	1107.81
624.107	1212.05
624.306	1100.26
624.505	1109.56
624.704	1131.26
624.902	1100.65
625.101	1173.69
625.3	1122.73
625.499	1103.36
625.697	1089.6
625.896	1052.02
626.095	1143.66
626.293	1075.26
626.492	1084.18
626.69	1111.11
626.889	1098.32
627.088	1143.08
627.286	1097.16
627.485	1087.47
627.683	1056.47
627.882	1112.46
628.08	1021.4
628.279	1012.1
628.477	1085.73
628.676	1006.68
628.874	1110.72
629.073	1013.85
629.271	1005.52
629.469	1056.47
629.668	1051.63
629.866	1033.42
630.065	1032.25
630.263	1060.35
630.461	1019.85
630.66	1048.92
630.858	1046.59
631.056	1105.88
631.254	1071.58
631.453	1031.87
631.651	1071.39
631.849	1031.09
632.047	1065.38
632.245	1048.72
632.444	1082.82
632.642	1036.71
632.84	1086.5
633.038	999.7
633.236	1021.21
633.434	1053.37
633.632	1046.59
633.83	1027.22
634.028	1052.6
634.227	1051.63
634.425	1109.95
634.623	1035.16
634.821	1045.04
635.019	1062.09
635.216	1079.72
635.414	1075.65
635.612	1049.88
635.81	1057.44
636.008	1098.9
636.206	1058.02
636.404	1062.67
636.602	1021.6
636.8	1034.77
636.997	1087.66
637.195	1085.53
637.393	1066.16
637.591	1123.31
637.789	1081.66
637.986	1066.74
638.184	1086.31
638.382	1078.75
638.58	1096.19
638.777	1123.9
638.975	1058.99
639.173	1074.49
639.37	1052.98
639.568	1061.7
639.765	1058.22
639.963	1045.62
640.161	1054.53
640.358	1063.25
640.556	1011.33
640.753	964.64
640.951	980.91
641.148	1011.72
641.346	995.63
641.543	1002.03
641.741	1011.33
641.938	959.79
642.136	947.78
642.333	935.96
642.531	1027.8
642.728	1021.6
642.925	993.5
643.123	990.02
643.32	961.34
643.517	954.75
643.715	955.14
643.912	951.65
644.109	980.33
644.306	958.63
644.504	946.42
644.701	970.64
644.898	951.85
645.095	891.98
645.293	952.24
645.49	944.68
645.687	935.77
645.884	968.9
646.081	849.36
646.278	878.22
646.475	914.45
646.672	875.9
646.87	912.71
647.067	839.86
647.264	887.91
647.461	826.3
647.658	793.36
647.855	869.51
648.052	827.27
648.249	777.28
648.446	825.33
648.642	836.96
648.839	800.34
649.036	783.87
649.233	757.71
649.43	741.83
649.627	734.08
649.824	787.94
650.021	767.21
650.217	775.73
650.414	768.37
650.611	806.15
650.808	838.7
651.004	789.88
651.201	822.23
651.398	853.42
651.595	804.79
651.791	790.07
651.988	797.04
652.185	767.4
652.381	799.95
652.578	756.16
652.775	783.09
652.971	798.59
653.168	768.18
653.364	805.18
653.561	761.98
653.757	784.26
653.954	798.01
654.15	723.42
654.347	850.71
654.543	814.67
654.74	723.61
654.936	718.19
655.133	789.1
655.329	760.04
655.525	742.99
655.722	778.44
655.918	709.66
656.115	734.66
656.311	645.34
656.507	669.36
656.704	620.54
656.9	652.7
657.096	619.77
657.292	648.83
657.489	711.41
657.685	718.38
657.881	684.48
658.077	658.13
658.273	709.28
658.47	751.13
658.666	713.93
658.862	719.16
659.058	729.81
659.254	732.72
659.45	714.89
659.646	715.28
659.842	707.92
660.038	731.75
660.234	705.98
660.43	715.86
660.626	763.14
660.822	759.46
661.018	748.03
661.214	703.66
661.41	692.03
661.606	720.71
661.802	736.01
661.998	705.01
662.194	692.03
662.39	724
662.586	717.41
662.781	716.44
662.977	705.98
663.173	727.49
663.369	693.97
663.564	695.33
663.76	708.31
663.956	679.05
664.152	714.51
664.347	649.6
664.543	686.61
664.739	643.79
664.934	638.17
665.13	628.48
665.326	670.33
665.521	654.25
665.717	649.02
665.912	632.55
666.108	604.65
666.304	610.47
666.499	679.63
666.695	563.77
666.89	622.67
667.086	649.02
667.281	638.75
667.477	708.7
667.672	625
667.867	637.2
668.063	622.87
668.258	619.38
668.454	617.44
668.649	677.11
668.844	648.44
669.04	661.61
669.235	635.26
669.43	607.17
669.626	611.63
669.821	590.32
670.016	578.5
670.211	611.63
670.407	590.12
670.602	647.66
670.797	632.16
670.992	642.24
671.187	569.78
671.382	653.28
671.578	578.3
671.773	620.35
671.968	567.65
672.163	608.72
672.358	610.47
672.553	530.25
672.748	557.96
672.943	652.12
673.138	604.46
673.333	613.76
673.528	532.39
673.723	605.43
673.918	576.95
674.113	551.37
674.308	652.51
674.503	592.45
674.698	608.14
674.892	605.43
675.087	593.22
675.282	598.84
675.477	567.26
675.672	632.55
675.867	558.35
676.061	564.35
676.256	572.68
676.451	575.59
676.646	589.15
676.84	550.79
677.035	530.06
677.23	538.78
677.424	577.53
677.619	605.62
677.814	629.65
678.008	634.49
678.203	519.99
678.397	562.22
678.592	569.78
678.787	620.73
678.981	557.38
679.176	592.64
679.37	582.37
679.565	538.2
679.759	569.39
679.954	600.78
680.148	633.71
680.342	612.02
680.537	585.67
680.731	584.12
680.926	590.51
681.12	596.52
681.314	570.94
681.509	561.83
681.703	586.25
681.897	623.45
682.092	565.9
682.286	580.82
682.48	659.48
682.674	617.25
682.869	560.67
683.063	613.76
683.257	671.69
683.451	582.37
683.645	627.71
683.839	611.63
684.034	593.22
684.228	626.35
684.422	594.58
684.616	557.96
684.81	613.37
685.004	575.4
685.198	620.54
685.392	656
685.586	611.82
685.78	623.45
685.974	627.51
686.168	651.93
686.362	665.49
686.556	572.68
686.75	547.5
686.944	558.54
687.138	538.2
687.331	482.01
687.525	491.5
687.719	428.15
687.913	506.04
688.107	497.9
688.301	509.14
688.494	538
688.688	498.29
688.882	484.72
689.076	496.54
689.269	530.25
689.463	576.75
689.657	530.06
689.85	585.08
690.044	583.34
690.238	576.37
690.431	561.25
690.625	591.48
690.818	637.59
691.012	633.33
691.205	660.26
691.399	650.18
691.593	664.91
691.786	724.58
691.98	759.84
692.173	772.24
692.366	770.5
692.56	787.74
692.753	828.62
692.947	725.74
693.14	831.92
693.333	795.11
693.527	793.75
693.72	834.44
693.914	872.41
694.107	847.22
694.3	878.42
694.493	825.52
694.687	886.36
694.88	867.57
695.073	929.57
695.266	940.42
695.46	922.01
695.653	994.47
695.846	972.39
696.039	941.19
696.232	972.58
696.425	1071
696.618	1056.08
696.812	1079.91
697.005	1172.33
697.198	1200.62
697.391	1148.89
697.584	1195.97
697.777	1234.33
697.97	1226.97
698.163	1274.63
698.356	1234.91
698.549	1349.03
698.742	1290.32
698.935	1255.84
699.127	1318.61
699.32	1280.06
699.513	1295.17
699.706	1320.36
699.899	1349.03
700.092	1310.28
700.285	1338.95
700.477	1311.83
700.67	1368.4
700.863	1392.82
701.056	1457.72
701.248	1476.13
701.441	1493.37
701.634	1458.11
701.826	1542.58
702.019	1439.9
702.212	1529.99
702.404	1501.9
702.597	1490.08
702.79	1508.48
702.982	1543.94
703.175	1646.04
703.367	1678.4
703.56	1701.26
703.752	1756.29
703.945	1708.62
704.137	1731.68
704.33	1780.5
704.522	1785.15
704.715	1806.08
704.907	1832.04
705.1	1836.3
705.292	1839.21
705.484	1843.67
705.677	1893.46
705.869	1881.64
706.061	1952.36
706.254	1950.23
706.446	1938.02
706.638	1972.31
706.831	2032.18
707.023	1983.75
707.215	2058.53
707.407	2061.24
707.599	2061.24
707.792	2123.82
707.984	2098.06
708.176	2121.11
708.368	2132.54
708.56	2158.51
708.752	2148.43
708.944	2133.9
709.136	2214.5
709.329	2184.66
709.521	2306.92
709.713	2301.68
709.905	2272.43
710.097	2328.62
710.289	2273.59
710.481	2332.1
710.672	2370.85
710.864	2360.39
711.056	2400.69
711.248	2388.48
711.44	2416.96
711.632	2436.53
711.824	2450.1
712.016	2482.45
712.207	2512.48
712.399	2475.48
712.591	2579.32
712.783	2552.78
712.975	2593.66
713.166	2523.14
713.358	2546
713.55	2569.64
713.741	2611.1
713.933	2590.37
714.125	2623.89
714.316	2596.96
714.508	2671.16
714.7	2654.69
714.891	2689.95
715.083	2667.87
715.274	2670.97
715.466	2680.85
715.657	2729.09
715.849	2623.11
716.04	2633.38
716.232	2577.97
716.423	2617.49
716.615	2554.52
716.806	2491.94
716.998	2379.57
717.189	2348.18
717.381	2262.94
717.572	2172.84
717.763	2212.17
717.955	2192.8
718.146	2141.46
718.337	2099.8
718.528	2047.29
718.72	1950.42
718.911	2021.72
719.102	1941.7
719.293	2056.21
719.485	2001.76
719.676	1966.31
719.867	1966.5
720.058	1967.08
720.249	1981.42
720.44	1960.3
720.632	2035.28
720.823	2089.14
721.014	2226.12
721.205	2287.73
721.396	2349.93
721.587	2464.82
721.778	2509.19
721.969	2589.59
722.16	2634.54
722.351	2634.93
722.542	2778.3
722.733	2778.88
722.924	2713.98
723.115	2717.27
723.305	2695.57
723.496	2698.48
723.687	2535.93
723.878	2576.61
724.069	2568.09
724.26	2593.66
724.45	2519.46
724.641	2497.76
724.832	2514.42
725.023	2471.02
725.213	2471.41
725.404	2478.19
725.595	2471.79
725.785	2436.92
725.976	2520.43
726.167	2525.85
726.357	2572.54
726.548	2637.84
726.739	2567.51
726.929	2622.34
727.12	2643.07
727.31	2640.16
727.501	2586.49
727.691	2635.32
727.882	2581.46
728.072	2663.22
728.263	2682.4
728.453	2721.34
728.644	2770.75
728.834	2672.32
729.024	2669.22
729.215	2670.19
729.405	2707
729.596	2754.47
729.786	2794.19
729.976	2848.44
730.167	2839.91
730.357	2787.02
730.547	2801.17
730.737	2833.71
730.928	2866.85
731.118	2938.92
731.308	2818.02
731.498	2887
731.688	2960.23
731.879	2992.2
732.069	3034.24
732.259	3099.92
732.449	3134.99
732.639	3239.42
732.829	3211.72
733.019	3254.53
733.209	3327.96
733.399	3384.15
733.589	3459.32
733.779	3498.27
733.969	3443.63
734.159	3574.22
734.349	3592.24
734.539	3632.92
734.729	3607.15
734.919	3598.24
735.109	3696.28
735.299	3626.72
735.488	3658.11
735.678	3714.88
735.868	3674.58
736.058	3633.7
736.248	3635.44
736.437	3611.61
736.627	3610.83
736.817	3739.87
737.007	3680.2
737.196	3737.16
737.386	3711.97
737.576	3690.85
737.765	3763.12
737.955	3724.76
738.144	3833.64
738.334	3804.97
738.524	3706.93
738.713	3817.37
738.903	3799.74
739.092	3812.72
739.282	3817.37
739.471	3858.06
739.661	3842.17
739.85	3890.8
740.04	3880.14
740.229	3941.56
740.419	3968.69
740.608	3966.94
740.797	3907.46
740.987	3998.33
741.176	3968.3
741.365	3974.11
741.555	3905.14
741.744	4027
741.933	3979.15
742.123	4045.41
742.312	4040.18
742.501	4044.63
742.69	4091.91
742.88	3981.09
743.069	4092.88
743.258	4093.46
743.447	4138.41
743.636	4127.36
743.825	4097.72
744.014	4107.6
744.204	4164.76
744.393	4051.42
744.582	4166.31
744.771	4170.18
744.96	4134.15
745.149	4186.26
745.338	4108.38
745.527	4193.82
745.716	4173.86
745.905	4131.63
746.094	4188.78
746.283	4175.61
746.471	4160.5
746.66	4217.84
746.849	4170.96
747.038	4227.73
747.227	4162.63
747.416	4190.33
747.604	4136.47
747.793	4207
747.982	4183.75
748.171	4161.46
748.359	4187.43
748.548	4146.74
748.737	4216.88
748.926	4223.27
749.114	4088.62
749.303	4164.95
749.491	4135.5
749.68	4115.93
749.869	4173.67
750.057	4108.57
750.246	4156.62
750.434	4127.36
750.623	4117.68
750.811	4084.55
751	4176.38
751.188	4137.83
751.377	4114.58
751.565	4072.15
751.754	4078.15
751.942	4077.38
752.131	4136.47
752.319	4061.49
752.507	4032.04
752.696	4090.17
752.884	4089.97
753.072	4076.22
753.261	4067.88
753.449	4059.36
753.637	4056.07
753.825	4137.05
754.014	4045.6
754.202	4039.4
754.39	4085.32
754.578	4095.98
754.766	4025.45
754.955	3991.16
755.143	4111.87
755.331	4037.27
755.519	4031.27
755.707	4008.6
755.895	3988.45
756.083	4038.43
756.271	3959
756.459	4010.92
756.647	4031.85
756.835	3941.76
757.023	3968.1
757.211	3962.1
757.399	3931.68
757.587	3976.44
757.775	3883.44
757.963	3903.78
758.151	3965.78
758.339	3831.51
758.526	3877.43
758.714	3855.54
758.902	3762.15
759.09	3700.93
759.278	3422.71
759.465	3150.88
759.653	2742.46
759.841	2447.58
760.028	2126.54
760.216	1824.87
760.404	1707.66
760.591	1399.21
760.779	1188.8
760.967	1030.9
761.154	827.46
761.342	812.54
761.529	817.19
761.717	909.61
761.905	890.82
762.092	975.29
762.28	892.17
762.467	857.11
762.655	804.79
762.842	835.6
763.029	854.39
763.217	830.17
763.404	847.81
763.592	869.31
763.779	812.74
763.966	846.06
764.154	933.64
764.341	1006.68
764.528	971.61
764.716	1058.99
764.903	1116.15
765.09	1210.69
765.277	1250.99
765.465	1429.82
765.652	1483.88
765.839	1585.98
766.026	1720.44
766.213	1772.37
766.4	1949.45
766.588	2135.84
766.775	2161.41
766.962	2274.95
767.149	2401.66
767.336	2624.66
767.523	2533.21
767.71	2730.06
767.897	2846.89
768.084	2871.11
768.271	2946.09
768.458	3041.61
768.645	3112.32
768.832	3106.7
769.019	3118.72
769.206	3192.53
769.392	3257.83
769.579	3352.38
769.766	3323.9
769.953	3337.26
770.14	3407.59
770.327	3395
770.513	3456.81
770.7	3524.23
770.887	3420.38
771.073	3486.64
771.26	3472.31
771.447	3494.97
771.634	3399.26
771.82	3547.67
772.007	3396.16
772.193	3497.88
772.38	3472.11
772.567	3490.71
772.753	3455.84
772.94	3503.89
773.126	3560.65
773.313	3506.02
773.499	3484.71
773.686	3545.93
773.872	3473.47
774.059	3508.73
774.245	3505.44
774.432	3451.19
774.618	3363.23
774.804	3501.76
774.991	3441.89
775.177	3459.91
775.363	3464.56
775.55	3501.17
775.736	3431.04
775.922	3427.94
776.109	3384.73
776.295	3439.95
776.481	3461.07
776.667	3431.23
776.853	3413.99
777.04	3381.24
777.226	3408.95
777.412	3507.76
777.598	3336.88
777.784	3327.38
777.97	3347.53
778.156	3401.78
778.342	3392.29
778.528	3351.6
778.715	3300.84
778.901	3292.7
779.087	3332.03
779.272	3319.83
779.458	3306.85
779.644	3319.63
779.83	3319.05
780.016	3380.66
780.202	3354.31
780.388	3321.96
780.574	3172.58
780.76	3285.15
780.946	3286.31
781.131	3280.5
781.317	3236.9
781.503	3204.16
781.689	3213.27
781.874	3302.39
782.06	3183.43
782.246	3228.38
782.432	3244.65
782.617	3240.78
782.803	3269.45
782.989	3134.02
783.174	3156.69
783.36	3132.47
783.545	3135.77
783.731	3162.31
783.916	3057.3
784.102	3163.67
784.288	3098.57
784.473	3129.95
784.659	3072.8
784.844	3123.37
785.029	3101.47
785.215	3091.59
785.4	3033.86
785.586	3140.61
785.771	3034.63
785.956	3115.04
786.142	3008.67
786.327	3042.96
786.512	3018.94
786.698	3026.3
786.883	2992.97
787.068	2980.77
787.254	3047.61
787.439	2960.23
787.624	2934.66
787.809	2967.98
787.994	2946.09
788.18	2949.58
788.365	2881.18
788.55	2923.81
788.735	2902.88
788.92	2867.04
789.105	2881.96
789.29	2883.12
789.475	2874.4
789.66	2817.44
789.845	2766.29
790.03	2808.72
790.215	2818.02
790.4	2857.55
790.585	2859.29
790.77	2759.51
790.955	2737.23
791.14	2795.93
791.325	2844.95
791.51	2705.26
791.695	2775.2
791.879	2775.4
792.064	2739.75
792.249	2808.33
792.434	2749.24
792.618	2772.68
792.803	2784.31
792.988	2778.88
793.173	2776.37
793.357	2817.83
793.542	2742.65
793.727	2783.53
793.911	2836.62
794.096	2780.82
794.281	2842.82
794.465	2912.96
794.65	2819.18
794.834	2860.45
795.019	2880.02
795.203	2876.92
795.388	2847.47
795.572	2908.69
795.757	2862.97
795.941	2810.66
796.126	2772.88
796.31	2762.61
796.494	2784.31
796.679	2778.3
796.863	2738.78
797.048	2879.25
797.232	2795.55
797.416	2825
797.601	2825.77
797.785	2905.21
797.969	2857.93
798.153	2836.62
798.338	2858.9
798.522	2899.59
798.706	2867.04
798.89	2898.62
799.074	2991.81
799.258	2935.63
799.443	2864.91
799.627	2870.91
799.811	2920.9
799.995	2822.48
800.179	2847.08
800.363	2842.63
800.547	2871.3
800.731	2895.33
800.915	2752.53
801.099	2820.54
801.283	2847.47
801.467	2837.4
801.651	2780.24
801.835	2901.14
802.019	2784.5
802.202	2835.65
802.386	2769.97
802.57	2767.65
802.754	2807.56
802.938	2783.53
803.121	2781.4
803.305	2856.96
803.489	2795.35
803.673	2834.1
803.856	2811.24
804.04	2802.52
804.224	2849.8
804.407	2782.57
804.591	2806.98
804.775	2830.81
804.958	2825
805.142	2893.78
805.326	2839.33
805.509	2823.25
805.693	2877.89
805.876	2860.65
806.06	2873.43
806.243	2874.01
806.427	2874.21
806.61	2906.37
806.794	2883.9
806.977	2863.94
807.16	2895.13
807.344	2879.63
807.527	2839.33
807.71	2865.49
807.894	2840.3
808.077	2843.21
808.26	2789.35
808.444	2789.54
808.627	2859.87
808.81	2769.78
808.993	2735.1
809.177	2713.98
809.36	2702.74
809.543	2752.92
809.726	2654.69
809.909	2707.78
810.092	2699.45
810.276	2667.87
810.459	2663.22
810.642	2628.73
810.825	2572.74
811.008	2590.17
811.191	2535.73
811.374	2550.07
811.557	2566.15
811.74	2601.41
811.923	2462.3
812.106	2464.43
812.289	2468.11
812.472	2440.8
812.654	2401.27
812.837	2379.76
813.02	2326.68
813.203	2311.18
813.386	2216.44
813.569	2190.86
813.751	2111.81
813.934	2159.47
814.117	2119.17
814.3	2099.41
814.482	2014.16
814.665	2015.13
814.848	1939.18
815.03	1885.32
815.213	1855.68
815.396	1876.41
815.578	1851.8
815.761	1781.47
815.943	1852
816.126	1759.77
816.309	1720.83
816.491	1692.74
816.674	1627.44
816.856	1679.76
817.039	1676.07
817.221	1739.24
817.403	1684.99
817.586	1690.02
817.768	1736.14
817.951	1648.76
818.133	1635.97
818.315	1625.89
818.498	1676.66
818.68	1751.25
818.862	1741.56
819.045	1743.5
819.227	1745.05
819.409	1712.31
819.591	1760.16
819.774	1703.2
819.956	1735.17
820.138	1793.49
820.32	1761.32
820.502	1856.07
820.684	1919.81
820.866	1899.85
821.048	1983.16
821.231	1951.58
821.413	1960.11
821.595	1947.13
821.777	1995.95
821.959	1954.3
822.141	2053.88
822.323	1903.92
822.505	1835.53
822.686	1753.19
822.868	1614.08
823.05	1571.45
823.232	1548.78
823.414	1433.5
823.596	1499.96
823.778	1495.7
823.96	1553.43
824.141	1563.9
824.323	1623.96
824.505	1661.93
824.687	1706.88
824.868	1815.19
825.05	1899.85
825.232	1909.54
825.413	1992.27
825.595	1908.77
825.777	1866.72
825.958	1920
826.14	1893.07
826.321	1956.23
826.503	1899.27
826.685	1964.95
826.866	1964.18
827.048	1951.97
827.229	1884.93
827.411	1844.83
827.592	1803.56
827.773	1780.89
827.955	1736.14
828.136	1756.48
828.318	1747.18
828.499	1782.44
828.68	1689.44
828.862	1730.32
829.043	1733.62
829.224	1704.56
829.406	1665.42
829.587	1709.98
829.768	1723.74
829.949	1738.46
830.131	1734.97
830.312	1763.45
830.493	1741.17
830.674	1737.69
830.855	1727.61
831.036	1737.11
831.218	1777.6
831.399	1828.17
831.58	1742.14
831.761	1774.5
831.942	1734.59
832.123	1724.51
832.304	1708.04
832.485	1712.11
832.666	1725.48
832.847	1766.36
833.028	1710.37
833.209	1737.88
833.389	1703.59
833.57	1684.41
833.751	1713.27
833.932	1745.82
834.113	1753.57
834.294	1677.24
834.475	1749.51
834.655	1743.69
834.836	1791.55
835.017	1772.95
835.198	1740.59
835.378	1749.31
835.559	1775.85
835.74	1798.33
835.92	1763.26
836.101	1751.25
836.281	1825.26
836.462	1796
836.643	1831.46
836.823	1828.36
837.004	1812.86
837.184	1869.24
837.365	1834.75
837.545	1849.87
837.726	1809.76
837.906	1884.74
838.087	1847.74
838.267	1811.5
838.448	1793.1
838.628	1826.42
838.808	1839.02
838.989	1868.27
839.169	1798.72
839.349	1844.05
839.53	1864.4
839.71	1861.1
839.89	1806.85
840.07	1875.25
840.251	1832.62
840.431	1866.33
840.611	1829.33
840.791	1781.67
840.971	1822.16
841.151	1805.89
841.332	1791.94
841.512	1862.46
841.692	1776.44
841.872	1821.19
842.052	1791.16
842.232	1822.55
842.412	1769.46
842.592	1797.55
842.772	1819.64
842.952	1821.58
843.132	1779.92
843.312	1765
843.492	1768.1
843.672	1823.52
843.851	1715.02
844.031	1770.82
844.211	1788.84
844.391	1769.46
844.571	1783.8
844.751	1814.8
844.93	1785.15
845.11	1759
845.29	1772.95
845.47	1757.26
845.649	1748.73
845.829	1806.66
846.009	1766.17
846.188	1774.3
846.368	1775.66
846.547	1737.69
846.727	1800.07
846.907	1705.91
847.086	1765.97
847.266	1787.48
847.445	1757.26
847.625	1725.29
847.804	1744.47
847.984	1759.58
848.163	1708.62
848.343	1698.94
848.522	1762.49
848.701	1733.62
848.881	1701.65
849.06	1733.23
849.239	1716.18
849.419	1708.04
849.598	1640.43
849.777	1642.17
849.957	1606.52
850.136	1548.78
850.315	1560.02
850.494	1546.26
850.674	1586.18
850.853	1615.43
851.032	1564.28
851.211	1653.99
851.39	1613.3
851.569	1550.33
851.748	1555.37
851.927	1635.58
852.107	1589.08
852.286	1548.2
852.465	1557.5
852.644	1636.94
852.823	1617.76
853.002	1554.4
853.181	1593.34
853.359	1595.09
853.538	1535.8
853.717	1604.97
853.896	1499.96
854.075	1418.78
854.254	1391.07
854.433	1366.08
854.611	1390.88
854.79	1344.57
854.969	1401.34
855.148	1422.85
855.327	1359.49
855.505	1421.3
855.684	1407.15
855.863	1432.73
856.041	1424.4
856.22	1458.69
856.399	1445.9
856.577	1535.41
856.756	1495.12
856.934	1639.46
857.113	1608.26
857.291	1560.21
857.47	1512.75
857.648	1525.92
857.827	1494.34
858.005	1589.86
858.184	1479.03
858.362	1618.73
858.541	1518.17
858.719	1523.21
858.898	1515.85
859.076	1487.37
859.254	1577.26
859.433	1510.23
859.611	1499.38
859.789	1450.36
859.967	1513.52
860.146	1537.93
860.324	1484.07
860.502	1455.98
860.68	1461.21
860.859	1440.09
861.037	1457.33
861.215	1451.91
861.393	1454.23
861.571	1443.58
861.749	1444.55
861.927	1462.37
862.105	1485.62
862.283	1436.41
862.461	1427.11
862.639	1422.07
862.817	1467.6
862.995	1459.08
863.173	1415.29
863.351	1439.7
863.529	1434.86
863.707	1465.67
863.885	1428.47
864.063	1385.45
864.241	1393.01
864.418	1449
864.596	1386.04
864.774	1342.44
864.952	1388.94
865.129	1417.03
865.307	1349.8
865.485	1362.2
865.663	1396.11
865.84	1316.29
866.018	1338.95
866.196	1214.76
866.373	1232.2
866.551	1209.34
866.728	1158.38
866.906	1194.42
867.084	1224.64
867.261	1239.95
867.439	1252.93
867.616	1299.24
867.794	1275.99
867.971	1288.97
868.149	1296.72
868.326	1343.8
868.503	1316.09
868.681	1326.94
868.858	1327.91
869.035	1302.72
869.213	1338.37
869.39	1284.51
869.567	1354.26
869.745	1293.23
869.922	1260.87
870.099	1310.09
870.276	1323.65
870.454	1329.27
870.631	1282.38
870.808	1312.61
870.985	1323.84
871.162	1383.52
871.339	1318.22
871.517	1223.87
871.694	1277.54
871.871	1270.17
872.048	1250.22
872.225	1275.6
872.402	1316.29
872.579	1233.36
872.756	1265.52
872.933	1210.69
873.11	1240.53
873.287	1282.57
873.463	1252.35
873.64	1242.08
873.817	1237.63
873.994	1225.61
874.171	1187.83
874.348	1240.53
874.524	1173.88
874.701	1202.17
874.878	1163.23
875.055	1232.98
875.231	1201.01
875.408	1223.68
875.585	1178.14
875.762	1164.39
875.938	1208.95
876.115	1167.49
876.291	1146.95
876.468	1189.38
876.645	1177.18
876.821	1164.97
876.998	1152.18
877.174	1166.33
877.351	1167.29
877.527	1144.63
877.704	1152.38
877.88	1165.55
878.057	1140.36
878.233	1188.61
878.409	1091.35
878.586	1175.63
878.762	1148.7
878.938	1132.42
879.115	1081.08
879.291	1117.89
879.467	1049.88
879.644	1110.72
879.82	1157.41
879.996	1080.11
880.172	1093.86
880.349	1128.55
880.525	1131.45
880.701	1074.3
880.877	1057.44
881.053	1070.23
881.229	1085.73
881.405	1143.27
881.581	1066.35
881.757	1087.47
881.933	1095.41
882.109	1119.25
882.285	1091.35
882.461	1026.83
882.637	1098.13
882.813	1064.41
882.989	1104.33
883.165	1138.23
883.341	1055.5
883.517	1135.13
883.693	1084.56
883.869	1101.23
884.044	1105.68
884.22	1110.72
884.396	1118.86
884.572	1101.42
884.747	1130.87
884.923	1140.36
885.099	1106.46
885.275	1101.81
885.45	1065.58
885.626	1065.38
885.801	1057.25
885.977	1089.8
886.153	1021.02
886.328	1087.28
886.504	1052.21
886.679	1078.56
886.855	1045.82
887.03	1082.43
887.206	1077.98
887.381	1105.68
887.557	1077.01
887.732	1086.11
887.908	1074.88
888.083	1121.96
888.258	1061.51
888.434	1053.18
888.609	1068.29
888.784	1104.13
888.96	1086.89
889.135	1056.28
889.31	1031.48
889.485	1088.05
889.661	1054.73
889.836	1088.63
890.011	1093.67
890.186	1062.28
890.361	1049.3
890.537	1081.66
890.712	1063.64
890.887	1051.63
891.062	1078.95
891.237	1125.45
891.412	1035.35
891.587	1059.77
891.762	1061.51
891.937	1095.41
892.112	998.73
892.287	1036.9
892.462	1002.61
892.637	989.24
892.812	1004.35
892.987	962.89
893.161	959.6
893.336	976.07
893.511	987.3
893.686	989.05
893.861	940.22
894.035	968.51
894.21	952.62
894.385	936.93
894.56	932.86
894.734	869.89
894.909	876.48
895.084	862.72
895.258	847.03
895.433	860.4
895.608	847.03
895.782	761.01
895.957	808.09
896.131	806.15
896.306	737.95
896.48	752.68
896.655	726.13
896.829	684.09
897.004	701.14
897.178	698.62
897.353	673.43
897.527	729.23
897.701	662.78
897.876	633.71
898.05	757.13
898.224	729.43
898.399	729.62
898.573	675.95
898.747	615.7
898.921	662.2
899.096	516.89
899.27	546.14
899.444	539.17
899.618	600.2
899.792	621.51
899.967	615.12
900.141	650.76
900.315	596.71
900.489	602.33
900.663	609.88
900.837	575.78
901.011	558.35
901.185	675.56
901.359	614.73
901.533	594.58
901.707	612.02
901.881	604.07
902.055	556.41
902.229	610.08
902.403	638.75
902.576	601.17
902.75	593.61
902.924	710.83
903.098	675.56
903.272	687.96
903.446	765.27
903.619	737.56
903.793	756.36
903.967	739.5
904.14	821.07
904.314	780.77
904.488	783.68
904.661	783.09
904.835	759.65
905.009	815.06
905.182	818.94
905.356	787.16
905.529	783.87
905.703	736.4
905.876	742.99
906.05	717.99
906.223	701.91
906.397	621.32
906.57	631.39
906.744	579.27
906.917	568.42
907.09	579.85
907.264	580.63
907.437	575.78
907.61	532.19
907.784	531.03
907.957	544.2
908.13	537.81
908.304	555.25
908.477	509.91
908.65	525.99
908.823	521.54
908.996	573.65
909.17	513.01
909.343	531.03
909.516	542.85
909.689	516.89
909.862	477.36
910.035	537.42
910.208	490.92
910.381	491.89
910.554	601.94
910.727	524.05
910.9	521.15
911.073	490.34
911.246	569.58
911.419	580.43
911.592	556.02
911.765	525.6
911.938	506.23
912.11	534.52
912.283	505.84
912.456	566.68
912.629	526.96
912.802	522.89
912.974	447.72
913.147	432.61
913.32	377.19
913.493	430.09
913.665	426.41
913.838	436.29
914.01	434.35
914.183	465.54
914.356	460.12
914.528	512.43
914.701	525.6
914.873	518.82
915.046	450.04
915.218	421.56
915.391	363.63
915.563	359.37
915.736	412.07
915.908	450.04
916.081	438.61
916.253	449.46
916.425	443.07
916.598	465.35
916.77	443.65
916.942	415.17
917.115	341.74
917.287	398.12
917.459	384.36
917.632	362.47
917.804	346.39
917.976	420.79
918.148	399.28
918.32	444.23
918.493	452.56
918.665	499.64
918.837	466.12
919.009	496.15
919.181	499.25
919.353	482.01
919.525	475.62
919.697	459.92
919.869	471.35
920.041	521.34
920.213	597.1
920.385	517.27
920.557	477.75
920.729	534.71
920.901	482.4
921.073	484.14
921.244	473.68
921.416	512.04
921.588	475.23
921.76	478.91
921.932	540.91
922.103	476.39
922.275	510.69
922.447	486.66
922.619	430.67
922.79	479.1
922.962	435.12
923.134	472.71
923.305	436.29
923.477	418.27
923.648	391.92
923.82	415.36
923.991	370.02
924.163	398.89
924.335	413.23
924.506	397.54
924.677	449.46
924.849	399.67
925.02	438.03
925.192	419.43
925.363	416.91
925.535	426.02
925.706	383.78
925.877	440.55
926.049	375.45
926.22	411.49
926.391	402.19
926.562	431.83
926.734	392.5
926.905	414.01
927.076	369.06
927.247	367.89
927.419	331.08
927.59	347.55
927.761	350.84
927.932	308.03
928.103	315.97
928.274	298.73
928.445	261.33
928.616	282.84
928.787	257.46
928.958	292.72
929.129	289.23
929.3	258.43
929.471	227.81
929.642	187.13
929.813	158.26
929.984	243.51
930.155	159.23
930.326	200.11
930.496	157.68
930.667	109.43
930.838	164.27
931.009	132.68
931.18	136.75
931.35	135.78
931.521	155.35
931.692	89.67
931.863	57.51
932.033	109.43
932.204	128.03
932.374	101.69
932.545	73.79
932.716	121.25
932.886	108.66
933.057	27.67
933.227	62.55
933.398	130.36
933.568	47.44
933.739	0.55
933.909	30.97
934.08	66.62
934.25	-7.59
934.421	22.64
934.591	59.84
934.761	24.57
934.932	-29.29
935.102	34.65
935.272	24.57
935.443	48.99
935.613	18.95
935.783	59.06
935.953	22.05
936.123	129.78
936.294	20.12
936.464	7.14
936.634	37.55
936.804	-8.94
936.974	-2.55
937.144	87.15
937.314	40.27
937.484	23.6
937.655	2.1
937.825	47.82
937.995	12.37
938.165	53.25
938.334	22.25
938.504	52.28
938.674	21.28
938.844	59.64
939.014	110.79
939.184	93.74
939.354	140.82
939.524	110.4
939.694	69.52
939.863	69.33
940.033	127.65
940.203	118.35
940.373	120.09
940.542	113.5
940.712	76.3
940.882	100.33
941.051	119.7
941.221	107.5
941.391	118.73
941.56	64.87
941.73	54.99
941.899	149.54
942.069	72.43
942.238	84.05
942.408	81.54
942.577	105.17
942.747	68.94
942.916	37.94
943.086	54.02
943.255	92.97
943.425	87.74
943.594	61
943.763	13.72
943.933	41.43
944.102	-7.01
944.271	71.46
944.441	71.07
944.61	42.2
944.779	49.95
944.948	129.97
945.117	40.46
945.287	54.02
945.456	-2.16
945.625	29.22
945.794	65.26
945.963	29.03
946.132	66.42
946.301	34.26
946.47	92.97
946.639	4.81
946.808	30.58
946.977	72.82
947.146	112.15
947.315	33.68
947.484	83.09
947.653	55.96
947.822	26.51
947.991	27.48
948.16	123.77
948.329	65.84
948.498	70.3
948.666	75.53
948.835	74.56
949.004	32.71
949.173	20.5
949.341	49.57
949.51	48.79
949.679	75.72
949.847	83.28
950.016	119.7
950.185	104.59
950.353	41.04
950.522	44.72
950.69	113.89
950.859	75.53
951.028	112.73
951.196	97.04
951.365	32.52
951.533	54.8
951.701	96.26
951.87	73.98
952.038	16.44
952.207	48.6
952.375	95.1
952.543	32.32
952.712	38.33
952.88	43.37
953.048	152.45
953.217	66.04
953.385	86.57
953.553	100.33
953.721	34.84
953.89	64.87
954.058	43.75
954.226	44.34
954.394	65.84
954.562	2.29
954.73	62.16
954.898	62.16
955.067	74.75
955.235	32.32
955.403	84.05
955.571	113.5
955.739	92.58
955.907	31.35
956.075	45.5
956.243	42.59
956.41	76.11
956.578	14.5
956.746	-5.07
956.914	50.15
957.082	85.02
957.25	81.54
957.418	50.15
957.585	71.65
957.753	101.1
957.921	25.35
958.089	55.19
958.256	91.8
958.424	72.82
958.592	62.94
958.759	52.28
958.927	87.54
959.095	46.27
959.262	73.59
959.43	60.61
959.597	29.8
959.765	43.56
959.932	43.75
960.1	62.55
960.267	50.34
960.435	65.84
960.602	94.9
960.77	54.99
960.937	28.45
961.104	56.15
961.272	31.55
961.439	47.82
961.606	65.07
961.774	78.44
961.941	52.67
962.108	91.61
962.275	82.12
962.443	98.39
962.61	64.68
962.777	109.63
962.944	114.67
963.111	99.75
963.278	87.35
963.446	77.27
963.613	89.29
963.78	90.45
963.947	97.04
964.114	65.45
964.281	151.28
964.448	90.64
964.615	70.3
964.782	82.89
964.949	122.61
965.116	79.79
965.282	136.75
965.449	58.48
965.616	30
965.783	117.18
965.95	81.54
966.117	48.79
966.283	59.45
966.45	92.58
966.617	90.25
966.784	120.28
966.95	111.76
967.117	125.71
967.284	69.72
967.45	71.65
967.617	110.79
967.784	116.8
967.95	133.65
968.117	83.47
968.283	116.8
968.45	176.86
968.616	139.66
968.783	112.15
968.949	120.87
969.116	145.86
969.282	93.94
969.449	123.77
969.615	106.72
969.781	81.15
969.948	89.09
970.114	65.65
970.28	146.44
970.447	108.85
970.613	171.05
970.779	100.91
970.945	133.07
971.112	103.23
971.278	128.81
971.444	126.1
971.61	133.65
971.776	85.8
971.942	137.14
972.108	128.42
972.275	116.22
972.441	110.4
972.607	185.77
972.773	87.54
972.939	118.54
973.105	98.2
973.271	77.47
973.437	91.03
973.602	69.52
973.768	130.55
973.934	92.77
974.1	78.24
974.266	41.43
974.432	104.01
974.598	71.85
974.763	122.03
974.929	94.13
975.095	159.23
975.261	61.39
975.426	64.68
975.592	86.57
975.758	154.38
975.923	48.99
976.089	72.43
976.255	111.57
976.42	114.28
976.586	129.78
976.751	103.82
976.917	160.39
977.082	111.57
977.248	86.77
977.413	43.37
977.579	71.85
977.744	102.85
977.91	53.83
978.075	67.78
978.24	102.85
978.406	80.18
978.571	54.41
978.736	56.74
978.902	89.29
979.067	79.02
979.232	44.72
979.397	94.52
979.563	142.76
979.728	77.27
979.893	69.14
980.058	63.71
980.223	136.75
980.388	80.95
980.554	85.99
980.719	59.64
980.884	84.05
981.049	116.99
981.214	59.45
981.379	90.06
981.544	73.98
981.709	92.39
981.874	57.32
982.039	81.73
982.204	98.59
982.368	115.05
982.533	72.62
982.698	117.18
982.863	109.63
983.028	81.92
983.193	118.35
983.357	89.87
983.522	72.24
983.687	87.93
983.852	76.89
984.016	88.12
984.181	95.49
984.346	101.49
984.51	91.8
984.675	104.59
984.839	88.12
985.004	109.43
985.168	124.35
985.333	101.88
985.498	70.3
985.662	113.12
985.827	73.98
985.991	70.1
986.155	65.26
986.32	105.37
986.484	132.88
986.649	115.05
986.813	52.67
986.977	98.39
987.142	113.12
987.306	78.05
987.47	62.94
987.634	79.4
987.799	95.87
987.963	103.23
988.127	87.74
988.291	154.38
988.455	70.69
988.62	84.25
988.784	121.64
988.948	123
989.112	55.77
989.276	67.78
989.44	76.3
989.604	67.2
989.768	48.99
989.932	142.95
990.096	58.09
990.26	53.25
990.424	44.53
990.588	84.05
990.752	122.03
990.915	96.26
991.079	54.02
991.243	52.67
991.407	75.92
991.571	85.22
991.734	105.17
991.898	104.59
992.062	149.54
992.226	52.28
992.389	52.47
992.553	1.13
992.717	41.24
992.88	61.97
993.044	97.42
993.207	74.95
993.371	97.42
993.535	85.22
993.698	79.21
993.862	124.35
994.025	107.3
994.189	83.67
994.352	71.46
994.515	68.36
994.679	95.87
994.842	70.88
995.006	98.97
995.169	26.51
995.332	60.61
995.496	114.67
995.659	39.49
995.822	79.99
995.985	61.39
996.149	115.05
996.312	79.6
996.475	148.18
996.638	49.37
996.801	114.28
996.964	119.12
997.128	76.11
997.291	59.64
997.454	95.1
997.617	25.15
997.78	88.51
997.943	74.17
998.106	110.6
998.269	63.71
998.432	60.22
998.595	47.63
998.758	12.37
998.92	48.6
999.083	49.76
999.246	63.32
999.409	32.52
999.572	8.3
999.735	58.09
999.897	73.59
1000.06	48.79
1000.223	47.44
1000.386	86.19
1000.548	79.02
1000.711	84.05
1000.874	70.88
1001.036	20.5
1001.199	77.27
1001.361	14.11
1001.524	46.85
1001.687	114.47
1001.849	8.49
1002.012	61.58
1002.174	76.5
1002.337	97.81
1002.499	42.98
1002.661	104.78
1002.824	21.09
1002.986	63.71
1003.149	64.29
1003.311	7.52
1003.473	109.24
1003.636	57.9
1003.798	61.39
1003.96	61.39
1004.123	47.63
1004.285	42.4
1004.447	37.75
1004.609	56.93
1004.771	104.01
1004.933	12.56
1005.096	39.88
1005.258	23.6
1005.42	7.14
1005.582	56.15
1005.744	50.34
1005.906	17.99
1006.068	39.49
1006.23	10.43
1006.392	11.21
1006.554	21.09
1006.716	73.01
1006.878	75.92
1007.04	1.71
1007.202	36.59
1007.363	38.33
1007.525	43.56
1007.687	66.42
1007.849	100.33
1008.011	1.52
1008.172	3.84
1008.334	12.76
1008.496	48.79
1008.658	32.52
1008.819	0.55
1008.981	28.64
1009.143	22.05
1009.304	52.28
1009.466	50.34
1009.627	92.97
1009.789	114.28
1009.95	27.67
1010.112	35.81
1010.273	48.21
1010.435	25.54
1010.596	30.97
1010.758	30.97
1010.919	36.78
1011.081	-13.59
1011.242	24.38
1011.403	60.03
1011.565	17.6
1011.726	40.07
1011.887	6.17
1012.049	37.55
1012.21	58.48
1012.371	68.36
1012.532	-29.48
1012.693	41.04
1012.855	36.2
1013.016	24.77
1013.177	53.83
1013.338	22.44
1013.499	89.29
1013.66	60.22
1013.821	28.45
1013.982	74.56
1014.143	49.37
1014.304	24.19
1014.465	60.03
1014.626	68.17
1014.787	19.34
1014.948	94.9
1015.109	-28.9
1015.27	75.72
1015.431	-3.91
1015.592	3.26
1015.752	69.52
1015.913	34.65
1016.074	60.8
1016.235	68.55
1016.395	12.37
1016.556	11.21
1016.717	-4.29
1016.877	61
1017.038	5.2
1017.199	23.02
1017.359	38.52
1017.52	28.25
1017.681	16.63
1017.841	3.46
1018.002	21.09
1018.162	17.21
1018.323	52.86
1018.483	36.39
1018.644	11.4
1018.804	-14.56
1018.964	-19.79
1019.125	-1.19
1019.285	63.9
1019.446	-7.59
1019.606	6.36
1019.766	-11.46
1019.926	39.69
1020.087	57.7
1020.247	0.36
1020.407	36.59
1020.567	45.11
1020.728	17.6
1020.888	-7.39
1021.048	33.87
1021.208	-19.99
1021.368	-19.99
1021.528	81.15
1021.688	34.26
1021.848	27.29
1022.008	21.86
1022.168	4.23
1022.328	42.2
1022.488	33.29
1022.648	6.36
1022.808	17.21
1022.968	48.6
1023.128	8.69
1023.288	9.07
1023.448	-0.42
1023.608	46.66
1023.767	28.84
1023.927	0.36
1024.087	6.36
1024.247	-1
1024.406	21.86
1024.566	-3.91
1024.726	1.52
1024.885	29.22
1025.045	18.57
1025.205	-10.49
1025.364	46.08
1025.524	25.54
1025.683	4.81
1025.843	41.62
1026.003	-1.39
1026.162	44.72
1026.321	24.19
1026.481	17.21
1026.64	-8.56
1026.8	20.12
1026.959	5.97
1027.119	14.69
1027.278	15.85
1027.437	-8.56
1027.597	19.34
1027.756	36
1027.915	18.37
1028.074	15.66
1028.234	-24.25
1028.393	23.22
1028.552	7.33
1028.711	-46.53
1028.87	55.96
1029.03	-30.26
1029.189	9.07
1029.348	-46.34
1029.507	9.85
1029.666	8.49
1029.825	-26.38
1029.984	-10.11
1030.143	7.91
1030.302	15.66
1030.461	-48.86
1030.62	26.32
1030.779	30.97
1030.938	-28.51
1031.097	-25.99
1031.255	2.29
1031.414	76.89
1031.573	45.5
1031.732	-44.4
1031.891	-2.94
1032.049	54.02
1032.208	12.17
1032.367	6.75
1032.525	-17.86
1032.684	22.25
1032.843	11.98
1033.001	-68.43
1033.16	130.75
1033.319	53.25
1033.477	-6.04
1033.636	-9.53
1033.794	-41.3
1033.953	34.84
1034.111	16.44
1034.27	-1
1034.428	40.85
1034.587	-3.52
1034.745	2.68
1034.903	-7.78
1035.062	30.39
1035.22	-27.35
1035.378	28.64
1035.537	-20.96
1035.695	20.89
1035.853	-8.94
1036.011	12.56
1036.17	17.02
1036.328	-26.19
1036.486	6.36
1036.644	7.72
1036.802	-60.68
1036.96	-17.86
1037.119	-11.27
1037.277	-21.34
1037.435	-35.1
1037.593	-8.94
1037.751	10.04
1037.909	25.35
1038.067	25.35
