Data from gum_young_FLMT105791__106__17-40-34-041.txt Node

Date: Mon Mar 20 17:40:34 GMT 2023
User: antho
Spectrometer: FLMT10579
Trigger mode: 0
Integration Time (sec): 1.000000E-1
Scans to average: 10
Electric dark correction enabled: true
Nonlinearity correction enabled: false
Boxcar width: 0
XAxis mode: Wavelengths
Number of Pixels in Spectrum: 3648
>>>>>Begin Spectral Data<<<<<
345.248	-134.49
345.464	-134.49
345.681	-134.49
345.898	-125.39
346.114	-144.57
346.331	-12.43
346.548	7.91
346.764	20.31
346.981	-15.34
347.197	-2.16
347.414	9.07
347.631	-34.52
347.847	69.91
348.064	4.62
348.28	26.9
348.497	-49.83
348.713	-24.44
348.93	31.55
349.146	5.2
349.363	12.56
349.579	32.71
349.796	-9.91
350.012	-5.46
350.229	33.1
350.445	17.79
350.661	-0.23
350.878	14.11
351.094	18.95
351.311	19.34
351.527	29.22
351.743	-6.81
351.96	26.7
352.176	63.13
352.392	41.62
352.609	30.97
352.825	7.14
353.041	27.67
353.257	-8.17
353.474	12.37
353.69	6.56
353.906	28.64
354.122	-11.08
354.339	44.53
354.555	8.88
354.771	-12.63
354.987	58.87
355.203	47.44
355.42	11.4
355.636	27.09
355.852	-10.88
356.068	33.49
356.284	-51.18
356.5	70.3
356.716	27.87
356.932	19.15
357.148	44.53
357.364	32.52
357.58	43.56
357.796	27.48
358.012	48.79
358.228	22.64
358.444	-44.4
358.66	41.82
358.876	34.26
359.092	6.94
359.308	3.46
359.524	26.7
359.74	-5.84
359.956	2.87
360.172	36
360.388	14.69
360.604	0.94
360.819	61.19
361.035	10.43
361.251	48.99
361.467	4.42
361.683	30
361.898	39.69
362.114	57.7
362.33	35.23
362.546	53.83
362.762	9.66
362.977	8.88
363.193	-2.55
363.409	46.08
363.624	-43.04
363.84	-13.4
364.056	5.39
364.271	9.07
364.487	27.09
364.703	-11.08
364.918	7.33
365.134	22.05
365.35	2.29
365.565	106.92
365.781	36.78
365.996	45.69
366.212	73.79
366.427	33.87
366.643	-9.33
366.858	-1
367.074	-26.96
367.289	74.17
367.505	106.14
367.72	-19.79
367.936	18.76
368.151	65.84
368.367	8.49
368.582	11.98
368.798	59.25
369.013	59.84
369.228	46.66
369.444	25.74
369.659	81.92
369.874	39.88
370.09	58.67
370.305	-23.67
370.52	20.5
370.736	57.7
370.951	4.04
371.166	62.55
371.381	65.07
371.597	95.68
371.812	21.67
372.027	7.91
372.242	24.19
372.458	76.5
372.673	19.73
372.888	20.12
373.103	46.47
373.318	99.36
373.533	50.34
373.749	50.15
373.964	-5.26
374.179	82.31
374.394	-15.92
374.609	88.12
374.824	-9.72
375.039	61.77
375.254	11.98
375.469	71.07
375.684	37.36
375.899	75.72
376.114	42.98
376.329	40.85
376.544	78.44
376.759	62.55
376.974	5.59
377.189	31.94
377.404	33.1
377.619	46.27
377.834	-35.49
378.049	7.14
378.264	11.21
378.478	61
378.693	-17.47
378.908	61.77
379.123	36.59
379.338	56.15
379.553	27.67
379.767	28.45
379.982	15.66
380.197	45.5
380.412	39.49
380.626	59.45
380.841	90.45
381.056	58.87
381.271	98.39
381.485	0.94
381.7	19.34
381.915	58.87
382.129	3.84
382.344	42.59
382.559	36
382.773	47.63
382.988	-13.01
383.202	23.6
383.417	-10.69
383.632	103.62
383.846	32.52
384.061	9.66
384.275	20.5
384.49	68.55
384.704	68.75
384.919	35.23
385.133	24.57
385.348	65.07
385.562	3.46
385.777	67.39
385.991	48.99
386.206	17.79
386.42	16.24
386.634	78.63
386.849	48.21
387.063	49.18
387.277	17.02
387.492	11.98
387.706	4.42
387.92	18.18
388.135	61
388.349	58.87
388.563	38.72
388.778	69.14
388.992	51.31
389.206	60.8
389.42	117.96
389.635	30.19
389.849	64.1
390.063	94.32
390.277	46.85
390.491	114.86
390.706	79.6
390.92	73.2
391.134	63.9
391.348	79.99
391.562	10.62
391.776	53.05
391.99	22.44
392.205	64.1
392.419	30.39
392.633	56.54
392.847	87.35
393.061	28.84
393.275	82.5
393.489	36.78
393.703	67.97
393.917	50.34
394.131	41.43
394.345	61.39
394.559	55.96
394.773	49.18
394.986	68.17
395.2	58.87
395.414	93.35
395.628	25.93
395.842	84.64
396.056	51.5
396.27	-1
396.484	72.43
396.697	83.47
396.911	94.52
397.125	75.72
397.339	64.29
397.553	69.33
397.766	104.2
397.98	68.55
398.194	116.02
398.408	46.85
398.621	93.35
398.835	114.67
399.049	91.42
399.262	89.29
399.476	115.05
399.69	80.76
399.903	147.02
400.117	85.22
400.331	96.45
400.544	57.9
400.758	170.85
400.971	106.33
401.185	117.96
401.398	68.75
401.612	125.71
401.826	123.77
402.039	134.23
402.253	73.98
402.466	111.37
402.68	45.69
402.893	114.08
403.106	72.04
403.32	96.84
403.533	122.61
403.747	112.34
403.96	118.73
404.174	137.53
404.387	67.2
404.6	82.5
404.814	127.84
405.027	111.76
405.24	79.02
405.454	100.33
405.667	113.31
405.88	59.64
406.094	101.69
406.307	141.4
406.52	112.73
406.733	62.35
406.947	78.82
407.16	135.98
407.373	157.87
407.586	83.47
407.799	88.12
408.012	149.93
408.226	120.87
408.439	147.6
408.652	95.49
408.865	123
409.078	152.06
409.291	118.35
409.504	111.18
409.717	122.8
409.93	145.67
410.143	130.94
410.357	77.47
410.57	81.34
410.783	102.07
410.996	124.16
411.209	108.08
411.421	153.61
411.634	123.77
411.847	113.12
412.06	142.37
412.273	137.14
412.486	138.5
412.699	207.86
412.912	145.86
413.125	152.06
413.338	117.18
413.55	155.93
413.763	121.83
413.976	155.74
414.189	106.72
414.402	138.5
414.615	183.06
414.827	116.22
415.04	159.62
415.253	164.27
415.466	176.08
415.678	200.88
415.891	142.18
416.104	146.83
416.316	116.22
416.529	106.53
416.742	177.44
416.954	202.05
417.167	138.5
417.38	152.64
417.592	164.07
417.805	104.59
418.017	101.88
418.23	173.95
418.442	136.75
418.655	132.3
418.868	163.88
419.08	168.14
419.293	178.02
419.505	177.25
419.718	138.5
419.93	148.57
420.142	133.07
420.355	207.86
420.567	185.58
420.78	150.51
420.992	139.66
421.205	183.64
421.417	123.58
421.629	143.15
421.842	133.46
422.054	99.17
422.266	186.35
422.479	191.58
422.691	162.33
422.903	177.63
423.115	146.83
423.328	155.16
423.54	147.22
423.752	164.27
423.964	118.93
424.177	169.11
424.389	144.7
424.601	244.09
424.813	189.84
425.025	167.37
425.238	202.43
425.45	173.57
425.662	149.93
425.874	436.29
426.086	147.41
426.298	211.93
426.51	204.76
426.722	176.67
426.934	157.1
427.146	202.24
427.358	165.43
427.57	191.97
427.782	198.17
427.994	178.41
428.206	139.66
428.418	139.08
428.63	190.81
428.842	194.68
429.054	190.42
429.266	187.9
429.478	126.1
429.69	196.62
429.902	131.13
430.114	185.97
430.325	190.23
430.537	148.18
430.749	150.9
430.961	124.74
431.173	117.96
431.384	152.83
431.596	125.32
431.808	179.96
432.02	162.33
432.231	227.04
432.443	220.65
432.655	205.53
432.867	174.73
433.078	217.93
433.29	267.34
433.502	229.75
433.713	226.07
433.925	204.76
434.136	218.51
434.348	167.75
434.56	153.61
434.771	253.97
434.983	157.1
435.194	172.79
435.406	196.23
435.617	283.23
435.829	256.1
436.04	252.23
436.252	257.46
436.463	256.49
436.675	264.05
436.886	234.21
437.098	242.93
437.309	290.39
437.521	228.98
437.732	278.19
437.943	234.6
438.155	238.28
438.366	189.84
438.578	276.83
438.789	229.36
439	256.3
439.211	232.85
439.423	239.63
439.634	251.65
439.845	272.57
440.057	230.14
440.268	288.46
440.479	244.86
440.69	252.81
440.902	224.52
441.113	237.5
441.324	248.93
441.535	271.6
441.746	299.11
441.957	244.48
442.168	253.97
442.38	278.96
442.591	287.88
442.802	258.43
443.013	259.98
443.224	279.74
443.435	263.08
443.646	265.6
443.857	261.33
444.068	251.26
444.279	296.79
444.49	319.84
444.701	264.43
444.912	378.16
445.123	343.09
445.334	317.13
445.545	294.85
445.756	294.46
445.967	250.68
446.178	293.88
446.388	316.94
446.599	293.88
446.81	307.06
447.021	302.21
447.232	328.56
447.443	346.19
447.653	282.84
447.864	327.01
448.075	306.09
448.286	311.32
448.496	299.69
448.707	362.86
448.918	286.91
449.129	398.7
449.339	291.75
449.55	345.61
449.761	315.78
449.971	374.29
450.182	332.44
450.393	358.59
450.603	334.18
450.814	364.02
451.024	353.36
451.235	377.58
451.446	389.01
451.656	373.51
451.867	317.13
452.077	339.41
452.288	399.47
452.498	386.3
452.709	342.71
452.919	362.08
453.13	342.71
453.34	373.71
453.55	282.84
453.761	374.87
453.971	384.56
454.182	382.23
454.392	372.35
454.602	408.77
454.813	353.75
455.023	375.26
455.233	320.23
455.444	367.12
455.654	283.42
455.864	318.49
456.075	375.64
456.285	329.73
456.495	354.53
456.705	365.37
456.916	424.27
457.126	429.89
457.336	396.18
457.546	352.39
457.756	370.99
457.967	425.44
458.177	351.62
458.387	392.11
458.597	366.92
458.807	384.17
459.017	375.64
459.227	365.18
459.437	392.31
459.647	407.81
459.857	390.37
460.068	366.73
460.278	413.42
460.488	413.23
460.698	426.21
460.908	375.26
461.117	358.01
461.327	370.61
461.537	404.12
461.747	381.46
461.957	408.19
462.167	491.12
462.377	453.72
462.587	410.52
462.797	418.46
463.007	394.63
463.216	430.09
463.426	457.6
463.636	447.33
463.846	365.57
464.056	406.84
464.265	453.72
464.475	399.09
464.685	452.17
464.895	455.08
465.104	429.7
465.314	463.99
465.524	413.62
465.733	388.04
465.943	520.18
466.153	465.93
466.362	482.59
466.572	436.29
466.782	431.83
466.991	444.23
467.201	480.85
467.41	412.84
467.62	465.15
467.829	432.99
468.039	456.44
468.249	426.6
468.458	437.64
468.668	466.51
468.877	462.05
469.086	505.84
469.296	513.4
469.505	456.24
469.715	502.16
469.924	503.52
470.134	508.75
470.343	498.87
470.552	467.29
470.762	483.56
470.971	464.57
471.18	474.45
471.39	491.7
471.599	437.84
471.808	510.3
472.018	468.84
472.227	530.84
472.436	544.2
472.645	486.08
472.855	510.49
473.064	561.06
473.273	536.26
473.482	529.48
473.691	540.13
473.901	532.77
474.11	494.02
474.319	606.2
474.528	542.27
474.737	570.55
474.946	545.37
475.155	556.99
475.364	582.76
475.573	572.88
475.783	562.03
475.992	586.63
476.201	626.16
476.41	581.4
476.619	535.87
476.828	591.67
477.037	553.89
477.245	573.65
477.454	601.55
477.663	568.23
477.872	591.48
478.081	684.28
478.29	563
478.499	716.83
478.708	622.48
478.917	672.85
479.125	634.1
479.334	661.61
479.543	636.62
479.752	668.01
479.961	661.23
480.169	678.47
480.378	635.85
480.587	758.29
480.796	643.4
481.004	673.05
481.213	685.06
481.422	673.82
481.63	696.68
481.839	731.75
482.048	732.14
482.256	737.76
482.465	690.87
482.674	729.81
482.882	721.68
483.091	772.05
483.299	738.34
483.508	761.2
483.716	751.9
483.925	746.28
484.134	702.3
484.342	725.94
484.551	745.89
484.759	754.81
484.967	763.72
485.176	770.5
485.384	812.35
485.593	799.37
485.801	747.06
486.01	737.95
486.218	721.09
486.426	622.48
486.635	690.29
486.843	695.13
487.051	711.21
487.26	699.4
487.468	746.86
487.676	761.2
487.885	736.98
488.093	777.67
488.301	788.91
488.509	806.92
488.717	841.61
488.926	785.81
489.134	793.94
489.342	824.75
489.55	780.19
489.758	846.06
489.967	813.9
490.175	932.67
490.383	821.26
490.591	934.6
490.799	855.94
491.007	921.24
491.215	903.99
491.423	861.76
491.631	873.77
491.839	861.56
492.047	891.4
492.255	857.49
492.463	843.16
492.671	872.8
492.879	918.91
493.087	872.8
493.295	908.25
493.503	941.58
493.711	959.6
493.919	948.75
494.127	966.96
494.334	965.02
494.542	900.5
494.75	936.35
494.958	952.43
495.166	1001.06
495.374	985.37
495.581	962.5
495.789	971.03
495.997	1037.68
496.205	961.15
496.412	964.25
496.62	976.65
496.828	1011.33
497.035	995.63
497.243	1017.53
497.451	994.86
497.658	1004.16
497.866	1007.26
498.074	1075.85
498.281	1005.13
498.489	1071.2
498.696	1036.71
498.904	991.57
499.112	1000.67
499.319	1073.33
499.527	1043.3
499.734	1078.17
499.942	1029.73
500.149	1056.28
500.357	1095.61
500.564	1057.05
500.771	1096
500.979	1006.87
501.186	1010.36
501.394	1063.83
501.601	1038.84
501.808	1048.33
502.016	1028.18
502.223	1047.75
502.43	1070.42
502.638	1053.57
502.845	1059.96
503.052	1136.88
503.26	1088.05
503.467	1195.39
503.674	1117.11
503.881	1136.68
504.089	1181.24
504.296	1162.45
504.503	1079.33
504.71	1120.02
504.917	1093.86
505.125	1142.88
505.332	1173.49
505.539	1154.7
505.746	1262.62
505.953	1232.59
506.16	1224.26
506.367	1257.39
506.574	1312.02
506.781	1288.39
506.988	1214.76
507.195	1250.61
507.402	1236.66
507.609	1330.82
507.816	1227.16
508.023	1251.77
508.23	1231.04
508.437	1225.03
508.644	1288.19
508.851	1312.02
509.058	1343.41
509.265	1344.96
509.472	1355.81
509.679	1446.87
509.885	1396.89
510.092	1366.66
510.299	1367.44
510.506	1404.83
510.713	1380.03
510.92	1388.55
511.126	1424.78
511.333	1441.25
511.54	1479.81
511.746	1490.47
511.953	1496.67
512.16	1520.3
512.367	1483.49
512.573	1518.56
512.78	1521.08
512.987	1526.5
513.193	1494.92
513.4	1418.97
513.606	1497.44
513.813	1529.6
514.02	1519.72
514.226	1571.26
514.433	1581.72
514.639	1534.83
514.846	1516.62
515.052	1548.59
515.259	1568.74
515.465	1582.69
515.672	1612.53
515.878	1692.54
516.085	1649.73
516.291	1662.9
516.497	1657.67
516.704	1586.18
516.91	1609.23
517.117	1518.36
517.323	1471.67
517.529	1500.73
517.736	1542.2
517.942	1536.58
518.148	1593.34
518.354	1613.3
518.561	1632.09
518.767	1634.61
518.973	1694.29
519.179	1718.51
519.386	1697.97
519.592	1698.55
519.798	1712.5
520.004	1836.11
520.21	1806.08
520.417	1856.65
520.623	1907.22
520.829	1949.84
521.035	1900.24
521.241	1908.38
521.447	1974.45
521.653	2080.62
521.859	1973.67
522.065	2057.18
522.271	2103.87
522.477	2064.73
522.683	2100.58
522.889	2056.21
523.095	2059.69
523.301	2085.66
523.507	2061.44
523.713	2129.25
523.919	2072.09
524.125	2171.49
524.331	2174.78
524.537	2256.93
524.742	2232.52
524.948	2267.97
525.154	2292.19
525.36	2383.83
525.566	2307.3
525.772	2330.36
525.977	2272.82
526.183	2305.37
526.389	2390.61
526.595	2259.25
526.8	2232.71
527.006	2181.95
527.212	2099.8
527.417	2102.13
527.623	2114.91
527.829	2256.15
528.034	2241.43
528.24	2285.99
528.446	2310.98
528.651	2425.3
528.857	2415.41
529.062	2474.89
529.268	2480.13
529.473	2477.03
529.679	2506.67
529.884	2525.08
530.09	2530.5
530.295	2526.63
530.501	2535.15
530.706	2543.87
530.912	2527.79
531.117	2564.79
531.323	2583.2
531.528	2650.62
531.733	2660.7
531.939	2645
532.144	2626.79
532.35	2643.65
532.555	2673.49
532.76	2622.72
532.966	2623.5
533.171	2589.79
533.376	2576.03
533.581	2510.54
533.787	2570.41
533.992	2677.17
534.197	2649.65
534.402	2689.57
534.607	2694.6
534.813	2755.63
535.018	2669.8
535.223	2691.31
535.428	2760.09
535.633	2795.55
535.838	2762.61
536.043	2834.49
536.249	2886.22
536.454	2821.9
536.659	2865.68
536.864	2822.86
537.069	2771.91
537.274	2829.65
537.479	2794.19
537.684	2808.53
537.889	2768.81
538.094	2879.63
538.299	2827.9
538.504	2884.86
538.708	2823.64
538.913	2866.85
539.118	2833.33
539.323	2849.8
539.528	2827.13
539.733	2850.96
539.938	2867.62
540.142	2856
540.347	2816.66
540.552	2760.87
540.757	2771.72
540.962	2765.52
541.166	2773.85
541.371	2707.59
541.576	2796.13
541.781	2725.22
541.985	2838.75
542.19	2830.81
542.395	2935.63
542.599	2965.66
542.804	2898.81
543.008	2964.11
543.213	2855.61
543.418	2804.46
543.622	2887.96
543.827	2887
544.031	2945.51
544.236	2955.97
544.44	2973.21
544.645	3009.06
544.849	2955.19
545.054	3027.27
545.258	3014.48
545.463	3032.11
545.667	2935.43
545.872	2996.27
546.076	3015.06
546.281	2982.32
546.485	2896.68
546.689	2974.18
546.894	3017.39
547.098	3011.38
547.302	2962.94
547.507	3010.99
547.711	3008.09
547.915	3025.33
548.119	2922.64
548.324	2979.8
548.528	3015.84
548.732	2962.56
548.936	3029.98
549.141	3018.55
549.345	2971.28
549.549	3001.31
549.753	3062.34
549.957	3085
550.161	3109.22
550.366	3042.96
550.57	3011.57
550.774	3050.71
550.978	2994.91
551.182	3045.87
551.386	3028.04
551.59	3039.09
551.794	3027.07
551.998	3090.43
552.202	3081.9
552.406	3008.09
552.61	3093.72
552.814	3096.44
553.018	3157.85
553.222	3042.96
553.426	3020.68
553.63	3142.16
553.833	3026.49
554.037	2990.26
554.241	3041.8
554.445	3028.04
554.649	3063.31
554.853	3005.76
555.056	3084.62
555.26	3099.92
555.464	3044.51
555.668	3030.76
555.871	3109.42
556.075	3087.52
556.279	3035.79
556.483	2996.46
556.686	2996.27
556.89	2960.81
557.094	3040.44
557.297	2945.12
557.501	3008.67
557.704	2882.15
557.908	2952.09
558.112	2936.98
558.315	3015.26
558.519	2923.42
558.722	2917.03
558.926	2896.1
559.129	2828.48
559.333	2838.75
559.536	2822.48
559.74	2791.67
559.943	2810.85
560.147	2818.6
560.35	2798.26
560.553	2813.56
560.757	2796.52
560.96	2879.63
561.164	2809.11
561.367	2936.21
561.57	2844.76
561.774	2834.1
561.977	2881.57
562.18	2798.65
562.384	2900.75
562.587	2792.64
562.79	2813.37
562.993	2782.18
563.197	2823.83
563.4	2857.55
563.603	2885.25
563.806	2868.59
564.009	2767.84
564.212	2808.53
564.416	2702.74
564.619	2764.74
564.822	2686.47
565.025	2774.04
565.228	2720.18
565.431	2718.24
565.634	2596.37
565.837	2625.05
566.04	2617.11
566.243	2626.6
566.446	2557.82
566.649	2603.93
566.852	2567.12
567.055	2592.11
567.258	2623.31
567.461	2657.79
567.664	2656.44
567.867	2583.01
568.07	2595.41
568.273	2573.9
568.475	2602.96
568.678	2507.83
568.881	2514.81
569.084	2465.98
569.287	2414.06
569.489	2479.16
569.692	2499.69
569.895	2501.24
570.098	2378.6
570.3	2403.79
570.503	2317.18
570.706	2399.33
570.909	2332.88
571.111	2311.37
571.314	2267
571.516	2292.19
571.719	2309.05
571.922	2340.82
572.124	2274.17
572.327	2291.22
572.529	2265.65
572.732	2256.74
572.935	2300.72
573.137	2374.53
573.34	2305.37
573.542	2320.87
573.745	2297.03
573.947	2299.36
574.15	2224.57
574.352	2199.77
574.554	2299.17
574.757	2200.35
574.959	2185.05
575.162	2180.59
575.364	2174.2
575.566	2231.94
575.769	2144.17
575.971	2181.17
576.173	2070.35
576.376	2127.12
576.578	2162.77
576.78	2199.77
576.982	2079.26
577.185	2132.74
577.387	2075.19
577.589	2079.26
577.791	2110.84
577.993	2155.21
578.196	2075.39
578.398	2101.16
578.6	2096.51
578.802	2020.75
579.004	2022.11
579.206	2017.07
579.408	2071.51
579.61	2028.5
579.812	2115.49
580.014	2051.36
580.216	2039.35
580.418	2040.13
580.62	2075
580.822	2031.99
581.024	2013.97
581.226	2090.89
581.428	2021.33
581.63	2146.49
581.832	2054.66
582.034	2119.56
582.236	2089.14
582.438	2132.16
582.64	2124.6
582.841	2169.94
583.043	2196.48
583.245	2121.5
583.447	2135.84
583.649	2111.81
583.85	2121.11
584.052	2152.31
584.254	2088.56
584.456	2149.4
584.657	2023.85
584.859	2124.79
585.061	2057.95
585.262	2067.64
585.464	2012.81
585.666	2094.38
585.867	2012.81
586.069	2081.98
586.27	2015.52
586.472	2025.98
586.674	1963.01
586.875	1985.1
587.077	1960.69
587.278	2014.75
587.48	1994.4
587.681	2051.36
587.883	2023.08
588.084	1920.2
588.285	1964.95
588.487	1920.2
588.688	1937.05
588.89	1857.62
589.091	1807.44
589.292	1784.19
589.494	1748.34
589.695	1715.79
589.896	1656.89
590.098	1658.44
590.299	1691.19
590.5	1702.42
590.702	1738.85
590.903	1739.82
591.104	1830.88
591.305	1804.72
591.507	1857.42
591.708	1828.36
591.909	1817.32
592.11	1840.57
592.311	1861.68
592.512	1795.04
592.714	1747.96
592.915	1766.36
593.116	1811.31
593.317	1816.15
593.518	1824.29
593.719	1833.01
593.92	1863.04
594.121	1850.83
594.322	1790.77
594.523	1779.73
594.724	1737.69
594.925	1772.17
595.126	1774.11
595.327	1797.36
595.528	1771.4
595.729	1794.07
595.929	1806.27
596.13	1784.57
596.331	1819.84
596.532	1783.8
596.733	1842.89
596.934	1831.07
597.135	1859.17
597.335	1842.89
597.536	1777.4
597.737	1828.55
597.938	1775.27
598.138	1822.74
598.339	1822.74
598.54	1822.55
598.74	1769.65
598.941	1839.02
599.142	1845.22
599.342	1818.48
599.543	1756.29
599.744	1798.33
599.944	1799.49
600.145	1809.37
600.345	1803.75
600.546	1913.8
600.746	1857.03
600.947	1868.08
601.147	1788.84
601.348	1858.78
601.548	1778.37
601.749	1807.24
601.949	1762.87
602.15	1740.98
602.35	1755.9
602.551	1832.82
602.751	1743.31
602.951	1741.76
603.152	1709.59
603.352	1798.72
603.552	1779.15
603.753	1802.2
603.953	1824.87
604.153	1786.32
604.354	1770.43
604.554	1766.17
604.754	1763.07
604.954	1736.72
605.155	1772.75
605.355	1789.8
605.555	1811.31
605.755	1799.69
605.955	1762.87
606.155	1771.01
606.356	1782.64
606.556	1762.1
606.756	1777.6
606.956	1732.26
607.156	1817.32
607.356	1736.52
607.556	1779.34
607.756	1752.99
607.956	1777.21
608.156	1738.66
608.356	1722.19
608.556	1774.5
608.756	1701.46
608.956	1685.76
609.156	1705.33
609.356	1650.69
609.556	1680.92
609.755	1713.47
609.955	1655.54
610.155	1657.09
610.355	1711.72
610.555	1666.58
610.755	1674.72
610.954	1605.36
611.154	1651.47
611.354	1680.14
611.554	1636.16
611.753	1651.86
611.953	1595.48
612.153	1631.71
612.352	1634.42
612.552	1581.33
612.752	1543.55
612.951	1617.37
613.151	1590.24
613.351	1562.73
613.55	1611.75
613.75	1589.47
613.949	1572.23
614.149	1625.12
614.348	1579.59
614.548	1587.73
614.747	1512.16
614.947	1554.79
615.146	1485.04
615.346	1611.75
615.545	1584.43
615.745	1558.47
615.944	1593.54
616.144	1536.77
616.343	1536.19
616.542	1522.24
616.742	1494.92
616.941	1478.45
617.14	1466.83
617.34	1511.2
617.539	1480.58
617.738	1466.44
617.938	1529.21
618.137	1486.01
618.336	1459.85
618.535	1547.81
618.734	1510.23
618.934	1510.03
619.133	1500.93
619.332	1513.91
619.531	1484.07
619.73	1501.12
619.929	1502.48
620.128	1500.15
620.328	1536.77
620.527	1461.98
620.726	1452.49
620.925	1479.42
621.124	1470.51
621.323	1523.6
621.522	1408.9
621.721	1452.3
621.92	1445.13
622.119	1495.31
622.318	1445.52
622.517	1441.45
622.715	1436.41
622.914	1379.45
623.113	1423.43
623.312	1371.5
623.511	1412.39
623.71	1436.22
623.909	1393.4
624.107	1457.53
624.306	1390.49
624.505	1392.82
624.704	1375.57
624.902	1385.84
625.101	1393.4
625.3	1369.37
625.499	1331.79
625.697	1355.62
625.896	1319.39
626.095	1387.59
626.293	1320.74
626.492	1331.4
626.69	1359.49
626.889	1356.78
627.088	1417.03
627.286	1337.4
627.485	1329.65
627.683	1315.32
627.882	1313.57
628.08	1246.92
628.279	1270.76
628.477	1331.2
628.676	1270.17
628.874	1290.91
629.073	1238.98
629.271	1222.13
629.469	1304.47
629.668	1245.76
629.866	1263.78
630.065	1288.97
630.263	1318.22
630.461	1252.74
630.66	1282.19
630.858	1312.8
631.056	1352.9
631.254	1337.6
631.453	1269.01
631.651	1308.54
631.849	1282.19
632.047	1299.82
632.245	1287.42
632.444	1283.54
632.642	1321.71
632.84	1331.98
633.038	1284.51
633.236	1261.26
633.434	1289.16
633.632	1283.35
633.83	1293.42
634.028	1316.87
634.227	1292.46
634.425	1379.06
634.623	1296.52
634.821	1315.32
635.019	1313.77
635.216	1308.92
635.414	1356
635.612	1315.9
635.81	1301.95
636.008	1356
636.206	1293.42
636.404	1323.07
636.602	1273.47
636.8	1278.89
636.997	1313.77
637.195	1326.75
637.393	1309.12
637.591	1338.37
637.789	1300.59
637.986	1301.56
638.184	1258.16
638.382	1325.78
638.58	1305.63
638.777	1389.14
638.975	1346.32
639.173	1302.72
639.37	1306.02
639.568	1306.21
639.765	1299.62
639.963	1276.57
640.161	1333.34
640.358	1293.81
640.556	1280.25
640.753	1233.17
640.951	1191.9
641.148	1278.89
641.346	1240.72
641.543	1234.33
641.741	1282.57
641.938	1206.82
642.136	1187.06
642.333	1167.68
642.531	1260.1
642.728	1237.24
642.925	1228.91
643.123	1194.23
643.32	1198.88
643.517	1202.56
643.715	1167.68
643.912	1148.7
644.109	1171.36
644.306	1163.61
644.504	1150.83
644.701	1190.74
644.898	1219.99
645.095	1130.48
645.293	1138.43
645.49	1177.37
645.687	1152.57
645.884	1167.68
646.081	1086.31
646.278	1087.47
646.475	1118.66
646.672	1111.5
646.87	1125.45
647.067	1107.23
647.264	1081.46
647.461	1065.19
647.658	1030.7
647.855	1111.3
648.052	1046.4
648.249	986.72
648.446	1021.6
648.642	1040.97
648.839	983.62
649.036	1018.69
649.233	987.88
649.43	984.78
649.627	978.78
649.824	1009.39
650.021	988.85
650.217	993.31
650.414	985.75
650.611	1005.9
650.808	1009.97
651.004	1036.13
651.201	1019.08
651.398	1061.12
651.595	1025.47
651.791	992.53
651.988	1011.91
652.185	966.38
652.381	1011.91
652.578	949.52
652.775	981.3
652.971	995.83
653.168	984.2
653.364	1023.53
653.561	971.8
653.757	980.33
653.954	1000.09
654.15	977.42
654.347	1053.37
654.543	1013.85
654.74	920.27
654.936	949.72
655.133	983.04
655.329	976.45
655.525	956.3
655.722	997.38
655.918	885.59
656.115	937.9
656.311	843.93
656.507	812.35
656.704	791.62
656.9	831.14
657.096	844.12
657.292	832.11
657.489	881.32
657.685	911.74
657.881	867.96
658.077	884.62
658.273	901.47
658.47	963.86
658.666	924.34
658.862	948.75
659.058	900.31
659.254	964.25
659.45	895.27
659.646	915.23
659.842	942.74
660.038	968.7
660.234	895.27
660.43	901.09
660.626	971.8
660.822	940.8
661.018	955.34
661.214	913.68
661.41	894.3
661.606	931.7
661.802	939.45
661.998	927.44
662.194	863.89
662.39	906.9
662.586	919.3
662.781	896.05
662.977	904.96
663.173	905.15
663.369	901.28
663.564	898.18
663.76	917.17
663.956	854.97
664.152	921.24
664.347	843.74
664.543	888.3
664.739	853.42
664.934	833.47
665.13	833.66
665.326	885.01
665.521	845.09
665.717	824.56
665.912	844.32
666.108	791.43
666.304	875.12
666.499	835.41
666.695	786.58
666.89	813.32
667.086	856.72
667.281	867.57
667.477	883.26
667.672	845.29
667.867	832.5
668.063	865.63
668.258	778.25
668.454	806.15
668.649	869.31
668.844	852.07
669.04	836.96
669.235	807.31
669.43	783.09
669.626	779.41
669.821	797.82
670.016	770.89
670.211	838.89
670.407	801.89
670.602	806.92
670.797	803.63
670.992	838.31
671.187	791.81
671.382	841.99
671.578	803.63
671.773	816.22
671.968	793.36
672.163	792.2
672.358	803.05
672.553	779.99
672.748	750.16
672.943	834.82
673.138	805.76
673.333	825.91
673.528	750.93
673.723	810.22
673.918	797.63
674.113	758.88
674.308	858.07
674.503	797.63
674.698	822.42
674.892	786.97
675.087	836.96
675.282	807.12
675.477	758.29
675.672	807.51
675.867	777.09
676.061	766.82
676.256	765.46
676.451	790.65
676.646	794.33
676.84	738.73
677.035	734.08
677.23	758.68
677.424	782.51
677.619	817.77
677.814	851.1
678.008	844.12
678.203	727.68
678.397	755.39
678.592	786.39
678.787	818.74
678.981	778.06
679.176	809.64
679.37	783.29
679.565	773.99
679.759	748.22
679.954	815.26
680.148	849.55
680.342	837.73
680.537	815.06
680.731	784.26
680.926	805.57
681.12	853.62
681.314	803.24
681.509	797.43
681.703	802.08
681.897	825.72
682.092	806.15
682.286	793.94
682.48	879
682.674	850.52
682.869	785.03
683.063	807.51
683.257	875.9
683.451	817.19
683.645	880.94
683.839	825.91
684.034	822.81
684.228	855.36
684.422	781.93
684.616	805.18
684.81	870.86
685.004	808.47
685.198	860.21
685.392	863.89
685.586	829.98
685.78	890.82
685.974	858.66
686.168	903.99
686.362	918.52
686.556	825.33
686.75	787.55
686.944	763.91
687.138	771.08
687.331	689.13
687.525	679.44
687.719	587.8
687.913	673.24
688.107	736.59
688.301	644.95
688.494	719.93
688.688	722.45
688.882	695.33
689.076	668.78
689.269	710.44
689.463	780.77
689.657	714.51
689.85	726.71
690.044	773.79
690.238	755.39
690.431	756.74
690.625	772.83
690.818	823.78
691.012	841.41
691.205	880.36
691.399	808.28
691.593	871.06
691.786	922.59
691.98	935.77
692.173	980.72
692.366	956.11
692.56	998.35
692.753	1015.01
692.947	965.8
693.14	1041.17
693.333	1044.65
693.527	963.67
693.72	1025.47
693.914	1022.57
694.107	1040.78
694.3	1089.99
694.493	1060.73
694.687	1125.45
694.88	1084.76
695.073	1163.03
695.266	1176.21
695.46	1178.92
695.653	1198.88
695.846	1214.18
696.039	1148.89
696.232	1196.55
696.425	1242.27
696.618	1315.32
696.812	1282.77
697.005	1361.82
697.198	1441.45
697.391	1424.59
697.584	1452.1
697.777	1511.39
697.97	1475.35
698.163	1538.71
698.356	1506.55
698.549	1598.19
698.742	1557.5
698.935	1556.34
699.127	1555.56
699.32	1533.28
699.513	1544.52
699.706	1567.38
699.899	1612.14
700.092	1582.5
700.285	1619.5
700.477	1575.13
700.67	1663.68
700.863	1647.79
701.056	1749.7
701.248	1724.12
701.441	1763.65
701.634	1706.11
701.826	1852.19
702.019	1737.69
702.212	1811.89
702.404	1739.24
702.597	1752.02
702.79	1799.1
702.982	1849.29
703.175	1916.32
703.367	1947.51
703.56	1946.93
703.752	2036.06
703.945	2028.69
704.137	2031.02
704.33	2038.58
704.522	2060.86
704.715	2060.86
704.907	2129.06
705.1	2163.74
705.292	2159.67
705.484	2129.25
705.677	2191.64
705.869	2245.3
706.061	2218.18
706.254	2281.92
706.446	2233.1
706.638	2269.33
706.831	2333.85
707.023	2319.12
707.215	2407.08
707.407	2402.05
707.599	2359.81
707.792	2457.85
707.984	2439.63
708.176	2452.61
708.368	2486.91
708.56	2502.21
708.752	2503.57
708.944	2490.01
709.136	2546.78
709.329	2520.04
709.521	2692.28
709.713	2628.54
709.905	2646.94
710.097	2689.18
710.289	2660.7
710.481	2660.89
710.672	2682.01
710.864	2737.23
711.056	2762.8
711.248	2754.28
711.44	2804.85
711.632	2777.92
711.824	2804.65
712.016	2828.68
712.207	2824.41
712.399	2860.65
712.591	2913.93
712.783	2889.32
712.975	2914.12
713.166	2898.43
713.358	2922.84
713.55	2998.21
713.741	2959.26
713.933	2979.03
714.125	2958.68
714.316	2937.95
714.508	3029.79
714.7	3065.82
714.891	3045.09
715.083	3065.63
715.274	3019.71
715.466	3063.69
715.657	3090.43
715.849	3022.42
716.04	3047.61
716.232	2948.22
716.423	3005.76
716.615	2881.96
716.806	2823.25
716.998	2773.07
717.189	2671.35
717.381	2567.51
717.572	2531.28
717.763	2501.63
717.955	2474.12
718.146	2426.85
718.337	2364.46
718.528	2357.1
718.72	2261.77
718.911	2299.17
719.102	2236
719.293	2281.34
719.485	2243.95
719.676	2182.72
719.867	2209.07
720.058	2219.15
720.249	2190.67
720.44	2227.67
720.632	2303.62
720.823	2360.78
721.014	2537.48
721.205	2545.61
721.396	2610.32
721.587	2745.37
721.778	2867.43
721.969	2880.99
722.16	2938.73
722.351	3000.14
722.542	3079
722.733	3063.5
722.924	3030.17
723.115	3084.62
723.305	3003.24
723.496	3048.19
723.687	2869.56
723.878	2862.58
724.069	2888.93
724.26	2875.18
724.45	2769.97
724.641	2778.69
724.832	2815.89
725.023	2792.25
725.213	2794.38
725.404	2754.47
725.595	2775.2
725.785	2765.71
725.976	2804.85
726.167	2799.03
726.357	2836.81
726.548	2883.9
726.739	2777.53
726.929	2901.14
727.12	2959.84
727.31	2934.66
727.501	2869.95
727.691	2875.37
727.882	2873.24
728.072	2951.51
728.263	2929.43
728.453	3014.48
728.644	3054.97
728.834	2990.84
729.024	2960.43
729.215	2948.22
729.405	2981.54
729.596	3098.95
729.786	3070.86
729.976	3056.14
730.167	3106.9
730.357	3081.52
730.547	3087.33
730.737	3141
730.928	3138.48
731.118	3206.87
731.308	3175.48
731.498	3178
731.688	3260.93
731.879	3250.27
732.069	3340.75
732.259	3357.8
732.449	3431.04
732.639	3486.06
732.829	3504.47
733.019	3544.57
733.209	3660.43
733.399	3638.35
733.589	3737.35
733.779	3796.83
733.969	3801.09
734.159	3875.11
734.349	3881.69
734.539	3951.05
734.729	3942.92
734.919	3969.46
735.109	4026.04
735.299	3958.8
735.488	4002.79
735.678	3976.82
735.868	3924.32
736.058	3932.26
736.248	3905.52
736.437	3923.35
736.627	3955.7
736.817	4031.46
737.007	3986.7
737.196	4089.58
737.386	4071.76
737.576	4037.08
737.765	4113.03
737.955	4064.78
738.144	4198.47
738.334	4117.68
738.524	4046.57
738.713	4122.91
738.903	4130.66
739.092	4129.3
739.282	4115.35
739.471	4164.37
739.661	4115.93
739.85	4224.04
740.04	4217.84
740.229	4243.03
740.419	4246.91
740.608	4285.85
740.797	4241.29
740.987	4234.51
741.176	4283.91
741.365	4315.3
741.555	4214.36
741.744	4316.66
741.933	4285.46
742.123	4314.72
742.312	4302.12
742.501	4343.39
742.69	4343.39
742.88	4309.29
743.069	4388.15
743.258	4338.16
743.447	4395.51
743.636	4413.92
743.825	4372.26
744.014	4410.24
744.204	4428.64
744.393	4384.47
744.582	4472.82
744.771	4487.35
744.96	4377.69
745.149	4494.13
745.338	4434.84
745.527	4485.6
745.716	4422.44
745.905	4393.57
746.094	4510.02
746.283	4472.04
746.471	4445.89
746.66	4471.85
746.849	4496.45
747.038	4558.26
747.227	4420.7
747.416	4518.73
747.604	4457.9
747.793	4470.3
747.982	4488.7
748.171	4502.65
748.359	4480.95
748.548	4431.94
748.737	4439.3
748.926	4461.77
749.114	4365.67
749.303	4434.84
749.491	4390.86
749.68	4342.42
749.869	4456.15
750.057	4402.1
750.246	4372.84
750.434	4412.37
750.623	4398.42
750.811	4334.67
751	4406.55
751.188	4313.17
751.377	4346.49
751.565	4352.11
751.754	4302.71
751.942	4304.64
752.131	4393.57
752.319	4302.9
752.507	4287.01
752.696	4321.89
752.884	4379.24
753.072	4318.01
753.261	4346.88
753.449	4301.74
753.637	4264.34
753.825	4376.33
754.014	4318.21
754.202	4300.77
754.39	4361.41
754.578	4315.88
754.766	4280.81
754.955	4230.05
755.143	4334.09
755.331	4296.89
755.519	4301.35
755.707	4254.46
755.895	4218.23
756.083	4202.35
756.271	4232.57
756.459	4186.65
756.647	4232.76
756.835	4209.71
757.023	4219.01
757.211	4172.9
757.399	4183.16
757.587	4169.41
757.775	4116.13
757.963	4136.47
758.151	4157.98
758.339	4084.93
758.526	4074.67
758.714	4076.8
758.902	3964.62
759.09	3860.19
759.278	3602.12
759.465	3314.4
759.653	2915.86
759.841	2600.25
760.028	2230.77
760.216	2001.57
760.404	1827.59
760.591	1511.39
760.779	1270.37
760.967	1139.59
761.154	914.65
761.342	930.92
761.529	896.05
761.717	972.19
761.905	955.72
762.092	1025.47
762.28	950.3
762.467	964.25
762.655	880.16
762.842	893.72
763.029	895.27
763.217	906.51
763.404	919.88
763.592	918.72
763.779	887.33
763.966	928.21
764.154	979.36
764.341	1047.95
764.528	1068.29
764.716	1120.8
764.903	1194.61
765.09	1271.14
765.277	1369.37
765.465	1501.9
765.652	1593.54
765.839	1672.59
766.026	1844.83
766.213	1894.43
766.4	2029.86
766.588	2264.87
766.775	2286.19
766.962	2430.33
767.149	2512.87
767.336	2658.95
767.523	2675.04
767.71	2831.97
767.897	3010.99
768.084	3036.57
768.271	3146.23
768.458	3186.14
768.645	3280.3
768.832	3245.62
769.019	3320.6
769.206	3334.16
769.392	3444.21
769.579	3526.55
769.766	3485.48
769.953	3504.27
770.14	3552.52
770.327	3585.26
770.513	3594.75
770.7	3655.59
770.887	3607.54
771.073	3635.25
771.26	3633.89
771.447	3622.65
771.634	3562.01
771.82	3719.72
772.007	3584.1
772.193	3637.38
772.38	3654.43
772.567	3636.6
772.753	3589.72
772.94	3714.68
773.126	3730.76
773.313	3722.24
773.499	3684.85
773.686	3692.98
773.872	3612.38
774.059	3688.91
774.245	3621.88
774.432	3641.06
774.618	3593.01
774.804	3700.93
774.991	3562.01
775.177	3594.56
775.363	3602.89
775.55	3633.5
775.736	3568.02
775.922	3626.33
776.109	3586.81
776.295	3639.51
776.481	3560.07
776.667	3578.67
776.853	3595.92
777.04	3569.37
777.226	3574.22
777.412	3644.35
777.598	3501.37
777.784	3519.39
777.97	3505.44
778.156	3569.76
778.342	3533.72
778.528	3512.22
778.715	3478.31
778.901	3463.78
779.087	3512.99
779.272	3484.71
779.458	3435.88
779.644	3416.31
779.83	3463.59
780.016	3556.59
780.202	3443.44
780.388	3427.94
780.574	3331.26
780.76	3409.53
780.946	3470.95
781.131	3414.18
781.317	3415.93
781.503	3395.58
781.689	3377.95
781.874	3498.07
782.06	3321.38
782.246	3393.06
782.432	3341.72
782.617	3379.5
782.803	3428.13
782.989	3310.53
783.174	3310.33
783.36	3298.13
783.545	3279.72
783.731	3324.86
783.916	3189.63
784.102	3295.41
784.288	3316.15
784.473	3261.9
784.659	3228.38
784.844	3261.7
785.029	3258.02
785.215	3238.65
785.4	3194.28
785.586	3285.34
785.771	3152.82
785.956	3219.66
786.142	3207.07
786.327	3177.42
786.512	3143.52
786.698	3182.85
786.883	3074.15
787.068	3122.98
787.254	3167.54
787.439	3122.98
787.624	3097.79
787.809	3073.77
787.994	3063.11
788.18	3136.15
788.365	3033.86
788.55	2999.37
788.735	3066.21
788.92	3057.11
789.105	3006.15
789.29	3020.29
789.475	2926.33
789.66	2954.03
789.845	2911.02
790.03	2920.71
790.215	2972.44
790.4	2959.07
790.585	2968.76
790.77	2922.64
790.955	2885.45
791.14	2927.88
791.325	2957.13
791.51	2871.69
791.695	2920.13
791.879	2875.95
792.064	2854.45
792.249	2930.98
792.434	2910.44
792.618	2914.89
792.803	2930.78
792.988	2880.21
793.173	2898.62
793.357	2965.66
793.542	2876.92
793.727	2916.83
793.911	2942.99
794.096	2931.56
794.281	2959.46
794.465	3029.01
794.65	2903.08
794.834	3001.69
795.019	2996.85
795.203	2984.26
795.388	3011.57
795.572	3032.69
795.757	2978.64
795.941	2959.07
796.126	2953.26
796.31	2927.1
796.494	2907.73
796.679	2919.74
796.863	2873.43
797.048	2987.94
797.232	2927.1
797.416	2917.03
797.601	2962.56
797.785	3031.34
797.969	2984.64
798.153	2936.79
798.338	3012.35
798.522	3029.79
798.706	2999.76
798.89	2993.75
799.074	3092.17
799.258	3041.22
799.443	3007.89
799.627	3011.38
799.811	3046.64
799.995	2954.42
800.179	2953.84
800.363	2953.45
800.547	2991.23
800.731	2993.17
800.915	2924.97
801.099	2947.64
801.283	2907.73
801.467	2946.28
801.651	2967.98
801.835	3005.37
802.019	2968.76
802.202	2961.39
802.386	2917.03
802.57	2909.08
802.754	2917.99
802.938	2883.7
803.121	2899.98
803.305	2991.04
803.489	2944.34
803.673	2962.17
803.856	2949.19
804.04	2915.48
804.224	3002.86
804.407	2909.47
804.591	2910.05
804.775	2936.21
804.958	2878.47
805.142	3043.93
805.326	2957.52
805.509	2970.89
805.693	3019.13
805.876	2969.34
806.06	3001.89
806.243	2962.75
806.427	3014.29
806.61	3025.14
806.794	3008.09
806.977	3042.57
807.16	2997.43
807.344	3033.86
807.527	3004.79
807.71	2958.68
807.894	2983.29
808.077	2989.68
808.26	2949.96
808.444	2932.72
808.627	3034.05
808.81	2918.96
808.993	2877.11
809.177	2882.35
809.36	2927.1
809.543	2873.43
809.726	2794.19
809.909	2788.18
810.092	2777.14
810.276	2749.43
810.459	2775.2
810.642	2744.2
810.825	2747.3
811.008	2719.4
811.191	2637.06
811.374	2663.8
811.557	2650.62
811.74	2754.28
811.923	2579.32
812.106	2586.49
812.289	2548.33
812.472	2537.48
812.654	2552.2
812.837	2474.12
813.02	2443.31
813.203	2404.95
813.386	2319.12
813.569	2291.42
813.751	2226.32
813.934	2295.29
814.117	2227.48
814.3	2170.91
814.482	2111.23
814.665	2087.79
814.848	2016.68
815.03	1974.64
815.213	1967.86
815.396	1967.47
815.578	1884.55
815.761	1886.87
815.943	1942.09
816.126	1831.07
816.309	1824.1
816.491	1732.07
816.674	1714.05
816.856	1775.27
817.039	1744.86
817.221	1832.04
817.403	1731.68
817.586	1739.43
817.768	1792.52
817.951	1691.57
818.133	1688.67
818.315	1711.53
818.498	1769.27
818.68	1838.44
818.862	1788.64
819.045	1842.31
819.227	1795.42
819.409	1801.43
819.591	1842.7
819.774	1801.04
819.956	1788.06
820.138	1886.29
820.32	1845.99
820.502	1930.08
820.684	1997.11
820.866	2000.99
821.048	2070.35
821.231	2069.77
821.413	2099.22
821.595	2039.74
821.777	2082.36
821.959	2051.56
822.141	2059.89
822.323	1953.33
822.505	1869.05
822.686	1804.34
822.868	1699.13
823.05	1625.7
823.232	1591.02
823.414	1505
823.596	1590.63
823.778	1595.09
823.96	1603.23
824.141	1613.69
824.323	1646.04
824.505	1712.5
824.687	1819.64
824.868	1866.53
825.05	1932.79
825.232	2005.83
825.413	2060.47
825.595	2047.1
825.777	1954.68
825.958	1971.15
826.14	1983.94
826.321	2026.95
826.503	1987.04
826.685	2005.45
826.866	2035.09
827.048	1994.4
827.229	1988.01
827.411	1928.14
827.592	1899.27
827.773	1888.03
827.955	1791.55
828.136	1816.35
828.318	1756.29
828.499	1829.72
828.68	1736.14
828.862	1807.63
829.043	1830.3
829.224	1775.27
829.406	1741.95
829.587	1759.97
829.768	1771.98
829.949	1804.34
830.131	1759.19
830.312	1843.86
830.493	1791.74
830.674	1852.77
830.855	1814.22
831.036	1808.02
831.218	1847.54
831.399	1849.48
831.58	1820.61
831.761	1824.68
831.942	1830.69
832.123	1796.39
832.304	1754.93
832.485	1755.12
832.666	1783.99
832.847	1842.7
833.028	1803.17
833.209	1782.05
833.389	1808.6
833.57	1754.74
833.751	1767.14
833.932	1811.89
834.113	1759.58
834.294	1742.72
834.475	1817.9
834.655	1873.31
834.836	1831.07
835.017	1884.35
835.198	1821
835.378	1833.59
835.559	1880.28
835.74	1839.02
835.92	1812.47
836.101	1852.38
836.281	1837.85
836.462	1890.94
836.643	1906.83
836.823	1926.78
837.004	1882.8
837.184	1949.06
837.365	1913.42
837.545	1932.79
837.726	1876.02
837.906	1965.53
838.087	1917.48
838.267	1874.28
838.448	1869.43
838.628	1897.72
838.808	1901.4
838.989	1932.6
839.169	1831.65
839.349	1888.03
839.53	1900.05
839.71	1969.02
839.89	1878.73
840.07	1944.03
840.251	1886.68
840.431	1936.86
840.611	1884.16
840.791	1900.82
840.971	1928.14
841.151	1906.44
841.332	1843.86
841.512	1911.09
841.692	1893.46
841.872	1898.11
842.052	1883.38
842.232	1941.12
842.412	1839.02
842.592	1888.23
842.772	1873.12
842.952	1909.93
843.132	1858.58
843.312	1840.76
843.492	1838.24
843.672	1888.42
843.851	1790.58
844.031	1855.87
844.211	1825.26
844.391	1799.49
844.571	1841.54
844.751	1845.02
844.93	1881.06
845.11	1810.15
845.29	1841.34
845.47	1862.27
845.649	1810.92
845.829	1871.95
846.009	1852.77
846.188	1847.15
846.368	1846.96
846.547	1807.05
846.727	1888.81
846.907	1795.23
847.086	1817.12
847.266	1834.95
847.445	1826.62
847.625	1797.55
847.804	1788.84
847.984	1806.27
848.163	1787.87
848.343	1767.33
848.522	1826.23
848.701	1790.19
848.881	1771.01
849.06	1813.44
849.239	1771.79
849.419	1770.62
849.598	1696.81
849.777	1684.79
849.957	1681.5
850.136	1657.86
850.315	1615.63
850.494	1637.13
850.674	1641.98
850.853	1709.79
851.032	1641.78
851.211	1691.77
851.39	1691.77
851.569	1613.3
851.748	1629.77
851.927	1694.29
852.107	1667.36
852.286	1657.86
852.465	1645.46
852.644	1670.07
852.823	1691.19
853.002	1656.12
853.181	1674.53
853.359	1634.81
853.538	1607.29
853.717	1632.68
853.896	1547.23
854.075	1484.27
854.254	1465.28
854.433	1405.6
854.611	1455.78
854.79	1418.58
854.969	1459.66
855.148	1471.48
855.327	1423.43
855.505	1478.07
855.684	1463.15
855.863	1515.26
856.041	1486.98
856.22	1541.23
856.399	1514.68
856.577	1597.99
856.756	1562.35
856.934	1705.14
857.113	1681.11
857.291	1576.1
857.47	1568.55
857.648	1572.81
857.827	1607.68
858.005	1646.63
858.184	1536.38
858.362	1662.51
858.541	1598.19
858.719	1585.4
858.898	1589.66
859.076	1564.09
859.254	1625.31
859.433	1582.69
859.611	1570.29
859.789	1517.78
859.967	1572.81
860.146	1593.15
860.324	1487.37
860.502	1542.78
860.68	1498.22
860.859	1497.05
861.037	1497.05
861.215	1546.26
861.393	1497.05
861.571	1512.55
861.749	1499.38
861.927	1501.7
862.105	1533.28
862.283	1516.43
862.461	1452.68
862.639	1465.67
862.817	1497.63
862.995	1508.1
863.173	1479.03
863.351	1506.16
863.529	1491.05
863.707	1535.03
863.885	1510.61
864.063	1389.14
864.241	1428.47
864.418	1540.84
864.596	1460.05
864.774	1448.42
864.952	1483.68
865.129	1478.26
865.307	1377.9
865.485	1372.47
865.663	1423.23
865.84	1350
866.018	1361.82
866.196	1262.04
866.373	1294.39
866.551	1241.69
866.728	1209.92
866.906	1275.21
867.084	1302.53
867.261	1334.89
867.439	1315.9
867.616	1351.74
867.794	1338.95
867.971	1340.7
868.149	1319.77
868.326	1412.77
868.503	1368.99
868.681	1344.77
868.858	1320.36
869.035	1348.06
869.213	1352.71
869.39	1322.49
869.567	1436.02
869.745	1331.79
869.922	1357.94
870.099	1368.6
870.276	1378.48
870.454	1363.95
870.631	1398.24
870.808	1323.07
870.985	1378.29
871.162	1399.4
871.339	1352.32
871.517	1298.85
871.694	1309.89
871.871	1312.8
872.048	1304.08
872.225	1347.09
872.402	1315.51
872.579	1265.33
872.756	1317.64
872.933	1281.8
873.11	1288.97
873.287	1305.63
873.463	1282.19
873.64	1261.26
873.817	1308.73
873.994	1286.45
874.171	1237.04
874.348	1294.01
874.524	1254.48
874.701	1261.26
874.878	1205.46
875.055	1277.15
875.231	1244.02
875.408	1269.79
875.585	1193.84
875.762	1227.94
875.938	1195.19
876.115	1207.79
876.291	1206.63
876.468	1212.83
876.645	1198.88
876.821	1209.34
876.998	1204.69
877.174	1239.17
877.351	1220.96
877.527	1173.49
877.704	1211.66
877.88	1196.55
878.057	1188.99
878.233	1244.6
878.409	1192.48
878.586	1212.63
878.762	1198.68
878.938	1211.86
879.115	1139.4
879.291	1203.91
879.467	1112.85
879.644	1133.58
879.82	1147.53
879.996	1155.86
880.172	1142.69
880.349	1140.95
880.525	1163.23
880.701	1121.38
880.877	1119.44
881.053	1127.58
881.229	1158.96
881.405	1183.18
881.581	1114.01
881.757	1145.01
881.933	1122.54
882.109	1163.61
882.285	1128.93
882.461	1084.18
882.637	1143.27
882.813	1110.91
882.989	1115.95
883.165	1179.69
883.341	1090.18
883.517	1172.53
883.693	1143.27
883.869	1169.43
884.044	1085.53
884.22	1127.58
884.396	1184.15
884.572	1154.7
884.747	1164.58
884.923	1150.44
885.099	1166.71
885.275	1163.42
885.45	1107.81
885.626	1124.86
885.801	1094.06
885.977	1090.38
886.153	1039.42
886.328	1136.1
886.504	1119.63
886.679	1105.3
886.855	1085.73
887.03	1127.19
887.206	1142.11
887.381	1114.4
887.557	1146.95
887.732	1122.35
887.908	1100.65
888.083	1123.12
888.258	1115.56
888.434	1095.22
888.609	1088.63
888.784	1190.35
888.96	1104.71
889.135	1118.66
889.31	1055.89
889.485	1117.89
889.661	1111.3
889.836	1141.53
890.011	1111.11
890.186	1107.23
890.361	1097.93
890.537	1104.71
890.712	1082.24
890.887	1115.37
891.062	1130.29
891.237	1158.96
891.412	1069.45
891.587	1129.13
891.762	1144.05
891.937	1140.17
892.112	1100.26
892.287	1108.59
892.462	1021.4
892.637	1030.7
892.812	1009.58
892.987	1013.46
893.161	1001.64
893.336	1011.33
893.511	998.54
893.686	1017.92
893.861	993.7
894.035	987.11
894.21	1000.67
894.385	971.61
894.56	969.67
894.734	900.89
894.909	919.49
895.084	913.68
895.258	874.35
895.433	917.17
895.608	854.97
895.782	823.97
895.957	834.44
896.131	836.37
896.306	775.93
896.48	798.4
896.655	767.4
896.829	728.65
897.004	697.46
897.178	763.91
897.353	728.65
897.527	763.33
897.701	749.19
897.876	710.83
898.05	756.55
898.224	724.19
898.399	767.21
898.573	715.86
898.747	639.91
898.921	645.34
899.096	557.38
899.27	568.03
899.444	584.89
899.618	607.17
899.792	667.43
899.967	649.02
900.141	678.86
900.315	624.22
900.489	621.9
900.663	625.77
900.837	613.95
901.011	571.13
901.185	662.2
901.359	640.5
901.533	629.65
901.707	636.23
901.881	636.81
902.055	598.84
902.229	591.48
902.403	663.36
902.576	617.05
902.75	636.04
902.924	738.53
903.098	693.78
903.272	728.07
903.446	793.75
903.619	742.21
903.793	773.6
903.967	795.49
904.14	845.67
904.314	821.46
904.488	793.17
904.661	838.31
904.835	800.92
905.009	835.79
905.182	863.11
905.356	823.01
905.529	833.08
905.703	771.66
905.876	782.13
906.05	737.18
906.223	725.94
906.397	671.88
906.57	644.76
906.744	627.71
906.917	613.37
907.09	655.03
907.264	625.97
907.437	590.9
907.61	556.6
907.784	577.14
907.957	578.88
908.13	554.67
908.304	603.68
908.477	538.97
908.65	567.26
908.823	537.04
908.996	566.48
909.17	539.36
909.343	548.66
909.516	540.13
909.689	542.27
909.862	524.44
910.035	547.11
910.208	543.43
910.381	527.54
910.554	619.38
910.727	549.43
910.9	512.04
911.073	535.29
911.246	589.73
911.419	597.87
911.592	577.33
911.765	555.25
911.938	545.95
912.11	539.55
912.283	538.97
912.456	574.43
912.629	537.04
912.802	499.84
912.974	478.14
913.147	436.67
913.32	404.51
913.493	408.97
913.665	486.08
913.838	473.49
914.01	448.69
914.183	486.27
914.356	468.64
914.528	526.38
914.701	532.39
914.873	522.31
915.046	454.11
915.218	445.78
915.391	386.88
915.563	371.19
915.736	440.55
915.908	488.4
916.081	471.55
916.253	445.78
916.425	487.24
916.598	490.92
916.77	472.52
916.942	399.86
917.115	382.04
917.287	472.9
917.459	422.92
917.632	372.35
917.804	375.26
917.976	415.56
918.148	456.24
918.32	438.42
918.493	466.12
918.665	529.87
918.837	486.85
919.009	532.58
919.181	527.15
919.353	526.19
919.525	506.62
919.697	507.97
919.869	486.27
920.041	559.32
920.213	605.23
920.385	549.43
920.557	539.36
920.729	537.62
920.901	533.94
921.073	516.5
921.244	519.79
921.416	522.31
921.588	526.19
921.76	477.75
921.932	568.23
922.103	470
922.275	512.82
922.447	543.62
922.619	444.81
922.79	491.89
922.962	474.26
923.134	503.9
923.305	440.55
923.477	450.82
923.648	410.71
923.82	445.59
923.991	416.14
924.163	403.74
924.335	433.77
924.506	395.41
924.677	485.5
924.849	405.67
925.02	428.92
925.192	472.32
925.363	447.52
925.535	453.53
925.706	396.96
925.877	452.17
926.049	415.94
926.22	424.47
926.391	460.31
926.562	469.22
926.734	418.85
926.905	479.49
927.076	366.73
927.247	427.57
927.419	360.92
927.59	346
927.761	329.92
927.932	347.16
928.103	337.67
928.274	274.51
928.445	299.11
928.616	298.14
928.787	283.42
928.958	323.91
929.129	318.88
929.3	291.94
929.471	224.13
929.642	199.53
929.813	181.32
929.984	267.73
930.155	155.74
930.326	231.5
930.496	197.01
930.667	123
930.838	189.65
931.009	128.03
931.18	148.38
931.35	130.36
931.521	127.07
931.692	127.65
931.863	78.44
932.033	120.09
932.204	136.75
932.374	120.87
932.545	49.95
932.716	137.92
932.886	109.43
933.057	49.57
933.227	71.85
933.398	131.33
933.568	16.44
933.739	29.22
933.909	34.84
934.08	107.11
934.25	7.14
934.421	23.02
934.591	80.95
934.761	38.72
934.932	17.21
935.102	56.93
935.272	43.56
935.443	48.6
935.613	21.28
935.783	47.24
935.953	25.35
936.123	160.97
936.294	18.57
936.464	34.45
936.634	44.34
936.804	10.43
936.974	12.95
937.144	46.27
937.314	33.87
937.484	17.4
937.655	13.14
937.825	81.73
937.995	8.49
938.165	82.31
938.334	39.3
938.504	62.55
938.674	38.33
938.844	76.69
939.014	101.69
939.184	104.59
939.354	171.24
939.524	140.43
939.694	83.67
939.863	92.39
940.033	150.32
940.203	137.72
940.373	124.35
940.542	88.7
940.712	104.78
940.882	105.37
941.051	113.31
941.221	103.62
941.391	124.93
941.56	80.76
941.73	81.73
941.899	191.2
942.069	95.87
942.238	114.86
942.408	66.04
942.577	117.57
942.747	82.5
942.916	14.31
943.086	65.84
943.255	122.42
943.425	115.83
943.594	72.24
943.763	15.66
943.933	29.61
944.102	2.1
944.271	72.04
944.441	79.02
944.61	65.07
944.779	65.65
944.948	158.45
945.117	33.1
945.287	56.93
945.456	25.35
945.625	26.32
945.794	84.44
945.963	48.99
946.132	65.07
946.301	57.7
946.47	96.65
946.639	25.74
946.808	51.7
946.977	86.77
947.146	116.99
947.315	63.71
947.484	86.96
947.653	55.19
947.822	67.78
947.991	40.85
948.16	98.97
948.329	114.08
948.498	70.69
948.666	90.64
948.835	87.35
949.004	32.71
949.173	33.1
949.341	65.26
949.51	78.24
949.679	92.19
949.847	88.32
950.016	128.62
950.185	108.47
950.353	78.05
950.522	59.84
950.69	101.3
950.859	46.66
951.028	91.03
951.196	94.71
951.365	73.4
951.533	78.82
951.701	90.25
951.87	99.94
952.038	36.59
952.207	54.99
952.375	162.52
952.543	54.99
952.712	67.39
952.88	42.01
953.048	94.52
953.217	100.91
953.385	52.47
953.553	108.66
953.721	43.75
953.89	89.48
954.058	29.61
954.226	55.57
954.394	77.66
954.562	38.33
954.73	54.8
954.898	80.18
955.067	105.37
955.235	37.75
955.403	105.95
955.571	132.3
955.739	82.89
955.907	51.89
956.075	76.5
956.243	55.96
956.41	89.87
956.578	11.21
956.746	35.62
956.914	59.45
957.082	98.78
957.25	102.85
957.418	61.77
957.585	87.35
957.753	97.23
957.921	59.84
958.089	80.37
958.256	92.77
958.424	66.62
958.592	64.1
958.759	63.13
958.927	94.52
959.095	49.37
959.262	74.17
959.43	91.22
959.597	40.85
959.765	64.68
959.932	64.49
960.1	116.22
960.267	97.04
960.435	62.55
960.602	100.52
960.77	66.23
960.937	40.46
961.104	78.63
961.272	52.09
961.439	55.96
961.606	65.45
961.774	92.97
961.941	57.9
962.108	107.88
962.275	93.74
962.443	110.6
962.61	89.87
962.777	134.43
962.944	122.22
963.111	68.36
963.278	129
963.446	79.99
963.613	57.32
963.78	103.23
963.947	127.26
964.114	90.64
964.281	161.75
964.448	121.06
964.615	80.95
964.782	86.96
964.949	140.05
965.116	111.57
965.282	117.77
965.449	85.02
965.616	64.29
965.783	93.55
965.95	96.84
966.117	71.65
966.283	94.71
966.45	107.3
966.617	105.75
966.784	160.2
966.95	116.99
967.117	136.75
967.284	96.26
967.45	90.84
967.617	147.22
967.784	132.1
967.95	166.98
968.117	124.74
968.283	144.12
968.45	196.81
968.616	132.88
968.783	150.7
968.949	120.28
969.116	161.17
969.282	116.22
969.449	141.98
969.615	123.77
969.781	87.93
969.948	92.19
970.114	89.09
970.28	162.33
970.447	127.07
970.613	169.69
970.779	113.12
970.945	134.04
971.112	139.66
971.278	110.4
971.444	116.8
971.61	156.32
971.776	98.78
971.942	149.15
972.108	137.92
972.275	116.99
972.441	128.23
972.607	181.51
972.773	97.23
972.939	151.87
973.105	125.9
973.271	100.52
973.437	119.32
973.602	97.42
973.768	137.33
973.934	97.23
974.1	99.17
974.266	55.77
974.432	102.27
974.598	95.29
974.763	118.35
974.929	107.3
975.095	152.06
975.261	75.14
975.426	78.63
975.592	117.57
975.758	123.38
975.923	39.49
976.089	68.55
976.255	120.28
976.42	108.08
976.586	120.09
976.751	104.01
976.917	196.23
977.082	116.99
977.248	71.07
977.413	63.13
977.579	86.38
977.744	110.6
977.91	64.87
978.075	80.57
978.24	137.14
978.406	106.72
978.571	96.45
978.736	69.91
978.902	121.45
979.067	89.09
979.232	23.6
979.397	102.07
979.563	147.22
979.728	94.32
979.893	97.23
980.058	86.38
980.223	128.62
980.388	135.98
980.554	102.85
980.719	78.24
980.884	135.59
981.049	160.97
981.214	96.84
981.379	111.95
981.544	98.97
981.709	94.9
981.874	100.91
982.039	111.57
982.204	134.43
982.368	100.52
982.533	73.59
982.698	133.65
982.863	126.87
983.028	92.19
983.193	92.97
983.357	104.4
983.522	112.92
983.687	91.03
983.852	97.42
984.016	110.79
984.181	119.9
984.346	115.05
984.51	123.58
984.675	111.18
984.839	123.58
985.004	122.8
985.168	139.08
985.333	112.73
985.498	105.17
985.662	116.8
985.827	140.63
985.991	94.9
986.155	75.14
986.32	116.22
986.484	148.77
986.649	144.89
986.813	58.87
986.977	119.7
987.142	112.53
987.306	87.15
987.47	74.75
987.634	102.85
987.799	114.86
987.963	118.35
988.127	125.52
988.291	142.37
988.455	93.35
988.62	77.47
988.784	110.02
988.948	125.13
989.112	71.85
989.276	126.87
989.44	99.17
989.604	88.9
989.768	97.04
989.932	172.4
990.096	73.2
990.26	80.18
990.424	51.5
990.588	73.98
990.752	167.95
990.915	103.04
991.079	92.97
991.243	99.55
991.407	136.95
991.571	97.42
991.734	110.6
991.898	87.15
992.062	150.51
992.226	93.35
992.389	64.49
992.553	55.38
992.717	64.1
992.88	88.9
993.044	95.68
993.207	81.73
993.371	115.83
993.535	80.18
993.698	86.96
993.862	140.43
994.025	103.43
994.189	108.85
994.352	93.94
994.515	107.69
994.679	99.55
994.842	83.09
995.006	124.16
995.169	86.19
995.332	73.79
995.496	126.1
995.659	48.4
995.822	87.35
995.985	110.98
996.149	152.45
996.312	101.69
996.475	145.67
996.638	77.08
996.801	126.1
996.964	145.86
997.128	72.82
997.291	66.81
997.454	98.59
997.617	27.09
997.78	106.33
997.943	65.07
998.106	125.52
998.269	66.62
998.432	53.83
998.595	88.12
998.758	26.12
998.92	56.54
999.083	37.17
999.246	66.42
999.409	49.95
999.572	40.65
999.735	52.47
999.897	79.4
1000.06	54.02
1000.223	64.49
1000.386	116.6
1000.548	85.02
1000.711	77.85
1000.874	110.02
1001.036	17.02
1001.199	122.8
1001.361	36
1001.524	80.37
1001.687	92.97
1001.849	16.82
1002.012	56.93
1002.174	61.39
1002.337	75.34
1002.499	63.52
1002.661	101.69
1002.824	57.7
1002.986	49.57
1003.149	41.04
1003.311	28.64
1003.473	96.07
1003.636	65.65
1003.798	64.29
1003.96	89.09
1004.123	64.29
1004.285	49.37
1004.447	65.07
1004.609	86.19
1004.771	126.29
1004.933	16.63
1005.096	40.07
1005.258	8.11
1005.42	37.36
1005.582	116.8
1005.744	69.14
1005.906	26.32
1006.068	54.22
1006.23	11.59
1006.392	0.55
1006.554	42.59
1006.716	111.37
1006.878	78.63
1007.04	18.18
1007.202	61.77
1007.363	60.42
1007.525	67
1007.687	73.4
1007.849	103.23
1008.011	20.89
1008.172	27.29
1008.334	29.22
1008.496	83.28
1008.658	5.78
1008.819	22.83
1008.981	14.89
1009.143	42.59
1009.304	38.14
1009.466	83.09
1009.627	85.02
1009.789	119.9
1009.95	71.46
1010.112	18.18
1010.273	63.71
1010.435	46.66
1010.596	17.4
1010.758	49.57
1010.919	52.67
1011.081	18.18
1011.242	60.8
1011.403	59.84
1011.565	50.73
1011.726	82.89
1011.887	31.74
1012.049	42.2
1012.21	73.79
1012.371	97.81
1012.532	-19.6
1012.693	59.25
1012.855	25.74
1013.016	56.15
1013.177	56.35
1013.338	42.98
1013.499	103.04
1013.66	71.46
1013.821	72.04
1013.982	58.87
1014.143	57.32
1014.304	7.52
1014.465	66.04
1014.626	79.02
1014.787	25.54
1014.948	111.37
1015.109	-22.89
1015.27	78.63
1015.431	42.01
1015.592	29.03
1015.752	83.47
1015.913	38.14
1016.074	42.01
1016.235	36.97
1016.395	22.44
1016.556	37.36
1016.717	38.14
1016.877	76.89
1017.038	28.64
1017.199	51.12
1017.359	22.83
1017.52	46.85
1017.681	15.27
1017.841	29.61
1018.002	62.16
1018.162	34.84
1018.323	102.46
1018.483	20.12
1018.644	23.6
1018.804	10.04
1018.964	-1.97
1019.125	14.69
1019.285	47.82
1019.446	3.07
1019.606	7.91
1019.766	-31.03
1019.926	46.66
1020.087	32.52
1020.247	1.91
1020.407	56.74
1020.567	77.66
1020.728	26.12
1020.888	12.17
1021.048	-0.03
1021.208	19.54
1021.368	-6.43
1021.528	59.45
1021.688	83.47
1021.848	58.87
1022.008	19.92
1022.168	29.8
1022.328	31.55
1022.488	42.98
1022.648	18.95
1022.808	15.27
1022.968	37.94
1023.128	-6.43
1023.288	7.52
1023.448	8.69
1023.608	58.67
1023.767	58.48
1023.927	37.17
1024.087	14.11
1024.247	23.02
1024.406	11.59
1024.566	0.55
1024.726	1.91
1024.885	13.14
1025.045	50.54
1025.205	38.33
1025.364	15.27
1025.524	44.14
1025.683	30.39
1025.843	37.36
1026.003	19.15
1026.162	80.18
1026.321	35.62
1026.481	39.1
1026.64	6.75
1026.8	23.22
1026.959	22.25
1027.119	30.58
1027.278	14.11
1027.437	9.46
1027.597	22.83
1027.756	36.2
1027.915	77.85
1028.074	46.85
1028.234	2.49
1028.393	28.25
1028.552	3.46
1028.711	-55.44
1028.87	51.7
1029.03	-23.48
1029.189	30.39
1029.348	-36.46
1029.507	-1
1029.666	47.05
1029.825	-15.73
1029.984	10.62
1030.143	42.01
1030.302	27.09
1030.461	-35.1
1030.62	7.14
1030.779	31.94
1030.938	-9.33
1031.097	-21.34
1031.255	42.59
1031.414	74.17
1031.573	33.29
1031.732	-32.58
1031.891	7.33
1032.049	54.99
1032.208	26.51
1032.367	26.51
1032.525	-6.43
1032.684	35.04
1032.843	26.51
1033.001	-7.39
1033.16	161.17
1033.319	59.45
1033.477	34.07
1033.636	7.72
1033.794	-39.75
1033.953	34.07
1034.111	11.98
1034.27	27.67
1034.428	33.49
1034.587	-30.06
1034.745	28.06
1034.903	33.87
1035.062	53.83
1035.22	-18.63
1035.378	17.6
1035.537	-4.29
1035.695	44.34
1035.853	6.75
1036.011	26.12
1036.17	38.72
1036.328	-49.24
1036.486	24.96
1036.644	-9.53
1036.802	-34.13
1036.96	18.18
1037.119	-5.84
1037.277	7.72
1037.435	-22.51
1037.593	-20.96
1037.751	26.7
1037.909	54.8
1038.067	54.8
