Data from gum_young_FLMT105791__30__17-38-29-045.txt Node

Date: Mon Mar 20 17:38:29 GMT 2023
User: antho
Spectrometer: FLMT10579
Trigger mode: 0
Integration Time (sec): 1.000000E-1
Scans to average: 10
Electric dark correction enabled: true
Nonlinearity correction enabled: false
Boxcar width: 0
XAxis mode: Wavelengths
Number of Pixels in Spectrum: 3648
>>>>>Begin Spectral Data<<<<<
345.248	-148.36
345.464	-148.36
345.681	-148.36
345.898	-146.62
346.114	-135.57
346.331	-19.13
346.548	29.69
346.764	-12.35
346.981	-9.06
347.197	-8.67
347.414	8.57
347.631	-19.33
347.847	55.65
348.064	1.02
348.28	41.12
348.497	-55.56
348.713	-11.96
348.93	42.09
349.146	34.34
349.363	-2.28
349.579	19.04
349.796	11.29
350.012	-18.55
350.229	28.72
350.445	3.34
350.661	3.73
350.878	18.84
351.094	1.21
351.311	19.23
351.527	4.12
351.743	-10.61
351.96	47.13
352.176	11.48
352.392	50.42
352.609	37.83
352.825	-2.66
353.041	2.18
353.257	16.52
353.474	8.19
353.69	8.57
353.906	2.18
354.122	-0.92
354.339	49.26
354.555	7.41
354.771	2.18
354.987	61.85
355.203	76
355.42	-7.31
355.636	-12.35
355.852	-11.58
356.068	27.37
356.284	-37.73
356.5	55.85
356.716	20.39
356.932	11.87
357.148	49.65
357.364	-1.7
357.58	57.79
357.796	44.61
358.012	72.7
358.228	39.77
358.444	-33.28
358.66	58.37
358.876	37.64
359.092	-12.55
359.308	11.67
359.524	20.78
359.74	8.96
359.956	-3.63
360.172	13.22
360.388	40.74
360.604	-5.96
360.819	86.07
361.035	2.37
361.251	61.47
361.467	10.7
361.683	28.92
361.898	26.2
362.114	17.68
362.33	24.85
362.546	33.57
362.762	11.87
362.977	14.77
363.193	-5.57
363.409	27.37
363.624	-30.56
363.84	-5.38
364.056	5.09
364.271	22.91
364.487	42.29
364.703	25.62
364.918	-36.38
365.134	21.17
365.35	-6.35
365.565	107.58
365.781	23.49
365.996	21.94
366.212	74.45
366.427	39.19
366.643	0.24
366.858	20
367.074	-20.88
367.289	63.79
367.505	88.2
367.72	-21.07
367.936	12.25
368.151	52.55
368.367	35.5
368.582	33.76
368.798	7.02
369.013	49.84
369.228	-3.63
369.444	26.59
369.659	58.75
369.874	22.91
370.09	69.41
370.305	-39.48
370.52	6.05
370.736	59.53
370.951	-7.31
371.166	65.15
371.381	70.38
371.597	43.45
371.812	-7.51
372.027	-9.06
372.242	23.88
372.458	74.83
372.673	53.33
372.888	28.53
373.103	38.99
373.318	78.71
373.533	47.32
373.749	26.98
373.964	2.76
374.179	55.85
374.394	11.87
374.609	55.07
374.824	-0.34
375.039	68.63
375.254	17.1
375.469	77.16
375.684	26.98
375.899	51.59
376.114	25.82
376.329	20.78
376.544	43.45
376.759	59.14
376.974	5.47
377.189	4.31
377.404	26.98
377.619	54.1
377.834	-25.14
378.049	-41.03
378.264	-18.55
378.478	32.79
378.693	-0.92
378.908	33.95
379.123	16.13
379.338	57.98
379.553	52.55
379.767	24.85
379.982	49.45
380.197	42.87
380.412	15.16
380.626	38.22
380.841	74.45
381.056	38.99
381.271	88.98
381.485	3.34
381.7	0.82
381.915	13.8
382.129	13.8
382.344	44.22
382.559	22.33
382.773	78.71
382.988	-33.28
383.202	56.24
383.417	-8.48
383.632	108.16
383.846	46.74
384.061	26.98
384.275	29.69
384.49	31.82
384.704	27.37
384.919	32.4
385.133	15.35
385.348	51
385.562	-24.75
385.777	52.75
385.991	31.24
386.206	20.97
386.42	7.41
386.634	44.8
386.849	28.14
387.063	34.34
387.277	-6.35
387.492	4.31
387.706	5.67
387.92	-8.48
388.135	66.5
388.349	20.78
388.563	39.96
388.778	27.56
388.992	28.34
389.206	65.15
389.42	107.19
389.635	30.47
389.849	67.08
390.063	70.38
390.277	20.97
390.491	93.43
390.706	36.28
390.92	61.08
391.134	50.23
391.348	66.5
391.562	-8.48
391.776	27.56
391.99	-0.15
392.205	61.27
392.419	27.75
392.633	42.29
392.847	94.98
393.061	10.32
393.275	77.74
393.489	29.11
393.703	32.21
393.917	80.84
394.131	12.45
394.345	16.71
394.559	41.7
394.773	19.23
394.986	72.12
395.2	39.77
395.414	69.99
395.628	18.65
395.842	38.8
396.056	5.28
396.27	-5.76
396.484	48.1
396.697	40.15
396.911	85.1
397.125	23.3
397.339	70.57
397.553	35.5
397.766	97.89
397.98	80.26
398.194	82.39
398.408	38.41
398.621	64.18
398.835	69.6
399.049	64.95
399.262	74.64
399.476	91.11
399.69	94.4
399.903	131.99
400.117	59.14
400.331	85.88
400.544	45.39
400.758	138.97
400.971	49.45
401.185	87.82
401.398	51.78
401.612	120.95
401.826	68.83
402.039	89.95
402.253	40.54
402.466	84.91
402.68	42.09
402.893	79.68
403.106	56.24
403.32	55.07
403.533	52.17
403.747	61.66
403.96	80.45
404.174	79.1
404.387	53.72
404.6	59.14
404.814	102.35
405.027	76.19
405.24	62.82
405.454	76.97
405.667	112.23
405.88	18.65
406.094	73.09
406.307	125.21
406.52	85.88
406.733	57.79
406.947	11.29
407.16	129.47
407.373	126.76
407.586	62.63
407.799	46.74
408.012	76
408.226	99.05
408.439	121.92
408.652	40.35
408.865	89.17
409.078	118.62
409.291	121.92
409.504	58.37
409.717	92.85
409.93	75.61
410.143	94.21
410.357	51
410.57	25.82
410.783	61.47
410.996	87.23
411.209	89.17
411.421	105.06
411.634	98.28
411.847	60.5
412.06	83.55
412.273	73.28
412.486	69.41
412.699	146.72
412.912	113
413.125	109.13
413.338	95.95
413.55	106.22
413.763	100.02
413.976	77.55
414.189	79.1
414.402	111.65
414.615	143.81
414.827	56.24
415.04	128.12
415.253	131.02
415.466	131.41
415.678	156.6
415.891	116.68
416.104	112.81
416.316	122.88
416.529	88.98
416.742	141.48
416.954	143.42
417.167	104.87
417.38	90.14
417.592	130.63
417.805	74.06
418.017	47.9
418.23	123.66
418.442	87.23
418.655	115.52
418.868	79.68
419.08	128.12
419.293	147.1
419.505	99.05
419.718	127.53
419.93	144.39
420.142	87.43
420.355	139.93
420.567	150.59
420.78	136.25
420.992	111.45
421.205	166.28
421.417	71.54
421.629	91.69
421.842	69.22
422.054	71.35
422.266	148.27
422.479	148.46
422.691	83.94
422.903	133.93
423.115	52.17
423.328	107.77
423.54	135.28
423.752	124.05
423.964	93.43
424.177	119.98
424.389	136.45
424.601	236.61
424.813	122.69
425.025	168.8
425.238	139.74
425.45	133.93
425.662	105.83
425.874	397.62
426.086	107.97
426.298	136.64
426.51	134.51
426.722	128.7
426.934	82
427.146	140.71
427.358	96.53
427.57	138.58
427.782	139.16
427.994	139.93
428.206	89.17
428.418	73.28
428.63	149.04
428.842	172.48
429.054	113
429.266	148.07
429.478	111.07
429.69	112.42
429.902	104.09
430.114	182.36
430.325	136.83
430.537	114.36
430.749	125.4
430.961	57.79
431.173	99.44
431.384	146.91
431.596	90.14
431.808	123.47
432.02	115.72
432.231	160.28
432.443	166.86
432.655	160.28
432.867	112.03
433.078	165.7
433.29	224.02
433.502	169.19
433.713	174.03
433.925	158.92
434.136	194.18
434.348	114.36
434.56	89.56
434.771	235.84
434.983	101.38
435.194	134.51
435.406	143.23
435.617	169.96
435.829	191.08
436.04	185.27
436.252	189.15
436.463	219.18
436.675	196.51
436.886	181.2
437.098	181.98
437.309	204.45
437.521	151.17
437.732	193.99
437.943	152.72
438.155	190.7
438.366	136.45
438.578	202.9
438.789	167.45
439	168.41
439.211	181.2
439.423	174.03
439.634	179.85
439.845	177.71
440.057	150.59
440.268	209.1
440.479	162.99
440.69	189.53
440.902	160.08
441.113	172.1
441.324	174.23
441.535	189.92
441.746	227.31
441.957	155.82
442.168	187.98
442.38	191.28
442.591	222.08
442.802	186.63
443.013	167.83
443.224	234.1
443.435	185.85
443.646	182.95
443.857	183.91
444.068	182.75
444.279	181.4
444.49	259.48
444.701	184.5
444.912	301.91
445.123	207.94
445.334	234.48
445.545	217.43
445.756	221.7
445.967	189.53
446.178	237.39
446.388	234.87
446.599	230.61
446.81	228.48
447.021	215.69
447.232	269.55
447.443	261.99
447.653	217.43
447.864	242.81
448.075	228.48
448.286	255.6
448.496	247.27
448.707	250.95
448.918	231.19
449.129	281.56
449.339	222.47
449.55	244.75
449.761	223.44
449.971	261.03
450.182	222.66
450.393	268.19
450.603	242.81
450.814	300.36
451.024	262.19
451.235	306.36
451.446	301.33
451.656	321.28
451.867	250.37
452.077	264.71
452.288	321.28
452.498	298.23
452.709	268.97
452.919	288.34
453.13	267.42
453.34	278.46
453.55	211.04
453.761	293.38
453.971	303.84
454.182	265.68
454.392	272.65
454.602	337.17
454.813	280.79
455.023	304.23
455.233	255.21
455.444	286.79
455.654	233.71
455.864	268
456.075	273.62
456.285	255.79
456.495	271.29
456.705	291.83
456.916	306.75
457.126	325.54
457.336	299.78
457.546	230.03
457.756	258.12
457.967	324.38
458.177	274.01
458.387	304.81
458.597	263.93
458.807	283.89
459.017	270.52
459.227	278.08
459.437	281.56
459.647	306.94
459.857	305.39
460.068	284.08
460.278	317.99
460.488	326.51
460.698	361.77
460.908	301.33
461.117	266.64
461.327	276.53
461.537	306.17
461.747	294.74
461.957	302.68
462.167	394.71
462.377	352.09
462.587	304.62
462.797	337.94
463.007	336.39
463.216	355.57
463.426	341.43
463.636	345.31
463.846	291.83
464.056	292.8
464.265	352.09
464.475	280.59
464.685	319.73
464.895	344.92
465.104	311.98
465.314	336.78
465.524	288.15
465.733	288.34
465.943	410.21
466.153	376.69
466.362	368.17
466.572	351.12
466.782	320.89
466.991	314.89
467.201	355.96
467.41	291.06
467.62	348.79
467.829	314.31
468.039	337.75
468.249	319.15
468.458	346.08
468.668	367.78
468.877	367.01
469.086	399.75
469.296	389.09
469.505	352.67
469.715	426.1
469.924	366.04
470.134	408.47
470.343	415.64
470.552	370.11
470.762	362.36
470.971	338.14
471.18	343.76
471.39	355.96
471.599	342.59
471.808	393.36
472.018	341.62
472.227	432.49
472.436	435.2
472.645	424.35
472.855	339.88
473.064	420.67
473.273	407.69
473.482	398.39
473.691	444.89
473.901	409.05
474.11	420.29
474.319	477.64
474.528	425.13
474.737	466.79
474.946	414.09
475.155	414.28
475.364	452.06
475.573	430.75
475.783	460.2
475.992	451.09
476.201	471.24
476.41	456.71
476.619	397.81
476.828	430.36
477.037	414.47
477.245	436.75
477.454	507.47
477.663	451.09
477.872	436.17
478.081	522.2
478.29	420.09
478.499	524.72
478.708	485.97
478.917	558.82
479.125	492.17
479.334	517.55
479.543	474.15
479.752	497.01
479.961	498.17
480.169	529.95
480.378	513.09
480.587	607.64
480.796	522.39
481.004	523.75
481.213	504.95
481.422	539.44
481.63	537.7
481.839	569.28
482.048	581.48
482.256	562.3
482.465	559.59
482.674	547
482.882	574.12
483.091	613.45
483.299	557.27
483.508	596.21
483.716	562.88
483.925	589.82
484.134	567.34
484.342	580.13
484.551	607.45
484.759	620.23
484.967	609.19
485.176	598.34
485.384	618.88
485.593	630.89
485.801	630.31
486.01	566.76
486.218	567.15
486.426	503.6
486.635	544.48
486.843	511.93
487.051	571.8
487.26	551.26
487.468	590.98
487.676	606.67
487.885	586.72
488.093	592.72
488.301	617.71
488.509	615.2
488.717	653.75
488.926	634.76
489.134	629.34
489.342	632.05
489.55	612.48
489.758	640.96
489.967	671.58
490.175	743.46
490.383	658.79
490.591	737.84
490.799	647.94
491.007	755.08
491.215	676.61
491.423	682.04
491.631	691.92
491.839	671.19
492.047	722.92
492.255	651.62
492.463	636.31
492.671	660.73
492.879	702.19
493.087	681.65
493.295	707.61
493.503	707.81
493.711	749.08
493.919	767.09
494.127	761.86
494.334	756.63
494.542	699.28
494.75	766.32
494.958	712.84
495.166	798.87
495.374	789.76
495.581	790.15
495.789	814.37
495.997	812.04
496.205	756.24
496.412	786.86
496.62	785.11
496.828	807.01
497.035	793.06
497.243	776.59
497.451	786.66
497.658	825.22
497.866	801.58
498.074	865.32
498.281	764.38
498.489	885.09
498.696	799.06
498.904	779.69
499.112	792.28
499.319	869.2
499.527	810.88
499.734	880.63
499.942	785.11
500.149	819.21
500.357	848.86
500.564	803.71
500.771	855.64
500.979	842.27
501.186	843.62
501.394	829.87
501.601	836.46
501.808	836.84
502.016	823.47
502.223	855.44
502.43	843.24
502.638	839.56
502.845	833.74
503.052	941.27
503.26	893.8
503.467	950.96
503.674	855.25
503.881	955.42
504.089	955.61
504.296	932.94
504.503	856.6
504.71	887.02
504.917	887.99
505.125	928.29
505.332	948.05
505.539	966.27
505.746	1032.53
505.953	1000.17
506.16	994.17
506.367	1031.17
506.574	1059.46
506.781	1068.56
506.988	965.3
507.195	997.07
507.402	997.27
507.609	1023.23
507.816	1010.44
508.023	998.62
508.23	1021.29
508.437	1010.44
508.644	1068.18
508.851	1098.6
509.058	1089.1
509.265	1086.78
509.472	1127.46
509.679	1192.95
509.885	1095.88
510.092	1104.6
510.299	1125.14
510.506	1105.57
510.713	1142.19
510.92	1151.29
511.126	1154.59
511.333	1185.98
511.54	1191.4
511.746	1229.76
511.953	1238.67
512.16	1261.73
512.367	1209.03
512.573	1192.76
512.78	1239.06
512.987	1232.09
513.193	1203.61
513.4	1145.48
513.606	1203.02
513.813	1242.16
514.02	1240.42
514.226	1294.09
514.433	1327.6
514.639	1228.21
514.846	1274.71
515.052	1251.07
515.259	1256.11
515.465	1286.53
515.672	1273.36
515.878	1355.7
516.085	1314.04
516.291	1356.86
516.497	1303.77
516.704	1292.73
516.91	1242.36
517.117	1216.78
517.323	1164.47
517.529	1199.73
517.736	1219.3
517.942	1233.83
518.148	1266.57
518.354	1320.63
518.561	1302.61
518.767	1325.86
518.973	1360.15
519.179	1384.57
519.386	1329.35
519.592	1378.37
519.798	1368.87
520.004	1484.93
520.21	1443.85
520.417	1499.46
520.623	1533.95
520.829	1541.11
521.035	1540.92
521.241	1549.06
521.447	1583.35
521.653	1675.57
521.859	1567.27
522.065	1641.67
522.271	1674.41
522.477	1617.26
522.683	1656.97
522.889	1617.45
523.095	1632.95
523.301	1638.18
523.507	1647.87
523.713	1678.67
523.919	1613.77
524.125	1713.74
524.331	1713.94
524.537	1774
524.742	1751.33
524.948	1788.92
525.154	1771.29
525.36	1891.22
525.566	1780
525.772	1857.5
525.977	1769.54
526.183	1875.91
526.389	1820.3
526.595	1751.52
526.8	1730.4
527.006	1697.86
527.212	1648.84
527.417	1677.71
527.623	1647.67
527.829	1749.2
528.034	1790.66
528.24	1769.93
528.446	1802.87
528.651	1910.2
528.857	1874.94
529.062	1942.56
529.268	1917.56
529.473	1928.61
529.679	1962.13
529.884	2009.79
530.09	1986.54
530.295	1983.25
530.501	1962.51
530.706	1955.35
530.912	1978.01
531.117	1988.67
531.323	1974.72
531.528	2062.1
531.733	2050.48
531.939	2026.06
532.144	2044.08
532.35	2036.91
532.555	2058.42
532.76	1972.01
532.966	2035.17
533.171	2011.53
533.376	2003.59
533.581	1982.08
533.787	2002.04
533.992	2067.33
534.197	2047.57
534.402	2021.8
534.607	2070.04
534.813	2125.84
535.018	2059.39
535.223	2093.29
535.428	2092.91
535.633	2144.44
535.838	2138.82
536.043	2158.2
536.249	2250.62
536.454	2156.07
536.659	2158.39
536.864	2135.34
537.069	2141.73
537.274	2125.65
537.479	2171.95
537.684	2176.8
537.889	2096.01
538.094	2244.61
538.299	2173.89
538.504	2179.32
538.708	2220.2
538.913	2215.55
539.118	2154.71
539.323	2212.84
539.528	2154.71
539.733	2178.35
539.938	2188.42
540.142	2196.37
540.347	2175.83
540.552	2132.43
540.757	2107.82
540.962	2139.41
541.166	2095.23
541.371	2089.81
541.576	2125.26
541.781	2061.91
541.985	2171.95
542.19	2183.19
542.395	2230.08
542.599	2284.72
542.804	2236.67
543.008	2270.18
543.213	2220.59
543.418	2159.17
543.622	2224.65
543.827	2167.11
544.031	2234.15
544.236	2291.5
544.44	2244.22
544.645	2330.44
544.849	2266.12
545.054	2277.74
545.258	2344
545.463	2295.37
545.667	2271.35
545.872	2318.82
546.076	2313
546.281	2298.08
546.485	2282.2
546.689	2294.02
546.894	2345.36
547.098	2340.32
547.302	2274.83
547.507	2300.22
547.711	2322.3
547.915	2341.87
548.119	2253.72
548.324	2258.17
548.528	2326.18
548.732	2304.87
548.936	2373.65
549.141	2331.22
549.345	2313.78
549.549	2321.14
549.753	2313.2
549.957	2377.71
550.161	2394.38
550.366	2315.91
550.57	2363.38
550.774	2336.83
550.978	2343.61
551.182	2380.23
551.386	2306.61
551.59	2339.55
551.794	2343.23
551.998	2369.19
552.202	2329.28
552.406	2324.82
552.61	2350.78
552.814	2343.61
553.018	2390.11
553.222	2345.36
553.426	2317.07
553.63	2413.56
553.833	2307
554.037	2321.92
554.241	2378.49
554.445	2370.55
554.649	2361.63
554.853	2365.9
555.056	2413.17
555.26	2413.36
555.464	2402.13
555.668	2370.35
555.871	2405.81
556.075	2399.41
556.279	2361.05
556.483	2317.27
556.686	2334.32
556.89	2309.52
557.094	2350.98
557.297	2268.25
557.501	2330.05
557.704	2216.32
557.908	2297.89
558.112	2278.9
558.315	2336.83
558.519	2285.1
558.722	2235.89
558.926	2232.6
559.129	2173.5
559.333	2163.82
559.536	2190.36
559.74	2138.24
559.943	2126.23
560.147	2141.34
560.35	2163.82
560.553	2221.36
560.757	2164.4
560.96	2258.37
561.164	2210.12
561.367	2278.32
561.57	2219.42
561.774	2217.68
561.977	2182.61
562.18	2159.94
562.384	2251
562.587	2196.17
562.79	2213.22
562.993	2195.4
563.197	2210.9
563.4	2229.11
563.603	2196.17
563.806	2219.81
564.009	2157.42
564.212	2187.65
564.416	2088.84
564.619	2161.11
564.822	2128.36
565.025	2219.62
565.228	2115.77
565.431	2135.34
565.634	2048.54
565.837	2065.98
566.04	2030.91
566.243	2064.62
566.446	1979.95
566.649	2064.62
566.852	2000.49
567.055	2021.03
567.258	2084.38
567.461	2116.93
567.664	2080.31
567.867	1991.19
568.07	2045.05
568.273	2012.89
568.475	2089.22
568.678	1990.8
568.881	1976.08
569.084	1982.47
569.287	1918.34
569.489	1929.38
569.692	1947.4
569.895	1949.34
570.098	1899.16
570.3	1896.83
570.503	1860.02
570.706	1860.41
570.909	1860.6
571.111	1803.64
571.314	1810.81
571.516	1830.38
571.719	1833.87
571.922	1784.07
572.124	1831.93
572.327	1864.28
572.529	1810.81
572.732	1840.45
572.935	1830.38
573.137	1891.6
573.34	1810.23
573.542	1847.23
573.745	1864.09
573.947	1841.81
574.15	1809.26
574.352	1781.94
574.554	1860.6
574.757	1782.91
574.959	1756.17
575.162	1759.47
575.364	1730.6
575.566	1854.21
575.769	1735.44
575.971	1755.2
576.173	1622.29
576.376	1733.89
576.578	1783.1
576.78	1770.9
576.982	1653.29
577.185	1743.58
577.387	1661.62
577.589	1715.1
577.791	1722.27
577.993	1758.89
578.196	1705.22
578.398	1682.16
578.6	1736.99
578.802	1620.36
579.004	1620.94
579.206	1668.79
579.408	1715.49
579.61	1669.57
579.812	1716.07
580.014	1659.49
580.216	1676.16
580.418	1661.24
580.62	1656.2
580.822	1642.44
581.024	1697.47
581.226	1729.05
581.428	1626.56
581.63	1746.29
581.832	1714.52
582.034	1698.82
582.236	1694.76
582.438	1750.94
582.64	1772.06
582.841	1741.84
583.043	1799.19
583.245	1736.6
583.447	1742.8
583.649	1727.69
583.85	1739.51
584.052	1753.46
584.254	1672.28
584.456	1722.46
584.657	1648.26
584.859	1700.76
585.061	1690.69
585.262	1680.03
585.464	1647.67
585.666	1699.41
585.867	1636.24
586.069	1724.59
586.27	1654.65
586.472	1653.49
586.674	1624.62
586.875	1637.02
587.077	1659.11
587.278	1658.91
587.48	1613.19
587.681	1724.79
587.883	1673.64
588.084	1576.38
588.285	1569.79
588.487	1560.1
588.688	1590.52
588.89	1512.63
589.091	1476.79
589.292	1491.9
589.494	1416.92
589.695	1424.67
589.896	1335.16
590.098	1348.92
590.299	1409.17
590.5	1409.37
590.702	1443.08
590.903	1474.46
591.104	1504.5
591.305	1482.21
591.507	1555.06
591.708	1495
591.909	1462.84
592.11	1544.99
592.311	1543.63
592.512	1483.96
592.714	1424.67
592.915	1450.25
593.116	1458.97
593.317	1507.79
593.518	1493.26
593.719	1474.08
593.92	1516.51
594.121	1523.29
594.322	1504.3
594.523	1507.79
594.724	1442.11
594.925	1457.03
595.126	1456.45
595.327	1470.98
595.528	1454.7
595.729	1486.67
595.929	1478.15
596.13	1454.32
596.331	1533.56
596.532	1527.36
596.733	1553.9
596.934	1536.46
597.135	1520.58
597.335	1481.25
597.536	1492.29
597.737	1508.18
597.938	1498.3
598.138	1482.8
598.339	1468.26
598.54	1520.58
598.74	1473.5
598.941	1494.23
599.142	1550.8
599.342	1510.7
599.543	1473.69
599.744	1497.71
599.944	1495.58
600.145	1501.78
600.345	1485.31
600.546	1556.03
600.746	1508.76
600.947	1588.58
601.147	1485.12
601.348	1521.74
601.548	1450.44
601.749	1493.45
601.949	1444.82
602.15	1457.61
602.35	1471.17
602.551	1501.2
602.751	1435.91
602.951	1481.05
603.152	1394.06
603.352	1489.77
603.552	1481.25
603.753	1470.4
603.953	1522.32
604.153	1457.22
604.354	1454.51
604.554	1493.06
604.754	1487.45
604.954	1471.56
605.155	1506.43
605.355	1470.98
605.555	1525.81
605.755	1520.58
605.955	1503.53
606.155	1507.4
606.356	1485.31
606.556	1466.33
606.756	1509.34
606.956	1433.78
607.156	1509.15
607.356	1420.22
607.556	1493.84
607.756	1448.7
607.956	1499.65
608.156	1481.63
608.356	1390.57
608.556	1490.55
608.756	1469.62
608.956	1395.8
609.156	1444.43
609.356	1381.27
609.556	1369.45
609.755	1445.79
609.955	1387.47
610.155	1418.67
610.355	1429.32
610.555	1391.93
610.755	1387.47
610.954	1349.11
611.154	1407.23
611.354	1452.96
611.554	1366.74
611.753	1407.62
611.953	1367.32
612.153	1399.87
612.352	1384.76
612.552	1305.9
612.752	1318.11
612.951	1359.77
613.151	1334.39
613.351	1331.87
613.55	1333.61
613.75	1370.81
613.949	1326.25
614.149	1348.53
614.348	1332.45
614.548	1316.56
614.747	1261.34
614.947	1325.28
615.146	1262.51
615.346	1357.64
615.545	1347.75
615.745	1311.91
615.944	1334.19
616.144	1289.05
616.343	1334.39
616.542	1267.16
616.742	1261.92
616.941	1296.99
617.14	1223.95
617.34	1276.46
617.539	1283.82
617.738	1227.24
617.938	1324.89
618.137	1271.61
618.336	1216.01
618.535	1260.57
618.734	1248.36
618.934	1270.45
619.133	1278.59
619.332	1297.77
619.531	1266.38
619.73	1279.17
619.929	1302.22
620.128	1277.62
620.328	1331.48
620.527	1274.13
620.726	1253.01
620.925	1278.97
621.124	1264.64
621.323	1269.48
621.522	1186.17
621.721	1216.78
621.92	1233.64
622.119	1250.11
622.318	1236.35
622.517	1221.82
622.715	1224.72
622.914	1160.4
623.113	1232.86
623.312	1170.28
623.511	1239.26
623.71	1192.37
623.909	1183.84
624.107	1258.63
624.306	1176.09
624.505	1175.13
624.704	1155.36
624.902	1149.74
625.101	1201.67
625.3	1199.34
625.499	1172.61
625.697	1165.24
625.896	1133.08
626.095	1171.44
626.293	1105.18
626.492	1149.94
626.69	1192.37
626.889	1146.26
627.088	1164.47
627.286	1112.35
627.485	1114.87
627.683	1102.86
627.882	1122.62
628.08	1047.45
628.279	1085.61
628.477	1164.28
628.676	1065.85
628.874	1114.48
629.073	1097.82
629.271	1065.46
629.469	1116.42
629.668	1076.12
629.866	1087.55
630.065	1053.45
630.263	1093.36
630.461	1047.25
630.66	1122.43
630.858	1123.78
631.056	1115.84
631.254	1113.51
631.453	1085.81
631.651	1144.71
631.849	1096.08
632.047	1090.26
632.245	1074.57
632.444	1128.63
632.642	1134.63
632.84	1116.03
633.038	1088.52
633.236	1069.53
633.434	1092.4
633.632	1095.3
633.83	1086
634.028	1135.6
634.227	1081.35
634.425	1171.83
634.623	1109.83
634.821	1123.98
635.019	1105.76
635.216	1126.88
635.414	1141.03
635.612	1123.98
635.81	1091.81
636.008	1173.77
636.206	1085.23
636.404	1144.32
636.602	1067.01
636.8	1110.41
636.997	1130.76
637.195	1134.44
637.393	1142.77
637.591	1166.99
637.789	1144.51
637.986	1112.93
638.184	1116.81
638.382	1146.26
638.58	1130.56
638.777	1155.56
638.975	1088.91
639.173	1103.83
639.37	1069.92
639.568	1098.4
639.765	1101.5
639.963	1098.01
640.161	1120.29
640.358	1130.76
640.556	1043.76
640.753	1068.37
640.951	1047.06
641.148	1087.94
641.346	1055.78
641.543	1034.08
641.741	1051.71
641.938	1014.9
642.136	1060.81
642.333	1005.79
642.531	1072.25
642.728	1063.33
642.925	1023.81
643.123	994.94
643.32	996.1
643.517	1021.68
643.715	1024
643.912	997.07
644.109	1037.95
644.306	987.38
644.504	993.58
644.701	1011.02
644.898	1019.74
645.095	962
645.293	994.55
645.49	990.29
645.687	974.98
645.884	1011.02
646.081	905.62
646.278	949.8
646.475	948.05
646.672	959.48
646.87	939.92
647.067	949.41
647.264	941.66
647.461	887.41
647.658	887.41
647.855	936.62
648.052	879.85
648.249	810.3
648.446	901.17
648.642	871.91
648.839	863.97
649.036	866.49
649.233	835.49
649.43	840.91
649.627	802.16
649.824	855.05
650.021	857.96
650.217	839.75
650.414	844.01
650.611	859.7
650.808	862.22
651.004	847.31
651.201	874.24
651.398	894.39
651.595	844.98
651.791	842.85
651.988	890.7
652.185	826.38
652.381	866.49
652.578	809.72
652.775	833.16
652.971	811.07
653.168	824.64
653.364	881.6
653.561	816.69
653.757	826.57
653.954	813.21
654.15	817.27
654.347	898.07
654.543	834.91
654.74	774.26
654.936	784.34
655.133	805.46
655.329	807.2
655.525	804.1
655.722	830.26
655.918	738.42
656.115	807.39
656.311	739.39
656.507	686.11
656.704	671.77
656.9	714.39
657.096	701.41
657.292	686.88
657.489	774.65
657.685	727.57
657.881	733.58
658.077	724.47
658.273	761.48
658.47	787.82
658.666	749.08
658.862	803.91
659.058	735.32
659.254	804.87
659.45	763.61
659.646	768.64
659.842	758.18
660.038	831.81
660.234	749.85
660.43	756.83
660.626	817.66
660.822	822.51
661.018	789.18
661.214	763.8
661.41	710.33
661.606	766.71
661.802	770.39
661.998	762.25
662.194	723.11
662.39	747.91
662.586	763.03
662.781	755.86
662.977	770
663.173	754.11
663.369	739
663.564	743.46
663.76	755.47
663.956	729.89
664.152	749.85
664.347	709.74
664.543	725.05
664.739	716.53
664.934	678.94
665.13	667.31
665.326	739.39
665.521	714.39
665.717	695.21
665.912	672.16
666.108	646.2
666.304	670.61
666.499	700.25
666.695	611.71
666.89	675.26
667.086	720.4
667.281	703.93
667.477	723.31
667.672	695.6
667.867	687.08
668.063	678.55
668.258	655.69
668.454	636.31
668.649	733.77
668.844	661.11
669.04	686.88
669.235	638.25
669.43	635.35
669.626	616.75
669.821	641.35
670.016	597.37
670.211	646.39
670.407	629.15
670.602	641.74
670.797	641.74
670.992	661.31
671.187	612.1
671.382	661.31
671.578	616.75
671.773	631.08
671.968	576.06
672.163	649.88
672.358	665.38
672.553	606.28
672.748	586.13
672.943	690.95
673.138	609
673.333	635.93
673.528	607.25
673.723	621.59
673.918	608.22
674.113	571.02
674.308	662.47
674.503	640.19
674.698	665.38
674.892	630.5
675.087	637.67
675.282	624.5
675.477	602.6
675.672	599.89
675.867	594.27
676.061	552.42
676.256	586.52
676.451	577.03
676.646	630.11
676.84	565.6
677.035	587.1
677.23	579.16
677.424	613.65
677.619	644.06
677.814	651.23
678.008	616.55
678.203	556.1
678.397	592.53
678.592	605.7
678.787	670.8
678.981	593.3
679.176	591.75
679.37	608.8
679.565	579.35
679.759	593.88
679.954	619.65
680.148	640.77
680.342	622.75
680.537	624.3
680.731	599.11
680.926	602.21
681.12	646.97
681.314	596.6
681.509	578.97
681.703	626.05
681.897	643.48
682.092	601.25
682.286	590.59
682.48	680.29
682.674	646.39
682.869	586.91
683.063	642.71
683.257	698.51
683.451	613.26
683.645	638.83
683.839	641.93
684.034	613.84
684.228	661.7
684.422	602.99
684.616	604.93
684.81	675.65
685.004	639.8
685.198	632.63
685.392	673.9
685.586	633.21
685.78	659.76
685.974	688.04
686.168	691.14
686.362	706.06
686.556	609.58
686.75	582.65
686.944	610.74
687.138	579.35
687.331	504.76
687.525	495.27
687.719	474.92
687.913	561.33
688.107	549.71
688.301	501.47
688.494	544.28
688.688	525.1
688.882	523.75
689.076	530.33
689.269	572.57
689.463	632.44
689.657	557.27
689.85	608.22
690.044	603.96
690.238	628.95
690.431	631.66
690.625	650.65
690.818	656.46
691.012	685.72
691.205	723.69
691.399	662.47
691.593	712.46
691.786	784.92
691.98	793.25
692.173	800.42
692.366	837.81
692.56	837.42
692.753	868.23
692.947	802.94
693.14	871.91
693.333	897.68
693.527	829.67
693.72	887.41
693.914	849.82
694.107	852.73
694.3	889.35
694.493	878.69
694.687	962.58
694.88	940.88
695.073	954.64
695.266	928.87
695.46	949.02
695.653	1030.4
695.846	1022.84
696.039	996.49
696.232	1010.25
696.425	1099.18
696.618	1105.96
696.812	1103.44
697.005	1166.6
697.198	1205.74
697.391	1151.49
697.584	1212.32
697.777	1259.21
697.97	1227.05
698.163	1284.59
698.356	1211.74
698.549	1312.3
698.742	1284.21
698.935	1276.46
699.127	1249.91
699.32	1255.72
699.513	1247.59
699.706	1303
699.899	1362.09
700.092	1312.88
700.285	1351.24
700.477	1287.11
700.67	1334.77
700.863	1351.24
701.056	1455.48
701.248	1392.12
701.441	1442.69
701.634	1410.33
701.826	1507.98
702.019	1388.63
702.212	1480.86
702.404	1440.37
702.597	1403.55
702.79	1494.42
702.982	1501.78
703.175	1546.73
703.367	1543.63
703.56	1588.78
703.752	1617.84
703.945	1609.51
704.137	1618.23
704.33	1647.67
704.522	1665.5
704.715	1666.66
704.907	1695.72
705.1	1719.17
705.292	1725.95
705.484	1707.54
705.677	1767.99
705.869	1758.11
706.061	1744.35
706.254	1836
706.446	1776.52
706.638	1784.07
706.831	1879.01
707.023	1821.08
707.215	1916.98
707.407	1920.08
707.599	1872.23
707.792	1984.02
707.984	1945.27
708.176	1948.56
708.368	1939.26
708.56	1990.8
708.752	1949.15
708.944	1953.99
709.136	2023.35
709.329	2011.92
709.521	2106.27
709.713	2073.14
709.905	2041.18
710.097	2093.1
710.289	2056.68
710.481	2129.33
710.672	2101.04
710.864	2116.54
711.056	2172.15
711.248	2158.2
711.44	2159.36
711.632	2171.76
711.824	2203.15
712.016	2226.01
712.207	2230.27
712.399	2232.6
712.591	2279.29
712.783	2262.63
712.975	2276.97
713.166	2236.09
713.358	2265.53
713.55	2342.65
713.741	2331.41
713.933	2330.44
714.125	2321.53
714.316	2302.35
714.508	2356.4
714.7	2330.83
714.891	2339.74
715.083	2390.5
715.274	2325.02
715.466	2354.46
715.657	2369.58
715.849	2312.42
716.04	2347.3
716.232	2276.38
716.423	2290.72
716.615	2226.79
716.806	2180.09
716.998	2097.94
717.189	2052.99
717.381	1997.19
717.572	1940.62
717.763	1935.2
717.955	1916.4
718.146	1890.63
718.337	1838.32
718.528	1799.77
718.72	1750.55
718.911	1795.12
719.102	1754.62
719.293	1749.78
719.485	1766.44
719.676	1731.57
719.867	1701.73
720.058	1691.85
720.249	1736.02
720.44	1754.24
720.632	1792.4
720.823	1833.48
721.014	1953.02
721.205	1989.44
721.396	2070.43
721.587	2143.47
721.778	2199.27
721.969	2217.87
722.16	2294.02
722.351	2275.22
722.542	2405.81
722.733	2415.5
722.924	2325.02
723.115	2370.35
723.305	2354.85
723.496	2377.52
723.687	2226.01
723.878	2275.42
724.069	2207.8
724.26	2252.17
724.45	2154.13
724.641	2182.42
724.832	2191.33
725.023	2158.01
725.213	2189.97
725.404	2098.72
725.595	2137.08
725.785	2132.43
725.976	2179.32
726.167	2160.33
726.357	2186.68
726.548	2274.45
726.739	2196.56
726.929	2280.45
727.12	2340.13
727.31	2321.92
727.501	2261.47
727.691	2267.67
727.882	2263.4
728.072	2336.83
728.263	2317.85
728.453	2330.44
728.644	2387.21
728.834	2335.09
729.024	2302.35
729.215	2290.72
729.405	2335.48
729.596	2402.71
729.786	2448.04
729.976	2446.69
730.167	2434.87
730.357	2408.91
730.547	2427.89
730.737	2471.1
730.928	2516.05
731.118	2474.78
731.308	2472.26
731.498	2495.9
731.688	2537.17
731.879	2586.77
732.069	2628.23
732.259	2699.33
732.449	2701.27
732.639	2763.08
732.829	2789.43
733.019	2784.97
733.209	2870.61
733.399	2893.66
733.589	2962.25
733.779	2998.29
733.969	2989.37
734.159	3032.39
734.349	3090.12
734.539	3155.22
734.729	3102.72
734.919	3164.33
735.109	3175.95
735.299	3109.11
735.488	3144.37
735.678	3161.42
735.868	3151.35
736.058	3137.98
736.248	3161.23
736.437	3107.37
736.627	3128.29
736.817	3254.81
737.007	3131.78
737.196	3224.97
737.386	3251.51
737.576	3199.78
737.765	3276.7
737.955	3214.7
738.144	3336.57
738.334	3268.37
738.524	3231.56
738.713	3328.04
738.903	3252.29
739.092	3314.29
739.282	3273.21
739.471	3328.63
739.661	3299.95
739.85	3322.04
740.04	3288.52
740.229	3396.82
740.419	3397.6
740.608	3426.27
740.797	3419.88
740.987	3462.7
741.176	3474.9
741.365	3410.39
741.555	3373.58
741.744	3467.74
741.933	3434.02
742.123	3448.56
742.312	3510.94
742.501	3496.41
742.69	3571.58
742.88	3479.55
743.069	3591.73
743.258	3478.59
743.447	3563.06
743.636	3583.79
743.825	3540
744.014	3560.93
744.204	3568.48
744.393	3503.19
744.582	3627.19
744.771	3624.67
744.96	3593.28
745.149	3569.45
745.338	3548.72
745.527	3623.9
745.716	3561.7
745.905	3546.01
746.094	3652.38
746.283	3633.97
746.471	3593.28
746.66	3654.7
746.849	3639.78
747.038	3657.8
747.227	3586.5
747.416	3645.79
747.604	3552.99
747.793	3565.38
747.982	3673.88
748.171	3610.72
748.359	3633.58
748.548	3595.42
748.737	3587.28
748.926	3616.34
749.114	3496.02
749.303	3615.57
749.491	3563.64
749.68	3555.12
749.869	3621.38
750.057	3522.18
750.246	3561.51
750.434	3535.55
750.623	3543.49
750.811	3522.95
751	3580.3
751.188	3531.67
751.377	3537.68
751.565	3509.97
751.754	3530.12
751.942	3517.34
752.131	3585.15
752.319	3480.33
752.507	3525.28
752.696	3582.82
752.884	3587.86
753.072	3513.85
753.261	3554.15
753.449	3535.35
753.637	3477.23
753.825	3641.33
754.014	3510.55
754.202	3507.84
754.39	3568.1
754.578	3571.58
754.766	3458.63
754.955	3467.74
755.143	3542.91
755.331	3471.22
755.519	3511.72
755.707	3485.56
755.895	3448.56
756.083	3486.34
756.271	3461.34
756.459	3499.9
756.647	3480.91
756.835	3475.29
757.023	3435.19
757.211	3416.2
757.399	3378.42
757.587	3391.01
757.775	3357.69
757.963	3394.31
758.151	3378.03
758.339	3393.14
758.526	3302.08
758.714	3373.19
758.902	3235.43
759.09	3120.74
759.278	2942.1
759.465	2680.35
759.653	2309.52
759.841	2114.41
760.028	1809.65
760.216	1560.49
760.404	1486.86
760.591	1195.86
760.779	1010.44
760.967	899.23
761.154	728.73
761.342	753.14
761.529	731.83
761.717	827.93
761.905	802.36
762.092	833.74
762.28	784.34
762.467	788.21
762.655	725.24
762.842	718.46
763.029	721.37
763.217	769.03
763.404	745.59
763.592	765.35
763.779	780.85
763.966	774.46
764.154	836.46
764.341	894.19
764.528	903.69
764.716	961.62
764.903	1036.21
765.09	1100.92
765.277	1124.94
765.465	1278.2
765.652	1319.66
765.839	1408.01
766.026	1538.98
766.213	1597.11
766.4	1703.09
766.588	1901.1
766.775	1902.84
766.962	2022.96
767.149	2072.76
767.336	2216.71
767.523	2240.74
767.71	2369.58
767.897	2446.69
768.084	2536.97
768.271	2571.46
768.458	2650.9
768.645	2678.41
768.832	2711.15
769.019	2729.17
769.206	2757.65
769.392	2850.46
769.579	2889.98
769.766	2920.59
769.953	2883.01
770.14	2937.06
770.327	2919.24
770.513	2948.88
770.7	3028.71
770.887	2949.07
771.073	2987.24
771.26	3030.84
771.447	3001.77
771.634	2984.72
771.82	3090.9
772.007	2986.47
772.193	3039.94
772.38	3031.22
772.567	3010.3
772.753	2956.05
772.94	3076.37
773.126	3045.17
773.313	3085.28
773.499	3056.22
773.686	3064.16
773.872	2985.31
774.059	3061.06
774.245	3005.84
774.432	2999.26
774.618	2938.61
774.804	3011.27
774.991	2938.23
775.177	3002.16
775.363	2975.62
775.55	3000.61
775.736	2920.59
775.922	2988.99
776.109	2988.41
776.295	2985.69
776.481	3013.4
776.667	3013.21
776.853	2949.27
777.04	2963.61
777.226	2952.95
777.412	3023.67
777.598	2961.09
777.784	2952.56
777.97	2887.85
778.156	2936.48
778.342	2919.82
778.528	2925.05
778.715	2855.3
778.901	2858.4
779.087	2916.33
779.272	2866.54
779.458	2830.11
779.644	2864.99
779.83	2841.93
780.016	2923.31
780.202	2874.87
780.388	2851.81
780.574	2790.2
780.76	2803.38
780.946	2877
781.131	2856.66
781.317	2804.35
781.503	2755.33
781.689	2810.93
781.874	2881.26
782.06	2788.85
782.246	2813.65
782.432	2813.26
782.617	2816.55
782.803	2799.7
782.989	2752.03
783.174	2765.21
783.36	2715.8
783.545	2749.52
783.731	2729.17
783.916	2678.41
784.102	2764.82
784.288	2703.6
784.473	2720.65
784.659	2698.17
784.844	2716.77
785.029	2703.02
785.215	2653.22
785.4	2639.27
785.586	2740.6
785.771	2647.99
785.956	2683.06
786.142	2654
786.327	2647.6
786.512	2645.09
786.698	2648.19
786.883	2559.64
787.068	2605.75
787.254	2609.82
787.439	2555.96
787.624	2607.89
787.809	2582.89
787.994	2578.44
788.18	2612.54
788.365	2519.34
788.55	2537.94
788.735	2517.79
788.92	2519.73
789.105	2523.41
789.29	2527.09
789.475	2474.39
789.66	2472.07
789.845	2432.74
790.03	2410.46
790.215	2477.69
790.4	2524.38
790.585	2510.04
790.77	2429.83
790.955	2403.87
791.14	2375
791.325	2491.44
791.51	2358.34
791.695	2394.38
791.879	2448.24
792.064	2374.03
792.249	2479.43
792.434	2422.86
792.618	2413.75
792.803	2440.49
792.988	2424.79
793.173	2445.14
793.357	2441.07
793.542	2408.91
793.727	2426.93
793.911	2489.31
794.096	2449.21
794.281	2463.35
794.465	2534.26
794.65	2425.96
794.834	2467.23
795.019	2501.13
795.203	2518.37
795.388	2479.04
795.572	2510.63
795.757	2441.07
795.941	2471.1
796.126	2471.1
796.31	2398.64
796.494	2444.75
796.679	2435.06
796.863	2422.66
797.048	2475.56
797.232	2460.83
797.416	2474.98
797.601	2492.22
797.785	2544.14
797.969	2490.09
798.153	2450.37
798.338	2471.68
798.522	2529.03
798.706	2513.53
798.89	2513.14
799.074	2583.86
799.258	2530.39
799.443	2514.89
799.627	2505.2
799.811	2558.29
799.995	2488.54
800.179	2475.17
800.363	2474.59
800.547	2510.43
800.731	2531.74
800.915	2389.53
801.099	2411.81
801.283	2466.06
801.467	2472.46
801.651	2447.27
801.835	2513.14
802.019	2457.73
802.202	2450.37
802.386	2393.41
802.57	2419.95
802.754	2460.44
802.938	2461.22
803.121	2392.83
803.305	2483.5
803.489	2450.95
803.673	2451.14
803.856	2453.08
804.04	2462.77
804.224	2497.06
804.407	2434.48
804.591	2442.43
804.775	2442.23
804.958	2456.76
805.142	2593.55
805.326	2424.6
805.509	2465.87
805.693	2501.33
805.876	2547.82
806.06	2523.61
806.243	2483.31
806.427	2505.39
806.61	2509.08
806.794	2462.77
806.977	2537.94
807.16	2482.92
807.344	2485.44
807.527	2505.59
807.71	2462.19
807.894	2497.45
808.077	2499.78
808.26	2424.99
808.444	2448.82
808.627	2510.24
808.81	2391.66
808.993	2401.74
809.177	2394.96
809.36	2405.23
809.543	2406.78
809.726	2315.91
809.909	2319.01
810.092	2294.6
810.276	2328.89
810.459	2322.69
810.642	2296.34
810.825	2293.82
811.008	2264.76
811.191	2202.57
811.374	2214.97
811.557	2220.78
811.74	2285.88
811.923	2158.59
812.106	2194.62
812.289	2128.36
812.472	2121.97
812.654	2112.47
812.837	2060.16
813.02	2038.66
813.203	2039.04
813.386	1917.56
813.569	1916.79
813.751	1847.43
813.934	1903.81
814.117	1858.08
814.3	1806.55
814.482	1764.7
814.665	1707.35
814.848	1711.22
815.03	1661.62
815.213	1629.66
815.396	1610.86
815.578	1641.09
815.761	1595.56
815.943	1652.32
816.126	1532.2
816.309	1497.71
816.491	1460.9
816.674	1429.71
816.856	1468.46
817.039	1468.85
817.221	1507.79
817.403	1489.38
817.586	1501.98
817.768	1516.7
817.951	1445.4
818.133	1412.85
818.315	1444.24
818.498	1483.96
818.68	1554.48
818.862	1515.73
819.045	1554.48
819.227	1531.81
819.409	1521.93
819.591	1500.23
819.774	1528.13
819.956	1493.26
820.138	1573.86
820.32	1554.29
820.502	1607.18
820.684	1684.49
820.866	1688.75
821.048	1748.81
821.231	1748.42
821.413	1759.85
821.595	1731.37
821.777	1749.78
821.959	1757.34
822.141	1771.87
822.323	1645.16
822.505	1548.86
822.686	1555.45
822.868	1466.33
823.05	1355.7
823.232	1346.98
823.414	1281.69
823.596	1377.4
823.778	1319.08
823.96	1373.91
824.141	1373.91
824.323	1426.42
824.505	1459.93
824.687	1498.1
824.868	1547.51
825.05	1659.69
825.232	1675.77
825.413	1722.07
825.595	1713.36
825.777	1625.2
825.958	1692.62
826.14	1657.36
826.321	1667.63
826.503	1671.51
826.685	1742.22
826.866	1736.02
827.048	1686.81
827.229	1637.41
827.411	1598.08
827.592	1571.92
827.773	1571.53
827.955	1569.59
828.136	1514.18
828.318	1497.52
828.499	1546.73
828.68	1458.97
828.862	1526.39
829.043	1535.3
829.224	1472.91
829.406	1482.99
829.587	1479.11
829.768	1469.04
829.949	1516.12
830.131	1487.25
830.312	1576.76
830.493	1497.33
830.674	1529.68
830.855	1467.1
831.036	1503.53
831.218	1580.64
831.399	1579.28
831.58	1507.79
831.761	1552.54
831.942	1527.94
832.123	1474.66
832.304	1493.26
832.485	1500.23
832.666	1502.75
832.847	1518.25
833.028	1500.81
833.209	1520.77
833.389	1487.45
833.57	1442.11
833.751	1466.52
833.932	1551.96
834.113	1514.57
834.294	1508.37
834.475	1532.59
834.655	1572.5
834.836	1578.51
835.017	1578.51
835.198	1519.03
835.378	1520.58
835.559	1590.91
835.74	1571.73
835.92	1552.35
836.101	1524.84
836.281	1562.62
836.462	1526.39
836.643	1569.01
836.823	1614.35
837.004	1615.9
837.184	1636.44
837.365	1611.25
837.545	1612.03
837.726	1577.34
837.906	1655.42
838.087	1606.41
838.267	1584.32
838.448	1529.3
838.628	1586.06
838.808	1551.38
838.989	1629.46
839.169	1540.53
839.349	1580.64
839.53	1611.06
839.71	1628.49
839.89	1571.53
840.07	1632.18
840.251	1561.65
840.431	1643.99
840.611	1578.51
840.791	1559.71
840.971	1619.97
841.151	1567.27
841.332	1546.35
841.512	1603.69
841.692	1565.91
841.872	1591.29
842.052	1546.93
842.232	1590.91
842.412	1524.84
842.592	1538.01
842.772	1600.21
842.952	1599.63
843.132	1552.35
843.312	1527.55
843.492	1543.83
843.672	1576.57
843.851	1513.6
844.031	1516.31
844.211	1547.7
844.391	1542.47
844.571	1542.66
844.751	1552.16
844.93	1547.9
845.11	1551.38
845.29	1556.23
845.47	1581.61
845.649	1566.69
845.829	1566.11
846.009	1539.18
846.188	1550.41
846.368	1548.86
846.547	1557.58
846.727	1573.08
846.907	1532.01
847.086	1524.65
847.266	1583.35
847.445	1513.02
847.625	1499.65
847.804	1482.8
847.984	1529.3
848.163	1491.51
848.343	1475.63
848.522	1497.91
848.701	1491.13
848.881	1509.92
849.06	1474.46
849.239	1467.49
849.419	1513.41
849.598	1425.25
849.777	1420.99
849.957	1414.02
850.136	1378.17
850.315	1362.48
850.494	1357.05
850.674	1363.25
850.853	1451.99
851.032	1392.9
851.211	1457.8
851.39	1409.95
851.569	1332.25
851.748	1386.89
851.927	1432.42
852.107	1409.56
852.286	1342.72
852.465	1319.27
852.644	1433.58
852.823	1383.4
853.002	1411.69
853.181	1393.28
853.359	1411.11
853.538	1322.37
853.717	1407.62
853.896	1315.2
854.075	1244.29
854.254	1209.22
854.433	1154.2
854.611	1198.96
854.79	1151.88
854.969	1245.07
855.148	1241
855.327	1182.29
855.505	1252.82
855.684	1234.02
855.863	1275.87
856.041	1220.66
856.22	1310.36
856.399	1250.3
856.577	1375.07
856.756	1308.81
856.934	1426.8
857.113	1449.47
857.291	1353.57
857.47	1327.99
857.648	1368.49
857.827	1366.35
858.005	1383.79
858.184	1300.29
858.362	1399.68
858.541	1307.26
858.719	1335.16
858.898	1343.49
859.076	1296.6
859.254	1369.45
859.433	1297.96
859.611	1306.49
859.789	1295.05
859.967	1360.74
860.146	1381.66
860.324	1256.89
860.502	1286.92
860.68	1247.97
860.859	1270.64
861.037	1268.12
861.215	1295.44
861.393	1285.17
861.571	1253.4
861.749	1266.57
861.927	1250.69
862.105	1271.61
862.283	1276.26
862.461	1254.76
862.639	1217.75
862.817	1247.59
862.995	1243.91
863.173	1267.16
863.351	1254.37
863.529	1270.64
863.707	1301.84
863.885	1235.19
864.063	1182.1
864.241	1220.27
864.418	1259.02
864.596	1240.22
864.774	1183.84
864.952	1208.26
865.129	1242.74
865.307	1213.29
865.485	1144.9
865.663	1237.71
865.84	1124.75
866.018	1166.21
866.196	1047.25
866.373	1065.66
866.551	1081.35
866.728	1023.62
866.906	1033.69
867.084	1064.88
867.261	1100.15
867.439	1112.35
867.616	1138.51
867.794	1109.06
867.971	1141.61
868.149	1130.37
868.326	1158.27
868.503	1163.5
868.681	1164.66
868.858	1135.21
869.035	1107.51
869.213	1132.89
869.39	1095.5
869.567	1192.56
869.745	1117.19
869.922	1143.35
870.099	1149.74
870.276	1152.84
870.454	1151.49
870.631	1160.79
870.808	1128.43
870.985	1160.21
871.162	1138.51
871.339	1142.96
871.517	1098.01
871.694	1110.03
871.871	1125.33
872.048	1067.4
872.225	1071.28
872.402	1085.81
872.579	1059.85
872.756	1108.67
872.933	1054.03
873.11	1094.53
873.287	1112.16
873.463	1052.87
873.64	1066.05
873.817	1093.95
873.994	1037.37
874.171	1065.08
874.348	1091.43
874.524	1015.28
874.701	1051.13
874.878	1008.31
875.055	1049.77
875.231	1045.51
875.408	1081.55
875.585	999.78
875.762	1061.4
875.938	1026.33
876.115	1016.25
876.291	1022.45
876.468	1037.76
876.645	984.28
876.821	1036.4
876.998	1039.7
877.174	1066.63
877.351	1026.33
877.527	1002.5
877.704	1023.23
877.88	1031.75
878.057	985.06
878.233	1058.68
878.409	994.17
878.586	1003.85
878.762	1017.22
878.938	990.68
879.115	944.37
879.291	996.1
879.467	942.24
879.644	958.52
879.82	999.01
879.996	974.6
880.172	910.27
880.349	969.95
880.525	1005.98
880.701	937.2
880.877	949.6
881.053	967.23
881.229	930.62
881.405	993.39
881.581	932.94
881.757	954.25
881.933	978.28
882.109	979.63
882.285	972.08
882.461	898.26
882.637	943.4
882.813	939.14
882.989	934.69
883.165	1004.82
883.341	914.34
883.517	958.71
883.693	954.45
883.869	963.36
884.044	926.16
884.22	971.69
884.396	968.98
884.572	968.01
884.747	968.01
884.923	994.17
885.099	961.62
885.275	985.64
885.45	911.44
885.626	931.39
885.801	909.69
885.977	931.97
886.153	882.57
886.328	956.38
886.504	933.91
886.679	954.25
886.855	887.6
887.03	934.3
887.206	977.5
887.381	923.64
887.557	934.1
887.732	953.28
887.908	988.74
888.083	941.27
888.258	928.87
888.434	926.74
888.609	933.91
888.784	980.22
888.96	940.5
889.135	937.01
889.31	918.41
889.485	954.64
889.661	912.79
889.836	996.1
890.011	969.37
890.186	933.14
890.361	901.94
890.537	951.54
890.712	942.82
890.887	961.62
891.062	951.93
891.237	995.33
891.412	906.4
891.587	949.41
891.762	984.09
891.937	969.17
892.112	890.32
892.287	933.33
892.462	865.52
892.637	861.06
892.812	852.15
892.987	858.54
893.161	824.25
893.336	857.19
893.511	857.19
893.686	825.41
893.861	825.61
894.035	888.19
894.21	848.47
894.385	813.98
894.56	819.79
894.734	806.23
894.909	765.93
895.084	771.16
895.258	744.43
895.433	773.1
895.608	757.41
895.782	713.23
895.957	693.66
896.131	700.83
896.306	642.51
896.48	675.45
896.655	619.65
896.829	596.98
897.004	604.35
897.178	619.07
897.353	577.8
897.527	641.93
897.701	648.33
897.876	560.95
898.05	664.99
898.224	642.71
898.399	661.5
898.573	568.31
898.747	524.91
898.921	561.92
899.096	458.45
899.27	503.79
899.444	515.03
899.618	535.18
899.792	515.61
899.967	564.05
900.141	578.58
900.315	509.8
900.489	516.97
900.663	520.45
900.837	533.24
901.011	477.05
901.185	583.23
901.359	534.98
901.533	503.79
901.707	544.09
901.881	522
902.055	504.95
902.229	499.53
902.403	562.3
902.576	530.33
902.75	532.27
902.924	675.84
903.098	559.59
903.272	659.76
903.446	664.41
903.619	607.64
903.793	690.56
903.967	672.93
904.14	691.53
904.314	676.61
904.488	673.71
904.661	723.5
904.835	687.27
905.009	724.08
905.182	724.28
905.356	696.96
905.529	684.17
905.703	637.48
905.876	674.1
906.05	607.45
906.223	624.88
906.397	552.23
906.57	537.89
906.744	525.3
906.917	533.63
907.09	536.53
907.264	537.5
907.437	500.89
907.61	480.15
907.784	488.1
907.957	498.37
908.13	476.86
908.304	490.81
908.477	450.32
908.65	478.6
908.823	438.11
908.996	506.31
909.17	471.44
909.343	448.19
909.516	491.97
909.689	464.07
909.862	447.8
910.035	480.54
910.208	439.08
910.381	432.1
910.554	565.21
910.727	486.16
910.9	444.12
911.073	464.27
911.246	487.13
911.419	518.13
911.592	513.87
911.765	451.87
911.938	443.73
912.11	457.1
912.283	480.74
912.456	513.87
912.629	452.06
912.802	427.45
912.974	394.52
913.147	388.9
913.32	335.04
913.493	381.54
913.665	374.95
913.838	375.53
914.01	399.56
914.183	415.83
914.356	418.93
914.528	437.14
914.701	465.62
914.873	430.94
915.046	406.92
915.218	353.25
915.391	335.04
915.563	335.42
915.736	381.92
915.908	384.83
916.081	375.14
916.253	422.61
916.425	382.7
916.598	432.1
916.77	420.29
916.942	379.6
917.115	319.34
917.287	382.12
917.459	368.75
917.632	342.21
917.804	311.59
917.976	368.56
918.148	371.46
918.32	385.41
918.493	415.05
918.665	437.72
918.837	411.76
919.009	466.79
919.181	440.63
919.353	442.57
919.525	390.84
919.697	422.42
919.869	423.97
920.041	466.79
920.213	558.82
920.385	477.64
920.557	441.99
920.729	450.51
920.901	428.42
921.073	415.05
921.244	424.55
921.416	481.12
921.588	424.94
921.76	430.17
921.932	476.28
922.103	422.42
922.275	442.76
922.447	453.22
922.619	371.46
922.79	390.26
922.962	398.01
923.134	417.77
923.305	405.17
923.477	325.74
923.648	352.86
923.82	380.76
923.991	345.11
924.163	327.87
924.335	361
924.506	339.11
924.677	402.07
924.849	370.49
925.02	364.1
925.192	386.96
925.363	354.99
925.535	373.98
925.706	328.64
925.877	391.03
926.049	369.72
926.22	357.71
926.391	361.19
926.562	382.51
926.734	335.62
926.905	376.31
927.076	328.26
927.247	339.11
927.419	289.51
927.59	291.64
927.761	311.79
927.932	282.14
928.103	318.38
928.274	259.67
928.445	215.11
928.616	261.61
928.787	274.78
928.958	273.04
929.129	254.44
929.3	260.44
929.471	207.36
929.642	149.04
929.813	137.8
929.984	211.81
930.155	146.72
930.326	173.84
930.496	163.38
930.667	110.29
930.838	187.4
931.009	130.05
931.18	139.35
931.35	109.32
931.521	141.48
931.692	95.18
931.863	63.4
932.033	112.81
932.204	94.79
932.374	114.75
932.545	59.14
932.716	118.23
932.886	106.61
933.057	20.39
933.227	54.3
933.398	132.38
933.568	68.25
933.739	31.82
933.909	30.85
934.08	91.69
934.25	24.65
934.421	21.55
934.591	31.24
934.761	39.77
934.932	7.6
935.102	56.62
935.272	34.92
935.443	33.95
935.613	30.66
935.783	52.94
935.953	0.24
936.123	141.48
936.294	13.22
936.464	43.45
936.634	45.58
936.804	4.12
936.974	-10.61
937.144	59.72
937.314	51.2
937.484	23.1
937.655	1.4
937.825	94.6
937.995	33.37
938.165	73.87
938.334	44.8
938.504	63.02
938.674	45.97
938.844	63.21
939.014	94.6
939.184	88.59
939.354	116.49
939.524	132.57
939.694	63.4
939.863	85.1
940.033	137.22
940.203	128.7
940.373	99.63
940.542	110.48
940.712	77.55
940.882	103.12
941.051	120.95
941.221	97.89
941.391	127.53
941.56	49.07
941.73	60.5
941.899	153.3
942.069	104.67
942.238	108.93
942.408	66.89
942.577	86.07
942.747	97.7
942.916	33.95
943.086	57.4
943.255	120.37
943.425	88.59
943.594	40.54
943.763	12.25
943.933	27.95
944.102	-5.76
944.271	57.2
944.441	83.94
944.61	48.29
944.779	56.04
944.948	142.26
945.117	39.38
945.287	54.69
945.456	17.87
945.625	52.36
945.794	75.22
945.963	28.92
946.132	71.54
946.301	25.43
946.47	51.78
946.639	5.28
946.808	32.79
946.977	68.25
947.146	85.88
947.315	40.74
947.484	61.08
947.653	42.67
947.822	34.15
947.991	42.48
948.16	129.08
948.329	76.77
948.498	82.39
948.666	74.83
948.835	85.1
949.004	-1.5
949.173	38.99
949.341	49.65
949.51	38.6
949.679	82.97
949.847	80.65
950.016	120.17
950.185	109.52
950.353	23.49
950.522	61.08
950.69	86.07
950.859	43.25
951.028	103.51
951.196	79.87
951.365	38.02
951.533	34.34
951.701	99.83
951.87	79.68
952.038	19.62
952.207	55.65
952.375	115.33
952.543	24.46
952.712	70.96
952.88	45
953.048	131.8
953.217	61.27
953.385	34.15
953.553	119.59
953.721	22.52
953.89	72.9
954.058	29.11
954.226	41.51
954.394	80.26
954.562	14.19
954.73	40.74
954.898	49.84
955.067	82.97
955.235	42.29
955.403	84.52
955.571	127.53
955.739	76.97
955.907	30.47
956.075	55.65
956.243	55.46
956.41	97.31
956.578	26.4
956.746	7.22
956.914	40.93
957.082	86.65
957.25	75.22
957.418	51.78
957.585	56.43
957.753	77.93
957.921	56.82
958.089	89.75
958.256	43.45
958.424	56.43
958.592	71.35
958.759	53.91
958.927	64.18
959.095	82.58
959.262	52.55
959.43	49.26
959.597	35.31
959.765	60.89
959.932	10.51
960.1	88.4
960.267	46.55
960.435	70.57
960.602	107
960.77	62.82
960.937	48.49
961.104	77.35
961.272	26.98
961.439	62.63
961.606	86.27
961.774	78.9
961.941	42.09
962.108	64.18
962.275	77.16
962.443	98.28
962.61	85.49
962.777	128.5
962.944	98.08
963.111	79.48
963.278	107.97
963.446	62.05
963.613	74.64
963.78	109.52
963.947	90.53
964.114	78.9
964.281	160.28
964.448	95.95
964.615	62.24
964.782	103.12
964.949	86.85
965.116	99.25
965.282	121.92
965.449	71.93
965.616	46.74
965.783	119.2
965.95	93.43
966.117	38.22
966.283	91.69
966.45	81.03
966.617	85.68
966.784	121.72
966.95	129.67
967.117	88.98
967.284	38.02
967.45	74.25
967.617	139.93
967.784	100.99
967.95	151.37
968.117	102.54
968.283	134.32
968.45	187.98
968.616	94.21
968.783	137.22
968.949	99.63
969.116	130.63
969.282	117.85
969.449	106.42
969.615	92.66
969.781	58.75
969.948	83.55
970.114	81.62
970.28	136.83
970.447	93.82
970.613	138
970.779	103.9
970.945	121.53
971.112	122.3
971.278	84.91
971.444	101.96
971.61	145.17
971.776	95.37
971.942	119.98
972.108	116.68
972.275	69.8
972.441	114.36
972.607	162.99
972.773	78.13
972.939	108.74
973.105	106.61
973.271	52.55
973.437	51.2
973.602	68.44
973.768	108.55
973.934	60.5
974.1	97.31
974.266	46.55
974.432	113
974.598	68.63
974.763	101.18
974.929	57.59
975.095	133.35
975.261	63.79
975.426	47.13
975.592	77.55
975.758	152.72
975.923	41.7
976.089	75.61
976.255	125.6
976.42	94.21
976.586	122.88
976.751	112.42
976.917	164.15
977.082	86.07
977.248	41.51
977.413	34.54
977.579	80.45
977.744	87.23
977.91	45.58
978.075	101.18
978.24	118.82
978.406	76.97
978.571	79.68
978.736	84.33
978.902	104.67
979.067	46.35
979.232	51.78
979.397	71.35
979.563	144
979.728	34.34
979.893	51
980.058	63.6
980.223	84.33
980.388	70.77
980.554	94.98
980.719	62.24
980.884	104.09
981.049	150.78
981.214	77.93
981.379	111.07
981.544	41.51
981.709	108.16
981.874	81.81
982.039	85.88
982.204	112.81
982.368	79.29
982.533	67.47
982.698	150.59
982.863	137.8
983.028	68.05
983.193	92.85
983.357	83.17
983.522	82.58
983.687	67.47
983.852	66.89
984.016	71.15
984.181	130.83
984.346	67.28
984.51	107.58
984.675	68.44
984.839	103.51
985.004	77.35
985.168	108.74
985.333	92.85
985.498	55.07
985.662	100.8
985.827	95.57
985.991	83.75
986.155	58.17
986.32	131.8
986.484	125.79
986.649	120.17
986.813	30.08
986.977	95.18
987.142	127.15
987.306	63.99
987.47	49.84
987.634	93.82
987.799	85.3
987.963	90.14
988.127	118.82
988.291	140.13
988.455	97.7
988.62	57.59
988.784	105.25
988.948	93.05
989.112	44.61
989.276	77.55
989.44	92.85
989.604	86.27
989.768	56.04
989.932	148.85
990.096	48.87
990.26	55.65
990.424	32.6
990.588	85.1
990.752	117.65
990.915	92.27
991.079	82
991.243	42.87
991.407	94.79
991.571	54.1
991.734	88.78
991.898	104.67
992.062	155.43
992.226	60.69
992.389	68.83
992.553	29.3
992.717	63.6
992.88	87.23
993.044	73.67
993.207	60.5
993.371	103.51
993.535	112.42
993.698	72.51
993.862	78.9
994.025	109.52
994.189	81.42
994.352	94.79
994.515	104.87
994.679	92.08
994.842	61.08
995.006	106.22
995.169	56.04
995.332	41.51
995.496	99.25
995.659	31.44
995.822	66.31
995.985	65.15
996.149	100.8
996.312	67.08
996.475	110.87
996.638	80.65
996.801	114.55
996.964	128.12
997.128	75.03
997.291	46.35
997.454	86.85
997.617	19.42
997.78	111.84
997.943	41.7
998.106	108.35
998.269	38.02
998.432	49.84
998.595	54.69
998.758	16.52
998.92	53.14
999.083	39.38
999.246	55.85
999.409	32.4
999.572	-8.28
999.735	55.27
999.897	81.23
1000.06	24.27
1000.223	59.53
1000.386	74.45
1000.548	48.1
1000.711	82.58
1000.874	68.44
1001.036	0.44
1001.199	91.88
1001.361	69.22
1001.524	74.06
1001.687	83.75
1001.849	26.4
1002.012	63.79
1002.174	30.66
1002.337	55.07
1002.499	57.79
1002.661	114.75
1002.824	32.99
1002.986	51.2
1003.149	80.45
1003.311	35.7
1003.473	92.47
1003.636	44.8
1003.798	81.23
1003.96	77.16
1004.123	50.42
1004.285	41.51
1004.447	53.14
1004.609	55.27
1004.771	88.59
1004.933	4.5
1005.096	45.97
1005.258	6.05
1005.42	49.65
1005.582	97.7
1005.744	44.42
1005.906	-15.26
1006.068	46.94
1006.23	2.95
1006.392	16.13
1006.554	32.02
1006.716	100.41
1006.878	75.42
1007.04	-24.75
1007.202	48.29
1007.363	43.45
1007.525	75.22
1007.687	33.76
1007.849	72.51
1008.011	22.33
1008.172	11.29
1008.334	3.92
1008.496	43.84
1008.658	23.88
1008.819	15.35
1008.981	-11.19
1009.143	15.16
1009.304	35.5
1009.466	74.06
1009.627	84.33
1009.789	150.2
1009.95	61.47
1010.112	32.6
1010.273	40.74
1010.435	41.7
1010.596	21.75
1010.758	38.41
1010.919	41.51
1011.081	27.75
1011.242	48.87
1011.403	51.78
1011.565	39.19
1011.726	68.44
1011.887	16.52
1012.049	40.35
1012.21	72.9
1012.371	77.55
1012.532	-24.94
1012.693	37.64
1012.855	6.44
1013.016	53.33
1013.177	50.81
1013.338	58.37
1013.499	84.52
1013.66	62.44
1013.821	41.51
1013.982	28.53
1014.143	52.94
1014.304	20.39
1014.465	66.31
1014.626	45.77
1014.787	20
1014.948	105.45
1015.109	-30.95
1015.27	77.16
1015.431	23.1
1015.592	25.82
1015.752	73.67
1015.913	34.92
1016.074	36.47
1016.235	17.29
1016.395	15.55
1016.556	43.25
1016.717	21.94
1016.877	85.88
1017.038	-8.48
1017.199	34.73
1017.359	36.86
1017.52	29.89
1017.681	41.51
1017.841	56.24
1018.002	21.36
1018.162	32.99
1018.323	82.78
1018.483	38.99
1018.644	32.79
1018.804	6.25
1018.964	-23.98
1019.125	27.17
1019.285	27.37
1019.446	41.51
1019.606	-7.31
1019.766	-24.36
1019.926	54.1
1020.087	34.92
1020.247	-21.46
1020.407	44.22
1020.567	71.73
1020.728	7.22
1020.888	5.47
1021.048	7.6
1021.208	-10.03
1021.368	2.18
1021.528	54.88
1021.688	72.32
1021.848	62.82
1022.008	55.85
1022.168	-10.03
1022.328	43.45
1022.488	26.01
1022.648	5.86
1022.808	21.75
1022.968	56.04
1023.128	25.43
1023.288	-0.73
1023.448	39.57
1023.608	37.83
1023.767	68.25
1023.927	-1.89
1024.087	-18.36
1024.247	-32.69
1024.406	6.44
1024.566	-12.74
1024.726	-41.03
1024.885	28.72
1025.045	52.55
1025.205	44.61
1025.364	1.99
1025.524	14
1025.683	22.91
1025.843	7.6
1026.003	21.94
1026.162	73.87
1026.321	39.38
1026.481	16.71
1026.64	-3.83
1026.8	15.74
1026.959	10.51
1027.119	17.68
1027.278	-11.77
1027.437	14.58
1027.597	9.93
1027.756	22.14
1027.915	47.71
1028.074	45.77
1028.234	14.77
1028.393	36.09
1028.552	-1.5
1028.711	-34.24
1028.87	60.3
1029.03	-26.69
1029.189	23.88
1029.348	-25.14
1029.507	29.5
1029.666	10.12
1029.825	-11.77
1029.984	-20.88
1030.143	49.65
1030.302	-5.57
1030.461	-30.37
1030.62	16.32
1030.779	43.64
1030.938	16.71
1031.097	-29.21
1031.255	45.39
1031.414	52.36
1031.573	45.77
1031.732	-38.12
1031.891	-6.35
1032.049	70.77
1032.208	20.59
1032.367	-7.7
1032.525	-7.12
1032.684	-1.31
1032.843	26.79
1033.001	-36.57
1033.16	150.78
1033.319	50.42
1033.477	52.55
1033.636	-22.23
1033.794	-21.84
1033.953	32.6
1034.111	7.22
1034.27	-2.86
1034.428	15.55
1034.587	-22.04
1034.745	33.37
1034.903	52.55
1035.062	22.14
1035.22	-23.59
1035.378	68.63
1035.537	-29.01
1035.695	16.71
1035.853	1.99
1036.011	20.39
1036.17	19.04
1036.328	-33.47
1036.486	24.65
1036.644	5.47
1036.802	-57.88
1036.96	8.38
1037.119	-3.83
1037.277	-17.78
1037.435	0.05
1037.593	-6.73
1037.751	24.65
1037.909	9.15
1038.067	9.15
