Data from gum_young_FLMT105791__149__17-41-17-039.txt Node

Date: Mon Mar 20 17:41:17 GMT 2023
User: antho
Spectrometer: FLMT10579
Trigger mode: 0
Integration Time (sec): 1.000000E-1
Scans to average: 10
Electric dark correction enabled: true
Nonlinearity correction enabled: false
Boxcar width: 0
XAxis mode: Wavelengths
Number of Pixels in Spectrum: 3648
>>>>>Begin Spectral Data<<<<<
345.248	-144.42
345.464	-144.42
345.681	-144.42
345.898	-142.68
346.114	-149.27
346.331	-41.35
346.548	38.28
346.764	5.93
346.981	-6.67
347.197	-0.86
347.414	4.18
347.631	-22.94
347.847	59.4
348.064	-17.91
348.28	23.94
348.497	-24.11
348.713	-17.91
348.93	29.95
349.146	22.01
349.363	-8.61
349.579	32.66
349.796	-4.15
350.012	-13.84
350.229	28.59
350.445	22.2
350.661	-10.54
350.878	19.68
351.094	14.84
351.311	12.51
351.527	1.08
351.743	-18.29
351.96	46.61
352.176	44.48
352.392	14.84
352.609	47.19
352.825	-13.45
353.041	-9.96
353.257	6.89
353.474	9.8
353.69	17.36
353.906	13.29
354.122	-28.56
354.339	50.1
354.555	8.83
354.771	2.63
354.987	72.77
355.203	55.14
355.42	-2.79
355.636	-2.99
355.852	-14.61
356.068	1.86
356.284	-44.06
356.5	67.34
356.716	17.16
356.932	-4.92
357.148	32.47
357.364	-13.26
357.58	59.21
357.796	38.47
358.012	72.19
358.228	35.76
358.444	-34.18
358.66	36.34
358.876	1.66
359.092	1.08
359.308	6.89
359.524	2.63
359.74	-12.09
359.956	2.63
360.172	17.16
360.388	40.61
360.604	-5.7
360.819	95.44
361.035	22.59
361.251	28.59
361.467	-15.19
361.683	45.84
361.898	-1.05
362.114	47.58
362.33	20.84
362.546	50.68
362.762	12.32
362.977	39.06
363.193	-17.52
363.409	18.91
363.624	8.64
363.84	7.48
364.056	23.75
364.271	26.27
364.487	18.33
364.703	20.65
364.918	2.63
365.134	-21.2
365.35	-0.08
365.565	94.27
365.781	29.37
365.996	47.58
366.212	78.19
366.427	24.14
366.643	-2.02
366.858	-5.7
367.074	-8.61
367.289	57.66
367.505	115.59
367.72	-18.87
367.936	0.5
368.151	38.86
368.367	28.59
368.582	20.07
368.798	35.18
369.013	53.78
369.228	14.45
369.444	20.65
369.659	68.7
369.874	47.77
370.09	76.64
370.305	-29.53
370.52	8.83
370.736	67.92
370.951	19.29
371.166	70.06
371.381	97.37
371.597	33.24
371.812	-12.09
372.027	-8.02
372.242	14.84
372.458	74.32
372.673	9.22
372.888	2.83
373.103	35.18
373.318	116.56
373.533	37.51
373.749	19.88
373.964	-23.72
374.179	61.92
374.394	-1.63
374.609	40.41
374.824	-2.02
375.039	57.27
375.254	23.17
375.469	68.12
375.684	48.94
375.899	45.84
376.114	25.3
376.329	46.22
376.544	55.14
376.759	45.45
376.974	-12.09
377.189	33.83
377.404	6.12
377.619	47.39
377.834	-7.25
378.049	-21.2
378.264	-1.63
378.478	49.52
378.693	9.03
378.908	58.62
379.123	22.39
379.338	66.96
379.553	38.09
379.767	34.99
379.982	61.14
380.197	33.05
380.412	34.41
380.626	54.56
380.841	97.96
381.056	72.19
381.271	100.86
381.485	7.48
381.7	21.23
381.915	39.64
382.129	6.51
382.344	45.64
382.559	22.59
382.773	49.91
382.988	-27.59
383.202	28.21
383.417	6.31
383.632	125.47
383.846	11.35
384.061	19.68
384.275	20.26
384.49	73.93
384.704	36.92
384.919	53.97
385.133	32.08
385.348	48.94
385.562	12.32
385.777	79.36
385.991	48.36
386.206	28.59
386.42	10.77
386.634	81.87
386.849	49.91
387.063	30.34
387.277	20.26
387.492	14.06
387.706	19.88
387.92	5.73
388.135	46.81
388.349	70.25
388.563	49.52
388.778	44.48
388.992	65.79
389.206	36.73
389.42	116.56
389.635	53.59
389.849	84.97
390.063	88.85
390.277	49.91
390.491	99.7
390.706	89.82
390.92	63.27
391.134	44.67
391.348	85.17
391.562	-2.99
391.776	42.93
391.99	9.03
392.205	64.24
392.419	38.47
392.633	45.26
392.847	81.29
393.061	28.4
393.275	83.81
393.489	36.15
393.703	52.23
393.917	65.21
394.131	13.29
394.345	71.99
394.559	95.63
394.773	57.27
394.986	58.82
395.2	36.92
395.414	84.01
395.628	36.73
395.842	59.79
396.056	67.54
396.27	-1.44
396.484	48.74
396.697	71.99
396.911	72.38
397.125	74.32
397.339	77.81
397.553	55.91
397.766	129.92
397.98	94.47
398.194	102.22
398.408	58.82
398.621	75.29
398.835	97.76
399.049	82.65
399.262	113.07
399.476	85.94
399.69	119.07
399.903	138.64
400.117	100.47
400.331	85.75
400.544	76.45
400.758	182.04
400.971	105.71
401.185	123.92
401.398	97.96
401.612	133.99
401.826	105.9
402.039	102.02
402.253	68.89
402.466	101.83
402.68	109.77
402.893	115.78
403.106	100.67
403.32	116.17
403.533	111.91
403.747	102.61
403.96	137.87
404.174	138.25
404.387	64.44
404.6	122.95
404.814	132.44
405.027	88.85
405.24	117.72
405.454	115.39
405.667	137.48
405.88	48.36
406.094	120.62
406.307	141.55
406.52	88.66
406.733	73.54
406.947	55.91
407.16	164.99
407.373	153.95
407.586	112.1
407.799	97.37
408.012	141.35
408.226	121.79
408.439	176.04
408.652	64.82
408.865	116.75
409.078	163.83
409.291	148.33
409.504	76.06
409.717	140
409.93	123.14
410.143	126.44
410.357	79.36
410.57	59.4
410.783	116.17
410.996	116.94
411.209	118.3
411.421	175.84
411.634	121.01
411.847	117.14
412.06	151.04
412.273	86.91
412.486	154.14
412.699	219.24
412.912	118.69
413.125	171.77
413.338	137.48
413.55	177.59
413.763	132.83
413.976	133.99
414.189	134.96
414.402	143.68
414.615	198.51
414.827	109
415.04	153.37
415.253	140.58
415.466	183.98
415.678	202.77
415.891	145.04
416.104	143.1
416.316	136.7
416.529	125.66
416.742	153.56
416.954	176.81
417.167	142.52
417.38	140
417.592	183.79
417.805	132.05
418.017	110.55
418.23	189.99
418.442	124.3
418.655	148.91
418.868	148.91
419.08	205.1
419.293	200.64
419.505	162.09
419.718	183.01
419.93	184.37
420.142	135.93
420.355	202.19
420.567	207.23
420.78	183.2
420.992	168.48
421.205	207.42
421.417	130.7
421.629	151.04
421.842	149.1
422.054	108.61
422.266	175.65
422.479	215.17
422.691	157.82
422.903	157.82
423.115	169.06
423.328	158.99
423.54	172.94
423.752	166.54
423.964	188.24
424.177	197.35
424.389	167.51
424.601	268.26
424.813	204.52
425.025	218.08
425.238	216.33
425.45	167.51
425.662	188.82
425.874	463.36
426.086	173.52
426.298	185.34
426.51	197.15
426.722	194.64
426.934	174.29
427.146	223.89
427.358	174.87
427.57	215.56
427.782	181.07
427.994	184.56
428.206	170.22
428.418	142.9
428.63	211.88
428.842	254.31
429.054	189.4
429.266	223.5
429.478	165.38
429.69	186.69
429.902	152.4
430.114	182.04
430.325	182.43
430.537	167.32
430.749	163.05
430.961	123.34
431.173	155.89
431.384	199.87
431.596	84.78
431.808	159.76
432.02	204.32
432.231	223.89
432.443	223.5
432.655	220.98
432.867	166.74
433.078	191.73
433.29	259.93
433.502	240.36
433.713	267.48
433.925	229.12
434.136	255.28
434.348	173.71
434.56	187.85
434.771	295.77
434.983	184.17
435.194	197.15
435.406	191.92
435.617	287.83
435.829	273.49
436.04	246.56
436.252	245.59
436.463	311.27
436.675	278.14
436.886	260.9
437.098	299.06
437.309	332.97
437.521	261.48
437.732	262.06
437.943	245.2
438.155	265.55
438.366	206.84
438.578	298.68
438.789	252.57
439	260.9
439.211	272.72
439.423	245.98
439.634	248.11
439.845	281.82
440.057	270.2
440.268	314.18
440.479	237.65
440.69	270.97
440.902	260.9
441.113	239
441.324	248.3
441.535	325.03
441.746	333.94
441.957	266.13
442.168	249.47
442.38	298.29
442.591	309.53
442.802	263.42
443.013	300.61
443.224	314.37
443.435	261.48
443.646	279.69
443.857	279.5
444.068	282.21
444.279	277.17
444.49	381.21
444.701	311.46
444.912	406.01
445.123	339.17
445.334	301.2
445.545	323.48
445.756	319.99
445.967	288.6
446.178	317.66
446.388	338.78
446.599	345.76
446.81	343.05
447.021	328.71
447.232	346.53
447.443	358.16
447.653	324.45
447.864	368.04
448.075	344.6
448.286	359.32
448.496	347.7
448.707	347.5
448.918	311.85
449.129	418.8
449.339	338.98
449.55	368.04
449.761	345.95
449.971	359.9
450.182	349.25
450.393	397.1
450.603	325.03
450.814	425.58
451.024	376.95
451.235	408.73
451.446	418.8
451.656	413.57
451.867	362.81
452.077	377.15
452.288	452.32
452.498	439.34
452.709	369.78
452.919	393.81
453.13	364.55
453.34	424.61
453.55	313.4
453.761	409.89
453.971	374.05
454.182	418.22
454.392	401.94
454.602	484.48
454.813	426.94
455.023	413.18
455.233	356.61
455.444	370.95
455.654	308.95
455.864	397.68
456.075	391.68
456.285	388.96
456.495	406.79
456.705	407.18
456.916	438.76
457.126	432.75
457.336	415.12
457.546	366.3
457.756	397.29
457.967	497.46
458.177	391.29
458.387	420.93
458.597	388.58
458.807	385.09
459.017	411.44
459.227	388.77
459.437	409.5
459.647	457.36
459.857	434.49
460.068	386.64
460.278	464.72
460.488	430.23
460.698	466.08
460.908	454.45
461.117	400.2
461.327	405.82
461.537	452.9
461.747	424.81
461.957	437.79
462.167	522.07
462.377	472.66
462.587	429.26
462.797	477.7
463.007	460.46
463.216	494.94
463.426	516.64
463.636	482.74
463.846	412.6
464.056	421.71
464.265	504.44
464.475	409.31
464.685	454.64
464.895	471.69
465.104	444.57
465.314	489.52
465.524	456
465.733	430.81
465.943	521.1
466.153	511.22
466.362	497.07
466.572	458.33
466.782	477.31
466.991	490.87
467.201	492.23
467.41	423.06
467.62	500.56
467.829	497.85
468.039	490.87
468.249	468.01
468.458	462.2
468.668	496.11
468.877	524.78
469.086	531.17
469.296	532.14
469.505	492.81
469.715	579.03
469.924	522.46
470.134	577.67
470.343	537.37
470.552	525.36
470.762	521.87
470.971	493.39
471.18	548.42
471.39	520.32
471.599	501.14
471.808	546.67
472.018	542.22
472.227	569.73
472.436	590.07
472.645	530.59
472.855	530.21
473.064	590.27
473.273	582.32
473.482	553.65
473.691	614.29
473.901	606.54
474.11	553.65
474.319	663.7
474.528	588.72
474.737	662.73
474.946	606.74
475.155	595.89
475.364	646.84
475.573	637.74
475.783	639.67
475.992	660.02
476.201	679.78
476.41	602.86
476.619	601.31
476.828	622.82
477.037	603.44
477.245	627.85
477.454	677.45
477.663	660.6
477.872	655.56
478.081	722.98
478.29	630.57
478.499	754.76
478.708	705.35
478.917	741.2
479.125	673.58
479.334	685.78
479.543	668.54
479.752	714.07
479.961	728.22
480.169	755.34
480.378	714.65
480.587	848.73
480.796	760.18
481.004	754.18
481.213	759.41
481.422	744.88
481.63	758.25
481.839	789.25
482.048	830.51
482.256	816.37
482.465	806.68
482.674	817.53
482.882	827.61
483.091	848.73
483.299	782.27
483.508	833.42
483.716	846.21
483.925	862.09
484.134	764.06
484.342	809.4
484.551	819.86
484.759	847.18
484.967	853.18
485.176	883.99
485.384	869.46
485.593	892.51
485.801	831.87
486.01	857.44
486.218	809.4
486.426	712.33
486.635	743.71
486.843	753.4
487.051	763.09
487.26	754.76
487.468	825.09
487.676	855.89
487.885	813.08
488.093	897.16
488.301	891.93
488.509	872.36
488.717	913.82
488.926	916.15
489.134	891.74
489.342	909.76
489.55	858.41
489.758	888.44
489.967	907.82
490.175	1003.92
490.383	971.37
490.591	1006.82
490.799	911.31
491.007	1012.44
491.215	992.29
491.423	975.24
491.631	934.75
491.839	958.19
492.047	999.85
492.255	916.73
492.463	934.56
492.671	934.36
492.879	983.19
493.087	976.99
493.295	1008.37
493.503	1008.95
493.711	1070.37
493.919	1067.08
494.127	1070.37
494.334	1058.17
494.542	1016.12
494.75	1027.55
494.958	1024.65
495.166	1096.92
495.374	1097.88
495.581	1082.39
495.789	1091.1
495.997	1148.26
496.205	1034.14
496.412	1086.26
496.62	1079.87
496.828	1103.5
497.035	1095.56
497.243	1140.9
497.451	1090.33
497.658	1134.12
497.866	1137.41
498.074	1194.18
498.281	1082.39
498.489	1215.49
498.696	1142.64
498.904	1086.45
499.112	1087.62
499.319	1170.54
499.527	1136.83
499.734	1191.08
499.942	1129.47
500.149	1137.8
500.357	1171.51
500.564	1116.87
500.771	1155.43
500.979	1109.32
501.186	1143.03
501.394	1172.67
501.601	1145.16
501.808	1189.14
502.016	1150.97
502.223	1140.7
502.43	1157.56
502.638	1163.76
502.845	1162.79
503.052	1262.38
503.26	1209.1
503.467	1283.3
503.674	1258.7
503.881	1245.13
504.089	1296.67
504.296	1215.68
504.503	1201.73
504.71	1252.69
504.917	1242.61
505.125	1281.36
505.332	1268.96
505.539	1320.5
505.746	1398
505.953	1342.2
506.16	1373.2
506.367	1417.18
506.574	1417.18
506.781	1422.41
506.988	1348.4
507.195	1390.83
507.402	1384.63
507.609	1448.76
507.816	1362.54
508.023	1412.53
508.23	1364.67
508.437	1359.44
508.644	1428.61
508.851	1469.88
509.058	1460.97
509.265	1484.8
509.472	1506.5
509.679	1561.91
509.885	1477.24
510.092	1497
510.299	1491.97
510.506	1521.8
510.713	1520.25
510.92	1547.18
511.126	1584.77
511.333	1607.83
511.54	1617.71
511.746	1652
511.953	1662.66
512.16	1691.53
512.367	1662.85
512.573	1616.35
512.78	1657.81
512.987	1639.99
513.193	1665.37
513.4	1601.82
513.606	1673.31
513.813	1646.19
514.02	1651.03
514.226	1716.52
514.433	1690.17
514.639	1679.71
514.846	1690.17
515.052	1666.34
515.259	1741.51
515.465	1758.37
515.672	1737.83
515.878	1845.36
516.085	1774.45
516.291	1853.31
516.497	1784.72
516.704	1804.48
516.91	1715.94
517.117	1687.07
517.323	1614.8
517.529	1666.34
517.736	1659.17
517.942	1701.41
518.148	1736.86
518.354	1804.09
518.561	1794.99
518.767	1748.68
518.973	1803.71
519.179	1872.1
519.386	1856.6
519.592	1874.23
519.798	1865.32
520.004	1993.77
520.21	1985.05
520.417	2049.96
520.623	2078.05
520.829	2070.11
521.035	2090.45
521.241	2089.68
521.447	2140.05
521.653	2244.87
521.859	2136.56
522.065	2197.21
522.271	2256.11
522.477	2261.72
522.683	2296.02
522.889	2254.56
523.095	2224.52
523.301	2207.86
523.507	2193.72
523.713	2260.37
523.919	2213.29
524.125	2342.52
524.331	2335.35
524.537	2436.68
524.742	2451.4
524.948	2430.67
525.154	2447.72
525.36	2555.06
525.566	2415.95
525.772	2515.34
525.977	2414.4
526.183	2473.68
526.389	2484.73
526.595	2419.82
526.8	2437.45
527.006	2340.97
527.212	2285.17
527.417	2244.09
527.623	2329.34
527.829	2416.72
528.034	2399.09
528.24	2413.62
528.446	2484.73
528.651	2562.23
528.857	2561.65
529.062	2646.51
529.268	2625.39
529.473	2667.24
529.679	2672.86
529.884	2755
530.09	2718.77
530.295	2717.42
530.501	2699.79
530.706	2719.16
530.912	2732.72
531.117	2747.45
531.323	2772.83
531.528	2866.41
531.733	2823.59
531.939	2739.7
532.144	2853.62
532.35	2823.59
532.555	2847.42
532.76	2792.2
532.966	2788.72
533.171	2718.77
533.376	2721.1
533.581	2735.63
533.787	2753.26
533.992	2824.37
534.197	2823.4
534.402	2848
534.607	2824.56
534.813	2926.08
535.018	2859.63
535.223	2905.16
535.428	2894.5
535.633	2970.65
535.838	2997.58
536.043	2992.73
536.249	3103.75
536.454	2963.09
536.659	3009.78
536.864	2985.76
537.069	2974.13
537.274	2979.36
537.479	2988.86
537.684	2967.93
537.889	2922.4
538.094	3081.08
538.299	3017.14
538.504	3044.46
538.708	3042.91
538.913	3094.45
539.118	3051.05
539.323	3096.58
539.528	3024.12
539.733	3001.65
539.938	3056.48
540.142	3017.73
540.347	3011.14
540.552	2937.13
540.757	2945.26
540.962	2949.72
541.166	2923.76
541.371	2942.16
541.576	2965.03
541.781	2901.48
541.985	3070.23
542.19	2989.63
542.395	3160.91
542.599	3117.12
542.804	3078.76
543.008	3127.58
543.213	3103.36
543.418	3066.16
543.622	3142.31
543.827	3022.38
544.031	3126.22
544.236	3159.16
544.44	3133.97
544.645	3231.24
544.849	3127
545.054	3228.72
545.258	3243.83
545.463	3231.62
545.667	3135.14
545.872	3220.19
546.076	3185.9
546.281	3171.95
546.485	3115.76
546.689	3159.16
546.894	3188.61
547.098	3221.35
547.302	3118.28
547.507	3160.52
547.711	3191.32
547.915	3223.87
548.119	3156.26
548.324	3135.33
548.528	3242.67
548.732	3181.64
548.936	3262.43
549.141	3225.62
549.345	3203.14
549.549	3261.07
549.753	3262.62
549.957	3283.35
550.161	3314.16
550.366	3255.84
550.57	3268.24
550.774	3272.5
550.978	3299.43
551.182	3279.48
551.386	3242.67
551.59	3211.86
551.794	3249.06
551.998	3312.61
552.202	3260.69
552.406	3220.39
552.61	3325.59
552.814	3304.47
553.018	3321.13
553.222	3238.21
553.426	3242.28
553.63	3322.1
553.833	3257.97
554.037	3217.29
554.241	3289.75
554.445	3280.25
554.649	3300.02
554.853	3257.97
555.056	3293.82
555.26	3296.72
555.464	3297.88
555.668	3309.7
555.871	3317.45
556.075	3333.34
556.279	3233.95
556.483	3236.27
556.686	3213.99
556.89	3248.48
557.094	3242.47
557.297	3130.68
557.501	3200.43
557.704	3102.2
557.908	3218.84
558.112	3137.46
558.315	3243.44
558.519	3143.27
558.722	3115.37
558.926	3125.45
559.129	3054.93
559.333	2995.45
559.536	3022.57
559.74	3009.98
559.943	2978.01
560.147	3014.82
560.35	2987.89
560.553	3043.69
560.757	3026.64
560.96	3121.57
561.164	3022.57
561.367	3117.7
561.57	3080.69
561.774	3048.92
561.977	3015.98
562.18	2986.53
562.384	3083.21
562.587	3017.34
562.79	3056.48
562.993	3004.36
563.197	3053.57
563.4	3077.01
563.603	3074.49
563.806	3089.41
564.009	2948.36
564.212	2993.51
564.416	2917.17
564.619	2979.17
564.822	2898.18
565.025	3009.59
565.228	2908.45
565.431	2969.48
565.634	2847.62
565.837	2870.28
566.04	2831.34
566.243	2819.52
566.446	2734.47
566.649	2802.47
566.852	2736.79
567.055	2796.47
567.258	2822.04
567.461	2884.43
567.664	2850.72
567.867	2773.41
568.07	2825.34
568.273	2794.53
568.475	2830.76
568.678	2733.89
568.881	2735.24
569.084	2724.01
569.287	2587.8
569.489	2623.64
569.692	2704.24
569.895	2699.4
570.098	2633.14
570.3	2615.51
570.503	2540.33
570.706	2573.66
570.909	2516.7
571.111	2440.36
571.314	2434.55
571.516	2471.94
571.719	2527.55
571.922	2478.14
572.124	2470.78
572.327	2517.08
572.529	2436.48
572.732	2456.05
572.935	2487.05
573.137	2563.39
573.34	2427.38
573.542	2540.72
573.745	2517.66
573.947	2469.62
574.15	2437.07
574.352	2403.74
574.554	2482.98
574.757	2404.52
574.959	2365.57
575.162	2396.18
575.364	2366.93
575.566	2459.54
575.769	2316.17
575.971	2328.37
576.173	2254.56
576.376	2325.66
576.578	2346.39
576.78	2352.98
576.982	2274.9
577.185	2339.8
577.387	2252.42
577.589	2278.39
577.791	2320.82
577.993	2343.1
578.196	2263.47
578.398	2291.37
578.6	2285.75
578.802	2195.27
579.004	2214.06
579.206	2197.59
579.408	2286.14
579.61	2190.62
579.812	2258.04
580.014	2212.51
580.216	2215.61
580.418	2266.76
580.62	2228.98
580.822	2196.63
581.024	2243.12
581.226	2297.18
581.428	2232.86
581.63	2339.03
581.832	2246.61
582.034	2320.82
582.236	2261.92
582.438	2325.85
582.64	2340
582.841	2319.65
583.043	2406.84
583.245	2300.28
583.447	2374.49
583.649	2291.17
583.85	2319.85
584.052	2321.79
584.254	2264.24
584.456	2326.24
584.657	2290.79
584.859	2286.91
585.061	2226.85
585.262	2230.92
585.464	2184.03
585.666	2276.64
585.867	2169.89
586.069	2255.14
586.27	2225.69
586.472	2212.32
586.674	2209.22
586.875	2180.35
587.077	2172.99
587.278	2175.12
587.48	2206.89
587.681	2250.1
587.883	2182.68
588.084	2086.96
588.285	2125.33
588.487	2127.46
588.688	2147.8
588.89	2022.25
589.091	1975.95
589.292	1923.05
589.494	1900.19
589.695	1873.45
589.896	1789.37
590.098	1790.92
590.299	1841.29
590.5	1832.77
590.702	1904.07
590.903	1924.99
591.104	1999.78
591.305	1992.61
591.507	2016.44
591.708	2006.17
591.909	1940.1
592.11	2021.28
592.311	1998.23
592.512	1933.9
592.714	1923.25
592.915	1950.57
593.116	1927.51
593.317	1993
593.518	1983.7
593.719	1955.02
593.92	1989.12
594.121	2031.17
594.322	2001.91
594.523	1994.55
594.724	1923.25
594.925	1941.46
595.126	1927.12
595.327	1927.9
595.528	1955.8
595.729	1953.67
595.929	1935.65
596.13	1961.03
596.331	2025.35
596.532	2005.2
596.733	2055.96
596.934	1998.42
597.135	2000.36
597.335	2005.4
597.536	1948.24
597.737	1960.06
597.938	1939.33
598.138	1975.95
598.339	1968.2
598.54	1989.32
598.74	1946.89
598.941	1947.27
599.142	2006.75
599.342	1995.71
599.543	1939.91
599.744	1940.69
599.944	1952.31
600.145	1962.97
600.345	1946.11
600.546	2015.28
600.746	2010.82
600.947	2016.05
601.147	1949.99
601.348	2009.47
601.548	1950.18
601.749	1952.5
601.949	1918.4
602.15	1940.69
602.35	1940.88
602.551	1974.98
602.751	1934.1
602.951	1916.66
603.152	1897.29
603.352	1991.45
603.552	1948.44
603.753	1973.23
603.953	2011.21
604.153	1935.07
604.354	1960.83
604.554	1947.85
604.754	1970.91
604.954	1916.47
605.155	1967.62
605.355	1941.27
605.555	1961.42
605.755	1987.77
605.955	1937.2
606.155	1955.6
606.356	1966.65
606.556	1985.83
606.756	1932.16
606.956	1866.29
607.156	1936.81
607.356	1876.94
607.556	1895.54
607.756	1896.9
607.956	1964.32
608.156	1874.04
608.356	1851.56
608.556	1929.64
608.756	1911.62
608.956	1877.72
609.156	1878.1
609.356	1805.64
609.556	1812.04
609.755	1892.05
609.955	1814.36
610.155	1834.9
610.355	1859.12
610.555	1794.6
610.755	1807.58
610.954	1751.01
611.154	1839.36
611.354	1862.02
611.554	1802.16
611.753	1831.99
611.953	1769.99
612.153	1834.12
612.352	1841.29
612.552	1742.48
612.752	1748.1
612.951	1785.49
613.151	1757.4
613.351	1729.69
613.55	1762.44
613.75	1787.04
613.949	1730.47
614.149	1741.13
614.348	1703.34
614.548	1673.7
614.747	1672.15
614.947	1668.28
615.146	1664.6
615.346	1777.16
615.545	1753.72
615.745	1721.94
615.944	1705.48
616.144	1677.96
616.343	1727.76
616.542	1677.77
616.742	1671.76
616.941	1665.18
617.14	1588.84
617.34	1680.29
617.539	1633.98
617.738	1648.32
617.938	1715.36
618.137	1629.72
618.336	1640.38
618.535	1683.39
618.734	1678.74
618.934	1654.13
619.133	1692.3
619.332	1676.61
619.531	1587.87
619.73	1646.19
619.929	1682.81
620.128	1639.6
620.328	1708.96
620.527	1618.48
620.726	1653.55
620.925	1675.45
621.124	1628.36
621.323	1646.38
621.522	1580.51
621.721	1610.15
621.92	1604.92
622.119	1630.88
622.318	1597.95
622.517	1601.63
622.715	1605.31
622.914	1540.21
623.113	1560.75
623.312	1515.41
623.511	1564.82
623.71	1541.37
623.909	1548.93
624.107	1596.2
624.306	1496.23
624.505	1503.4
624.704	1528.78
624.902	1500.1
625.101	1555.52
625.3	1503.79
625.499	1494.1
625.697	1482.86
625.896	1478.79
626.095	1509.02
626.293	1405.56
626.492	1470.65
626.69	1455.74
626.889	1467.36
627.088	1497
627.286	1455.15
627.485	1465.04
627.683	1436.17
627.882	1465.04
628.08	1355.96
628.279	1371.26
628.477	1463.29
628.676	1352.27
628.874	1404.97
629.073	1391.22
629.271	1379.21
629.469	1409.62
629.668	1378.62
629.866	1364.67
630.065	1372.81
630.263	1391.02
630.461	1404.97
630.66	1392.96
630.858	1434.62
631.056	1473.95
631.254	1465.42
631.453	1422.99
631.651	1415.44
631.849	1381.14
632.047	1440.82
632.245	1407.69
632.444	1434.81
632.642	1456.12
632.84	1460.39
633.038	1427.84
633.236	1386.57
633.434	1441.59
633.632	1384.44
633.83	1392.38
634.028	1454.96
634.227	1443.34
634.425	1479.95
634.623	1413.31
634.821	1436.55
635.019	1441.59
635.216	1420.09
635.414	1473.75
635.612	1461.74
635.81	1431.52
636.008	1496.23
636.206	1468.52
636.404	1436.94
636.602	1381.14
636.8	1411.95
636.997	1473.17
637.195	1463.29
637.393	1412.53
637.591	1506.89
637.789	1451.86
637.986	1409.04
638.184	1411.76
638.382	1477.82
638.58	1452.83
638.777	1495.84
638.975	1417.37
639.173	1414.66
639.37	1410.59
639.568	1429.39
639.765	1421.06
639.963	1430.36
640.161	1473.56
640.358	1443.92
640.556	1356.15
640.753	1340.07
640.951	1367.97
641.148	1388.12
641.346	1369.71
641.543	1361.77
641.741	1370.49
641.938	1340.07
642.136	1353.82
642.333	1297.83
642.531	1348.79
642.728	1420.67
642.925	1345.11
643.123	1356.73
643.32	1354.41
643.517	1328.64
643.715	1351.69
643.912	1320.69
644.109	1342.59
644.306	1342.39
644.504	1309.07
644.701	1319.14
644.898	1325.15
645.095	1268.19
645.293	1278.84
645.49	1273.23
645.687	1283.3
645.884	1315.27
646.081	1210.06
646.278	1225.95
646.475	1218.98
646.672	1222.46
646.87	1255.01
647.067	1224.79
647.264	1226.92
647.461	1171.7
647.658	1172.28
647.855	1189.91
648.052	1168.41
648.249	1097.88
648.446	1153.68
648.642	1163.76
648.839	1132.76
649.036	1138.38
649.233	1100.02
649.43	1100.02
649.627	1076.57
649.824	1102.15
650.021	1100.98
650.217	1092.07
650.414	1128.88
650.611	1142.06
650.808	1127.14
651.004	1176.93
651.201	1136.63
651.398	1210.65
651.595	1105.44
651.791	1100.21
651.988	1123.27
652.185	1082.58
652.381	1128.69
652.578	1092.85
652.775	1117.07
652.971	1097.88
653.168	1117.65
653.364	1122.49
653.561	1066.3
653.757	1109.7
653.954	1130.63
654.15	1084.52
654.347	1170.93
654.543	1114.93
654.74	1046.74
654.936	1069.99
655.133	1101.57
655.329	1087.81
655.525	1061.85
655.722	1096.92
655.918	1011.67
656.115	1023.49
656.311	943.08
656.507	911.11
656.704	898.13
656.9	912.47
657.096	927.39
657.292	936.88
657.489	944.82
657.685	952.19
657.881	955.09
658.077	992.68
658.273	992.49
658.47	1076.57
658.666	1036.27
658.862	1029.88
659.058	1005.85
659.254	1072.89
659.45	1003.14
659.646	1061.46
659.842	1009.54
660.038	1071.54
660.234	994.23
660.43	1001.79
660.626	1079.29
660.822	1057
661.018	1032.98
661.214	994.81
661.41	994.04
661.606	1030.46
661.802	1041.12
661.998	1019.22
662.194	963.42
662.39	1026.39
662.586	1073.86
662.781	990.36
662.977	1027.94
663.173	1026.39
663.369	1001.59
663.564	1022.52
663.76	1020
663.956	997.72
664.152	1024.45
664.347	917.51
664.543	993.46
664.739	960.32
664.934	904.14
665.13	938.24
665.326	1013.6
665.521	966.14
665.717	927.58
665.912	932.23
666.108	896.97
666.304	913.82
666.499	935.91
666.695	893.29
666.89	939.4
667.086	977.57
667.281	944.05
667.477	996.94
667.672	954.12
667.867	918.09
668.063	935.72
668.258	906.85
668.454	924.29
668.649	1019.03
668.844	923.12
669.04	941.14
669.235	906.66
669.43	869.07
669.626	880.69
669.821	910.72
670.016	868.68
670.211	902.2
670.407	872.56
670.602	924.09
670.797	872.94
670.992	901.62
671.187	871.2
671.382	896.58
671.578	854.54
671.773	903.17
671.968	815.21
672.163	884.38
672.358	868.49
672.553	838.65
672.748	867.33
672.943	901.43
673.138	845.63
673.333	900.07
673.528	817.73
673.723	889.61
673.918	845.24
674.113	844.66
674.308	912.66
674.503	872.17
674.698	867.91
674.892	861.13
675.087	869.46
675.282	876.63
675.477	844.66
675.672	873.91
675.867	841.94
676.061	850.08
676.256	779.75
676.451	813.08
676.646	807.07
676.84	822.96
677.035	808.81
677.23	834.78
677.424	848.73
677.619	876.43
677.814	875.85
678.008	874.11
678.203	804.36
678.397	831.48
678.592	856.67
678.787	879.14
678.981	822.76
679.176	870.43
679.37	832.45
679.565	837.29
679.759	829.93
679.954	855.89
680.148	892.32
680.342	887.86
680.537	882.83
680.731	810.56
680.926	874.3
681.12	893.87
681.314	824.7
681.509	844.66
681.703	866.74
681.897	858.61
682.092	834.78
682.286	815.6
682.48	916.54
682.674	872.94
682.869	847.56
683.063	836.71
683.257	910.92
683.451	845.04
683.645	864.81
683.839	877.98
684.034	869.07
684.228	906.27
684.422	852.99
684.616	867.91
684.81	881.47
685.004	854.54
685.198	868.49
685.392	916.34
685.586	848.53
685.78	889.22
685.974	911.5
686.168	908.59
686.362	956.64
686.556	834.39
686.75	821.8
686.944	764.83
687.138	771.81
687.331	707.68
687.525	719.3
687.719	627.66
687.913	681.52
688.107	730.15
688.301	685.2
688.494	715.82
688.688	698.96
688.882	692.95
689.076	696.44
689.269	715.82
689.463	814.82
689.657	743.33
689.85	780.72
690.044	781.88
690.238	807.46
690.431	818.89
690.625	805.33
690.818	852.6
691.012	865.39
691.205	887.86
691.399	867.52
691.593	942.31
691.786	990.36
691.98	1013.41
692.173	1018.25
692.366	1030.46
692.56	1032.2
692.753	1089.94
692.947	1019.8
693.14	1105.25
693.333	1121.52
693.527	1063.2
693.72	1131.02
693.914	1112.22
694.107	1120.55
694.3	1139.35
694.493	1105.83
694.687	1191.46
694.88	1169.77
695.073	1250.75
695.266	1245.13
695.46	1235.45
695.653	1287.18
695.846	1280.2
696.039	1259.28
696.232	1277.1
696.425	1360.61
696.618	1387.15
696.812	1391.02
697.005	1455.54
697.198	1578.18
697.391	1487.9
697.584	1562.68
697.777	1616.35
697.97	1552.61
698.163	1603.18
698.356	1597.37
698.549	1674.67
698.742	1662.66
698.935	1618.29
699.127	1627.78
699.32	1644.64
699.513	1643.28
699.706	1685.91
699.899	1670.6
700.092	1677.77
700.285	1727.76
700.477	1655.88
700.67	1756.82
700.863	1767.48
701.056	1833.35
701.248	1839.94
701.441	1859.7
701.634	1846.14
701.826	1918.02
702.019	1829.28
702.212	1886.05
702.404	1864.93
702.597	1878.69
702.79	1932.55
702.982	1927.7
703.175	1993.77
703.367	2022.83
703.56	2106.73
703.752	2131.14
703.945	2119.32
704.137	2106.92
704.33	2177.83
704.522	2209.61
704.715	2201.08
704.907	2217.74
705.1	2287.69
705.292	2279.36
705.484	2265.21
705.677	2291.76
705.869	2358.4
706.061	2359.37
706.254	2373.71
706.446	2362.28
706.638	2381.27
706.831	2465.16
707.023	2439.78
707.215	2556.8
707.407	2535.49
707.599	2513.4
707.792	2598.26
707.984	2611.63
708.176	2598.26
708.368	2572.11
708.56	2648.44
708.752	2618.8
708.944	2658.71
709.136	2728.07
709.329	2667.82
709.521	2818.75
709.713	2766.63
709.905	2761.59
710.097	2841.22
710.289	2812.16
710.481	2806.93
710.672	2781.94
710.864	2866.22
711.056	2893.15
711.248	2893.92
711.44	2912.91
711.632	2940.61
711.824	2967.55
712.016	3018.31
712.207	2997.58
712.399	3055.89
712.591	3069.65
712.783	3029.16
712.975	3052.41
713.166	3032.84
713.358	3088.25
713.55	3122.74
713.741	3145.02
713.933	3134.36
714.125	3151.61
714.316	3062.48
714.508	3208.37
714.7	3198.49
714.891	3182.6
715.083	3216.51
715.274	3158.39
715.466	3178.34
715.657	3240.92
715.849	3112.27
716.04	3148.51
716.232	3096.58
716.423	3088.83
716.615	3001.26
716.806	2945.26
716.998	2896.05
717.189	2770.31
717.381	2701.34
717.572	2618.61
717.763	2624.03
717.955	2563.2
718.146	2487.83
718.337	2485.31
718.528	2407.23
718.72	2353.75
718.911	2337.48
719.102	2304.93
719.293	2370.03
719.485	2319.85
719.676	2295.63
719.867	2266.57
720.058	2287.49
720.249	2268.89
720.44	2300.47
720.632	2364.8
720.823	2446.75
721.014	2593.81
721.205	2617.44
721.396	2764.11
721.587	2820.49
721.778	2934.61
721.969	2959.21
722.16	3071.2
722.351	3108.4
722.542	3221.74
722.733	3233.17
722.924	3126.81
723.115	3157.22
723.305	3148.51
723.496	3121.77
723.687	3007.65
723.878	2995.06
724.069	2953.98
724.26	3003.78
724.45	2886.56
724.641	2912.33
724.832	2962.7
725.023	2873.77
725.213	2887.33
725.404	2835.41
725.595	2841.22
725.785	2823.4
725.976	2923.56
726.167	2889.85
726.357	2903.22
726.548	2988.28
726.739	2933.64
726.929	3058.99
727.12	3015.79
727.31	3036.33
727.501	2972
727.691	2970.26
727.882	2989.63
728.072	3060.16
728.263	3069.46
728.453	3139.21
728.644	3139.21
728.834	3083.6
729.024	3075.27
729.215	3038.46
729.405	3064.23
729.596	3161.1
729.786	3164.78
729.976	3213.22
730.167	3177.76
730.357	3180.47
730.547	3159.74
730.737	3212.05
730.928	3200.04
731.118	3286.45
731.308	3197.33
731.498	3257.39
731.688	3355.23
731.879	3396.7
732.069	3414.52
732.259	3442.81
732.449	3498.41
732.639	3557.31
732.829	3599.16
733.019	3710.18
733.209	3746.41
733.399	3775.08
733.589	3860.72
733.779	3897.34
733.969	3949.84
734.159	4010.1
734.349	4048.66
734.539	4076.36
734.729	4085.85
734.919	4132.94
735.109	4174.4
735.299	4085.47
735.488	4122.28
735.678	4123.44
735.868	4139.52
736.058	4087.99
736.248	4091.47
736.437	4093.6
736.627	4040.32
736.817	4184.47
737.007	4102.71
737.196	4193.77
737.386	4158.32
737.576	4138.17
737.765	4242.21
737.955	4199.58
738.144	4292.78
738.334	4251.51
738.524	4162
738.713	4235.23
738.903	4197.65
739.092	4248.8
739.282	4233.88
739.471	4296.26
739.661	4270.5
739.85	4351.09
740.04	4316.22
740.229	4332.88
740.419	4380.54
740.608	4409.22
740.797	4355.94
740.987	4449.71
741.176	4416.58
741.365	4431.11
741.555	4317.38
741.744	4527.02
741.933	4457.46
742.123	4444.09
742.312	4490.79
742.501	4548.91
742.69	4495.82
742.88	4395.27
743.069	4546.2
743.258	4518.69
743.447	4555.3
743.636	4535.54
743.825	4509.39
744.014	4552.59
744.204	4551.82
744.393	4531.86
744.582	4591.92
744.771	4637.65
744.96	4590.18
745.149	4633.19
745.338	4572.94
745.527	4639.58
745.716	4591.73
745.905	4541.94
746.094	4648.88
746.283	4581.46
746.471	4588.24
746.66	4675.62
746.849	4657.99
747.038	4639.39
747.227	4608.97
747.416	4619.82
747.604	4629.12
747.793	4581.27
747.982	4615.17
748.171	4617.5
748.359	4608.58
748.548	4626.02
748.737	4599.87
748.926	4625.44
749.114	4475.48
749.303	4605.29
749.491	4551.62
749.68	4470.44
749.869	4584.56
750.057	4555.89
750.246	4514.04
750.434	4519.27
750.623	4527.4
750.811	4526.44
751	4517.33
751.188	4477.61
751.377	4510.94
751.565	4502.6
751.754	4453.01
751.942	4457.27
752.131	4526.05
752.319	4445.84
752.507	4410.77
752.696	4452.04
752.884	4528.57
753.072	4451.84
753.261	4461.14
753.449	4422.59
753.637	4394.11
753.825	4526.82
754.014	4453.78
754.202	4441.57
754.39	4498.73
754.578	4450.68
754.766	4406.12
754.955	4407.86
755.143	4474.51
755.331	4408.06
755.519	4448.16
755.707	4378.8
755.895	4362.33
756.083	4380.93
756.271	4339.47
756.459	4366.59
756.647	4367.95
756.835	4343.54
757.023	4361.56
757.211	4347.41
757.399	4326.68
757.587	4320.87
757.775	4230.39
757.963	4289.1
758.151	4309.25
758.339	4188.35
758.526	4224.38
758.714	4226.52
758.902	4097.67
759.09	4013.2
759.278	3746.6
759.465	3436.8
759.653	2983.05
759.841	2700.17
760.028	2362.28
760.216	2053.25
760.404	1902.13
760.591	1550.48
760.779	1282.53
760.967	1101.57
761.154	952.96
761.342	953.35
761.529	907.04
761.717	978.54
761.905	960.71
762.092	1045.96
762.28	966.91
762.467	968.27
762.655	885.15
762.842	890.38
763.029	925.06
763.217	937.07
763.404	921.77
763.592	941.92
763.779	893.48
763.966	930.29
764.154	1013.02
764.341	1051.97
764.528	1069.02
764.716	1136.63
764.903	1217.62
765.09	1302.87
765.277	1354.41
765.465	1547.96
765.652	1619.45
765.839	1736.09
766.026	1874.81
766.213	1991.64
766.4	2101.5
766.588	2287.3
766.775	2335.93
766.962	2467.48
767.149	2586.06
767.336	2773.02
767.523	2761.79
767.71	2942.94
767.897	3110.34
768.084	3129.91
768.271	3219.61
768.458	3260.88
768.645	3389.91
768.832	3381
769.019	3435.83
769.206	3463.73
769.392	3538.71
769.579	3633.45
769.766	3652.25
769.953	3615.05
770.14	3702.82
770.327	3644.69
770.513	3746.02
770.7	3826.43
770.887	3698.17
771.073	3793.49
771.26	3845.61
771.447	3739.82
771.634	3748.15
771.82	3803.76
772.007	3734.98
772.193	3838.25
772.38	3858.01
772.567	3771.79
772.753	3799.88
772.94	3852.39
773.126	3852.39
773.313	3820.61
773.499	3798.72
773.686	3859.17
773.872	3781.87
774.059	3800.27
774.245	3813.06
774.432	3783.42
774.618	3747.57
774.804	3743.31
774.991	3766.17
775.177	3783.03
775.363	3719.87
775.55	3823.71
775.736	3712.31
775.922	3760.36
776.109	3711.34
776.295	3712.89
776.481	3765.4
776.667	3746.02
776.853	3687.9
777.04	3706.69
777.226	3673.95
777.412	3739.24
777.598	3683.83
777.784	3679.95
777.97	3607.69
778.156	3706.88
778.342	3643.72
778.528	3652.25
778.715	3600.32
778.901	3620.86
779.087	3647.79
779.272	3547.43
779.458	3594.32
779.644	3636.55
779.83	3568.36
780.016	3674.14
780.202	3586.76
780.388	3558.67
780.574	3494.15
780.76	3529.22
780.946	3623.38
781.131	3568.36
781.317	3537.94
781.503	3512.17
781.689	3465.86
781.874	3601.29
782.06	3487.37
782.246	3525.34
782.432	3512.17
782.617	3530.96
782.803	3568.94
782.989	3438.35
783.174	3411.81
783.36	3389.33
783.545	3437
783.731	3408.51
783.916	3330.24
784.102	3435.25
784.288	3353.68
784.473	3396.89
784.659	3355.62
784.844	3437.38
785.029	3343.8
785.215	3324.62
785.4	3299.82
785.586	3376.35
785.771	3289.36
785.956	3381.58
786.142	3334.12
786.327	3302.92
786.512	3313.19
786.698	3321.52
786.883	3222.32
787.068	3263.01
787.254	3285.1
787.439	3222.71
787.624	3236.66
787.809	3209.15
787.994	3188.61
788.18	3225.04
788.365	3169.62
788.55	3155.48
788.735	3133.2
788.92	3144.24
789.105	3153.93
789.29	3137.27
789.475	3057.44
789.66	3039.23
789.845	3063.64
790.03	3058.99
790.215	3062.09
790.4	3122.16
790.585	3100.65
790.77	3078.95
790.955	3007.84
791.14	3015.4
791.325	3078.76
791.51	2986.92
791.695	3034.97
791.879	3008.23
792.064	2959.41
792.249	3061.32
792.434	2967.93
792.618	3009.98
792.803	3053.96
792.988	2992.54
793.173	3005.13
793.357	3041.36
793.542	2990.8
793.727	3037.29
793.911	3081.08
794.096	3029.16
794.281	3087.28
794.465	3134.94
794.65	3044.85
794.834	3119.64
795.019	3121.77
795.203	3106.27
795.388	3118.09
795.572	3151.22
795.757	3076.24
795.941	3091.93
796.126	3083.02
796.31	2984.98
796.494	3011.72
796.679	3017.73
796.863	2989.25
797.048	3104.91
797.232	3077.79
797.416	3037.1
797.601	3080.89
797.785	3144.24
797.969	3133.97
798.153	3067.52
798.338	3165.17
798.522	3136.49
798.706	3117.31
798.89	3124.67
799.074	3224.45
799.258	3195.59
799.443	3148.89
799.627	3122.93
799.811	3195.97
799.995	3083.21
800.179	3089.22
800.363	3050.66
800.547	3129.91
800.731	3107.24
800.915	3041.94
801.099	3032.84
801.283	3055.12
801.467	3071.98
801.651	3048.92
801.835	3090.19
802.019	3095.81
802.202	3092.13
802.386	3015.59
802.57	2999.9
802.754	3045.63
802.938	3022.38
803.121	3041.17
803.305	3091.16
803.489	3031.29
803.673	3066.36
803.856	3032.64
804.04	3029.74
804.224	3038.07
804.407	3026.06
804.591	3042.53
804.775	3018.5
804.958	3087.09
805.142	3087.09
805.326	3038.65
805.509	3078.18
805.693	3105.3
805.876	3092.9
806.06	3126.22
806.243	3153.35
806.427	3123.51
806.61	3144.44
806.794	3114.79
806.977	3109.95
807.16	3091.74
807.344	3155.29
807.527	3103.17
807.71	3079.14
807.894	3067.91
808.077	3101.23
808.26	3075.66
808.444	3034.19
808.627	3136.88
808.81	3025.48
808.993	2963.09
809.177	2962.12
809.36	3007.46
809.543	2981.5
809.726	2887.33
809.909	2911.75
810.092	2878.81
810.276	2876.87
810.459	2903.61
810.642	2898.96
810.825	2820.49
811.008	2853.62
811.191	2753.26
811.374	2717.03
811.557	2753.45
811.74	2776.7
811.923	2669.76
812.106	2697.46
812.289	2648.64
812.472	2629.65
812.654	2624.61
812.837	2575.21
813.02	2505.85
813.203	2492.86
813.386	2421.37
813.569	2357.05
813.751	2301.44
813.934	2327.4
814.117	2277.42
814.3	2242.93
814.482	2185.97
814.665	2173.57
814.848	2098.2
815.03	2070.88
815.213	2012.76
815.396	2022.83
815.578	1993.97
815.761	1955.99
815.943	2008.88
816.126	1876.55
816.309	1863.38
816.491	1811.84
816.674	1737.64
816.856	1821.53
817.039	1794.41
817.221	1856.99
817.403	1848.85
817.586	1803.9
817.768	1839.55
817.951	1763.41
818.133	1733.96
818.315	1771.74
818.498	1787.62
818.68	1861.25
818.862	1855.63
819.045	1867.45
819.227	1873.26
819.409	1836.26
819.591	1873.45
819.774	1864.93
819.956	1814.75
820.138	1914.34
820.32	1931.77
820.502	2034.27
820.684	2081.54
820.866	2067.78
821.048	2136.76
821.231	2156.13
821.413	2149.74
821.595	2099.36
821.777	2162.72
821.959	2133.08
822.141	2201.66
822.323	2036.4
822.505	1945.14
822.686	1895.54
822.868	1796.34
823.05	1665.56
823.232	1637.66
823.414	1569.47
823.596	1631.66
823.778	1629.33
823.96	1642.9
824.141	1685.13
824.323	1718.84
824.505	1791.69
824.687	1882.75
824.868	1943.4
825.05	2045.12
825.232	2077.28
825.413	2149.35
825.595	2118.74
825.777	2038.72
825.958	2070.5
826.14	2034.07
826.321	2106.92
826.503	2068.17
826.685	2101.5
826.866	2127.26
827.048	2139.28
827.229	1997.84
827.411	1980.79
827.592	1936.62
827.773	1969.94
827.955	1880.43
828.136	1894.57
828.318	1841.49
828.499	1902.32
828.68	1823.27
828.862	1882.75
829.043	1887.99
829.224	1842.26
829.406	1786.66
829.587	1858.92
829.768	1881.98
829.949	1878.49
830.131	1876.94
830.312	1931.77
830.493	1870.16
830.674	1879.07
830.855	1861.83
831.036	1824.24
831.218	1940.88
831.399	1931.77
831.58	1888.37
831.761	1864.74
831.942	1887.21
832.123	1891.67
832.304	1815.72
832.485	1835.48
832.666	1874.42
832.847	1914.14
833.028	1894.19
833.209	1867.84
833.389	1851.56
833.57	1804.29
833.751	1862.61
833.932	1917.82
834.113	1855.24
834.294	1873.45
834.475	1907.17
834.655	1930.8
834.836	1956.38
835.017	1949.02
835.198	1856.02
835.378	1891.67
835.559	1976.53
835.74	1924.99
835.92	1887.6
836.101	1890.5
836.281	1968.39
836.462	1939.33
836.643	1980.79
836.823	2039.11
837.004	1977.3
837.184	2026.32
837.365	1985.44
837.545	1979.43
837.726	1965.68
837.906	1989.12
838.087	1949.02
838.267	1970.91
838.448	1954.83
838.628	1973.23
838.808	1970.13
838.989	1943.79
839.169	1962
839.349	1977.11
839.53	1979.82
839.71	1999.97
839.89	1948.63
840.07	2072.05
840.251	1972.46
840.431	1984.67
840.611	1989.12
840.791	1954.83
840.971	1990.28
841.151	1956.38
841.332	1926.54
841.512	2035.04
841.692	1897.87
841.872	1927.32
842.052	1933.9
842.232	1976.53
842.412	1919.95
842.592	1944.75
842.772	1998.42
842.952	1966.45
843.132	1927.12
843.312	1898.06
843.492	1900.39
843.672	1988.73
843.851	1881.98
844.031	1915.89
844.211	1979.05
844.391	1886.82
844.571	1953.86
844.751	1928.48
844.93	1963.35
845.11	1949.02
845.29	1918.99
845.47	1917.24
845.649	1939.14
845.829	1943.4
846.009	1918.6
846.188	1928.29
846.368	1939.52
846.547	1947.27
846.727	1952.5
846.907	1884.5
847.086	1938.94
847.266	1936.81
847.445	1912.59
847.625	1886.44
847.804	1878.49
847.984	1862.41
848.163	1868.61
848.343	1892.44
848.522	1873.26
848.701	1912.98
848.881	1859.51
849.06	1890.89
849.239	1837.81
849.419	1851.95
849.598	1809.91
849.777	1801.19
849.957	1755.66
850.136	1716.71
850.315	1720.59
850.494	1663.24
850.674	1721.17
850.853	1773.29
851.032	1739.38
851.211	1776.19
851.39	1759.92
851.569	1721.94
851.748	1720.39
851.927	1768.44
852.107	1719.04
852.286	1708.19
852.465	1684.94
852.644	1780.07
852.823	1769.41
853.002	1737.44
853.181	1741.9
853.359	1730.47
853.538	1673.7
853.717	1692.11
853.896	1620.03
854.075	1551.83
854.254	1528.78
854.433	1481.7
854.611	1490.22
854.79	1439.27
854.969	1464.65
855.148	1546.22
855.327	1500.3
855.505	1514.05
855.684	1563.27
855.863	1557.84
856.041	1585.93
856.22	1624.3
856.399	1544.47
856.577	1681.65
856.756	1653.94
856.934	1715.36
857.113	1751.39
857.291	1671.96
857.47	1616.55
857.648	1683.58
857.827	1658.59
858.005	1686.68
858.184	1644.45
858.362	1720.2
858.541	1631.08
858.719	1610.15
858.898	1624.49
859.076	1644.83
859.254	1694.82
859.433	1627.01
859.611	1608.99
859.789	1597.56
859.967	1687.85
860.146	1656.46
860.324	1574.31
860.502	1657.81
860.68	1543.7
860.859	1608.99
861.037	1565.2
861.215	1615.38
861.393	1599.69
861.571	1591.94
861.749	1594.07
861.927	1573.34
862.105	1573.34
862.283	1597.37
862.461	1559.2
862.639	1538.27
862.817	1545.05
862.995	1564.62
863.173	1536.33
863.351	1546.02
863.529	1604.92
863.707	1582.64
863.885	1589.23
864.063	1523.93
864.241	1522.97
864.418	1599.88
864.596	1490.8
864.774	1445.27
864.952	1512.89
865.129	1502.82
865.307	1499.33
865.485	1470.65
865.663	1551.25
865.84	1428.81
866.018	1437.33
866.196	1315.08
866.373	1339.1
866.551	1264.7
866.728	1261.79
866.906	1297.44
867.084	1288.92
867.261	1367.77
867.439	1362.16
867.616	1387.92
867.794	1366.61
867.971	1429.58
868.149	1381.53
868.326	1443.72
868.503	1450.31
868.681	1405.75
868.858	1399.55
869.035	1414.08
869.213	1441.01
869.39	1425.32
869.567	1483.05
869.745	1400.91
869.922	1433.07
870.099	1431.32
870.276	1399.16
870.454	1428.61
870.631	1437.14
870.808	1412.34
870.985	1438.3
871.162	1436.75
871.339	1387.34
871.517	1340.65
871.694	1378.04
871.871	1369.13
872.048	1383.27
872.225	1365.26
872.402	1379.79
872.579	1351.89
872.756	1376.88
872.933	1327.09
873.11	1350.53
873.287	1359.25
873.463	1308.29
873.64	1293.76
873.817	1346.66
873.994	1347.62
874.171	1314.3
874.348	1317.79
874.524	1283.88
874.701	1336.19
874.878	1264.89
875.055	1330.38
875.231	1338.71
875.408	1330.38
875.585	1252.3
875.762	1301.32
875.938	1295.12
876.115	1292.02
876.291	1262.76
876.468	1261.79
876.645	1268.38
876.821	1243.58
876.998	1242.61
877.174	1281.36
877.351	1263.93
877.527	1277.88
877.704	1254.24
877.88	1254.63
878.057	1212.2
878.233	1274.39
878.409	1250.36
878.586	1261.6
878.762	1229.05
878.938	1231.96
879.115	1156.59
879.291	1240.1
879.467	1170.54
879.644	1228.28
879.82	1234.28
879.996	1205.8
880.172	1156.98
880.349	1183.91
880.525	1219.95
880.701	1162.79
880.877	1163.95
881.053	1206.19
881.229	1162.79
881.405	1199.02
881.581	1155.62
881.757	1192.05
881.933	1217.81
882.109	1213.36
882.285	1189.33
882.461	1105.44
882.637	1183.91
882.813	1139.54
882.989	1179.26
883.165	1230.6
883.341	1146.9
883.517	1200.18
883.693	1170.73
883.869	1200.96
884.044	1180.42
884.22	1192.82
884.396	1249.59
884.572	1203.67
884.747	1231.76
884.923	1214.71
885.099	1192.05
885.275	1213.16
885.45	1168.22
885.626	1181.78
885.801	1180.61
885.977	1150.58
886.153	1083.16
886.328	1149.81
886.504	1163.76
886.679	1163.57
886.855	1139.93
887.03	1151.94
887.206	1171.51
887.381	1147.48
887.557	1176.35
887.732	1172.48
887.908	1170.35
888.083	1188.95
888.258	1162.79
888.434	1139.35
888.609	1143.8
888.784	1228.47
888.96	1123.07
889.135	1150.58
889.31	1107.57
889.485	1201.93
889.661	1147.87
889.836	1189.14
890.011	1148.07
890.186	1181.78
890.361	1120.75
890.537	1188.36
890.712	1168.22
890.887	1156.2
891.062	1147.68
891.237	1173.25
891.412	1127.72
891.587	1135.67
891.762	1165.31
891.937	1170.15
892.112	1116.87
892.287	1118.42
892.462	1101.18
892.637	1077.54
892.812	1047.9
892.987	1026.78
893.161	1026.97
893.336	1054.29
893.511	1066.11
893.686	1090.33
893.861	1060.69
894.035	1043.44
894.21	1046.15
894.385	983.96
894.56	1032.4
894.734	953.16
894.909	939.79
895.084	922.74
895.258	936.11
895.433	962.65
895.608	924.09
895.782	855.12
895.957	856.28
896.131	868.49
896.306	811.91
896.48	836.91
896.655	818.11
896.829	741.39
897.004	710.2
897.178	764.06
897.353	717.56
897.527	743.91
897.701	787.7
897.876	711.36
898.05	797.58
898.224	785.95
898.399	836.91
898.573	762.31
898.747	658.47
898.921	685.59
899.096	599.18
899.27	609.64
899.444	584.65
899.618	644.52
899.792	659.05
899.967	687.72
900.141	690.82
900.315	610.42
900.489	615.07
900.663	653.43
900.837	637.15
901.011	554.42
901.185	687.72
901.359	648
901.533	624.37
901.707	651.49
901.881	672.22
902.055	592.01
902.229	630.95
902.403	702.64
902.576	644.13
902.75	672.61
902.924	747.98
903.098	730.54
903.272	752.43
903.446	813.85
903.619	782.27
903.793	814.63
903.967	817.92
904.14	885.34
904.314	841.94
904.488	814.82
904.661	849.11
904.835	855.51
905.009	874.49
905.182	914.21
905.356	827.99
905.529	829.16
905.703	798.55
905.876	809.01
906.05	775.88
906.223	757.08
906.397	699.35
906.57	694.7
906.744	660.02
906.917	657.3
907.09	662.73
907.264	646.84
907.437	613.71
907.61	588.14
907.784	620.69
907.957	615.84
908.13	580.77
908.304	612.35
908.477	561.01
908.65	601.89
908.823	528.66
908.996	614.68
909.17	573.22
909.343	548.42
909.516	567.6
909.689	562.37
909.862	532.34
910.035	532.92
910.208	552.68
910.381	519.55
910.554	671.83
910.727	546.67
910.9	535.82
911.073	544.54
911.246	604.41
911.419	620.3
911.592	614.1
911.765	556.75
911.938	574.77
912.11	583.1
912.283	576.12
912.456	583.1
912.629	595.3
912.802	545.51
912.974	499.21
913.147	459.29
913.32	421.9
913.493	433.33
913.665	483.51
913.838	464.91
914.01	510.83
914.183	504.63
914.356	506.76
914.528	519.55
914.701	556.17
914.873	523.42
915.046	455.03
915.218	455.81
915.391	395.16
915.563	406.59
915.736	444.76
915.908	467.43
916.081	468.59
916.253	462.98
916.425	507.15
916.598	487.19
916.77	486.22
916.942	472.47
917.115	392.64
917.287	449.22
917.459	453.68
917.632	418.22
917.804	357.38
917.976	452.51
918.148	458.91
918.32	462.98
918.493	493.01
918.665	520.91
918.837	509.47
919.009	553.07
919.181	570.5
919.353	524.39
919.525	533.11
919.697	512.96
919.869	537.18
920.041	578.64
920.213	622.62
920.385	562.37
920.557	538.73
920.729	549.77
920.901	536.41
921.073	564.89
921.244	526.14
921.416	532.92
921.588	515.09
921.76	533.31
921.932	608.87
922.103	548.61
922.275	538.92
922.447	541.44
922.619	458.91
922.79	524.39
922.962	481.77
923.134	536.21
923.305	456.39
923.477	439.73
923.648	437.21
923.82	462.98
923.991	400.01
924.163	404.27
924.335	456.97
924.506	416.28
924.677	466.66
924.849	424.61
925.02	459.29
925.192	455.81
925.363	453.68
925.535	459.49
925.706	453.87
925.877	483.12
926.049	417.25
926.22	430.62
926.391	456.39
926.562	444.38
926.734	423.26
926.905	458.71
927.076	388.96
927.247	422.29
927.419	349.05
927.59	371.33
927.761	352.15
927.932	363.58
928.103	352.15
928.274	340.33
928.445	265.55
928.616	308.36
928.787	313.21
928.958	326
929.129	317.47
929.3	295.97
929.471	245.4
929.642	195.8
929.813	182.62
929.984	236.87
930.155	183.79
930.326	230.28
930.496	214.01
930.667	136.51
930.838	189.6
931.009	151.04
931.18	175.65
931.35	158.4
931.521	143.87
931.692	106.09
931.863	60.76
932.033	111.13
932.204	112.49
932.374	98.54
932.545	67.92
932.716	137.29
932.886	139.42
933.057	65.02
933.227	82.65
933.398	147.36
933.568	46.42
933.739	40.8
933.909	26.46
934.08	79.94
934.25	18.71
934.421	12.9
934.591	53.59
934.761	27.82
934.932	27.63
935.102	46.42
935.272	38.28
935.443	52.23
935.613	16
935.783	58.04
935.953	25.11
936.123	174.29
936.294	0.31
936.464	42.74
936.634	31.31
936.804	21.62
936.974	32.66
937.144	38.67
937.314	50.87
937.484	18.71
937.655	12.9
937.825	76.64
937.995	10.96
938.165	80.32
938.334	56.3
938.504	70.44
938.674	29.18
938.844	64.24
939.014	121.79
939.184	111.52
939.354	128.18
939.524	118.3
939.694	84.97
939.863	83.62
940.033	165.19
940.203	127.79
940.373	114.04
940.542	99.7
940.712	89.62
940.882	140
941.051	151.43
941.221	96.6
941.391	132.05
941.56	84.78
941.73	80.32
941.899	191.92
942.069	84.01
942.238	116.17
942.408	73.74
942.577	89.82
942.747	94.08
942.916	29.37
943.086	37.31
943.255	115.59
943.425	82.07
943.594	60.95
943.763	22.2
943.933	17.74
944.102	-6.67
944.271	73.35
944.441	90.21
944.61	47.39
944.779	73.93
944.948	146.2
945.117	38.67
945.287	53.59
945.456	-9.96
945.625	37.89
945.794	77.61
945.963	49.13
946.132	78.77
946.301	48.16
946.47	92.34
946.639	22.01
946.808	73.16
946.977	88.66
947.146	130.31
947.315	44.67
947.484	81.87
947.653	36.92
947.822	74.71
947.991	27.63
948.16	134.96
948.329	89.43
948.498	65.02
948.666	57.66
948.835	103.38
949.004	34.79
949.173	42.74
949.341	57.46
949.51	72.96
949.679	104.16
949.847	99.51
950.016	125.27
950.185	119.66
950.353	67.34
950.522	56.11
950.69	102.61
950.859	53.01
951.028	118.49
951.196	98.34
951.365	88.46
951.533	61.14
951.701	108.22
951.87	74.9
952.038	56.3
952.207	67.73
952.375	120.04
952.543	52.81
952.712	41.96
952.88	59.59
953.048	134.38
953.217	84.01
953.385	94.86
953.553	102.22
953.721	36.54
953.89	69.09
954.058	46.22
954.226	53.39
954.394	58.24
954.562	20.26
954.73	64.44
954.898	63.66
955.067	101.83
955.235	56.69
955.403	114.23
955.571	110.55
955.739	78.19
955.907	44.48
956.075	57.27
956.243	44.67
956.41	79.74
956.578	14.84
956.746	6.89
956.914	61.14
957.082	81.49
957.25	117.91
957.418	51.46
957.585	67.73
957.753	112.29
957.921	33.63
958.089	76.84
958.256	98.54
958.424	87.88
958.592	83.42
958.759	57.66
958.927	75.29
959.095	39.83
959.262	61.14
959.43	67.34
959.597	31.89
959.765	55.72
959.932	36.34
960.1	128.37
960.267	63.47
960.435	66.18
960.602	86.52
960.77	55.52
960.937	25.88
961.104	93.89
961.272	42.54
961.439	61.92
961.606	82.26
961.774	97.57
961.941	106.87
962.108	75.29
962.275	90.01
962.443	113.84
962.61	96.02
962.777	131.28
962.944	142.71
963.111	84.39
963.278	87.11
963.446	107.84
963.613	93.89
963.78	103.57
963.947	135.74
964.114	102.41
964.281	159.76
964.448	113.46
964.615	86.52
964.782	100.47
964.949	103.38
965.116	124.89
965.282	140.39
965.449	66.76
965.616	86.14
965.783	105.51
965.95	109.97
966.117	73.74
966.283	89.82
966.45	118.11
966.617	115.01
966.784	164.41
966.95	136.12
967.117	134.19
967.284	70.06
967.45	103.38
967.617	172.94
967.784	137.29
967.95	162.09
968.117	98.73
968.283	165.96
968.45	205.87
968.616	135.74
968.783	163.25
968.949	123.72
969.116	165.77
969.282	130.7
969.449	159.37
969.615	146.78
969.781	54.75
969.948	149.88
970.114	110.55
970.28	152.2
970.447	126.63
970.613	188.63
970.779	120.04
970.945	124.69
971.112	131.28
971.278	112.49
971.444	128.18
971.61	169.25
971.776	109.97
971.942	166.74
972.108	140
972.275	98.34
972.441	138.06
972.607	191.15
972.773	106.87
972.939	123.34
973.105	112.87
973.271	77.61
973.437	76.06
973.602	66.18
973.768	140.97
973.934	117.33
974.1	114.42
974.266	58.04
974.432	133.41
974.598	98.54
974.763	136.51
974.929	99.89
975.095	183.79
975.261	115.2
975.426	94.86
975.592	101.83
975.758	147.55
975.923	96.99
976.089	92.34
976.255	129.15
976.42	117.91
976.586	134.96
976.751	103.19
976.917	179.33
977.082	124.11
977.248	72.38
977.413	53.39
977.579	100.67
977.744	123.14
977.91	88.07
978.075	92.92
978.24	125.27
978.406	120.43
978.571	71.99
978.736	72.57
978.902	134.96
979.067	63.27
979.232	45.64
979.397	100.28
979.563	140.19
979.728	83.23
979.893	103.77
980.058	87.69
980.223	119.85
980.388	106.67
980.554	88.66
980.719	79.94
980.884	102.61
981.049	156.27
981.214	89.04
981.379	117.14
981.544	99.51
981.709	80.71
981.874	101.83
982.039	123.14
982.204	121.79
982.368	100.09
982.533	95.63
982.698	150.27
982.863	134.38
983.028	103.38
983.193	131.67
983.357	117.14
983.522	112.49
983.687	108.03
983.852	107.26
984.016	80.91
984.181	130.89
984.346	139.22
984.51	129.34
984.675	85.94
984.839	113.84
985.004	136.32
985.168	149.88
985.333	111.52
985.498	100.28
985.662	134.96
985.827	145.81
985.991	102.61
986.155	97.76
986.32	120.04
986.484	171.58
986.649	112.87
986.813	56.69
986.977	122.37
987.142	141.35
987.306	73.74
987.47	57.66
987.634	75.09
987.799	105.12
987.963	128.57
988.127	145.04
988.291	168.67
988.455	104.54
988.62	110.55
988.784	106.67
988.948	120.62
989.112	74.12
989.276	113.46
989.44	94.08
989.604	97.37
989.768	104.74
989.932	169.64
990.096	62.5
990.26	79.16
990.424	60.37
990.588	98.15
990.752	139.03
990.915	113.26
991.079	68.31
991.243	92.72
991.407	112.1
991.571	101.25
991.734	100.28
991.898	112.49
992.062	172.16
992.226	57.85
992.389	72.19
992.553	63.08
992.717	71.8
992.88	65.02
993.044	105.32
993.207	80.71
993.371	122.37
993.535	102.41
993.698	98.92
993.862	102.02
994.025	132.25
994.189	101.64
994.352	113.84
994.515	85.94
994.679	105.9
994.842	89.82
995.006	126.82
995.169	72.57
995.332	85.17
995.496	112.49
995.659	42.35
995.822	84.39
995.985	86.91
996.149	125.08
996.312	68.31
996.475	139.8
996.638	82.65
996.801	138.84
996.964	120.24
997.128	111.13
997.291	88.07
997.454	94.08
997.617	57.07
997.78	132.25
997.943	75.48
998.106	143.29
998.269	52.81
998.432	79.94
998.595	97.57
998.758	52.04
998.92	47
999.083	38.09
999.246	79.16
999.409	43.9
999.572	13.29
999.735	45.26
999.897	110.36
1000.06	73.93
1000.223	65.41
1000.386	122.17
1000.548	111.13
1000.711	87.49
1000.874	86.14
1001.036	25.11
1001.199	106.87
1001.361	44.29
1001.524	85.75
1001.687	112.29
1001.849	52.42
1002.012	98.34
1002.174	106.29
1002.337	89.24
1002.499	44.29
1002.661	94.47
1002.824	37.31
1002.986	52.04
1003.149	55.91
1003.311	31.31
1003.473	110.36
1003.636	54.56
1003.798	109
1003.96	85.17
1004.123	81.1
1004.285	73.74
1004.447	51.26
1004.609	66.76
1004.771	133.41
1004.933	12.13
1005.096	42.54
1005.258	-3.37
1005.42	59.79
1005.582	97.57
1005.744	49.52
1005.906	14.84
1006.068	49.91
1006.23	18.52
1006.392	8.64
1006.554	36.92
1006.716	92.92
1006.878	73.54
1007.04	6.89
1007.202	32.47
1007.363	65.41
1007.525	63.27
1007.687	79.36
1007.849	81.49
1008.011	-14.03
1008.172	42.35
1008.334	50.87
1008.496	72.19
1008.658	15.42
1008.819	44.29
1008.981	27.63
1009.143	29.95
1009.304	35.57
1009.466	76.06
1009.627	91.56
1009.789	137.29
1009.95	69.47
1010.112	23.56
1010.273	39.25
1010.435	15.03
1010.596	15.81
1010.758	14.84
1010.919	41.96
1011.081	2.24
1011.242	60.56
1011.403	60.37
1011.565	35.96
1011.726	80.52
1011.887	19.49
1012.049	46.03
1012.21	71.22
1012.371	88.46
1012.532	-22.36
1012.693	46.42
1012.855	29.37
1013.016	34.6
1013.177	84.59
1013.338	58.82
1013.499	109.77
1013.66	40.99
1013.821	78
1013.982	49.13
1014.143	26.46
1014.304	8.64
1014.465	58.43
1014.626	74.9
1014.787	33.44
1014.948	109.19
1015.109	-7.25
1015.27	101.83
1015.431	12.71
1015.592	51.26
1015.752	83.04
1015.913	37.7
1016.074	70.06
1016.235	24.53
1016.395	48.36
1016.556	32.66
1016.717	24.33
1016.877	84.2
1017.038	14.45
1017.199	56.88
1017.359	21.23
1017.52	56.88
1017.681	16.97
1017.841	40.8
1018.002	16.78
1018.162	54.36
1018.323	84.2
1018.483	28.01
1018.644	39.64
1018.804	6.12
1018.964	-33.6
1019.125	9.41
1019.285	-1.24
1019.446	15.42
1019.606	9.22
1019.766	-8.41
1019.926	33.24
1020.087	59.98
1020.247	3.41
1020.407	39.44
1020.567	69.47
1020.728	36.92
1020.888	8.06
1021.048	10.77
1021.208	8.25
1021.368	18.13
1021.528	71.61
1021.688	55.33
1021.848	55.91
1022.008	26.08
1022.168	28.4
1022.328	27.43
1022.488	38.86
1022.648	12.9
1022.808	52.42
1022.968	39.83
1023.128	-3.96
1023.288	-10.93
1023.448	19.88
1023.608	42.35
1023.767	43.71
1023.927	16.39
1024.087	-29.14
1024.247	3.79
1024.406	17.55
1024.566	-0.08
1024.726	-25.46
1024.885	22.2
1025.045	73.35
1025.205	6.51
1025.364	2.63
1025.524	29.76
1025.683	15.03
1025.843	37.12
1026.003	37.7
1026.162	78.39
1026.321	70.83
1026.481	55.33
1026.64	9.61
1026.8	0.69
1026.959	31.31
1027.119	26.27
1027.278	21.81
1027.437	-16.16
1027.597	23.94
1027.756	33.05
1027.915	32.28
1028.074	49.32
1028.234	8.83
1028.393	40.02
1028.552	11.54
1028.711	-53.94
1028.87	36.34
1029.03	11.16
1029.189	23.36
1029.348	1.28
1029.507	6.12
1029.666	-1.63
1029.825	-6.47
1029.984	11.16
1030.143	23.56
1030.302	21.43
1030.461	-27.4
1030.62	9.41
1030.779	30.53
1030.938	14.64
1031.097	0.5
1031.255	47.77
1031.414	50.87
1031.573	53.39
1031.732	-21.39
1031.891	11.35
1032.049	70.06
1032.208	54.75
1032.367	-14.03
1032.525	8.64
1032.684	-3.18
1032.843	30.92
1033.001	-29.72
1033.16	159.18
1033.319	35.76
1033.477	31.11
1033.636	-6.86
1033.794	-23.52
1033.953	58.43
1034.111	32.86
1034.27	22.01
1034.428	18.52
1034.587	-25.85
1034.745	18.91
1034.903	6.89
1035.062	42.54
1035.22	-16.74
1035.378	29.95
1035.537	-25.07
1035.695	17.74
1035.853	8.83
1036.011	53.39
1036.17	23.94
1036.328	-25.85
1036.486	2.05
1036.644	33.44
1036.802	-42.71
1036.96	-13.06
1037.119	14.64
1037.277	7.09
1037.435	-9.77
1037.593	-29.92
1037.751	19.29
1037.909	43.51
1038.067	43.51
