Data from gum_young_FLMT105791__68__17-39-26-043.txt Node

Date: Mon Mar 20 17:39:26 GMT 2023
User: antho
Spectrometer: FLMT10579
Trigger mode: 0
Integration Time (sec): 1.000000E-1
Scans to average: 10
Electric dark correction enabled: true
Nonlinearity correction enabled: false
Boxcar width: 0
XAxis mode: Wavelengths
Number of Pixels in Spectrum: 3648
>>>>>Begin Spectral Data<<<<<
345.248	-151.53
345.464	-151.53
345.681	-151.53
345.898	-143.78
346.114	-155.4
346.331	-36.83
346.548	37.76
346.764	-11.06
346.981	-8.15
347.197	-38.77
347.414	35.83
347.631	-6.6
347.847	69.73
348.064	0.76
348.28	44.35
348.497	-48.65
348.713	-38.38
348.93	24.4
349.146	5.02
349.363	-2.53
349.579	21.68
349.796	-8.54
350.012	-16.1
350.229	24.4
350.445	-2.92
350.661	-8.35
350.878	33.89
351.094	10.64
351.311	32.92
351.527	58.11
351.743	-28.88
351.96	16.65
352.176	5.22
352.392	14.13
352.609	40.86
352.825	-0.79
353.041	8.12
353.257	13.93
353.474	12.96
353.69	24.01
353.906	2.7
354.122	-34.12
354.339	39.7
354.555	28.08
354.771	14.51
354.987	37.76
355.203	79.81
355.42	-3.7
355.636	6.18
355.852	-30.05
356.068	7.35
356.284	-14.35
356.5	78.84
356.716	26.53
356.932	21.3
357.148	32.73
357.364	-22.49
357.58	33.31
357.796	63.53
358.012	48.42
358.228	5.8
358.444	-53.3
358.66	42.41
358.876	46.87
359.092	-17.84
359.308	22.07
359.524	27.88
359.74	-4.86
359.956	-8.54
360.172	17.23
360.388	48.03
360.604	-7.38
360.819	64.7
361.035	21.1
361.251	34.28
361.467	-25.2
361.683	27.3
361.898	25.75
362.114	19.36
362.33	23.04
362.546	41.83
362.762	10.64
362.977	41.25
363.193	9.28
363.409	61.98
363.624	-12.22
363.84	10.06
364.056	1.53
364.271	43.96
364.487	29.82
364.703	12.96
364.918	-5.83
365.134	1.15
365.35	21.88
365.565	108.09
365.781	4.25
365.996	43
366.212	75.35
366.427	14.51
366.643	-21.52
366.858	3.28
367.074	-38.18
367.289	51.52
367.505	96.47
367.72	1.73
367.936	-26.95
368.151	25.95
368.367	47.45
368.582	33.89
368.798	14.9
369.013	58.69
369.228	33.11
369.444	37.96
369.659	65.08
369.874	46.29
370.09	54.43
370.305	-31.98
370.52	8.31
370.736	67.02
370.951	9.28
371.166	82.52
371.381	80.58
371.597	43.58
371.812	-14.55
372.027	1.53
372.242	13.93
372.458	61.79
372.673	18.58
372.888	-0.21
373.103	27.69
373.318	95.5
373.533	47.26
373.749	20.33
373.964	-2.53
374.179	52.68
374.394	-10.87
374.609	64.5
374.824	-13.97
375.039	40.67
375.254	4.83
375.469	75.16
375.684	23.62
375.899	75.16
376.114	27.69
376.329	55.4
376.544	58.5
376.759	71.09
376.974	-0.4
377.189	13.35
377.404	9.48
377.619	61.98
377.834	-6.02
378.049	-11.64
378.264	-18.23
378.478	36.21
378.693	-0.98
378.908	48.23
379.123	17.81
379.338	44.35
379.553	19.55
379.767	45.9
379.982	24.98
380.197	48.61
380.412	9.86
380.626	39.12
380.841	83.3
381.056	39.7
381.271	88.14
381.485	2.89
381.7	-0.21
381.915	30.98
382.129	31.95
382.344	45.51
382.559	40.86
382.773	59.27
382.988	-8.73
383.202	25.36
383.417	-1.57
383.632	116.62
383.846	30.98
384.061	47.84
384.275	31.18
384.49	40.28
384.704	46.29
384.919	32.73
385.133	44.35
385.348	64.31
385.562	3.47
385.777	59.85
385.991	32.15
386.206	6.18
386.42	7.15
386.634	93.37
386.849	29.24
387.063	35.44
387.277	9.67
387.492	38.35
387.706	11.8
387.92	-13.38
388.135	60.24
388.349	65.86
388.563	21.68
388.778	33.7
388.992	53.07
389.206	73.03
389.42	75.74
389.635	29.24
389.849	69.35
390.063	89.11
390.277	62.37
390.491	83.49
390.706	50.16
390.92	63.73
391.134	43.96
391.348	69.93
391.562	8.12
391.776	35.05
391.99	14.51
392.205	65.47
392.419	23.81
392.633	24.78
392.847	70.9
393.061	14.32
393.275	86.78
393.489	12.77
393.703	34.28
393.917	79.81
394.131	7.73
394.345	77.87
394.559	79.03
394.773	35.63
394.986	80.58
395.2	49.2
395.414	56.56
395.628	27.88
395.842	48.61
396.056	57.14
396.27	-5.83
396.484	40.86
396.697	41.64
396.911	93.56
397.125	74.96
397.339	69.73
397.553	62.95
397.766	102.67
397.98	84.65
398.194	64.5
398.408	40.28
398.621	64.5
398.835	66.05
399.049	68.57
399.262	88.91
399.476	76.51
399.69	76.13
399.903	105.96
400.117	37.38
400.331	74.58
400.544	49.97
400.758	170.09
400.971	86.98
401.185	101.31
401.398	40.09
401.612	111.97
401.826	111.78
402.039	74.38
402.253	47.06
402.466	94.15
402.68	77.87
402.893	67.6
403.106	69.93
403.32	74.58
403.533	109.06
403.747	93.56
403.96	93.56
404.174	103.25
404.387	58.88
404.6	71.86
404.814	92.4
405.027	78.45
405.24	82.91
405.454	72.83
405.667	120.3
405.88	22.07
406.094	107.71
406.307	113.13
406.52	114.1
406.733	52.68
406.947	51.91
407.16	129.79
407.373	114.88
407.586	31.18
407.799	51.91
408.012	125.14
408.226	69.15
408.439	143.94
408.652	25.75
408.865	78.45
409.078	134.83
409.291	88.91
409.504	40.86
409.717	104.99
409.93	126.69
410.143	90.27
410.357	48.23
410.57	71.48
410.783	60.63
410.996	124.76
411.209	110.42
411.421	109.45
411.634	114.49
411.847	71.28
412.06	107.71
412.273	113.52
412.486	92.4
412.699	191.41
412.912	89.3
413.125	122.04
413.338	105.77
413.55	123.4
413.763	86.4
413.976	131.15
414.189	76.51
414.402	90.08
414.615	118.94
414.827	79.03
415.04	120.11
415.253	142.58
415.466	128.63
415.678	189.47
415.891	95.31
416.104	116.43
416.316	108.48
416.529	93.56
416.742	127.86
416.954	123.98
417.167	134.06
417.38	95.5
417.592	149.17
417.805	82.91
418.017	74.19
418.23	135.03
418.442	109.84
418.655	127.47
418.868	140.45
419.08	163.89
419.293	142.58
419.505	181.72
419.718	140.26
419.93	163.31
420.142	101.7
420.355	171.06
420.567	152.85
420.78	148.39
420.992	101.7
421.205	163.12
421.417	69.73
421.629	116.81
421.842	94.15
422.054	91.82
422.266	150.14
422.479	152.46
422.691	109.06
422.903	144.13
423.115	111.97
423.328	121.27
423.54	128.83
423.752	127.86
423.964	93.56
424.177	109.64
424.389	109.45
424.601	201.09
424.813	156.92
425.025	146.07
425.238	144.71
425.45	134.83
425.662	122.24
425.874	374.3
426.086	120.3
426.298	142
426.51	139.68
426.722	145.88
426.934	115.26
427.146	158.08
427.358	95.31
427.57	157.31
427.782	123.59
427.994	121.27
428.206	117.39
428.418	78.84
428.63	146.84
428.842	143.36
429.054	144.13
429.266	146.84
429.478	92.01
429.69	157.69
429.902	97.24
430.114	177.65
430.325	128.24
430.537	108.09
430.749	113.91
430.961	73.03
431.173	89.5
431.384	153.24
431.596	79.23
431.808	133.28
432.02	149.17
432.231	163.12
432.443	188.5
432.655	165.64
432.867	143.94
433.078	167.77
433.29	199.74
433.502	164.86
433.713	175.52
433.925	167.96
434.136	218.14
434.348	120.3
434.56	99.38
434.771	261.35
434.983	102.48
435.194	135.8
435.406	153.43
435.617	186.76
435.829	207.1
436.04	186.37
436.252	167.19
436.463	207.49
436.675	197.61
436.886	171.26
437.098	222.79
437.309	230.16
437.521	192.57
437.732	195.28
437.943	176.1
438.155	188.89
438.366	132.31
438.578	210.59
438.789	185.59
439	197.99
439.211	166.41
439.423	195.28
439.634	182.69
439.845	211.75
440.057	199.16
440.268	201.87
440.479	186.17
440.69	191.6
440.902	174.74
441.113	170.29
441.324	214.46
441.535	231.32
441.746	259.99
441.957	160.21
442.168	159.44
442.38	219.89
442.591	238.29
442.802	182.49
443.013	180.94
443.224	249.72
443.435	202.64
443.646	195.67
443.857	202.06
444.068	182.3
444.279	168.16
444.49	251.66
444.701	204.39
444.912	302.62
445.123	236.94
445.334	232.48
445.545	235.77
445.756	212.91
445.967	226.09
446.178	214.46
446.388	239.46
446.599	250.5
446.81	260.77
447.021	211.56
447.232	258.44
447.443	254.57
447.653	197.61
447.864	274.33
448.075	214.46
448.286	284.6
448.496	254.76
448.707	270.07
448.918	238.1
449.129	306.3
449.339	200.51
449.55	250.5
449.761	246.62
449.971	308.43
450.182	241.78
450.393	272.2
450.603	221.63
450.814	291.19
451.024	275.1
451.235	283.05
451.446	311.53
451.656	339.62
451.867	263.48
452.077	290.02
452.288	326.84
452.498	305.91
452.709	310.37
452.919	256.89
453.13	243.33
453.34	294.48
453.55	247.01
453.761	287.31
453.971	294.09
454.182	269.87
454.392	279.56
454.602	328.97
454.813	308.43
455.023	302.04
455.233	228.8
455.444	299.9
455.654	227.44
455.864	258.83
456.075	285.18
456.285	287.5
456.495	294.09
456.705	301.84
456.916	315.21
457.126	354.15
457.336	322.38
457.546	215.82
457.756	266.97
457.967	338.46
458.177	284.79
458.387	287.89
458.597	246.62
458.807	257.86
459.017	290.8
459.227	267.16
459.437	301.45
459.647	342.34
459.857	315.4
460.068	295.06
460.278	325.48
460.488	298.35
460.698	353.57
460.908	281.5
461.117	272.59
461.327	259.8
461.537	320.83
461.747	319.09
461.957	312.89
462.167	407.63
462.377	352.8
462.587	320.44
462.797	352.41
463.007	324.51
463.216	326.06
463.426	357.25
463.636	357.64
463.846	282.27
464.056	284.02
464.265	340.79
464.475	315.02
464.685	296.8
464.895	336.33
465.104	318.31
465.314	329.55
465.524	321.6
465.733	316.18
465.943	416.73
466.153	384.77
466.362	367.91
466.572	324.12
466.782	343.5
466.991	335.36
467.201	368.49
467.41	298.35
467.62	325.29
467.829	339.43
468.039	327.8
468.249	308.43
468.458	346.21
468.668	374.5
468.877	382.83
469.086	387.87
469.296	404.33
469.505	323.54
469.715	430.88
469.924	367.72
470.134	382.63
470.343	420.8
470.552	328.77
470.762	361.71
470.971	329.35
471.18	369.85
471.39	375.47
471.599	334.97
471.808	394.07
472.018	355.32
472.227	411.31
472.436	431.46
472.645	373.33
472.855	340.98
473.064	424.68
473.273	398.72
473.482	399.68
473.691	445.21
473.901	404.33
474.11	418.67
474.319	483.77
474.528	394.84
474.737	455.29
474.946	437.27
475.155	421.58
475.364	465.56
475.573	419.83
475.783	454.71
475.992	459.94
476.201	476.99
476.41	438.63
476.619	423.71
476.828	442.7
477.037	410.34
477.245	408.79
477.454	475.83
477.663	441.73
477.872	438.24
478.081	527.36
478.29	415.96
478.499	544.41
478.708	521.75
478.917	515.74
479.125	504.5
479.334	462.65
479.543	466.72
479.752	477.57
479.961	507.6
480.169	530.66
480.378	499.08
480.587	618.81
480.796	530.85
481.004	518.45
481.213	562.63
481.422	523.88
481.63	502.37
481.839	574.25
482.048	587.43
482.256	555.84
482.465	579.87
482.674	530.27
482.882	564.95
483.091	620.17
483.299	554.1
483.508	566.11
483.716	572.89
483.925	587.81
484.134	533.56
484.342	551
484.551	588.39
484.759	582.19
484.967	596.73
485.176	617.46
485.384	625.4
485.593	609.71
485.801	626.37
486.01	551.58
486.218	580.84
486.426	494.62
486.635	526.01
486.843	518.65
487.051	539.76
487.26	542.48
487.468	581.23
487.676	589.56
487.885	580.84
488.093	613.58
488.301	629.47
488.509	627.14
488.717	649.62
488.926	606.03
489.134	607.58
489.342	620.36
489.55	590.33
489.758	622.88
489.967	622.3
490.175	702.12
490.383	637.61
490.591	722.27
490.799	653.69
491.007	718.59
491.215	693.41
491.423	657.56
491.631	648.26
491.839	669.96
492.047	713.75
492.255	654.85
492.463	640.32
492.671	645.55
492.879	737.19
493.087	659.89
493.295	716.27
493.503	733.9
493.711	710.26
493.919	755.99
494.127	746.69
494.334	760.25
494.542	696.89
494.75	739.32
494.958	718.2
495.166	784.85
495.374	746.49
495.581	757.34
495.789	739.32
495.997	794.15
496.205	752.11
496.412	733.12
496.62	744.94
496.828	782.14
497.035	732.74
497.243	792.99
497.451	769.94
497.658	770.71
497.866	796.28
498.074	837.75
498.281	739.52
498.489	855.18
498.696	775.94
498.904	752.3
499.112	774.2
499.319	859.64
499.527	835.81
499.734	820.12
499.942	751.72
500.149	775.94
500.357	812.95
500.564	775.17
500.771	806.75
500.979	813.92
501.186	761.6
501.394	809.46
501.601	812.75
501.808	819.73
502.016	828.83
502.223	812.37
502.43	811.78
502.638	842.59
502.845	816.05
503.052	919.31
503.26	849.37
503.467	931.71
503.674	860.03
503.881	876.3
504.089	929.58
504.296	901.68
504.503	807.91
504.71	891.22
504.917	861.38
505.125	899.75
505.332	910.21
505.539	918.35
505.746	978.21
505.953	1005.34
506.16	983.64
506.367	1008.83
506.574	985.96
506.781	1010.38
506.988	962.52
507.195	997.39
507.402	972.59
507.609	1024.52
507.816	979.96
508.023	971.43
508.23	970.46
508.437	953.22
508.644	997.01
508.851	1063.66
509.058	1068.69
509.265	1038.28
509.472	1093.3
509.679	1122.75
509.885	1090.59
510.092	1065.01
510.299	1078.38
510.506	1059.78
510.713	1102.02
510.92	1097.95
511.126	1116.94
511.333	1133.6
511.54	1169.83
511.746	1173.32
511.953	1186.88
512.16	1199.47
512.367	1180.49
512.573	1116.55
512.78	1163.24
512.987	1170.41
513.193	1175.84
513.4	1103.18
513.606	1156.07
513.813	1232.22
514.02	1181.07
514.226	1272.9
514.433	1280.46
514.639	1173.51
514.846	1238.03
515.052	1211.68
515.259	1220.98
515.465	1289.95
515.672	1260.5
515.878	1348.85
516.085	1282.98
516.291	1323.66
516.497	1294.99
516.704	1284.53
516.91	1234.93
517.117	1171.77
517.323	1150.84
517.529	1213.42
517.736	1198.31
517.942	1259.53
518.148	1263.02
518.354	1265.15
518.561	1311.07
518.767	1277.17
518.973	1373.65
519.179	1356.99
519.386	1350.98
519.592	1353.5
519.798	1342.26
520.004	1487.38
520.21	1436.62
520.417	1487.77
520.623	1517.22
520.829	1562.94
521.035	1549.38
521.241	1561.01
521.447	1554.42
521.653	1662.92
521.859	1586.19
522.065	1573.21
522.271	1687.52
522.477	1668.92
522.683	1727.24
522.889	1651.1
523.095	1650.13
523.301	1644.51
523.507	1607.5
523.713	1690.23
523.919	1655.75
524.125	1741.97
524.331	1709.42
524.537	1843.49
524.742	1801.45
524.948	1798.73
525.154	1812.1
525.36	1878.75
525.566	1803.19
525.772	1886.5
525.977	1836.13
526.183	1862.86
526.389	1851.63
526.595	1775.48
526.8	1824.7
527.006	1718.91
527.212	1693.72
527.417	1705.54
527.623	1692.95
527.829	1799.12
528.034	1801.83
528.24	1812.68
528.446	1851.63
528.651	1938.42
528.857	1962.26
529.062	1994.03
529.268	1975.04
529.473	1978.14
529.679	1993.45
529.884	2100.2
530.09	2057.97
530.295	2067.07
530.501	2045.76
530.706	2054.29
530.912	2046.15
531.117	2052.54
531.323	2054.87
531.528	2111.83
531.733	2160.46
531.939	2128.49
532.144	2146.12
532.35	2091.87
532.555	2148.25
532.76	2118.61
532.966	2117.25
533.171	2107.95
533.376	2046.15
533.581	2039.75
533.787	2068.82
533.992	2143.8
534.197	2146.32
534.402	2110.47
534.607	2167.82
534.813	2241.83
535.018	2155.23
535.223	2139.73
535.428	2197.27
535.633	2205.21
535.838	2249.78
536.043	2247.45
536.249	2321.85
536.454	2254.62
536.659	2266.83
536.864	2263.53
537.069	2244.16
537.274	2255.78
537.479	2250.55
537.684	2257.33
537.889	2237.18
538.094	2355.37
538.299	2243.77
538.504	2326.31
538.708	2311.19
538.913	2359.83
539.118	2315.07
539.323	2357.5
539.528	2272.25
539.733	2267.6
539.938	2285.23
540.142	2309.26
540.347	2261.21
540.552	2225.75
540.757	2257.33
540.962	2261.01
541.166	2215.87
541.371	2234.28
541.576	2270.12
541.781	2177.32
541.985	2288.14
542.19	2251.91
542.395	2366.22
542.599	2419.11
542.804	2304.61
543.008	2378.23
543.213	2308.09
543.418	2294.34
543.622	2398.38
543.827	2255.59
544.031	2372.81
544.236	2407.87
544.44	2394.31
544.645	2438.49
544.849	2377.26
545.054	2441.97
545.258	2449.53
545.463	2458.25
545.667	2397.8
545.872	2424.54
546.076	2447.4
546.281	2447.01
546.485	2397.99
546.689	2447.98
546.894	2457.47
547.098	2426.67
547.302	2414.66
547.507	2441.78
547.711	2461.74
547.915	2500.1
548.119	2409.23
548.324	2449.34
548.528	2460.96
548.732	2426.86
548.936	2447.98
549.141	2500.49
549.345	2439.46
549.549	2513.47
549.753	2478.01
549.957	2558.42
550.161	2546.79
550.366	2497.77
550.57	2502.23
550.774	2485.95
550.978	2449.34
551.182	2503.59
551.386	2468.9
551.59	2515.79
551.794	2469.29
551.998	2529.55
552.202	2484.6
552.406	2435.77
552.61	2543.69
552.814	2502.62
553.018	2618.09
553.222	2496.61
553.426	2491.19
553.63	2588.25
553.833	2505.52
554.037	2466.97
554.241	2511.92
554.445	2516.57
554.649	2496.42
554.853	2492.54
555.056	2544.47
555.26	2596.39
555.464	2493.32
555.668	2523.74
555.871	2555.32
556.075	2545.82
556.279	2484.6
556.483	2449.72
556.686	2483.05
556.89	2479.56
557.094	2499.32
557.297	2439.65
557.501	2491.57
557.704	2429.19
557.908	2471.42
558.112	2408.84
558.315	2513.85
558.519	2441.97
558.722	2400.71
558.926	2391.99
559.129	2349.17
559.333	2323.21
559.536	2379.39
559.74	2306.93
559.943	2280.19
560.147	2300.54
560.35	2336.77
560.553	2357.11
560.757	2291.82
560.96	2402.84
561.164	2350.33
561.367	2437.91
561.57	2363.89
561.774	2347.62
561.977	2317.78
562.18	2350.72
562.384	2411.56
562.587	2349.75
562.79	2342
562.993	2301.51
563.197	2337.93
563.4	2391.21
563.603	2340.45
563.806	2362.34
564.009	2309.45
564.212	2329.02
564.416	2223.23
564.619	2272.64
564.822	2249.97
565.025	2288.14
565.228	2238.54
565.431	2274.19
565.634	2157.17
565.837	2203.86
566.04	2156.39
566.243	2174.8
566.446	2085.67
566.649	2199.98
566.852	2093.81
567.055	2129.65
567.258	2136.63
567.461	2225.17
567.664	2197.85
567.867	2086.84
568.07	2159.88
568.273	2134.88
568.475	2172.47
568.678	2084.7
568.881	2057.77
569.084	2067.46
569.287	1953.54
569.489	2017.28
569.692	2042.27
569.895	2083.54
570.098	1989.19
570.3	1984.34
570.503	1948.5
570.706	1947.92
570.909	1930.67
571.111	1918.08
571.314	1884.56
571.516	1899.09
571.719	1925.83
571.922	1919.44
572.124	1891.54
572.327	1918.08
572.529	1873.13
572.732	1860.73
572.935	1927.58
573.137	1948.11
573.34	1893.86
573.542	1939.97
573.745	1915.37
573.947	1908.39
574.15	1867.51
574.352	1864.99
574.554	1935.13
574.757	1833.61
574.959	1827.02
575.162	1847.94
575.364	1813.46
575.566	1882.04
575.769	1790.21
575.971	1800.28
576.173	1685.78
576.376	1778.78
576.578	1820.43
576.78	1848.91
576.982	1697.98
577.185	1739.83
577.387	1724.72
577.589	1712.71
577.791	1766.96
577.993	1777.23
578.196	1754.95
578.398	1759.6
578.6	1777.61
578.802	1706.32
579.004	1691.2
579.206	1714.65
579.408	1689.27
579.61	1714.84
579.812	1739.25
580.014	1727.24
580.216	1705.54
580.418	1692.75
580.62	1694.5
580.822	1664.66
581.024	1713.68
581.226	1787.69
581.428	1702.63
581.63	1804.74
581.832	1685.97
582.034	1736.93
582.236	1732.67
582.438	1751.46
582.64	1798.15
582.841	1788.46
583.043	1829.54
583.245	1780.13
583.447	1759.21
583.649	1720.07
583.85	1733.05
584.052	1786.91
584.254	1740.22
584.456	1774.9
584.657	1703.6
584.859	1731.5
585.061	1740.61
585.262	1731.7
585.464	1661.75
585.666	1725.5
585.867	1670.67
586.069	1754.75
586.27	1684.03
586.472	1649.16
586.674	1633.85
586.875	1683.84
587.077	1643.93
587.278	1659.04
587.48	1640.25
587.681	1705.35
587.883	1684.03
588.084	1592.2
588.285	1590.65
588.487	1615.84
588.688	1624.55
588.89	1526.91
589.091	1475.76
589.292	1513.92
589.494	1441.85
589.695	1432.94
589.896	1364.93
590.098	1414.53
590.299	1420.15
590.5	1405.23
590.702	1422.28
590.903	1464.33
591.104	1511.02
591.305	1537.56
591.507	1554.22
591.708	1525.36
591.909	1490.29
592.11	1541.05
592.311	1536.4
592.512	1469.94
592.714	1439.33
592.915	1471.49
593.116	1493.39
593.317	1492.61
593.518	1498.04
593.719	1494.16
593.92	1518.19
594.121	1518.19
594.322	1508.89
594.523	1489.13
594.724	1457.93
594.925	1462.97
595.126	1481.96
595.327	1509.08
595.528	1502.49
595.729	1475.95
595.929	1479.24
596.13	1496.29
596.331	1493.19
596.532	1510.24
596.733	1536.01
596.934	1549.96
597.135	1537.56
597.335	1515.47
597.536	1431.78
597.737	1484.48
597.938	1468.2
598.138	1461.81
598.339	1457.16
598.54	1497.46
598.74	1482.34
598.941	1465.68
599.142	1510.44
599.342	1464.71
599.543	1488.74
599.744	1474.59
599.944	1462.97
600.145	1450.76
600.345	1473.43
600.546	1555.19
600.746	1527.87
600.947	1552.48
601.147	1455.41
601.348	1559.65
601.548	1433.33
601.749	1500.56
601.949	1422.28
602.15	1450.96
602.35	1467.62
602.551	1482.54
602.751	1412.4
602.951	1434.49
603.152	1400.2
603.352	1485.83
603.552	1422.09
603.753	1467.04
603.953	1455.03
604.153	1446.11
604.354	1492.23
604.554	1471.11
604.754	1431.58
604.954	1426.93
605.155	1459.09
605.355	1433.52
605.555	1489.13
605.755	1500.17
605.955	1472.85
606.155	1468.98
606.356	1444.18
606.556	1487.19
606.756	1455.99
606.956	1417.44
607.156	1504.24
607.356	1422.48
607.556	1446.5
607.756	1431.39
607.956	1478.86
608.156	1461.61
608.356	1389.54
608.556	1464.91
608.756	1415.31
608.956	1368.23
609.156	1429.06
609.356	1351.56
609.556	1347.11
609.755	1406.78
609.955	1361.64
610.155	1404.46
610.355	1413.18
610.555	1356.8
610.755	1332.96
610.954	1328.51
611.154	1377.14
611.354	1371.91
611.554	1358.73
611.753	1342.65
611.953	1312.23
612.153	1386.63
612.352	1379.46
612.552	1280.07
612.752	1250.23
612.951	1327.73
613.151	1330.25
613.351	1265.35
613.55	1294.99
613.75	1315.14
613.949	1267.87
614.149	1286.08
614.348	1280.07
614.548	1269.61
614.747	1205.87
614.947	1270.97
615.146	1228.34
615.346	1288.4
615.545	1260.12
615.745	1290.73
615.944	1275.03
616.144	1278.52
616.343	1309.52
616.542	1258.37
616.742	1245.2
616.941	1267.67
617.14	1182.04
617.34	1227.18
617.539	1218.27
617.738	1199.09
617.938	1274.84
618.137	1247.13
618.336	1203.93
618.535	1244.42
618.734	1251.2
618.934	1242.68
619.133	1226.99
619.332	1239.97
619.531	1208.97
619.73	1202.57
619.929	1268.83
620.128	1221.95
620.328	1258.95
620.527	1213.62
620.726	1190.37
620.925	1220.4
621.124	1203.35
621.323	1205.67
621.522	1156.46
621.721	1192.69
621.92	1164.02
622.119	1201.41
622.318	1155.3
622.517	1189.98
622.715	1141.54
622.914	1072.57
623.113	1156.65
623.312	1118.49
623.511	1159.17
623.71	1132.05
623.909	1122.75
624.107	1200.25
624.306	1133.02
624.505	1115.97
624.704	1121.78
624.902	1125.66
625.101	1176.03
625.3	1149.29
625.499	1075.28
625.697	1125.66
625.896	1084.39
626.095	1131.08
626.293	1070.63
626.492	1088.26
626.69	1114.81
626.889	1095.24
627.088	1122.17
627.286	1072.18
627.485	1069.27
627.683	1069.47
627.882	1038.86
628.08	1014.44
628.279	1002.63
628.477	1079.35
628.676	1003.98
628.874	1057.84
629.073	1001.66
629.271	1028.59
629.469	1053
629.668	1035.56
629.866	1039.05
630.065	1039.83
630.263	1065.21
630.461	1001.85
630.66	1065.01
630.858	1101.82
631.056	1094.85
631.254	1074.51
631.453	1022.19
631.651	1084.77
631.849	1038.66
632.047	1035.95
632.245	1032.46
632.444	1065.59
632.642	1080.71
632.84	1076.83
633.038	1042.15
633.236	1005.92
633.434	1021.42
633.632	1015.99
633.83	1030.33
634.028	1106.28
634.227	1040.99
634.425	1099.5
634.623	1089.62
634.821	1057.26
635.019	1020.84
635.216	1059.39
635.414	1083.22
635.612	1042.34
635.81	1041.18
636.008	1101.05
636.206	1040.41
636.404	1088.46
636.602	1017.35
636.8	1023.36
636.997	1066.76
637.195	1084.58
637.393	1076.06
637.591	1111.9
637.789	1066.17
637.986	1053.58
638.184	1067.34
638.382	1112.67
638.58	1066.37
638.777	1086.52
638.975	1022.39
639.173	1020.06
639.37	1015.03
639.568	1049.51
639.765	1059.2
639.963	1032.27
640.161	1026.65
640.358	1048.35
640.556	1013.09
640.753	960
640.951	966.2
641.148	1006.89
641.346	956.9
641.543	1011.34
641.741	1005.73
641.938	984.22
642.136	975.31
642.333	953.8
642.531	1007.28
642.728	1023.55
642.925	981.31
643.123	960.97
643.32	999.14
643.517	957.48
643.715	962.13
643.912	932.1
644.109	959.61
644.306	933.07
644.504	908.85
644.701	964.26
644.898	947.41
645.095	902.65
645.293	928.23
645.49	940.63
645.687	933.26
645.884	919.51
646.081	861.97
646.278	864.1
646.475	877.85
646.672	846.85
646.87	915.63
647.067	902.46
647.264	867
647.461	802.1
647.658	803.84
647.855	855.57
648.052	837.17
648.249	774.78
648.446	807.52
648.642	820.12
648.839	767.03
649.036	822.05
649.233	775.94
649.43	728.28
649.627	752.69
649.824	756.37
650.021	757.34
650.217	782.34
650.414	766.25
650.611	777.3
650.808	806.75
651.004	825.54
651.201	829.8
651.398	854.8
651.595	759.28
651.791	762.77
651.988	809.07
652.185	783.89
652.381	779.24
652.578	698.44
652.775	764.7
652.971	783.69
653.168	776.72
653.364	816.05
653.561	718.2
653.757	762.77
653.954	768.58
654.15	738.94
654.347	857.32
654.543	785.82
654.74	702.12
654.936	723.82
655.133	759.67
655.329	766.25
655.525	762.19
655.722	800.74
655.918	712
656.115	705.81
656.311	651.56
656.507	630.05
656.704	628.89
656.9	661.44
657.096	650.59
657.292	637.41
657.489	696.12
657.685	705.22
657.881	683.72
658.077	669.77
658.273	689.72
658.47	755.6
658.666	691.08
658.862	701.35
659.058	700.77
659.254	741.65
659.45	700.57
659.646	757.15
659.842	710.84
660.038	752.69
660.234	685.27
660.43	708.32
660.626	752.3
660.822	745.14
661.018	728.86
661.214	701.74
661.41	657.37
661.606	753.08
661.802	756.37
661.998	694.57
662.194	637.02
662.39	708.52
662.586	704.26
662.781	731.19
662.977	715.1
663.173	710.84
663.369	686.62
663.564	681.59
663.76	730.6
663.956	675
664.152	720.34
664.347	628.11
664.543	699.02
664.739	667.64
664.934	637.99
665.13	645.55
665.326	673.26
665.521	665.31
665.717	623.85
665.912	618.81
666.108	557.01
666.304	636.83
666.499	653.3
666.695	573.48
666.89	619.78
667.086	665.51
667.281	652.72
667.477	687.21
667.672	628.31
667.867	615.33
668.063	613.97
668.258	631.02
668.454	621.72
668.649	677.71
668.844	601.57
669.04	609.32
669.235	602.54
669.43	606.22
669.626	599.83
669.821	619.2
670.016	591.49
670.211	603.7
670.407	592.08
670.602	620.75
670.797	591.88
670.992	639.35
671.187	559.72
671.382	645.55
671.578	574.64
671.773	604.67
671.968	566.31
672.163	600.6
672.358	597.69
672.553	569.41
672.748	575.41
672.943	647.49
673.138	565.92
673.333	622.11
673.528	548.87
673.723	568.63
673.918	586.65
674.113	574.44
674.308	638.77
674.503	601.57
674.698	636.83
674.892	600.99
675.087	628.89
675.282	620.17
675.477	582.78
675.672	590.14
675.867	574.83
676.061	529.5
676.256	534.73
676.451	566.31
676.646	582.97
676.84	566.69
677.035	529.88
677.23	571.54
677.424	567.86
677.619	606.41
677.814	602.15
678.008	635.67
678.203	511.09
678.397	534.14
678.592	578.71
678.787	606.41
678.981	561.66
679.176	577.74
679.37	552.94
679.565	543.44
679.759	539.57
679.954	603.51
680.148	608.93
680.342	599.83
680.537	594.98
680.731	567.08
680.926	582.97
681.12	611.06
681.314	579.09
681.509	551
681.703	619.39
681.897	585.1
682.092	569.79
682.286	565.92
682.48	651.94
682.674	635.09
682.869	604.28
683.063	572.12
683.257	682.94
683.451	592.85
683.645	593.04
683.839	611.26
684.034	595.18
684.228	600.99
684.422	589.17
684.616	576.58
684.81	632.18
685.004	601.18
685.198	588.2
685.392	640.51
685.586	596.92
685.78	597.89
685.974	625.79
686.168	621.14
686.362	668.8
686.556	565.53
686.75	557.98
686.944	548.29
687.138	543.06
687.331	478.73
687.525	497.91
687.719	417.32
687.913	500.43
688.107	537.63
688.301	472.15
688.494	511.86
688.688	503.15
688.882	470.98
689.076	501.01
689.269	504.31
689.463	575.22
689.657	544.41
689.85	527.17
690.044	573.28
690.238	568.63
690.431	580.45
690.625	574.06
690.818	635.09
691.012	620.94
691.205	668.61
691.399	616.29
691.593	690.11
691.786	722.47
691.98	731.19
692.173	772.84
692.366	723.44
692.56	765.29
692.753	822.63
692.947	747.65
693.14	838.33
693.333	817.4
693.527	772.07
693.72	843.37
693.914	823.99
694.107	844.92
694.3	847.63
694.493	824.57
694.687	894.71
694.88	846.85
695.073	955.55
695.266	935.4
695.46	930.94
695.653	962.52
695.846	941.98
696.039	939.46
696.232	1007.08
696.425	1017.93
696.618	1051.64
696.812	1081.67
697.005	1141.16
697.198	1205.48
697.391	1161.69
697.584	1208.58
697.777	1251.01
697.97	1257.21
698.163	1246.75
698.356	1267.67
698.549	1315.72
698.742	1333.74
698.935	1239.19
699.127	1305.26
699.32	1274.65
699.513	1294.8
699.706	1357.57
699.899	1350.98
700.092	1316.88
700.285	1363.38
700.477	1315.72
700.67	1394
700.863	1385.28
701.056	1502.3
701.248	1463.36
701.441	1473.04
701.634	1458.51
701.826	1560.23
702.019	1447.28
702.212	1519.35
702.404	1480.6
702.597	1527.68
702.79	1540.47
702.982	1558.49
703.175	1594.14
703.367	1624.94
703.56	1681.32
703.752	1712.71
703.945	1691.98
704.137	1754.75
704.33	1732.67
704.522	1764.05
704.715	1784.98
704.907	1797.38
705.1	1844.46
705.292	1849.11
705.484	1839.61
705.677	1852.98
705.869	1900.06
706.061	1896.96
706.254	1953.73
706.446	1896.19
706.638	1870.81
706.831	1993.26
707.023	1990.16
707.215	2076.76
707.407	2040.14
707.599	2042.66
707.792	2144.96
707.984	2107.37
708.176	2116.28
708.368	2127.33
708.56	2132.37
708.752	2167.05
708.944	2171.7
709.136	2178.28
709.329	2186.23
709.521	2279.61
709.713	2263.15
709.905	2271.67
710.097	2354.4
710.289	2285.23
710.481	2325.53
710.672	2320.11
710.864	2357.11
711.056	2384.82
711.248	2386.17
711.44	2396.25
711.632	2392.96
711.824	2440.81
712.016	2472.78
712.207	2492.35
712.399	2500.68
712.591	2547.37
712.783	2501.65
712.975	2560.35
713.166	2491.19
713.358	2544.27
713.55	2596.2
713.741	2576.82
713.933	2545.63
714.125	2600.07
714.316	2553.77
714.508	2667.69
714.7	2651.8
714.891	2636.5
715.083	2704.7
715.274	2610.73
715.466	2660.52
715.657	2684.74
715.849	2598.33
716.04	2638.63
716.232	2550.47
716.423	2615.96
716.615	2552.8
716.806	2448.17
716.998	2396.83
717.189	2321.66
717.381	2217.03
717.572	2229.05
717.763	2232.73
717.955	2144.96
718.146	2097.1
718.337	2069.4
718.528	2010.31
718.72	1943.07
718.911	2031.23
719.102	1963.03
719.293	1996.74
719.485	2010.89
719.676	1964
719.867	1926.99
720.058	1914.01
720.249	1911.49
720.44	1973.11
720.632	2015.73
720.823	2093.23
721.014	2206.57
721.205	2235.05
721.396	2289.3
721.587	2470.26
721.778	2490.99
721.969	2517.54
722.16	2608.79
722.351	2626.03
722.542	2738.41
722.733	2805.06
722.924	2698.11
723.115	2732.21
723.305	2658
723.496	2656.26
723.687	2507.07
723.878	2532.26
724.069	2598.33
724.26	2545.63
724.45	2476.46
724.641	2513.47
724.832	2488.86
725.023	2513.08
725.213	2484.6
725.404	2427.06
725.595	2468.13
725.785	2442.75
725.976	2517.92
726.167	2484.79
726.357	2517.54
726.548	2590.77
726.739	2537.88
726.929	2621
727.12	2603.75
727.31	2619.64
727.501	2594.65
727.691	2563.07
727.882	2578.18
728.072	2617.9
728.263	2685.32
728.453	2742.28
728.644	2727.36
728.834	2686.68
729.024	2650.83
729.215	2652.77
729.405	2686.1
729.596	2734.92
729.786	2713.8
729.976	2789.36
730.167	2780.64
730.357	2759.91
730.547	2779.29
730.737	2802.93
730.928	2864.92
731.118	2883.52
731.308	2844.19
731.498	2802.15
731.688	2941.65
731.879	2938.94
732.069	3003.65
732.259	3041.62
732.449	3085.21
732.639	3148.76
732.829	3204.56
733.019	3261.52
733.209	3321.39
733.399	3353.36
733.589	3421.17
733.779	3413.62
733.969	3452.56
734.159	3556.41
734.349	3540.33
734.539	3641.85
734.729	3639.14
734.919	3653.28
735.109	3710.05
735.299	3612.79
735.488	3662.97
735.678	3620.15
735.868	3668.59
736.058	3641.66
736.248	3610.85
736.437	3584.5
736.627	3571.52
736.817	3702.88
737.007	3656.38
737.196	3705.4
737.386	3684.28
737.576	3647.66
737.765	3772.82
737.955	3726.32
738.144	3856.13
738.334	3782.12
738.524	3772.44
738.713	3812.54
738.903	3762.94
739.092	3823.78
739.282	3789.87
739.471	3815.84
739.661	3822.81
739.85	3866.21
740.04	3891.4
740.229	3903.02
740.419	3946.03
740.608	3954.56
740.797	3889.07
740.987	3972.96
741.176	3967.93
741.365	3959.4
741.555	3910.38
741.744	4023.34
741.933	3926.66
742.123	3979.55
742.312	4011.52
742.501	4053.37
742.69	4044.84
742.88	3943.9
743.069	4105.1
743.258	4064.8
743.447	4073.71
743.636	4057.05
743.825	4088.83
744.014	4075.07
744.204	4154.51
744.393	4043.68
744.582	4205.27
744.771	4177.76
744.96	4090.57
745.149	4143.46
745.338	4102.39
745.527	4134.55
745.716	4128.74
745.905	4110.72
746.094	4176.79
746.283	4148.89
746.471	4099.29
746.66	4209.14
746.849	4163.61
747.038	4157.8
747.227	4170.2
747.416	4162.45
747.604	4143.66
747.793	4081.27
747.982	4141.33
748.171	4242.66
748.359	4136.1
748.548	4174.07
748.737	4156.06
748.926	4170.39
749.114	4060.34
749.303	4141.14
749.491	4096.96
749.68	4036.9
749.869	4128.54
750.057	4105.88
750.246	4073.91
750.434	4087.08
750.623	4077.2
750.811	4062.48
751	4103.74
751.188	4045.62
751.377	4074.1
751.565	4085.53
751.754	4018.69
751.942	4018.69
752.131	4082.24
752.319	4073.71
752.507	3985.36
752.696	4093.09
752.884	4070.23
753.072	4013.65
753.261	4037.29
753.449	4064.8
753.637	4015.2
753.825	4107.43
754.014	4086.5
754.202	4069.26
754.39	4071
754.578	4044.84
754.766	3997.18
754.955	3994.66
755.143	4091.73
755.331	3977.61
755.519	4030.89
755.707	4037.48
755.895	3981.49
756.083	3999.51
756.271	3962.5
756.459	3976.65
756.647	3979.36
756.835	3929.76
757.023	3911.16
757.211	3917.75
757.399	3946.81
757.587	3894.88
757.775	3900.7
757.963	3869.7
758.151	3865.82
758.339	3852.84
758.526	3870.86
758.714	3860.98
758.902	3706.95
759.09	3626.74
759.278	3393.08
759.465	3137.53
759.653	2723.68
759.841	2434.03
760.028	2072.11
760.216	1824.89
760.404	1666.99
760.591	1386.05
760.779	1168.47
760.967	1001.27
761.154	841.04
761.342	861.19
761.529	857.7
761.717	892.96
761.905	887.15
762.092	955.74
762.28	881.73
762.467	859.45
762.655	796.48
762.842	848.6
763.029	824.57
763.217	823.99
763.404	840.07
763.592	847.82
763.779	799.38
763.966	889.09
764.154	917.18
764.341	960.58
764.528	988.09
764.716	1072.96
764.903	1118.87
765.09	1203.74
765.277	1238.42
765.465	1433.13
765.652	1477.5
765.839	1585.42
766.026	1757.85
766.213	1808.61
766.4	1947.34
766.588	2115.32
766.775	2150.77
766.962	2269.15
767.149	2387.53
767.336	2549.5
767.523	2579.73
767.71	2701.01
767.897	2822.49
768.084	2915.1
768.271	2923.05
768.458	3019.92
768.645	3027.87
768.832	3129.2
769.019	3122.03
769.206	3143.73
769.392	3231.49
769.579	3294.27
769.766	3275.86
769.953	3288.65
770.14	3381.84
770.327	3351.42
770.513	3408.97
770.7	3467.28
770.887	3387.65
771.073	3418.07
771.26	3439.38
771.447	3410.52
771.634	3396.76
771.82	3498.87
772.007	3400.25
772.193	3482.78
772.38	3466.7
772.567	3465.35
772.753	3437.25
772.94	3560.09
773.126	3550.98
773.313	3537.61
773.499	3484.14
773.686	3464.57
773.872	3478.72
774.059	3473.48
774.245	3451.59
774.432	3449.65
774.618	3382.42
774.804	3397.54
774.991	3395.99
775.177	3459.92
775.363	3414
775.55	3479.49
775.736	3363.24
775.922	3385.52
776.109	3384.75
776.295	3404.7
776.481	3416.33
776.667	3398.12
776.853	3396.76
777.04	3374.48
777.226	3379.13
777.412	3452.75
777.598	3334.57
777.784	3304.73
777.97	3322.17
778.156	3382.42
778.342	3359.17
778.528	3284.19
778.715	3288.46
778.901	3311.51
779.087	3318.49
779.272	3293.88
779.458	3273.92
779.644	3295.62
779.83	3239.83
780.016	3323.91
780.202	3286.32
780.388	3244.28
780.574	3191
780.76	3234.01
780.946	3261.52
781.131	3257.07
781.317	3205.92
781.503	3211.15
781.689	3199.72
781.874	3299.69
782.06	3145.47
782.246	3250.67
782.432	3209.21
782.617	3193.91
782.803	3239.05
782.989	3143.92
783.174	3131.71
783.36	3073.78
783.545	3058.28
783.731	3137.72
783.916	3022.44
784.102	3117.57
784.288	3095.1
784.473	3122.8
784.659	3075.72
784.844	3108.27
785.029	3063.52
785.215	3074.75
785.4	2976.72
785.586	3112.53
785.771	3016.82
785.956	3074.17
786.142	3001.13
786.327	3017.79
786.512	2979.43
786.698	2992.41
786.883	2938.55
787.068	2993.38
787.254	2990.28
787.439	2983.3
787.624	2923.82
787.809	2902.32
787.994	2941.45
788.18	2976.52
788.365	2867.25
788.55	2885.85
788.735	2938.55
788.92	2888.17
789.105	2879.65
789.29	2893.4
789.475	2773.67
789.66	2837.99
789.845	2780.64
790.03	2765.53
790.215	2798.08
790.4	2830.63
790.585	2802.34
790.77	2790.33
790.955	2757.01
791.14	2780.45
791.325	2808.54
791.51	2691.91
791.695	2784.52
791.879	2761.08
792.064	2761.08
792.249	2832.76
792.434	2782.58
792.618	2779.48
792.803	2751
792.988	2761.46
793.173	2769.21
793.357	2795.37
793.542	2698.11
793.727	2783.36
793.911	2814.55
794.096	2817.26
794.281	2806.02
794.465	2876.94
794.65	2764.18
794.834	2846.32
795.019	2884.69
795.203	2862.02
795.388	2842.45
795.572	2888.17
795.757	2785.29
795.941	2835.67
796.126	2812.03
796.31	2726.01
796.494	2775.61
796.679	2776.77
796.863	2747.51
797.048	2853.88
797.232	2799.24
797.416	2792.27
797.601	2804.28
797.785	2843.81
797.969	2861.63
798.153	2807.77
798.338	2864.34
798.522	2862.6
798.706	2875.39
798.89	2876.94
799.074	2936.22
799.258	2912.78
799.443	2906
799.627	2880.42
799.811	2922.66
799.995	2840.32
800.179	2781.42
800.363	2845.55
800.547	2873.45
800.731	2891.27
800.915	2753.13
801.099	2771.15
801.283	2821.52
801.467	2819.39
801.651	2784.71
801.835	2817.26
802.019	2781.61
802.202	2854.85
802.386	2796.34
802.57	2744.22
802.754	2761.27
802.938	2748.48
803.121	2763.01
803.305	2836.06
803.489	2797.11
803.673	2817.26
803.856	2822.49
804.04	2774.83
804.224	2830.63
804.407	2745.96
804.591	2778.71
804.775	2787.62
804.958	2793.43
805.142	2877.71
805.326	2809.51
805.509	2853.69
805.693	2844
805.876	2825.4
806.06	2854.27
806.243	2836.25
806.427	2888.17
806.61	2898.44
806.794	2827.53
806.977	2847.29
807.16	2843.03
807.344	2837.02
807.527	2838.38
807.71	2824.62
807.894	2847.87
808.077	2874.42
808.26	2786.84
808.444	2763.21
808.627	2833.54
808.81	2767.66
808.993	2721.36
809.177	2722.91
809.36	2727.56
809.543	2714
809.726	2640.56
809.909	2659.94
810.092	2636.11
810.276	2604.53
810.459	2634.36
810.642	2618.48
810.825	2578.37
811.008	2561.71
811.191	2489.44
811.374	2480.34
811.557	2533.62
811.74	2602.78
811.923	2478.98
812.106	2481.69
812.289	2416.79
812.472	2436.55
812.654	2411.36
812.837	2371.06
813.02	2344.13
813.203	2304.03
813.386	2228.85
813.569	2137.21
813.751	2116.09
813.934	2178.09
814.117	2107.76
814.3	2057.77
814.482	1978.72
814.665	1958.38
814.848	1937.46
815.03	1897.93
815.213	1881.85
815.396	1871.39
815.578	1819.66
815.761	1815.78
815.943	1865.77
816.126	1757.08
816.309	1710.97
816.491	1666.21
816.674	1620.1
816.856	1691.2
817.039	1644.12
817.221	1750.88
817.403	1667.57
817.586	1702.44
817.768	1726.47
817.951	1623.78
818.133	1628.04
818.315	1643.74
818.498	1711.16
818.68	1755.33
818.862	1714.65
819.045	1739.45
819.227	1742.55
819.409	1716.97
819.591	1727.24
819.774	1730.15
819.956	1689.46
820.138	1793.31
820.32	1761.53
820.502	1810.55
820.684	1913.43
820.866	1929.51
821.048	1966.71
821.231	1985.89
821.413	2005.46
821.595	1958.77
821.777	1979.11
821.959	1939.59
822.141	1997.32
822.323	1889.41
822.505	1794.08
822.686	1764.63
822.868	1665.63
823.05	1573.02
823.232	1499.39
823.414	1470.33
823.596	1513.92
823.778	1503.66
823.96	1535.82
824.141	1551.12
824.323	1600.92
824.505	1679
824.687	1725.3
824.868	1760.37
825.05	1872.94
825.232	1853.95
825.413	1949.66
825.595	1926.99
825.777	1868.09
825.958	1915.95
826.14	1903.36
826.321	1923.89
826.503	1894.44
826.685	1926.22
826.866	1974.66
827.048	1932.81
827.229	1898.32
827.411	1835.35
827.592	1806.48
827.773	1795.05
827.955	1741.97
828.136	1762.89
828.318	1686.94
828.499	1765.8
828.68	1666.21
828.862	1727.43
829.043	1727.82
829.224	1713.68
829.406	1679.77
829.587	1701.47
829.768	1718.91
829.949	1712.9
830.131	1684.23
830.312	1766.76
830.493	1716.2
830.674	1722.59
830.855	1715.23
831.036	1716
831.218	1779.16
831.399	1779.75
831.58	1703.22
831.761	1710.77
831.942	1714.45
832.123	1717.75
832.304	1674.54
832.485	1680.55
832.666	1715.03
832.847	1737.9
833.028	1719.1
833.209	1714.65
833.389	1707.48
833.57	1635.4
833.751	1654.59
833.932	1718.91
834.113	1756.5
834.294	1709.22
834.475	1751.07
834.655	1778
834.836	1785.36
835.017	1809.2
835.198	1675.7
835.378	1753.78
835.559	1801.25
835.74	1779.36
835.92	1695.66
836.101	1761.15
836.281	1795.25
836.462	1803.38
836.643	1808.23
836.823	1824.31
837.004	1803
837.184	1827.6
837.365	1826.63
837.545	1851.24
837.726	1773.74
837.906	1871.58
838.087	1810.36
838.267	1796.6
838.448	1805.51
838.628	1790.21
838.808	1798.73
838.989	1847.36
839.169	1771.03
839.349	1863.44
839.53	1881.27
839.71	1835.55
839.89	1822.18
840.07	1850.27
840.251	1806.29
840.431	1849.3
840.611	1804.16
840.791	1755.91
840.971	1845.43
841.151	1816.36
841.332	1804.35
841.512	1846.01
841.692	1784.98
841.872	1825.28
842.052	1786.33
842.232	1840
842.412	1747.97
842.592	1764.44
842.772	1801.06
842.952	1807.84
843.132	1771.61
843.312	1744.68
843.492	1777.03
843.672	1796.8
843.851	1727.82
844.031	1716.78
844.211	1744.87
844.391	1741.58
844.571	1724.92
844.751	1762.5
844.93	1800.86
845.11	1751.85
845.29	1769.09
845.47	1818.11
845.649	1753.2
845.829	1755.53
846.009	1750.1
846.188	1804.35
846.368	1748.75
846.547	1737.12
846.727	1766.96
846.907	1710.77
847.086	1769.28
847.266	1763.47
847.445	1728.6
847.625	1731.89
847.804	1708.83
847.984	1734.41
848.163	1697.4
848.343	1701.08
848.522	1726.08
848.701	1711.16
848.881	1697.02
849.06	1704.96
849.239	1697.02
849.419	1738.67
849.598	1635.21
849.777	1653.23
849.957	1641.02
850.136	1567.21
850.315	1517.02
850.494	1549.19
850.674	1572.82
850.853	1596.65
851.032	1596.27
851.211	1657.49
851.39	1608.28
851.569	1549.19
851.748	1566.82
851.927	1621.84
852.107	1582.7
852.286	1538.53
852.465	1541.44
852.644	1611.57
852.823	1580.19
853.002	1570.11
853.181	1608.47
853.359	1582.51
853.538	1529.23
853.717	1595.49
853.896	1464.52
854.075	1406.59
854.254	1398.84
854.433	1336.26
854.611	1398.06
854.79	1332.58
854.969	1382.18
855.148	1401.16
855.327	1373.46
855.505	1436.04
855.684	1433.91
855.863	1439.72
856.041	1449.21
856.22	1475.37
856.399	1426.74
856.577	1543.37
856.756	1536.01
856.934	1609.05
857.113	1588.52
857.291	1532.72
857.47	1483.31
857.648	1517.02
857.827	1525.55
858.005	1548.8
858.184	1476.34
858.362	1597.04
858.541	1505.21
858.719	1519.16
858.898	1496.87
859.076	1505.98
859.254	1533.69
859.433	1481.18
859.611	1477.89
859.789	1459.09
859.967	1547.06
860.146	1551.32
860.324	1465.1
860.502	1460.26
860.68	1425.19
860.859	1441.85
861.037	1489.9
861.215	1498.81
861.393	1477.89
861.571	1473.24
861.749	1425.19
861.927	1474.21
862.105	1475.76
862.283	1449.21
862.461	1413.18
862.639	1425.58
862.817	1435.65
862.995	1436.62
863.173	1424.41
863.351	1404.26
863.529	1439.14
863.707	1463.55
863.885	1443.21
864.063	1362.8
864.241	1427.13
864.418	1489.71
864.596	1384.5
864.774	1376.17
864.952	1387.6
865.129	1385.08
865.307	1361.45
865.485	1324.25
865.663	1400.97
865.84	1309.33
866.018	1352.73
866.196	1209.16
866.373	1229.89
866.551	1217.49
866.728	1137.09
866.906	1175.25
867.084	1242.48
867.261	1250.23
867.439	1254.3
867.616	1312.23
867.794	1267.87
867.971	1296.73
868.149	1278.91
868.326	1350.98
868.503	1300.61
868.681	1340.33
868.858	1283.75
869.035	1285.69
869.213	1312.62
869.39	1315.14
869.567	1339.36
869.745	1298.48
869.922	1305.45
870.099	1315.33
870.276	1332.38
870.454	1320.76
870.631	1307.97
870.808	1304.1
870.985	1320.18
871.162	1325.41
871.339	1314.95
871.517	1197.92
871.694	1239.97
871.871	1255.85
872.048	1256.43
872.225	1277.55
872.402	1279.68
872.579	1213.23
872.756	1274.07
872.933	1218.65
873.11	1230.67
873.287	1247.13
873.463	1212.45
873.64	1228.73
873.817	1249.85
873.994	1213.81
874.171	1216.33
874.348	1255.08
874.524	1163.82
874.701	1218.46
874.878	1146.58
875.055	1228.15
875.231	1218.46
875.408	1250.04
875.585	1155.1
875.762	1189.2
875.938	1184.36
876.115	1168.47
876.291	1218.65
876.468	1185.72
876.645	1146
876.821	1152.39
876.998	1167.7
877.174	1153.94
877.351	1164.99
877.527	1140.19
877.704	1175.06
877.88	1174.09
878.057	1129.34
878.233	1201.99
878.409	1123.91
878.586	1180.68
878.762	1145.22
878.938	1138.64
879.115	1092.52
879.291	1136.31
879.467	1081.48
879.644	1097.37
879.82	1157.04
879.996	1101.24
880.172	1086.71
880.349	1111.71
880.525	1116.55
880.701	1046.03
880.877	1053.97
881.053	1078.77
881.229	1069.08
881.405	1137.86
881.581	1060.17
881.757	1083.03
881.933	1091.36
882.109	1119.46
882.285	1100.47
882.461	1027.62
882.637	1096.21
882.813	1075.47
882.989	1072.96
883.165	1134.37
883.341	1092.72
883.517	1088.07
883.693	1084.58
883.869	1121.2
884.044	1049.71
884.22	1107.25
884.396	1114.42
884.572	1114.22
884.747	1083.22
884.923	1112.09
885.099	1091.56
885.275	1123.33
885.45	1037.11
885.626	1087.49
885.801	1056.1
885.977	1048.35
886.153	1016.58
886.328	1079.16
886.504	1042.54
886.679	1055.13
886.855	1057.65
887.03	1115.58
887.206	1090.01
887.381	1073.15
887.557	1074.51
887.732	1066.76
887.908	1095.24
888.083	1100.47
888.258	1053.58
888.434	1055.13
888.609	1093.3
888.784	1094.07
888.96	1084.19
889.135	1082.64
889.31	1002.43
889.485	1060.17
889.661	1032.27
889.836	1093.3
890.011	1104.15
890.186	1048.93
890.361	1045.64
890.537	1058.62
890.712	1081.48
890.887	1076.83
891.062	1079.74
891.237	1096.4
891.412	1008.83
891.587	1077.02
891.762	1066.17
891.937	1095.62
892.112	1009.21
892.287	1059.39
892.462	1021.03
892.637	1007.86
892.812	970.08
892.987	955.55
893.161	956.71
893.336	982.09
893.511	957.68
893.686	978.79
893.861	957.87
894.035	964.26
894.21	942.56
894.385	910.98
894.56	950.7
894.734	871.46
894.909	880.37
895.084	843.95
895.258	843.56
895.433	878.24
895.608	845.3
895.782	811.59
895.957	825.54
896.131	805.2
896.306	731.96
896.48	751.72
896.655	730.41
896.829	681.01
897.004	706.97
897.178	684.88
897.353	682.36
897.527	721.3
897.701	692.44
897.876	655.43
898.05	734.67
898.224	715.1
898.399	756.57
898.573	676.16
898.747	608.54
898.921	614.94
899.096	526.4
899.27	559.14
899.444	568.83
899.618	582.78
899.792	634.89
899.967	605.64
900.141	647.49
900.315	558.36
900.489	597.31
900.663	599.44
900.837	583.16
901.011	546.74
901.185	654.46
901.359	582.97
901.533	580.45
901.707	590.53
901.881	589.75
902.055	571.54
902.229	589.17
902.403	620.56
902.576	619.39
902.75	598.66
902.924	707.94
903.098	652.14
903.272	694.18
903.446	741.65
903.619	739.32
903.793	748.43
903.967	714.72
904.14	803.26
904.314	769.94
904.488	768.19
904.661	782.53
904.835	744.36
905.009	825.93
905.182	838.52
905.356	781.75
905.529	776.72
905.703	739.71
905.876	725.57
906.05	703.29
906.223	709.49
906.397	644
906.57	629.27
906.744	600.99
906.917	615.71
907.09	610.68
907.264	577.93
907.437	581.03
907.61	544.61
907.784	567.66
907.957	581.03
908.13	539.38
908.304	574.83
908.477	541.31
908.65	551.19
908.823	493.07
908.996	573.09
909.17	523.88
909.343	510.51
909.516	532.21
909.689	507.02
909.862	490.55
910.035	512.83
910.208	506.83
910.381	488.81
910.554	589.17
910.727	529.88
910.9	526.78
911.073	497.91
911.246	577.74
911.419	566.89
911.592	579.29
911.765	505.08
911.938	499.85
912.11	540.15
912.283	554.1
912.456	551.39
912.629	514
912.802	515.55
912.974	463.43
913.147	425.26
913.32	381.67
913.493	413.05
913.665	435.92
913.838	447.35
914.01	432.43
914.183	480.48
914.356	483.77
914.528	470.4
914.701	506.25
914.873	488.61
915.046	440.57
915.218	401.82
915.391	346.6
915.563	375.47
915.736	428.75
915.908	446.18
916.081	430.49
916.253	436.88
916.425	475.05
916.598	473.5
916.77	447.35
916.942	431.46
917.115	339.43
917.287	407.82
917.459	383.22
917.632	376.24
917.804	342.72
917.976	414.41
918.148	405.11
918.32	441.53
918.493	451.8
918.665	500.24
918.837	436.5
919.009	505.66
919.181	525.04
919.353	450.83
919.525	477.76
919.697	485.71
919.869	472.53
920.041	532.98
920.213	595.95
920.385	526.4
920.557	516.32
920.729	493.65
920.901	497.72
921.073	511.28
921.244	469.63
921.416	527.95
921.588	488.42
921.76	476.6
921.932	516.9
922.103	491.91
922.275	485.9
922.447	480.86
922.619	443.08
922.79	471.76
922.962	467.5
923.134	474.86
923.305	426.03
923.477	404.53
923.648	396.2
923.82	435.92
923.991	393.68
924.163	375.66
924.335	398.13
924.506	383.02
924.677	467.5
924.849	364.42
925.02	396.97
925.192	429.13
925.363	430.68
925.535	430.68
925.706	402.59
925.877	458.58
926.049	401.23
926.22	430.68
926.391	417.9
926.562	433.98
926.734	387.87
926.905	434.56
927.076	346.6
927.247	389.03
927.419	333.81
927.59	332.07
927.761	343.89
927.932	301.65
928.103	308.04
928.274	304.17
928.445	266.77
928.616	320.25
928.787	281.11
928.958	288.47
929.129	279.56
929.3	275.69
929.471	243.72
929.642	186.17
929.813	163.31
929.984	234.42
930.155	169.51
930.326	196.83
930.496	179.78
930.667	121.46
930.838	156.92
931.009	138.9
931.18	158.66
931.35	149.56
931.521	157.69
931.692	109.45
931.863	103.25
932.033	114.29
932.204	140.06
932.374	117.01
932.545	107.32
932.716	131.54
932.886	112.16
933.057	52.1
933.227	60.43
933.398	147.04
933.568	47.84
933.739	33.11
933.909	33.5
934.08	92.98
934.25	-5.63
934.421	14.9
934.591	44.74
934.761	34.86
934.932	23.81
935.102	52.1
935.272	47.65
935.443	59.08
935.613	46.48
935.783	50.55
935.953	27.69
936.123	154.21
936.294	24.2
936.464	11.03
936.634	39.9
936.804	-1.57
936.974	4.25
937.144	35.44
937.314	36.21
937.484	24.78
937.655	15.29
937.825	70.9
937.995	8.7
938.165	98.99
938.334	40.67
938.504	75.16
938.674	24.2
938.844	43.96
939.014	122.63
939.184	106.35
939.354	135.22
939.524	111.97
939.694	95.5
939.863	80.39
940.033	125.34
940.203	149.36
940.373	110.23
940.542	120.11
940.712	88.72
940.882	109.26
941.051	124.37
941.221	92.01
941.391	114.49
941.56	59.27
941.73	85.23
941.899	187.34
942.069	63.34
942.238	130.18
942.408	79.61
942.577	108.09
942.747	71.67
942.916	33.5
943.086	50.36
943.255	107.71
943.425	91.63
943.594	35.25
943.763	13.55
943.933	33.5
944.102	16.06
944.271	56.17
944.441	82.13
944.61	29.82
944.779	81.16
944.948	136.77
945.117	36.8
945.287	40.09
945.456	5.41
945.625	20.33
945.794	80.58
945.963	18
946.132	93.56
946.301	58.11
946.47	98.21
946.639	-6.41
946.808	30.79
946.977	76.9
947.146	89.69
947.315	66.83
947.484	63.34
947.653	76.51
947.822	37.96
947.991	22.65
948.16	101.51
948.329	102.28
948.498	35.25
948.666	55.2
948.835	78.45
949.004	28.08
949.173	30.4
949.341	96.86
949.51	67.8
949.679	101.12
949.847	88.91
950.016	131.15
950.185	112.94
950.353	63.34
950.522	65.08
950.69	105.96
950.859	45.9
951.028	120.3
951.196	77.68
951.365	49.78
951.533	32.53
951.701	73.03
951.87	81.36
952.038	39.7
952.207	68.96
952.375	89.5
952.543	15.87
952.712	66.63
952.88	58.69
953.048	133.67
953.217	71.67
953.385	68.18
953.553	107.71
953.721	34.08
953.89	72.06
954.058	33.11
954.226	46.48
954.394	52.1
954.562	38.54
954.73	60.43
954.898	57.53
955.067	81.94
955.235	61.6
955.403	99.76
955.571	115.07
955.739	74.77
955.907	50.75
956.075	50.16
956.243	49.2
956.41	75.74
956.578	33.7
956.746	57.91
956.914	45.9
957.082	87.95
957.25	112.94
957.418	63.73
957.585	85.81
957.753	134.06
957.921	19.55
958.089	72.83
958.256	111.39
958.424	75.35
958.592	71.09
958.759	56.36
958.927	73.41
959.095	58.3
959.262	77.1
959.43	73.41
959.597	20.91
959.765	68.57
959.932	43.58
960.1	90.27
960.267	54.62
960.435	84.85
960.602	97.05
960.77	58.3
960.937	39.31
961.104	85.04
961.272	61.6
961.439	60.82
961.606	63.34
961.774	81.75
961.941	49.2
962.108	61.4
962.275	80.58
962.443	135.8
962.61	66.05
962.777	142.78
962.944	99.96
963.111	112.94
963.278	92.6
963.446	108.68
963.613	90.08
963.78	83.49
963.947	90.85
964.114	88.33
964.281	163.51
964.448	108.09
964.615	75.55
964.782	99.76
964.949	109.26
965.116	122.04
965.282	137.74
965.449	92.01
965.616	45.51
965.783	99.38
965.95	90.08
966.117	43.77
966.283	49.39
966.45	95.69
966.617	116.23
966.784	123.79
966.95	117.39
967.117	118.94
967.284	69.93
967.45	63.53
967.617	128.05
967.784	115.46
967.95	162.34
968.117	113.52
968.283	137.35
968.45	207.68
968.616	111.78
968.783	150.91
968.949	105.96
969.116	139.87
969.282	108.87
969.449	117.2
969.615	125.73
969.781	79.81
969.948	104.8
970.114	69.35
970.28	162.93
970.447	81.94
970.613	155.18
970.779	109.45
970.945	139.68
971.112	121.46
971.278	127.86
971.444	92.98
971.61	166.03
971.776	99.96
971.942	101.89
972.108	111.39
972.275	93.76
972.441	140.06
972.607	178.62
972.773	73.61
972.939	114.68
973.105	94.73
973.271	85.23
973.437	88.91
973.602	72.25
973.768	104.99
973.934	73.61
974.1	111.78
974.266	33.31
974.432	115.26
974.598	105.19
974.763	136.96
974.929	98.79
975.095	132.51
975.261	79.23
975.426	77.29
975.592	76.51
975.758	131.93
975.923	54.81
976.089	72.06
976.255	81.36
976.42	93.56
976.586	98.41
976.751	108.09
976.917	159.44
977.082	109.64
977.248	76.13
977.413	55.2
977.579	56.56
977.744	103.64
977.91	57.91
978.075	85.62
978.24	98.6
978.406	87.95
978.571	92.21
978.736	69.73
978.902	92.4
979.067	94.92
979.232	43.38
979.397	84.65
979.563	145.88
979.728	64.7
979.893	84.07
980.058	98.99
980.223	110.61
980.388	109.45
980.554	103.64
980.719	88.53
980.884	97.63
981.049	109.45
981.214	86.59
981.379	97.05
981.544	74.58
981.709	93.18
981.874	83.1
982.039	75.93
982.204	91.63
982.368	87.17
982.533	87.95
982.698	128.83
982.863	135.03
983.028	89.3
983.193	112.36
983.357	118.36
983.522	116.62
983.687	112.16
983.852	97.63
984.016	72.45
984.181	108.29
984.346	110.61
984.51	66.63
984.675	120.3
984.839	103.64
985.004	81.75
985.168	102.09
985.333	98.6
985.498	79.23
985.662	100.73
985.827	80
985.991	87.17
986.155	73.03
986.32	107.51
986.484	154.59
986.649	114.68
986.813	60.82
986.977	78.45
987.142	111.19
987.306	56.56
987.47	93.37
987.634	97.05
987.799	114.88
987.963	142.97
988.127	121.46
988.291	183.85
988.455	105.96
988.62	76.51
988.784	107.9
988.948	108.29
989.112	75.55
989.276	111.97
989.44	76.9
989.604	74
989.768	76.32
989.932	128.44
990.096	77.29
990.26	63.53
990.424	71.28
990.588	103.06
990.752	150.14
990.915	104.41
991.079	42.61
991.243	87.17
991.407	126.31
991.571	76.51
991.734	107.9
991.898	78.45
992.062	163.89
992.226	68.76
992.389	68.38
992.553	43.96
992.717	39.9
992.88	80.2
993.044	91.63
993.207	82.71
993.371	88.14
993.535	103.64
993.698	77.1
993.862	112.16
994.025	80.2
994.189	87.95
994.352	94.15
994.515	84.07
994.679	109.84
994.842	85.62
995.006	93.37
995.169	57.72
995.332	83.68
995.496	72.06
995.659	49.58
995.822	81.94
995.985	68.38
996.149	134.44
996.312	79.42
996.475	134.44
996.638	87.75
996.801	109.26
996.964	142.19
997.128	91.63
997.291	92.21
997.454	74.96
997.617	50.36
997.78	108.68
997.943	61.6
998.106	105.96
998.269	48.42
998.432	54.43
998.595	81.94
998.758	25.17
998.92	55.98
999.083	20.71
999.246	76.13
999.409	54.23
999.572	23.62
999.735	35.44
999.897	72.06
1000.06	63.15
1000.223	61.6
1000.386	74.96
1000.548	91.63
1000.711	47.45
1000.874	79.23
1001.036	50.36
1001.199	78.26
1001.361	51.13
1001.524	58.11
1001.687	71.28
1001.849	43.77
1002.012	57.72
1002.174	79.61
1002.337	74.58
1002.499	45.9
1002.661	95.89
1002.824	21.68
1002.986	58.88
1003.149	61.6
1003.311	36.6
1003.473	124.56
1003.636	20.33
1003.798	76.32
1003.96	53.85
1004.123	49.2
1004.285	58.5
1004.447	51.71
1004.609	36.8
1004.771	93.76
1004.933	-0.79
1005.096	61.01
1005.258	12.19
1005.42	9.09
1005.582	95.11
1005.744	90.27
1005.906	20.91
1006.068	20.13
1006.23	18.78
1006.392	-1.95
1006.554	17.42
1006.716	67.02
1006.878	48.03
1007.04	4.63
1007.202	15.1
1007.363	51.91
1007.525	57.72
1007.687	75.55
1007.849	90.08
1008.011	24.78
1008.172	23.04
1008.334	35.44
1008.496	75.16
1008.658	17.81
1008.819	11.22
1008.981	20.13
1009.143	20.71
1009.304	51.91
1009.466	49.58
1009.627	91.43
1009.789	118.94
1009.95	28.08
1010.112	30.01
1010.273	81.75
1010.435	23.04
1010.596	48.23
1010.758	12.58
1010.919	35.44
1011.081	41.64
1011.242	31.95
1011.403	51.13
1011.565	42.03
1011.726	56.17
1011.887	10.64
1012.049	11.8
1012.21	90.27
1012.371	106.93
1012.532	-23.07
1012.693	19.36
1012.855	16.45
1013.016	35.05
1013.177	60.82
1013.338	29.24
1013.499	74
1013.66	42.22
1013.821	46.29
1013.982	38.54
1014.143	52.88
1014.304	12.38
1014.465	36.99
1014.626	43.19
1014.787	31.95
1014.948	100.34
1015.109	-13.77
1015.27	73.22
1015.431	40.28
1015.592	6.38
1015.752	48.23
1015.913	46.87
1016.074	51.33
1016.235	31.56
1016.395	48.03
1016.556	51.71
1016.717	16.84
1016.877	102.48
1017.038	16.65
1017.199	36.6
1017.359	35.05
1017.52	13.93
1017.681	25.56
1017.841	19.75
1018.002	18.39
1018.162	23.81
1018.323	68.18
1018.483	18.97
1018.644	23.43
1018.804	18.2
1018.964	8.7
1019.125	12.19
1019.285	33.7
1019.446	19.16
1019.606	11.41
1019.766	-13.77
1019.926	39.31
1020.087	28.08
1020.247	-16.48
1020.407	60.05
1020.567	50.75
1020.728	7.15
1020.888	-7.96
1021.048	9.09
1021.208	14.71
1021.368	6.96
1021.528	27.88
1021.688	68.96
1021.848	21.1
1022.008	30.6
1022.168	29.24
1022.328	29.63
1022.488	20.52
1022.648	45.13
1022.808	44.35
1022.968	31.56
1023.128	-18.42
1023.288	-1.95
1023.448	36.21
1023.608	33.11
1023.767	36.99
1023.927	5.8
1024.087	-1.95
1024.247	-2.53
1024.406	-2.73
1024.566	-8.54
1024.726	5.41
1024.885	18.2
1025.045	46.87
1025.205	5.99
1025.364	20.13
1025.524	40.48
1025.683	0.76
1025.843	47.45
1026.003	19.16
1026.162	69.93
1026.321	36.6
1026.481	13.16
1026.64	-4.47
1026.8	47.65
1026.959	24.59
1027.119	-12.22
1027.278	0.37
1027.437	18.2
1027.597	22.46
1027.756	32.73
1027.915	11.41
1028.074	10.64
1028.234	18.58
1028.393	5.6
1028.552	-0.21
1028.711	-37.22
1028.87	47.06
1029.03	-39.54
1029.189	29.43
1029.348	-21.33
1029.507	18
1029.666	7.73
1029.825	-33.92
1029.984	-5.44
1030.143	52.1
1030.302	21.3
1030.461	-29.85
1030.62	28.46
1030.779	45.9
1030.938	-20.94
1031.097	-7.38
1031.255	18.97
1031.414	70.51
1031.573	66.63
1031.732	-37.99
1031.891	-4.47
1032.049	71.09
1032.208	31.95
1032.367	-8.35
1032.525	16.26
1032.684	-2.15
1032.843	16.26
1033.001	-31.4
1033.16	134.64
1033.319	48.03
1033.477	34.47
1033.636	-13.97
1033.794	-33.73
1033.953	47.84
1034.111	52.88
1034.27	-1.57
1034.428	19.94
1034.587	-12.8
1034.745	31.76
1034.903	6.38
1035.062	14.51
1035.22	-15.32
1035.378	34.86
1035.537	15.48
1035.695	20.91
1035.853	-1.37
1036.011	10.83
1036.17	47.06
1036.328	-52.72
1036.486	7.54
1036.644	26.91
1036.802	-61.43
1036.96	-26.17
1037.119	-9.7
1037.277	-14.55
1037.435	-3.5
1037.593	-10.87
1037.751	-11.06
1037.909	21.88
1038.067	21.88
