Data from gum_young_FLMT105791__72__17-39-30-043.txt Node

Date: Mon Mar 20 17:39:30 GMT 2023
User: antho
Spectrometer: FLMT10579
Trigger mode: 0
Integration Time (sec): 1.000000E-1
Scans to average: 10
Electric dark correction enabled: true
Nonlinearity correction enabled: false
Boxcar width: 0
XAxis mode: Wavelengths
Number of Pixels in Spectrum: 3648
>>>>>Begin Spectral Data<<<<<
345.248	-127.68
345.464	-127.68
345.681	-127.68
345.898	-144.15
346.114	-147.64
346.331	-15.11
346.548	2.13
346.764	-4.07
346.981	4.84
347.197	5.42
347.414	3.1
347.631	-9.3
347.847	49.41
348.064	-10.66
348.28	22.09
348.497	-35.46
348.713	-12.4
348.93	37.01
349.146	19.37
349.363	2.71
349.579	41.46
349.796	2.71
350.012	8.52
350.229	22.28
350.445	22.86
350.661	-18.99
350.878	0
351.094	15.31
351.311	-9.11
351.527	-8.72
351.743	5.62
351.96	39.72
352.176	45.14
352.392	29.26
352.609	40.88
352.825	-19.18
353.041	-24.8
353.257	22.47
353.474	18.79
353.69	4.84
353.906	19.96
354.122	-17.44
354.339	45.92
354.555	-4.26
354.771	-16.66
354.987	62.58
355.203	53.86
355.42	-17.82
355.636	-27.32
355.852	-5.62
356.068	15.31
356.284	-38.94
356.5	67.04
356.716	-1.94
356.932	4.65
357.148	-3.49
357.364	4.65
357.58	55.8
357.796	62.97
358.012	39.72
358.228	29.45
358.444	-45.14
358.66	48.63
358.876	45.14
359.092	-4.26
359.308	23.44
359.524	34.49
359.74	27.12
359.956	-33.32
360.172	22.86
360.388	51.15
360.604	2.13
360.819	64.52
361.035	31.39
361.251	12.59
361.467	-5.23
361.683	50.57
361.898	-17.05
362.114	30.61
362.33	7.75
362.546	56.77
362.762	4.07
362.977	22.86
363.193	11.62
363.409	53.09
363.624	-14.92
363.84	21.89
364.056	11.62
364.271	23.06
364.487	-5.81
364.703	15.69
364.918	-10.46
365.134	9.69
365.35	16.47
365.565	93.19
365.781	27.51
365.996	13.56
366.212	69.75
366.427	19.96
366.643	-12.59
366.858	23.06
367.074	-12.59
367.289	74.21
367.505	101.33
367.72	-36.42
367.936	-2.91
368.151	46.31
368.367	38.56
368.582	20.73
368.798	10.46
369.013	68.97
369.228	1.36
369.444	15.69
369.659	70.33
369.874	26.35
370.09	65.1
370.305	-25.38
370.52	20.15
370.736	59.09
370.951	22.28
371.166	73.04
371.381	57.54
371.597	55.22
371.812	10.07
372.027	-1.16
372.242	10.46
372.458	80.41
372.673	2.32
372.888	25.57
373.103	41.66
373.318	79.05
373.533	31.19
373.749	62.19
373.964	-5.42
374.179	60.64
374.394	13.37
374.609	81.96
374.824	-2.91
375.039	60.45
375.254	-2.71
375.469	71.49
375.684	7.75
375.899	54.06
376.114	24.02
376.329	39.52
376.544	48.24
376.759	40.11
376.974	-9.11
377.189	15.31
377.404	-2.71
377.619	71.3
377.834	-21.7
378.049	-26.35
378.264	4.07
378.478	39.91
378.693	-25.96
378.908	17.05
379.123	17.82
379.338	51.34
379.553	33.71
379.767	18.41
379.982	39.33
380.197	68.2
380.412	3.49
380.626	44.37
380.841	94.74
381.056	27.12
381.271	76.34
381.485	20.73
381.7	-16.08
381.915	10.46
382.129	8.33
382.344	37.78
382.559	20.34
382.773	53.09
382.988	-20.34
383.202	24.8
383.417	-14.72
383.632	106.37
383.846	40.69
384.061	21.51
384.275	-1.94
384.49	31.19
384.704	56.96
384.919	44.17
385.133	26.93
385.348	58.51
385.562	1.36
385.777	79.82
385.991	18.41
386.206	26.35
386.42	2.52
386.634	75.56
386.849	50.37
387.063	50.76
387.277	12.59
387.492	5.23
387.706	-34.87
387.92	21.89
388.135	56.57
388.349	48.44
388.563	23.64
388.778	41.66
388.992	65.29
389.206	55.99
389.42	119.15
389.635	12.01
389.849	58.9
390.063	73.24
390.277	69.94
390.491	96.29
390.706	60.64
390.92	57.93
391.134	24.22
391.348	77.69
391.562	6.97
391.776	50.96
391.99	35.46
392.205	72.27
392.419	38.75
392.633	28.67
392.847	57.54
393.061	43.01
393.275	93.97
393.489	29.26
393.703	43.21
393.917	73.04
394.131	44.56
394.345	83.51
394.559	106.75
394.773	14.14
394.986	43.21
395.2	25.77
395.414	85.44
395.628	-5.42
395.842	58.12
396.056	41.46
396.27	-11.04
396.484	53.09
396.697	49.21
396.911	80.41
397.125	81.96
397.339	70.72
397.553	48.44
397.766	99.2
397.98	94.74
398.194	77.11
398.408	59.48
398.621	63.16
398.835	46.31
399.049	68.97
399.262	99.97
399.476	72.27
399.69	67.04
399.903	114.7
400.117	80.99
400.331	82.34
400.544	42.04
400.758	160.23
400.971	104.04
401.185	111.99
401.398	59.67
401.612	94.55
401.826	112.95
402.039	102.88
402.253	34.68
402.466	96.68
402.68	73.24
402.893	95.32
403.106	63.74
403.32	72.27
403.533	93.97
403.747	85.44
403.96	87.57
404.174	107.72
404.387	68.2
404.6	67.42
404.814	104.82
405.027	99
405.24	74.59
405.454	88.54
405.667	121.67
405.88	44.37
406.094	71.49
406.307	105.98
406.52	101.33
406.733	57.54
406.947	68.39
407.16	127.1
407.373	138.14
407.586	54.83
407.799	75.56
408.012	107.92
408.226	110.24
408.439	138.72
408.652	55.61
408.865	90.48
409.078	101.33
409.291	102.69
409.504	53.28
409.717	96.68
409.93	107.14
410.143	103.85
410.357	16.86
410.57	34.49
410.783	60.84
410.996	99.39
411.209	92.22
411.421	134.46
411.634	110.05
411.847	68.78
412.06	114.31
412.273	100.75
412.486	87.96
412.699	161.97
412.912	96.87
413.125	127.1
413.338	106.56
413.55	145.31
413.763	100.94
413.976	98.62
414.189	77.11
414.402	79.44
414.615	161.39
414.827	78.86
415.04	122.84
415.253	127.29
415.466	124.77
415.678	160.04
415.891	122.45
416.104	106.56
416.316	116.05
416.529	89.32
416.742	148.8
416.954	137.95
417.167	111.4
417.38	76.72
417.592	149.19
417.805	89.12
418.017	72.07
418.23	151.51
418.442	92.03
418.655	108.3
418.868	120.51
419.08	128.07
419.293	155.77
419.505	147.44
419.718	132.52
419.93	149.96
420.142	118.77
420.355	173.21
420.567	182.7
420.78	149.57
420.992	131.17
421.205	195.49
421.417	94.55
421.629	108.69
421.842	113.54
422.054	105.4
422.266	145.7
422.479	169.53
422.691	86.02
422.903	136.79
423.115	140.08
423.328	119.93
423.54	153.06
423.752	125.55
423.964	85.83
424.177	133.49
424.389	130.78
424.601	222.03
424.813	148.8
425.025	167.79
425.238	153.64
425.45	116.05
425.662	115.67
425.874	372.38
426.086	157.71
426.298	141.44
426.51	138.14
426.722	118.57
426.934	105.59
427.146	142.02
427.358	90.29
427.57	173.6
427.782	137.17
427.994	142.02
428.206	132.52
428.418	126.13
428.63	146.47
428.842	154.42
429.054	144.73
429.266	170.3
429.478	131.94
429.69	153.64
429.902	93.97
430.114	183.09
430.325	128.45
430.537	99.78
430.749	116.44
430.961	82.34
431.173	126.52
431.384	149.96
431.596	41.27
431.808	136.79
432.02	152.67
432.231	156.74
432.443	181.54
432.655	145.12
432.867	131.36
433.078	164.49
433.29	209.05
433.502	183.09
433.713	173.6
433.925	165.27
434.136	181.73
434.348	133.3
434.56	114.31
434.771	254.97
434.983	122.84
435.194	140.27
435.406	149.19
435.617	185.61
435.829	223.2
436.04	196.65
436.252	176.7
436.463	218.35
436.675	196.46
436.886	186.38
437.098	201.3
437.309	211.77
437.521	199.37
437.732	218.55
437.943	201.88
438.155	191.23
438.366	183.87
438.578	235.98
438.789	196.27
439	196.46
439.211	181.93
439.423	200.33
439.634	187.93
439.845	201.11
440.057	184.06
440.268	213.51
440.479	167.4
440.69	206.34
440.902	191.03
441.113	188.52
441.324	185.42
441.535	205.37
441.746	261.56
441.957	188.52
442.168	205.95
442.38	191.62
442.591	243.15
442.802	189.1
443.013	207.89
443.224	205.76
443.435	205.37
443.646	193.55
443.857	198.59
444.068	172.63
444.279	187.55
444.49	289.26
444.701	238.31
444.912	295.27
445.123	257.3
445.334	222.23
445.545	242.96
445.756	229.98
445.967	209.25
446.178	246.06
446.388	266.79
446.599	240.63
446.81	248.58
447.021	204.79
447.232	256.52
447.443	290.81
447.653	213.12
447.864	272.21
448.075	224.75
448.286	285.58
448.496	243.93
448.707	283.06
448.918	250.9
449.129	330.92
449.339	221.84
449.55	266.21
449.761	213.32
449.971	281.9
450.182	247.61
450.393	267.18
450.603	251.29
450.814	299.53
451.024	281.32
451.235	283.26
451.446	314.06
451.656	310.77
451.867	264.66
452.077	287.52
452.288	302.44
452.498	333.83
452.709	273.76
452.919	317.75
453.13	258.07
453.34	286.55
453.55	230.75
453.761	285
453.971	283.26
454.182	298.18
454.392	297.01
454.602	331.31
454.813	275.12
455.023	305.35
455.233	253.03
455.444	268.53
455.654	230.37
455.864	290.81
456.075	272.21
456.285	282.48
456.495	275.9
456.705	295.46
456.916	350.1
457.126	346.23
457.336	287.33
457.546	226.1
457.756	263.69
457.967	328.6
458.177	286.55
458.387	299.73
458.597	268.73
458.807	287.91
459.017	286.36
459.227	277.83
459.437	306.31
459.647	309.03
459.857	309.22
460.068	277.06
460.278	349.33
460.488	301.66
460.698	346.23
460.908	303.99
461.117	277.25
461.327	304.57
461.537	307.86
461.747	324.53
461.957	295.27
462.167	392.14
462.377	344.1
462.587	312.51
462.797	346.42
463.007	320.07
463.216	341.19
463.426	352.43
463.636	360.18
463.846	265.24
464.056	284.61
464.265	330.34
464.475	270.08
464.685	344.68
464.895	339.06
465.104	304.38
465.314	354.75
465.524	324.33
465.733	323.17
465.943	405.51
466.153	396.02
466.362	361.53
466.572	334.02
466.782	321.04
466.991	331.11
467.201	378
467.41	277.06
467.62	343.32
467.829	344.48
468.039	379.16
468.249	310.19
468.458	342.93
468.668	372.38
468.877	356.88
469.086	381.88
469.296	397.57
469.505	339.25
469.715	399.7
469.924	385.94
470.134	399.51
470.343	387.69
470.552	365.02
470.762	383.23
470.971	344.48
471.18	342.35
471.39	371.8
471.599	341.58
471.808	384.59
472.018	353.59
472.227	409.39
472.436	424.89
472.645	394.66
472.855	368.31
473.064	411.91
473.273	427.6
473.482	417.14
473.691	430.7
473.901	436.71
474.11	376.45
474.319	495.99
474.528	429.73
474.737	453.17
474.946	442.52
475.155	437.48
475.364	464.99
475.573	438.06
475.783	452.01
475.992	465.96
476.201	462.09
476.41	401.06
476.619	427.79
476.828	450.66
477.037	401.44
477.245	451.82
477.454	490.96
477.663	438.45
477.872	457.63
478.081	542.88
478.29	441.94
478.499	567.87
478.708	474.68
478.917	549.27
479.125	475.46
479.334	487.86
479.543	484.76
479.752	518.08
479.961	522.15
480.169	532.22
480.378	486.11
480.587	590.35
480.796	554.12
481.004	524.47
481.213	536.1
481.422	546.17
481.63	549.85
481.839	559.54
482.048	588.99
482.256	558.57
482.465	539.78
482.674	587.44
482.882	570
483.091	600.04
483.299	575.04
483.508	556.05
483.716	587.25
483.925	561.09
484.134	549.27
484.342	563.42
484.551	613.98
484.759	596.94
484.967	624.45
485.176	606.04
485.384	585.7
485.593	608.37
485.801	586.28
486.01	567.49
486.218	561.29
486.426	505.49
486.635	528.74
486.843	523.7
487.051	559.15
487.26	546.37
487.468	590.74
487.676	603.14
487.885	558.38
488.093	628.52
488.301	639.75
488.509	635.88
488.717	637.62
488.926	615.15
489.134	602.75
489.342	625.42
489.55	607.01
489.758	633.36
489.967	633.94
490.175	710.86
490.383	625.03
490.591	733.14
490.799	650.41
491.007	679.86
491.215	670.37
491.423	658.35
491.631	665.13
491.839	663.58
492.047	704.08
492.255	622.51
492.463	614.18
492.671	631.42
492.879	698.85
493.087	687.42
493.295	678.31
493.503	693.42
493.711	713.57
493.919	745.35
494.127	724.61
494.334	765.69
494.542	671.92
494.75	723.06
494.958	717.45
495.166	789.71
495.374	799.4
495.581	789.13
495.789	765.3
495.997	805.79
496.205	782.35
496.412	759.3
496.62	753.29
496.828	791.65
497.035	759.3
497.243	807.73
497.451	780.8
497.658	787
497.866	780.03
498.074	851.71
498.281	776.73
498.489	854.04
498.696	804.24
498.904	769.37
499.112	790.68
499.319	861.79
499.527	795.33
499.734	862.95
499.942	797.85
500.149	789.33
500.357	837.38
500.564	771.31
500.771	817.03
500.979	793.78
501.186	793.78
501.394	845.13
501.601	824.2
501.808	857.33
502.016	792.81
502.223	811.99
502.43	822.84
502.638	818.39
502.845	800.76
503.052	893.17
503.26	845.32
503.467	892.4
503.674	894.53
503.881	861.98
504.089	938.12
504.296	928.63
504.503	852.49
504.71	872.44
504.917	865.28
505.125	922.82
505.332	918.94
505.539	929.02
505.746	974.16
505.953	969.7
506.16	956.53
506.367	1017.56
506.574	1021.44
506.781	1042.55
506.988	954.79
507.195	965.64
507.402	996.25
507.609	1051.85
507.816	938.71
508.023	952.27
508.23	1019.3
508.437	964.09
508.644	1012.14
508.851	1058.63
509.058	1067.35
509.265	1048.37
509.472	1071.62
509.679	1148.34
509.885	1080.72
510.092	1073.94
510.299	1098.74
510.506	1100.87
510.713	1102.03
510.92	1086.92
511.126	1162.68
511.333	1183.41
511.54	1176.82
511.746	1210.53
511.953	1206.85
512.16	1194.84
512.367	1167.71
512.573	1167.71
512.78	1207.82
512.987	1178.18
513.193	1189.41
513.4	1147.18
513.606	1212.66
513.813	1234.75
514.02	1203.75
514.226	1321.36
514.433	1283.58
514.639	1214.8
514.846	1236.88
515.052	1263.23
515.259	1269.63
515.465	1252.96
515.672	1251.41
515.878	1334.53
516.085	1320.19
516.291	1328.91
516.497	1287.06
516.704	1297.14
516.91	1236.69
517.117	1210.53
517.323	1200.26
517.529	1199.68
517.736	1229.13
517.942	1269.63
518.148	1269.04
518.354	1316.32
518.561	1331.43
518.767	1321.16
518.973	1362.04
519.179	1369.21
519.386	1369.79
519.592	1366.5
519.798	1368.82
520.004	1515.3
520.21	1435.09
520.417	1522.27
520.623	1542.03
520.829	1548.82
521.035	1531.96
521.241	1544.36
521.447	1568.97
521.653	1662.93
521.859	1578.26
522.065	1584.66
522.271	1711.56
522.477	1667
522.683	1673.98
522.889	1692.19
523.095	1650.92
523.301	1655.57
523.507	1670.1
523.713	1688.12
523.919	1655.96
524.125	1735.01
524.331	1739.85
524.537	1811.34
524.742	1850.67
524.948	1853
525.154	1880.51
525.36	1916.74
525.566	1820.84
525.772	1882.45
525.977	1819.67
526.183	1856.87
526.389	1867.14
526.595	1817.54
526.8	1811.34
527.006	1733.26
527.212	1710.59
527.417	1667.39
527.623	1720.67
527.829	1800.88
528.034	1802.62
528.24	1847.96
528.446	1839.44
528.651	1934.57
528.857	1995.02
529.062	2012.26
529.268	2008.97
529.473	2017.68
529.679	2025.24
529.884	2070.58
530.09	2081.62
530.295	2032.02
530.501	2079.49
530.706	2039
530.912	2015.94
531.117	2062.83
531.323	2092.28
531.528	2108.16
531.733	2158.34
531.939	2094.21
532.144	2121.73
532.35	2088.6
532.555	2163.38
532.76	2080.65
532.966	2129.48
533.171	2077.55
533.376	2070.96
533.581	2032.8
533.787	2081.62
533.992	2141.1
534.197	2126.38
534.402	2162.22
534.607	2171.91
534.813	2237.97
535.018	2155.63
535.223	2192.44
535.428	2177.53
535.633	2240.49
535.838	2268.59
536.043	2263.74
536.249	2360.03
536.454	2236.23
536.659	2293.97
536.864	2238.17
537.069	2228.67
537.274	2309.85
537.479	2287.19
537.684	2271.3
537.889	2214.92
538.094	2347.25
538.299	2260.84
538.504	2342.02
538.708	2303.46
538.913	2346.67
539.118	2337.56
539.323	2299.39
539.528	2299
539.733	2272.27
539.938	2331.17
540.142	2314.5
540.347	2294.55
540.552	2320.51
540.757	2248.05
540.962	2234.87
541.166	2224.99
541.371	2208.52
541.576	2291.06
541.781	2225.38
541.985	2344.92
542.19	2332.33
542.395	2392.39
542.599	2406.34
542.804	2360.23
543.008	2384.25
543.213	2353.64
543.418	2293
543.622	2386.77
543.827	2315.86
544.031	2417.19
544.236	2443.73
544.44	2427.65
544.645	2445.87
544.849	2418.16
545.054	2457.3
545.258	2531.7
545.463	2484.61
545.667	2402.66
545.872	2461.36
546.076	2420.29
546.281	2436.18
546.485	2410.99
546.689	2442.96
546.894	2476.09
547.098	2466.21
547.302	2431.53
547.507	2472.21
547.711	2435.02
547.915	2491.01
548.119	2412.35
548.324	2424.36
548.528	2485.58
548.732	2447.8
548.936	2504.18
549.141	2510.19
549.345	2478.03
549.549	2524.33
549.753	2501.86
549.957	2584.39
550.161	2552.04
550.366	2489.07
550.57	2509.41
550.774	2505.35
550.978	2543.13
551.182	2521.62
551.386	2478.03
551.59	2485.2
551.794	2498.37
551.998	2540.03
552.202	2502.25
552.406	2491.4
552.61	2558.43
552.814	2498.76
553.018	2564.83
553.222	2484.03
553.426	2529.18
553.63	2604.54
553.833	2469.5
554.037	2477.25
554.241	2523.56
554.445	2557.27
554.649	2515.42
554.853	2528.01
555.056	2571.61
555.26	2546.42
555.464	2562.69
555.668	2523.95
555.871	2535.18
556.075	2588.66
556.279	2533.83
556.483	2440.44
556.686	2488.49
556.89	2528.4
557.094	2505.35
557.297	2445.09
557.501	2482.87
557.704	2394.33
557.908	2471.63
558.112	2431.72
558.315	2537.12
558.519	2433.47
558.722	2415.25
558.926	2419.32
559.129	2326.32
559.333	2334.85
559.536	2372.63
559.74	2310.24
559.943	2258.51
560.147	2301.72
560.35	2316.05
560.553	2369.92
560.757	2324.39
560.96	2413.51
561.164	2352.67
561.367	2420.68
561.57	2370.11
561.774	2368.37
561.977	2315.09
562.18	2306.56
562.384	2411.57
562.587	2343.18
562.79	2327.1
562.993	2329.42
563.197	2378.63
563.4	2370.69
563.603	2392.58
563.806	2393.36
564.009	2315.09
564.212	2308.5
564.416	2274.59
564.619	2295.9
564.822	2219.96
565.025	2309.27
565.228	2276.34
565.431	2278.27
565.634	2188.37
565.837	2193.8
566.04	2187.02
566.243	2191.09
566.446	2106.61
566.649	2159.89
566.852	2135.29
567.055	2159.7
567.258	2162.22
567.461	2216.86
567.664	2213.56
567.867	2131.41
568.07	2174.23
568.273	2138.58
568.475	2205.42
568.678	2103.71
568.881	2101.19
569.084	2104.68
569.287	1999.67
569.489	2013.61
569.692	2114.36
569.895	2069.03
570.098	1998.31
570.3	2016.13
570.503	1932.63
570.706	1968.86
570.909	1944.06
571.111	1892.52
571.314	1922.36
571.516	1942.12
571.719	1941.35
571.922	1921.39
572.124	1899.5
572.327	1911.32
572.529	1874.31
572.732	1916.35
572.935	1942.51
573.137	1958.01
573.34	1912.48
573.542	1951.42
573.745	1873.34
573.947	1890.2
574.15	1885.55
574.352	1847.19
574.554	1964.4
574.757	1853.97
574.959	1864.62
575.162	1830.52
575.364	1797.59
575.566	1882.64
575.769	1755.74
575.971	1796.04
576.173	1721.25
576.376	1781.12
576.578	1822.77
576.78	1841.95
576.982	1707.49
577.185	1776.08
577.387	1724.54
577.589	1722.03
577.791	1774.34
577.993	1797.2
578.196	1741.21
578.398	1780.73
578.6	1769.69
578.802	1702.46
579.004	1687.73
579.206	1693.16
579.408	1762.71
579.61	1688.51
579.812	1747.79
580.014	1736.94
580.216	1699.55
580.418	1717.38
580.62	1707.49
580.822	1688.12
581.024	1739.08
581.226	1774.53
581.428	1733.65
581.63	1811.34
581.832	1685.21
582.034	1747.79
582.236	1753.61
582.438	1763.29
582.64	1789.64
582.841	1782.67
583.043	1819.29
583.245	1757.29
583.447	1794.1
583.649	1733.84
583.85	1760.19
584.052	1793.32
584.254	1725.13
584.456	1762.52
584.657	1666.81
584.859	1715.63
585.061	1699.94
585.262	1728.03
585.464	1668.94
585.666	1731.71
585.867	1674.17
586.069	1740.43
586.27	1666.42
586.472	1672.23
586.674	1673.98
586.875	1655.96
587.077	1687.93
587.278	1675.53
587.48	1666.81
587.681	1750.12
587.883	1667.97
588.084	1612.95
588.285	1601.71
588.487	1610.43
588.688	1620.31
588.89	1514.33
589.091	1517.62
589.292	1494.76
589.494	1458.72
589.695	1426.37
589.896	1366.5
590.098	1352.74
590.299	1432.18
590.5	1399.44
590.702	1435.86
590.903	1481.39
591.104	1525.76
591.305	1513.17
591.507	1543.2
591.708	1525.95
591.909	1498.44
592.11	1564.9
592.311	1550.56
592.512	1496.89
592.714	1428.69
592.915	1481.59
593.116	1491.47
593.317	1528.08
593.518	1490.5
593.719	1517.04
593.92	1542.42
594.121	1553.66
594.322	1516.65
594.523	1483.14
594.724	1454.65
594.925	1506.97
595.126	1502.9
595.327	1486.04
595.528	1479.07
595.729	1500.96
595.929	1481.97
596.13	1506
596.331	1537.19
596.532	1490.3
596.733	1562.18
596.934	1521.69
597.135	1515.3
597.335	1553.85
597.536	1503.09
597.737	1527.7
597.938	1430.63
598.138	1489.53
598.339	1444.97
598.54	1512.39
598.74	1491.47
598.941	1497.28
599.142	1542.81
599.342	1520.92
599.543	1458.53
599.744	1491.85
599.944	1477.9
600.145	1508.13
600.345	1501.73
600.546	1565.28
600.746	1533.12
600.947	1576.13
601.147	1461.63
601.348	1488.37
601.548	1461.44
601.749	1478.49
601.949	1415.13
602.15	1438.77
602.35	1467.44
602.551	1475.19
602.751	1418.81
602.951	1445.74
603.152	1400.4
603.352	1493.79
603.552	1489.72
603.753	1503.09
603.953	1505.42
604.153	1509.87
604.354	1458.92
604.554	1494.57
604.754	1476.94
604.954	1439.74
605.155	1478.49
605.355	1488.75
605.555	1521.11
605.755	1509.87
605.955	1481.39
606.155	1475.39
606.356	1485.65
606.556	1492.82
606.756	1473.06
606.956	1428.3
607.156	1488.17
607.356	1478.68
607.556	1476.35
607.756	1459.5
607.956	1497.47
608.156	1459.3
608.356	1437.6
608.556	1431.02
608.756	1441.48
608.956	1417.07
609.156	1407.77
609.356	1370.76
609.556	1392.07
609.755	1389.36
609.955	1360.88
610.155	1394.98
610.355	1389.56
610.555	1377.16
610.755	1364.17
610.954	1315.74
611.154	1369.02
611.354	1408.54
611.554	1348.48
611.753	1332.4
611.953	1308.96
612.153	1392.27
612.352	1396.72
612.552	1331.04
612.752	1288.23
612.951	1361.46
613.151	1346.93
613.351	1305.47
613.55	1355.46
613.75	1312.64
613.949	1292.49
614.149	1338.21
614.348	1332.01
614.548	1316.12
614.747	1237.08
614.947	1266.72
615.146	1216.54
615.346	1365.72
615.545	1292.68
615.745	1271.95
615.944	1322.32
616.144	1291.33
616.343	1243.47
616.542	1262.84
616.742	1267.49
616.941	1278.73
617.14	1175.85
617.34	1227.97
617.539	1238.04
617.738	1220.41
617.938	1290.16
618.137	1256.84
618.336	1221.19
618.535	1264.2
618.734	1226.03
618.934	1282.99
619.133	1252.38
619.332	1273.5
619.531	1202.78
619.73	1229.91
619.929	1260.52
620.128	1243.47
620.328	1259.74
620.527	1220.41
620.726	1245.21
620.925	1240.56
621.124	1213.05
621.323	1210.15
621.522	1172.36
621.721	1168.68
621.92	1179.92
622.119	1216.35
622.318	1199.49
622.517	1192.51
622.715	1180.31
622.914	1132.65
623.113	1178.56
623.312	1117.73
623.511	1190.19
623.71	1125.48
623.909	1131.48
624.107	1194.26
624.306	1132.45
624.505	1116.37
624.704	1119.47
624.902	1129.74
625.101	1158.8
625.3	1119.28
625.499	1111.72
625.697	1106.1
625.896	1078.78
626.095	1140.2
626.293	1067.93
626.492	1087.12
626.69	1175.46
626.889	1124.32
627.088	1128.77
627.286	1075.1
627.485	1097
627.683	1075.88
627.882	1073.94
628.08	1025.7
628.279	1044.1
628.477	1118.5
628.676	1041.59
628.874	1068.32
629.073	1005.16
629.271	1026.47
629.469	1065.42
629.668	1059.22
629.866	1014.27
630.065	1022.99
630.263	1066.58
630.461	1011.94
630.66	1068.9
630.858	1071.23
631.056	1126.83
631.254	1087.5
631.453	1021.63
631.651	1104.36
631.849	1070.45
632.047	1057.67
632.245	1073.36
632.444	1087.31
632.642	1063.28
632.84	1100.48
633.038	1054.76
633.236	1040.23
633.434	1059.6
633.632	1047.79
633.83	1031.7
634.028	1090.6
634.227	1054.95
634.425	1125.87
634.623	1045.46
634.821	1071.03
635.019	1051.47
635.216	1071.42
635.414	1103
635.612	1064.06
635.81	1038.1
636.008	1097.38
636.206	1072.2
636.404	1063.67
636.602	1009.81
636.8	1048.37
636.997	1078.59
637.195	1084.6
637.393	1057.47
637.591	1120.05
637.789	1061.54
637.986	1046.24
638.184	1054.37
638.382	1097.38
638.58	1092.54
638.777	1083.43
638.975	1062.7
639.173	1058.83
639.37	1055.92
639.568	1060.18
639.765	1090.6
639.963	1005.74
640.161	1068.32
640.358	1026.28
640.556	1010.59
640.753	990.82
640.951	954.4
641.148	1011.55
641.346	991.02
641.543	969.51
641.741	1024.34
641.938	936.19
642.136	979.78
642.333	973
642.531	1005.74
642.728	1023.95
642.925	991.4
643.123	976.1
643.32	1000.7
643.517	971.45
643.715	1002.06
643.912	962.73
644.109	952.46
644.306	946.84
644.504	940.06
644.701	952.85
644.898	951.11
645.095	872.25
645.293	945.68
645.49	950.72
645.687	935.22
645.884	984.62
646.081	867.6
646.278	885.62
646.475	864.31
646.672	877.09
646.87	913.52
647.067	876.12
647.264	876.71
647.461	823.62
647.658	831.18
647.855	877.87
648.052	805.6
648.249	777.31
648.446	817.61
648.642	807.34
648.839	802.31
649.036	799.79
649.233	785.84
649.43	751.35
649.627	736.82
649.824	802.11
650.021	773.25
650.217	793.01
650.414	778.67
650.611	795.91
650.808	817.81
651.004	807.73
651.201	817.61
651.398	847.64
651.595	822.26
651.791	764.91
651.988	805.21
652.185	759.49
652.381	823.62
652.578	733.91
652.775	779.83
652.971	779.45
653.168	762.01
653.364	812.19
653.561	765.5
653.757	767.82
653.954	780.61
654.15	782.35
654.347	861.59
654.543	783.9
654.74	741.47
654.936	705.05
655.133	764.91
655.329	757.16
655.525	742.05
655.722	760.26
655.918	719.77
656.115	732.75
656.311	672.5
656.507	666.88
656.704	624.83
656.9	662.23
657.096	642.27
657.292	626.58
657.489	699.62
657.685	702.72
657.881	701.36
658.077	685.48
658.273	705.05
658.47	762.4
658.666	705.24
658.862	741.47
659.058	684.51
659.254	766.46
659.45	695.94
659.646	763.17
659.842	709.7
660.038	774.99
660.234	674.05
660.43	711.83
660.626	783.32
660.822	721.32
661.018	753.1
661.214	737.98
661.41	697.3
661.606	727.52
661.802	758.91
661.998	718.03
662.194	664.17
662.39	736.43
662.586	747.48
662.781	710.47
662.977	715.7
663.173	707.95
663.369	686.64
663.564	699.81
663.76	682.18
663.956	685.87
664.152	722.1
664.347	646.73
664.543	692.07
664.739	645.76
664.934	638.01
665.13	595.97
665.326	671.72
665.521	699.04
665.717	637.04
665.912	645.18
666.108	613.02
666.304	630.65
666.499	650.8
666.695	575.82
666.89	647.5
667.086	668.23
667.281	650.8
667.477	688.58
667.672	633.75
667.867	655.25
668.063	640.72
668.258	578.92
668.454	603.52
668.649	699.62
668.844	630.84
669.04	678.5
669.235	626.77
669.43	637.43
669.626	592.09
669.821	600.42
670.016	622.32
670.211	614.76
670.407	590.15
670.602	589.57
670.797	605.85
670.992	680.05
671.187	585.31
671.382	645.95
671.578	609.34
671.773	639.37
671.968	585.12
672.163	622.51
672.358	639.17
672.553	587.64
672.748	619.02
672.943	688.19
673.138	612.24
673.333	616.7
673.528	576.2
673.723	617.67
673.918	608.75
674.113	556.05
674.308	675.4
674.503	613.98
674.698	592.67
674.892	604.3
675.087	645.18
675.282	607.98
675.477	580.85
675.672	629.1
675.867	569.42
676.061	570.59
676.256	568.07
676.451	551.79
676.646	592.29
676.84	571.75
677.035	554.89
677.23	536.49
677.424	603.91
677.619	607.59
677.814	627.35
678.008	587.44
678.203	541.91
678.397	584.34
678.592	592.87
678.787	636.07
678.981	574.46
679.176	590.35
679.37	623.67
679.565	550.05
679.759	564
679.954	608.56
680.148	615.53
680.342	627.55
680.537	602.75
680.731	574.85
680.926	595.97
681.12	635.68
681.314	578.14
681.509	582.4
681.703	592.09
681.897	623.48
682.092	590.35
682.286	599.26
682.48	647.31
682.674	607.59
682.869	577.37
683.063	568.45
683.257	662.81
683.451	610.89
683.645	618.05
683.839	592.87
684.034	614.95
684.228	618.44
684.422	569.62
684.616	572.33
684.81	616.12
685.004	586.67
685.198	592.67
685.392	655.25
685.586	600.04
685.78	630.84
685.974	630.26
686.168	642.85
686.362	704.27
686.556	590.35
686.75	566.32
686.944	572.52
687.138	554.31
687.331	490.76
687.525	514.01
687.719	419.08
687.913	512.27
688.107	493.09
688.301	489.6
688.494	557.99
688.688	492.12
688.882	509.56
689.076	480.11
689.269	530.87
689.463	599.65
689.657	558.38
689.85	565.16
690.044	614.76
690.238	570.59
690.431	584.15
690.625	600.42
690.818	633.55
691.012	649.63
691.205	665.72
691.399	654.87
691.593	680.44
691.786	769.95
691.98	770.34
692.173	750.77
692.366	781.58
692.56	799.79
692.753	849
692.947	751.93
693.14	862.37
693.333	822.26
693.527	787
693.72	821.68
693.914	851.71
694.107	839.89
694.3	869.93
694.493	869.34
694.687	911.77
694.88	856.75
695.073	957.31
695.266	959.05
695.46	904.22
695.653	1011.75
695.846	991.79
696.039	952.46
696.232	1009.42
696.425	1080.14
696.618	1042.36
696.812	1086.53
697.005	1161.13
697.198	1181.28
697.391	1153.38
697.584	1221.77
697.777	1247.93
697.97	1253.16
698.163	1260.52
698.356	1238.24
698.549	1326.59
698.742	1301.01
698.935	1282.03
699.127	1321.74
699.32	1288.42
699.513	1299.66
699.706	1319.61
699.899	1377.35
700.092	1345.19
700.285	1386.26
700.477	1302.37
700.67	1410.48
700.863	1405.05
701.056	1479.84
701.248	1467.05
701.441	1482.75
701.634	1445.55
701.826	1551.33
702.019	1433.34
702.212	1542.42
702.404	1485.65
702.597	1465.12
702.79	1521.88
702.982	1572.26
703.175	1607.71
703.367	1662.16
703.56	1622.25
703.752	1749.73
703.945	1642.01
704.137	1744.69
704.33	1752.83
704.522	1762.71
704.715	1784.99
704.907	1797.78
705.1	1852.42
705.292	1843.7
705.484	1832.07
705.677	1874.5
705.869	1893.1
706.061	1916.35
706.254	1976.03
706.446	1921.97
706.638	1936.12
706.831	2022.72
707.023	1999.47
707.215	2086.46
707.407	2057.98
707.599	2057.21
707.792	2123.47
707.984	2098.09
708.176	2144.01
708.368	2127.34
708.56	2147.49
708.752	2124.44
708.944	2170.74
709.136	2206.39
709.329	2187.99
709.521	2324
709.713	2289.51
709.905	2242.82
710.097	2376.7
710.289	2310.05
710.481	2341.24
710.672	2340.66
710.864	2345.12
711.056	2430.17
711.248	2404.4
711.44	2422.62
711.632	2400.14
711.824	2463.3
712.016	2475.12
712.207	2481.71
712.399	2467.18
712.591	2569.86
712.783	2522.78
712.975	2571.22
713.166	2499.73
713.358	2577.61
713.55	2611.71
713.741	2629.73
713.933	2634.38
714.125	2622.37
714.316	2578.39
714.508	2659.76
714.7	2684.56
714.891	2644.26
715.083	2679.72
715.274	2663.06
715.466	2704.52
715.657	2718.27
715.849	2585.56
716.04	2646.59
716.232	2587.49
716.423	2604.93
716.615	2572.58
716.806	2504.96
716.998	2410.6
717.189	2303.07
717.381	2237.78
717.572	2186.05
717.763	2252.31
717.955	2176.36
718.146	2141.88
718.337	2103.51
718.528	2062.05
718.72	1979.52
718.911	2005.48
719.102	1952.58
719.293	2014.39
719.485	2009.35
719.676	1989.59
719.867	1965.57
720.058	1932.43
720.249	1939.99
720.44	1987.65
720.632	2032.41
720.823	2106.03
721.014	2251.34
721.205	2248.82
721.396	2345.7
721.587	2473.18
721.778	2516.97
721.969	2533.05
722.16	2621.21
722.351	2692.7
722.542	2710.14
722.733	2770.2
722.924	2670.61
723.115	2735.71
723.305	2672.36
723.496	2712.07
723.687	2541.58
723.878	2587.49
724.069	2563.28
724.26	2554.17
724.45	2473.76
724.641	2510.96
724.832	2532.28
725.023	2484.81
725.213	2479.38
725.404	2434.43
725.595	2468.92
725.785	2468.92
725.976	2537.7
726.167	2520.46
726.357	2541.58
726.548	2618.11
726.739	2542.74
726.929	2635.93
727.12	2640.39
727.31	2648.91
727.501	2545.26
727.691	2601.25
727.882	2614.81
728.072	2676.42
728.263	2646.2
728.453	2739
728.644	2727.38
728.834	2671.39
729.024	2660.34
729.215	2682.43
729.405	2712.65
729.596	2791.7
729.786	2808.56
729.976	2807.01
730.167	2818.44
730.357	2762.84
730.547	2769.23
730.737	2840.53
730.928	2852.93
731.118	2904.46
731.308	2821.93
731.498	2881.8
731.688	3002.31
731.879	2981.38
732.069	3036.02
732.259	3062.95
732.449	3137.93
732.639	3172.22
732.829	3172.22
733.019	3269.68
733.209	3318.5
733.399	3368.1
733.589	3450.06
733.779	3470.01
733.969	3472.14
734.159	3537.63
734.349	3566.11
734.539	3637.02
734.729	3625.98
734.919	3565.72
735.109	3702.7
735.299	3594.01
735.488	3673.45
735.678	3655.04
735.868	3663.95
736.058	3667.83
736.248	3668.02
736.437	3595.37
736.627	3603.31
736.817	3759.66
737.007	3647.1
737.196	3747.85
737.386	3741.84
737.576	3698.05
737.765	3762.76
737.955	3762.18
738.144	3866.61
738.334	3828.83
738.524	3781.17
738.713	3791.44
738.903	3755.98
739.092	3799
739.282	3819.73
739.471	3839.49
739.661	3824.57
739.85	3873.01
740.04	3871.65
740.229	3906.53
740.419	3941.79
740.608	4003.21
740.797	3901.88
740.987	4020.84
741.176	3952.64
741.365	3913.31
741.555	3851.69
741.744	4017.74
741.933	3970.07
742.123	4012.7
742.312	4017.93
742.501	4092.14
742.69	4075.28
742.88	3976.08
743.069	4122.55
743.258	4098.53
743.447	4117.9
743.636	4116.16
743.825	4040.79
744.014	4138.25
744.204	4104.34
744.393	4065.4
744.582	4135.53
744.771	4133.6
744.96	4101.63
745.149	4145.03
745.338	4104.92
745.527	4178.16
745.716	4142.51
745.905	4168.28
746.094	4215.75
746.283	4163.43
746.471	4158.78
746.66	4241.51
746.849	4195.21
747.038	4201.99
747.227	4179.71
747.416	4174.48
747.604	4156.27
747.793	4154.52
747.982	4138.05
748.171	4188.62
748.359	4187.07
748.548	4198.31
748.737	4185.33
748.926	4151.42
749.114	4106.47
749.303	4156.85
749.491	4193.08
749.68	4059.97
749.869	4171.57
750.057	4109.57
750.246	4097.75
750.434	4125.27
750.623	4089.42
750.811	4096.4
751	4155.1
751.188	4047.96
751.377	4102.6
751.565	4101.05
751.754	4067.14
751.942	4086.13
752.131	4115.58
752.319	4063.07
752.507	4045.44
752.696	4069.27
752.884	4095.24
753.072	4041.18
753.261	4041.18
753.449	4071.99
753.637	4039.05
753.825	4064.04
754.014	4055.13
754.202	4022.77
754.39	4064.62
754.578	4070.05
754.766	4012.51
754.955	4014.64
755.143	4087.29
755.331	4023.74
755.519	4059.78
755.707	4020.84
755.895	3988.29
756.083	4023.94
756.271	3945.66
756.459	3947.99
756.647	4016.38
756.835	3965.42
757.023	3987.32
757.211	3952.06
757.399	3977.05
757.587	3935.01
757.775	3858.86
757.963	3950.51
758.151	3891.8
758.339	3832.71
758.526	3864.29
758.714	3859.25
758.902	3724.4
759.09	3640.12
759.278	3411.31
759.465	3135.22
759.653	2725.05
759.841	2482.87
760.028	2124.05
760.216	1827.23
760.404	1704.98
760.591	1390.72
760.779	1172.36
760.967	1046.62
761.154	852.29
761.342	872.64
761.529	837.76
761.717	881.55
761.905	881.74
762.092	940.64
762.28	888.33
762.467	868.57
762.655	816.26
762.842	814.9
763.029	825.56
763.217	842.99
763.404	850.55
763.592	842.99
763.779	846.09
763.966	898.99
764.154	889.11
764.341	966.41
764.528	983.27
764.716	1061.93
764.903	1122.96
765.09	1194.26
765.277	1245.21
765.465	1451.36
765.652	1489.53
765.839	1566.45
766.026	1742.37
766.213	1829.17
766.4	1948.9
766.588	2124.24
766.775	2180.04
766.962	2333.69
767.149	2397.04
767.336	2585.36
767.523	2536.54
767.71	2688.82
767.897	2824.83
768.084	2903.88
768.271	2951.55
768.458	3042.03
768.645	3103.64
768.832	3142.58
769.019	3178.62
769.206	3200.51
769.392	3302.62
769.579	3350.08
769.766	3343.3
769.953	3317.73
770.14	3377.01
770.327	3407.82
770.513	3419.64
770.7	3465.56
770.887	3410.92
771.073	3420.41
771.26	3455.68
771.447	3444.83
771.634	3476.79
771.82	3540.92
772.007	3430.49
772.193	3507.99
772.38	3512.64
772.567	3449.67
772.753	3464.01
772.94	3556.81
773.126	3515.93
773.313	3525.81
773.499	3457.23
773.686	3540.34
773.872	3485.32
774.059	3475.44
774.245	3445.02
774.432	3460.91
774.618	3389.41
774.804	3491.52
774.991	3392.13
775.177	3407.24
775.363	3399.3
775.55	3511.28
775.736	3338.46
775.922	3432.81
776.109	3410.73
776.295	3439.98
776.481	3428.94
776.667	3443.08
776.853	3392.32
777.04	3395.61
777.226	3394.84
777.412	3462.84
777.598	3345.63
777.784	3397.94
777.97	3349.7
778.156	3358.03
778.342	3356.86
778.528	3353.38
778.715	3277.04
778.901	3292.15
779.087	3346.98
779.272	3302.62
779.458	3303
779.644	3338.85
779.83	3298.55
780.016	3368.3
780.202	3308.62
780.388	3282.47
780.574	3201.09
780.76	3249.33
780.946	3286.73
781.131	3265.42
781.317	3242.36
781.503	3223.95
781.689	3220.47
781.874	3326.25
782.06	3201.48
782.246	3227.44
782.432	3200.32
782.617	3187.72
782.803	3287.5
782.989	3157.69
783.174	3148.97
783.36	3121.27
783.545	3170.09
783.731	3149.94
783.916	3061.01
784.102	3137.35
784.288	3113.13
784.473	3126.5
784.659	3078.84
784.844	3129.41
785.029	3103.06
785.215	3058.11
785.4	3035.24
785.586	3107.32
785.771	3023.62
785.956	3106.74
786.142	3030.59
786.327	3027.11
786.512	3018.58
786.698	2995.53
786.883	2933.72
787.068	2989.13
787.254	2977.12
787.439	2949.22
787.624	2935.27
787.809	2960.65
787.994	2917.25
788.18	2995.14
788.365	2842.66
788.55	2892.26
788.735	2891.48
788.92	2857.38
789.105	2887.8
789.29	2876.95
789.475	2788.8
789.66	2810.11
789.845	2829.1
790.03	2768.45
790.215	2855.45
790.4	2826
790.585	2818.83
790.77	2806.43
790.955	2768.65
791.14	2759.35
791.325	2814.95
791.51	2684.95
791.695	2800.81
791.879	2786.67
792.064	2715.37
792.249	2793.25
792.434	2731.64
792.618	2785.5
792.803	2760.32
792.988	2747.34
793.173	2808.37
793.357	2804.1
793.542	2708.97
793.727	2777.37
793.911	2797.9
794.096	2763.03
794.281	2817.08
794.465	2833.75
794.65	2801.97
794.834	2820.77
795.019	2864.36
795.203	2902.91
795.388	2853.9
795.572	2888.38
795.757	2817.08
795.941	2825.61
796.126	2807.59
796.31	2790.54
796.494	2802.75
796.679	2782.21
796.863	2750.82
797.048	2836.27
797.232	2759.35
797.416	2859.32
797.601	2832.97
797.785	2868.62
797.969	2877.53
798.153	2825.8
798.338	2850.99
798.522	2908.34
798.706	2897.88
798.89	2909.5
799.074	2965.88
799.258	2914.54
799.443	2871.92
799.627	2886.45
799.811	2903.69
799.995	2841.5
800.179	2808.75
800.363	2802.94
800.547	2853.12
800.731	2897.49
800.915	2783.18
801.099	2797.9
801.283	2850.41
801.467	2804.68
801.651	2801.78
801.835	2832.58
802.019	2821.35
802.202	2836.27
802.386	2764.97
802.57	2764.97
802.754	2796.55
802.938	2705.49
803.121	2808.37
803.305	2802.75
803.489	2793.45
803.673	2790.35
803.856	2852.73
804.04	2782.79
804.224	2814.18
804.407	2810.88
804.591	2789.96
804.775	2809.72
804.958	2796.55
805.142	2881.6
805.326	2827.35
805.509	2849.05
805.693	2863.2
805.876	2893.81
806.06	2829.87
806.243	2895.75
806.427	2918.03
806.61	2911.83
806.794	2843.24
806.977	2842.08
807.16	2827.93
807.344	2891.87
807.527	2827.16
807.71	2864.17
807.894	2832.97
808.077	2860.68
808.26	2798.29
808.444	2813.21
808.627	2864.94
808.81	2793.64
808.993	2765.55
809.177	2707.23
809.36	2769.23
809.543	2756.05
809.726	2687.86
809.909	2674.29
810.092	2662.28
810.276	2641.55
810.459	2631.28
810.642	2652.21
810.825	2603.77
811.008	2612.88
811.191	2520.85
811.374	2525.88
811.557	2560.37
811.74	2583.23
811.923	2466.01
812.106	2489.85
812.289	2436.18
812.472	2416.03
812.654	2458.65
812.837	2408.67
813.02	2286.99
813.203	2309.85
813.386	2214.53
813.569	2162.03
813.751	2103.32
813.934	2180.82
814.117	2140.13
814.3	2055.08
814.482	2020.4
814.665	1985.91
814.848	1957.43
815.03	1873.34
815.213	1889.04
815.396	1849.9
815.578	1856.68
815.761	1799.14
815.943	1926.04
816.126	1789.06
816.309	1705.94
816.491	1659.64
816.674	1630.38
816.856	1672.81
817.039	1687.93
817.221	1767.75
817.403	1684.83
817.586	1705.56
817.768	1726.68
817.951	1620.11
818.133	1633.1
818.315	1659.45
818.498	1710.79
818.68	1741.01
818.862	1726.68
819.045	1751.28
819.227	1725.13
819.409	1728.42
819.591	1724.35
819.774	1709.24
819.956	1702.46
820.138	1786.93
820.32	1766.78
820.502	1848.54
820.684	1897.37
820.866	1896.98
821.048	1963.82
821.231	1984.55
821.413	1983.58
821.595	1970.6
821.777	1963.05
821.959	1970.02
822.141	2013.42
822.323	1879.54
822.505	1793.71
822.686	1750.89
822.868	1673.39
823.05	1557.92
823.232	1536.42
823.414	1430.05
823.596	1528.08
823.778	1495.34
823.96	1540.29
824.141	1547.07
824.323	1586.21
824.505	1683.66
824.687	1723.96
824.868	1812.31
825.05	1887.29
825.232	1921.97
825.413	1960.53
825.595	1941.15
825.777	1859
825.958	1922.75
826.14	1905.5
826.321	1931.47
826.503	1920.42
826.685	1948.13
826.866	1959.56
827.048	1964.02
827.229	1888.84
827.411	1837.11
827.592	1813.47
827.773	1813.09
827.955	1740.43
828.136	1791.39
828.318	1729.58
828.499	1747.6
828.68	1679.98
828.862	1743.14
829.043	1744.69
829.224	1705.36
829.406	1722.22
829.587	1671.26
829.768	1693.16
829.949	1722.99
830.131	1705.36
830.312	1751.09
830.493	1721.64
830.674	1752.25
830.855	1697.81
831.036	1704.01
831.218	1767.36
831.399	1806.5
831.58	1717.18
831.761	1735.78
831.942	1767.17
832.123	1737.14
832.304	1657.51
832.485	1731.52
832.666	1709.82
832.847	1748.37
833.028	1733.46
833.209	1751.28
833.389	1705.75
833.57	1646.66
833.751	1696.64
833.932	1726.29
834.113	1722.41
834.294	1698.19
834.475	1766.78
834.655	1769.3
834.836	1784.99
835.017	1786.16
835.198	1714.66
835.378	1766.39
835.559	1797.59
835.74	1771.82
835.92	1729.19
836.101	1746.24
836.281	1775.5
836.462	1803.4
836.643	1792.74
836.823	1841.18
837.004	1816.19
837.184	1851.84
837.365	1856.49
837.545	1834.4
837.726	1802.62
837.906	1842.15
838.087	1853.58
838.267	1816.96
838.448	1790.03
838.628	1820.45
838.808	1834.01
838.989	1846.02
839.169	1786.35
839.349	1811.54
839.53	1871.4
839.71	1840.79
839.89	1791.77
840.07	1888.45
840.251	1837.69
840.431	1880.32
840.611	1794.1
840.791	1785.77
840.971	1827.42
841.151	1822.19
841.332	1767.94
841.512	1866.95
841.692	1754.57
841.872	1851.45
842.052	1810.96
842.232	1855.32
842.412	1772.59
842.592	1815.61
842.772	1826.26
842.952	1833.43
843.132	1782.09
843.312	1757.29
843.492	1766.78
843.672	1782.67
843.851	1747.6
844.031	1747.99
844.211	1774.34
844.391	1750.12
844.571	1785.77
844.751	1750.31
844.93	1771.43
845.11	1731.91
845.29	1787.51
845.47	1768.14
845.649	1775.69
845.829	1803.98
846.009	1763.29
846.188	1763.49
846.368	1793.91
846.547	1770.85
846.727	1784.02
846.907	1766.59
847.086	1744.31
847.266	1787.51
847.445	1739.46
847.625	1724.93
847.804	1728.61
847.984	1769.11
848.163	1698.58
848.343	1698.58
848.522	1722.61
848.701	1733.65
848.881	1703.43
849.06	1741.79
849.239	1706.91
849.419	1714.08
849.598	1649.95
849.777	1624.18
849.957	1612.56
850.136	1582.72
850.315	1561.22
850.494	1535.45
850.674	1567.42
850.853	1619.15
851.032	1588.92
851.211	1643.75
851.39	1641.43
851.569	1537.19
851.748	1559.67
851.927	1632.32
852.107	1610.81
852.286	1561.8
852.465	1570.52
852.644	1643.17
852.823	1640.85
853.002	1581.95
853.181	1615.46
853.359	1604.03
853.538	1518.59
853.717	1612.56
853.896	1468.6
854.075	1431.6
854.254	1423.46
854.433	1315.16
854.611	1404.09
854.79	1338.99
854.969	1393.82
855.148	1378.71
855.327	1359.91
855.505	1466.09
855.684	1420.17
855.863	1461.44
856.041	1460.85
856.22	1454.07
856.399	1460.27
856.577	1542.81
856.756	1530.6
856.934	1612.56
857.113	1608.68
857.291	1520.14
857.47	1528.86
857.648	1524.6
857.827	1538.93
858.005	1540.48
858.184	1488.75
858.362	1566.64
858.541	1536.42
858.719	1517.82
858.898	1491.85
859.076	1469.57
859.254	1551.92
859.433	1495.15
859.611	1478.68
859.789	1471.32
859.967	1535.06
860.146	1568
860.324	1459.69
860.502	1448.26
860.68	1442.06
860.859	1455.43
861.037	1472.48
861.215	1465.5
861.393	1472.09
861.571	1475.19
861.749	1468.41
861.927	1511.62
862.105	1444.39
862.283	1454.46
862.461	1401.76
862.639	1431.02
862.817	1401.57
862.995	1446.32
863.173	1437.22
863.351	1449.42
863.529	1460.27
863.707	1496.12
863.885	1441.87
864.063	1392.85
864.241	1456.98
864.418	1482.94
864.596	1408.54
864.774	1339.18
864.952	1414.55
865.129	1443.61
865.307	1370.18
865.485	1331.04
865.663	1424.62
865.84	1324.46
866.018	1333.95
866.196	1243.47
866.373	1250.64
866.551	1200.65
866.728	1150.28
866.906	1214.41
867.084	1221.38
867.261	1262.65
867.439	1293.46
867.616	1297.72
867.794	1276.21
867.971	1279.12
868.149	1303.14
868.326	1341.51
868.503	1328.14
868.681	1280.67
868.858	1305.66
869.035	1294.81
869.213	1312.06
869.39	1326.2
869.567	1368.63
869.745	1270.59
869.922	1321.55
870.099	1333.17
870.276	1321.16
870.454	1350.81
870.631	1335.5
870.808	1278.15
870.985	1300.63
871.162	1353.91
871.339	1323.29
871.517	1235.33
871.694	1260.13
871.871	1305.86
872.048	1281.44
872.225	1243.28
872.402	1269.24
872.579	1238.43
872.756	1280.09
872.933	1217.12
873.11	1254.32
873.287	1290.36
873.463	1212.28
873.64	1226.81
873.817	1258.19
873.994	1259.94
874.171	1198.71
874.348	1252.19
874.524	1184.18
874.701	1231.84
874.878	1177.01
875.055	1211.5
875.231	1205.3
875.408	1231.65
875.585	1162.48
875.762	1200.07
875.938	1195.42
876.115	1187.09
876.291	1169.26
876.468	1175.27
876.645	1116.76
876.821	1156.48
876.998	1176.43
877.174	1199.88
877.351	1151.44
877.527	1154.73
877.704	1179.92
877.88	1179.92
878.057	1141.75
878.233	1205.3
878.409	1158.8
878.586	1168.88
878.762	1157.45
878.938	1122.77
879.115	1071.62
879.291	1118.31
879.467	1080.53
879.644	1134.39
879.82	1146.4
879.996	1089.05
880.172	1068.9
880.349	1104.36
880.525	1152.21
880.701	1040.42
880.877	1061.73
881.053	1097.19
881.229	1076.07
881.405	1126.45
881.581	1080.92
881.757	1102.62
881.933	1117.73
882.109	1109.98
882.285	1091.38
882.461	1028.41
882.637	1086.34
882.813	1051.66
882.989	1110.95
883.165	1115.6
883.341	1078.4
883.517	1110.95
883.693	1122.38
883.869	1147.37
884.044	1068.32
884.22	1134.39
884.396	1117.92
884.572	1093.32
884.747	1134.97
884.923	1134.58
885.099	1116.76
885.275	1118.7
885.45	1067.55
885.626	1092.54
885.801	1070.84
885.977	1066.38
886.153	1023.76
886.328	1087.12
886.504	1040.04
886.679	1081.3
886.855	1056.31
887.03	1059.6
887.206	1090.41
887.381	1097.38
887.557	1100.68
887.732	1090.41
887.908	1086.15
888.083	1129.55
888.258	1047.01
888.434	1056.5
888.609	1070.07
888.784	1112.11
888.96	1055.73
889.135	1047.79
889.31	1086.53
889.485	1128.58
889.661	1066.58
889.836	1116.37
890.011	1097.97
890.186	1079.56
890.361	1060.96
890.537	1087.89
890.712	1099.9
890.887	1061.93
891.062	1071.23
891.237	1138.85
891.412	1061.35
891.587	1072.58
891.762	1067.93
891.937	1119.67
892.112	1031.51
892.287	1050.3
892.462	1034.42
892.637	1005.55
892.812	969.9
892.987	970.87
893.161	974.94
893.336	957.89
893.511	982.1
893.686	998.96
893.861	979.2
894.035	978.62
894.21	935.41
894.385	912.55
894.56	934.44
894.734	889.49
894.909	890.85
895.084	867.79
895.258	873.99
895.433	892.21
895.608	843.96
895.782	788.36
895.957	794.36
896.131	823.23
896.306	733.91
896.48	738.56
896.655	756.97
896.829	688.97
897.004	691.29
897.178	692.07
897.353	679.28
897.527	711.83
897.701	700.59
897.876	650.6
898.05	764.91
898.224	719.58
898.399	702.53
898.573	693.81
898.747	604.1
898.921	632.78
899.096	539
899.27	560.51
899.444	555.09
899.618	626.97
899.792	636.07
899.967	596.16
900.141	672.88
900.315	559.54
900.489	581.24
900.663	630.84
900.837	606.04
901.011	568.65
901.185	675.4
901.359	610.3
901.533	624.64
901.707	620.77
901.881	612.63
902.055	539.78
902.229	608.75
902.403	639.95
902.576	592.87
902.75	616.5
902.924	726.36
903.098	665.52
903.272	699.62
903.446	749.8
903.619	714.54
903.793	793.2
903.967	731.4
904.14	806.18
904.314	788.74
904.488	754.26
904.661	790.1
904.835	770.92
905.009	806.38
905.182	825.75
905.356	799.98
905.529	776.54
905.703	749.8
905.876	762.2
906.05	724.61
906.223	691.1
906.397	661.07
906.57	618.83
906.744	597.52
906.917	633.36
907.09	597.32
907.264	580.27
907.437	591.9
907.61	520.21
907.784	600.04
907.957	572.14
908.13	525.64
908.304	587.83
908.477	512.46
908.65	554.89
908.823	498.9
908.996	585.5
909.17	530.09
909.343	551.02
909.516	514.59
909.689	514.4
909.862	514.21
910.035	515.56
910.208	487.86
910.381	513.43
910.554	568.26
910.727	538.81
910.9	513.62
911.073	511.3
911.246	613.79
911.419	601
911.592	530.48
911.765	530.09
911.938	512.27
912.11	510.91
912.283	529.7
912.456	560.12
912.629	522.15
912.802	494.64
912.974	445.62
913.147	393.89
913.32	377.42
913.493	429.93
913.665	429.73
913.838	436.9
914.01	458.21
914.183	482.82
914.356	447.56
914.528	506.26
914.701	514.4
914.873	530.87
915.046	419.85
915.218	369.09
915.391	338.86
915.563	397.96
915.736	413.46
915.908	443.49
916.081	451.82
916.253	462.86
916.425	460.34
916.598	487.66
916.77	458.99
916.942	408.81
917.115	366.76
917.287	440.39
917.459	410.94
917.632	381.49
917.804	341.38
917.976	401.44
918.148	403.19
918.32	432.06
918.493	436.51
918.665	473.13
918.837	437.87
919.009	545.98
919.181	518.27
919.353	495.02
919.525	493.86
919.697	486.69
919.869	480.88
920.041	551.21
920.213	597.32
920.385	543.85
920.557	497.54
920.729	513.04
920.901	514.59
921.073	507.23
921.244	484.17
921.416	504.91
921.588	465.96
921.76	488.44
921.932	552.18
922.103	470.03
922.275	487.27
922.447	505.1
922.619	438.64
922.79	480.69
922.962	460.54
923.134	488.82
923.305	412.1
923.477	412.88
923.648	430.7
923.82	438.26
923.991	395.44
924.163	364.05
924.335	417.91
924.506	397.38
924.677	431.86
924.849	394.08
925.02	438.06
925.192	436.71
925.363	432.25
925.535	416.17
925.706	413.07
925.877	459.76
926.049	405.71
926.22	431.86
926.391	427.41
926.562	428.96
926.734	384.78
926.905	435.74
927.076	346.81
927.247	365.02
927.419	349.91
927.59	311.74
927.761	349.52
927.932	334.02
928.103	331.11
928.274	304.18
928.445	267.76
928.616	284.61
928.787	282.87
928.958	297.01
929.129	278.8
929.3	271.83
929.471	254.58
929.642	177.86
929.813	163.52
929.984	278.03
930.155	135.82
930.326	225.52
930.496	174.18
930.667	130.78
930.838	173.21
931.009	149.57
931.18	135.04
931.35	143.95
931.521	161.97
931.692	111.99
931.863	71.3
932.033	129.81
932.204	129.81
932.374	131.36
932.545	68.59
932.716	119.15
932.886	109.27
933.057	73.43
933.227	80.02
933.398	117.6
933.568	43.59
933.739	21.12
933.909	41.27
934.08	86.02
934.25	1.55
934.421	26.74
934.591	79.05
934.761	64.13
934.932	-6.2
935.102	68.78
935.272	29.45
935.443	15.31
935.613	62.58
935.783	65.87
935.953	-13.17
936.123	159.65
936.294	38.36
936.464	39.72
936.634	47.66
936.804	-12.59
936.974	-3.49
937.144	38.56
937.314	43.79
937.484	15.5
937.655	22.47
937.825	66.07
937.995	5.62
938.165	69.56
938.334	42.24
938.504	59.48
938.674	72.46
938.844	69.94
939.014	112.95
939.184	126.52
939.354	135.62
939.524	147.64
939.694	101.33
939.863	64.91
940.033	168.17
940.203	136.98
940.373	101.52
940.542	116.44
940.712	95.52
940.882	124.97
941.051	128.45
941.221	120.9
941.391	138.53
941.56	90.09
941.73	58.71
941.899	163.33
942.069	97.45
942.238	106.56
942.408	73.43
942.577	85.83
942.747	80.21
942.916	31.58
943.086	69.94
943.255	114.5
943.425	98.42
943.594	58.32
943.763	-18.6
943.933	62.77
944.102	-6.01
944.271	64.91
944.441	101.52
944.61	34.68
944.779	72.85
944.948	145.89
945.117	25.96
945.287	49.21
945.456	23.83
945.625	19.76
945.794	84.09
945.963	7.17
946.132	72.46
946.301	67.42
946.47	68.59
946.639	31.39
946.808	60.45
946.977	75.76
947.146	91.64
947.315	27.12
947.484	81.57
947.653	65.49
947.822	51.92
947.991	48.63
948.16	100.75
948.329	108.89
948.498	50.96
948.666	79.24
948.835	90.87
949.004	33.32
949.173	31.39
949.341	58.9
949.51	58.12
949.679	102.3
949.847	64.71
950.016	132.91
950.185	104.82
950.353	55.02
950.522	61.22
950.69	109.47
950.859	66.46
951.028	79.82
951.196	75.56
951.365	66.46
951.533	64.32
951.701	93.39
951.87	99.59
952.038	41.46
952.207	60.84
952.375	102.49
952.543	58.32
952.712	59.48
952.88	31.97
953.048	135.04
953.217	82.15
953.385	69.36
953.553	114.7
953.721	68.2
953.89	39.33
954.058	34.49
954.226	44.17
954.394	96.87
954.562	33.52
954.73	75.95
954.898	49.79
955.067	84.86
955.235	55.02
955.403	86.02
955.571	129.62
955.739	93
955.907	53.09
956.075	62.19
956.243	45.14
956.41	78.86
956.578	37.97
956.746	28.29
956.914	61.03
957.082	76.92
957.25	97.45
957.418	66.26
957.585	78.47
957.753	106.56
957.921	44.95
958.089	75.37
958.256	101.72
958.424	99.2
958.592	52.51
958.759	40.49
958.927	86.41
959.095	66.46
959.262	61.42
959.43	77.89
959.597	47.27
959.765	71.3
959.932	17.24
960.1	109.47
960.267	59.48
960.435	54.83
960.602	90.67
960.77	51.73
960.937	30.42
961.104	85.44
961.272	31.39
961.439	63.74
961.606	106.95
961.774	86.41
961.941	78.86
962.108	96.87
962.275	103.07
962.443	113.15
962.61	99.2
962.777	145.7
962.944	123.61
963.111	92.61
963.278	86.22
963.446	95.52
963.613	81.18
963.78	108.3
963.947	92.42
964.114	86.41
964.281	167.59
964.448	98.04
964.615	86.8
964.782	93.97
964.949	116.83
965.116	106.56
965.282	134.27
965.449	71.69
965.616	24.41
965.783	99.59
965.95	105.01
966.117	56.77
966.283	86.02
966.45	113.92
966.617	85.25
966.784	121.29
966.95	143.57
967.117	124.58
967.284	83.51
967.45	56.19
967.617	130.59
967.784	99.39
967.95	151.9
968.117	104.43
968.283	146.47
968.45	166.24
968.616	154.03
968.783	125.16
968.949	99.2
969.116	149.38
969.282	107.34
969.449	142.4
969.615	122.84
969.781	66.84
969.948	79.82
970.114	63.94
970.28	135.82
970.447	125.55
970.613	154.42
970.779	114.89
970.945	125.74
971.112	121.87
971.278	87.77
971.444	122.06
971.61	151.9
971.776	111.79
971.942	114.12
972.108	145.31
972.275	101.91
972.441	137.95
972.607	146.47
972.773	76.72
972.939	127.1
973.105	110.24
973.271	92.8
973.437	109.85
973.602	73.82
973.768	106.56
973.934	97.26
974.1	112.76
974.266	30.81
974.432	105.01
974.598	100.55
974.763	133.3
974.929	93.77
975.095	142.02
975.261	68.01
975.426	80.99
975.592	81.57
975.758	144.54
975.923	54.44
976.089	103.65
976.255	101.14
976.42	110.05
976.586	122.45
976.751	119.54
976.917	171.85
977.082	119.15
977.248	58.9
977.413	44.37
977.579	71.11
977.744	109.08
977.91	59.48
978.075	81.76
978.24	95.52
978.406	85.83
978.571	58.51
978.736	88.74
978.902	138.53
979.067	91.45
979.232	58.51
979.397	93.19
979.563	129.62
979.728	82.15
979.893	90.29
980.058	92.03
980.223	106.75
980.388	107.92
980.554	75.37
980.719	73.04
980.884	109.85
981.049	128.65
981.214	106.95
981.379	94.74
981.544	58.51
981.709	79.24
981.874	72.46
982.039	83.31
982.204	108.89
982.368	80.79
982.533	61.61
982.698	114.7
982.863	108.11
983.028	90.67
983.193	103.27
983.357	97.65
983.522	126.9
983.687	89.9
983.852	84.67
984.016	99.39
984.181	86.41
984.346	110.44
984.51	142.21
984.675	104.82
984.839	109.47
985.004	93.77
985.168	131.75
985.333	123.42
985.498	121.09
985.662	132.91
985.827	106.75
985.991	76.53
986.155	93.77
986.32	104.62
986.484	123.8
986.649	111.21
986.813	65.68
986.977	112.37
987.142	118.77
987.306	71.88
987.47	83.12
987.634	96.1
987.799	106.17
987.963	92.8
988.127	124.97
988.291	154.8
988.455	71.49
988.62	86.41
988.784	106.37
988.948	102.3
989.112	78.08
989.276	89.12
989.44	95.71
989.604	77.5
989.768	62.77
989.932	130.39
990.096	79.05
990.26	44.95
990.424	68.39
990.588	107.14
990.752	131.94
990.915	113.92
991.079	88.15
991.243	96.68
991.407	104.82
991.571	102.3
991.734	98.62
991.898	97.84
992.062	175.15
992.226	83.12
992.389	67.04
992.553	40.49
992.717	43.21
992.88	89.7
993.044	86.02
993.207	71.49
993.371	87.19
993.535	105.98
993.698	71.69
993.862	122.06
994.025	115.86
994.189	83.89
994.352	93.19
994.515	85.44
994.679	103.07
994.842	63.94
995.006	112.18
995.169	59.48
995.332	87.19
995.496	96.49
995.659	37.97
995.822	61.61
995.985	74.59
996.149	123.03
996.312	74.4
996.475	125.74
996.638	62.19
996.801	116.25
996.964	150.15
997.128	59.48
997.291	48.63
997.454	56.19
997.617	33.13
997.78	104.04
997.943	43.98
998.106	113.73
998.269	30.81
998.432	69.94
998.595	63.16
998.758	19.18
998.92	48.05
999.083	22.28
999.246	37.78
999.409	33.71
999.572	41.66
999.735	49.02
999.897	92.61
1000.06	54.64
1000.223	53.09
1000.386	106.56
1000.548	68.2
1000.711	88.74
1000.874	84.67
1001.036	36.62
1001.199	97.65
1001.361	42.62
1001.524	54.44
1001.687	86.8
1001.849	51.54
1002.012	68.2
1002.174	60.26
1002.337	74.01
1002.499	81.57
1002.661	108.69
1002.824	4.65
1002.986	51.92
1003.149	41.07
1003.311	27.51
1003.473	120.12
1003.636	64.13
1003.798	67.23
1003.96	89.9
1004.123	70.14
1004.285	27.9
1004.447	57.16
1004.609	61.42
1004.771	92.22
1004.933	22.67
1005.096	42.24
1005.258	21.7
1005.42	14.34
1005.582	92.8
1005.744	48.24
1005.906	32.16
1006.068	48.63
1006.23	12.01
1006.392	5.81
1006.554	26.93
1006.716	92.03
1006.878	78.66
1007.04	6.2
1007.202	39.33
1007.363	64.52
1007.525	78.27
1007.687	81.57
1007.849	95.13
1008.011	-7.17
1008.172	42.04
1008.334	31
1008.496	80.99
1008.658	-4.84
1008.819	36.42
1008.981	0.58
1009.143	41.27
1009.304	47.47
1009.466	72.07
1009.627	85.64
1009.789	158.29
1009.95	49.21
1010.112	22.86
1010.273	42.82
1010.435	15.89
1010.596	30.03
1010.758	0
1010.919	32.74
1011.081	21.7
1011.242	31.39
1011.403	60.45
1011.565	47.08
1011.726	41.07
1011.887	11.82
1012.049	31.58
1012.21	48.82
1012.371	84.47
1012.532	4.46
1012.693	18.6
1012.855	-0.19
1013.016	42.04
1013.177	57.54
1013.338	34.49
1013.499	89.51
1013.66	53.09
1013.821	56.57
1013.982	37.59
1014.143	54.44
1014.304	16.08
1014.465	71.11
1014.626	74.98
1014.787	25.96
1014.948	122.25
1015.109	-6.39
1015.27	75.17
1015.431	15.69
1015.592	15.5
1015.752	60.06
1015.913	27.32
1016.074	43.4
1016.235	36.04
1016.395	32.74
1016.556	24.8
1016.717	35.84
1016.877	77.31
1017.038	32.36
1017.199	43.59
1017.359	58.9
1017.52	40.3
1017.681	6.78
1017.841	2.91
1018.002	26.54
1018.162	1.55
1018.323	62.19
1018.483	39.14
1018.644	39.91
1018.804	10.46
1018.964	5.81
1019.125	16.86
1019.285	43.79
1019.446	31
1019.606	17.05
1019.766	-25.19
1019.926	44.17
1020.087	19.76
1020.247	7.56
1020.407	49.99
1020.567	62.19
1020.728	24.8
1020.888	1.36
1021.048	17.63
1021.208	-9.3
1021.368	-10.66
1021.528	64.52
1021.688	51.34
1021.848	55.02
1022.008	38.56
1022.168	13.17
1022.328	25.38
1022.488	53.09
1022.648	-17.24
1022.808	43.4
1022.968	27.51
1023.128	-6.78
1023.288	31
1023.448	20.92
1023.608	52.31
1023.767	59.09
1023.927	-8.14
1024.087	-4.46
1024.247	-24.99
1024.406	24.61
1024.566	6.2
1024.726	-8.14
1024.885	23.25
1025.045	52.7
1025.205	35.84
1025.364	19.18
1025.524	13.56
1025.683	9.88
1025.843	56.77
1026.003	11.82
1026.162	71.49
1026.321	54.44
1026.481	12.01
1026.64	19.76
1026.8	31.77
1026.959	7.36
1027.119	38.17
1027.278	30.81
1027.437	10.07
1027.597	11.43
1027.756	38.36
1027.915	61.42
1028.074	28.48
1028.234	-3.68
1028.393	28.09
1028.552	25.57
1028.711	-41.27
1028.87	26.93
1029.03	-6.59
1029.189	5.04
1029.348	-32.55
1029.507	-0.19
1029.666	22.09
1029.825	-8.14
1029.984	-18.79
1030.143	35.46
1030.302	-9.49
1030.461	-26.74
1030.62	5.23
1030.779	40.11
1030.938	-39.52
1031.097	2.71
1031.255	27.71
1031.414	62.19
1031.573	48.05
1031.732	-30.42
1031.891	13.56
1032.049	67.23
1032.208	49.99
1032.367	-5.81
1032.525	11.24
1032.684	6.39
1032.843	40.49
1033.001	-18.79
1033.16	145.31
1033.319	56.96
1033.477	28.67
1033.636	-6.01
1033.794	-9.11
1033.953	10.66
1034.111	35.65
1034.27	13.95
1034.428	44.17
1034.587	-16.08
1034.745	49.6
1034.903	23.06
1035.062	32.94
1035.22	4.65
1035.378	29.26
1035.537	-30.42
1035.695	41.66
1035.853	-8.14
1036.011	45.53
1036.17	27.32
1036.328	-43.59
1036.486	40.88
1036.644	28.48
1036.802	-60.64
1036.96	12.98
1037.119	-0.19
1037.277	27.32
1037.435	-17.24
1037.593	14.92
1037.751	4.46
1037.909	37.78
1038.067	37.78
