Data from gum_young_FLMT105791__125__17-40-53-040.txt Node

Date: Mon Mar 20 17:40:53 GMT 2023
User: antho
Spectrometer: FLMT10579
Trigger mode: 0
Integration Time (sec): 1.000000E-1
Scans to average: 10
Electric dark correction enabled: true
Nonlinearity correction enabled: false
Boxcar width: 0
XAxis mode: Wavelengths
Number of Pixels in Spectrum: 3648
>>>>>Begin Spectral Data<<<<<
345.248	-161.15
345.464	-161.15
345.681	-161.15
345.898	-158.24
346.114	-139.45
346.331	-30.56
346.548	31.82
346.764	-4.21
346.981	-15.06
347.197	-21.46
347.414	7.8
347.631	-12.93
347.847	64.57
348.064	-0.73
348.28	40.93
348.497	-40.06
348.713	-20.1
348.93	17.87
349.146	31.63
349.363	8.96
349.579	13.8
349.796	-21.26
350.012	4.31
350.229	42.48
350.445	7.41
350.661	-21.65
350.878	5.28
351.094	37.05
351.311	3.54
351.527	24.27
351.743	15.74
351.96	23.3
352.176	46.74
352.392	22.91
352.609	39.38
352.825	10.32
353.041	16.52
353.257	9.93
353.474	23.88
353.69	10.12
353.906	19.23
354.122	-29.21
354.339	49.65
354.555	24.07
354.771	-2.08
354.987	37.44
355.203	47.13
355.42	-16.81
355.636	-4.02
355.852	-16.23
356.068	14.58
356.284	-29.21
356.5	61.47
356.716	29.69
356.932	7.22
357.148	39.57
357.364	7.8
357.58	60.69
357.796	56.24
358.012	45.97
358.228	20.39
358.444	-34.05
358.66	49.07
358.876	20
359.092	6.05
359.308	32.99
359.524	29.3
359.74	-26.69
359.956	3.54
360.172	-1.31
360.388	45.58
360.604	2.76
360.819	82.39
361.035	11.87
361.251	41.9
361.467	-14.87
361.683	50.23
361.898	19.42
362.114	38.8
362.33	32.79
362.546	58.37
362.762	12.45
362.977	2.95
363.193	-6.35
363.409	58.37
363.624	-19.13
363.84	14
364.056	-8.09
364.271	27.37
364.487	22.52
364.703	-8.67
364.918	-16.81
365.134	8.57
365.35	9.15
365.565	58.37
365.781	37.05
365.996	28.92
366.212	63.79
366.427	35.89
366.643	10.32
366.858	14
367.074	-23.78
367.289	51.97
367.505	115.33
367.72	-15.26
367.936	3.73
368.151	63.21
368.367	50.62
368.582	39.19
368.798	-7.31
369.013	61.47
369.228	14.58
369.444	24.85
369.659	75.42
369.874	44.03
370.09	61.08
370.305	-28.82
370.52	38.02
370.736	59.53
370.951	36.67
371.166	70.77
371.381	85.1
371.597	52.36
371.812	4.12
372.027	-35.99
372.242	-3.44
372.458	82.39
372.673	10.12
372.888	24.46
373.103	44.03
373.318	95.76
373.533	32.4
373.749	51.39
373.964	-21.26
374.179	45.58
374.394	-31.14
374.609	79.29
374.824	-11.96
375.039	57.59
375.254	12.45
375.469	81.23
375.684	53.33
375.899	51.59
376.114	11.48
376.329	54.3
376.544	68.83
376.759	70.18
376.974	5.67
377.189	9.93
377.404	7.6
377.619	59.92
377.834	-9.06
378.049	19.23
378.264	9.74
378.478	25.82
378.693	12.25
378.908	54.1
379.123	4.89
379.338	76.38
379.553	35.31
379.767	24.65
379.982	55.46
380.197	22.91
380.412	30.08
380.626	77.74
380.841	112.62
381.056	57.4
381.271	100.8
381.485	10.9
381.7	12.84
381.915	42.87
382.129	24.85
382.344	57.98
382.559	21.55
382.773	43.64
382.988	-8.48
383.202	39.38
383.417	-10.22
383.632	105.45
383.846	20.39
384.061	62.44
384.275	4.7
384.49	59.14
384.704	50.62
384.919	42.87
385.133	0.63
385.348	53.14
385.562	15.16
385.777	76.38
385.991	57.4
386.206	9.74
386.42	48.68
386.634	86.85
386.849	84.72
387.063	46.16
387.277	10.32
387.492	7.02
387.706	9.74
387.92	-14.87
388.135	71.93
388.349	44.42
388.563	51.39
388.778	48.1
388.992	50.23
389.206	47.9
389.42	98.47
389.635	47.71
389.849	71.15
390.063	87.23
390.277	61.27
390.491	86.85
390.706	46.35
390.92	94.79
391.134	46.16
391.348	80.84
391.562	8.57
391.776	26.01
391.99	5.86
392.205	82.97
392.419	47.13
392.633	58.75
392.847	54.69
393.061	5.09
393.275	76.58
393.489	45.77
393.703	48.29
393.917	46.74
394.131	30.85
394.345	77.93
394.559	102.93
394.773	53.72
394.986	63.4
395.2	46.16
395.414	99.25
395.628	31.05
395.842	65.73
396.056	49.45
396.27	32.21
396.484	35.5
396.697	62.82
396.911	85.49
397.125	71.35
397.339	60.11
397.553	59.92
397.766	121.33
397.98	96.73
398.194	103.7
398.408	56.62
398.621	75.03
398.835	107
399.049	97.31
399.262	121.53
399.476	95.18
399.69	98.86
399.903	133.35
400.117	90.72
400.331	125.21
400.544	61.27
400.758	187.21
400.971	75.8
401.185	120.75
401.398	42.29
401.612	136.45
401.826	110.87
402.039	109.52
402.253	83.55
402.466	111.45
402.68	82.58
402.893	106.8
403.106	91.3
403.32	95.18
403.533	105.45
403.747	112.23
403.96	115.33
404.174	110.48
404.387	72.7
404.6	94.98
404.814	148.46
405.027	121.92
405.24	95.57
405.454	114.94
405.667	125.21
405.88	31.44
406.094	96.73
406.307	134.9
406.52	87.62
406.733	69.8
406.947	75.61
407.16	175.97
407.373	152.33
407.586	83.94
407.799	98.28
408.012	145.75
408.226	124.43
408.439	145.94
408.652	78.52
408.865	115.72
409.078	154.08
409.291	128.31
409.504	73.87
409.717	144
409.93	117.85
410.143	94.6
410.357	90.33
410.57	62.44
410.783	123.08
410.996	125.4
411.209	126.95
411.421	154.27
411.634	111.45
411.847	72.32
412.06	150.98
412.273	133.35
412.486	129.86
412.699	217.24
412.912	120.95
413.125	141.29
413.338	140.71
413.55	176.75
413.763	114.94
413.976	159.31
414.189	120.37
414.402	128.5
414.615	171.9
414.827	91.11
415.04	162.8
415.253	164.93
415.466	181.78
415.678	203.87
415.891	139.16
416.104	138
416.316	137.42
416.529	151.75
416.742	156.98
416.954	189.92
417.167	137.22
417.38	137.42
417.592	164.93
417.805	96.15
418.017	93.82
418.23	149.43
418.442	112.62
418.655	133.15
418.868	174.42
419.08	179.65
419.293	169.38
419.505	181.4
419.718	150.4
419.93	183.53
420.142	156.4
420.355	207.94
420.567	212.78
420.78	177.33
420.992	148.46
421.205	189.92
421.417	112.23
421.629	141.87
421.842	123.66
422.054	103.51
422.266	184.5
422.479	218.79
422.691	154.66
422.903	162.99
423.115	137.22
423.328	155.82
423.54	184.5
423.752	159.5
423.964	146.91
424.177	164.93
424.389	162.41
424.601	259.67
424.813	196.12
425.025	202.32
425.238	198.06
425.45	169.96
425.662	152.33
425.874	443.92
426.086	175.39
426.298	186.63
426.51	185.08
426.722	185.27
426.934	167.64
427.146	217.05
427.358	118.82
427.57	212.01
427.782	184.88
427.994	174.23
428.206	175.2
428.418	149.23
428.63	184.3
428.842	216.27
429.054	213.95
429.266	202.51
429.478	157.37
429.69	181.98
429.902	135.48
430.114	185.27
430.325	199.03
430.537	151.95
430.749	143.23
430.961	118.62
431.173	150.59
431.384	178.68
431.596	117.65
431.808	159.7
432.02	182.95
432.231	205.03
432.443	243.98
432.655	207.16
432.867	186.63
433.078	207.55
433.29	259.09
433.502	238.16
433.713	255.21
433.925	203.29
434.136	259.09
434.348	160.86
434.56	168.8
434.771	309.85
434.983	168.8
435.194	199.61
435.406	196.12
435.617	250.37
435.829	274.39
436.04	239.91
436.252	251.14
436.463	273.23
436.675	271.1
436.886	254.24
437.098	249.98
437.309	291.83
437.521	239.91
437.732	275.36
437.943	236.61
438.155	248.24
438.366	198.64
438.578	300.55
438.789	242.43
439	263.54
439.211	235.45
439.423	258.7
439.634	265.09
439.845	262.77
440.057	256.57
440.268	308.49
440.479	233.9
440.69	248.24
440.902	266.45
441.113	260.25
441.324	253.86
441.535	265.68
441.746	314.89
441.957	255.02
442.168	249.01
442.38	317.41
442.591	313.92
442.802	263.16
443.013	288.15
443.224	302.1
443.435	280.79
443.646	283.31
443.857	270.71
444.068	268.78
444.279	267.61
444.49	351.51
444.701	279.04
444.912	378.44
445.123	330.97
445.334	336.78
445.545	305.01
445.756	311.4
445.967	280.98
446.178	322.25
446.388	324.58
446.599	342.01
446.81	338.52
447.021	310.43
447.232	352.86
447.443	353.83
447.653	264.32
447.864	358.48
448.075	310.04
448.286	347.63
448.496	343.17
448.707	367.59
448.918	313.53
449.129	407.69
449.339	345.69
449.55	350.15
449.761	319.54
449.971	369.14
450.182	339.88
450.393	365.84
450.603	337.36
450.814	398.78
451.024	380.76
451.235	386.77
451.446	427.65
451.656	394.91
451.867	344.34
452.077	381.73
452.288	433.85
452.498	412.34
452.709	358.67
452.919	386.96
453.13	322.06
453.34	391.81
453.55	297.06
453.761	379.02
453.971	391.03
454.182	374.76
454.392	389.48
454.602	452.64
454.813	408.08
455.023	401.49
455.233	346.66
455.444	379.99
455.654	346.08
455.864	387.93
456.075	381.34
456.285	377.47
456.495	394.91
456.705	426.29
456.916	431.72
457.126	443.34
457.336	413.12
457.546	370.3
457.756	369.14
457.967	447.22
458.177	400.91
458.387	393.94
458.597	375.34
458.807	401.11
459.017	378.44
459.227	412.15
459.437	391.61
459.647	431.14
459.857	426.29
460.068	392.19
460.278	456.32
460.488	419.32
460.698	460.78
460.908	414.47
461.117	392.77
461.327	404.79
461.537	444.31
461.747	439.27
461.957	440.44
462.167	531.3
462.377	458.45
462.587	442.76
462.797	482.29
463.007	444.31
463.216	474.73
463.426	492.17
463.636	464.46
463.846	396.26
464.056	406.53
464.265	478.02
464.475	395.29
464.685	467.75
464.895	435.79
465.104	445.47
465.314	469.11
465.524	440.05
465.733	425.9
465.943	522
466.153	526.85
466.362	510.57
466.572	462.52
466.782	479.77
466.991	461.94
467.201	499.72
467.41	416.6
467.62	471.24
467.829	472.4
468.039	489.07
468.249	464.85
468.458	478.22
468.668	509.8
468.877	503.21
469.086	558.04
469.296	555.91
469.505	480.74
469.715	573.93
469.924	524.33
470.134	562.88
470.343	539.83
470.552	490.62
470.762	531.5
470.971	487.13
471.18	503.4
471.39	504.95
471.599	482.87
471.808	528.78
472.018	521.81
472.227	570.63
472.436	558.82
472.645	557.85
472.855	529.37
473.064	598.92
473.273	568.5
473.482	575.28
473.691	621.78
473.901	580.71
474.11	528.4
474.319	646.97
474.528	578.19
474.737	636.9
474.946	620.23
475.155	600.86
475.364	671
475.573	612.48
475.783	636.9
475.992	619.65
476.201	635.35
476.41	580.13
476.619	574.7
476.828	578.19
477.037	605.31
477.245	617.52
477.454	671.96
477.663	600.28
477.872	666.54
478.081	722.73
478.29	646.58
478.499	721.95
478.708	703.16
478.917	688.04
479.125	669.25
479.334	682.23
479.543	675.26
479.752	687.85
479.961	729.89
480.169	721.76
480.378	686.88
480.587	802.55
480.796	729.89
481.004	720.4
481.213	734.93
481.422	736.29
481.63	758.57
481.839	739.39
482.048	807.78
482.256	773.68
482.465	783.17
482.674	776.01
482.882	757.6
483.091	847.69
483.299	798.67
483.508	837.23
483.716	785.69
483.925	839.56
484.134	745.78
484.342	779.49
484.551	823.67
484.759	845.76
484.967	831.61
485.176	866.87
485.384	846.92
485.593	820.37
485.801	837.42
486.01	807.97
486.218	798.29
486.426	701.03
486.635	744.43
486.843	706.64
487.051	785.69
487.26	759.73
487.468	824.25
487.676	843.62
487.885	807.2
488.093	817.27
488.301	866.68
488.509	904.07
488.717	893.03
488.926	905.04
489.134	887.6
489.342	894.97
489.55	818.44
489.758	882.76
489.967	913.57
490.175	979.05
490.383	915.89
490.591	997.85
490.799	926.35
491.007	980.22
491.215	954.25
491.423	961.03
491.631	975.76
491.839	966.85
492.047	969.95
492.255	933.91
492.463	889.35
492.671	941.08
492.879	961.42
493.087	968.98
493.295	972.27
493.503	1011.99
493.711	1017.22
493.919	1062.36
494.127	1029.62
494.334	1019.93
494.542	1001.14
494.75	1043.18
494.958	1018
495.166	1081.55
495.374	1076.31
495.581	1052.29
495.789	1050.55
495.997	1097.43
496.205	1066.43
496.412	1024.58
496.62	1034.85
496.828	1092.2
497.035	1078.25
497.243	1109.83
497.451	1097.24
497.658	1099.76
497.866	1129.98
498.074	1174.54
498.281	1114.09
498.489	1170.28
498.696	1115.64
498.904	1098.79
499.112	1079.41
499.319	1172.03
499.527	1113.9
499.734	1167.18
499.942	1098.21
500.149	1121.84
500.357	1161.95
500.564	1107.9
500.771	1147.03
500.979	1110.41
501.186	1130.76
501.394	1154.01
501.601	1154.39
501.808	1176.87
502.016	1135.21
502.223	1147.03
502.43	1152.65
502.638	1156.33
502.845	1143.35
503.052	1238.29
503.26	1185.98
503.467	1265.22
503.674	1205.16
503.881	1233.44
504.089	1263.47
504.296	1240.81
504.503	1167.96
504.71	1212.91
504.917	1181.91
505.125	1223.56
505.332	1263.47
505.539	1284.79
505.746	1368.87
505.953	1359.96
506.16	1338.45
506.367	1373.52
506.574	1373.72
506.781	1373.91
506.988	1356.67
507.195	1353.57
507.402	1362.09
507.609	1419.25
507.816	1323.34
508.023	1355.12
508.23	1345.82
508.437	1347.75
508.644	1415.95
508.851	1444.43
509.058	1460.71
509.265	1445.02
509.472	1467.68
509.679	1554.68
509.885	1469.04
510.092	1487.25
510.299	1487.06
510.506	1467.68
510.713	1497.71
510.92	1494.42
511.126	1540.34
511.333	1594.59
511.54	1560.49
511.746	1612.22
511.953	1661.24
512.16	1656.2
512.367	1608.73
512.573	1610.28
512.78	1638.37
512.987	1631.21
513.193	1659.88
513.4	1541.5
513.606	1643.41
513.813	1647.87
514.02	1663.76
514.226	1752.69
514.433	1697.86
514.639	1654.65
514.846	1686.42
515.052	1646.51
515.259	1711.42
515.465	1730.79
515.672	1745.71
515.878	1852.47
516.085	1776.32
516.291	1820.11
516.497	1814.1
516.704	1747.45
516.91	1713.74
517.117	1642.25
517.323	1629.66
517.529	1655.23
517.736	1636.24
517.942	1687.78
518.148	1716.65
518.354	1775.35
518.561	1750.75
518.767	1782.72
518.973	1816.82
519.179	1844.52
519.386	1864.09
519.592	1861.96
519.798	1863.51
520.004	1999.52
520.21	1947.4
520.417	2027.61
520.623	2081.28
520.829	2086.9
521.035	2112.86
521.241	2080.89
521.447	2114.22
521.653	2257.59
521.859	2123.71
522.065	2191.52
522.271	2249.45
522.477	2198.89
522.683	2256.43
522.889	2218.65
523.095	2198.3
523.301	2196.37
523.507	2202.76
523.713	2266.31
523.919	2236.09
524.125	2346.33
524.331	2313.58
524.537	2439.71
524.742	2430.8
524.948	2466.45
525.154	2442.23
525.36	2585.99
525.566	2469.36
525.772	2522.44
525.977	2427.31
526.183	2473.04
526.389	2495.9
526.595	2382.36
526.8	2412.4
527.006	2308.93
527.212	2297.12
527.417	2281.62
527.623	2270.38
527.829	2380.62
528.034	2454.24
528.24	2438.55
528.446	2499.78
528.651	2598.97
528.857	2632.88
529.062	2659.42
529.268	2661.94
529.473	2663.3
529.679	2723.75
529.884	2788.85
530.09	2761.33
530.295	2729.37
530.501	2727.23
530.706	2759.4
530.912	2703.6
531.117	2788.26
531.323	2763.27
531.528	2848.13
531.733	2822.36
531.939	2809
532.144	2822.17
532.35	2811.32
532.555	2838.83
532.76	2773.54
532.966	2795.82
533.171	2752.03
533.376	2691.97
533.581	2688.68
533.787	2750.48
533.992	2827.98
534.197	2817.71
534.402	2833.02
534.607	2818.88
534.813	2892.69
535.018	2852.59
535.223	2904.13
535.428	2878.74
535.633	2938.42
535.838	2993.64
536.043	2987.05
536.249	3093.22
536.454	3000.22
536.659	2997.51
536.864	2987.24
537.069	2954.5
537.274	2971.74
537.479	2940.55
537.684	2976.97
537.889	2933.77
538.094	3079.08
538.299	3041.3
538.504	3048.66
538.708	3045.56
538.913	3070.75
539.118	3056.99
539.323	3039.55
539.528	3026.77
539.733	3007.97
539.938	3033.55
540.142	2978.33
540.347	2963.8
540.552	2983.37
540.757	2947.33
540.962	2976.97
541.166	2904.13
541.371	2890.37
541.576	2935.9
541.781	2901.22
541.985	3015.14
542.19	3011.07
542.395	3094.77
542.599	3146.12
542.804	3077.34
543.008	3103.1
543.213	3062.8
543.418	3013.01
543.622	3079.85
543.827	2991.51
544.031	3104.27
544.236	3131
544.44	3136.43
544.645	3178.47
544.849	3083.54
545.054	3127.13
545.258	3198.62
545.463	3187
545.667	3048.08
545.872	3214.12
546.076	3158.71
546.281	3167.43
546.485	3128.87
546.689	3161.81
546.894	3201.53
547.098	3180.8
547.302	3136.62
547.507	3171.3
547.711	3181.57
547.915	3216.45
548.119	3123.45
548.324	3139.33
548.528	3183.32
548.732	3187.38
548.936	3221.87
549.141	3240.66
549.345	3199.98
549.549	3233.11
549.753	3204.82
549.957	3304.79
550.161	3277.28
550.366	3224.97
550.57	3195.52
550.774	3283.1
550.978	3262.56
551.182	3245.12
551.386	3192.03
551.59	3230.78
551.794	3236.21
551.998	3276.12
552.202	3278.06
552.406	3199.4
552.61	3299.95
552.814	3275.35
553.018	3289.88
553.222	3168.78
553.426	3224.97
553.63	3289.68
553.833	3243.38
554.037	3180.02
554.241	3273.21
554.445	3271.28
554.649	3221.1
554.853	3216.06
555.056	3249.38
555.26	3312.93
555.464	3269.15
555.668	3317.58
555.871	3313.32
556.075	3343.93
556.279	3241.63
556.483	3212.96
556.686	3209.86
556.89	3230.4
557.094	3227.1
557.297	3138.17
557.501	3179.83
557.704	3077.53
557.908	3183.51
558.112	3136.04
558.315	3190.29
558.519	3145.53
558.722	3146.89
558.926	3085.47
559.129	3016.5
559.333	2976.39
559.536	3034.13
559.74	2997.51
559.943	2983.17
560.147	2990.54
560.35	3004.1
560.553	3046.34
560.757	3014.17
560.96	3062.61
561.164	3000.61
561.367	3088.19
561.57	3065.52
561.774	3026.19
561.977	2991.51
562.18	2946.36
562.384	3068.04
562.587	2966.12
562.79	2973.87
562.993	2983.95
563.197	3011.85
563.4	3057.38
563.603	3046.72
563.806	3070.36
564.009	2975.62
564.212	2999.06
564.416	2881.46
564.619	2904.32
564.822	2895.6
565.025	2982.01
565.228	2864.6
565.431	2909.55
565.634	2824.3
565.837	2827.01
566.04	2795.43
566.243	2815.78
566.446	2715.61
566.649	2802.41
566.852	2736.73
567.055	2800.08
567.258	2777.41
567.461	2837.86
567.664	2866.93
567.867	2752.42
568.07	2802.21
568.273	2774.31
568.475	2833.6
568.678	2728.2
568.881	2719.48
569.084	2675.12
569.287	2597.62
569.489	2608.27
569.692	2686.93
569.895	2651.09
570.098	2565.07
570.3	2577.47
570.503	2524.19
570.706	2527.87
570.909	2517.6
571.111	2470.13
571.314	2446.11
571.516	2512.76
571.719	2487.38
571.922	2448.82
572.124	2452.5
572.327	2499.78
572.529	2445.33
572.732	2448.43
572.935	2474.98
573.137	2523.99
573.34	2453.28
573.542	2483.69
573.745	2473.62
573.947	2460.44
574.15	2423.44
574.352	2410.07
574.554	2469.94
574.757	2369.96
574.959	2354.85
575.162	2350.4
575.364	2338.58
575.566	2412.2
575.769	2313.58
575.971	2333.93
576.173	2249.84
576.376	2302.35
576.578	2323.08
576.78	2373.65
576.982	2231.82
577.185	2271.54
577.387	2278.32
577.589	2258.56
577.791	2316.49
577.993	2307.19
578.196	2258.95
578.398	2255.27
578.6	2269.99
578.802	2134.56
579.004	2161.49
579.206	2182.61
579.408	2244.03
579.61	2210.32
579.812	2287.23
580.014	2224.85
580.216	2201.21
580.418	2225.24
580.62	2252.75
580.822	2185.71
581.024	2200.05
581.226	2273.48
581.428	2230.27
581.63	2294.6
581.832	2193.46
582.034	2260.5
582.236	2233.37
582.438	2279.29
582.64	2303.9
582.841	2306.61
583.043	2347.68
583.245	2259.33
583.447	2267.86
583.649	2260.69
583.85	2263.4
584.052	2307.38
584.254	2212.84
584.456	2282.39
584.657	2235.5
584.859	2250.04
585.061	2208.19
585.262	2236.47
585.464	2165.95
585.666	2264.18
585.867	2223.69
586.069	2214
586.27	2197.14
586.472	2182.61
586.674	2181.06
586.875	2155.29
587.077	2161.3
587.278	2173.31
587.48	2169.24
587.681	2284.52
587.883	2158.2
588.084	2086.32
588.285	2139.02
588.487	2102.01
588.688	2133.98
588.89	2007.08
589.091	1958.45
589.292	1919.5
589.494	1886.37
589.695	1851.5
589.896	1775.74
590.098	1791.05
590.299	1852.85
590.5	1839.68
590.702	1861.38
590.903	1958.25
591.104	1971.43
591.305	1983.44
591.507	1980.34
591.708	1961.74
591.909	1956.31
592.11	2017.15
592.311	2003.59
592.512	1937.33
592.714	1905.36
592.915	1938.88
593.116	1952.05
593.317	1942.56
593.518	1945.27
593.719	1961.55
593.92	2001.84
594.121	2011.73
594.322	1966
594.523	1956.31
594.724	1899.55
594.925	1954.76
595.126	1929
595.327	1924.54
595.528	1902.84
595.729	1936.94
595.929	1932.68
596.13	1912.14
596.331	1963.68
596.532	1964.06
596.733	2011.34
596.934	2009.01
597.135	2013.08
597.335	1961.35
597.536	1941.98
597.737	1942.75
597.938	1954.18
598.138	1958.83
598.339	1926.48
598.54	1973.17
598.74	1936.36
598.941	1939.07
599.142	1992.93
599.342	1978.4
599.543	1937.52
599.744	1968.13
599.944	1926.86
600.145	1937.13
600.345	1928.8
600.546	2001.65
600.746	1983.83
600.947	2014.05
601.147	1964.45
601.348	2014.44
601.548	1924.35
601.749	1917.18
601.949	1918.73
602.15	1899.16
602.35	1920.08
602.551	1955.73
602.751	1917.18
602.951	1907.1
603.152	1879.98
603.352	1955.35
603.552	1943.91
603.753	1948.37
603.953	1963.29
604.153	1944.69
604.354	1930.74
604.554	1962.13
604.754	1949.92
604.954	1883.85
605.155	1956.12
605.355	1931.51
605.555	1961.74
605.755	2014.05
605.955	1953.41
606.155	1941.59
606.356	1914.08
606.556	1953.6
606.756	1960.38
606.956	1874.75
607.156	1963.1
607.356	1896.06
607.556	1926.28
607.756	1904.2
607.956	1964.06
608.156	1899.93
608.356	1852.27
608.556	1908.26
608.756	1863.51
608.956	1832.7
609.156	1886.37
609.356	1815.65
609.556	1806.94
609.755	1838.71
609.955	1811.39
610.155	1842.97
610.355	1825.92
610.555	1800.54
610.755	1787.37
610.954	1777.1
611.154	1810.42
611.354	1802.29
611.554	1798.02
611.753	1803.64
611.953	1733.89
612.153	1817.98
612.352	1813.91
612.552	1746.68
612.752	1730.79
612.951	1776.13
613.151	1761.4
613.351	1760.05
613.55	1728.66
613.75	1765.86
613.949	1704.25
614.149	1728.85
614.348	1732.73
614.548	1662.21
614.747	1665.31
614.947	1692.82
615.146	1658.14
615.346	1721.49
615.545	1723.24
615.745	1703.09
615.944	1692.04
616.144	1702.7
616.343	1657.75
616.542	1621.71
616.742	1635.28
616.941	1618.03
617.14	1566.88
617.34	1618.61
617.539	1631.98
617.738	1619.39
617.938	1681.39
618.137	1611.64
618.336	1560.68
618.535	1655.42
618.734	1641.09
618.934	1613.58
619.133	1641.28
619.332	1642.44
619.531	1581.03
619.73	1618.03
619.929	1650
620.128	1618.03
620.328	1675.77
620.527	1598.66
620.726	1600.98
620.925	1631.79
621.124	1609.89
621.323	1610.09
621.522	1575.21
621.721	1570.76
621.92	1549.83
622.119	1613.58
622.318	1546.73
622.517	1560.49
622.715	1528.33
622.914	1499.07
623.113	1535.11
623.312	1496.94
623.511	1590.71
623.71	1527.16
623.909	1533.56
624.107	1556.03
624.306	1473.69
624.505	1501.59
624.704	1512.25
624.902	1493.84
625.101	1550.22
625.3	1475.63
625.499	1486.28
625.697	1466.33
625.896	1486.67
626.095	1512.25
626.293	1430.68
626.492	1461.1
626.69	1497.91
626.889	1470.98
627.088	1532.78
627.286	1465.75
627.485	1450.83
627.683	1437.85
627.882	1431.84
628.08	1360.15
628.279	1361.32
628.477	1449.67
628.676	1352.99
628.874	1423.32
629.073	1377.01
629.271	1392.51
629.469	1426.42
629.668	1394.64
629.866	1418.28
630.065	1331.48
630.263	1419.44
630.461	1373.52
630.66	1418.47
630.858	1413.05
631.056	1420.8
631.254	1452.18
631.453	1404.91
631.651	1449.47
631.849	1418.08
632.047	1427.77
632.245	1410.53
632.444	1415.37
632.642	1457.42
632.84	1463.03
633.038	1419.44
633.236	1400.26
633.434	1412.08
633.632	1411.11
633.83	1404.52
634.028	1459.35
634.227	1422.93
634.425	1507.98
634.623	1452.57
634.821	1441.53
635.019	1453.54
635.216	1395.03
635.414	1484.35
635.612	1419.25
635.81	1415.76
636.008	1471.56
636.206	1427
636.404	1416.15
636.602	1410.53
636.8	1406.46
636.997	1436.88
637.195	1432.62
637.393	1458.97
637.591	1495.39
637.789	1457.8
637.986	1436.49
638.184	1406.46
638.382	1466.52
638.58	1427.19
638.777	1439.4
638.975	1386.5
639.173	1413.05
639.37	1441.14
639.568	1411.3
639.765	1431.07
639.963	1366.35
640.161	1379.53
640.358	1402.97
640.556	1354.54
640.753	1384.37
640.951	1322.57
641.148	1354.15
641.346	1331.48
641.543	1303.77
641.741	1359.38
641.938	1316.56
642.136	1339.81
642.333	1286.34
642.531	1382.24
642.728	1389.22
642.925	1342.14
643.123	1318.89
643.32	1335.35
643.517	1289.63
643.715	1302.42
643.912	1291.37
644.109	1289.63
644.306	1316.17
644.504	1246.81
644.701	1313.27
644.898	1331.48
645.095	1241.97
645.293	1279.94
645.49	1280.91
645.687	1266.38
645.884	1309.78
646.081	1169.12
646.278	1215.23
646.475	1204.96
646.672	1200.12
646.87	1209.03
647.067	1203.22
647.264	1198.76
647.461	1158.66
647.658	1128.63
647.855	1192.37
648.052	1146.26
648.249	1046.28
648.446	1161.95
648.642	1131.53
648.839	1092.2
649.036	1090.26
649.233	1080.38
649.43	1088.91
649.627	1052.68
649.824	1058.3
650.021	1046.48
650.217	1079.03
650.414	1093.17
650.611	1102.66
650.808	1121.46
651.004	1147.61
651.201	1134.05
651.398	1185.78
651.595	1105.18
651.791	1048.41
651.988	1092.78
652.185	1086.97
652.381	1106.93
652.578	1067.21
652.775	1121.46
652.971	1088.33
653.168	1089.68
653.364	1103.83
653.561	1028.65
653.757	1057.13
653.954	1105.38
654.15	1057.71
654.347	1149.36
654.543	1093.36
654.74	1017.8
654.936	1032.14
655.133	1038.15
655.329	1079.22
655.525	1051.9
655.722	1062.75
655.918	1014.12
656.115	1011.22
656.311	946.5
656.507	891.48
656.704	877.92
656.9	880.63
657.096	903.49
657.292	895.74
657.489	955.42
657.685	954.83
657.881	944.57
658.077	954.25
658.273	993.39
658.47	1043.38
658.666	955.8
658.862	1032.53
659.058	1026.33
659.254	1063.33
659.45	962.58
659.646	1023.81
659.842	1000.75
660.038	1078.83
660.234	954.64
660.43	1000.75
660.626	1068.95
660.822	1023.81
661.018	1032.53
661.214	994.55
661.41	981.77
661.606	1014.32
661.802	1051.51
661.998	989.32
662.194	980.22
662.39	1006.57
662.586	995.52
662.781	1025.94
662.977	1009.67
663.173	1001.53
663.369	977.89
663.564	974.21
663.76	993.2
663.956	959.48
664.152	985.83
664.347	884.5
664.543	938.95
664.739	973.24
664.934	889.74
665.13	886.64
665.326	961.62
665.521	945.34
665.717	911.05
665.912	910.08
666.108	870.17
666.304	888.57
666.499	898.84
666.695	819.41
666.89	912.79
667.086	921.32
667.281	913.95
667.477	948.25
667.672	912.4
667.867	886.25
668.063	902.14
668.258	860.67
668.454	910.47
668.649	940.11
668.844	874.43
669.04	887.41
669.235	880.44
669.43	850.41
669.626	858.54
669.821	860.67
670.016	843.82
670.211	873.27
670.407	839.94
670.602	872.49
670.797	860.09
670.992	886.44
671.187	833.55
671.382	913.95
671.578	834.52
671.773	915.31
671.968	809.33
672.163	848.27
672.358	909.3
672.553	813.79
672.748	830.06
672.943	884.89
673.138	840.52
673.333	894.77
673.528	834.91
673.723	860.09
673.918	834.32
674.113	800.03
674.308	887.22
674.503	867.84
674.698	881.99
674.892	824.83
675.087	864.74
675.282	828.71
675.477	800.22
675.672	839.56
675.867	803.91
676.061	812.82
676.256	801.19
676.451	804.1
676.646	841.69
676.84	786.66
677.035	790.34
677.23	787.63
677.424	852.34
677.619	869.39
677.814	863.19
678.008	885.47
678.203	796.54
678.397	808.17
678.592	841.11
678.787	886.64
678.981	833.16
679.176	815.53
679.37	813.98
679.565	810.3
679.759	826.57
679.954	827.93
680.148	872.1
680.342	901.75
680.537	860.09
680.731	854.47
680.926	864.94
681.12	893.22
681.314	829.67
681.509	817.27
681.703	830.06
681.897	871.33
682.092	850.41
682.286	848.27
682.48	884.5
682.674	872.88
682.869	811.85
683.063	859.12
683.257	895.16
683.451	847.31
683.645	882.76
683.839	884.12
684.034	883.54
684.228	884.12
684.422	861.06
684.616	821.34
684.81	893.03
685.004	846.72
685.198	852.73
685.392	901.36
685.586	869.78
685.78	888.77
685.974	895.74
686.168	906.01
686.362	943.21
686.556	824.06
686.75	809.33
686.944	781.43
687.138	788.79
687.331	709.55
687.525	686.3
687.719	621.2
687.913	686.11
688.107	706.45
688.301	702.96
688.494	754.89
688.688	718.46
688.882	723.5
689.076	683.39
689.269	750.43
689.463	842.66
689.657	727.76
689.85	738.23
690.044	806.23
690.238	794.8
690.431	814.95
690.625	845.56
690.818	872.88
691.012	886.25
691.205	951.73
691.399	910.47
691.593	920.35
691.786	989.71
691.98	1008.7
692.173	1071.08
692.366	1018.97
692.56	1017.03
692.753	1119.91
692.947	1051.13
693.14	1120.88
693.333	1074.57
693.527	1030.01
693.72	1110.22
693.914	1090.07
694.107	1136.57
694.3	1138.7
694.493	1119.71
694.687	1218.52
694.88	1147.42
695.073	1261.73
695.266	1201.86
695.46	1217.75
695.653	1285.17
695.846	1308.81
696.039	1254.17
696.232	1289.63
696.425	1392.51
696.618	1375.65
696.812	1422.15
697.005	1501.78
697.198	1507.98
697.391	1489
697.584	1555.64
697.777	1601.56
697.97	1581.8
698.163	1600.98
698.356	1596.33
698.549	1684.87
698.742	1652.71
698.935	1601.95
699.127	1691.85
699.32	1611.64
699.513	1635.47
699.706	1660.07
699.899	1730.99
700.092	1680.03
700.285	1715.68
700.477	1687.97
700.67	1746.29
700.863	1757.34
701.056	1857.89
701.248	1789.69
701.441	1865.45
701.634	1843.36
701.826	1917.18
702.019	1812.75
702.212	1928.61
702.404	1860.6
702.597	1871.26
702.79	1909.43
702.982	1959.61
703.175	1990.61
703.367	2044.66
703.56	2053.19
703.752	2139.02
703.945	2096.97
704.137	2138.44
704.33	2154.71
704.522	2170.4
704.715	2186.87
704.907	2239.96
705.1	2245.97
705.292	2272.7
705.484	2215.94
705.677	2313.58
705.869	2319.59
706.061	2344.58
706.254	2406.58
706.446	2349.23
706.638	2400.77
706.831	2455.41
707.023	2407.55
707.215	2549.37
707.407	2525.16
707.599	2509.27
707.792	2614.47
707.984	2554.61
708.176	2589.87
708.368	2588.32
708.56	2626.1
708.752	2650.51
708.944	2611.57
709.136	2660
709.329	2646.44
709.521	2792.72
709.713	2729.75
709.905	2760.95
710.097	2816.94
710.289	2787.1
710.481	2837.48
710.672	2833.41
710.864	2892.89
711.056	2877.39
711.248	2897.73
711.44	2903.93
711.632	2931.64
711.824	2954.69
712.016	2998.29
712.207	3027.74
712.399	3023.09
712.591	3062.8
712.783	3062.03
712.975	3074.04
713.166	3017.27
713.358	3032.97
713.55	3106.98
713.741	3097.29
713.933	3145.53
714.125	3105.04
714.316	3127.13
714.508	3188.16
714.7	3159.68
714.891	3200.37
715.083	3238.53
715.274	3156
715.466	3143.21
715.657	3208.5
715.849	3094.39
716.04	3148.63
716.232	3101.94
716.423	3121.51
716.615	3004.68
716.806	2954.31
716.998	2868.28
717.189	2772.57
717.381	2659.04
717.572	2591.42
717.763	2637.14
717.955	2602.07
718.146	2514.5
718.337	2469.74
718.528	2456.57
718.72	2325.98
718.911	2382.56
719.102	2345.75
719.293	2381.01
719.485	2342.84
719.676	2332.77
719.867	2283.94
720.058	2307.77
720.249	2287.23
720.44	2330.63
720.632	2401.16
720.823	2448.24
721.014	2601.1
721.205	2679.57
721.396	2715.8
721.587	2888.24
721.778	2911.29
721.969	3003.13
722.16	3109.89
722.351	3096.9
722.542	3216.06
722.733	3247.64
722.924	3162.39
723.115	3162.97
723.305	3116.09
723.496	3132.75
723.687	2981.43
723.878	2981.43
724.069	2967.48
724.26	2976.01
724.45	2900.44
724.641	2869.06
724.832	2931.25
725.023	2900.83
725.213	2899.86
725.404	2830.31
725.595	2859.37
725.785	2809.19
725.976	2917.3
726.167	2873.71
726.357	2898.7
726.548	3018.82
726.739	2893.47
726.929	3020.57
727.12	3017.27
727.31	3046.34
727.501	2951.98
727.691	2924.47
727.882	3006.62
728.072	3029.48
728.263	3054.28
728.453	3140.5
728.644	3153.67
728.834	3109.11
729.024	3042.65
729.215	3043.24
729.405	3098.45
729.596	3139.53
729.786	3170.33
729.976	3204.82
730.167	3177.89
730.357	3189.32
730.547	3173.05
730.737	3201.72
730.928	3257.52
731.118	3281.74
731.308	3187
731.498	3269.73
731.688	3348.19
731.879	3367.38
732.069	3416.97
732.259	3496.22
732.449	3485.37
732.639	3625.45
732.829	3606.85
733.019	3668.07
733.209	3766.49
733.399	3775.99
733.589	3857.56
733.779	3867.44
733.969	3882.94
734.159	4071.84
734.349	4034.45
734.539	4073.2
734.729	4056.53
734.919	4074.94
735.109	4182.86
735.299	4086.56
735.488	4106.52
735.678	4140.43
735.868	4112.91
736.058	4111.75
736.248	4067.38
736.437	4030.96
736.627	4044.33
736.817	4149.92
737.007	4070.29
737.196	4203.59
737.386	4182.08
737.576	4117.56
737.765	4235.56
737.955	4182.66
738.144	4277.79
738.334	4270.43
738.524	4201.46
738.713	4240.98
738.903	4244.28
739.092	4235.36
739.282	4272.37
739.471	4243.89
739.661	4288.06
739.85	4296.97
740.04	4313.44
740.229	4362.46
740.419	4392.3
740.608	4389.2
740.797	4390.94
740.987	4436.28
741.176	4384.55
741.365	4371.95
741.555	4384.35
741.744	4480.45
741.933	4428.34
742.123	4432.21
742.312	4458.95
742.501	4473.48
742.69	4550.78
742.88	4376.99
743.069	4537.61
743.258	4493.82
743.447	4543.23
743.636	4581.98
743.825	4513.78
744.014	4490.33
744.204	4582.56
744.393	4524.63
744.582	4585.85
744.771	4621.69
744.96	4541.48
745.149	4585.27
745.338	4523.85
745.527	4623.44
745.716	4558.34
745.905	4495.76
746.094	4602.32
746.283	4599.22
746.471	4629.44
746.66	4663.93
746.849	4623.83
747.038	4644.17
747.227	4569
747.416	4627.31
747.604	4538.58
747.793	4612.01
747.982	4581.01
748.171	4635.64
748.359	4602.32
748.548	4580.43
748.737	4557.76
748.926	4566.86
749.114	4504.67
749.303	4549.23
749.491	4571.32
749.68	4493.05
749.869	4569.77
750.057	4511.65
750.246	4479.87
750.434	4528.31
750.623	4509.13
750.811	4468.05
751	4500.8
751.188	4487.04
751.377	4511.84
751.565	4494.4
751.754	4453.13
751.942	4441.32
752.131	4502.35
752.319	4436.47
752.507	4416.52
752.696	4481.03
752.884	4510.29
753.072	4433.76
753.261	4438.8
753.449	4457.59
753.637	4384.16
753.825	4483.94
754.014	4431.63
754.202	4470.38
754.39	4479.68
754.578	4431.24
754.766	4414.77
754.955	4396.17
755.143	4488.2
755.331	4392.1
755.519	4461.85
755.707	4384.16
755.895	4346.96
756.083	4359.55
756.271	4299.69
756.459	4360.33
756.647	4327.01
756.835	4315.38
757.023	4339.6
757.211	4286.12
757.399	4284.38
757.587	4339.79
757.775	4215.41
757.963	4295.81
758.151	4265.39
758.339	4224.51
758.526	4167.36
758.714	4235.17
758.902	4097.03
759.09	3956.75
759.278	3738.79
759.465	3425.5
759.653	2992.67
759.841	2657.49
760.028	2323.85
760.216	2020.25
760.404	1873
760.591	1567.85
760.779	1315.4
760.967	1126.11
761.154	905.62
761.342	938.56
761.529	925.19
761.717	977.31
761.905	971.5
762.092	1055.2
762.28	989.52
762.467	948.63
762.655	879.66
762.842	900.78
763.029	920.15
763.217	917.25
763.404	937.98
763.592	929.45
763.779	899.62
763.966	915.7
764.154	975.18
764.341	1025.36
764.528	1055.2
764.716	1187.14
764.903	1199.15
765.09	1305.13
765.277	1352.21
765.465	1502.75
765.652	1621.33
765.839	1710.26
766.026	1900.9
766.213	1971.23
766.4	2079.34
766.588	2242.67
766.775	2348.46
766.962	2490.67
767.149	2583.09
767.336	2757.65
767.523	2757.65
767.71	2883.59
767.897	3072.1
768.084	3133.33
768.271	3210.25
768.458	3279.8
768.645	3366.02
768.832	3356.72
769.019	3412.71
769.206	3436.93
769.392	3553.57
769.579	3620.41
769.766	3596.97
769.953	3592.7
770.14	3632.03
770.327	3684.54
770.513	3771.92
770.7	3792.65
770.887	3705.27
771.073	3745.18
771.26	3765.72
771.447	3732.2
771.634	3725.23
771.82	3842.44
772.007	3715.35
772.193	3756.81
772.38	3782.58
772.567	3753.13
772.753	3774.63
772.94	3788.39
773.126	3827.52
773.313	3797.69
773.499	3765.91
773.686	3786.84
773.872	3742.66
774.059	3791.88
774.245	3737.24
774.432	3703.14
774.618	3680.47
774.804	3721.55
774.991	3702.56
775.177	3714.76
775.363	3741.69
775.55	3786.64
775.736	3678.15
775.922	3676.4
776.109	3669.62
776.295	3736.27
776.481	3732.78
776.667	3715.73
776.853	3679.5
777.04	3713.21
777.226	3674.46
777.412	3742.47
777.598	3616.34
777.784	3610.14
777.97	3594.25
778.156	3678.73
778.342	3636.1
778.528	3614.79
778.715	3561.9
778.901	3585.15
779.087	3599.48
779.272	3576.23
779.458	3565.19
779.644	3555.12
779.83	3539.81
780.016	3614.6
780.202	3590.38
780.388	3540.39
780.574	3473.16
780.76	3513.27
780.946	3518.89
781.131	3521.6
781.317	3498.74
781.503	3476.65
781.689	3429.57
781.874	3577.2
782.06	3440.61
782.246	3523.34
782.432	3429.96
782.617	3502.42
782.803	3516.17
782.989	3374.35
783.174	3411.16
783.36	3398.57
783.545	3416.2
783.731	3386.75
783.916	3340.83
784.102	3374.74
784.288	3348.58
784.473	3365.83
784.659	3337.34
784.844	3371.44
785.029	3355.75
785.215	3321.07
785.4	3282.51
785.586	3374.93
785.771	3250.74
785.956	3365.05
786.142	3225.75
786.327	3294.33
786.512	3267.21
786.698	3268.95
786.883	3195.72
787.068	3237.95
787.254	3255.39
787.439	3242.6
787.624	3147.86
787.809	3140.88
787.994	3138.17
788.18	3232.33
788.365	3096.9
788.55	3168.59
788.735	3086.44
788.92	3097.1
789.105	3052.15
789.29	3131.2
789.475	3006.23
789.66	3029.48
789.845	3060.48
790.03	3013.4
790.215	3081.21
790.4	3073.27
790.585	3066.29
790.77	3022.89
790.955	2979.11
791.14	2981.04
791.325	3043.62
791.51	2932.8
791.695	3004.29
791.879	2998.87
792.064	2953.92
792.249	3049.82
792.434	2957.41
792.618	2983.76
792.803	3019.02
792.988	2977.56
793.173	2976.39
793.357	3040.72
793.542	2984.92
793.727	3019.41
793.911	3034.52
794.096	3016.69
794.281	3031.81
794.465	3109.5
794.65	3047.69
794.834	3096.13
795.019	3054.09
795.203	3088.19
795.388	3079.85
795.572	3091.48
795.757	3047.11
795.941	3016.69
796.126	3017.08
796.31	2950.43
796.494	3042.07
796.679	2978.91
796.863	3004.68
797.048	3097.87
797.232	3032.39
797.416	3050.6
797.601	3017.66
797.785	3110.66
797.969	3125
798.153	3029.29
798.338	3084.7
798.522	3107.75
798.706	3112.99
798.89	3098.65
799.074	3226.13
799.258	3137.59
799.443	3111.82
799.627	3076.37
799.811	3155.61
799.995	3075.4
800.179	3019.21
800.363	3086.05
800.547	3060.09
800.731	3057.77
800.915	2983.17
801.099	2990.54
801.283	3012.62
801.467	3008.17
801.651	3032
801.835	3069.97
802.019	3083.92
802.202	3087.8
802.386	2992.09
802.57	2985.69
802.754	3012.62
802.938	3015.72
803.121	3006.23
803.305	3058.15
803.489	3022.31
803.673	3061.25
803.856	3072.49
804.04	3013.79
804.224	3024.44
804.407	3013.98
804.591	2971.74
804.775	3033.36
804.958	3020.96
805.142	3153.87
805.326	3083.73
805.509	3074.43
805.693	3094
805.876	3077.34
806.06	3078.69
806.243	3094.77
806.427	3072.3
806.61	3137.98
806.794	3068.42
806.977	3078.89
807.16	3094.39
807.344	3120.93
807.527	3042.46
807.71	3072.69
807.894	3059.12
808.077	3104.07
808.26	3013.01
808.444	3034.32
808.627	3035.68
808.81	2991.31
808.993	2928.54
809.177	2935.13
809.36	2985.89
809.543	2958.37
809.726	2849.68
809.909	2899.28
810.092	2868.48
810.276	2871.96
810.459	2890.95
810.642	2826.63
810.825	2816.55
811.008	2823.53
811.191	2721.42
811.374	2766.76
811.557	2714.64
811.74	2745.25
811.923	2672.6
812.106	2656.52
812.289	2623.58
812.472	2639.08
812.654	2628.42
812.837	2590.26
813.02	2518.57
813.203	2483.11
813.386	2333.73
813.569	2371.32
813.751	2279.29
813.934	2298.67
814.117	2269.02
814.3	2223.49
814.482	2198.69
814.665	2112.47
814.848	2086.9
815.03	2027.61
815.213	2011.92
815.396	1975.11
815.578	1967.55
815.761	1952.63
815.943	1988.48
816.126	1883.47
816.309	1901.68
816.491	1827.08
816.674	1744.55
816.856	1793.57
817.039	1765.67
817.221	1864.48
817.403	1811
817.586	1844.33
817.768	1837.74
817.951	1718.2
818.133	1741.25
818.315	1780.39
818.498	1848.59
818.68	1883.85
818.862	1847.62
819.045	1877.07
819.227	1827.47
819.409	1846.46
819.591	1850.14
819.774	1819.53
819.956	1818.95
820.138	1909.43
820.32	1895.28
820.502	2012.31
820.684	2059.19
820.866	2058.23
821.048	2117.71
821.231	2173.5
821.413	2124.87
821.595	2092.71
821.777	2119.06
821.959	2122.74
822.141	2170.99
822.323	2017.93
822.505	1918.53
822.686	1851.69
822.868	1779.81
823.05	1673.25
823.232	1638.38
823.414	1545.57
823.596	1655.42
823.778	1632.56
823.96	1664.14
824.141	1693.98
824.323	1722.85
824.505	1781.55
824.687	1836
824.868	1903.03
825.05	2001.65
825.232	2049.7
825.413	2119.45
825.595	2106.47
825.777	2027.81
825.958	2061.52
826.14	2036.53
826.321	2094.65
826.503	2026.45
826.685	2083.8
826.866	2082.44
827.048	2086.51
827.229	2048.73
827.411	1971.62
827.592	1937.71
827.773	1902.84
827.955	1838.9
828.136	1846.07
828.318	1823.79
828.499	1855.57
828.68	1794.92
828.862	1843.17
829.043	1866.42
829.224	1848.4
829.406	1771.67
829.587	1777.87
829.768	1824.76
829.949	1848.78
830.131	1854.98
830.312	1898.38
830.493	1830.57
830.674	1883.47
830.855	1823.6
831.036	1868.35
831.218	1926.67
831.399	1957.48
831.58	1857.5
831.761	1852.27
831.942	1873.2
832.123	1866.22
832.304	1807.9
832.485	1833.87
832.666	1826.12
832.847	1887.73
833.028	1866.03
833.209	1847.43
833.389	1863.9
833.57	1786.4
833.751	1812.94
833.932	1883.47
834.113	1867.97
834.294	1802.48
834.475	1876.49
834.655	1901.48
834.836	1878.82
835.017	1870.48
835.198	1882.5
835.378	1903.42
835.559	1926.09
835.74	1880.37
835.92	1912.33
836.101	1872.03
836.281	1917.37
836.462	1918.53
836.643	1938.3
836.823	1987.31
837.004	1927.25
837.184	1975.3
837.365	1955.35
837.545	1960.38
837.726	1942.75
837.906	1998.74
838.087	1964.65
838.267	1989.64
838.448	1966
838.628	1966.58
838.808	1947.01
838.989	1981.7
839.169	1875.33
839.349	1992.54
839.53	2004.56
839.71	1992.54
839.89	1950.5
840.07	2023.16
840.251	1969.68
840.431	2012.11
840.611	1956.7
840.791	1928.22
840.971	1958.45
841.151	1961.55
841.332	1923.57
841.512	2013.86
841.692	1917.18
841.872	1953.99
842.052	1949.73
842.232	1957.86
842.412	1944.5
842.592	1909.04
842.772	1972.2
842.952	1963.48
843.132	1906.13
843.312	1868.55
843.492	1906.33
843.672	1941.01
843.851	1880.56
844.031	1898.19
844.211	1895.09
844.391	1919.5
844.571	1917.37
844.751	1905.55
844.93	1916.98
845.11	1880.56
845.29	1919.11
845.47	1932.29
845.649	1914.27
845.829	1914.27
846.009	1894.12
846.188	1905.94
846.368	1916.98
846.547	1878.04
846.727	1933.06
846.907	1863.32
847.086	1877.85
847.266	1906.13
847.445	1854.98
847.625	1857.89
847.804	1854.79
847.984	1858.67
848.163	1854.6
848.343	1884.43
848.522	1852.66
848.701	1835.8
848.881	1810.04
849.06	1866.42
849.239	1830.38
849.419	1861.18
849.598	1789.69
849.777	1769.35
849.957	1772.84
850.136	1669.37
850.315	1716.84
850.494	1643.02
850.674	1707.54
850.853	1761.6
851.032	1725.56
851.211	1793.37
851.39	1704.25
851.569	1661.62
851.748	1637.6
851.927	1730.21
852.107	1699.6
852.286	1674.8
852.465	1656.2
852.644	1725.17
852.823	1694.76
853.002	1700.76
853.181	1689.33
853.359	1695.92
853.538	1651.74
853.717	1690.3
853.896	1579.67
854.075	1486.86
854.254	1517.09
854.433	1426.61
854.611	1507.79
854.79	1419.44
854.969	1471.56
855.148	1496.16
855.327	1468.85
855.505	1494.03
855.684	1503.72
855.863	1558.74
856.041	1535.5
856.22	1581.22
856.399	1535.88
856.577	1671.12
856.756	1651.55
856.934	1747.07
857.113	1722.46
857.291	1671.51
857.47	1614.35
857.648	1655.04
857.827	1629.66
858.005	1691.85
858.184	1636.24
858.362	1696.69
858.541	1636.24
858.719	1659.11
858.898	1609.89
859.076	1636.24
859.254	1695.34
859.433	1590.52
859.611	1612.03
859.789	1549.06
859.967	1634.69
860.146	1649.03
860.324	1575.41
860.502	1596.33
860.68	1573.28
860.859	1576.96
861.037	1543.05
861.215	1554.68
861.393	1592.26
861.571	1603.31
861.749	1555.64
861.927	1573.47
862.105	1570.18
862.283	1544.8
862.461	1529.88
862.639	1511.08
862.817	1538.6
862.995	1564.94
863.173	1511.66
863.351	1537.05
863.529	1532.2
863.707	1586.45
863.885	1581.99
864.063	1501.2
864.241	1513.02
864.418	1582.38
864.596	1515.54
864.774	1452.96
864.952	1511.28
865.129	1506.05
865.307	1460.13
865.485	1444.63
865.663	1505.08
865.84	1396.97
866.018	1405.88
866.196	1323.54
866.373	1334.58
866.551	1313.65
866.728	1213.87
866.906	1297.38
867.084	1316.37
867.261	1311.52
867.439	1375.27
867.616	1383.21
867.794	1365
867.971	1393.28
868.149	1386.89
868.326	1474.66
868.503	1396
868.681	1418.08
868.858	1410.14
869.035	1355.5
869.213	1422.93
869.39	1402.97
869.567	1454.7
869.745	1381.27
869.922	1422.35
870.099	1448.12
870.276	1429.32
870.454	1404.91
870.631	1421.96
870.808	1378.95
870.985	1402.97
871.162	1451.41
871.339	1411.88
871.517	1350.08
871.694	1331.67
871.871	1377.2
872.048	1342.33
872.225	1340.2
872.402	1392.9
872.579	1326.44
872.756	1384.57
872.933	1312.1
873.11	1322.57
873.287	1360.54
873.463	1312.3
873.64	1327.22
873.817	1370.42
873.994	1316.95
874.171	1323.92
874.348	1365.39
874.524	1267.16
874.701	1340.2
874.878	1256.11
875.055	1317.34
875.231	1305.71
875.408	1322.95
875.585	1241
875.762	1283.43
875.938	1287.89
876.115	1280.52
876.291	1256.31
876.468	1253.4
876.645	1224.14
876.821	1244.68
876.998	1260.37
877.174	1264.64
877.351	1250.11
877.527	1231.31
877.704	1271.03
877.88	1237.51
878.057	1233.44
878.233	1312.3
878.409	1202.44
878.586	1238.67
878.762	1228.99
878.938	1211.74
879.115	1152.65
879.291	1214.84
879.467	1169.31
879.644	1178.81
879.82	1206.32
879.996	1161.95
880.172	1139.09
880.349	1208.06
880.525	1216.78
880.701	1146.06
880.877	1146.06
881.053	1191.59
881.229	1163.89
881.405	1204.96
881.581	1136.96
881.757	1123.01
881.933	1170.28
882.109	1191.98
882.285	1147.42
882.461	1121.07
882.637	1174.35
882.813	1134.83
882.989	1156.14
883.165	1202.06
883.341	1129.98
883.517	1211.36
883.693	1175.13
883.869	1179.39
884.044	1153.23
884.22	1193.53
884.396	1195.86
884.572	1184.04
884.747	1216.2
884.923	1171.64
885.099	1164.66
885.275	1212.32
885.45	1159.24
885.626	1144.32
885.801	1145.87
885.977	1166.6
886.153	1067.01
886.328	1161.95
886.504	1133.47
886.679	1157.88
886.855	1107.12
887.03	1147.03
887.206	1196.24
887.381	1182.68
887.557	1139.67
887.732	1168.34
887.908	1148.78
888.083	1185.78
888.258	1159.43
888.434	1133.86
888.609	1152.46
888.784	1173.38
888.96	1136.38
889.135	1141.41
889.31	1125.53
889.485	1149.36
889.661	1153.23
889.836	1195.28
890.011	1124.56
890.186	1138.12
890.361	1100.92
890.537	1138.12
890.712	1154.39
890.887	1169.31
891.062	1147.61
891.237	1202.25
891.412	1103.83
891.587	1149.16
891.762	1157.11
891.937	1180.55
892.112	1122.43
892.287	1132.69
892.462	1094.53
892.637	1062.75
892.812	1079.22
892.987	1030.01
893.161	1042.02
893.336	1038.92
893.511	1043.18
893.686	1029.04
893.861	1044.15
894.035	1040.66
894.21	1067.21
894.385	974.4
894.56	1030.98
894.734	951.73
894.909	936.24
895.084	937.4
895.258	898.07
895.433	929.07
895.608	902.14
895.782	854.67
895.957	865.52
896.131	867.45
896.306	807.39
896.48	809.72
896.655	810.11
896.829	712.26
897.004	741.71
897.178	730.28
897.353	739.19
897.527	784.34
897.701	758.76
897.876	704.51
898.05	799.45
898.224	798.87
898.399	805.84
898.573	753.14
898.747	662.28
898.921	685.91
899.096	596.01
899.27	585.55
899.444	604.73
899.618	647.75
899.792	672.55
899.967	658.4
900.141	701.22
900.315	619.07
900.489	620.62
900.663	649.1
900.837	617.33
901.011	572.18
901.185	695.6
901.359	643.1
901.533	655.3
901.707	673.51
901.881	653.95
902.055	587.49
902.229	617.33
902.403	725.44
902.576	672.74
902.75	630.11
902.924	776.2
903.098	699.67
903.272	780.85
903.446	811.46
903.619	756.83
903.793	824.25
903.967	810.11
904.14	842.27
904.314	864.16
904.488	821.15
904.661	847.89
904.835	835.29
905.009	841.11
905.182	888.19
905.356	837.42
905.529	832.19
905.703	818.63
905.876	795.77
906.05	787.24
906.223	745.98
906.397	692.69
906.57	688.04
906.744	633.02
906.917	654.53
907.09	662.86
907.264	648.13
907.437	594.08
907.61	572.96
907.784	590.2
907.957	604.54
908.13	603.18
908.304	617.71
908.477	552.62
908.65	605.7
908.823	556.88
908.996	619.46
909.17	560.75
909.343	557.07
909.516	557.65
909.689	543.7
909.862	526.46
910.035	540.6
910.208	533.05
910.381	526.07
910.554	624.3
910.727	557.27
910.9	537.7
911.073	517.93
911.246	607.06
911.419	629.92
911.592	592.91
911.765	569.47
911.938	579.16
912.11	576.83
912.283	559.4
912.456	595.24
912.629	560.17
912.802	565.02
912.974	519.48
913.147	453.42
913.32	397.62
913.493	433.46
913.665	461.75
913.838	474.92
914.01	459.62
914.183	511.35
914.356	467.95
914.528	544.87
914.701	556.68
914.873	520.84
915.046	455.74
915.218	456.71
915.391	389.48
915.563	395.49
915.736	454.77
915.908	499.92
916.081	435.79
916.253	487.13
916.425	487.71
916.598	505.34
916.77	457.29
916.942	443.73
917.115	398.59
917.287	438.11
917.459	436.75
917.632	399.94
917.804	342.21
917.976	439.66
918.148	434.62
918.32	472.21
918.493	491.97
918.665	513.09
918.837	484.61
919.009	550.1
919.181	547
919.353	502.63
919.525	508.63
919.697	507.47
919.869	522.58
920.041	570.83
920.213	633.6
920.385	544.48
920.557	536.15
920.729	590.59
920.901	534.4
921.073	513.87
921.244	515.22
921.416	553
921.588	515.42
921.76	516.19
921.932	578.58
922.103	518.13
922.275	524.13
922.447	520.07
922.619	485
922.79	509.02
922.962	499.53
923.134	510.77
923.305	453.61
923.477	462.14
923.648	417.77
923.82	478.6
923.991	403.04
924.163	393.74
924.335	466.59
924.506	432.3
924.677	483.06
924.849	435.59
925.02	445.67
925.192	463.3
925.363	448.96
925.535	449.15
925.706	415.64
925.877	476.47
926.049	425.9
926.22	432.3
926.391	450.32
926.562	474.54
926.734	436.95
926.905	466.2
927.076	392.77
927.247	389.87
927.419	354.41
927.59	350.73
927.761	361.97
927.932	318.76
928.103	345.89
928.274	326.71
928.445	305.39
928.616	317.21
928.787	302.68
928.958	340.85
929.129	309.66
929.3	289.7
929.471	228.86
929.642	197.86
929.813	200.19
929.984	269.94
930.155	178.68
930.326	244.94
930.496	190.89
930.667	142.45
930.838	197.86
931.009	151.95
931.18	149.62
931.35	132.18
931.521	164.15
931.692	105.25
931.863	60.89
932.033	121.92
932.204	110.48
932.374	132.77
932.545	95.95
932.716	139.55
932.886	122.11
933.057	54.69
933.227	65.34
933.398	138
933.568	59.53
933.739	23.49
933.909	32.6
934.08	92.27
934.25	10.32
934.421	31.82
934.591	98.47
934.761	41.9
934.932	-1.89
935.102	49.65
935.272	15.55
935.443	50.81
935.613	38.6
935.783	37.83
935.953	5.09
936.123	160.86
936.294	25.43
936.464	33.95
936.634	34.15
936.804	30.66
936.974	-22.43
937.144	57.98
937.314	47.32
937.484	20.39
937.655	26.98
937.825	76
937.995	21.17
938.165	60.69
938.334	46.35
938.504	51.2
938.674	52.17
938.844	64.95
939.014	107.97
939.184	111.84
939.354	141.48
939.524	143.42
939.694	101.38
939.863	70.18
940.033	144.78
940.203	138
940.373	125.02
940.542	134.9
940.712	81.81
940.882	123.27
941.051	148.65
941.221	125.6
941.391	128.12
941.56	84.72
941.73	83.55
941.899	164.15
942.069	94.21
942.238	127.92
942.408	67.67
942.577	86.27
942.747	88.78
942.916	35.12
943.086	68.25
943.255	114.75
943.425	97.5
943.594	83.17
943.763	35.7
943.933	32.21
944.102	-9.64
944.271	62.44
944.441	88.59
944.61	54.3
944.779	89.17
944.948	124.63
945.117	33.37
945.287	60.3
945.456	6.25
945.625	43.25
945.794	72.9
945.963	51.2
946.132	75.03
946.301	81.42
946.47	87.04
946.639	28.14
946.808	57.4
946.977	83.55
947.146	117.27
947.315	42.29
947.484	95.18
947.653	51.59
947.822	52.75
947.991	41.32
948.16	125.21
948.329	116.1
948.498	92.08
948.666	80.45
948.835	88.59
949.004	60.5
949.173	14
949.341	69.8
949.51	80.26
949.679	116.88
949.847	64.18
950.016	134.32
950.185	124.43
950.353	46.35
950.522	68.44
950.69	116.1
950.859	68.05
951.028	114.94
951.196	100.6
951.365	51.2
951.533	90.14
951.701	76.19
951.87	123.47
952.038	3.92
952.207	62.63
952.375	108.93
952.543	58.75
952.712	65.53
952.88	71.73
953.048	89.56
953.217	92.08
953.385	54.3
953.553	118.23
953.721	40.74
953.89	70.57
954.058	56.04
954.226	46.35
954.394	59.72
954.562	49.07
954.73	75.8
954.898	62.63
955.067	83.36
955.235	43.25
955.403	118.82
955.571	156.98
955.739	108.55
955.907	36.28
956.075	50.42
956.243	46.94
956.41	102.35
956.578	55.65
956.746	20.59
956.914	57.79
957.082	84.72
957.25	115.72
957.418	48.87
957.585	77.35
957.753	106.22
957.921	45.39
958.089	97.89
958.256	80.45
958.424	65.73
958.592	108.93
958.759	38.41
958.927	113
959.095	48.68
959.262	66.89
959.43	96.53
959.597	64.95
959.765	76.97
959.932	47.13
960.1	109.32
960.267	66.7
960.435	77.35
960.602	114.55
960.77	80.07
960.937	58.17
961.104	67.67
961.272	48.29
961.439	44.61
961.606	83.17
961.774	89.75
961.941	62.44
962.108	106.22
962.275	101.18
962.443	119.78
962.61	88.98
962.777	173.26
962.944	103.12
963.111	94.6
963.278	131.6
963.446	104.48
963.613	79.87
963.78	114.75
963.947	98.86
964.114	86.27
964.281	155.05
964.448	91.88
964.615	84.91
964.782	105.64
964.949	128.5
965.116	107.58
965.282	142.84
965.449	90.14
965.616	67.67
965.783	101.96
965.95	97.7
966.117	39.77
966.283	78.32
966.45	107.19
966.617	78.9
966.784	130.63
966.95	114.36
967.117	149.62
967.284	77.74
967.45	87.23
967.617	161.25
967.784	129.47
967.95	156.79
968.117	99.44
968.283	130.63
968.45	239.13
968.616	150.4
968.783	146.13
968.949	131.99
969.116	152.14
969.282	105.25
969.449	144.58
969.615	150.4
969.781	88.98
969.948	107.97
970.114	110.87
970.28	207.16
970.447	120.37
970.613	176.75
970.779	131.8
970.945	132.57
971.112	126.57
971.278	141.29
971.444	119.4
971.61	171.71
971.776	117.85
971.942	139.35
972.108	157.76
972.275	134.12
972.441	158.34
972.607	216.66
972.773	117.46
972.939	144.2
973.105	138
973.271	76.77
973.437	90.92
973.602	102.35
973.768	113.39
973.934	113.39
974.1	127.73
974.266	37.05
974.432	125.98
974.598	85.68
974.763	123.66
974.929	82.58
975.095	151.75
975.261	78.71
975.426	92.66
975.592	115.13
975.758	149.04
975.923	68.05
976.089	74.25
976.255	133.93
976.42	118.43
976.586	131.41
976.751	114.17
976.917	176.55
977.082	122.5
977.248	69.6
977.413	85.3
977.579	102.54
977.744	109.32
977.91	63.79
978.075	76
978.24	134.12
978.406	109.71
978.571	81.62
978.736	79.48
978.902	119.2
979.067	60.3
979.232	37.64
979.397	89.95
979.563	136.45
979.728	66.31
979.893	97.89
980.058	83.94
980.223	115.91
980.388	97.89
980.554	105.64
980.719	80.45
980.884	99.44
981.049	141.87
981.214	87.62
981.379	114.75
981.544	80.26
981.709	104.67
981.874	96.73
982.039	86.07
982.204	139.93
982.368	100.6
982.533	94.6
982.698	152.53
982.863	135.87
983.028	89.56
983.193	118.62
983.357	93.24
983.522	120.56
983.687	97.31
983.852	96.34
984.016	93.63
984.181	111.07
984.346	122.88
984.51	123.85
984.675	108.16
984.839	123.27
985.004	106.22
985.168	145.94
985.333	114.94
985.498	101.96
985.662	128.89
985.827	123.08
985.991	103.7
986.155	80.45
986.32	133.35
986.484	156.01
986.649	102.15
986.813	74.06
986.977	153.3
987.142	118.04
987.306	68.05
987.47	77.74
987.634	108.55
987.799	114.75
987.963	119.01
988.127	115.72
988.291	156.21
988.455	115.72
988.62	103.12
988.784	113.58
988.948	138
989.112	65.34
989.276	112.62
989.44	76.58
989.604	77.55
989.768	63.79
989.932	157.37
990.096	73.48
990.26	58.75
990.424	59.14
990.588	81.23
990.752	147.1
990.915	137.61
991.079	87.82
991.243	70.57
991.407	132.18
991.571	87.23
991.734	95.76
991.898	134.32
992.062	168.22
992.226	91.11
992.389	75.8
992.553	43.45
992.717	79.87
992.88	64.37
993.044	107
993.207	82.97
993.371	125.4
993.535	115.13
993.698	101.18
993.862	118.82
994.025	107.77
994.189	113.78
994.352	108.74
994.515	94.21
994.679	130.44
994.842	71.73
995.006	130.83
995.169	43.84
995.332	65.73
995.496	108.93
995.659	52.94
995.822	78.52
995.985	111.84
996.149	129.67
996.312	103.7
996.475	146.13
996.638	66.89
996.801	152.53
996.964	150.78
997.128	74.25
997.291	81.23
997.454	87.04
997.617	69.6
997.78	112.42
997.943	83.55
998.106	100.6
998.269	51.78
998.432	82.2
998.595	86.07
998.758	45.39
998.92	40.74
999.083	30.27
999.246	86.07
999.409	39.77
999.572	50.04
999.735	49.07
999.897	88.59
1000.06	58.17
1000.223	53.72
1000.386	81.62
1000.548	69.99
1000.711	79.29
1000.874	95.57
1001.036	27.95
1001.199	122.69
1001.361	42.67
1001.524	70.77
1001.687	90.92
1001.849	67.47
1002.012	87.62
1002.174	84.13
1002.337	120.95
1002.499	55.27
1002.661	97.5
1002.824	25.82
1002.986	41.12
1003.149	73.09
1003.311	35.31
1003.473	101.77
1003.636	58.37
1003.798	64.18
1003.96	71.93
1004.123	61.66
1004.285	46.35
1004.447	42.09
1004.609	74.83
1004.771	101.77
1004.933	40.74
1005.096	58.17
1005.258	20.39
1005.42	40.15
1005.582	89.95
1005.744	77.16
1005.906	18.84
1006.068	54.3
1006.23	0.82
1006.392	12.84
1006.554	17.49
1006.716	114.55
1006.878	81.03
1007.04	35.7
1007.202	58.75
1007.363	67.08
1007.525	60.69
1007.687	70.96
1007.849	99.05
1008.011	25.04
1008.172	-9.06
1008.334	36.67
1008.496	67.47
1008.658	23.49
1008.819	33.18
1008.981	-0.34
1009.143	36.67
1009.304	36.47
1009.466	77.35
1009.627	122.3
1009.789	136.64
1009.95	49.65
1010.112	19.62
1010.273	63.6
1010.435	44.03
1010.596	45.58
1010.758	37.05
1010.919	21.17
1011.081	5.09
1011.242	38.41
1011.403	55.85
1011.565	40.15
1011.726	73.28
1011.887	14.58
1012.049	40.35
1012.21	59.14
1012.371	85.1
1012.532	-36.96
1012.693	36.67
1012.855	26.4
1013.016	39.19
1013.177	74.25
1013.338	43.84
1013.499	107.38
1013.66	54.49
1013.821	107.77
1013.982	57.01
1014.143	29.3
1014.304	36.09
1014.465	70.77
1014.626	70.18
1014.787	19.04
1014.948	132.96
1015.109	-18.55
1015.27	72.7
1015.431	23.3
1015.592	52.36
1015.752	81.42
1015.913	54.1
1016.074	60.11
1016.235	66.12
1016.395	34.54
1016.556	36.86
1016.717	54.1
1016.877	82.39
1017.038	1.02
1017.199	59.92
1017.359	54.88
1017.52	34.34
1017.681	7.22
1017.841	33.18
1018.002	26.01
1018.162	17.87
1018.323	74.25
1018.483	8.19
1018.644	44.42
1018.804	19.81
1018.964	19.23
1019.125	35.5
1019.285	31.44
1019.446	-1.11
1019.606	12.64
1019.766	-32.11
1019.926	29.89
1020.087	65.34
1020.247	9.54
1020.407	50.81
1020.567	59.72
1020.728	50.62
1020.888	-13.32
1021.048	3.73
1021.208	8.38
1021.368	15.74
1021.528	48.1
1021.688	40.74
1021.848	52.55
1022.008	37.83
1022.168	11.29
1022.328	34.92
1022.488	70.18
1022.648	13.03
1022.808	14.97
1022.968	46.55
1023.128	28.14
1023.288	26.59
1023.448	13.8
1023.608	39.38
1023.767	55.07
1023.927	-11
1024.087	-10.03
1024.247	11.09
1024.406	22.52
1024.566	13.22
1024.726	-7.51
1024.885	18.84
1025.045	41.9
1025.205	22.91
1025.364	14.19
1025.524	33.37
1025.683	3.34
1025.843	48.87
1026.003	14.39
1026.162	73.28
1026.321	58.17
1026.481	12.25
1026.64	8.77
1026.8	46.74
1026.959	26.01
1027.119	18.45
1027.278	41.9
1027.437	-7.9
1027.597	27.56
1027.756	56.24
1027.915	45.77
1028.074	35.89
1028.234	5.67
1028.393	46.16
1028.552	10.32
1028.711	-73.96
1028.87	62.63
1029.03	-23.39
1029.189	24.07
1029.348	-25.53
1029.507	14.19
1029.666	28.34
1029.825	-4.41
1029.984	-14.29
1030.143	20.59
1030.302	3.54
1030.461	-26.3
1030.62	16.9
1030.779	48.49
1030.938	-10.03
1031.097	-5.76
1031.255	42.87
1031.414	44.22
1031.573	59.34
1031.732	-30.18
1031.891	8.77
1032.049	43.64
1032.208	35.31
1032.367	-3.05
1032.525	-22.62
1032.684	25.43
1032.843	0.44
1033.001	-17.2
1033.16	131.6
1033.319	43.84
1033.477	33.37
1033.636	36.67
1033.794	-32.11
1033.953	30.85
1034.111	24.07
1034.27	1.4
1034.428	14.58
1034.587	8.96
1034.745	30.66
1034.903	16.13
1035.062	38.22
1035.22	-10.03
1035.378	36.09
1035.537	7.02
1035.695	51.39
1035.853	17.87
1036.011	42.09
1036.17	42.29
1036.328	-52.84
1036.486	17.29
1036.644	29.3
1036.802	-54.39
1036.96	-6.54
1037.119	9.15
1037.277	5.28
1037.435	-43.74
1037.593	11.67
1037.751	15.94
1037.909	17.68
1038.067	17.68
