Data from gum_young_FLMT105791__146__17-41-14-039.txt Node

Date: Mon Mar 20 17:41:14 GMT 2023
User: antho
Spectrometer: FLMT10579
Trigger mode: 0
Integration Time (sec): 1.000000E-1
Scans to average: 10
Electric dark correction enabled: true
Nonlinearity correction enabled: false
Boxcar width: 0
XAxis mode: Wavelengths
Number of Pixels in Spectrum: 3648
>>>>>Begin Spectral Data<<<<<
345.248	-155.98
345.464	-155.98
345.681	-155.98
345.898	-148.23
346.114	-167.03
346.331	-10.87
346.548	31.76
346.764	22.65
346.981	-42.06
347.197	-5.44
347.414	23.23
347.631	-45.55
347.847	60.82
348.064	-13.97
348.28	3.47
348.497	-23.85
348.713	-0.21
348.93	24.4
349.146	16.84
349.363	12
349.579	18.97
349.796	-0.79
350.012	-18.23
350.229	23.04
350.445	-4.08
350.661	-9.51
350.878	19.36
351.094	52.3
351.311	18.58
351.527	20.91
351.743	-10.48
351.96	40.48
352.176	43
352.392	40.09
352.609	38.54
352.825	-4.08
353.041	-4.67
353.257	14.71
353.474	-8.93
353.69	3.28
353.906	18.78
354.122	-16.68
354.339	51.33
354.555	0.37
354.771	8.31
354.987	41.83
355.203	66.25
355.42	10.83
355.636	-12.03
355.852	1.53
356.068	15.87
356.284	-26.56
356.5	66.05
356.716	20.91
356.932	23.81
357.148	44.55
357.364	6.38
357.58	32.53
357.796	67.41
358.012	79.81
358.228	34.08
358.444	-25.59
358.66	46.87
358.876	18.78
359.092	13.35
359.308	7.73
359.524	17.81
359.74	12.38
359.956	-0.98
360.172	34.47
360.388	49
360.604	19.55
360.819	79.23
361.035	11.61
361.251	25.17
361.467	12.96
361.683	41.25
361.898	49.58
362.114	43.38
362.33	10.06
362.546	42.8
362.762	7.35
362.977	42.41
363.193	8.31
363.409	36.99
363.624	-15.13
363.84	1.15
364.056	12.58
364.271	53.46
364.487	29.05
364.703	-6.22
364.918	-18.42
365.134	18.58
365.35	11.03
365.565	134.83
365.781	17.81
365.996	53.85
366.212	69.54
366.427	28.27
366.643	21.49
366.858	-2.34
367.074	-8.15
367.289	63.92
367.505	105.58
367.72	-17.07
367.936	7.54
368.151	29.05
368.367	63.92
368.582	8.12
368.798	14.13
369.013	68.76
369.228	26.91
369.444	32.53
369.659	106.16
369.874	42.8
370.09	45.71
370.305	-19
370.52	3.28
370.736	66.25
370.951	19.36
371.166	71.09
371.381	81.75
371.597	44.55
371.812	-8.35
372.027	-1.18
372.242	12.77
372.458	83.49
372.673	17.42
372.888	8.12
373.103	21.49
373.318	103.83
373.533	57.33
373.749	22.85
373.964	-26.75
374.179	61.98
374.394	7.73
374.609	75.35
374.824	-10.67
375.039	42.41
375.254	28.08
375.469	96.28
375.684	28.08
375.899	58.69
376.114	12.19
376.329	23.04
376.544	61.4
376.759	84.65
376.974	5.99
377.189	12.19
377.404	9.48
377.619	62.56
377.834	12.19
378.049	-16.87
378.264	-23.07
378.478	55.78
378.693	-6.41
378.908	46.29
379.123	28.46
379.338	71.28
379.553	38.35
379.767	8.12
379.982	68.38
380.197	77.29
380.412	38.93
380.626	59.46
380.841	128.83
381.056	54.81
381.271	94.34
381.485	28.46
381.7	7.93
381.915	60.24
382.129	26.14
382.344	34.28
382.559	30.79
382.773	64.89
382.988	-4.08
383.202	41.83
383.417	19.94
383.632	99.38
383.846	52.68
384.061	37.57
384.275	23.62
384.49	48.81
384.704	68.57
384.919	46.48
385.133	25.56
385.348	56.36
385.562	19.16
385.777	66.44
385.991	28.08
386.206	44.74
386.42	27.69
386.634	86.59
386.849	59.85
387.063	76.9
387.277	27.3
387.492	37.76
387.706	26.91
387.92	7.35
388.135	74.58
388.349	48.23
388.563	47.84
388.778	56.56
388.992	62.76
389.206	81.94
389.42	89.3
389.635	48.23
389.849	81.55
390.063	60.05
390.277	85.23
390.491	99.57
390.706	84.26
390.92	62.95
391.134	64.89
391.348	94.73
391.562	1.73
391.776	56.36
391.99	41.64
392.205	75.74
392.419	29.63
392.633	54.62
392.847	101.7
393.061	38.93
393.275	100.73
393.489	33.7
393.703	64.7
393.917	91.24
394.131	22.85
394.345	74.38
394.559	81.16
394.773	51.91
394.986	66.63
395.2	70.9
395.414	77.1
395.628	27.5
395.842	48.03
396.056	62.95
396.27	12.58
396.484	106.35
396.697	39.31
396.911	85.81
397.125	54.04
397.339	94.92
397.553	77.68
397.766	108.29
397.98	100.15
398.194	104.99
398.408	74.77
398.621	109.26
398.835	98.21
399.049	86.59
399.262	126.5
399.476	109.45
399.69	103.25
399.903	138.32
400.117	69.93
400.331	117.59
400.544	96.66
400.758	186.76
400.971	113.52
401.185	133.67
401.398	66.44
401.612	143.55
401.826	111.78
402.039	118.94
402.253	81.16
402.466	138.51
402.68	77.1
402.893	134.44
403.106	129.41
403.32	95.69
403.533	119.72
403.747	108.09
403.96	131.73
404.174	109.45
404.387	95.89
404.6	107.32
404.814	149.36
405.027	113.33
405.24	99.18
405.454	80.2
405.667	148.39
405.88	72.83
406.094	113.52
406.307	162.34
406.52	123.59
406.733	88.72
406.947	65.66
407.16	152.46
407.373	112.55
407.586	87.56
407.799	92.6
408.012	143.55
408.226	109.06
408.439	166.8
408.652	72.25
408.865	171.64
409.078	175.52
409.291	116.81
409.504	90.46
409.717	137.35
409.93	143.55
410.143	123.59
410.357	96.08
410.57	85.43
410.783	96.66
410.996	122.24
411.209	118.36
411.421	170.68
411.634	117.01
411.847	115.84
412.06	140.64
412.273	146.84
412.486	148.39
412.699	205.94
412.912	158.86
413.125	156.92
413.338	132.31
413.55	147.62
413.763	115.07
413.976	156.34
414.189	132.51
414.402	135.22
414.615	183.46
414.827	114.68
415.04	151.49
415.253	155.95
415.466	170.09
415.678	247.21
415.891	153.24
416.104	157.11
416.316	143.36
416.529	129.41
416.742	168.54
416.954	159.44
417.167	146.65
417.38	159.63
417.592	160.99
417.805	142.39
418.017	108.68
418.23	171.84
418.442	137.74
418.655	169.51
418.868	185.01
419.08	195.09
419.293	192.76
419.505	162.93
419.718	179.98
419.93	176.1
420.142	159.83
420.355	214.07
420.567	193.92
420.78	167.77
420.992	164.48
421.205	200.32
421.417	125.14
421.629	166.22
421.842	137.16
422.054	123.4
422.266	189.66
422.479	229.96
422.691	165.06
422.903	203.61
423.115	171.45
423.328	164.48
423.54	187.72
423.752	168.74
423.964	150.91
424.177	206.32
424.389	160.6
424.601	285.37
424.813	185.79
425.025	233.06
425.238	210.59
425.45	188.69
425.662	147.43
425.874	452.96
426.086	189.27
426.298	197.22
426.51	214.85
426.722	172.03
426.934	168.54
427.146	218.92
427.358	162.34
427.57	206.71
427.782	193.54
427.994	192.96
428.206	156.34
428.418	144.71
428.63	208.26
428.842	212.52
429.054	200.12
429.266	224.15
429.478	145.1
429.69	186.56
429.902	128.83
430.114	197.22
430.325	192.37
430.537	186.76
430.749	155.76
430.961	141.81
431.173	142.97
431.384	173.19
431.596	100.54
431.808	161.96
432.02	219.89
432.231	249.14
432.443	261.93
432.655	233.06
432.867	184.62
433.078	227.64
433.29	253.79
433.502	224.92
433.713	266.39
433.925	194.7
434.136	257.86
434.348	179.59
434.56	163.31
434.771	303.39
434.983	173
435.194	217.37
435.406	206.32
435.617	262.71
435.829	291.19
436.04	240.81
436.252	236.74
436.463	301.65
436.675	288.28
436.886	276.27
437.098	260.96
437.309	307.46
437.521	250.31
437.732	272.78
437.943	279.37
438.155	234.61
438.366	212.14
438.578	306.49
438.789	255.92
439	275.3
439.211	255.92
439.423	267.74
439.634	270.65
439.845	296.42
440.057	269.29
440.268	307.65
440.479	258.06
440.69	312.11
440.902	235.39
441.113	250.11
441.324	246.04
441.535	296.61
441.746	330.71
441.957	242.17
442.168	278.4
442.38	301.07
442.591	318.5
442.802	272.39
443.013	285.18
443.224	347.76
443.435	278.4
443.646	317.15
443.857	294.87
444.068	294.48
444.279	265.22
444.49	363.84
444.701	311.72
444.912	403.37
445.123	338.07
445.334	313.85
445.545	324.32
445.756	292.93
445.967	275.49
446.178	314.82
446.388	329.55
446.599	353.19
446.81	342.72
447.021	300.29
447.232	322.96
447.443	346.79
447.653	331.87
447.864	346.79
448.075	329.35
448.286	340.59
448.496	340.2
448.707	391.35
448.918	316.37
449.129	428.75
449.339	352.99
449.55	390.19
449.761	318.12
449.971	409.95
450.182	328.39
450.393	383.6
450.603	333.04
450.814	382.05
451.024	375.08
451.235	410.34
451.446	417.9
451.656	411.12
451.867	345.05
452.077	386.7
452.288	416.15
452.498	440.18
452.709	352.8
452.919	375.85
453.13	353.96
453.34	395.03
453.55	339.82
453.761	413.05
453.971	356.67
454.182	406.47
454.392	387.09
454.602	438.43
454.813	401.43
455.023	426.03
455.233	381.28
455.444	405.3
455.654	319.86
455.864	388.64
456.075	354.54
456.285	385.35
456.495	385.54
456.705	408.4
456.916	429.52
457.126	445.21
457.336	428.55
457.546	353.19
457.756	401.04
457.967	443.47
458.177	390.77
458.387	412.67
458.597	384.57
458.807	393.1
459.017	379.92
459.227	422.16
459.437	410.53
459.647	462.65
459.857	438.24
460.068	387.28
460.278	465.17
460.488	445.8
460.698	461.68
460.908	415.57
461.117	414.02
461.327	373.72
461.537	423.71
461.747	428.36
461.957	416.73
462.167	551.58
462.377	458.58
462.587	428.94
462.797	454.32
463.007	422.93
463.216	470.98
463.426	497.72
463.636	466.91
463.846	412.86
464.056	456.26
464.265	485.13
464.475	432.43
464.685	434.56
464.895	480.09
465.104	442.89
465.314	481.83
465.524	426.03
465.733	446.18
465.943	527.56
466.153	521.75
466.362	493.85
466.572	484.55
466.782	470.6
466.991	461.3
467.201	554.1
467.41	423.32
467.62	500.05
467.829	481.25
468.039	517.1
468.249	463.43
468.458	494.23
468.668	501.98
468.877	540.34
469.086	562.24
469.296	520.2
469.505	481.06
469.715	557.78
469.924	514.77
470.134	562.63
470.343	548.68
470.552	507.02
470.762	524.85
470.971	490.75
471.18	489.97
471.39	482.61
471.599	466.33
471.808	535.11
472.018	481.83
472.227	565.14
472.436	595.76
472.645	527.17
472.855	536.28
473.064	587.04
473.273	565.53
473.482	581.61
473.691	589.36
473.901	569.41
474.11	558.94
474.319	647.49
474.528	591.49
474.737	607.96
474.946	594.4
475.155	600.79
475.364	650.59
475.573	625.4
475.783	617.07
475.992	617.46
476.201	644.97
476.41	591.69
476.619	581.42
476.828	606.99
477.037	595.18
477.245	627.14
477.454	645.94
477.663	640.9
477.872	636.44
478.081	710.45
478.29	634.12
478.499	724.79
478.708	697.09
478.917	723.24
479.125	692.24
479.334	680.81
479.543	666.67
479.752	713.17
479.961	664.34
480.169	713.55
480.378	675.19
480.587	785.82
480.796	732.35
481.004	745.14
481.213	748.04
481.422	714.72
481.63	742.62
481.839	784.08
482.048	814.88
482.256	795.32
482.465	798.42
482.674	804.03
482.882	771.87
483.091	836.78
483.299	769.55
483.508	835.62
483.716	791.44
483.925	811.2
484.134	777.88
484.342	770.52
484.551	834.65
484.759	784.47
484.967	860.03
485.176	830
485.384	846.27
485.593	873.4
485.801	824.96
486.01	802.87
486.218	752.89
486.426	730.6
486.635	748.24
486.843	728.67
487.051	782.14
487.26	779.82
487.468	778.46
487.676	817.02
487.885	796.09
488.093	836.58
488.301	877.47
488.509	862.93
488.717	926.68
488.926	869.33
489.134	861
489.342	898
489.55	869.72
489.758	871.27
489.967	885.02
490.175	999.33
490.383	918.93
490.591	1003.79
490.799	917.76
491.007	971.82
491.215	978.99
491.423	950.9
491.631	967.75
491.839	977.63
492.047	981.89
492.255	930.94
492.463	902.65
492.671	939.08
492.879	984.8
493.087	975.31
493.295	936.56
493.503	1017.35
493.711	1050.29
493.919	1021.61
494.127	1035.56
494.334	1052.42
494.542	995.84
494.75	1026.84
494.958	1016.58
495.166	1028.78
495.374	1055.91
495.581	1082.26
495.789	1054.16
495.997	1089.62
496.205	1049.71
496.412	1057.46
496.62	1051.84
496.828	1090.2
497.035	1072.96
497.243	1073.34
497.451	1064.62
497.658	1096.98
497.866	1103.18
498.074	1164.21
498.281	1088.84
498.489	1149.29
498.696	1089.04
498.904	1061.33
499.112	1069.86
499.319	1174.09
499.527	1128.76
499.734	1175.45
499.942	1078.96
500.149	1139.22
500.357	1181.45
500.564	1111.51
500.771	1154.52
500.979	1121.01
501.186	1098.53
501.394	1133.41
501.601	1107.64
501.808	1173.32
502.016	1142.9
502.223	1163.44
502.43	1151.81
502.638	1152.2
502.845	1136.7
503.052	1244.42
503.26	1159.56
503.467	1228.15
503.674	1194.05
503.881	1212.07
504.089	1248.3
504.296	1211.68
504.503	1148.52
504.71	1182.42
504.917	1178.35
505.125	1248.3
505.332	1226.4
505.539	1249.85
505.746	1325.21
505.953	1318.63
506.16	1332.96
506.367	1338.2
506.574	1413.56
506.781	1388.57
506.988	1331.03
507.195	1315.72
507.402	1356.41
507.609	1429.64
507.816	1329.28
508.023	1338.2
508.23	1354.08
508.437	1315.92
508.644	1380.43
508.851	1399.61
509.058	1430.03
509.265	1452.89
509.472	1497.84
509.679	1527.1
509.885	1477.11
510.092	1460.45
510.299	1494.94
510.506	1506.37
510.713	1496.87
510.92	1485.64
511.126	1505.98
511.333	1586
511.54	1556.94
511.746	1623.59
511.953	1611.38
512.16	1664.66
512.367	1604.79
512.573	1607.5
512.78	1623.78
512.987	1600.34
513.193	1625.33
513.4	1575.92
513.606	1615.06
513.813	1637.34
514.02	1617
514.226	1688.3
514.433	1669.31
514.639	1585.61
514.846	1666.02
515.052	1652.26
515.259	1693.53
515.465	1705.54
515.672	1718.33
515.878	1779.55
516.085	1744.68
516.291	1804.16
516.497	1751.46
516.704	1734.6
516.91	1679.38
517.117	1638.5
517.323	1550.35
517.529	1621.26
517.736	1604.02
517.942	1629.01
518.148	1715.62
518.354	1694.69
518.561	1737.32
518.767	1741.19
518.973	1766.96
519.179	1807.45
519.386	1808.81
519.592	1794.28
519.798	1816.56
520.004	1917.5
520.21	1903.74
520.417	2005.46
520.623	2007.4
520.829	2023.48
521.035	2026.97
521.241	2032.59
521.447	2065.91
521.653	2175.77
521.859	2097.49
522.065	2120.55
522.271	2228.27
522.477	2205.8
522.683	2238.93
522.889	2193.78
523.095	2178.87
523.301	2190.68
523.507	2181.97
523.713	2199.21
523.919	2165.69
524.125	2288.14
524.331	2284.26
524.537	2370.67
524.742	2331.93
524.948	2347.81
525.154	2370.09
525.36	2494.48
525.566	2379.59
525.772	2437.52
525.977	2334.64
526.183	2417.76
526.389	2412.52
526.595	2318.56
526.8	2313.33
527.006	2255.2
527.212	2235.05
527.417	2191.85
527.623	2190.1
527.829	2308.29
528.034	2378.04
528.24	2376.1
528.446	2347.43
528.651	2465.8
528.857	2502.04
529.062	2590.19
529.268	2580.89
529.473	2568.88
529.679	2614.41
529.884	2660.91
530.09	2599.88
530.295	2573.14
530.501	2689.97
530.706	2640.37
530.912	2634.17
531.117	2639.6
531.323	2670.98
531.528	2740.15
531.733	2740.34
531.939	2670.6
532.144	2728.14
532.35	2756.81
532.555	2749.26
532.76	2651.8
532.966	2683.96
533.171	2658.2
533.376	2620.03
533.581	2616.35
533.787	2670.4
533.992	2732.21
534.197	2758.17
534.402	2773.67
534.607	2788.98
534.813	2822.11
535.018	2776.58
535.223	2796.92
535.428	2803.12
535.633	2875.77
535.838	2857.56
536.043	2875.58
536.249	2935.06
536.454	2916.46
536.659	2948.62
536.864	2897.28
537.069	2896.7
537.274	2907.94
537.479	2918.01
537.684	2853.3
537.889	2820.75
538.094	2922.85
538.299	2941.07
538.504	3023.22
538.708	2953.66
538.913	2986.02
539.118	2925.57
539.323	2950.17
539.528	2969.74
539.733	2906.58
539.938	2945.91
540.142	2916.85
540.347	2889.14
540.552	2887.01
540.757	2859.5
540.962	2900.19
541.166	2847.29
541.371	2824.82
541.576	2880.42
541.781	2845.16
541.985	2935.25
542.19	2933.12
542.395	3039.3
542.599	3089.48
542.804	2996.09
543.008	3077.46
543.213	3007.33
543.418	2945.52
543.622	3066.03
543.827	2926.92
544.031	3026.9
544.236	3044.72
544.44	3074.17
544.645	3133.26
544.849	3049.37
545.054	3057.12
545.258	3167.17
545.463	3125.13
545.667	3057.32
545.872	3118.54
546.076	3100.13
546.281	3084.44
546.485	3085.41
546.689	3114.08
546.894	3125.32
547.098	3068.36
547.302	3109.63
547.507	3130.55
547.711	3135.4
547.915	3166.59
548.119	3022.05
548.324	3086.38
548.528	3151.28
548.732	3083.08
548.936	3145.47
549.141	3153.03
549.345	3155.93
549.549	3169.49
549.753	3223.94
549.957	3261.52
550.161	3253.77
550.366	3249.51
550.57	3172.79
550.774	3222.97
550.978	3219.29
551.182	3192.36
551.386	3129.78
551.59	3155.93
551.794	3135.98
551.998	3212.7
552.202	3149.35
552.406	3157.48
552.61	3204.76
552.814	3209.6
553.018	3250.29
553.222	3170.46
553.426	3138.69
553.63	3251.84
553.833	3178.79
554.037	3135.78
554.241	3201.66
554.445	3201.46
554.649	3198.36
554.853	3136.95
555.056	3241.57
555.26	3282.06
555.464	3200.88
555.668	3245.25
555.871	3199.91
556.075	3229.36
556.279	3139.46
556.483	3143.15
556.686	3169.11
556.89	3152.64
557.094	3134.81
557.297	3068.16
557.501	3118.15
557.704	3029.42
557.908	3158.64
558.112	3026.12
558.315	3176.28
558.519	3084.05
558.722	3066.23
558.926	3037.94
559.129	2937.58
559.333	2968.77
559.536	2939.13
559.74	2944.75
559.943	2922.27
560.147	2950.75
560.35	2928.09
560.553	2950.37
560.757	2938.55
560.96	2999.19
561.164	2964.7
561.367	3071.46
561.57	3009.65
561.774	2985.24
561.977	2939.32
562.18	2913.36
562.384	3027.09
562.587	2905.8
562.79	2945.52
562.993	2916.27
563.197	2924.4
563.4	2986.98
563.603	2964.12
563.806	3011.59
564.009	2892.05
564.212	2912.39
564.416	2829.66
564.619	2880.81
564.822	2842.84
565.025	2908.9
565.228	2856.98
565.431	2867.83
565.634	2778.9
565.837	2850.59
566.04	2752.55
566.243	2786.26
566.446	2667.3
566.649	2803.12
566.852	2707.99
567.055	2729.88
567.258	2731.24
567.461	2800.99
567.664	2809.12
567.867	2690.16
568.07	2752.74
568.273	2730.85
568.475	2769.6
568.678	2670.98
568.881	2672.15
569.084	2603.37
569.287	2525.29
569.489	2593.48
569.692	2622.93
569.895	2621
570.098	2528.39
570.3	2514.44
570.503	2482.27
570.706	2487.12
570.909	2462.7
571.111	2400.9
571.314	2410.78
571.516	2433.06
571.719	2443.91
571.922	2419.69
572.124	2400.9
572.327	2430.93
572.529	2350.53
572.732	2406.52
572.935	2422.41
573.137	2529.35
573.34	2405.55
573.542	2454.57
573.745	2432.48
573.947	2418.14
574.15	2354.4
574.352	2371.26
574.554	2425.12
574.757	2360.41
574.959	2284.07
575.162	2325.34
575.364	2304.03
575.566	2399.16
575.769	2286.01
575.971	2323.4
576.173	2217.03
576.376	2246.1
576.578	2302.67
576.78	2318.75
576.982	2180.8
577.185	2256.36
577.387	2212.77
577.589	2221.49
577.791	2232.34
577.993	2253.85
578.196	2178.28
578.398	2204.83
578.6	2193.98
578.802	2143.02
579.004	2157.36
579.206	2152.9
579.408	2187.97
579.61	2128.88
579.812	2228.85
580.014	2130.62
580.216	2162.98
580.418	2164.33
580.62	2169.37
580.822	2122.87
581.024	2161.43
581.226	2212.58
581.428	2160.27
581.63	2238.93
581.832	2187.39
582.034	2229.05
582.236	2230.21
582.438	2246.1
582.64	2236.21
582.841	2275.93
583.043	2318.36
583.245	2244.16
583.447	2242.41
583.649	2223.23
583.85	2257.72
584.052	2266.44
584.254	2174.41
584.456	2260.82
584.657	2189.91
584.859	2165.3
585.061	2152.71
585.262	2188.94
585.464	2098.27
585.666	2206.38
585.867	2130.43
586.069	2194.17
586.27	2136.82
586.472	2105.24
586.674	2114.93
586.875	2111.05
587.077	2100.59
587.278	2119.77
587.48	2079.28
587.681	2221.1
587.883	2128.49
588.084	2049.05
588.285	2070.17
588.487	1996.94
588.688	2053.9
588.89	1916.73
589.091	1903.74
589.292	1859.18
589.494	1828.76
589.695	1778.58
589.896	1718.72
590.098	1739.83
590.299	1768.7
590.5	1782.07
590.702	1816.17
590.903	1870.23
591.104	1865.77
591.305	1901.03
591.507	1969.42
591.708	1909.17
591.909	1889.6
592.11	1935.32
592.311	1944.04
592.512	1900.84
592.714	1838.65
592.915	1911.49
593.116	1860.34
593.317	1885.73
593.518	1934.36
593.719	1875.84
593.92	1923.7
594.121	1959.35
594.322	1889.02
594.523	1945.59
594.724	1861.12
594.925	1892.12
595.126	1924.09
595.327	1905.49
595.528	1915.18
595.729	1889.99
595.929	1895.03
596.13	1876.04
596.331	1928.54
596.532	1928.35
596.733	1944.62
596.934	1946.17
597.135	1920.79
597.335	1934.55
597.536	1869.64
597.737	1907.62
597.938	1908.2
598.138	1903.94
598.339	1908.59
598.54	1943.66
598.74	1904.33
598.941	1928.54
599.142	1964.97
599.342	1912.46
599.543	1875.46
599.744	1924.67
599.944	1916.92
600.145	1909.36
600.345	1891.15
600.546	1969.81
600.746	1970.01
600.947	1977.17
601.147	1903.94
601.348	1968.84
601.548	1893.67
601.749	1921.76
601.949	1889.79
602.15	1898.13
602.35	1896.96
602.551	1908.78
602.751	1849.49
602.951	1892.12
603.152	1836.9
603.352	1893.67
603.552	1888.44
603.753	1912.85
603.953	1905.88
604.153	1907.81
604.354	1898.32
604.554	1888.63
604.754	1903.74
604.954	1880.49
605.155	1904.91
605.355	1865.19
605.555	1929.9
605.755	1955.47
605.955	1891.73
606.155	1951.6
606.356	1901.61
606.556	1899.09
606.756	1903.55
606.956	1815.98
607.156	1936.68
607.356	1861.12
607.556	1867.71
607.756	1858.21
607.956	1913.43
608.156	1860.93
608.356	1801.06
608.556	1898.51
608.756	1863.83
608.956	1794.08
609.156	1831.67
609.356	1760.18
609.556	1764.05
609.755	1794.86
609.955	1751.85
610.155	1784.4
610.355	1785.17
610.555	1757.08
610.755	1752.04
610.954	1717.94
611.154	1775.29
611.354	1790.01
611.554	1736.93
611.753	1740.22
611.953	1721.23
612.153	1746.81
612.352	1745.07
612.552	1693.72
612.752	1644.12
612.951	1711.16
613.151	1736.35
613.351	1662.53
613.55	1687.13
613.75	1692.17
613.949	1737.51
614.149	1699.73
614.348	1670.86
614.548	1640.25
614.747	1583.48
614.947	1668.15
615.146	1595.3
615.346	1710.77
615.545	1680.74
615.745	1682.29
615.944	1659.04
616.144	1644.51
616.343	1657.69
616.542	1643.74
616.742	1610.8
616.941	1599.75
617.14	1535.82
617.34	1602.66
617.539	1621.84
617.738	1580.19
617.938	1655.17
618.137	1598.59
618.336	1572.05
618.535	1627.07
618.734	1583.48
618.934	1597.04
619.133	1612.54
619.332	1640.44
619.531	1562.94
619.73	1591.42
619.929	1628.62
620.128	1637.92
620.328	1644.12
620.527	1573.21
620.726	1632.11
620.925	1613.51
621.124	1626.1
621.323	1621.65
621.522	1587.16
621.721	1547.06
621.92	1566.43
622.119	1584.06
622.318	1532.52
622.517	1530.39
622.715	1585.8
622.914	1524.39
623.113	1558.68
623.312	1481.38
623.511	1552.67
623.71	1543.57
623.909	1488.93
624.107	1562.36
624.306	1434.1
624.505	1464.33
624.704	1494.74
624.902	1497.46
625.101	1544.34
625.3	1506.76
625.499	1483.7
625.697	1463.74
625.896	1465.68
626.095	1468.39
626.293	1434.49
626.492	1431.97
626.69	1482.54
626.889	1423.83
627.088	1505.01
627.286	1429.26
627.485	1423.83
627.683	1406.2
627.882	1452.12
628.08	1356.02
628.279	1353.11
628.477	1427.32
628.676	1327.54
628.874	1400.39
629.073	1344.98
629.271	1355.44
629.469	1384.11
629.668	1370.75
629.866	1360.86
630.065	1380.43
630.263	1398.26
630.461	1363.96
630.66	1424.8
630.858	1390.12
631.056	1413.95
631.254	1413.95
631.453	1369.78
631.651	1420.54
631.849	1361.45
632.047	1381.21
632.245	1390.51
632.444	1395.93
632.642	1416.86
632.84	1425.77
633.038	1376.75
633.236	1358.35
633.434	1363.19
633.632	1392.83
633.83	1380.43
634.028	1396.9
634.227	1341.3
634.425	1458.9
634.623	1373.46
634.821	1405.23
635.019	1395.74
635.216	1387.8
635.414	1461.81
635.612	1375.4
635.81	1393.41
636.008	1460.26
636.206	1400
636.404	1387.99
636.602	1355.44
636.8	1374.62
636.997	1402.13
637.195	1431.19
637.393	1374.04
637.591	1426.16
637.789	1386.44
637.986	1383.73
638.184	1393.61
638.382	1417.24
638.58	1405.62
638.777	1456.96
638.975	1381.01
639.173	1397.87
639.37	1368.42
639.568	1361.06
639.765	1388.96
639.963	1331.8
640.161	1389.15
640.358	1388.18
640.556	1289.18
640.753	1315.72
640.951	1311.65
641.148	1315.53
641.346	1284.14
641.543	1305.84
641.741	1298.09
641.938	1257.98
642.136	1313.59
642.333	1256.82
642.531	1321.15
642.728	1331.8
642.925	1312.43
643.123	1234.15
643.32	1315.14
643.517	1257.6
643.715	1250.43
643.912	1282.59
644.109	1269.61
644.306	1293.05
644.504	1255.85
644.701	1242.48
644.898	1281.62
645.095	1204.7
645.293	1266.7
645.49	1250.62
645.687	1216.33
645.884	1254.88
646.081	1157.24
646.278	1203.15
646.475	1200.64
646.672	1176.8
646.87	1209.94
647.067	1192.89
647.264	1203.93
647.461	1143.48
647.658	1123.52
647.855	1183.39
648.052	1142.51
648.249	1058.81
648.446	1116.16
648.642	1156.46
648.839	1090.59
649.036	1080.51
649.233	1053.58
649.43	1089.42
649.627	1072.57
649.824	1068.11
650.021	1051.45
650.217	1068.31
650.414	1051.84
650.611	1110.74
650.808	1122.36
651.004	1121.01
651.201	1134.18
651.398	1149.1
651.595	1105.7
651.791	1044.28
651.988	1108.8
652.185	1041.76
652.381	1129.53
652.578	1042.93
652.775	1083.81
652.971	1084.77
653.168	1080.12
653.364	1111.9
653.561	1031.88
653.757	1091.36
653.954	1090.78
654.15	1064.04
654.347	1138.64
654.543	1071.21
654.74	1017.35
654.936	1016.58
655.133	1019.09
655.329	1019.09
655.525	988.87
655.722	1047.19
655.918	989.26
656.115	981.7
656.311	907.3
656.507	877.08
656.704	854.6
656.9	872.04
657.096	855.57
657.292	880.37
657.489	934.81
657.685	945.86
657.881	923
658.077	927.45
658.273	943.15
658.47	1019.68
658.666	949.54
658.862	998.94
659.058	979.96
659.254	1017.74
659.45	972.98
659.646	968.72
659.842	980.73
660.038	1005.53
660.234	945.66
660.43	984.61
660.626	1060.36
660.822	1033.04
661.018	1017.35
661.214	987.51
661.41	937.33
661.606	992.74
661.802	1010.38
661.998	967.75
662.194	959.23
662.39	974.34
662.586	954.96
662.781	970.66
662.977	965.81
663.173	965.81
663.369	965.62
663.564	937.91
663.76	975.5
663.956	922.03
664.152	985.77
664.347	880.57
664.543	960.58
664.739	941.4
664.934	914.47
665.13	904.01
665.326	952.83
665.521	917.38
665.717	900.71
665.912	903.23
666.108	867
666.304	917.57
666.499	894.32
666.695	833.29
666.89	911.18
667.086	952.06
667.281	937.53
667.477	946.83
667.672	921.25
667.867	884.44
668.063	869.72
668.258	850.15
668.454	857.51
668.649	976.28
668.844	895.48
669.04	931.13
669.235	871.07
669.43	878.24
669.626	852.08
669.821	860.22
670.016	842.01
670.211	871.27
670.407	837.17
670.602	871.85
670.797	852.28
670.992	894.51
671.187	851.31
671.382	892.19
671.578	825.93
671.773	844.92
671.968	838.52
672.163	825.15
672.358	896.84
672.553	837.75
672.748	840.46
672.943	904.2
673.138	855.77
673.333	879.79
673.528	815.66
673.723	869.52
673.918	834.07
674.113	784.47
674.308	915.25
674.503	846.66
674.698	874.95
674.892	857.7
675.087	856.15
675.282	873.59
675.477	834.07
675.672	848.4
675.867	809.65
676.061	810.62
676.256	784.66
676.451	825.54
676.646	839.49
676.84	814.3
677.035	795.51
677.23	793.77
677.424	852.47
677.619	859.06
677.814	864.1
678.008	897.81
678.203	798.42
678.397	820.31
678.592	811.59
678.787	907.88
678.981	831.16
679.176	843.56
679.37	852.08
679.565	809.46
679.759	881.34
679.954	867.78
680.148	871.27
680.342	911.76
680.537	857.12
680.731	860.8
680.926	859.83
681.12	858.28
681.314	819.53
681.509	846.08
681.703	838.91
681.897	858.09
682.092	862.93
682.286	840.65
682.48	908.27
682.674	867.78
682.869	854.02
683.063	877.66
683.257	916.21
683.451	818.37
683.645	880.18
683.839	873.98
684.034	830.38
684.228	902.07
684.422	829.61
684.616	821.86
684.81	850.15
685.004	848.02
685.198	859.25
685.392	880.57
685.586	859.83
685.78	909.43
685.974	914.66
686.168	926.48
686.362	930.75
686.556	814.11
686.75	791.25
686.944	753.27
687.138	760.25
687.331	680.62
687.525	682.56
687.719	641.48
687.913	690.89
688.107	685.66
688.301	659.69
688.494	741.26
688.688	695.92
688.882	677.13
689.076	696.51
689.269	712.59
689.463	812.17
689.657	746.69
689.85	742.81
690.044	781.95
690.238	812.37
690.431	786.4
690.625	809.65
690.818	870.68
691.012	881.73
691.205	915.83
691.399	880.18
691.593	947.41
691.786	965.23
691.98	980.34
692.173	1038.08
692.366	1034.79
692.56	1028.2
692.753	1087.87
692.947	1010.57
693.14	1091.36
693.333	1089.62
693.527	1020.45
693.72	1107.44
693.914	1074.51
694.107	1102.99
694.3	1138.25
694.493	1104.73
694.687	1177.58
694.88	1126.43
695.073	1200.05
695.266	1185.14
695.46	1216.91
695.653	1274.45
695.846	1279.88
696.039	1241.52
696.232	1254.69
696.425	1310.68
696.618	1349.63
696.812	1381.79
697.005	1439.53
697.198	1505.01
697.391	1509.08
697.584	1523.61
697.777	1561.97
697.97	1524.39
698.163	1584.25
698.356	1593.17
698.549	1668.53
698.742	1635.4
698.935	1591.42
699.127	1627.07
699.32	1574.18
699.513	1608.86
699.706	1630.56
699.899	1695.85
700.092	1647.22
700.285	1713.87
700.477	1629.59
700.67	1715.81
700.863	1738.48
701.056	1829.93
701.248	1808.42
701.441	1843.88
701.634	1758.82
701.826	1871.78
702.019	1776.84
702.212	1909.17
702.404	1845.62
702.597	1820.82
702.79	1882.63
702.982	1898.9
703.175	1950.63
703.367	2003.52
703.56	2036.46
703.752	2089.16
703.945	2106.21
704.137	2130.62
704.33	2120.93
704.522	2151.93
704.715	2176.35
704.907	2179.45
705.1	2230.79
705.292	2225.56
705.484	2212
705.677	2297.63
705.869	2304.03
706.061	2335.41
706.254	2368.93
706.446	2318.17
706.638	2365.64
706.831	2425.7
707.023	2393.54
707.215	2512.5
707.407	2489.05
707.599	2473.55
707.792	2529.74
707.984	2557.83
708.176	2587.48
708.368	2542.14
708.56	2602.98
708.752	2597.55
708.944	2590.58
709.136	2614.22
709.329	2637.66
709.521	2759.14
709.713	2738.6
709.905	2752.74
710.097	2782.19
710.289	2720.58
710.481	2753.71
710.672	2779.48
710.864	2850.97
711.056	2862.79
711.248	2859.31
711.44	2857.17
711.632	2882.94
711.824	2942.23
712.016	2939.52
712.207	2974.78
712.399	2988.53
712.591	3042.01
712.783	3036.78
712.975	3047.43
713.166	2996.67
713.358	3021.08
713.55	3058.87
713.741	3075.33
713.933	3093.55
714.125	3057.51
714.316	3063.52
714.508	3149.15
714.7	3156.13
714.891	3112.92
715.083	3170.85
715.274	3142.18
715.466	3147.41
715.657	3190.81
715.849	3069.13
716.04	3177.63
716.232	3068.55
716.423	3074.17
716.615	2978.27
716.806	2865.51
716.998	2804.47
717.189	2742.48
717.381	2659.55
717.572	2559.77
717.763	2584.18
717.955	2570.43
718.146	2489.83
718.337	2402.84
718.528	2399.74
718.72	2269.54
718.911	2355.95
719.102	2306.35
719.293	2358.86
719.485	2337.16
719.676	2269.35
719.867	2218.78
720.058	2244.35
720.249	2260.05
720.44	2315.26
720.632	2390.63
720.823	2403.61
721.014	2604.14
721.205	2637.08
721.396	2715.93
721.587	2874.81
721.778	2894.95
721.969	2940.29
722.16	3028.06
722.351	3085.6
722.542	3221.81
722.733	3197.98
722.924	3130.55
723.115	3203.21
723.305	3095.1
723.496	3115.83
723.687	2955.79
723.878	2979.04
724.069	2972.45
724.26	2989.89
724.45	2871.51
724.641	2875.77
724.832	2865.12
725.023	2861.24
725.213	2855.43
725.404	2821.91
725.595	2834.7
725.785	2823.27
725.976	2894.57
726.167	2907.94
726.357	2843.03
726.548	2995.9
726.739	2893.02
726.929	3012.37
727.12	3033.1
727.31	3029.61
727.501	2963.54
727.691	2919.17
727.882	2997.64
728.072	3013.92
728.263	3059.83
728.453	3084.63
728.644	3099.94
728.834	3044.92
729.024	3041.62
729.215	3006.94
729.405	3042.59
729.596	3103.04
729.786	3156.51
729.976	3200.49
730.167	3135.2
730.357	3121.06
730.547	3194.68
730.737	3181.7
730.928	3203.79
731.118	3279.93
731.308	3172.98
731.498	3175.89
731.688	3298.53
731.879	3323.72
732.069	3375.84
732.259	3483.75
732.449	3550.4
732.639	3588.57
732.829	3613.56
733.019	3688.93
733.209	3753.06
733.399	3742.99
733.589	3856.52
733.779	3886.17
733.969	3880.16
734.159	3952.43
734.349	3997.57
734.539	4059.76
734.729	4071.97
734.919	4036.32
735.109	4130.67
735.299	4073.13
735.488	4090.38
735.678	4092.51
735.868	4082.82
736.058	4096.38
736.248	4057.63
736.437	4035.16
736.627	4020.82
736.817	4126.99
737.007	4052.59
737.196	4173.3
737.386	4145.4
737.576	4165.74
737.765	4178.72
737.955	4164
738.144	4273.47
738.334	4254.67
738.524	4174.85
738.713	4267.85
738.903	4219.8
739.092	4211.85
739.282	4231.62
739.471	4280.83
739.661	4255.84
739.85	4331.4
740.04	4290.52
740.229	4403.86
740.419	4373.83
740.608	4415.68
740.797	4379.25
740.987	4393.59
741.176	4401.73
741.365	4390.68
741.555	4331.01
741.744	4449.78
741.933	4402.5
742.123	4429.24
742.312	4448.61
742.501	4482.71
742.69	4509.45
742.88	4409.67
743.069	4574.94
743.258	4497.24
743.447	4521.27
743.636	4513.91
743.825	4508.48
744.014	4486.01
744.204	4600.51
744.393	4462.56
744.582	4629.38
744.771	4592.76
744.96	4562.34
745.149	4605.55
745.338	4551.3
745.527	4553.04
745.716	4532.12
745.905	4508.68
746.094	4606.13
746.283	4594.89
746.471	4573.39
746.66	4624.15
746.849	4577.26
747.038	4639.45
747.227	4542.78
747.416	4588.31
747.604	4538.9
747.793	4531.73
747.982	4550.53
748.171	4584.62
748.359	4613.11
748.548	4568.16
748.737	4535.8
748.926	4566.8
749.114	4429.82
749.303	4573.19
749.491	4470.7
749.68	4462.18
749.869	4565.83
750.057	4554.01
750.246	4514.88
750.434	4515.26
750.623	4526.11
750.811	4486.78
751	4527.08
751.188	4473.99
751.377	4490.46
751.565	4468.57
751.754	4456.95
751.942	4471.28
752.131	4551.88
752.319	4419.16
752.507	4403.28
752.696	4467.79
752.884	4454.81
753.072	4406.18
753.261	4530.76
753.449	4449.2
753.637	4407.93
753.825	4498.79
754.014	4459.46
754.202	4447.06
754.39	4476.51
754.578	4405.02
754.766	4381.19
754.955	4362.4
755.143	4441.06
755.331	4393.78
755.519	4419.36
755.707	4365.69
755.895	4325
756.083	4362.01
756.271	4354.45
756.459	4329.07
756.647	4355.81
756.835	4334.3
757.023	4296.33
757.211	4293.81
757.399	4306.6
757.587	4325.2
757.775	4239.56
757.963	4255.84
758.151	4298.46
758.339	4207.2
758.526	4188.8
758.714	4197.32
758.902	4115.37
759.09	3973.74
759.278	3760.04
759.465	3445.58
759.653	3010.62
759.841	2697.72
760.028	2289.3
760.216	1985.7
760.404	1830.31
760.591	1514.7
760.779	1274.65
760.967	1116.94
761.154	940.43
761.342	952.64
761.529	945.47
761.717	966.4
761.905	958.06
762.092	1033.63
762.28	987.51
762.467	974.92
762.655	886.38
762.842	908.08
763.029	881.73
763.217	903.81
763.404	884.25
763.592	934.62
763.779	864.87
763.966	949.35
764.154	985.19
764.341	1051.06
764.528	1053.97
764.716	1101.05
764.903	1189.4
765.09	1310.3
765.277	1345.56
765.465	1525.74
765.652	1623.59
765.839	1704.38
766.026	1862.86
766.213	1922.73
766.4	2073.47
766.588	2271.86
766.775	2358.86
766.962	2461.15
767.149	2590.77
767.336	2744.41
767.523	2733.37
767.71	2909.68
767.897	3023.22
768.084	3168.33
768.271	3238.66
768.458	3271.21
768.645	3394.24
768.832	3369.05
769.019	3414.39
769.206	3461.86
769.392	3551.18
769.579	3627.13
769.766	3614.92
769.953	3626.74
770.14	3642.24
770.327	3703.85
770.513	3728.84
770.7	3797.82
770.887	3701.33
771.073	3701.72
771.26	3757.32
771.447	3723.61
771.634	3731.56
771.82	3829.4
772.007	3707.14
772.193	3774.95
772.38	3807.31
772.567	3759.26
772.753	3761.59
772.94	3807.12
773.126	3808.28
773.313	3853.23
773.499	3786
773.686	3804.6
773.872	3782.12
774.059	3778.64
774.245	3698.42
774.432	3772.63
774.618	3657.16
774.804	3713.34
774.991	3715.67
775.177	3774.76
775.363	3711.41
775.55	3764.11
775.736	3679.82
775.922	3694.16
776.109	3704.82
776.295	3725.55
776.481	3717.02
776.667	3699.78
776.853	3698.23
777.04	3673.43
777.226	3693.19
777.412	3749.38
777.598	3640.11
777.784	3645.92
777.97	3624.22
778.156	3652.31
778.342	3660.45
778.528	3616.47
778.715	3584.7
778.901	3576.56
779.087	3632.55
779.272	3591.28
779.458	3539.94
779.644	3572.1
779.83	3595.35
780.016	3631.19
780.202	3587.6
780.388	3560.48
780.574	3447.33
780.76	3515.91
780.946	3576.56
781.131	3505.65
781.317	3520.95
781.503	3447.33
781.689	3497.32
781.874	3603.88
782.06	3457.4
782.246	3490.53
782.432	3464.18
782.617	3497.7
782.803	3543.62
782.989	3470.77
783.174	3440.55
783.36	3386.88
783.545	3393.66
783.731	3418.27
783.916	3336.31
784.102	3412.26
784.288	3398.12
784.473	3354.33
784.659	3336.31
784.844	3396.95
785.029	3345.22
785.215	3339.41
785.4	3274.12
785.586	3379.32
785.771	3269.27
785.956	3313.64
786.142	3265.98
786.327	3333.99
786.512	3233.24
786.698	3270.24
786.883	3200.88
787.068	3262.49
787.254	3245.64
787.439	3252.22
787.624	3150.9
787.809	3168.53
787.994	3150.31
788.18	3219.87
788.365	3109.82
788.55	3125.51
788.735	3105.56
788.92	3136.56
789.105	3132.1
789.29	3104.78
789.475	3065.65
789.66	3071.07
789.845	3053.25
790.03	3017.98
790.215	3079.01
790.4	3071.85
790.585	3071.65
790.77	3017.98
790.955	2979.43
791.14	3017.02
791.325	3053.05
791.51	2931.38
791.695	3021.86
791.879	2998.22
792.064	2966.45
792.249	3066.81
792.434	2971.29
792.618	2992.02
792.803	3051.31
792.988	2981.95
793.173	2991.63
793.357	3051.31
793.542	2961.02
793.727	3010.04
793.911	3031.55
794.096	3026.12
794.281	3046.85
794.465	3114.08
794.65	3023.6
794.834	3122.8
795.019	3116.99
795.203	3111.37
795.388	3123.58
795.572	3137.33
795.757	3110.01
795.941	3089.09
796.126	3018.95
796.31	2980.01
796.494	3027.87
796.679	3000.93
796.863	3007.91
797.048	3070.49
797.232	3039.3
797.416	3076.11
797.601	3071.46
797.785	3085.99
797.969	3108.66
798.153	3067.2
798.338	3109.05
798.522	3131.52
798.706	3119.31
798.89	3113.7
799.074	3226.26
799.258	3142.95
799.443	3102.07
799.627	3125.51
799.811	3131.33
799.995	3071.85
800.179	3060.42
800.363	3080.56
800.547	3105.17
800.731	3097.61
800.915	3052.08
801.099	3053.25
801.283	3060.61
801.467	3062.93
801.651	3007.33
801.835	3082.5
802.019	3064.1
802.202	3105.17
802.386	2952.69
802.57	3001.32
802.754	3032.9
802.938	2991.63
803.121	3010.04
803.305	3097.03
803.489	3033.87
803.673	3053.25
803.856	3054.8
804.04	3024.57
804.224	3044.72
804.407	3009.85
804.591	3017.6
804.775	3002.87
804.958	3041.43
805.142	3123.77
805.326	3044.92
805.509	3072.23
805.693	3083.66
805.876	3101.1
806.06	3062.55
806.243	3076.3
806.427	3149.35
806.61	3140.05
806.794	3089.48
806.977	3120.48
807.16	3096.84
807.344	3117.38
807.527	3074.95
807.71	3038.72
807.894	3090.45
808.077	3075.72
808.26	3026.51
808.444	3033.48
808.627	3112.15
808.81	3019.15
808.993	2979.82
809.177	2974.97
809.36	3012.75
809.543	2997.25
809.726	2910.45
809.909	2913.75
810.092	2892.05
810.276	2896.7
810.459	2864.73
810.642	2875
810.825	2794.4
811.008	2827.14
811.191	2750.03
811.374	2770.76
811.557	2750.03
811.74	2780.45
811.923	2718.64
812.106	2693.26
812.289	2621
812.472	2682.8
812.654	2646.38
812.837	2584.77
813.02	2586.9
813.203	2543.69
813.386	2369.51
813.569	2329.41
813.751	2296.28
813.934	2302.09
814.117	2266.44
814.3	2233.11
814.482	2178.48
814.665	2126.75
814.848	2099.62
815.03	2031.81
815.213	2051.77
815.396	2019.02
815.578	1998.49
815.761	1922.34
815.943	2018.44
816.126	1891.34
816.309	1921.96
816.491	1825.86
816.674	1730.34
816.856	1798.73
817.039	1780.13
817.221	1911.69
817.403	1804.16
817.586	1883.59
817.768	1828.18
817.951	1757.85
818.133	1761.15
818.315	1815.59
818.498	1814.04
818.68	1865.77
818.862	1884.76
819.045	1912.66
819.227	1884.76
819.409	1828.38
819.591	1879.53
819.774	1853.56
819.956	1829.35
820.138	1923.89
820.32	1872.94
820.502	1980.27
820.684	2057.58
820.866	2077.15
821.048	2127.13
821.231	2137.98
821.413	2134.88
821.595	2089.16
821.777	2129.65
821.959	2137.79
822.141	2163.95
822.323	2021.15
822.505	1960.12
822.686	1878.75
822.868	1801.06
823.05	1662.72
823.232	1629.2
823.414	1559.65
823.596	1653.42
823.778	1599.17
823.96	1672.41
824.141	1653.04
824.323	1742.35
824.505	1788.27
824.687	1875.65
824.868	1907.81
825.05	2024.06
825.232	2029.68
825.413	2127.52
825.595	2088.39
825.777	2016.12
825.958	2073.47
826.14	2063.97
826.321	2087.61
826.503	2060.29
826.685	2106.98
826.866	2117.06
827.048	2137.4
827.229	1980.27
827.411	1986.09
827.592	1915.18
827.773	1908.78
827.955	1869.06
828.136	1866.74
828.318	1867.32
828.499	1905.1
828.68	1814.62
828.862	1823.73
829.043	1877.39
829.224	1808.81
829.406	1771.03
829.587	1809
829.768	1844.65
829.949	1854.14
830.131	1869.84
830.312	1898.32
830.493	1859.38
830.674	1865.58
830.855	1810.55
831.036	1884.95
831.218	1910.91
831.399	1930.67
831.58	1887.47
831.761	1878.94
831.942	1865.96
832.123	1868.29
832.304	1815.2
832.485	1838.45
832.666	1870.42
832.847	1895.99
833.028	1870.42
833.209	1877.2
833.389	1853.18
833.57	1759.21
833.751	1817.72
833.932	1878.17
834.113	1863.25
834.294	1862.67
834.475	1879.72
834.655	1972.91
834.836	1944.43
835.017	1928.74
835.198	1873.71
835.378	1926.03
835.559	1973.49
835.74	1883.59
835.92	1899.29
836.101	1919.24
836.281	1914.21
836.462	1958.19
836.643	1936.68
836.823	1948.69
837.004	1985.12
837.184	2054.09
837.365	1996.36
837.545	2010.5
837.726	1939.39
837.906	2021.93
838.087	1970.39
838.267	1984.15
838.448	1926.41
838.628	2013.6
838.808	1929.51
838.989	2020.77
839.169	1918.66
839.349	1979.31
839.53	1994.03
839.71	2002.94
839.89	1938.04
840.07	2040.34
840.251	1958.57
840.431	2037.62
840.611	1981.05
840.791	1951.21
840.971	1979.31
841.151	1959.74
841.332	1899.68
841.512	1997.52
841.692	1910.14
841.872	1959.74
842.052	1902.19
842.232	1985.12
842.412	1921.96
842.592	1975.04
842.772	1964.77
842.952	1962.64
843.132	1929.13
843.312	1913.82
843.492	1892.31
843.672	1956.44
843.851	1886.31
844.031	1910.72
844.211	1904.13
844.391	1875.65
844.571	1914.4
844.751	1926.8
844.93	1913.04
845.11	1862.09
845.29	1913.63
845.47	1937.26
845.649	1917.11
845.829	1916.34
846.009	1876.43
846.188	1927.38
846.368	1935.13
846.547	1924.86
846.727	1928.54
846.907	1871
847.086	1897.93
847.266	1930.48
847.445	1893.67
847.625	1889.79
847.804	1875.26
847.984	1883.21
848.163	1854.73
848.343	1843.29
848.522	1858.41
848.701	1881.27
848.881	1830.51
849.06	1858.21
849.239	1827.99
849.419	1858.02
849.598	1774.9
849.777	1785.36
849.957	1774.51
850.136	1681.32
850.315	1699.53
850.494	1688.49
850.674	1680.74
850.853	1759.98
851.032	1737.12
851.211	1772.58
851.39	1746.81
851.569	1666.02
851.748	1688.3
851.927	1759.79
852.107	1743.32
852.286	1677.83
852.465	1684.23
852.644	1734.41
852.823	1722.2
853.002	1717.36
853.181	1715.03
853.359	1717.94
853.538	1671.44
853.717	1724.14
853.896	1610.02
854.075	1548.41
854.254	1502.69
854.433	1448.24
854.611	1496.87
854.79	1445.92
854.969	1517.8
855.148	1507.92
855.327	1463.36
855.505	1549.57
855.684	1543.37
855.863	1549.57
856.041	1543.76
856.22	1581.15
856.399	1590.07
856.577	1664.08
856.756	1609.64
856.934	1734.41
857.113	1729.57
857.291	1666.79
857.47	1653.04
857.648	1660.01
857.827	1646.84
858.005	1682.48
858.184	1651.87
858.362	1713.48
858.541	1616.42
858.719	1645.67
858.898	1608.86
859.076	1623.59
859.254	1709.8
859.433	1631.14
859.611	1606.54
859.789	1596.85
859.967	1659.43
860.146	1677.45
860.324	1578.64
860.502	1592.97
860.68	1570.89
860.859	1557.71
861.037	1590.45
861.215	1564.3
861.393	1600.92
861.571	1573.21
861.749	1578.64
861.927	1559.46
862.105	1597.82
862.283	1600.14
862.461	1555
862.639	1539.69
862.817	1527.29
862.995	1572.44
863.173	1573.21
863.351	1567.79
863.529	1530.01
863.707	1598.4
863.885	1563.33
864.063	1482.73
864.241	1516.06
864.418	1589.49
864.596	1534.27
864.774	1478.47
864.952	1533.69
865.129	1536.59
865.307	1494.94
865.485	1441.46
865.663	1527.68
865.84	1429.26
866.018	1425.19
866.196	1274.45
866.373	1330.25
866.551	1284.72
866.728	1254.88
866.906	1305.26
867.084	1346.91
867.261	1351.56
867.439	1333.74
867.616	1399.81
867.794	1348.46
867.971	1444.37
868.149	1382.56
868.326	1443.4
868.503	1443.21
868.681	1412.59
868.858	1407.56
869.035	1396.32
869.213	1432.16
869.39	1390.12
869.567	1470.33
869.745	1407.36
869.922	1405.62
870.099	1408.53
870.276	1451.54
870.454	1422.86
870.631	1387.6
870.808	1428.29
870.985	1425.58
871.162	1484.48
871.339	1448.83
871.517	1347.69
871.694	1350.21
871.871	1391.48
872.048	1356.6
872.225	1355.63
872.402	1383.92
872.579	1356.99
872.756	1362.41
872.933	1351.76
873.11	1353.11
873.287	1374.62
873.463	1339.36
873.64	1347.5
873.817	1354.47
873.994	1322.11
874.171	1269.22
874.348	1353.5
874.524	1262.25
874.701	1327.35
874.878	1286.66
875.055	1299.06
875.231	1319.98
875.408	1314.95
875.585	1257.02
875.762	1284.72
875.938	1255.66
876.115	1261.47
876.291	1294.6
876.468	1261.86
876.645	1217.49
876.821	1251.4
876.998	1226.6
877.174	1247.33
877.351	1235.12
877.527	1236.87
877.704	1266.12
877.88	1268.25
878.057	1264.18
878.233	1281.43
878.409	1227.57
878.586	1223.11
878.762	1226.4
878.938	1225.05
879.115	1194.82
879.291	1237.83
879.467	1179.52
879.644	1201.02
879.82	1236.28
879.996	1215.55
880.172	1143.09
880.349	1181.26
880.525	1228.34
880.701	1158.59
880.877	1173.9
881.053	1196.76
881.229	1165.37
881.405	1215.94
881.581	1140.38
881.757	1155.49
881.933	1184.55
882.109	1203.15
882.285	1225.82
882.461	1112.29
882.637	1204.51
882.813	1139.99
882.989	1190.17
883.165	1232.99
883.341	1149.29
883.517	1221.95
883.693	1182.42
883.869	1195.6
884.044	1159.37
884.22	1207.22
884.396	1214.2
884.572	1197.92
884.747	1250.23
884.923	1177.97
885.099	1201.99
885.275	1207.8
885.45	1179.9
885.626	1158.59
885.801	1152.2
885.977	1137.09
886.153	1138.44
886.328	1166.34
886.504	1115.97
886.679	1165.95
886.855	1130.11
887.03	1150.45
887.206	1178.94
887.381	1160.34
887.557	1196.57
887.732	1168.67
887.908	1187.27
888.083	1169.64
888.258	1159.56
888.434	1162.85
888.609	1164.99
888.784	1181.84
888.96	1163.24
889.135	1120.62
889.31	1125.46
889.485	1165.76
889.661	1150.84
889.836	1227.18
890.011	1191.34
890.186	1128.76
890.361	1121.01
890.537	1151.04
890.712	1164.02
890.887	1145.61
891.062	1162.85
891.237	1200.25
891.412	1100.27
891.587	1137.67
891.762	1169.44
891.937	1173.32
892.112	1116.36
892.287	1125.46
892.462	1073.92
892.637	1043.51
892.812	1080.9
892.987	1079.93
893.161	1041.57
893.336	1007.47
893.511	1065.79
893.686	1056.68
893.861	1060.36
894.035	1040.21
894.21	1001.08
894.385	1022.78
894.56	996.04
894.734	947.41
894.909	916.02
895.084	941.98
895.258	932.49
895.433	922.41
895.608	921.06
895.782	871.85
895.957	859.64
896.131	855.96
896.306	784.27
896.48	807.72
896.655	803.07
896.829	740.49
897.004	721.3
897.178	786.21
897.353	731.57
897.527	778.65
897.701	742.42
897.876	690.31
898.05	787.37
898.224	769.35
898.399	805.39
898.573	749.79
898.747	614.16
898.921	669.19
899.096	563.79
899.27	607.58
899.444	618.62
899.618	670.74
899.792	646.52
899.967	656.59
900.141	694.57
900.315	630.24
900.489	641.29
900.663	665.51
900.837	655.82
901.011	575.8
901.185	679.46
901.359	610.87
901.533	662.79
901.707	668.41
901.881	668.8
902.055	643.61
902.229	650.01
902.403	695.34
902.576	649.42
902.75	656.79
902.924	769.35
903.098	730.6
903.272	773.42
903.446	787.57
903.619	798.22
903.793	818.95
903.967	803.26
904.14	841.43
904.314	813.72
904.488	840.27
904.661	840.65
904.835	836.39
905.009	861.19
905.182	901.1
905.356	844.33
905.529	867.2
905.703	793.19
905.876	783.5
906.05	783.11
906.223	749.79
906.397	705.03
906.57	673.45
906.744	634.12
906.917	651.75
907.09	648.07
907.264	633.73
907.437	621.14
907.61	587.81
907.784	605.64
907.957	603.7
908.13	586.65
908.304	630.82
908.477	565.92
908.65	621.52
908.823	527.17
908.996	611.26
909.17	536.66
909.343	580.45
909.516	578.9
909.689	548.09
909.862	532.21
910.035	555.07
910.208	551.39
910.381	539.96
910.554	616.49
910.727	554.1
910.9	554.49
911.073	576.77
911.246	612.81
911.419	627.34
911.592	601.76
911.765	588.01
911.938	574.83
912.11	568.24
912.283	552.16
912.456	637.99
912.629	569.21
912.802	538.41
912.974	497.33
913.147	424.68
913.32	420.42
913.493	432.82
913.665	482.8
913.838	503.73
914.01	480.48
914.183	504.7
914.356	506.05
914.528	547.32
914.701	545.19
914.873	549.84
915.046	471.95
915.218	452
915.391	393.29
915.563	420.61
915.736	452.58
915.908	488.61
916.081	499.08
916.253	486.1
916.425	479.31
916.598	506.83
916.77	510.51
916.942	467.11
917.115	416.54
917.287	466.53
917.459	448.51
917.632	394.65
917.804	373.72
917.976	489.78
918.148	459.75
918.32	467.3
918.493	488.61
918.665	504.31
918.837	498.3
919.009	552.16
919.181	538.79
919.353	557.59
919.525	526.2
919.697	518.65
919.869	530.85
920.041	616.1
920.213	636.44
920.385	588.39
920.557	533.37
920.729	581.23
920.901	563.59
921.073	552.94
921.244	507.8
921.416	596.73
921.588	525.04
921.76	491.33
921.932	590.33
922.103	541.7
922.275	570.96
922.447	543.44
922.619	497.33
922.79	516.71
922.962	481.83
923.134	530.27
923.305	473.7
923.477	453.16
923.648	455.1
923.82	468.27
923.991	404.72
924.163	396
924.335	421.97
924.506	422.35
924.677	491.52
924.849	446.38
925.02	461.49
925.192	474.28
925.363	452.38
925.535	467.69
925.706	437.08
925.877	496.17
926.049	438.24
926.22	437.66
926.391	448.7
926.562	477.18
926.734	412.47
926.905	475.63
927.076	394.26
927.247	410.92
927.419	386.51
927.59	365.97
927.761	377.98
927.932	358.03
928.103	392.9
928.274	292.93
928.445	309.2
928.616	326.45
928.787	322.57
928.958	332.84
929.129	312.3
929.3	291.19
929.471	251.27
929.642	243.91
929.813	175.33
929.984	256.12
930.155	187.92
930.326	249.53
930.496	198.57
930.667	163.89
930.838	197.41
931.009	127.66
931.18	164.48
931.35	152.08
931.521	166.8
931.692	113.13
931.863	86.01
932.033	124.76
932.204	148.2
932.374	138.32
932.545	100.73
932.716	101.7
932.886	156.53
933.057	57.14
933.227	74
933.398	154.98
933.568	45.13
933.739	50.36
933.909	43.77
934.08	92.6
934.25	8.51
934.421	20.33
934.591	69.73
934.761	46.29
934.932	11.61
935.102	55.98
935.272	49
935.443	63.15
935.613	29.43
935.783	41.83
935.953	25.56
936.123	181.91
936.294	40.09
936.464	28.85
936.634	49
936.804	5.02
936.974	19.36
937.144	67.21
937.314	64.11
937.484	29.63
937.655	36.21
937.825	96.47
937.995	26.14
938.165	106.54
938.334	21.88
938.504	78.65
938.674	48.81
938.844	75.16
939.014	117.59
939.184	121.85
939.354	151.11
939.524	144.91
939.694	104.8
939.863	87.17
940.033	127.08
940.203	145.29
940.373	123.01
940.542	125.92
940.712	93.76
940.882	125.73
941.051	140.64
941.221	136.77
941.391	137.74
941.56	79.81
941.73	97.44
941.899	170.48
942.069	82.91
942.238	111.97
942.408	76.9
942.577	135.99
942.747	83.3
942.916	43.77
943.086	68.76
943.255	138.32
943.425	83.88
943.594	56.75
943.763	10.64
943.933	49.2
944.102	12
944.271	61.01
944.441	97.05
944.61	59.08
944.779	62.18
944.948	153.24
945.117	45.51
945.287	40.86
945.456	13.93
945.625	58.5
945.794	85.43
945.963	67.02
946.132	98.79
946.301	37.38
946.47	86.98
946.639	18.97
946.808	56.17
946.977	69.93
947.146	125.53
947.315	67.21
947.484	110.42
947.653	82.52
947.822	68.18
947.991	36.6
948.16	153.04
948.329	127.86
948.498	90.85
948.666	69.54
948.835	117.2
949.004	33.5
949.173	82.13
949.341	71.28
949.51	87.75
949.679	125.34
949.847	80.39
950.016	134.64
950.185	120.49
950.353	64.5
950.522	57.33
950.69	105.58
950.859	71.09
951.028	107.71
951.196	80.97
951.365	48.23
951.533	60.82
951.701	103.44
951.87	96.66
952.038	59.08
952.207	69.54
952.375	128.63
952.543	63.15
952.712	47.06
952.88	69.73
953.048	145.68
953.217	84.65
953.385	43.38
953.553	96.47
953.721	44.74
953.89	87.56
954.058	46.68
954.226	34.86
954.394	74.77
954.562	31.18
954.73	49
954.898	51.13
955.067	92.4
955.235	41.25
955.403	91.63
955.571	111.78
955.739	110.81
955.907	55.78
956.075	46.48
956.243	58.11
956.41	93.95
956.578	44.35
956.746	31.56
956.914	75.35
957.082	100.93
957.25	101.7
957.418	64.5
957.585	114.1
957.753	139.09
957.921	91.43
958.089	76.9
958.256	87.36
958.424	76.32
958.592	91.63
958.759	47.06
958.927	105.58
959.095	52.68
959.262	83.1
959.43	84.46
959.597	41.06
959.765	74.77
959.932	54.04
960.1	102.28
960.267	87.95
960.435	65.86
960.602	111.39
960.77	70.31
960.937	59.08
961.104	126.11
961.272	42.41
961.439	67.02
961.606	89.88
961.774	114.1
961.941	55.78
962.108	100.15
962.275	88.91
962.443	121.85
962.61	85.62
962.777	160.02
962.944	119.91
963.111	97.63
963.278	129.21
963.446	90.66
963.613	75.55
963.78	108.29
963.947	138.9
964.114	115.84
964.281	165.83
964.448	113.13
964.615	78.65
964.782	112.16
964.949	131.15
965.116	117.78
965.282	126.69
965.449	94.34
965.616	83.1
965.783	113.91
965.95	114.88
966.117	63.53
966.283	104.99
966.45	95.69
966.617	93.56
966.784	148.98
966.95	148.01
967.117	144.13
967.284	114.1
967.45	74.58
967.617	147.62
967.784	129.21
967.95	187.53
968.117	122.43
968.283	136.96
968.45	192.57
968.616	141.81
968.783	157.11
968.949	122.82
969.116	149.75
969.282	134.44
969.449	134.25
969.615	144.71
969.781	125.14
969.948	130.76
970.114	105.77
970.28	205.74
970.447	121.27
970.613	199.35
970.779	132.89
970.945	133.86
971.112	159.24
971.278	135.03
971.444	129.21
971.61	162.73
971.776	114.49
971.942	143.55
972.108	163.31
972.275	102.09
972.441	130.76
972.607	181.53
972.773	113.13
972.939	133.67
973.105	129.41
973.271	108.29
973.437	129.21
973.602	97.05
973.768	137.54
973.934	107.13
974.1	130.96
974.266	46.48
974.432	131.15
974.598	92.98
974.763	132.12
974.929	96.86
975.095	214.07
975.261	72.64
975.426	68.38
975.592	126.5
975.758	154.21
975.923	48.61
976.089	84.26
976.255	135.03
976.42	118.94
976.586	137.54
976.751	123.98
976.917	197.22
977.082	132.89
977.248	71.28
977.413	50.75
977.579	113.71
977.744	114.29
977.91	85.04
978.075	80.78
978.24	118.36
978.406	154.4
978.571	90.66
978.736	90.66
978.902	135.99
979.067	83.3
979.232	40.48
979.397	86.01
979.563	143.16
979.728	80.78
979.893	92.6
980.058	99.18
980.223	123.21
980.388	108.09
980.554	104.41
980.719	89.69
980.884	118.36
981.049	143.94
981.214	100.73
981.379	112.16
981.544	77.48
981.709	126.5
981.874	95.69
982.039	119.91
982.204	128.63
982.368	101.12
982.533	89.11
982.698	122.24
982.863	133.67
983.028	93.56
983.193	111.19
983.357	119.91
983.522	105.96
983.687	117.01
983.852	104.22
984.016	102.09
984.181	121.27
984.346	110.81
984.51	100.34
984.675	108.68
984.839	104.99
985.004	148.98
985.168	153.04
985.333	117.01
985.498	94.92
985.662	151.11
985.827	130.57
985.991	140.84
986.155	108.48
986.32	134.44
986.484	164.48
986.649	128.63
986.813	76.32
986.977	122.43
987.142	139.29
987.306	75.35
987.47	85.23
987.634	118.36
987.799	106.35
987.963	113.33
988.127	132.12
988.291	191.41
988.455	122.63
988.62	98.02
988.784	139.87
988.948	120.3
989.112	72.06
989.276	104.8
989.44	87.75
989.604	80.2
989.768	87.36
989.932	190.82
990.096	98.99
990.26	81.16
990.424	78.84
990.588	100.34
990.752	156.92
990.915	132.12
991.079	82.71
991.243	85.04
991.407	108.29
991.571	102.67
991.734	115.46
991.898	108.09
992.062	196.64
992.226	117.2
992.389	78.06
992.553	58.3
992.717	67.21
992.88	58.5
993.044	95.89
993.207	80.78
993.371	138.13
993.535	105.19
993.698	101.12
993.862	147.43
994.025	129.6
994.189	81.36
994.352	105.77
994.515	93.37
994.679	151.49
994.842	91.05
995.006	122.82
995.169	59.27
995.332	70.12
995.496	101.89
995.659	51.91
995.822	93.37
995.985	90.66
996.149	126.11
996.312	100.54
996.475	151.49
996.638	72.64
996.801	159.83
996.964	166.22
997.128	107.13
997.291	80.2
997.454	99.38
997.617	36.99
997.78	129.99
997.943	71.28
998.106	141.03
998.269	66.83
998.432	73.41
998.595	96.66
998.758	43.58
998.92	38.54
999.083	43.96
999.246	85.43
999.409	67.99
999.572	31.56
999.735	74.38
999.897	78.26
1000.06	84.65
1000.223	79.61
1000.386	98.21
1000.548	123.79
1000.711	95.5
1000.874	105.38
1001.036	38.35
1001.199	124.95
1001.361	79.81
1001.524	71.28
1001.687	116.23
1001.849	49.39
1002.012	104.22
1002.174	93.37
1002.337	77.29
1002.499	50.16
1002.661	100.15
1002.824	42.41
1002.986	62.18
1003.149	93.95
1003.311	58.11
1003.473	100.73
1003.636	62.95
1003.798	80.2
1003.96	65.86
1004.123	91.24
1004.285	59.85
1004.447	64.7
1004.609	61.98
1004.771	91.63
1004.933	0.95
1005.096	51.71
1005.258	22.07
1005.42	28.27
1005.582	92.01
1005.744	74.19
1005.906	17.23
1006.068	42.61
1006.23	32.53
1006.392	-2.53
1006.554	43.96
1006.716	88.53
1006.878	88.72
1007.04	15.87
1007.202	45.9
1007.363	70.31
1007.525	97.83
1007.687	68.76
1007.849	96.08
1008.011	17.61
1008.172	30.98
1008.334	43.58
1008.496	64.7
1008.658	9.28
1008.819	55.01
1008.981	17.42
1009.143	31.95
1009.304	44.55
1009.466	79.42
1009.627	91.43
1009.789	132.51
1009.95	71.48
1010.112	32.53
1010.273	55.01
1010.435	45.71
1010.596	36.8
1010.758	58.69
1010.919	38.73
1011.081	43.38
1011.242	67.99
1011.403	74
1011.565	49.78
1011.726	78.65
1011.887	13.55
1012.049	29.82
1012.21	79.61
1012.371	117.39
1012.532	-16.48
1012.693	59.27
1012.855	38.15
1013.016	21.1
1013.177	76.32
1013.338	47.45
1013.499	89.5
1013.66	78.45
1013.821	71.48
1013.982	49.58
1014.143	36.21
1014.304	34.86
1014.465	67.21
1014.626	74.96
1014.787	30.79
1014.948	148.2
1015.109	-26.75
1015.27	83.3
1015.431	16.06
1015.592	42.22
1015.752	79.42
1015.913	47.06
1016.074	57.72
1016.235	49.58
1016.395	49.97
1016.556	41.25
1016.717	36.21
1016.877	79.23
1017.038	51.91
1017.199	61.6
1017.359	32.73
1017.52	47.06
1017.681	18.39
1017.841	43.77
1018.002	29.05
1018.162	-3.31
1018.323	91.82
1018.483	31.95
1018.644	32.53
1018.804	-4.28
1018.964	0.18
1019.125	29.63
1019.285	38.93
1019.446	-5.25
1019.606	-11.06
1019.766	-16.1
1019.926	52.3
1020.087	43
1020.247	24.01
1020.407	51.13
1020.567	94.92
1020.728	18.2
1020.888	7.54
1021.048	7.35
1021.208	2.31
1021.368	12.38
1021.528	101.51
1021.688	72.25
1021.848	32.34
1022.008	46.48
1022.168	8.12
1022.328	30.4
1022.488	42.03
1022.648	3.08
1022.808	6.57
1022.968	57.53
1023.128	2.89
1023.288	7.93
1023.448	26.33
1023.608	55.78
1023.767	47.26
1023.927	0.18
1024.087	12.58
1024.247	-0.21
1024.406	11.61
1024.566	-21.91
1024.726	3.28
1024.885	31.37
1025.045	58.69
1025.205	25.17
1025.364	-0.79
1025.524	41.25
1025.683	39.12
1025.843	45.51
1026.003	44.16
1026.162	78.06
1026.321	43.77
1026.481	30.79
1026.64	32.92
1026.8	43.77
1026.959	20.13
1027.119	14.32
1027.278	32.15
1027.437	20.52
1027.597	39.12
1027.756	37.57
1027.915	32.15
1028.074	46.68
1028.234	-11.45
1028.393	33.5
1028.552	21.1
1028.711	-55.43
1028.87	44.74
1029.03	-30.82
1029.189	18
1029.348	-34.12
1029.507	-0.79
1029.666	-26.37
1029.825	5.02
1029.984	16.65
1030.143	25.95
1030.302	1.73
1030.461	-32.57
1030.62	19.16
1030.779	34.66
1030.938	-9.9
1031.097	-11.45
1031.255	29.24
1031.414	54.43
1031.573	58.88
1031.732	-32.95
1031.891	3.86
1032.049	52.49
1032.208	27.5
1032.367	-7.18
1032.525	18.39
1032.684	17.81
1032.843	20.13
1033.001	-35.28
1033.16	130.96
1033.319	63.73
1033.477	33.11
1033.636	-11.06
1033.794	-39.54
1033.953	49.78
1034.111	46.48
1034.27	31.18
1034.428	45.71
1034.587	-14.16
1034.745	27.69
1034.903	40.48
1035.062	28.27
1035.22	0.76
1035.378	36.8
1035.537	-22.1
1035.695	45.13
1035.853	-8.93
1036.011	62.18
1036.17	31.18
1036.328	-25.98
1036.486	6.57
1036.644	28.08
1036.802	-87.98
1036.96	-13.19
1037.119	-3.12
1037.277	-24.04
1037.435	6.77
1037.593	-17.07
1037.751	21.68
1037.909	25.95
1038.067	25.95
