Data from gum_young_FLMT105791__47__17-38-46-044.txt Node

Date: Mon Mar 20 17:38:46 GMT 2023
User: antho
Spectrometer: FLMT10579
Trigger mode: 0
Integration Time (sec): 1.000000E-1
Scans to average: 10
Electric dark correction enabled: true
Nonlinearity correction enabled: false
Boxcar width: 0
XAxis mode: Wavelengths
Number of Pixels in Spectrum: 3648
>>>>>Begin Spectral Data<<<<<
345.248	-142.58
345.464	-142.58
345.681	-142.58
345.898	-140.84
346.114	-122.43
346.331	-14.51
346.548	24.82
346.764	-1.15
346.981	6.41
347.197	-26.53
347.414	9.12
347.631	-39.51
347.847	57.37
348.064	6.6
348.28	38.96
348.497	-57.53
348.713	-4.05
348.93	19.2
349.146	43.8
349.363	-1.73
349.579	15.32
349.796	-4.25
350.012	1.76
350.229	2.34
350.445	17.45
350.661	-11.61
350.878	24.23
351.094	10.09
351.311	22.88
351.527	1.37
351.743	-5.22
351.96	62.02
352.176	-5.41
352.392	12.8
352.609	51.55
352.825	1.18
353.041	24.82
353.257	1.57
353.474	15.9
353.69	20.75
353.906	24.43
354.122	-2.12
354.339	60.66
354.555	11.45
354.771	13.38
354.987	49.62
355.203	64.53
355.42	22.88
355.636	-1.92
355.852	-15.29
356.068	17.65
356.284	-14.51
356.5	56.2
356.716	19.2
356.932	16.68
357.148	44.19
357.364	-11.8
357.58	54.07
357.796	68.41
358.012	46.32
358.228	35.08
358.444	-24.01
358.66	66.08
358.876	24.43
359.092	39.35
359.308	13.19
359.524	14.55
359.74	-10.45
359.956	16.1
360.172	-6.96
360.388	45.16
360.604	5.63
360.819	51.94
361.035	27.92
361.251	39.54
361.467	19.2
361.683	27.92
361.898	33.15
362.114	40.12
362.33	21.72
362.546	34.89
362.762	13
362.977	27.33
363.193	8.54
363.409	48.26
363.624	-0.37
363.84	16.29
364.056	14.35
364.271	38.38
364.487	49.62
364.703	2.73
364.918	-8.51
365.134	30.63
365.35	4.86
365.565	116.07
365.781	26.37
365.996	36.05
366.212	85.65
366.427	28.5
366.643	-10.83
366.858	-2.5
367.074	-16.45
367.289	58.14
367.505	124.98
367.72	10.87
367.936	28.88
368.151	60.66
368.367	42.64
368.582	9.12
368.798	37.6
369.013	61.82
369.228	40.51
369.444	39.35
369.659	65.7
369.874	59.88
370.09	75.97
370.305	-7.35
370.52	22.3
370.736	55.82
370.951	34.89
371.166	58.92
371.381	106
371.597	56.2
371.812	19.2
372.027	21.13
372.242	-2.89
372.458	76.74
372.673	12.03
372.888	-1.34
373.103	50.97
373.318	104.83
373.533	40.7
373.749	39.15
373.964	-12.19
374.179	83.33
374.394	10.67
374.609	78.1
374.824	6.22
375.039	63.18
375.254	14.16
375.469	46.32
375.684	61.05
375.899	60.47
376.114	10.09
376.329	45.16
376.544	63.18
376.759	59.11
376.974	43.03
377.189	21.33
377.404	19
377.619	43.22
377.834	-7.35
378.049	4.28
378.264	14.35
378.478	52.72
378.693	24.23
378.908	60.66
379.123	25.2
379.338	84.3
379.553	33.92
379.767	34.89
379.982	52.91
380.197	48.84
380.412	-2.31
380.626	72.48
380.841	107.35
381.056	66.86
381.271	97.86
381.485	45.74
381.7	5.05
381.915	75.38
382.129	26.37
382.344	36.44
382.559	30.43
382.773	88.56
382.988	5.05
383.202	47.87
383.417	15.13
383.632	83.71
383.846	53.3
384.061	50.2
384.275	49.03
384.49	41.28
384.704	68.41
384.919	41.48
385.133	46.71
385.348	67.44
385.562	14.16
385.777	84.88
385.991	51.55
386.206	38.96
386.42	24.82
386.634	72.28
386.849	65.31
387.063	50.58
387.277	18.42
387.492	20.94
387.706	17.65
387.92	-0.95
388.135	74.42
388.349	52.13
388.563	51.75
388.778	27.92
388.992	89.53
389.206	73.83
389.42	107.55
389.635	41.87
389.849	89.33
390.063	89.14
390.277	74.8
390.491	108.9
390.706	64.92
390.92	84.3
391.134	60.66
391.348	117.81
391.562	-17.23
391.776	66.67
391.99	43.22
392.205	99.6
392.419	37.41
392.633	51.75
392.847	96.7
393.061	40.51
393.275	111.42
393.489	23.46
393.703	56.98
393.917	76.55
394.131	43.8
394.345	75.77
394.559	89.72
394.773	75.19
394.986	86.62
395.2	72.09
395.414	102.7
395.628	46.9
395.842	70.15
396.056	65.89
396.27	36.25
396.484	76.35
396.697	75.97
396.911	117.43
397.125	45.74
397.339	84.3
397.553	87.98
397.766	120.72
397.98	82.75
398.194	114.91
398.408	101.15
398.621	124.98
398.835	120.53
399.049	94.56
399.262	119.95
399.476	133.12
399.69	122.66
399.903	179.04
400.117	125.37
400.331	118.59
400.544	90.11
400.758	209.46
400.971	111.23
401.185	140.87
401.398	75.38
401.612	154.24
401.826	149.78
402.039	153.85
402.253	98.25
402.466	159.66
402.68	140.48
402.893	112.39
403.106	121.69
403.32	100.57
403.533	149.59
403.747	131.18
403.96	127.31
404.174	150.36
404.387	74.42
404.6	124.4
404.814	177.68
405.027	127.5
405.24	130.21
405.454	131.57
405.667	177.29
405.88	87.01
406.094	165.67
406.307	144.36
406.52	139.32
406.733	101.54
406.947	93.79
407.16	203.06
407.373	183.3
407.586	120.14
407.799	142.03
408.012	161.41
408.226	144.75
408.439	203.84
408.652	118.78
408.865	153.27
409.078	179.81
409.291	189.89
409.504	130.21
409.717	166.06
409.93	209.84
410.143	160.63
410.357	109.68
410.57	108.13
410.783	128.47
410.996	137.38
411.209	154.05
411.421	192.99
411.634	174
411.847	147.26
412.06	163.73
412.273	157.15
412.486	150.36
412.699	256.92
412.912	164.7
413.125	180.59
413.338	165.67
413.55	206.74
413.763	198.61
413.976	208.88
414.189	173.61
414.402	159.28
414.615	231.35
414.827	156.95
415.04	211.59
415.253	186.79
415.466	205.97
415.678	254.21
415.891	182.14
416.104	171.29
416.316	182.53
416.529	180.98
416.742	251.11
416.954	229.41
417.167	185.04
417.38	205.39
417.592	201.13
417.805	154.43
418.017	128.66
418.23	213.53
418.442	175.94
418.655	162.76
418.868	192.21
419.08	245.69
419.293	245.11
419.505	211.01
419.718	198.22
419.93	237.74
420.142	166.64
420.355	238.52
420.567	234.64
420.78	201.9
420.992	209.07
421.205	271.07
421.417	146.68
421.629	218.76
421.842	200.74
422.054	164.9
422.266	246.27
422.479	269.13
422.691	207.13
422.903	227.67
423.115	211.98
423.328	194.73
423.54	230.38
423.752	235.81
423.964	213.14
424.177	226.31
424.389	210.81
424.601	329.19
424.813	260.8
425.025	286.18
425.238	277.66
425.45	231.93
425.662	235.42
425.874	471.79
426.086	236
426.298	243.56
426.51	243.75
426.722	239.68
426.934	214.88
427.146	244.53
427.358	210.62
427.57	278.43
427.782	239.88
427.994	250.14
428.206	234.26
428.418	185.63
428.63	242.2
428.842	283.66
429.054	247.63
429.266	270.49
429.478	202.48
429.69	229.03
429.902	223.02
430.114	253.83
430.325	234.64
430.537	184.66
430.749	182.14
430.961	157.15
431.173	178.26
431.384	238.33
431.596	159.08
431.808	241.62
432.02	275.33
432.231	286.57
432.443	313.69
432.655	267.97
432.867	235.03
433.078	300.13
433.29	327.45
433.502	315.82
433.713	314.86
433.925	287.34
434.136	292.96
434.348	252.08
434.56	206.16
434.771	334.04
434.983	232.51
435.194	267.19
435.406	276.49
435.617	357.09
435.829	344.11
436.04	321.83
436.252	329.97
436.463	366.59
436.675	363.49
436.886	338.49
437.098	342.75
437.309	367.17
437.521	312.92
437.732	351.28
437.943	321.64
438.155	315.82
438.366	279.98
438.578	376.66
438.789	317.18
439	332.29
439.211	323.57
439.423	337.72
439.634	345.27
439.845	345.27
440.057	351.09
440.268	352.64
440.479	332.49
440.69	340.04
440.902	318.34
441.113	333.46
441.324	329.39
441.535	354.38
441.746	413.47
441.957	325.51
442.168	339.27
442.38	394.29
442.591	395.65
442.802	322.8
443.013	362.52
443.224	394.68
443.435	353.8
443.646	375.3
443.857	391.19
444.068	377.24
444.279	354.19
444.49	448.93
444.701	405.34
444.912	459
445.123	422.58
445.334	432.85
445.545	401.46
445.756	406.5
445.967	379.76
446.178	381.5
446.388	417.74
446.599	417.15
446.81	415.22
447.021	392.16
447.232	459
447.443	441.76
447.653	422.19
447.864	447.96
448.075	438.08
448.286	450.48
448.496	450.48
448.707	471.21
448.918	422.39
449.129	532.24
449.339	411.92
449.55	456.1
449.761	436.92
449.971	490.39
450.182	497.17
450.393	468.5
450.603	467.14
450.814	512.67
451.024	480.7
451.235	525.46
451.446	554.33
451.656	518.29
451.867	467.92
452.077	450.67
452.288	554.91
452.498	543.67
452.709	484.77
452.919	495.82
453.13	453.38
453.34	502.21
453.55	425.1
453.761	477.22
453.971	491.55
454.182	512.87
454.392	511.7
454.602	543.28
454.813	520.23
455.023	503.76
455.233	470.24
455.444	511.32
455.654	443.7
455.864	502.21
456.075	508.8
456.285	481.48
456.495	511.9
456.705	527.01
456.916	551.03
457.126	567.7
457.336	517.13
457.546	474.31
457.756	518.68
457.967	574.09
458.177	511.51
458.387	539.02
458.597	486.32
458.807	539.41
459.017	503.95
459.227	512.67
459.437	525.65
459.647	563.05
459.857	559.56
460.068	504.34
460.278	560.53
460.488	542.9
460.698	599.86
460.908	535.53
461.117	508.22
461.327	545.41
461.537	588.62
461.747	570.99
461.957	549.48
462.167	643.45
462.377	607.61
462.587	576.41
462.797	611.68
463.007	569.25
463.216	601.8
463.426	651.2
463.636	615.74
463.846	521.78
464.056	539.41
464.265	647.52
464.475	576.03
464.685	608.58
464.895	599.47
465.104	570.99
465.314	626.98
465.524	559.17
465.733	572.35
465.943	647.13
466.153	691.89
466.362	641.9
466.572	609.16
466.782	625.82
466.991	592.5
467.201	638.61
467.41	574.86
467.62	620.2
467.829	637.83
468.039	627.95
468.249	616.71
468.458	637.06
468.668	649.84
468.877	666.7
469.086	702.35
469.296	702.54
469.505	622.91
469.715	692.27
469.924	663.02
470.134	706.61
470.343	666.12
470.552	638.03
470.762	635.51
470.971	623.11
471.18	638.8
471.39	682.39
471.599	662.24
471.808	688.01
472.018	688.98
472.227	733.93
472.436	731.8
472.645	693.05
472.855	686.46
473.064	767.06
473.273	761.83
473.482	743.42
473.691	755.63
473.901	759.7
474.11	705.84
474.319	819.37
474.528	752.72
474.737	806.97
474.946	800.58
475.155	817.24
475.364	838.55
475.573	781.01
475.783	813.17
475.992	815.11
476.201	834.87
476.41	799.22
476.619	754.27
476.828	803.1
477.037	760.47
477.245	804.84
477.454	848.63
477.663	822.09
477.872	822.28
478.081	906.17
478.29	816.08
478.499	951.7
478.708	883.31
478.917	931.17
479.125	887.96
479.334	915.86
479.543	897.07
479.752	904.04
479.961	901.33
480.169	956.74
480.378	897.07
480.587	1030.75
480.796	967.78
481.004	960.03
481.213	958.1
481.422	964.3
481.63	1001.5
481.839	1020.29
482.048	1022.61
482.256	1008.08
482.465	1012.73
482.674	1041.99
482.882	1069.11
483.091	1097.98
483.299	1014.28
483.508	1078.99
483.716	1076.48
483.925	1032.88
484.134	1034.43
484.342	1046.64
484.551	1094.69
484.759	1060.78
484.967	1105.34
485.176	1090.62
485.384	1099.73
485.593	1100.89
485.801	1058.26
486.01	1002.66
486.218	995.3
486.426	935.04
486.635	934.65
486.843	941.05
487.051	995.49
487.26	997.62
487.468	1029.59
487.676	1054.19
487.885	1052.45
488.093	1080.74
488.301	1134.99
488.509	1136.34
488.717	1145.64
488.926	1148.74
489.134	1124.91
489.342	1187.49
489.55	1112.9
489.758	1162.11
489.967	1186.52
490.175	1282.24
490.383	1242.71
490.591	1334.93
490.799	1212.87
491.007	1290.57
491.215	1235.35
491.423	1259.95
491.631	1249.49
491.839	1274.1
492.047	1249.69
492.255	1196.6
492.463	1189.24
492.671	1205.71
492.879	1297.35
493.087	1236.51
493.295	1284.95
493.503	1289.99
493.711	1351.6
493.919	1327.38
494.127	1329.9
494.334	1346.75
494.542	1317.5
494.75	1358.77
494.958	1336.68
495.166	1428.9
495.374	1413.01
495.581	1427.55
495.789	1418.05
495.997	1446.53
496.205	1369.23
496.412	1392.48
496.62	1426.38
496.828	1391.9
497.035	1406.43
497.243	1433.75
497.451	1422.31
497.658	1425.8
497.866	1435.3
498.074	1514.15
498.281	1411.85
498.489	1512.79
498.696	1425.03
498.904	1430.65
499.112	1396.55
499.319	1518.61
499.527	1485.86
499.734	1531.39
499.942	1418.44
500.149	1484.89
500.357	1531.2
500.564	1484.51
500.771	1486.83
500.979	1467.26
501.186	1447.5
501.394	1494.19
501.601	1482.38
501.808	1500.59
502.016	1495.74
502.223	1495.16
502.43	1530.81
502.638	1546.7
502.845	1540.5
503.052	1621.87
503.26	1545.93
503.467	1615.48
503.674	1575.76
503.881	1584.87
504.089	1630.59
504.296	1580.8
504.503	1544.18
504.71	1585.26
504.917	1573.63
505.125	1620.91
505.332	1611.02
505.539	1663.34
505.746	1727.47
505.953	1752.85
506.16	1738.51
506.367	1792.37
506.574	1761.37
506.781	1786.17
506.988	1719.14
507.195	1749.94
507.402	1769.51
507.609	1793.53
507.816	1714.1
508.023	1733.67
508.23	1746.26
508.437	1716.62
508.644	1782.68
508.851	1810.58
509.058	1862.12
509.265	1831.12
509.472	1842.55
509.679	1967.52
509.885	1857.66
510.092	1878.2
510.299	1859.41
510.506	1866
510.713	1892.73
510.92	1916.56
511.126	1965.97
511.333	1976.82
511.54	1978.37
511.746	1998.71
511.953	2051.22
512.16	2055.48
512.367	1993.68
512.573	2044.44
512.78	1991.16
512.987	2009.56
513.193	2056.06
513.4	1969.07
513.606	2026.61
513.813	2081.44
514.02	2031.26
514.226	2073.31
514.433	2109.15
514.639	2024.87
514.846	2068.27
515.052	2052.96
515.259	2100.62
515.465	2120.39
515.672	2126
515.878	2209.7
516.085	2180.83
516.291	2227.72
516.497	2175.99
516.704	2097.72
516.91	2029.91
517.117	1999.88
517.323	1934.58
517.529	1982.24
517.736	1965.97
517.942	2015.96
518.148	2065.94
518.354	2105.66
518.561	2133.95
518.767	2111.09
518.973	2147.51
519.179	2220.75
519.386	2239.15
519.592	2216.29
519.798	2177.35
520.004	2350.56
520.21	2363.73
520.417	2405.97
520.623	2416.24
520.829	2461.77
521.035	2451.5
521.241	2467.97
521.447	2512.53
521.653	2617.15
521.859	2519.7
522.065	2559.61
522.271	2622.58
522.477	2621.22
522.683	2636.72
522.889	2585.77
523.095	2591.19
523.301	2577.63
523.507	2593.32
523.713	2590.22
523.919	2595.07
524.125	2719.84
524.331	2724.68
524.537	2789.98
524.742	2786.88
524.948	2795.21
525.154	2826.4
525.36	2896.73
525.566	2807.03
525.772	2869.41
525.977	2826.59
526.183	2805.09
526.389	2861.66
526.595	2781.84
526.8	2730.88
527.006	2638.66
527.212	2624.32
527.417	2607.66
527.623	2616.38
527.829	2672.18
528.034	2758.59
528.24	2731.46
528.446	2842.09
528.651	2960.09
528.857	2945.94
529.062	3016.08
529.268	2988.95
529.473	3029.64
529.679	3103.65
529.884	3115.86
530.09	3105.01
530.295	3066.45
530.501	3076.92
530.706	3108.3
530.912	3102.88
531.117	3106.17
531.323	3137.56
531.528	3192.97
531.733	3153.45
531.939	3206.34
532.144	3182.51
532.35	3151.51
532.555	3205.76
532.76	3150.15
532.966	3136.01
533.171	3107.14
533.376	3029.84
533.581	3051.34
533.787	3105.4
533.992	3181.93
534.197	3145.5
534.402	3179.41
534.607	3202.27
534.813	3216.03
535.018	3241.02
535.223	3215.45
535.428	3245.09
535.633	3325.49
535.838	3320.07
536.043	3356.88
536.249	3452.01
536.454	3334.02
536.659	3351.65
536.864	3321.42
537.069	3306.89
537.274	3333.24
537.479	3319.1
537.684	3345.26
537.889	3240.24
538.094	3423.53
538.299	3372.77
538.504	3403.38
538.708	3375.29
538.913	3427.6
539.118	3396.02
539.323	3389.24
539.528	3330.34
539.733	3340.02
539.938	3388.07
540.142	3380.32
540.347	3340.02
540.552	3258.84
540.757	3237.14
540.962	3308.25
541.166	3254.19
541.371	3233.08
541.576	3283.45
541.781	3239.86
541.985	3357.85
542.19	3338.47
542.395	3473.32
542.599	3477
542.804	3446.97
543.008	3466.35
543.213	3408.03
543.418	3365.41
543.622	3434.19
543.827	3353.97
544.031	3471.77
544.236	3495.22
544.44	3471
544.645	3572.52
544.849	3483.79
545.054	3498.32
545.258	3552.18
545.463	3552.76
545.667	3470.61
545.872	3514.98
546.076	3539.97
546.281	3558.18
546.485	3489.21
546.689	3527.96
546.894	3535.52
547.098	3553.34
547.302	3537.26
547.507	3537.65
547.711	3541.13
547.915	3552.95
548.119	3473.71
548.324	3479.72
548.528	3537.84
548.732	3487.08
548.936	3567.1
549.141	3624.45
549.345	3513.43
549.549	3607.2
549.753	3582.79
549.957	3665.13
550.161	3661.06
550.366	3608.56
550.57	3608.17
550.774	3605.07
550.978	3610.69
551.182	3613.98
551.386	3585.89
551.59	3580.08
551.794	3624.45
551.998	3658.74
552.202	3604.1
552.406	3601.39
552.61	3645.76
552.814	3626.96
553.018	3680.24
553.222	3616.11
553.426	3574.27
553.63	3676.95
553.833	3667.84
554.037	3587.83
554.241	3589.38
554.445	3640.14
554.649	3637.62
554.853	3604.88
555.056	3670.17
555.26	3673.85
555.464	3632.39
555.668	3637.23
555.871	3679.66
556.075	3694.19
556.279	3565.93
556.483	3522.15
556.686	3536.87
556.89	3590.93
557.094	3580.08
557.297	3501.22
557.501	3589.76
557.704	3473.52
557.908	3541.13
558.112	3509.17
558.315	3582.4
558.519	3503.16
558.722	3464.02
558.926	3451.82
559.129	3318.13
559.333	3416.75
559.536	3363.86
559.74	3336.73
559.943	3309.03
560.147	3351.26
560.35	3329.95
560.553	3432.44
560.757	3345.84
560.96	3487.85
561.164	3446.97
561.367	3462.28
561.57	3442.13
561.774	3454.34
561.977	3384.97
562.18	3364.05
562.384	3438.06
562.587	3388.07
562.79	3395.05
562.993	3359.4
563.197	3411.9
563.4	3431.09
563.603	3434.38
563.806	3375.29
564.009	3305.93
564.212	3385.36
564.416	3229.59
564.619	3340.22
564.822	3246.44
565.025	3345.26
565.228	3286.55
565.431	3270.86
565.634	3211.18
565.837	3260.39
566.04	3181.93
566.243	3179.6
566.446	3081.37
566.649	3184.45
566.852	3109.85
567.055	3149.38
567.258	3138.91
567.461	3214.48
567.664	3229.01
567.867	3186.58
568.07	3168.95
568.273	3147.25
568.475	3195.88
568.678	3067.03
568.881	3037.39
569.084	3040.69
569.287	2945.75
569.489	3010.07
569.692	3025.57
569.895	2991.28
570.098	2983.14
570.3	2919.79
570.503	2864.76
570.706	2890.72
570.909	2886.66
571.111	2847.33
571.314	2791.33
571.516	2851.98
571.719	2829.5
571.922	2865.34
572.124	2848.88
572.327	2845.97
572.529	2830.66
572.732	2870.77
572.935	2851.01
573.137	2972.68
573.34	2865.93
573.542	2870.58
573.745	2886.27
573.947	2893.82
574.15	2887.04
574.352	2815.94
574.554	2895.37
574.757	2803.34
574.959	2769.44
575.162	2768.66
575.364	2741.15
575.566	2814.97
575.769	2701.63
575.971	2724.88
576.173	2596.81
576.376	2716.93
576.578	2758.4
576.78	2780.29
576.982	2664.04
577.185	2694.65
577.387	2680.51
577.589	2668.69
577.791	2726.43
577.993	2682.25
578.196	2710.73
578.398	2656.48
578.6	2653.19
578.802	2598.94
579.004	2582.47
579.206	2625.1
579.408	2660.36
579.61	2623.16
579.812	2756.26
580.014	2607.85
580.216	2636.72
580.418	2645.63
580.62	2639.82
580.822	2641.95
581.024	2665.2
581.226	2739.99
581.428	2691.17
581.63	2772.54
581.832	2703.56
582.034	2732.82
582.236	2689.42
582.438	2722.16
582.64	2729.53
582.841	2799.28
583.043	2786.68
583.245	2731.46
583.447	2730.88
583.649	2731.46
583.85	2693.88
584.052	2718.87
584.254	2683.42
584.456	2742.7
584.657	2667.72
584.859	2729.53
585.061	2708.99
585.262	2689.62
585.464	2629.17
585.666	2715.19
585.867	2627.81
586.069	2658.81
586.27	2620.06
586.472	2645.83
586.674	2593.13
586.875	2621.61
587.077	2610.18
587.278	2630.72
587.48	2597.78
587.681	2740.57
587.883	2618.32
588.084	2534.23
588.285	2584.02
588.487	2504.59
588.688	2528.22
588.89	2408.88
589.091	2355.01
589.292	2331.38
589.494	2239.15
589.695	2264.15
589.896	2163.98
590.098	2174.44
590.299	2231.6
590.5	2238.57
590.702	2275
590.903	2312.97
591.104	2384.27
591.305	2384.85
591.507	2408.1
591.708	2394.93
591.909	2386.98
592.11	2425.73
592.311	2419.73
592.512	2337.58
592.714	2300.38
592.915	2354.82
593.116	2363.34
593.317	2394.54
593.518	2389.11
593.719	2372.84
593.92	2428.25
594.121	2437.36
594.322	2418.18
594.523	2333.31
594.724	2318.2
594.925	2308.71
595.126	2353.27
595.327	2340.68
595.528	2355.4
595.729	2392.79
595.929	2340.1
596.13	2359.08
596.331	2402.87
596.532	2375.74
596.733	2473.59
596.934	2392.02
597.135	2385.82
597.335	2405.19
597.536	2357.14
597.737	2388.34
597.938	2322.27
598.138	2413.72
598.339	2388.34
598.54	2395.51
598.74	2358.89
598.941	2415.85
599.142	2429.99
599.342	2386.98
599.543	2388.14
599.744	2344.94
599.944	2383.11
600.145	2397.25
600.345	2402.48
600.546	2466.42
600.746	2392.99
600.947	2488.31
601.147	2364.89
601.348	2388.34
601.548	2366.64
601.749	2375.74
601.949	2351.14
602.15	2355.98
602.35	2346.1
602.551	2381.36
602.751	2328.28
602.951	2319.75
603.152	2286.23
603.352	2364.7
603.552	2315.88
603.753	2365.67
603.953	2367.61
604.153	2366.06
604.354	2355.01
604.554	2341.26
604.754	2377.29
604.954	2308.9
605.155	2377.88
605.355	2304.83
605.555	2353.85
605.755	2422.83
605.955	2344.94
606.155	2387.18
606.356	2359.66
606.556	2364.89
606.756	2348.23
606.956	2301.15
607.156	2337
607.356	2343
607.556	2361.02
607.756	2358.11
607.956	2392.99
608.156	2358.5
608.356	2284.3
608.556	2356.37
608.756	2303.28
608.956	2281.39
609.156	2314.71
609.356	2285.26
609.556	2264.92
609.755	2308.51
609.955	2230.24
610.155	2281.78
610.355	2276.16
610.555	2206.6
610.755	2210.09
610.954	2167.27
611.154	2237.8
611.354	2283.33
611.554	2198.08
611.753	2232.37
611.953	2168.05
612.153	2246.71
612.352	2250.78
612.552	2167.66
612.752	2120.39
612.951	2202.15
613.151	2174.64
613.351	2146.74
613.55	2157.2
613.75	2163.4
613.949	2115.35
614.149	2182.58
614.348	2142.67
614.548	2074.27
614.747	2092.87
614.947	2086.87
615.146	2077.96
615.346	2165.92
615.545	2147.9
615.745	2123.68
615.944	2123.1
616.144	2086.87
616.343	2094.81
616.542	2096.75
616.742	2062.26
616.941	2084.54
617.14	1982.63
617.34	2072.72
617.539	2052.38
617.738	2009.37
617.938	2117.87
618.137	2047.34
618.336	2048.89
618.535	2151.77
618.734	2125.04
618.934	2091.52
619.133	2083.19
619.332	2129.49
619.531	2065.75
619.73	2092.1
619.929	2110.31
620.128	2085.32
620.328	2091.71
620.527	2065.75
620.726	2070.79
620.925	2092.68
621.124	2052.96
621.323	2076.99
621.522	2023.51
621.721	2028.74
621.92	2020.61
622.119	2027.58
622.318	1977.79
622.517	2011.31
622.715	2005.49
622.914	1964.61
623.113	2007.62
623.312	1924.51
623.511	2019.83
623.71	1973.14
623.909	1979.34
624.107	2026.03
624.306	1929.35
624.505	1959.96
624.704	1976.82
624.902	1937.29
625.101	1969.26
625.3	1929.35
625.499	1864.45
625.697	1921.02
625.896	1913.08
626.095	1922.38
626.293	1859.6
626.492	1887.89
626.69	1944.46
626.889	1924.89
627.088	1925.28
627.286	1875.3
627.485	1856.5
627.683	1788.5
627.882	1835.96
628.08	1723.01
628.279	1788.69
628.477	1829.18
628.676	1769.51
628.874	1800.51
629.073	1740.45
629.271	1762.34
629.469	1833.06
629.668	1787.14
629.866	1766.8
630.065	1760.02
630.263	1833.06
630.461	1779
630.66	1828.6
630.858	1823.76
631.056	1842.36
631.254	1867.35
631.453	1796.83
631.651	1834.8
631.849	1830.54
632.047	1847.4
632.245	1818.14
632.444	1813.1
632.642	1848.75
632.84	1875.1
633.038	1842.36
633.236	1784.82
633.434	1829.18
633.632	1791.02
633.83	1812.91
634.028	1858.83
634.227	1805.74
634.425	1899.13
634.623	1830.54
634.821	1839.45
635.019	1842.36
635.216	1848.95
635.414	1886.34
635.612	1832.28
635.81	1821.63
636.008	1895.64
636.206	1843.13
636.404	1858.83
636.602	1809.42
636.8	1842.36
636.997	1846.04
637.195	1857.86
637.393	1871.23
637.591	1898.93
637.789	1868.13
637.986	1838.68
638.184	1841
638.382	1866.58
638.58	1868.71
638.777	1890.99
638.975	1822.21
639.173	1818.33
639.37	1805.74
639.568	1812.33
639.765	1850.88
639.963	1802.83
640.161	1811.17
640.358	1827.63
640.556	1752.07
640.753	1724.17
640.951	1747.23
641.148	1758.66
641.346	1726.89
641.543	1716.42
641.741	1766.22
641.938	1707.32
642.136	1729.79
642.333	1731.15
642.531	1753.82
642.728	1772.61
642.925	1737.54
643.123	1707.12
643.32	1734.83
643.517	1691.24
643.715	1675.74
643.912	1688.72
644.109	1724.56
644.306	1687.17
644.504	1678.06
644.701	1685.04
644.898	1683.1
645.095	1665.85
645.293	1666.63
645.49	1700.54
645.687	1647.84
645.884	1690.65
646.081	1556.58
646.278	1623.23
646.475	1587.97
646.672	1594.56
646.87	1604.05
647.067	1575.18
647.264	1556.19
647.461	1498.07
647.658	1482.18
647.855	1541.86
648.052	1488.19
648.249	1451.76
648.446	1537.01
648.642	1503.11
648.839	1493.42
649.036	1501.75
649.233	1484.12
649.43	1448.47
649.627	1428.71
649.824	1440.53
650.021	1444.6
650.217	1489.35
650.414	1468.62
650.611	1546.12
650.808	1563.36
651.004	1536.24
651.201	1522.09
651.398	1519.58
651.595	1473.85
651.791	1453.9
651.988	1510.66
652.185	1430.45
652.381	1491.87
652.578	1417.08
652.775	1444.6
652.971	1446.15
653.168	1428.32
653.364	1483.15
653.561	1426.96
653.757	1447.89
653.954	1474.05
654.15	1397.32
654.347	1502.53
654.543	1443.82
654.74	1396.93
654.936	1386.67
655.133	1395.58
655.329	1376.01
655.525	1383.18
655.722	1399.84
655.918	1326.99
656.115	1333.58
656.311	1247.17
656.507	1223.14
656.704	1181.68
656.9	1217.14
657.096	1217.14
657.292	1247.55
657.489	1261.12
657.685	1299.67
657.881	1295.02
658.077	1294.64
658.273	1303.16
658.47	1389.18
658.666	1335.9
658.862	1362.64
659.058	1322.34
659.254	1402.55
659.45	1337.26
659.646	1342.49
659.842	1361.09
660.038	1382.4
660.234	1314.78
660.43	1337.45
660.626	1427.74
660.822	1406.04
661.018	1401.78
661.214	1339.2
661.41	1278.36
661.606	1363.8
661.802	1338.81
661.998	1349.47
662.194	1320.98
662.39	1351.98
662.586	1339
662.781	1316.92
662.977	1358.18
663.173	1376.01
663.369	1288.82
663.564	1343.27
663.76	1338.42
663.956	1307.62
664.152	1350.63
664.347	1274.49
664.543	1303.16
664.739	1278.55
664.934	1244.07
665.13	1238.45
665.326	1304.13
665.521	1280.3
665.717	1231.47
665.912	1266.15
666.108	1181.68
666.304	1249.3
666.499	1246.59
666.695	1153.01
666.89	1209.58
667.086	1239.22
667.281	1247.17
667.477	1276.81
667.672	1209
667.867	1206.67
668.063	1191.76
668.258	1193.5
668.454	1177.81
668.649	1242.9
668.844	1183.04
669.04	1231.67
669.235	1180.71
669.43	1179.74
669.626	1165.79
669.821	1184.97
670.016	1153.78
670.211	1183.62
670.407	1141.19
670.602	1166.96
670.797	1143.9
670.992	1211.91
671.187	1146.61
671.382	1166.96
671.578	1150.68
671.773	1196.21
671.968	1123.56
672.163	1157.07
672.358	1152.42
672.553	1099.14
672.748	1153.59
672.943	1190.98
673.138	1137.12
673.333	1168.89
673.528	1117.94
673.723	1140.02
673.918	1109.99
674.113	1112.71
674.308	1206.09
674.503	1162.69
674.698	1155.72
674.892	1134.02
675.087	1145.84
675.282	1165.99
675.477	1129.56
675.672	1159.79
675.867	1132.86
676.061	1110.38
676.256	1068.53
676.451	1123.75
676.646	1149.13
676.84	1060.78
677.035	1074.34
677.23	1088.88
677.424	1106.51
677.619	1164.82
677.814	1141.19
678.008	1127.63
678.203	1060.39
678.397	1063.69
678.592	1096.63
678.787	1134.41
678.981	1085.58
679.176	1111.54
679.37	1110.96
679.565	1054.78
679.759	1103.21
679.954	1146.03
680.148	1133.05
680.342	1149.32
680.537	1130.34
680.731	1078.8
680.926	1142.54
681.12	1116.58
681.314	1090.81
681.509	1045.48
681.703	1119.68
681.897	1131.89
682.092	1070.08
682.286	1053.61
682.48	1130.72
682.674	1139.44
682.869	1088.29
683.063	1116.19
683.257	1136.54
683.451	1108.64
683.645	1108.64
683.839	1114.84
684.034	1126.46
684.228	1146.61
684.422	1106.51
684.616	1088.68
684.81	1175.67
685.004	1129.76
685.198	1138.86
685.392	1180.32
685.586	1114.26
685.78	1191.17
685.974	1174.71
686.168	1170.44
686.362	1199.31
686.556	1097.01
686.75	1046.83
686.944	1020.87
687.138	1000.91
687.331	867.23
687.525	906.37
687.719	811.82
687.913	886.99
688.107	914.7
688.301	911.98
688.494	975.92
688.688	950.93
688.882	906.75
689.076	939.88
689.269	925.93
689.463	1035.4
689.657	973.6
689.85	1001.11
690.044	1025.91
690.238	1016.8
690.431	1029.01
690.625	1064.66
690.818	1096.24
691.012	1114.26
691.205	1184.2
691.399	1147.97
691.593	1231.86
691.786	1234.57
691.98	1263.44
692.173	1322.34
692.366	1288.44
692.56	1340.36
692.753	1371.36
692.947	1289.6
693.14	1390.73
693.333	1380.85
693.527	1332.22
693.72	1432
693.914	1414.95
694.107	1381.63
694.3	1418.63
694.493	1404.68
694.687	1482.76
694.88	1450.99
695.073	1511.05
695.266	1513.76
695.46	1505.43
695.653	1593.39
695.846	1579.83
696.039	1540.11
696.232	1602.89
696.425	1660.04
696.618	1717.2
696.812	1744.13
697.005	1798.77
697.198	1878.01
697.391	1832.67
697.584	1863.09
697.777	1934.97
697.97	1936.71
698.163	1952.02
698.356	1917.73
698.549	2009.56
698.742	1965.39
698.935	1920.63
699.127	1983.99
699.32	1919.28
699.513	1963.26
699.706	1932.06
699.899	2025.06
700.092	1980.11
700.285	2045.6
700.477	1973.91
700.67	2045.41
700.863	2062.46
701.056	2116.51
701.248	2124.45
701.441	2108.95
701.634	2080.86
701.826	2207.77
702.019	2095.39
702.212	2180.83
702.404	2177.73
702.597	2156.81
702.79	2174.44
702.982	2219.58
703.175	2283.91
703.367	2329.83
703.56	2334.86
703.752	2431.74
703.945	2341.84
704.137	2380.98
704.33	2429.61
704.522	2447.62
704.715	2493.74
704.907	2501.68
705.1	2526.09
705.292	2526.29
705.484	2476.3
705.677	2551.47
705.869	2597.2
706.061	2580.92
706.254	2658.03
706.446	2624.71
706.638	2617.93
706.831	2717.13
707.023	2653.58
707.215	2775.06
707.407	2784.36
707.599	2722.75
707.792	2815.94
707.984	2817.49
708.176	2811.09
708.368	2806.06
708.56	2814.78
708.752	2845.97
708.944	2834.73
709.136	2879.29
709.329	2866.7
709.521	2975.39
709.713	2980.62
709.905	2959.7
710.097	2992.44
710.289	2967.64
710.481	2970.35
710.672	3019.57
710.864	3001.55
711.056	3080.21
711.248	3081.76
711.44	3079.82
711.632	3060.06
711.824	3128.26
712.016	3176.7
712.207	3192.2
712.399	3130.39
712.591	3223.58
712.783	3209.05
712.975	3208.66
713.166	3207.5
713.358	3187.93
713.55	3284.03
713.741	3285
713.933	3287.91
714.125	3256.33
714.316	3260.59
714.508	3340.61
714.7	3273.57
714.891	3267.56
715.083	3303.79
715.274	3266.98
715.466	3330.92
715.657	3310.58
715.849	3220.68
716.04	3333.05
716.232	3228.43
716.423	3235.01
716.615	3091.83
716.806	3036.23
716.998	2959.7
717.189	2841.32
717.381	2775.25
717.572	2714.41
717.763	2705.11
717.955	2677.41
718.146	2627.42
718.337	2573.37
718.528	2525.9
718.72	2394.54
718.911	2442.01
719.102	2422.44
719.293	2439.49
719.485	2402.29
719.676	2381.17
719.867	2395.12
720.058	2376.91
720.249	2341.26
720.44	2391.05
720.632	2468.16
720.823	2505.94
721.014	2678.18
721.205	2719.06
721.396	2832.99
721.587	2983.34
721.778	3003.68
721.969	3056.57
722.16	3134.85
722.351	3171.27
722.542	3309.03
722.733	3302.83
722.924	3197.04
723.115	3262.91
723.305	3202.08
723.496	3221.84
723.687	3061.22
723.878	3079.43
724.069	3089.12
724.26	3086.8
724.45	2970.35
724.641	2970.94
724.832	2990.7
725.023	2954.08
725.213	2945.56
725.404	2934.51
725.595	2907.19
725.785	2917.07
725.976	3001.94
726.167	2964.15
726.357	3000.97
726.548	3070.91
726.739	2996.51
726.929	3096.48
727.12	3093.77
727.31	3131.17
727.501	3010.65
727.691	3030.42
727.882	3022.09
728.072	3130.97
728.263	3114.7
728.453	3161
728.644	3222.42
728.834	3116.05
729.024	3114.5
729.215	3126.9
729.405	3152.28
729.596	3238.11
729.786	3234.63
729.976	3274.73
730.167	3253.61
730.357	3228.43
730.547	3281.32
730.737	3325.69
730.928	3329.37
731.118	3351.07
731.308	3290.81
731.498	3280.16
731.688	3397.18
731.879	3420.43
732.069	3489.02
732.259	3582.4
732.449	3583.56
732.639	3653.7
732.829	3726.36
733.019	3745.15
733.209	3871.28
733.399	3851.71
733.589	3954.4
733.779	4003.42
733.969	3971.25
734.159	4104.55
734.349	4130.13
734.539	4169.26
734.729	4176.63
734.919	4168.49
735.109	4265.94
735.299	4163.84
735.488	4216.92
735.678	4214.99
735.868	4179.34
736.058	4174.49
736.248	4173.14
736.437	4175.85
736.627	4108.04
736.817	4227.39
737.007	4175.27
737.196	4216.92
737.386	4272.14
737.576	4215.96
737.765	4305.27
737.955	4269.24
738.144	4360.1
738.334	4334.14
738.524	4275.82
738.713	4309.92
738.903	4338.21
739.092	4346.35
739.282	4361.27
739.471	4372.7
739.661	4348.29
739.85	4443.03
740.04	4382.38
740.229	4480.23
740.419	4523.43
740.608	4492.82
740.797	4452.33
740.987	4538.93
741.176	4487.2
741.365	4492.43
741.555	4441.09
741.744	4607.91
741.933	4471.9
742.123	4548.43
742.312	4530.02
742.501	4605.78
742.69	4601.32
742.88	4498.44
743.069	4638.71
743.258	4626.12
743.447	4630.19
743.636	4619.53
743.825	4619.14
744.014	4649.37
744.204	4660.22
744.393	4601.51
744.582	4696.06
744.771	4738.49
744.96	4666.42
745.149	4677.66
745.338	4667.77
745.527	4712.72
745.716	4663.12
745.905	4614.69
746.094	4731.13
746.283	4728.42
746.471	4750.89
746.66	4722.8
746.849	4707.3
747.038	4727.45
747.227	4759.42
747.416	4733.07
747.604	4663.32
747.793	4701.87
747.982	4697.81
748.171	4743.72
748.359	4681.53
748.548	4721.25
748.737	4666.22
748.926	4742.37
749.114	4597.25
749.303	4673.59
749.491	4640.65
749.68	4622.44
749.869	4673.97
750.057	4664.48
750.246	4654.99
750.434	4670.1
750.623	4660.02
750.811	4601.51
751	4650.34
751.188	4620.11
751.377	4639.87
751.565	4592.6
751.754	4625.92
751.942	4552.3
752.131	4592.02
752.319	4599.96
752.507	4510.45
752.696	4617.01
752.884	4615.27
753.072	4544.74
753.261	4585.82
753.449	4599.77
753.637	4529.44
753.825	4679.21
754.014	4543.19
754.202	4541.06
754.39	4590.47
754.578	4601.71
754.766	4504.25
754.955	4512.58
755.143	4576.52
755.331	4548.23
755.519	4525.37
755.707	4483.91
755.895	4440.9
756.083	4516.85
756.271	4397.3
756.459	4459.5
756.647	4478.1
756.835	4464.34
757.023	4446.52
757.211	4460.08
757.399	4419
757.587	4435.08
757.775	4371.73
757.963	4415.32
758.151	4413
758.339	4385.1
758.526	4326.59
758.714	4352.16
758.902	4230.49
759.09	4090.21
759.278	3796.11
759.465	3528.93
759.653	2998.25
759.841	2741.35
760.028	2344.55
760.216	2040.37
760.404	1857.66
760.591	1559.49
760.779	1299.48
760.967	1137.12
761.154	938.92
761.342	968.75
761.529	978.63
761.717	1011.38
761.905	1029.78
762.092	1077.25
762.28	1005.76
762.467	973.79
762.655	920.51
762.842	942.98
763.029	964.3
763.217	944.53
763.404	925.93
763.592	998.98
763.779	942.98
763.966	1011.96
764.154	1060.2
764.341	1133.63
764.528	1137.7
764.716	1206.87
764.903	1277
765.09	1379.88
765.277	1435.3
765.465	1607.34
765.652	1671.86
765.839	1799.35
766.026	1968.88
766.213	2048.7
766.4	2153.71
766.588	2411.01
766.775	2475.72
766.962	2607.27
767.149	2665.98
767.336	2895.57
767.523	2851.78
767.71	3003.1
767.897	3193.55
768.084	3279.96
768.271	3320.26
768.458	3410.55
768.645	3492.89
768.832	3465.38
769.019	3533.77
769.206	3593.45
769.392	3663.39
769.579	3743.6
769.766	3709.89
769.953	3755.61
770.14	3802.69
770.327	3800.17
770.513	3873.8
770.7	3920.88
770.887	3867.4
771.073	3867.21
771.26	3887.55
771.447	3818
771.634	3837.18
771.82	3917
772.007	3847.25
772.193	3912.35
772.38	3934.25
772.567	3889.49
772.753	3884.65
772.94	3926.88
773.126	3937.54
773.313	3945.1
773.499	3908.87
773.686	3937.73
773.872	3861.4
774.059	3897.24
774.245	3911.39
774.432	3898.02
774.618	3756.58
774.804	3859.27
774.991	3768.79
775.177	3883.68
775.363	3798.04
775.55	3866.05
775.736	3773.44
775.922	3868.18
776.109	3804.05
776.295	3869.34
776.481	3798.62
776.667	3848.42
776.853	3816.45
777.04	3751.16
777.226	3773.24
777.412	3889.1
777.598	3761.81
777.784	3739.73
777.97	3742.24
778.156	3827.88
778.342	3764.33
778.528	3744.38
778.715	3684.12
778.901	3702.53
779.087	3774.6
779.272	3666.29
779.458	3662.81
779.644	3691.48
779.83	3684.31
780.016	3773.63
780.202	3659.71
780.388	3720.35
780.574	3608.36
780.76	3631.61
780.946	3657.19
781.131	3658.74
781.317	3627.16
781.503	3564.19
781.689	3631.23
781.874	3719.19
782.06	3572.91
782.246	3654.09
782.432	3605.65
782.617	3630.06
782.803	3635.3
782.989	3539.39
783.174	3529.12
783.36	3477.59
783.545	3562.25
783.731	3532.42
783.916	3427.4
784.102	3526.41
784.288	3469.84
784.473	3446.59
784.659	3466.54
784.844	3509.17
785.029	3475.65
785.215	3445.81
785.4	3396.02
785.586	3511.68
785.771	3406.67
785.956	3445.62
786.142	3425.08
786.327	3360.17
786.512	3356.3
786.698	3418.1
786.883	3293.33
787.068	3341.19
787.254	3344.09
787.439	3344.67
787.624	3305.93
787.809	3274.34
787.994	3252.64
788.18	3320.84
788.365	3242.96
788.55	3242.96
788.735	3272.02
788.92	3237.14
789.105	3221.45
789.29	3260.39
789.475	3171.85
789.66	3172.63
789.845	3157.51
790.03	3105.59
790.215	3141.43
790.4	3170.3
790.585	3204.98
790.77	3140.85
790.955	3058.9
791.14	3118.38
791.325	3155.19
791.51	2999.22
791.695	3115.67
791.879	3153.25
792.064	3081.37
792.249	3133.3
792.434	3111.02
792.618	3058.32
792.803	3142.4
792.988	3088.54
793.173	3066.26
793.357	3150.93
793.542	3059.67
793.727	3145.5
793.911	3146.08
794.096	3091.64
794.281	3193.36
794.465	3223.39
794.65	3139.11
794.834	3182.51
795.019	3211.96
795.203	3203.05
795.388	3198.59
795.572	3235.01
795.757	3154.41
795.941	3187.35
796.126	3148.21
796.31	3119.73
796.494	3105.59
796.679	3105.4
796.863	3057.73
797.048	3180.76
797.232	3148.02
797.416	3186.58
797.601	3130.2
797.785	3210.41
797.969	3207.7
798.153	3127.87
798.338	3225.91
798.522	3178.25
798.706	3229.01
798.89	3228.04
799.074	3335.96
799.258	3299.34
799.443	3245.67
799.627	3192.58
799.811	3255.36
799.995	3169.14
800.179	3141.24
800.363	3145.31
800.547	3202.46
800.731	3247.61
800.915	3106.37
801.099	3116.44
801.283	3137.75
801.467	3192.58
801.651	3117.02
801.835	3195.88
802.019	3150.35
802.202	3204.79
802.386	3109.47
802.57	3075.75
802.754	3105.98
802.938	3111.98
803.121	3104.82
803.305	3213.12
803.489	3134.46
803.673	3136.98
803.856	3137.95
804.04	3113.15
804.224	3126.32
804.407	3152.86
804.591	3128.84
804.775	3185.61
804.958	3146.08
805.142	3249.74
805.326	3177.86
805.509	3175.53
805.693	3204.98
805.876	3202.08
806.06	3241.6
806.243	3210.8
806.427	3227.26
806.61	3228.62
806.794	3180.38
806.977	3259.62
807.16	3221.84
807.344	3235.21
807.527	3189.29
807.71	3217.58
807.894	3232.3
808.077	3197.04
808.26	3194.52
808.444	3160.03
808.627	3149.96
808.81	3137.75
808.993	3072.85
809.177	3027.7
809.36	3083.89
809.543	3059.48
809.726	3006.97
809.909	3000.77
810.092	2992.25
810.276	2978.1
810.459	2943.23
810.642	2965.9
810.825	2897.31
811.008	2905.06
811.191	2865.15
811.374	2863.6
811.557	2867.86
811.74	2881.62
811.923	2767.89
812.106	2750.26
812.289	2733.79
812.472	2746.96
812.654	2715.96
812.837	2638.08
813.02	2616.57
813.203	2569.49
813.386	2505.75
813.569	2447.43
813.751	2352.88
813.934	2423.02
814.117	2374.19
814.3	2338.16
814.482	2276.55
814.665	2235.67
814.848	2157.97
815.03	2114.96
815.213	2126.78
815.396	2096.94
815.578	2071.76
815.761	2052.57
815.943	2078.73
816.126	1944.85
816.309	1937.88
816.491	1868.71
816.674	1803.8
816.856	1897.38
817.039	1870.06
817.221	1969.46
817.403	1921.21
817.586	1948.34
817.768	1920.24
817.951	1861.15
818.133	1843.52
818.315	1859.8
818.498	1932.64
818.68	1952.99
818.862	1926.44
819.045	1974.88
819.227	1990.38
819.409	1921.21
819.591	1953.38
819.774	1955.31
819.956	1910.95
820.138	2020.02
820.32	1996.58
820.502	2045.02
820.684	2153.13
820.866	2179.28
821.048	2238.57
821.231	2223.46
821.413	2218.81
821.595	2199.24
821.777	2232.18
821.959	2182.58
822.141	2248.26
822.323	2100.43
822.505	2034.75
822.686	1957.25
822.868	1824.92
823.05	1725.34
823.232	1680.58
823.414	1620.52
823.596	1733.28
823.778	1667.02
823.96	1742.58
824.141	1764.08
824.323	1768.93
824.505	1917.53
824.687	1948.34
824.868	2026.61
825.05	2095.59
825.232	2184.32
825.413	2212.42
825.595	2176.19
825.777	2107.21
825.958	2142.86
826.14	2157.2
826.321	2188
826.503	2109.15
826.685	2182.58
826.866	2202.34
827.048	2168.44
827.229	2087.26
827.411	2025.45
827.592	2002.97
827.773	1995.03
827.955	1941.56
828.136	1948.34
828.318	1917.14
828.499	1931.29
828.68	1912.3
828.862	1917.92
829.043	1951.83
829.224	1929.16
829.406	1894.48
829.587	1922.96
829.768	1928.38
829.949	1878.2
830.131	1938.07
830.312	1969.65
830.493	1934.19
830.674	1939.81
830.855	1933.81
831.036	1903.97
831.218	2017.89
831.399	2026.22
831.58	1927.61
831.761	1926.06
831.942	1915.01
832.123	1924.12
832.304	1877.62
832.485	1897.19
832.666	1935.74
832.847	1954.73
833.028	1910.95
833.209	1945.24
833.389	1895.64
833.57	1850.3
833.751	1876.85
833.932	1954.73
834.113	1961.32
834.294	1923.54
834.475	1947.56
834.655	2005.3
834.836	2013.05
835.017	2014.02
835.198	1981.28
835.378	1983.21
835.559	2031.84
835.74	1977.21
835.92	1984.57
836.101	1979.14
836.281	1970.62
836.462	2002.01
836.643	2069.04
836.823	2064.01
837.004	2082.02
837.184	2080.09
837.365	2065.36
837.545	2057.61
837.726	2015.37
837.906	2098.3
838.087	2011.11
838.267	2059.94
838.448	1993.68
838.628	2033.2
838.808	2074.47
838.989	2091.32
839.169	2019.44
839.349	2100.04
839.53	2110.89
839.71	2130.46
839.89	2009.95
840.07	2075.24
840.251	2028.74
840.431	2107.79
840.611	2022.54
840.791	1999.68
840.971	2034.75
841.151	2013.82
841.332	1994.06
841.512	2074.86
841.692	2010.14
841.872	2069.04
842.052	2025.26
842.232	2089.19
842.412	1984.57
842.592	2030.68
842.772	2044.44
842.952	2041.53
843.132	2013.05
843.312	1994.26
843.492	1980.89
843.672	2006.07
843.851	1962.29
844.031	1996.19
844.211	1957.25
844.391	1933.61
844.571	1997.36
844.751	2007.04
844.93	1986.7
845.11	1928.96
845.29	1983.21
845.47	2018.47
845.649	1986.31
845.829	2029.71
846.009	1983.02
846.188	2001.23
846.368	1985.73
846.547	1951.63
846.727	2024.29
846.907	1934.58
847.086	1959.19
847.266	1995.61
847.445	1943.69
847.625	1933.03
847.804	1921.99
847.984	1993.68
848.163	1907.85
848.343	1912.11
848.522	1893.9
848.701	1923.15
848.881	1910.17
849.06	1932.45
849.239	1905.33
849.419	1893.51
849.598	1837.32
849.777	1816.01
849.957	1809.23
850.136	1742.58
850.315	1765.44
850.494	1764.08
850.674	1803.42
850.853	1802.83
851.032	1782.49
851.211	1812.13
851.39	1792.57
851.569	1761.95
851.748	1738.51
851.927	1822.21
852.107	1800.51
852.286	1748.78
852.465	1735.99
852.644	1811.55
852.823	1812.52
853.002	1781.72
853.181	1798.57
853.359	1798.96
853.538	1751.88
853.717	1791.4
853.896	1662.37
854.075	1582.93
854.254	1549.22
854.433	1481.41
854.611	1557.94
854.79	1503.11
854.969	1567.43
855.148	1603.47
855.327	1549.61
855.505	1612.19
855.684	1588.94
855.863	1649.58
856.041	1621.68
856.22	1687.17
856.399	1632.14
856.577	1746.45
856.756	1696.08
856.934	1785.4
857.113	1781.33
857.291	1727.66
857.47	1673.02
857.648	1728.24
857.827	1724.75
858.005	1760.21
858.184	1681.94
858.362	1791.6
858.541	1685.62
858.719	1688.14
858.898	1661.79
859.076	1675.93
859.254	1754.78
859.433	1678.64
859.611	1662.37
859.789	1657.91
859.967	1694.14
860.146	1730.57
860.324	1631.56
860.502	1628.46
860.68	1639.7
860.859	1610.44
861.037	1644.74
861.215	1634.86
861.393	1666.82
861.571	1614.12
861.749	1602.31
861.927	1644.74
862.105	1629.82
862.283	1616.26
862.461	1606.57
862.639	1570.34
862.817	1618
862.995	1633.89
863.173	1599.79
863.351	1584.09
863.529	1646.67
863.707	1624.97
863.885	1637.37
864.063	1557.55
864.241	1555.61
864.418	1675.54
864.596	1546.89
864.774	1540.31
864.952	1586.22
865.129	1601.92
865.307	1555.42
865.485	1515.7
865.663	1575.76
865.84	1485.86
866.018	1496.13
866.196	1353.34
866.373	1353.15
866.551	1356.63
866.728	1298.9
866.906	1351.6
867.084	1390.93
867.261	1414.37
867.439	1411.08
867.616	1441.69
867.794	1410.11
867.971	1475.01
868.149	1412.63
868.326	1497.68
868.503	1486.83
868.681	1476.76
868.858	1423.67
869.035	1432
869.213	1475.4
869.39	1445.95
869.567	1482.96
869.745	1449.63
869.922	1458.93
870.099	1471.91
870.276	1430.65
870.454	1477.73
870.631	1446.53
870.808	1428.13
870.985	1478.31
871.162	1483.15
871.339	1474.82
871.517	1369.23
871.694	1375.04
871.871	1456.03
872.048	1419.99
872.225	1409.14
872.402	1434.13
872.579	1412.82
872.756	1399.45
872.933	1364
873.11	1365.16
873.287	1420.96
873.463	1402.36
873.64	1359.35
873.817	1401.97
873.994	1376.4
874.171	1340.94
874.348	1388.02
874.524	1327.96
874.701	1346.95
874.878	1287.27
875.055	1353.15
875.231	1335.32
875.408	1364.77
875.585	1323.89
875.762	1336.87
875.938	1360.32
876.115	1307.62
876.291	1306.65
876.468	1314.01
876.645	1270.42
876.821	1275.07
876.998	1294.05
877.174	1328.73
877.351	1275.45
877.527	1263.44
877.704	1326.99
877.88	1266.93
878.057	1278.36
878.233	1344.04
878.409	1270.03
878.586	1269.06
878.762	1293.67
878.938	1258.79
879.115	1218.49
879.291	1258.79
879.467	1198.92
879.644	1239.42
879.82	1262.47
879.996	1221.59
880.172	1192.92
880.349	1245.42
880.525	1298.32
880.701	1224.5
880.877	1166.76
881.053	1227.21
881.229	1209.97
881.405	1254.53
881.581	1200.09
881.757	1182.07
881.933	1245.81
882.109	1252.98
882.285	1259.95
882.461	1146.03
882.637	1243.68
882.813	1185.17
882.989	1189.62
883.165	1254.92
883.341	1191.56
883.517	1254.92
883.693	1230.7
883.869	1262.86
884.044	1183.23
884.22	1221.59
884.396	1268.09
884.572	1219.07
884.747	1249.49
884.923	1227.21
885.099	1251.24
885.275	1255.89
885.45	1184.01
885.626	1187.11
885.801	1206.29
885.977	1198.92
886.153	1118.91
886.328	1205.51
886.504	1163.08
886.679	1218.49
886.855	1188.85
887.03	1183.23
887.206	1242.71
887.381	1190.79
887.557	1217.14
887.732	1185.94
887.908	1225.08
888.083	1209.77
888.258	1210.55
888.434	1176.84
888.609	1210.36
888.784	1214.42
888.96	1205.71
889.135	1204.74
889.31	1198.15
889.485	1193.5
889.661	1177.42
889.836	1238.45
890.011	1216.17
890.186	1200.67
890.361	1170.64
890.537	1206.09
890.712	1233.22
890.887	1205.32
891.062	1180.32
891.237	1241.35
891.412	1169.47
891.587	1168.31
891.762	1203.96
891.937	1222.37
892.112	1141.19
892.287	1177.22
892.462	1145.06
892.637	1119.29
892.812	1119.49
892.987	1091.59
893.161	1120.84
893.336	1116.39
893.511	1083.84
893.686	1106.89
893.861	1059.04
894.035	1081.32
894.21	1076.67
894.385	1016.61
894.56	1039.86
894.734	970.69
894.909	974.56
895.084	964.3
895.258	930.78
895.433	996.46
895.608	959.45
895.782	893.58
895.957	905.78
896.131	908.88
896.306	807.17
896.48	816.85
896.655	850.76
896.829	778.3
897.004	807.36
897.178	775.2
897.353	779.85
897.527	809.69
897.701	788.76
897.876	749.82
898.05	824.8
898.224	799.8
898.399	800.39
898.573	755.24
898.747	682.01
898.921	704.67
899.096	632.99
899.27	623.11
899.444	650.23
899.618	670.58
899.792	687.24
899.967	703.32
900.141	740.32
900.315	666.12
900.489	660.5
900.663	680.46
900.837	677.36
901.011	662.83
901.185	749.62
901.359	706.22
901.533	688.4
901.707	679.29
901.881	695.76
902.055	659.14
902.229	688.98
902.403	727.34
902.576	681.04
902.75	692.66
902.924	793.6
903.098	743.04
903.272	801.35
903.446	818.99
903.619	833.13
903.793	862.77
903.967	856.96
904.14	893.97
904.314	907.92
904.488	840.49
904.661	902.3
904.835	873.23
905.009	878.08
905.182	930.78
905.356	877.5
905.529	879.63
905.703	831
905.876	823.05
906.05	818.99
906.223	761.06
906.397	714.56
906.57	695.57
906.744	670.96
906.917	686.85
907.09	684.33
907.264	679.29
907.437	634.34
907.61	606.83
907.784	609.74
907.957	663.6
908.13	618.07
908.304	637.83
908.477	583.58
908.65	625.04
908.823	586.88
908.996	664.18
909.17	600.44
909.343	617.49
909.516	583.97
909.689	599.47
909.862	586.68
910.035	589.78
910.208	560.14
910.381	532.82
910.554	634.73
910.727	606.06
910.9	574.86
911.073	600.63
911.246	637.44
911.419	641.13
911.592	616.52
911.765	599.86
911.938	557.04
912.11	589.78
912.283	561.88
912.456	638.41
912.629	582.42
912.802	561.69
912.974	516.93
913.147	502.02
913.32	445.83
913.493	476.25
913.665	505.7
913.838	509.38
914.01	480.12
914.183	516.35
914.356	519.84
914.528	562.27
914.701	594.05
914.873	570.21
915.046	472.57
915.218	471.4
915.391	409.79
915.563	464.82
915.736	483.03
915.908	518.68
916.081	491.17
916.253	490
916.425	516.35
916.598	560.72
916.77	521.2
916.942	512.28
917.115	427.23
917.287	492.33
917.459	432.85
917.632	426.84
917.804	381.12
917.976	459.58
918.148	479.15
918.32	480.7
918.493	512.67
918.665	549.29
918.837	495.23
919.009	573.51
919.181	552.39
919.353	536.89
919.525	532.24
919.697	538.44
919.869	553.16
920.041	580.29
920.213	645.78
920.385	633.18
920.557	584.36
920.729	568.47
920.901	531.27
921.073	576.22
921.244	510.54
921.416	577.19
921.588	553.16
921.76	555.1
921.932	608.96
922.103	561.3
922.275	570.21
922.447	572.54
922.619	495.23
922.79	537.66
922.962	520.23
923.134	558.4
923.305	467.33
923.477	493.49
923.648	476.44
923.82	490.78
923.991	411.73
924.163	453
924.335	475.08
924.506	462.68
924.677	506.28
924.849	457.45
925.02	466.17
925.192	494.85
925.363	470.43
925.535	464.82
925.706	434.98
925.877	528.36
926.049	457.45
926.22	481.87
926.391	463.46
926.562	486.9
926.734	428
926.905	451.64
927.076	431.68
927.247	429.94
927.419	361.16
927.59	376.27
927.761	375.69
927.932	356.51
928.103	358.06
928.274	307.3
928.445	286.76
928.616	358.45
928.787	315.63
928.958	327.06
929.129	301.87
929.3	284.82
929.471	252.28
929.642	223.6
929.813	214.49
929.984	271.84
930.155	205.39
930.326	221.08
930.496	214.88
930.667	156.56
930.838	211.98
931.009	160.25
931.18	156.95
931.35	162.57
931.521	169.93
931.692	92.05
931.863	63.76
932.033	110.45
932.204	124.98
932.374	171.87
932.545	90.69
932.716	126.92
932.886	119.17
933.057	50.39
933.227	62.98
933.398	163.35
933.568	71.32
933.739	26.37
933.909	62.6
934.08	106
934.25	4.86
934.421	32.76
934.591	58.53
934.761	34.7
934.932	15.71
935.102	70.54
935.272	42.06
935.443	56.59
935.613	33.92
935.783	75.19
935.953	15.32
936.123	183.88
936.294	10.67
936.464	38.96
936.634	50.97
936.804	33.15
936.974	16.87
937.144	59.11
937.314	42.06
937.484	32.95
937.655	32.76
937.825	91.46
937.995	10.09
938.165	97.86
938.334	46.52
938.504	77.32
938.674	63.37
938.844	68.02
939.014	106.38
939.184	132.93
939.354	161.99
939.524	134.48
939.694	89.14
939.863	126.92
940.033	153.46
940.203	140.87
940.373	117.23
940.542	140.48
940.712	78.48
940.882	156.37
941.051	143.97
941.221	124.79
941.391	132.35
941.56	105.03
941.73	92.82
941.899	210.62
942.069	91.27
942.238	125.18
942.408	51.75
942.577	119.36
942.747	94.76
942.916	15.52
943.086	83.71
943.255	114.71
943.425	137.77
943.594	70.54
943.763	6.02
943.933	45.35
944.102	10.67
944.271	75.97
944.441	82.75
944.61	65.7
944.779	61.82
944.948	155.79
945.117	45.93
945.287	76.35
945.456	35.28
945.625	29.27
945.794	58.53
945.963	54.65
946.132	83.13
946.301	60.85
946.47	101.93
946.639	17.84
946.808	84.3
946.977	94.95
947.146	113.55
947.315	52.52
947.484	110.84
947.653	80.23
947.822	59.69
947.991	60.47
948.16	132.15
948.329	100.96
948.498	77.52
948.666	105.41
948.835	101.73
949.004	46.13
949.173	37.41
949.341	74.22
949.51	78.1
949.679	118.4
949.847	84.3
950.016	150.56
950.185	116.46
950.353	41.48
950.522	67.05
950.69	135.06
950.859	57.56
951.028	159.08
951.196	100.57
951.365	75.38
951.533	58.92
951.701	107.55
951.87	105.22
952.038	66.67
952.207	63.76
952.375	121.88
952.543	44
952.712	95.15
952.88	69.38
953.048	107.55
953.217	82.55
953.385	84.3
953.553	128.08
953.721	34.31
953.89	99.02
954.058	51.55
954.226	48.84
954.394	66.08
954.562	28.69
954.73	81.39
954.898	72.67
955.067	114.52
955.235	75.19
955.403	112.58
955.571	147.07
955.739	95.53
955.907	50.2
956.075	69.57
956.243	49.62
956.41	92.05
956.578	35.67
956.746	27.33
956.914	80.23
957.082	88.75
957.25	106.77
957.418	69.38
957.585	92.05
957.753	130.99
957.921	71.7
958.089	108.71
958.256	100.57
958.424	97.47
958.592	85.07
958.759	66.28
958.927	97.08
959.095	50.97
959.262	92.43
959.43	79.07
959.597	42.45
959.765	106.38
959.932	68.22
960.1	88.56
960.267	70.54
960.435	110.06
960.602	118.2
960.77	85.85
960.937	48.65
961.104	75
961.272	44.97
961.439	64.73
961.606	83.52
961.774	127.7
961.941	62.4
962.108	99.99
962.275	75
962.443	136.41
962.61	120.33
962.777	158.7
962.944	128.66
963.111	124.79
963.278	128.47
963.446	107.93
963.613	95.53
963.78	119.17
963.947	126.34
964.114	117.23
964.281	148.43
964.448	111.23
964.615	93.01
964.782	87.98
964.949	116.26
965.116	101.54
965.282	143.2
965.449	101.93
965.616	92.05
965.783	112.39
965.95	126.92
966.117	49.42
966.283	100.38
966.45	116.46
966.617	99.8
966.784	153.85
966.95	145.52
967.117	159.28
967.284	65.12
967.45	96.7
967.617	161.99
967.784	153.27
967.95	147.26
968.117	94.37
968.283	176.71
968.45	214.11
968.616	124.98
968.783	177.29
968.949	128.66
969.116	183.88
969.282	122.85
969.449	129.05
969.615	102.7
969.781	95.53
969.948	107.55
970.114	96.31
970.28	171.87
970.447	108.32
970.613	181.94
970.779	117.81
970.945	161.02
971.112	147.85
971.278	109.87
971.444	116.65
971.61	158.5
971.776	124.01
971.942	149.98
972.108	149.2
972.275	124.98
972.441	137.19
972.607	165.48
972.773	117.62
972.939	130.21
973.105	135.45
973.271	110.45
973.437	105.41
973.602	102.7
973.768	124.79
973.934	122.66
974.1	123.05
974.266	53.68
974.432	138.74
974.598	121.88
974.763	138.93
974.929	89.91
975.095	156.56
975.261	87.2
975.426	87.98
975.592	100.96
975.758	162.18
975.923	58.14
976.089	71.9
976.255	156.76
976.42	123.82
976.586	121.11
976.751	106.96
976.917	204.23
977.082	140.87
977.248	68.6
977.413	72.28
977.579	90.69
977.744	105.41
977.91	81.39
978.075	103.48
978.24	112.58
978.406	112.97
978.571	96.31
978.736	81
978.902	111.61
979.067	89.33
979.232	48.45
979.397	140.68
979.563	163.35
979.728	64.53
979.893	140.87
980.058	115.1
980.223	153.27
980.388	113.16
980.554	113.94
980.719	114.13
980.884	106
981.049	145.71
981.214	95.34
981.379	127.7
981.544	95.34
981.709	93.6
981.874	88.36
982.039	117.81
982.204	147.65
982.368	105.41
982.533	79.07
982.698	129.63
982.863	139.32
983.028	88.95
983.193	139.32
983.357	117.43
983.522	118.98
983.687	93.79
983.852	75.38
984.016	113.94
984.181	95.92
984.346	113.75
984.51	115.1
984.675	146.3
984.839	134.09
985.004	122.27
985.168	140.48
985.333	113.55
985.498	110.45
985.662	139.71
985.827	140.68
985.991	117.23
986.155	92.05
986.32	141.45
986.484	170.13
986.649	118.98
986.813	71.9
986.977	124.4
987.142	110.06
987.306	80.61
987.47	62.4
987.634	98.25
987.799	108.13
987.963	100.18
988.127	124.6
988.291	164.9
988.455	102.31
988.62	129.44
988.784	113.36
988.948	118.01
989.112	87.98
989.276	111.81
989.44	104.83
989.604	93.01
989.768	97.47
989.932	183.11
990.096	66.28
990.26	86.04
990.424	64.34
990.588	99.41
990.752	155.98
990.915	121.3
991.079	111.81
991.243	101.15
991.407	127.7
991.571	111.61
991.734	116.07
991.898	124.4
992.062	179.04
992.226	69.77
992.389	83.52
992.553	80.23
992.717	62.21
992.88	84.68
993.044	104.06
993.207	93.21
993.371	136.61
993.535	121.88
993.698	110.26
993.862	127.11
994.025	159.28
994.189	115.1
994.352	98.05
994.515	114.52
994.679	106.77
994.842	70.93
995.006	130.6
995.169	71.32
995.332	48.84
995.496	143
995.659	71.51
995.822	109.29
995.985	98.05
996.149	120.33
996.312	88.36
996.475	173.03
996.638	50
996.801	128.86
996.964	151.72
997.128	66.86
997.291	88.17
997.454	106.58
997.617	61.63
997.78	142.61
997.943	74.61
998.106	125.95
998.269	56.2
998.432	85.85
998.595	91.85
998.758	53.88
998.92	61.82
999.083	69.96
999.246	77.13
999.409	41.67
999.572	23.46
999.735	66.86
999.897	90.11
1000.06	80.61
1000.223	85.26
1000.386	134.09
1000.548	101.73
1000.711	89.91
1000.874	86.23
1001.036	51.17
1001.199	98.05
1001.361	61.63
1001.524	81
1001.687	107.55
1001.849	37.41
1002.012	80.81
1002.174	70.73
1002.337	124.6
1002.499	61.43
1002.661	87.59
1002.824	52.52
1002.986	62.6
1003.149	88.95
1003.311	46.13
1003.473	108.32
1003.636	50.39
1003.798	86.04
1003.96	79.84
1004.123	68.6
1004.285	45.93
1004.447	68.22
1004.609	72.87
1004.771	124.6
1004.933	46.13
1005.096	42.83
1005.258	26.75
1005.42	56.2
1005.582	101.15
1005.744	77.32
1005.906	32.76
1006.068	40.51
1006.23	37.6
1006.392	22.68
1006.554	55.23
1006.716	89.53
1006.878	67.83
1007.04	25.01
1007.202	52.72
1007.363	61.82
1007.525	74.8
1007.687	67.25
1007.849	96.5
1008.011	26.56
1008.172	37.41
1008.334	69.96
1008.496	91.27
1008.658	25.98
1008.819	48.07
1008.981	15.32
1009.143	36.05
1009.304	69.38
1009.466	22.88
1009.627	107.35
1009.789	130.99
1009.95	65.31
1010.112	17.26
1010.273	64.53
1010.435	36.05
1010.596	34.31
1010.758	52.91
1010.919	10.48
1011.081	26.75
1011.242	60.08
1011.403	52.33
1011.565	50
1011.726	76.55
1011.887	16.68
1012.049	41.67
1012.21	70.15
1012.371	130.99
1012.532	22.3
1012.693	73.45
1012.855	9.51
1013.016	54.27
1013.177	58.33
1013.338	36.63
1013.499	106.19
1013.66	91.08
1013.821	58.92
1013.982	48.07
1014.143	59.88
1014.304	31.98
1014.465	75
1014.626	68.22
1014.787	32.18
1014.948	114.13
1015.109	-25.36
1015.27	72.48
1015.431	42.06
1015.592	26.75
1015.752	77.9
1015.913	44.77
1016.074	52.91
1016.235	47.29
1016.395	37.99
1016.556	60.85
1016.717	27.33
1016.877	93.6
1017.038	27.72
1017.199	50
1017.359	46.9
1017.52	38.57
1017.681	37.99
1017.841	41.48
1018.002	36.44
1018.162	11.64
1018.323	58.14
1018.483	30.82
1018.644	26.75
1018.804	-5.99
1018.964	17.65
1019.125	17.07
1019.285	28.11
1019.446	14.16
1019.606	19.78
1019.766	-18.39
1019.926	39.93
1020.087	46.13
1020.247	-10.83
1020.407	42.64
1020.567	64.34
1020.728	42.64
1020.888	17.45
1021.048	-0.57
1021.208	9.12
1021.368	15.71
1021.528	84.1
1021.688	66.86
1021.848	88.56
1022.008	51.55
1022.168	38.18
1022.328	26.37
1022.488	20.75
1022.648	9.9
1022.808	33.53
1022.968	50.97
1023.128	-0.18
1023.288	25.4
1023.448	29.08
1023.608	39.35
1023.767	46.13
1023.927	-1.34
1024.087	-3.67
1024.247	-6.77
1024.406	9.51
1024.566	-22.07
1024.726	-3.08
1024.885	23.27
1025.045	44.19
1025.205	20.36
1025.364	18.81
1025.524	30.82
1025.683	11.45
1025.843	43.03
1026.003	7.77
1026.162	64.15
1026.321	56.59
1026.481	63.37
1026.64	-5.22
1026.8	49.03
1026.959	19.78
1027.119	49.42
1027.278	13.19
1027.437	-11.22
1027.597	30.82
1027.756	10.09
1027.915	17.26
1028.074	30.24
1028.234	13.19
1028.393	17.84
1028.552	-1.34
1028.711	-19.36
1028.87	55.82
1029.03	-25.56
1029.189	2.15
1029.348	-58.11
1029.507	-10.83
1029.666	4.08
1029.825	-27.3
1029.984	3.5
1030.143	28.88
1030.302	9.32
1030.461	-22.85
1030.62	3.7
1030.779	35.28
1030.938	9.51
1031.097	5.63
1031.255	55.23
1031.414	56.98
1031.573	62.79
1031.732	-57.14
1031.891	26.75
1032.049	72.48
1032.208	26.56
1032.367	-15.68
1032.525	0.4
1032.684	19.78
1032.843	-0.95
1033.001	-30.4
1033.16	140.48
1033.319	36.83
1033.477	40.9
1033.636	2.53
1033.794	-28.66
1033.953	25.01
1034.111	36.63
1034.27	31.21
1034.428	18.62
1034.587	16.48
1034.745	13.19
1034.903	19
1035.062	35.67
1035.22	-1.73
1035.378	53.3
1035.537	-15.68
1035.695	40.12
1035.853	4.28
1036.011	52.52
1036.17	24.04
1036.328	-50.55
1036.486	14.35
1036.644	14.74
1036.802	-34.08
1036.96	-9.48
1037.119	15.32
1037.277	2.15
1037.435	-32.34
1037.593	-7.93
1037.751	15.52
1037.909	37.99
1038.067	37.99
