Data from gum_young_FLMT105791__14__17-38-13-045.txt Node

Date: Mon Mar 20 17:38:13 GMT 2023
User: antho
Spectrometer: FLMT10579
Trigger mode: 0
Integration Time (sec): 1.000000E-1
Scans to average: 10
Electric dark correction enabled: true
Nonlinearity correction enabled: false
Boxcar width: 0
XAxis mode: Wavelengths
Number of Pixels in Spectrum: 3648
>>>>>Begin Spectral Data<<<<<
345.248	-151.54
345.464	-151.54
345.681	-151.54
345.898	-144.37
346.114	-135.07
346.331	4.04
346.548	28.84
346.764	-35.88
346.981	-5.84
347.197	-9.14
347.414	10.62
347.631	-8.56
347.847	43.95
348.064	-12.24
348.28	18.37
348.497	-34.91
348.713	0.74
348.93	13.34
349.146	41.24
349.363	-2.94
349.579	7.91
349.796	4.04
350.012	-10.49
350.229	25.74
350.445	-5.65
350.661	-18.83
350.878	9.66
351.094	4.62
351.311	18.37
351.527	17.21
351.743	-22.12
351.96	43.17
352.176	36.59
352.392	14.11
352.609	23.41
352.825	-7.59
353.041	14.31
353.257	-0.03
353.474	22.83
353.69	-9.53
353.906	3.84
354.122	-32.58
354.339	43.17
354.555	5.2
354.771	-7.78
354.987	41.24
355.203	48.6
355.42	3.46
355.636	-1.19
355.852	11.21
356.068	2.1
356.284	-43.82
356.5	73.01
356.716	28.45
356.932	5.2
357.148	37.17
357.364	-16.5
357.58	63.71
357.796	77.08
358.012	19.73
358.228	22.44
358.444	-34.13
358.66	62.94
358.876	22.64
359.092	0.55
359.308	7.72
359.524	19.15
359.74	-7.2
359.956	-13.01
360.172	20.7
360.388	44.53
360.604	-11.66
360.819	61.58
361.035	45.5
361.251	54.22
361.467	-22.7
361.683	39.1
361.898	11.59
362.114	20.31
362.33	5.97
362.546	35.04
362.762	20.89
362.977	24.38
363.193	-5.65
363.409	27.87
363.624	-39.94
363.84	-11.66
364.056	-19.02
364.271	15.66
364.487	34.65
364.703	10.82
364.918	-4.88
365.134	12.37
365.35	-8.17
365.565	80.57
365.781	45.69
365.996	16.05
366.212	58.09
366.427	58.48
366.643	-5.65
366.858	-11.08
367.074	-24.44
367.289	52.67
367.505	102.27
367.72	-24.06
367.936	-9.14
368.151	31.55
368.367	20.7
368.582	-7.78
368.798	10.24
369.013	62.35
369.228	32.9
369.444	11.01
369.659	72.62
369.874	34.07
370.09	54.41
370.305	-32.19
370.52	1.32
370.736	71.27
370.951	17.21
371.166	48.99
371.381	82.31
371.597	63.9
371.812	-22.31
372.027	-3.52
372.242	6.94
372.458	51.31
372.673	-20.18
372.888	33.68
373.103	21.67
373.318	88.32
373.533	38.52
373.749	41.43
373.964	2.49
374.179	31.94
374.394	-8.94
374.609	72.62
374.824	-7.2
375.039	82.89
375.254	-7.01
375.469	63.9
375.684	48.02
375.899	53.64
376.114	39.1
376.329	3.07
376.544	59.45
376.759	13.53
376.974	-10.3
377.189	19.92
377.404	9.46
377.619	58.29
377.834	-24.83
378.049	-11.46
378.264	-1.97
378.478	17.6
378.693	17.02
378.908	6.36
379.123	36.59
379.338	73.4
379.553	14.11
379.767	2.49
379.982	13.14
380.197	39.88
380.412	32.71
380.626	26.7
380.841	83.09
381.056	47.05
381.271	69.14
381.485	-22.31
381.7	1.91
381.915	32.71
382.129	37.17
382.344	36.2
382.559	6.94
382.773	70.3
382.988	-29.87
383.202	60.8
383.417	0.74
383.632	103.04
383.846	33.49
384.061	40.27
384.275	48.21
384.49	47.44
384.704	50.73
384.919	32.52
385.133	40.85
385.348	55.19
385.562	-6.62
385.777	61.39
385.991	25.54
386.206	14.11
386.42	-1.19
386.634	58.29
386.849	53.44
387.063	51.12
387.277	-5.84
387.492	25.15
387.706	22.05
387.92	-2.55
388.135	46.08
388.349	38.14
388.563	19.73
388.778	36.97
388.992	33.68
389.206	44.72
389.42	85.41
389.635	28.64
389.849	58.67
390.063	44.53
390.277	47.44
390.491	90.84
390.706	54.99
390.92	63.52
391.134	43.75
391.348	60.03
391.562	-2.36
391.776	11.01
391.99	0.74
392.205	71.46
392.419	25.74
392.633	5.01
392.847	58.67
393.061	-2.36
393.275	88.7
393.489	45.3
393.703	20.89
393.917	76.3
394.131	7.52
394.345	34.65
394.559	81.15
394.773	35.62
394.986	60.8
395.2	56.74
395.414	58.67
395.628	-12.82
395.842	66.62
396.056	53.25
396.27	-6.43
396.484	51.89
396.697	47.44
396.911	65.84
397.125	62.55
397.339	63.71
397.553	45.89
397.766	84.83
397.98	82.31
398.194	80.57
398.408	31.55
398.621	42.79
398.835	68.17
399.049	54.99
399.262	95.68
399.476	85.99
399.69	68.55
399.903	122.61
400.117	68.55
400.331	71.46
400.544	48.79
400.758	154.38
400.971	70.1
401.185	76.89
401.398	34.26
401.612	98
401.826	73.59
402.039	76.5
402.253	47.24
402.466	90.64
402.68	74.17
402.893	60.03
403.106	77.47
403.32	81.92
403.533	88.9
403.747	75.14
403.96	85.22
404.174	97.42
404.387	41.62
404.6	80.95
404.814	89.67
405.027	47.63
405.24	58.48
405.454	66.23
405.667	104.59
405.88	29.8
406.094	110.98
406.307	87.35
406.52	88.32
406.733	58.67
406.947	35.04
407.16	142.37
407.373	117.18
407.586	73.4
407.799	73.01
408.012	99.75
408.226	79.79
408.439	105.17
408.652	19.34
408.865	106.72
409.078	130.55
409.291	96.26
409.504	46.66
409.717	133.65
409.93	122.61
410.143	99.55
410.357	65.26
410.57	47.05
410.783	65.45
410.996	85.22
411.209	83.86
411.421	117.96
411.634	69.91
411.847	70.1
412.06	95.1
412.273	115.63
412.486	94.71
412.699	193.52
412.912	102.27
413.125	137.72
413.338	100.72
413.55	124.35
413.763	105.75
413.976	101.49
414.189	59.45
414.402	77.27
414.615	144.7
414.827	92.58
415.04	107.69
415.253	135.4
415.466	119.9
415.678	182.87
415.891	116.02
416.104	97.62
416.316	107.69
416.529	101.49
416.742	132.3
416.954	131.52
417.167	114.28
417.38	91.61
417.592	148.77
417.805	92
418.017	72.43
418.23	126.87
418.442	113.89
418.655	108.27
418.868	143.73
419.08	150.32
419.293	139.85
419.505	106.14
419.718	139.08
419.93	154
420.142	130.55
420.355	153.22
420.567	164.46
420.78	166.59
420.992	126.48
421.205	165.82
421.417	82.89
421.629	113.89
421.842	108.27
422.054	81.92
422.266	152.25
422.479	170.08
422.691	99.55
422.903	140.24
423.115	98.39
423.328	115.44
423.54	147.99
423.752	109.82
423.964	100.72
424.177	130.75
424.389	120.28
424.601	230.53
424.813	136.56
425.025	164.65
425.238	161.36
425.45	131.13
425.662	124.55
425.874	385.91
426.086	148.96
426.298	155.35
426.51	157.29
426.722	129.78
426.934	124.55
427.146	172.4
427.358	84.83
427.57	162.91
427.782	138.88
427.994	131.13
428.206	102.07
428.418	104.59
428.63	188.87
428.842	179.38
429.054	167.17
429.266	175.7
429.478	128.42
429.69	151.87
429.902	69.72
430.114	181.51
430.325	142.95
430.537	118.15
430.749	129.58
430.961	73.59
431.173	110.98
431.384	149.54
431.596	70.49
431.808	118.73
432.02	151.28
432.231	191.58
432.443	172.4
432.655	149.15
432.867	125.32
433.078	165.43
433.29	228.01
433.502	188.29
433.713	166.59
433.925	174.92
434.136	187.13
434.348	120.09
434.56	109.24
434.771	242.73
434.983	135.4
435.194	150.51
435.406	137.72
435.617	229.17
435.829	218.9
436.04	186.74
436.252	183.06
436.463	234.98
436.675	222
436.886	173.95
437.098	189.84
437.309	228.98
437.521	179.57
437.732	185.38
437.943	201.85
438.155	170.08
438.366	166.4
438.578	236.92
438.789	207.08
439	193.52
439.211	180.93
439.423	202.24
439.634	208.83
439.845	219.29
440.057	203.21
440.268	219.48
440.479	158.45
440.69	219.29
440.902	181.9
441.113	194.49
441.324	183.83
441.535	210.38
441.746	246.03
441.957	170.27
442.168	205.73
442.38	214.64
442.591	238.08
442.802	220.06
443.013	185
443.224	234.79
443.435	189.45
443.646	216.77
443.857	216.19
444.068	179.77
444.279	189.07
444.49	278.77
444.701	230.91
444.912	332.83
445.123	248.93
445.334	245.25
445.545	243.51
445.756	229.56
445.967	193.71
446.178	247.96
446.388	250.1
446.599	262.5
446.81	252.42
447.021	217.93
447.232	267.53
447.443	282.26
447.653	234.4
447.864	273.93
448.075	238.47
448.286	296.59
448.496	267.92
448.707	285.74
448.918	251.45
449.129	332.44
449.339	224.52
449.55	273.73
449.761	262.88
449.971	324.88
450.182	258.81
450.393	282.26
450.603	277.99
450.814	277.41
451.024	271.8
451.235	321.59
451.446	327.4
451.656	322.17
451.867	259.01
452.077	291.94
452.288	325.85
452.498	330.11
452.709	270.25
452.919	306.48
453.13	264.24
453.34	330.31
453.55	236.73
453.761	320.04
453.971	276.45
454.182	330.11
454.392	285.16
454.602	331.08
454.813	318.88
455.023	343.87
455.233	274.12
455.444	314.81
455.654	237.7
455.864	273.93
456.075	290.39
456.285	288.07
456.495	302.21
456.705	309.19
456.916	351.43
457.126	377
457.336	303.57
457.546	277.61
457.756	298.92
457.967	350.46
458.177	324.49
458.387	299.31
458.597	296.59
458.807	309.77
459.017	310.93
459.227	304.34
459.437	320.23
459.647	344.45
459.857	327.59
460.068	313.06
460.278	357.82
460.488	352.59
460.698	372.16
460.908	334.57
461.117	303.18
461.327	309.58
461.537	342.9
461.747	335.73
461.957	354.53
462.167	434.74
462.377	377.77
462.587	351.23
462.797	393.08
463.007	355.11
463.216	382.62
463.426	381.46
463.636	360.92
463.846	320.62
464.056	338.06
464.265	371.57
464.475	346.19
464.685	352.98
464.895	364.99
465.104	348.33
465.314	393.27
465.524	328.76
465.733	342.9
465.943	429.31
466.153	408.39
466.362	408.19
466.572	373.32
466.782	367.12
466.991	387.07
467.201	430.09
467.41	325.08
467.62	400.64
467.829	372.93
468.039	393.86
468.249	370.22
468.458	398.12
468.668	417.11
468.877	385.14
469.086	432.99
469.296	425.05
469.505	378.74
469.715	453.72
469.924	429.12
470.134	437.06
470.343	428.34
470.552	372.54
470.762	425.05
470.971	370.41
471.18	418.85
471.39	407.61
471.599	366.54
471.808	439.39
472.018	368.09
472.227	443.84
472.436	471.94
472.645	431.25
472.855	418.46
473.064	448.49
473.273	459.34
473.482	465.35
473.691	467.09
473.901	468.45
474.11	432.02
474.319	534.71
474.528	431.64
474.737	494.8
474.946	475.81
475.155	467.09
475.364	496.15
475.573	468.06
475.783	507.2
475.992	499.64
476.201	511.65
476.41	482.2
476.619	464.77
476.828	505.26
477.037	461.28
477.245	495.38
477.454	524.25
477.663	464.96
477.872	490.54
478.081	571.72
478.29	482.98
478.499	609.5
478.708	536.07
478.917	603.3
479.125	520.57
479.334	540.72
479.543	549.24
479.752	581.21
479.961	561.06
480.169	587.99
480.378	564.93
480.587	676.34
480.796	596.71
481.004	559.51
481.213	599.23
481.422	584.7
481.63	601.17
481.839	596.9
482.048	655.03
482.256	607.95
482.465	596.32
482.674	647.47
482.882	656
483.091	714.7
483.299	622.48
483.508	686.61
483.716	664.52
483.925	644.95
484.134	632.75
484.342	628.1
484.551	664.13
484.759	644.56
484.967	646.11
485.176	689.71
485.384	683.9
485.593	696.88
485.801	690.68
486.01	641.46
486.218	607.17
486.426	561.64
486.635	616.08
486.843	587.8
487.051	595.93
487.26	607.56
487.468	624.42
487.676	640.88
487.885	669.56
488.093	663.55
488.301	686.22
488.509	720.9
488.717	742.6
488.926	696.88
489.134	709.08
489.342	713.73
489.55	695.13
489.758	711.21
489.967	707.15
490.175	826.69
490.383	723.42
490.591	786.58
490.799	750.16
491.007	807.7
491.215	755.97
491.423	764.69
491.631	748.61
491.839	778.64
492.047	796.66
492.255	752.29
492.463	706.56
492.671	722.45
492.879	811.57
493.087	773.79
493.295	793.75
493.503	817.58
493.711	823.39
493.919	829.21
494.127	848.19
494.334	878.03
494.542	776.7
494.75	852.07
494.958	819.91
495.166	915.42
495.374	863.69
495.581	859.82
495.789	895.66
495.997	910.19
496.205	850.13
496.412	838.51
496.62	880.74
496.828	894.69
497.035	872.02
497.243	911.74
497.451	875.51
497.658	907.48
497.866	897.99
498.074	969.87
498.281	896.05
498.489	965.22
498.696	897.21
498.904	892.56
499.112	897.79
499.319	968.12
499.527	956.11
499.734	992.92
499.942	884.04
500.149	944.49
500.357	934.02
500.564	898.37
500.771	945.65
500.979	906.7
501.186	934.41
501.394	956.89
501.601	920.65
501.808	952.24
502.016	949.72
502.223	925.69
502.43	950.88
502.638	941.58
502.845	948.55
503.052	1029.54
503.26	955.53
503.467	1044.85
503.674	1010.36
503.881	1005.32
504.089	1063.45
504.296	1022.95
504.503	985.95
504.71	1024.7
504.917	982.85
505.125	1049.11
505.332	1048.33
505.539	1086.11
505.746	1167.29
505.953	1083.21
506.16	1092.51
506.367	1163.42
506.574	1151.21
506.781	1158.77
506.988	1114.79
507.195	1130.48
507.402	1123.12
507.609	1148.7
507.816	1124.67
508.023	1116.73
508.23	1096.96
508.437	1120.21
508.644	1187.06
508.851	1201.2
509.058	1199.46
509.265	1180.47
509.472	1219.41
509.679	1274.24
509.885	1242.08
510.092	1214.38
510.299	1229.29
510.506	1219.61
510.713	1258.94
510.92	1260.29
511.126	1280.64
511.333	1326.55
511.54	1314.74
511.746	1365.5
511.953	1373.05
512.16	1399.99
512.367	1335.85
512.573	1331.79
512.78	1373.64
512.987	1344.19
513.193	1347.29
513.4	1276.96
513.606	1343.41
513.813	1379.25
514.02	1392.04
514.226	1415.68
514.433	1442.8
514.639	1357.94
514.846	1382.35
515.052	1391.27
515.259	1443.58
515.465	1465.28
515.672	1433.7
515.878	1530.57
516.085	1485.23
516.291	1533.48
516.497	1469.54
516.704	1451.33
516.91	1404.25
517.117	1388.36
517.323	1311.83
517.529	1351.16
517.736	1377.32
517.942	1402.31
518.148	1415.68
518.354	1452.68
518.561	1446.68
518.767	1457.72
518.973	1497.83
519.179	1512.94
519.386	1512.94
519.592	1545.1
519.798	1513.71
520.004	1617.18
520.21	1615.82
520.417	1644.49
520.623	1694.87
520.829	1722.38
521.035	1713.86
521.241	1727.81
521.447	1735.56
521.653	1861.1
521.859	1747.37
522.065	1782.64
522.271	1854.52
522.477	1821.97
522.683	1856.84
522.889	1827.39
523.095	1819.64
523.301	1841.34
523.507	1764.23
523.713	1837.66
523.919	1786.7
524.125	1914.77
524.331	1924.07
524.537	1987.23
524.742	1939.38
524.948	2051.36
525.154	1998.28
525.36	2103.09
525.566	1954.68
525.772	2063.18
525.977	1974.06
526.183	1998.08
526.389	2030.05
526.595	1951
526.8	1951.2
527.006	1897.14
527.212	1837.85
527.417	1812.47
527.623	1857.42
527.829	1923.3
528.034	1973.67
528.24	1968.83
528.446	2019.4
528.651	2117.62
528.857	2099.22
529.062	2164.9
529.268	2162.19
529.473	2169.55
529.679	2180.01
529.884	2243.17
530.09	2207.52
530.295	2180.79
530.501	2209.65
530.706	2220.5
530.912	2178.07
531.117	2240.46
531.323	2215.47
531.528	2258.09
531.733	2310.02
531.939	2263.52
532.144	2304.78
532.35	2274.17
532.555	2301.49
532.76	2237.36
532.966	2226.32
533.171	2206.75
533.376	2194.74
533.581	2162.96
533.787	2205
533.992	2257.9
534.197	2294.52
534.402	2294.9
534.607	2249.57
534.813	2374.73
535.018	2306.33
535.223	2319.9
535.428	2320.48
535.633	2386.55
535.838	2382.09
536.043	2388.1
536.249	2479.16
536.454	2384.03
536.659	2421.03
536.864	2349.35
537.069	2358.84
537.274	2399.14
537.479	2379.18
537.684	2385.77
537.889	2360.78
538.094	2472.96
538.299	2386.16
538.504	2466.95
538.708	2463.66
538.913	2484.78
539.118	2413.67
539.323	2458.81
539.528	2385
539.733	2416
539.938	2438.66
540.142	2441.76
540.347	2402.05
540.552	2371.43
540.757	2380.54
540.962	2389.84
541.166	2311.95
541.371	2351.48
541.576	2401.46
541.781	2276.11
541.985	2426.65
542.19	2400.88
542.395	2511.9
542.599	2538.25
542.804	2448.74
543.008	2537.09
543.213	2431.69
543.418	2405.92
543.622	2503.18
543.827	2421.03
544.031	2529.53
544.236	2558.4
544.44	2535.93
544.645	2602.77
544.849	2525.08
545.054	2528.76
545.258	2616.52
545.463	2564.79
545.667	2514.03
545.872	2547.16
546.076	2501.05
546.281	2574.87
546.485	2509.96
546.689	2585.33
546.894	2548.91
547.098	2552.97
547.302	2553.17
547.507	2550.65
547.711	2575.45
547.915	2562.08
548.119	2546.97
548.324	2476.83
548.528	2583.97
548.732	2529.14
548.936	2631.83
549.141	2587.85
549.345	2597.15
549.549	2598.51
549.753	2586.88
549.957	2651.98
550.161	2668.06
550.366	2637.06
550.57	2582.62
550.774	2615.75
550.978	2605.29
551.182	2563.24
551.386	2558.01
551.59	2557.24
551.794	2610.32
551.998	2617.49
552.202	2559.95
552.406	2564.99
552.61	2655.85
552.814	2602.38
553.018	2669.8
553.222	2600.25
553.426	2579.71
553.63	2676.2
553.833	2583.01
554.037	2565.76
554.241	2614.78
554.445	2662.05
554.649	2639.97
554.853	2611.68
555.056	2603.35
555.26	2689.37
555.464	2603.74
555.668	2641.32
555.871	2671.94
556.075	2658.76
556.279	2583.78
556.483	2564.02
556.686	2575.45
556.89	2556.07
557.094	2585.52
557.297	2513.26
557.501	2595.79
557.704	2492.33
557.908	2553.17
558.112	2521.01
558.315	2557.82
558.519	2525.08
558.722	2484.97
558.926	2487.88
559.129	2379.18
559.333	2416.96
559.536	2428.01
559.74	2412.9
559.943	2402.05
560.147	2402.24
560.35	2406.11
560.553	2411.93
560.757	2395.07
560.96	2481.09
561.164	2408.05
561.367	2508.22
561.57	2425.68
561.774	2472.18
561.977	2431.5
562.18	2369.11
562.384	2476.25
562.587	2406.89
562.79	2393.33
562.993	2374.15
563.197	2437.11
563.4	2453.2
563.603	2484.58
563.806	2495.43
564.009	2402.43
564.212	2454.94
564.416	2350.9
564.619	2409.8
564.822	2317.96
565.025	2399.33
565.228	2321.06
565.431	2385.77
565.634	2280.95
565.837	2300.72
566.04	2229.8
566.243	2244.72
566.446	2201.52
566.649	2267.78
566.852	2227.29
567.055	2292.38
567.258	2275.72
567.461	2328.03
567.664	2351.09
567.867	2248.6
568.07	2248.4
568.273	2271.85
568.475	2246.85
568.678	2202.87
568.881	2179.04
569.084	2182.92
569.287	2092.83
569.489	2115.11
569.692	2172.84
569.895	2182.53
570.098	2102.9
570.3	2114.14
570.503	2023.08
570.706	2045.16
570.909	2049.23
571.111	1990.72
571.314	2016.3
571.516	2032.76
571.719	2076.94
571.922	2027.53
572.124	2059.11
572.327	2025.98
572.529	1970.38
572.732	2009.51
572.935	2017.26
573.137	2098.64
573.34	2000.21
573.542	2073.26
573.745	2020.17
573.947	2036.06
574.15	2009.71
574.352	1993.24
574.554	2057.95
574.757	1996.73
574.959	1966.11
575.162	1920.2
575.364	1937.83
575.566	2052.91
575.769	1913.03
575.971	1951.39
576.173	1799.49
576.376	1917.87
576.578	1979.1
576.78	2018.04
576.982	1851.42
577.185	1907.02
577.387	1866.53
577.589	1869.82
577.791	1896.17
577.993	1915.74
578.196	1892.49
578.398	1871.18
578.6	1880.28
578.802	1834.75
579.004	1827.78
579.206	1830.1
579.408	1865.95
579.61	1823.9
579.812	1881.83
580.014	1836.89
580.216	1834.37
580.418	1842.31
580.62	1813.64
580.822	1809.95
581.024	1854.13
581.226	1881.45
581.428	1845.99
581.63	1937.63
581.832	1834.56
582.034	1885.13
582.236	1887.65
582.438	1932.6
582.64	1971.15
582.841	1925.82
583.043	1944.03
583.245	1911.28
583.447	1917.1
583.649	1880.48
583.85	1927.75
584.052	1906.25
584.254	1832.82
584.456	1919.42
584.657	1865.56
584.859	1846.96
585.061	1876.02
585.262	1843.47
585.464	1775.47
585.666	1924.07
585.867	1832.62
586.069	1844.83
586.27	1821.77
586.472	1841.15
586.674	1834.95
586.875	1819.06
587.077	1774.11
587.278	1844.44
587.48	1816.15
587.681	1907.99
587.883	1794.84
588.084	1743.5
588.285	1769.27
588.487	1725.67
588.688	1795.81
588.89	1659.61
589.091	1636.55
589.292	1613.11
589.494	1605.55
589.695	1539.29
589.896	1500.73
590.098	1493.57
590.299	1567.96
590.5	1541.61
590.702	1594.31
590.903	1617.18
591.104	1662.32
591.305	1602.84
591.507	1686.15
591.708	1691.77
591.909	1656.89
592.11	1732.46
592.311	1688.47
592.512	1636.74
592.714	1585.79
592.915	1626.67
593.116	1644.69
593.317	1657.86
593.518	1648.95
593.719	1640.62
593.92	1655.73
594.121	1734.59
594.322	1655.54
594.523	1636.94
594.724	1583.85
594.925	1627.06
595.126	1646.24
595.327	1624.93
595.528	1647.21
595.729	1628.03
595.929	1612.53
596.13	1645.46
596.331	1664.26
596.532	1672.01
596.733	1696.03
596.934	1693.12
597.135	1651.47
597.335	1689.83
597.536	1643.72
597.737	1657.86
597.938	1630.16
598.138	1661.54
598.339	1643.72
598.54	1675.69
598.74	1678.59
598.941	1659.99
599.142	1699.32
599.342	1663.09
599.543	1631.13
599.744	1624.54
599.944	1638.88
600.145	1635
600.345	1612.14
600.546	1691.77
600.746	1704.17
600.947	1719.67
601.147	1615.43
601.348	1672.39
601.548	1585.4
601.749	1650.89
601.949	1620.86
602.15	1570.1
602.35	1612.14
602.551	1668.71
602.751	1605.36
602.951	1604.19
603.152	1540.45
603.352	1622.21
603.552	1620.66
603.753	1634.23
603.953	1644.11
604.153	1634.23
604.354	1642.17
604.554	1640.81
604.754	1636.55
604.954	1594.51
605.155	1622.41
605.355	1609.62
605.555	1677.62
605.755	1683.05
605.955	1657.28
606.155	1631.32
606.356	1619.5
606.556	1657.28
606.756	1648.18
606.956	1582.5
607.156	1660.19
607.356	1594.51
607.556	1638.49
607.756	1621.63
607.956	1638.29
608.156	1650.89
608.356	1581.72
608.556	1642.36
608.756	1606.91
608.956	1555.76
609.156	1582.3
609.356	1527.66
609.556	1535.61
609.755	1576.3
609.955	1542.58
610.155	1558.47
610.355	1569.13
610.555	1504.22
610.755	1515.65
610.954	1505.19
611.154	1544.52
611.354	1543.75
611.554	1525.92
611.753	1520.88
611.953	1518.95
612.153	1553.05
612.352	1564.09
612.552	1485.04
612.752	1466.05
612.951	1514.3
613.151	1477.48
613.351	1467.6
613.55	1498.6
613.75	1502.28
613.949	1480
614.149	1460.43
614.348	1446.87
614.548	1436.6
614.747	1430.98
614.947	1426.92
615.146	1422.07
615.346	1464.89
615.545	1459.08
615.745	1446.48
615.944	1486.01
616.144	1414.9
616.343	1450.94
616.542	1443.97
616.742	1415.87
616.941	1443.77
617.14	1334.11
617.34	1393.01
617.539	1399.6
617.738	1416.45
617.938	1482.91
618.137	1390.88
618.336	1375.77
618.535	1419.75
618.734	1400.18
618.934	1423.04
619.133	1414.52
619.332	1429.05
619.531	1408.12
619.73	1395.72
619.929	1429.63
620.128	1442.8
620.328	1436.8
620.527	1388.17
620.726	1364.34
620.925	1387.97
621.124	1368.99
621.323	1376.74
621.522	1310.09
621.721	1342.44
621.92	1339.73
622.119	1379.84
622.318	1340.5
622.517	1357.36
622.715	1340.89
622.914	1283.93
623.113	1336.63
623.312	1284.32
623.511	1355.04
623.71	1346.12
623.909	1307.76
624.107	1405.41
624.306	1275.6
624.505	1312.41
624.704	1307.96
624.902	1278.51
625.101	1320.94
625.3	1293.23
625.499	1266.3
625.697	1259.13
625.896	1257.19
626.095	1293.81
626.293	1270.17
626.492	1259.52
626.69	1258.74
626.889	1251.96
627.088	1282.57
627.286	1247.51
627.485	1227.16
627.683	1209.14
627.882	1259.71
628.08	1158.58
628.279	1220.96
628.477	1264.17
628.676	1172.72
628.874	1219.61
629.073	1184.54
629.271	1169.04
629.469	1230.84
629.668	1221.93
629.866	1167.1
630.065	1179.11
630.263	1215.34
630.461	1149.08
630.66	1222.51
630.858	1244.41
631.056	1257
631.254	1257.19
631.453	1207.79
631.651	1237.82
631.849	1207.59
632.047	1189.96
632.245	1207.01
632.444	1206.43
632.642	1217.09
632.84	1265.14
633.038	1253.12
633.236	1191.9
633.434	1195.39
633.632	1191.9
633.83	1199.84
634.028	1226
634.227	1222.71
634.425	1294.59
634.623	1239.37
634.821	1248.86
635.019	1228.91
635.216	1209.92
635.414	1271.34
635.612	1241.5
635.81	1206.24
636.008	1289.94
636.206	1218.06
636.404	1224.26
636.602	1211.66
636.8	1211.47
636.997	1236.27
637.195	1229.29
637.393	1238.79
637.591	1272.69
637.789	1223.48
637.986	1201.78
638.184	1207.01
638.382	1270.37
638.58	1267.46
638.777	1276.37
638.975	1248.47
639.173	1210.89
639.37	1207.01
639.568	1221.54
639.765	1261.84
639.963	1182.6
640.161	1249.64
640.358	1250.61
640.556	1161.68
640.753	1179.11
640.951	1153.34
641.148	1168.07
641.346	1139.78
641.543	1154.31
641.741	1172.91
641.938	1115.76
642.136	1161.87
642.333	1135.71
642.531	1186.86
642.728	1187.06
642.925	1119.44
643.123	1118.86
643.32	1156.64
643.517	1102.2
643.715	1135.52
643.912	1110.14
644.109	1141.53
644.306	1131.26
644.504	1096.58
644.701	1115.37
644.898	1138.62
645.095	1059.96
645.293	1127.38
645.49	1099.29
645.687	1084.18
645.884	1122.15
646.081	1009
646.278	1028.57
646.475	1034.97
646.672	1012.3
646.87	1019.47
647.067	1006.48
647.264	1037.1
647.461	1005.9
647.658	984.2
647.855	1010.17
648.052	1001.06
648.249	901.47
648.446	988.08
648.642	976.26
648.839	946.81
649.036	934.99
649.233	911.16
649.43	919.88
649.627	921.62
649.824	923.37
650.021	934.22
650.217	924.53
650.414	911.55
650.611	979.17
650.808	944.49
651.004	936.54
651.201	943.9
651.398	998.93
651.595	947.59
651.791	920.07
651.988	934.99
652.185	886.56
652.381	936.93
652.578	890.82
652.775	941.77
652.971	962.31
653.168	910.77
653.364	965.41
653.561	871.64
653.757	889.65
653.954	924.14
654.15	894.69
654.347	976.65
654.543	908.64
654.74	880.36
654.936	845.29
655.133	882.68
655.329	898.18
655.525	841.02
655.722	891.2
655.918	833.86
656.115	851.29
656.311	778.25
656.507	738.92
656.704	729.23
656.9	780.58
657.096	741.63
657.292	748.99
657.489	821.84
657.685	798.79
657.881	792.59
658.077	781.54
658.273	803.24
658.47	890.04
658.666	839.67
658.862	848
659.058	830.17
659.254	881.71
659.45	819.71
659.646	831.72
659.842	803.05
660.038	899.54
660.234	807.7
660.43	838.89
660.626	912.9
660.822	839.47
661.018	858.85
661.214	825.91
661.41	796.85
661.606	852.65
661.802	846.26
661.998	833.86
662.194	800.53
662.39	834.82
662.586	851.68
662.781	862.53
662.977	838.7
663.173	872.22
663.369	790.07
663.564	837.73
663.76	824.36
663.956	814.67
664.152	827.46
664.347	755.78
664.543	804.99
664.739	802.08
664.934	728.84
665.13	739.11
665.326	789.29
665.521	788.52
665.717	735.63
665.912	742.99
666.108	725.74
666.304	761.39
666.499	764.88
666.695	695.52
666.89	739.5
667.086	806.92
667.281	767.01
667.477	815.06
667.672	745.31
667.867	753.26
668.063	739.31
668.258	710.63
668.454	748.99
668.649	810.8
668.844	760.43
669.04	750.16
669.235	739.69
669.43	724
669.626	693.78
669.821	713.54
670.016	678.28
670.211	736.98
670.407	712.38
670.602	706.37
670.797	724.97
670.992	730.2
671.187	671.88
671.382	718.38
671.578	687.77
671.773	705.4
671.968	662.78
672.163	705.6
672.358	757.52
672.553	683.9
672.748	648.83
672.943	766.04
673.138	686.22
673.333	730.59
673.528	661.03
673.723	686.41
673.918	695.91
674.113	671.88
674.308	724.39
674.503	661.42
674.698	691.45
674.892	678.08
675.087	684.48
675.282	679.05
675.477	654.25
675.672	716.25
675.867	683.9
676.061	655.61
676.256	668.01
676.451	653.86
676.646	699.78
676.84	691.65
677.035	647.08
677.23	617.44
677.424	712.76
677.619	703.46
677.814	701.14
678.008	722.64
678.203	644.37
678.397	661.23
678.592	658.13
678.787	689.13
678.981	677.7
679.176	665.3
679.37	697.85
679.565	649.6
679.759	663.75
679.954	702.69
680.148	687.38
680.342	714.89
680.537	690.48
680.731	662.97
680.926	688.74
681.12	687.19
681.314	671.11
681.509	653.67
681.703	675.76
681.897	692.81
682.092	684.09
682.286	654.83
682.48	720.71
682.674	727.1
682.869	685.45
683.063	675.76
683.257	706.76
683.451	676.15
683.645	708.31
683.839	678.47
684.034	667.04
684.228	709.47
684.422	653.67
684.616	691.06
684.81	737.76
685.004	715.86
685.198	700.17
685.392	699.01
685.586	685.25
685.78	710.25
685.974	746.28
686.168	748.03
686.362	761.78
686.556	672.08
686.75	660.84
686.944	647.28
687.138	652.31
687.331	555.05
687.525	606.01
687.719	534.52
687.913	585.67
688.107	615.12
688.301	578.11
688.494	631.39
688.688	571.33
688.882	632.55
689.076	605.43
689.269	641.27
689.463	691.26
689.657	686.03
689.85	668.59
690.044	656.19
690.238	677.11
690.431	671.69
690.625	720.9
690.818	759.46
691.012	798.79
691.205	795.88
691.399	751.51
691.593	813.9
691.786	873.38
691.98	872.8
692.173	920.46
692.366	916.78
692.56	924.92
692.753	934.02
692.947	889.85
693.14	952.43
693.333	959.6
693.527	918.33
693.72	978.78
693.914	992.15
694.107	953.59
694.3	977.23
694.493	972.77
694.687	1034.77
694.88	1030.12
695.073	1060.15
695.266	1090.18
695.46	1083.4
695.653	1127.58
695.846	1156.83
696.039	1067.71
696.232	1110.72
696.425	1193.64
696.618	1203.72
696.812	1207.79
697.005	1278.89
697.198	1360.46
697.391	1348.25
697.584	1342.05
697.777	1414.32
697.97	1360.65
698.163	1382.74
698.356	1351.35
698.549	1486.2
698.742	1454.82
698.935	1379.84
699.127	1446.48
699.32	1403.86
699.513	1399.02
699.706	1410.45
699.899	1484.27
700.092	1466.44
700.285	1488.72
700.477	1420.13
700.67	1487.75
700.863	1512.16
701.056	1611.94
701.248	1575.71
701.441	1580.17
701.634	1554.98
701.826	1673.75
702.019	1579.98
702.212	1621.05
702.404	1584.24
702.597	1594.51
702.79	1638.88
702.982	1669.88
703.175	1693.71
703.367	1678.59
703.56	1770.04
703.752	1829.33
703.945	1766.36
704.137	1806.08
704.33	1857.03
704.522	1828.36
704.715	1848.7
704.907	1845.02
705.1	1923.1
705.292	1907.8
705.484	1897.72
705.677	1950.23
705.869	1931.82
706.061	1998.08
706.254	2005.25
706.446	1973.48
706.638	2001.18
706.831	2052.14
707.023	2036.83
707.215	2159.67
707.407	2105.81
707.599	2104.45
707.792	2150.56
707.984	2130.22
708.176	2165.29
708.368	2143.39
708.56	2145.52
708.752	2151.14
708.944	2136.03
709.136	2195.32
709.329	2204.81
709.521	2315.25
709.713	2285.22
709.905	2251.89
710.097	2330.94
710.289	2267.39
710.481	2294.9
710.672	2305.17
710.864	2330.94
711.056	2394.88
711.248	2379.18
711.44	2346.05
711.632	2416
711.824	2420.65
712.016	2457.07
712.207	2468.11
712.399	2460.75
712.591	2509.38
712.783	2503.57
712.975	2518.29
713.166	2458.04
713.358	2471.41
713.55	2572.93
713.741	2546.97
713.933	2554.52
714.125	2567.12
714.316	2495.82
714.508	2614.59
714.7	2580.87
714.891	2556.27
715.083	2629.31
715.274	2571.57
715.466	2567.7
715.657	2585.52
715.849	2507.06
716.04	2524.69
716.232	2460.95
716.423	2539.99
716.615	2441.96
716.806	2406.11
716.998	2337.33
717.189	2212.56
717.381	2168
717.572	2083.72
717.763	2165.87
717.955	2103.68
718.146	2087.79
718.337	2005.45
718.528	1950.03
718.72	1884.93
718.911	1955.65
719.102	1869.82
719.293	1915.55
719.485	1918.65
719.676	1875.44
719.867	1837.66
720.058	1869.24
720.249	1890.36
720.44	1882.42
720.632	1947.32
720.823	2000.99
721.014	2139.32
721.205	2149.98
721.396	2233.68
721.587	2326.1
721.778	2381.51
721.969	2446.61
722.16	2496.4
722.351	2490.39
722.542	2636.67
722.733	2631.83
722.924	2534.18
723.115	2602.77
723.305	2564.21
723.496	2542.13
723.687	2374.53
723.878	2433.43
724.069	2436.34
724.26	2411.35
724.45	2363.68
724.641	2354.77
724.832	2374.53
725.023	2380.73
725.213	2351.48
725.404	2341.02
725.595	2350.51
725.785	2323.19
725.976	2414.45
726.167	2358.65
726.357	2397.4
726.548	2473.15
726.739	2423.36
726.929	2511.32
727.12	2510.74
727.31	2500.08
727.501	2414.06
727.691	2455.91
727.882	2462.3
728.072	2516.74
728.263	2516.55
728.453	2563.44
728.644	2559.17
728.834	2572.16
729.024	2514.23
729.215	2524.3
729.405	2547.36
729.596	2637.64
729.786	2616.52
729.976	2640.55
730.167	2638.42
730.357	2604.12
730.547	2665.93
730.737	2684.14
730.928	2680.07
731.118	2764.55
731.308	2688.99
731.498	2668.84
731.688	2804.85
731.879	2794.19
732.069	2844.56
732.259	2873.05
732.449	2950.35
732.639	2986.97
732.829	3001.89
733.019	3053.42
733.209	3166.38
733.399	3130.73
733.589	3218.3
733.779	3210.36
733.969	3247.75
734.159	3320.8
734.349	3360.9
734.539	3371.75
734.729	3379.69
734.919	3408.18
735.109	3485.29
735.299	3390.93
735.488	3431.23
735.678	3377.95
735.868	3437.24
736.058	3413.41
736.248	3379.69
736.437	3368.65
736.627	3327.58
736.817	3478.12
737.007	3435.88
737.196	3474.82
737.386	3470.56
737.576	3444.79
737.765	3506.41
737.955	3489.36
738.144	3615.1
738.334	3566.85
738.524	3502.92
738.713	3555.81
738.903	3519.77
739.092	3560.85
739.282	3573.25
739.471	3602.7
739.661	3561.04
739.85	3643
740.04	3643.19
740.229	3630.21
740.419	3697.05
740.608	3710.42
740.797	3676.13
740.987	3709.65
741.176	3704.03
741.365	3681.36
741.555	3654.82
741.744	3717.78
741.933	3688.91
742.123	3759.44
742.312	3763.7
742.501	3801.87
742.69	3788.31
742.88	3755.37
743.069	3848.56
743.258	3765.64
743.447	3850.69
743.636	3884.41
743.825	3817.95
744.014	3863.87
744.204	3857.48
744.393	3782.69
744.582	3873.75
744.771	3940.01
744.96	3850.11
745.149	3868.71
745.338	3858.64
745.527	3885.76
745.716	3821.44
745.905	3878.01
746.094	3869.49
746.283	3937.49
746.471	3857.86
746.66	3926.84
746.849	3898.94
747.038	3933.42
747.227	3902.81
747.416	3913.66
747.604	3906.49
747.793	3881.11
747.982	3874.33
748.171	3899.91
748.359	3904.36
748.548	3897.97
748.737	3924.51
748.926	3882.47
749.114	3777.46
749.303	3868.91
749.491	3868.91
749.68	3810.39
749.869	3897.58
750.057	3823.57
750.246	3827.83
750.434	3843.53
750.623	3841.01
750.811	3778.23
751	3843.91
751.188	3823.57
751.377	3829.38
751.565	3825.89
751.754	3786.56
751.942	3779.39
752.131	3873.36
752.319	3805.36
752.507	3765.45
752.696	3824.34
752.884	3832.29
753.072	3795.86
753.261	3797.22
753.449	3791.6
753.637	3718.56
753.825	3845.27
754.014	3778.62
754.202	3772.03
754.39	3909.59
754.578	3750.91
754.766	3726.7
754.955	3716.23
755.143	3841.78
755.331	3773.58
755.519	3774.74
755.707	3750.53
755.895	3718.75
756.083	3732.51
756.271	3734.25
756.459	3691.24
756.647	3772.42
756.835	3668.38
757.023	3692.01
757.211	3685.43
757.399	3695.7
757.587	3699.57
757.775	3635.44
757.963	3639.12
758.151	3643.19
758.339	3600.76
758.526	3568.21
758.714	3568.02
758.902	3460.1
759.09	3368.65
759.278	3158.44
759.465	2909.86
759.653	2533.99
759.841	2307.5
760.028	1957.59
760.216	1695.45
760.404	1567.96
760.591	1295.94
760.779	1065.38
760.967	942.55
761.154	795.3
761.342	824.17
761.529	799.76
761.717	831.53
761.905	875.9
762.092	901.86
762.28	823.01
762.467	843.16
762.655	769.34
762.842	804.6
763.029	814.67
763.217	810.41
763.404	808.47
763.592	822.42
763.779	785.61
763.966	822.81
764.154	869.51
764.341	911.16
764.528	946.62
764.716	1010.17
764.903	1092.12
765.09	1156.44
765.277	1212.63
765.465	1365.89
765.652	1432.53
765.839	1522.43
766.026	1634.81
766.213	1737.11
766.4	1832.62
766.588	1999.05
766.775	2001.96
766.962	2156.76
767.149	2245.89
767.336	2384.41
767.523	2365.82
767.71	2543.68
767.897	2596.37
768.084	2714.56
768.271	2752.73
768.458	2839.33
768.645	2912.38
768.832	2913.34
769.019	2942.41
769.206	2949.58
769.392	3042.96
769.579	3151.46
769.766	3113.1
769.953	3085.97
770.14	3160.95
770.327	3142.74
770.513	3231.28
770.7	3273.71
770.887	3192.15
771.073	3210.36
771.26	3215.59
771.447	3193.12
771.634	3184.4
771.82	3298.71
772.007	3176.07
772.193	3243.88
772.38	3257.25
772.567	3261.7
772.753	3221.6
772.94	3254.15
773.126	3292.31
773.313	3283.01
773.499	3257.25
773.686	3255.7
773.872	3213.65
774.059	3266.35
774.245	3210.75
774.432	3211.52
774.618	3162.5
774.804	3213.27
774.991	3161.92
775.177	3241.17
775.363	3203.19
775.55	3211.52
775.736	3162.89
775.922	3179.36
776.109	3160.95
776.295	3189.82
776.481	3239.62
776.667	3199.7
776.853	3190.98
777.04	3144.68
777.226	3146.62
777.412	3190.6
777.598	3080.35
777.784	3115.04
777.97	3096.24
778.156	3165.8
778.342	3189.63
778.528	3134.8
778.715	3088.88
778.901	3073.96
779.087	3122.2
779.272	3039.67
779.458	3046.64
779.644	3094.3
779.83	3067.18
780.016	3137.9
780.202	3052.65
780.388	3036.76
780.574	2932.53
780.76	3038.12
780.946	3054.01
781.131	3048.58
781.317	3010.61
781.503	2989.68
781.689	2970.69
781.874	3114.65
782.06	2995.3
782.246	2995.3
782.432	3028.24
782.617	2956.94
782.803	3049.16
782.989	2899.59
783.174	2958.88
783.36	2858.71
783.545	2933.69
783.731	2973.02
783.916	2839.72
784.102	2930.98
784.288	2860.45
784.473	2929.43
784.659	2861.42
784.844	2897.26
785.029	2905.01
785.215	2898.43
785.4	2857.55
785.586	2971.47
785.771	2773.85
785.956	2908.5
786.142	2838.36
786.327	2855.8
786.512	2830.03
786.698	2804.46
786.883	2740.91
787.068	2765.32
787.254	2827.71
787.439	2748.47
787.624	2773.46
787.809	2730.64
787.994	2776.17
788.18	2788.18
788.365	2676.78
788.55	2658.18
788.735	2690.34
788.92	2645.59
789.105	2639
789.29	2720.95
789.475	2643.45
789.66	2633.77
789.845	2615.56
790.03	2596.96
790.215	2617.11
790.4	2676.39
790.585	2640.74
790.77	2579.91
790.955	2544.64
791.14	2601.02
791.325	2649.46
791.51	2536.12
791.695	2568.86
791.879	2574.48
792.064	2559.76
792.249	2645.97
792.434	2591.72
792.618	2589.98
792.803	2654.69
792.988	2571.77
793.173	2601.99
793.357	2585.91
793.542	2555.11
793.727	2591.53
793.911	2678.91
794.096	2628.92
794.281	2625.05
794.465	2718.44
794.65	2604.9
794.834	2678.14
795.019	2696.74
795.203	2660.89
795.388	2656.63
795.572	2661.86
795.757	2681.24
795.941	2668.64
796.126	2641.71
796.31	2587.07
796.494	2624.47
796.679	2598.31
796.863	2586.11
797.048	2645.39
797.232	2658.37
797.416	2626.41
797.601	2650.24
797.785	2697.9
797.969	2727.35
798.153	2672.9
798.338	2687.24
798.522	2723.86
798.706	2706.42
798.89	2706.42
799.074	2782.37
799.258	2746.53
799.443	2694.99
799.627	2650.62
799.811	2705.45
799.995	2663.8
800.179	2613.04
800.363	2650.62
800.547	2668.45
800.731	2697.51
800.915	2572.16
801.099	2616.14
801.283	2625.82
801.467	2634.35
801.651	2625.24
801.835	2666.51
802.019	2654.69
802.202	2633.38
802.386	2614.78
802.57	2610.32
802.754	2610.52
802.938	2580.29
803.121	2571.57
803.305	2645
803.489	2603.54
803.673	2650.24
803.856	2610.71
804.04	2594.63
804.224	2644.04
804.407	2623.69
804.591	2583.59
804.775	2610.71
804.958	2633.38
805.142	2739.36
805.326	2654.89
805.509	2613.62
805.693	2698.09
805.876	2709.14
806.06	2690.73
806.243	2676.59
806.427	2701.58
806.61	2733.35
806.794	2639
806.977	2697.12
807.16	2657.6
807.344	2688.21
807.527	2670.39
807.71	2664.96
807.894	2630.28
808.077	2685.5
808.26	2616.91
808.444	2622.53
808.627	2676
808.81	2602.19
808.993	2560.72
809.177	2540.96
809.36	2566.54
809.543	2563.82
809.726	2514.81
809.909	2520.81
810.092	2502.21
810.276	2502.02
810.459	2494.27
810.642	2476.25
810.825	2419.68
811.008	2433.82
811.191	2349.73
811.374	2396.43
811.557	2378.6
811.74	2421.61
811.923	2278.05
812.106	2276.3
812.289	2241.82
812.472	2291.03
812.654	2260.22
812.837	2234.84
813.02	2162.57
813.203	2150.95
813.386	2070.16
813.569	2037.61
813.751	1952.55
813.934	1978.71
814.117	1982.97
814.3	1970.96
814.482	1911.48
814.665	1846.57
814.848	1818.48
815.03	1749.31
815.213	1786.32
815.396	1762.1
815.578	1704.56
815.761	1635.58
815.943	1740.98
816.126	1641.2
816.309	1659.03
816.491	1570.48
816.674	1537.16
816.856	1619.11
817.039	1548.01
817.221	1632.68
817.403	1570.29
817.586	1635.19
817.768	1619.89
817.951	1509.45
818.133	1510.61
818.315	1550.33
818.498	1612.33
818.68	1681.5
818.862	1636.74
819.045	1656.51
819.227	1635.97
819.409	1606.13
819.591	1667.36
819.774	1621.05
819.956	1581.72
820.138	1709.59
820.32	1657.67
820.502	1753.19
820.684	1800.27
820.866	1783.8
821.048	1859.75
821.231	1862.27
821.413	1848.51
821.595	1869.82
821.777	1869.82
821.959	1839.6
822.141	1894.43
822.323	1748.34
822.505	1705.72
822.686	1661.74
822.868	1581.14
823.05	1439.7
823.232	1451.91
823.414	1402.5
823.596	1428.85
823.778	1388.75
823.96	1416.07
824.141	1466.44
824.323	1462.76
824.505	1588.69
824.687	1626.48
824.868	1671.23
825.05	1759.39
825.232	1809.37
825.413	1852
825.595	1816.74
825.777	1746.41
825.958	1810.92
826.14	1767.72
826.321	1818.48
826.503	1775.47
826.685	1831.27
826.866	1860.72
827.048	1814.22
827.229	1768.1
827.411	1739.62
827.592	1635.78
827.773	1660.96
827.955	1622.6
828.136	1624.93
828.318	1610.59
828.499	1631.32
828.68	1587.34
828.862	1607.49
829.043	1637.91
829.224	1593.15
829.406	1612.72
829.587	1578.43
829.768	1576.68
829.949	1613.3
830.131	1626.67
830.312	1653.6
830.493	1614.66
830.674	1615.24
830.855	1593.15
831.036	1619.11
831.218	1667.94
831.399	1666.97
831.58	1622.41
831.761	1664.26
831.942	1616.01
832.123	1636.55
832.304	1588.11
832.485	1577.46
832.666	1615.24
832.847	1635.78
833.028	1618.34
833.209	1637.33
833.389	1610.01
833.57	1556.53
833.751	1611.56
833.932	1657.67
834.113	1626.28
834.294	1588.69
834.475	1618.14
834.655	1671.62
834.836	1669.1
835.017	1658.83
835.198	1632.29
835.378	1650.69
835.559	1671.23
835.74	1628.99
835.92	1639.07
836.101	1664.26
836.281	1685.18
836.462	1675.88
836.643	1713.27
836.823	1672.59
837.004	1719.67
837.184	1755.51
837.365	1701.46
837.545	1701.84
837.726	1685.96
837.906	1747.37
838.087	1710.56
838.267	1682.27
838.448	1669.1
838.628	1726.06
838.808	1684.41
838.989	1729.94
839.169	1686.34
839.349	1688.67
839.53	1767.14
839.71	1734.78
839.89	1669.88
840.07	1759.39
840.251	1698.55
840.431	1763.26
840.611	1704.94
840.791	1662.71
840.971	1701.26
841.151	1679.95
841.332	1642.94
841.512	1743.11
841.692	1625.51
841.872	1712.69
842.052	1684.79
842.232	1705.33
842.412	1633.45
842.592	1692.74
842.772	1704.94
842.952	1647.01
843.132	1644.88
843.312	1657.48
843.492	1646.63
843.672	1691.96
843.851	1609.23
844.031	1664.84
844.211	1659.61
844.391	1612.53
844.571	1642.17
844.751	1667.36
844.93	1660.58
845.11	1637.13
845.29	1653.21
845.47	1661.74
845.649	1636.74
845.829	1654.76
846.009	1642.94
846.188	1676.46
846.368	1630.54
846.547	1661.16
846.727	1710.95
846.907	1621.44
847.086	1625.12
847.266	1649.92
847.445	1672.59
847.625	1607.68
847.804	1594.51
847.984	1647.4
848.163	1604.58
848.343	1620.08
848.522	1607.68
848.701	1618.34
848.881	1565.64
849.06	1584.24
849.239	1610.78
849.419	1606.71
849.598	1529.99
849.777	1536.96
849.957	1503.83
850.136	1444.93
850.315	1476.71
850.494	1448.23
850.674	1487.75
850.853	1574.36
851.032	1517.98
851.211	1569.32
851.39	1511.78
851.569	1440.87
851.748	1440.87
851.927	1497.44
852.107	1532.7
852.286	1462.57
852.465	1451.13
852.644	1504.22
852.823	1488.72
853.002	1496.47
853.181	1481.36
853.359	1461.4
853.538	1419.94
853.717	1443.38
853.896	1385.65
854.075	1353.87
854.254	1283.35
854.433	1282.19
854.611	1287.22
854.79	1236.27
854.969	1324.23
855.148	1334.89
855.327	1288.77
855.505	1350.58
855.684	1329.46
855.863	1355.23
856.041	1318.03
856.22	1382.35
856.399	1346.9
856.577	1444.16
856.756	1439.51
856.934	1519.14
857.113	1512.55
857.291	1431.37
857.47	1406.57
857.648	1471.09
857.827	1418.97
858.005	1480.2
858.184	1403.67
858.362	1526.5
858.541	1471.09
858.719	1406.19
858.898	1390.69
859.076	1363.37
859.254	1453.46
859.433	1374.22
859.611	1385.07
859.789	1372.09
859.967	1418.39
860.146	1418.97
860.324	1355.81
860.502	1373.64
860.68	1344.19
860.859	1337.6
861.037	1360.46
861.215	1374.6
861.393	1364.34
861.571	1344.77
861.749	1349.42
861.927	1401.34
862.105	1354.45
862.283	1366.66
862.461	1324.04
862.639	1320.94
862.817	1321.32
862.995	1333.53
863.173	1341.28
863.351	1319.39
863.529	1360.65
863.707	1369.18
863.885	1377.32
864.063	1280.25
864.241	1273.47
864.418	1371.31
864.596	1304.47
864.774	1282.38
864.952	1280.06
865.129	1293.81
865.307	1249.06
865.485	1242.27
865.663	1283.93
865.84	1228.71
866.018	1218.44
866.196	1135.33
866.373	1141.53
866.551	1105.49
866.728	1071.2
866.906	1079.53
867.084	1165.16
867.261	1174.66
867.439	1185.89
867.616	1207.59
867.794	1186.86
867.971	1200.04
868.149	1220.38
868.326	1227.94
868.503	1233.75
868.681	1228.91
868.858	1191.51
869.035	1189.19
869.213	1232.01
869.39	1202.36
869.567	1279.09
869.745	1191.13
869.922	1260.49
870.099	1213.99
870.276	1213.41
870.454	1226
870.631	1219.41
870.808	1201.78
870.985	1219.61
871.162	1268.43
871.339	1215.15
871.517	1139.98
871.694	1156.64
871.871	1197.33
872.048	1169.23
872.225	1184.73
872.402	1183.18
872.579	1145.98
872.756	1175.82
872.933	1127.77
873.11	1172.72
873.287	1194.81
873.463	1161.87
873.64	1126.41
873.817	1171.17
873.994	1155.28
874.171	1120.6
874.348	1152.57
874.524	1102.97
874.701	1157.99
874.878	1074.88
875.055	1143.08
875.231	1127.58
875.408	1117.89
875.585	1079.14
875.762	1110.72
875.938	1093.09
876.115	1096.96
876.291	1102.39
876.468	1060.73
876.645	1083.21
876.821	1087.47
876.998	1083.98
877.174	1084.37
877.351	1085.53
877.527	1065.58
877.704	1079.72
877.88	1072.75
878.057	1048.33
878.233	1090.18
878.409	1059.57
878.586	1101.23
878.762	1087.28
878.938	1075.26
879.115	1028.77
879.291	1063.06
879.467	998.35
879.644	1017.92
879.82	1060.35
879.996	1001.45
880.172	999.32
880.349	1026.83
880.525	1023.34
880.701	997.77
880.877	1004.55
881.053	1036.32
881.229	1026.63
881.405	1041.17
881.581	1009.58
881.757	999.9
881.933	1041.17
882.109	1050.27
882.285	997.96
882.461	953.98
882.637	1046.59
882.813	979.17
882.989	1002.61
883.165	1060.54
883.341	992.34
883.517	1031.67
883.693	1015.78
883.869	1068.48
884.044	980.52
884.22	1014.82
884.396	1080.69
884.572	1030.51
884.747	1032.25
884.923	1045.82
885.099	993.12
885.275	1005.13
885.45	1001.83
885.626	1009.97
885.801	1000.28
885.977	970.45
886.153	945.65
886.328	1037.87
886.504	955.92
886.679	1007.07
886.855	969.87
887.03	998.73
887.206	1049.5
887.381	1000.67
887.557	1022.18
887.732	1035.74
887.908	1025.86
888.083	1052.4
888.258	1016.37
888.434	972.77
888.609	963.47
888.784	1025.08
888.96	1025.67
889.135	997.96
889.31	971.03
889.485	1002.03
889.661	969.48
889.836	1019.66
890.011	1004.16
890.186	1008.42
890.361	969.09
890.537	995.05
890.712	1002.42
890.887	994.67
891.062	1014.43
891.237	1048.14
891.412	971.42
891.587	985.37
891.762	1007.26
891.937	1024.31
892.112	953.01
892.287	978.2
892.462	910.58
892.637	897.4
892.812	908.64
892.987	934.02
893.161	912.13
893.336	932.86
893.511	912.52
893.686	934.99
893.861	904.77
894.035	890.82
894.21	886.94
894.385	855.94
894.56	883.84
894.734	830.17
894.909	818.94
895.084	829.79
895.258	799.18
895.433	818.55
895.608	769.14
895.782	735.82
895.957	758.68
896.131	729.81
896.306	708.31
896.48	726.13
896.655	698.62
896.829	624.22
897.004	627.13
897.178	642.82
897.353	637.01
897.527	681.76
897.701	654.83
897.876	585.28
898.05	704.24
898.224	656.96
898.399	696.1
898.573	661.81
898.747	547.11
898.921	590.12
899.096	488.02
899.27	500.8
899.444	536.26
899.618	562.22
899.792	583.15
899.967	569.2
900.141	636.43
900.315	519.79
900.489	561.83
900.663	576.37
900.837	565.32
901.011	537.23
901.185	598.84
901.359	569.39
901.533	552.34
901.707	570.75
901.881	562.8
902.055	499.84
902.229	575.2
902.403	600.97
902.576	543.23
902.75	570.36
902.924	673.43
903.098	614.92
903.272	646.5
903.446	706.76
903.619	697.46
903.793	693
903.967	693.58
904.14	738.92
904.314	723.23
904.488	698.81
904.661	768.37
904.835	702.11
905.009	756.94
905.182	765.66
905.356	748.41
905.529	747.83
905.703	697.65
905.876	678.08
906.05	671.11
906.223	644.37
906.397	600.39
906.57	585.86
906.744	580.24
906.917	556.99
907.09	569.97
907.264	567.45
907.437	522.89
907.61	496.54
907.784	500.8
907.957	555.44
908.13	486.47
908.304	547.5
908.477	488.02
908.65	489.37
908.823	475.23
908.996	548.85
909.17	490.15
909.343	524.64
909.516	519.21
909.689	489.37
909.862	457.02
910.035	499.45
910.208	431.25
910.381	460.89
910.554	561.45
910.727	496.15
910.9	478.33
911.073	450.82
911.246	560.09
911.419	547.11
911.592	539.17
911.765	461.67
911.938	505.45
912.11	483.95
912.283	485.3
912.456	522.31
912.629	475.81
912.802	436.87
912.974	408.97
913.147	396.76
913.32	339.41
913.493	395.41
913.665	421.17
913.838	422.14
914.01	432.22
914.183	435.71
914.356	439.19
914.528	488.21
914.701	480.65
914.873	475.81
915.046	391.53
915.218	378.55
915.391	326.82
915.563	333.41
915.736	391.34
915.908	434.74
916.081	434.54
916.253	431.64
916.425	420.98
916.598	426.79
916.77	447.91
916.942	389.21
917.115	335.93
917.287	375.26
917.459	359.76
917.632	364.6
917.804	296.98
917.976	368.86
918.148	372.16
918.32	389.4
918.493	439.19
918.665	411.1
918.837	417.3
919.009	453.34
919.181	462.64
919.353	454.3
919.525	435.32
919.697	502.55
919.869	488.4
920.041	501.58
920.213	541.3
920.385	511.65
920.557	440.36
920.729	496.54
920.901	473.1
921.073	467.67
921.244	438.42
921.416	465.93
921.588	472.13
921.76	431.25
921.932	492.47
922.103	465.74
922.275	462.25
922.447	461.09
922.619	369.83
922.79	437.45
922.962	434.54
923.134	466.9
923.305	392.5
923.477	401.22
923.648	372.16
923.82	401.61
923.991	376.03
924.163	358.21
924.335	405.48
924.506	371.57
924.677	443.26
924.849	344.45
925.02	388.04
925.192	407.61
925.363	397.15
925.535	395.21
925.706	342.13
925.877	426.21
926.049	336.12
926.22	385.72
926.391	409.94
926.562	375.26
926.734	359.18
926.905	382.42
927.076	353.94
927.247	338.83
927.419	288.26
927.59	339.03
927.761	348.52
927.932	298.92
928.103	307.83
928.274	274.31
928.445	260.36
928.616	284
928.787	234.4
928.958	253.58
929.129	273.35
929.3	235.95
929.471	205.53
929.642	176.47
929.813	147.99
929.984	225.49
930.155	155.16
930.326	209.8
930.496	156.52
930.667	118.73
930.838	145.86
931.009	139.47
931.18	152.45
931.35	131.72
931.521	137.33
931.692	78.24
931.863	72.04
932.033	102.65
932.204	103.82
932.374	103.82
932.545	54.8
932.716	137.92
932.886	107.3
933.057	25.35
933.227	53.25
933.398	138.11
933.568	31.94
933.739	7.72
933.909	33.49
934.08	98.78
934.25	7.91
934.421	6.75
934.591	41.24
934.761	12.17
934.932	7.14
935.102	44.53
935.272	37.55
935.443	29.8
935.613	44.34
935.783	67
935.953	19.54
936.123	150.12
936.294	11.21
936.464	21.09
936.634	28.06
936.804	15.27
936.974	5.39
937.144	40.27
937.314	40.85
937.484	20.89
937.655	7.14
937.825	80.18
937.995	28.64
938.165	67.59
938.334	27.09
938.504	67.2
938.674	5.59
938.844	51.12
939.014	86.77
939.184	100.72
939.354	112.73
939.524	108.66
939.694	48.79
939.863	68.36
940.033	138.11
940.203	128.81
940.373	108.66
940.542	111.57
940.712	83.28
940.882	117.77
941.051	139.27
941.221	106.33
941.391	111.95
941.56	60.8
941.73	67.97
941.899	201.27
942.069	77.66
942.238	108.08
942.408	62.94
942.577	95.49
942.747	80.57
942.916	19.73
943.086	56.74
943.255	97.23
943.425	84.25
943.594	54.22
943.763	3.26
943.933	3.46
944.102	-1.78
944.271	77.85
944.441	69.72
944.61	42.98
944.779	74.37
944.948	136.37
945.117	32.32
945.287	41.82
945.456	-3.33
945.625	34.84
945.794	70.88
945.963	29.8
946.132	62.55
946.301	64.49
946.47	76.89
946.639	5.01
946.808	43.95
946.977	73.4
947.146	92.58
947.315	42.98
947.484	87.15
947.653	64.29
947.822	42.59
947.991	34.45
948.16	128.42
948.329	99.55
948.498	35.81
948.666	54.8
948.835	90.64
949.004	34.65
949.173	36.39
949.341	47.24
949.51	78.82
949.679	105.37
949.847	71.65
950.016	121.25
950.185	111.95
950.353	35.62
950.522	43.56
950.69	93.16
950.859	34.26
951.028	88.7
951.196	76.69
951.365	33.1
951.533	76.5
951.701	81.92
951.87	99.55
952.038	64.49
952.207	58.09
952.375	105.95
952.543	35.42
952.712	50.92
952.88	38.72
953.048	114.47
953.217	60.61
953.385	64.1
953.553	103.23
953.721	45.3
953.89	57.9
954.058	26.9
954.226	16.63
954.394	68.55
954.562	10.43
954.73	35.62
954.898	58.48
955.067	60.22
955.235	29.03
955.403	81.34
955.571	134.82
955.739	70.3
955.907	44.53
956.075	42.2
956.243	52.47
956.41	87.54
956.578	7.33
956.746	20.7
956.914	38.52
957.082	87.54
957.25	89.67
957.418	44.92
957.585	57.12
957.753	128.42
957.921	16.82
958.089	70.88
958.256	79.02
958.424	51.7
958.592	82.31
958.759	38.72
958.927	81.92
959.095	43.95
959.262	70.49
959.43	91.42
959.597	47.44
959.765	40.46
959.932	11.01
960.1	110.98
960.267	80.37
960.435	32.71
960.602	120.48
960.77	60.61
960.937	19.92
961.104	73.2
961.272	10.82
961.439	53.25
961.606	109.24
961.774	96.45
961.941	52.28
962.108	93.55
962.275	67.78
962.443	132.68
962.61	80.37
962.777	112.92
962.944	97.81
963.111	92.19
963.278	102.85
963.446	86.38
963.613	68.17
963.78	102.85
963.947	117.18
964.114	75.34
964.281	168.53
964.448	104.4
964.615	73.4
964.782	104.01
964.949	113.5
965.116	102.07
965.282	109.43
965.449	57.51
965.616	46.08
965.783	92.19
965.95	85.02
966.117	39.88
966.283	81.54
966.45	96.45
966.617	91.22
966.784	138.3
966.95	110.6
967.117	119.7
967.284	46.66
967.45	76.5
967.617	140.24
967.784	122.03
967.95	138.69
968.117	101.69
968.283	135.01
968.45	181.32
968.616	120.48
968.783	136.95
968.949	111.76
969.116	137.53
969.282	82.5
969.449	141.02
969.615	114.08
969.781	74.95
969.948	104.98
970.114	70.1
970.28	160.78
970.447	77.85
970.613	130.55
970.779	115.05
970.945	112.73
971.112	89.67
971.278	90.06
971.444	124.74
971.61	128.62
971.776	72.43
971.942	121.64
972.108	113.7
972.275	79.02
972.441	145.86
972.607	153.03
972.773	70.3
972.939	115.83
973.105	96.84
973.271	73.98
973.437	77.85
973.602	75.72
973.768	98.39
973.934	84.05
974.1	123.38
974.266	40.46
974.432	96.26
974.598	61
974.763	111.18
974.929	72.82
975.095	172.21
975.261	40.65
975.426	79.4
975.592	91.22
975.758	151.09
975.923	50.54
976.089	53.83
976.255	104.98
976.42	103.43
976.586	129.78
976.751	92.39
976.917	165.43
977.082	82.7
977.248	63.13
977.413	29.22
977.579	91.61
977.744	86.57
977.91	63.9
978.075	54.22
978.24	93.94
978.406	104.98
978.571	92.97
978.736	72.62
978.902	111.76
979.067	68.36
979.232	37.36
979.397	88.9
979.563	102.27
979.728	41.43
979.893	66.04
980.058	57.7
980.223	102.46
980.388	86.77
980.554	68.36
980.719	96.07
980.884	77.85
981.049	124.74
981.214	58.29
981.379	113.89
981.544	74.37
981.709	78.24
981.874	83.47
982.039	90.45
982.204	119.12
982.368	58.67
982.533	82.5
982.698	133.27
982.863	117.18
983.028	86.57
983.193	92.58
983.357	71.27
983.522	106.72
983.687	56.35
983.852	58.48
984.016	66.23
984.181	81.34
984.346	95.29
984.51	95.49
984.675	91.42
984.839	101.88
985.004	79.6
985.168	111.37
985.333	113.12
985.498	68.55
985.662	92.97
985.827	89.09
985.991	81.54
986.155	71.65
986.32	123.97
986.484	143.92
986.649	113.5
986.813	19.15
986.977	90.25
987.142	129.2
987.306	63.9
987.47	41.62
987.634	82.5
987.799	104.59
987.963	103.62
988.127	83.67
988.291	140.05
988.455	76.5
988.62	69.14
988.784	82.5
988.948	131.52
989.112	53.44
989.276	90.25
989.44	101.69
989.604	75.53
989.768	87.74
989.932	151.67
990.096	39.3
990.26	45.89
990.424	72.04
990.588	72.43
990.752	123.97
990.915	116.22
991.079	39.88
991.243	48.4
991.407	88.51
991.571	74.56
991.734	90.45
991.898	95.29
992.062	140.82
992.226	87.15
992.389	60.42
992.553	-1.39
992.717	22.83
992.88	64.1
993.044	73.01
993.207	36.59
993.371	106.92
993.535	92.39
993.698	86.77
993.862	74.95
994.025	110.02
994.189	60.42
994.352	60.42
994.515	99.75
994.679	99.75
994.842	62.16
995.006	94.13
995.169	41.43
995.332	42.2
995.496	103.82
995.659	28.45
995.822	77.47
995.985	63.32
996.149	124.55
996.312	76.5
996.475	113.5
996.638	63.32
996.801	140.63
996.964	139.08
997.128	45.5
997.291	54.6
997.454	72.43
997.617	27.09
997.78	108.27
997.943	51.12
998.106	71.65
998.269	59.25
998.432	79.4
998.595	70.88
998.758	25.15
998.92	41.82
999.083	5.97
999.246	44.14
999.409	26.51
999.572	13.14
999.735	47.44
999.897	99.17
1000.06	16.63
1000.223	45.5
1000.386	82.12
1000.548	68.75
1000.711	78.44
1000.874	59.06
1001.036	6.36
1001.199	92.97
1001.361	29.42
1001.524	51.31
1001.687	85.41
1001.849	32.13
1002.012	65.65
1002.174	54.02
1002.337	60.22
1002.499	47.05
1002.661	108.85
1002.824	16.44
1002.986	22.05
1003.149	36
1003.311	42.98
1003.473	111.57
1003.636	49.76
1003.798	65.26
1003.96	70.69
1004.123	54.6
1004.285	38.91
1004.447	44.92
1004.609	38.14
1004.771	115.83
1004.933	15.08
1005.096	20.31
1005.258	-5.07
1005.42	33.49
1005.582	85.41
1005.744	60.22
1005.906	26.7
1006.068	70.69
1006.23	-7.78
1006.392	13.72
1006.554	25.93
1006.716	74.56
1006.878	63.52
1007.04	23.02
1007.202	45.69
1007.363	37.55
1007.525	41.82
1007.687	62.74
1007.849	64.49
1008.011	19.34
1008.172	-2.36
1008.334	30.58
1008.496	64.49
1008.658	10.62
1008.819	30.77
1008.981	13.92
1009.143	9.85
1009.304	37.55
1009.466	46.85
1009.627	96.65
1009.789	147.22
1009.95	46.47
1010.112	5.78
1010.273	51.89
1010.435	15.85
1010.596	32.9
1010.758	37.17
1010.919	31.16
1011.081	10.82
1011.242	33.49
1011.403	57.32
1011.565	36.2
1011.726	43.17
1011.887	9.27
1012.049	22.05
1012.21	39.1
1012.371	69.72
1012.532	-30.64
1012.693	42.01
1012.855	27.87
1013.016	48.21
1013.177	66.04
1013.338	41.24
1013.499	74.95
1013.66	69.33
1013.821	79.6
1013.982	56.35
1014.143	51.31
1014.304	23.41
1014.465	58.09
1014.626	57.9
1014.787	32.9
1014.948	101.1
1015.109	-29.87
1015.27	68.36
1015.431	-3.33
1015.592	38.33
1015.752	87.15
1015.913	48.99
1016.074	27.29
1016.235	10.82
1016.395	30.39
1016.556	13.92
1016.717	26.12
1016.877	75.53
1017.038	3.26
1017.199	35.62
1017.359	18.37
1017.52	47.44
1017.681	27.48
1017.841	12.56
1018.002	34.45
1018.162	29.61
1018.323	49.18
1018.483	27.67
1018.644	22.83
1018.804	5.01
1018.964	27.09
1019.125	33.87
1019.285	32.9
1019.446	-2.16
1019.606	-3.91
1019.766	-9.14
1019.926	41.62
1020.087	14.69
1020.247	-17.47
1020.407	36.78
1020.567	60.8
1020.728	22.05
1020.888	-10.49
1021.048	8.69
1021.208	14.11
1021.368	-3.71
1021.528	40.27
1021.688	58.09
1021.848	40.65
1022.008	32.52
1022.168	9.27
1022.328	25.35
1022.488	29.03
1022.648	-1.58
1022.808	35.04
1022.968	23.22
1023.128	-4.29
1023.288	-9.33
1023.448	-11.08
1023.608	43.56
1023.767	51.12
1023.927	-11.66
1024.087	-4.49
1024.247	-12.63
1024.406	1.32
1024.566	-39.56
1024.726	-5.84
1024.885	23.22
1025.045	34.07
1025.205	30.97
1025.364	-19.02
1025.524	19.15
1025.683	12.56
1025.843	35.23
1026.003	15.66
1026.162	68.36
1026.321	52.09
1026.481	30
1026.64	1.32
1026.8	-0.03
1026.959	7.72
1027.119	2.68
1027.278	5.97
1027.437	-24.44
1027.597	13.72
1027.756	3.46
1027.915	24.38
1028.074	29.42
1028.234	-19.02
1028.393	22.05
1028.552	-7.98
1028.711	-49.05
1028.87	32.32
1029.03	-14.76
1029.189	16.24
1029.348	-40.53
1029.507	3.65
1029.666	-6.43
1029.825	-10.11
1029.984	-14.95
1030.143	33.1
1030.302	2.68
1030.461	-66.68
1030.62	2.29
1030.779	39.88
1030.938	-5.26
1031.097	-39.17
1031.255	35.23
1031.414	69.52
1031.573	46.47
1031.732	-19.6
1031.891	16.44
1032.049	58.87
1032.208	18.57
1032.367	11.59
1032.525	-16.31
1032.684	16.24
1032.843	-20.76
1033.001	-34.13
1033.16	134.82
1033.319	50.34
1033.477	45.5
1033.636	11.4
1033.794	-23.48
1033.953	37.94
1034.111	30.58
1034.27	-4.49
1034.428	31.74
1034.587	-27.35
1034.745	-3.71
1034.903	44.34
1035.062	32.71
1035.22	-34.52
1035.378	25.74
1035.537	-21.15
1035.695	46.47
1035.853	-30.64
1036.011	5.59
1036.17	14.11
1036.328	-37.62
1036.486	14.11
1036.644	17.99
1036.802	-53.12
1036.96	-22.12
1037.119	8.88
1037.277	-11.66
1037.435	-13.21
1037.593	-24.44
1037.751	2.49
1037.909	34.65
1038.067	34.65
