Data from gum_young_FLMT105791__34__17-38-33-035.txt Node

Date: Mon Mar 20 17:38:33 GMT 2023
User: antho
Spectrometer: FLMT10579
Trigger mode: 0
Integration Time (sec): 1.000000E-1
Scans to average: 10
Electric dark correction enabled: true
Nonlinearity correction enabled: false
Boxcar width: 0
XAxis mode: Wavelengths
Number of Pixels in Spectrum: 3648
>>>>>Begin Spectral Data<<<<<
345.248	-145.94
345.464	-145.94
345.681	-145.94
345.898	-126.18
346.114	-130.83
346.331	-28.14
346.548	34.24
346.764	-15.16
346.981	-12.64
347.197	1.31
347.414	15.26
347.631	-51.97
347.847	58.08
348.064	2.66
348.28	22.62
348.497	-25.24
348.713	-1.02
348.93	17
349.146	18.16
349.363	12.74
349.579	7.7
349.796	3.83
350.012	-1.99
350.229	37.15
350.445	32.89
350.661	-29.89
350.878	-0.63
351.094	19.71
351.311	10.8
351.527	16.81
351.743	-8.57
351.96	45.29
352.176	53.23
352.392	26.49
352.609	23.39
352.825	12.16
353.041	7.12
353.257	-15.16
353.474	8.28
353.69	16.03
353.906	13.51
354.122	-24.65
354.339	66.6
354.555	-27.95
354.771	-5.47
354.987	44.9
355.203	63.11
355.42	6.93
355.636	-0.63
355.852	0.34
356.068	-0.05
356.284	-29.11
356.5	23.59
356.716	57.69
356.932	0.73
357.148	17.58
357.364	17.2
357.58	47.61
357.796	61.18
358.012	51.29
358.228	27.08
358.444	-38.8
358.66	52.26
358.876	22.04
359.092	-15.74
359.308	15.06
359.524	45.48
359.74	-22.91
359.956	11.96
360.172	2.66
360.388	57.11
360.604	-3.92
360.819	72.41
361.035	21.84
361.251	29.01
361.467	10.8
361.683	43.35
361.898	15.65
362.114	16.42
362.33	23.2
362.546	54.01
362.762	4.6
362.977	0.73
363.193	-7.8
363.409	52.84
363.624	-16.71
363.84	8.28
364.056	-5.09
364.271	26.49
364.487	14.48
364.703	-9.74
364.918	-13.42
365.134	11
365.35	-7.41
365.565	79.78
365.781	20.49
365.996	45.29
366.212	70.09
366.427	13.71
366.643	-5.28
366.858	18.75
367.074	-18.26
367.289	58.85
367.505	121.43
367.72	-23.69
367.936	0.92
368.151	48.97
368.367	41.41
368.582	24.94
368.798	-16.9
369.013	58.66
369.228	1.5
369.444	0.73
369.659	41.8
369.874	35.99
370.09	39.09
370.305	-48.68
370.52	-9.93
370.736	87.53
370.951	15.45
371.166	69.89
371.381	63.69
371.597	31.53
371.812	-19.62
372.027	-3.73
372.242	24.36
372.458	87.14
372.673	11.38
372.888	30.56
373.103	16.61
373.318	81.71
373.533	31.73
373.749	34.63
373.964	-39.38
374.179	54.78
374.394	5.96
374.609	76.29
374.824	9.25
375.039	68.34
375.254	0.92
375.469	66.21
375.684	36.18
375.899	64.28
376.114	27.27
376.329	18.36
376.544	65.05
376.759	35.99
376.974	11.38
377.189	50.13
377.404	31.34
377.619	42.58
377.834	-36.86
378.049	-16.13
378.264	-15.94
378.478	19.52
378.693	1.31
378.908	40.06
379.123	-1.99
379.338	51.29
379.553	24.56
379.767	45.29
379.982	26.88
380.197	24.75
380.412	15.45
380.626	23.39
380.841	64.08
381.056	46.06
381.271	95.66
381.485	10.61
381.7	7.31
381.915	18.36
382.129	27.08
382.344	32.31
382.559	16.42
382.773	41.99
382.988	0.34
383.202	40.83
383.417	-14.77
383.632	93.14
383.846	43.16
384.061	34.83
384.275	38.7
384.49	51.49
384.704	34.44
384.919	24.56
385.133	23.98
385.348	54.59
385.562	-2.18
385.777	60.4
385.991	28.04
386.206	1.89
386.42	19.71
386.634	44.32
386.849	50.52
387.063	28.04
387.277	-13.22
387.492	11.38
387.706	3.63
387.92	-4.7
388.135	67.18
388.349	43.93
388.563	29.79
388.778	28.24
388.992	23.01
389.206	31.53
389.42	121.24
389.635	50.52
389.849	54.2
390.063	45.68
390.277	74.35
390.491	92.18
390.706	57.11
390.92	42.38
391.134	44.13
391.348	78.61
391.562	4.02
391.776	11.38
391.99	22.62
392.205	54.59
392.419	2.28
392.633	51.88
392.847	74.35
393.061	11.19
393.275	97.21
393.489	33.86
393.703	34.05
393.917	98.57
394.131	11.96
394.345	60.01
394.559	62.53
394.773	44.13
394.986	47.42
395.2	49.94
395.414	42.77
395.628	11.38
395.842	28.24
396.056	18.36
396.27	-5.09
396.484	63.31
396.697	28.82
396.911	95.86
397.125	76.09
397.339	76.87
397.553	19.71
397.766	118.14
397.98	76.29
398.194	79.58
398.408	53.43
398.621	60.98
398.835	90.82
399.049	66.6
399.262	75.9
399.476	84.81
399.69	71.06
399.903	122.98
400.117	64.86
400.331	91.01
400.544	33.28
400.758	150.69
400.971	55.17
401.185	83.07
401.398	34.05
401.612	101.28
401.826	85.59
402.039	120.46
402.253	42.77
402.466	60.21
402.68	64.08
402.893	67.96
403.106	51.1
403.32	54.01
403.533	58.08
403.747	76.68
403.96	72.99
404.174	113.29
404.387	39.28
404.6	66.02
404.814	106.32
405.027	78.81
405.24	105.93
405.454	56.33
405.667	105.93
405.88	42.77
406.094	59.24
406.307	106.9
406.52	77.26
406.733	19.33
406.947	12.74
407.16	116.78
407.373	99.73
407.586	66.6
407.799	27.66
408.012	119.3
408.226	86.56
408.439	117.36
408.652	42.96
408.865	98.57
409.078	111.74
409.291	68.54
409.504	22.04
409.717	79
409.93	96.44
410.143	70.48
410.357	56.14
410.57	49.94
410.783	71.06
410.996	85.78
411.209	104.58
411.421	123.95
411.634	87.91
411.847	75.9
412.06	98.57
412.273	89.08
412.486	88.69
412.699	125.31
412.912	90.82
413.125	102.44
413.338	80.16
413.55	127.44
413.763	91.21
413.976	99.54
414.189	101.67
414.402	71.44
414.615	152.24
414.827	103.8
415.04	141
415.253	102.25
415.466	108.64
415.678	140.42
415.891	98.38
416.104	98.96
416.316	78.42
416.529	103.03
416.742	108.26
416.954	132.09
417.167	114.26
417.38	85.98
417.592	133.06
417.805	67.96
418.017	83.07
418.23	142.36
418.442	115.04
418.655	79.78
418.868	114.46
419.08	113.49
419.293	130.15
419.505	100.12
419.718	118.33
419.93	144.1
420.142	85.39
420.355	156.69
420.567	157.66
420.78	141
420.992	111.55
421.205	159.21
421.417	74.74
421.629	109.42
421.842	70.09
422.054	76.09
422.266	124.53
422.479	167.16
422.691	102.06
422.903	153.4
423.115	74.16
423.328	131.12
423.54	125.89
423.752	118.52
423.964	106.9
424.177	141.39
424.389	138.09
424.601	207.65
424.813	153.01
425.025	178.2
425.238	149.14
425.45	118.33
425.662	103.61
425.874	390.93
426.086	149.52
426.298	176.46
426.51	133.25
426.722	128.41
426.934	108.06
427.146	174.13
427.358	97.99
427.57	164.06
427.782	134.41
427.994	141.77
428.206	141
428.418	109.81
428.63	142.36
428.842	166.57
429.054	133.44
429.266	177.81
429.478	114.65
429.69	123.37
429.902	105.35
430.114	151.27
430.325	138.09
430.537	109.61
430.749	113.68
430.961	52.65
431.173	92.56
431.384	141.97
431.596	69.51
431.808	105.54
432.02	141.58
432.231	150.88
432.443	173.74
432.655	141
432.867	134.61
433.078	178.01
433.29	195.83
433.502	181.69
433.713	180.91
433.925	160.57
434.136	203
434.348	120.07
434.56	93.73
434.771	253.95
434.983	119.3
435.194	125.11
435.406	142.55
435.617	194.67
435.829	215.01
436.04	150.3
436.252	188.86
436.463	227.99
436.675	211.52
436.886	180.14
437.098	180.52
437.309	228.77
437.521	192.54
437.732	180.91
437.943	168.71
438.155	164.06
438.366	115.62
438.578	222.76
438.789	189.44
439	181.3
439.211	162.89
439.423	198.93
439.634	201.06
439.845	200.67
440.057	198.15
440.268	238.45
440.479	174.32
440.69	181.69
440.902	172.39
441.113	177.23
441.324	184.79
441.535	217.53
441.746	215.2
441.957	168.32
442.168	197.96
442.38	190.6
442.591	246.79
442.802	183.43
443.013	171.03
443.224	221.79
443.435	188.86
443.646	171.42
443.857	178.39
444.068	195.06
444.279	158.05
444.49	265.19
444.701	208.81
444.912	296.19
445.123	249.5
445.334	229.15
445.545	220.24
445.756	200.87
445.967	204.55
446.178	247.37
446.388	255.7
446.599	229.54
446.81	220.24
447.021	200.48
447.232	246.98
447.443	259.77
447.653	204.35
447.864	275.65
448.075	245.24
448.286	275.07
448.496	259.96
448.707	279.34
448.918	230.7
449.129	327
449.339	223.34
449.55	261.7
449.761	236.9
449.971	284.57
450.182	254.54
450.393	292.7
450.603	236.13
450.814	297.93
451.024	282.63
451.235	298.13
451.446	322.73
451.656	323.7
451.867	264.22
452.077	284.37
452.288	315.76
452.498	338.23
452.709	253.18
452.919	287.28
453.13	245.43
453.34	302.97
453.55	231.09
453.761	305.3
453.971	258.22
454.182	284.76
454.392	262.48
454.602	344.43
454.813	293.09
455.023	299.1
455.233	240.59
455.444	265.39
455.654	237.1
455.864	266.94
456.075	275.85
456.285	267.71
456.495	270.23
456.705	280.5
456.916	320.99
457.126	347.92
457.336	283.4
457.546	238.84
457.756	265.19
457.967	348.5
458.177	304.13
458.387	298.13
458.597	284.18
458.807	296.58
459.017	297.74
459.227	276.82
459.437	306.65
459.647	322.93
459.857	315.37
460.068	283.02
460.278	363.03
460.488	303.36
460.698	352.96
460.908	311.5
461.117	288.83
461.327	250.27
461.537	314.02
461.747	317.5
461.957	298.13
462.167	418.45
462.377	367.88
462.587	323.9
462.797	366.72
463.007	303.36
463.216	352.96
463.426	392.68
463.636	366.52
463.846	291.73
464.056	306.85
464.265	373.88
464.475	304.33
464.685	326.22
464.895	369.43
465.104	360.71
465.314	384.54
465.524	315.37
465.733	323.7
465.943	418.83
466.153	350.05
466.362	403.33
466.572	351.22
466.782	338.82
466.991	359.93
467.201	367.88
467.41	310.53
467.62	338.82
467.829	349.86
468.039	374.66
468.249	311.11
468.458	361.87
468.668	374.46
468.877	369.23
469.086	416.7
469.296	411.47
469.505	357.03
469.715	444.99
469.924	365.17
470.134	411.28
470.343	421.74
470.552	364.39
470.762	383.76
470.971	339.2
471.18	396.16
471.39	375.82
471.599	338.62
471.808	413.41
472.018	375.82
472.227	426
472.436	441.11
472.645	431.81
472.855	369.43
473.064	451.77
473.273	424.06
473.482	423.87
473.691	459.71
473.901	435.3
474.11	414.76
474.319	492.07
474.528	407.4
474.737	470.76
474.946	423.1
475.155	459.13
475.364	454.87
475.573	449.06
475.783	433.95
475.992	469.79
476.201	493.81
476.41	471.73
476.619	406.05
476.828	495.36
477.037	424.06
477.245	451.58
477.454	490.52
477.663	453.13
477.872	460.68
478.081	550.39
478.29	442.28
478.499	552.13
478.708	481.41
478.917	548.06
479.125	476.18
479.334	539.54
479.543	466.88
479.752	517.06
479.961	507.18
480.169	570.34
480.378	498.27
480.587	614.71
480.796	548.84
481.004	537.99
481.213	565.11
481.422	540.51
481.63	538.96
481.839	574.02
482.048	627.5
482.256	570.34
482.465	582.16
482.674	597.66
482.882	586.62
483.091	639.7
483.299	585.46
483.508	597.08
483.716	605.22
483.925	618.01
484.134	588.36
484.342	589.91
484.551	627.11
484.759	626.14
484.967	617.42
485.176	630.99
485.384	654.62
485.593	647.65
485.801	646.29
486.01	594.56
486.218	555.81
486.426	529.66
486.635	550.77
486.843	542.44
487.051	575.77
487.26	578.09
487.468	605.61
487.676	637.19
487.885	587.2
488.093	619.17
488.301	651.33
488.509	659.85
488.717	690.27
488.926	663.92
489.134	658.5
489.342	675.94
489.55	627.31
489.758	682.72
489.967	650.75
490.175	733.87
490.383	677.49
490.591	745.88
490.799	669.15
491.007	735.42
491.215	718.37
491.423	696.47
491.631	715.27
491.839	667.02
492.047	748.98
492.255	674.77
492.463	671.29
492.671	698.99
492.879	767
493.087	722.82
493.295	758.08
493.503	759.63
493.711	759.25
493.919	755.95
494.127	781.72
494.334	814.66
494.542	731.15
494.75	804
494.958	751.88
495.166	849.15
495.374	801.29
495.581	791.8
495.789	805.17
495.997	870.07
496.205	806.72
496.412	792.18
496.62	788.7
496.828	825.51
497.035	800.13
497.243	829.96
497.451	837.33
497.658	839.26
497.866	810.4
498.074	912.5
498.281	818.73
498.489	909.98
498.696	864.45
498.904	804
499.112	795.87
499.319	935.94
499.527	838.1
499.734	886.35
499.942	838.49
500.149	876.85
500.357	873.95
500.564	837.13
500.771	897.58
500.979	852.25
501.186	835
501.394	865.42
501.601	863.1
501.808	889.06
502.016	887.9
502.223	893.9
502.43	917.34
502.638	898.94
502.845	881.89
503.052	952.8
503.26	903.59
503.467	992.32
503.674	926.64
503.881	926.64
504.089	991.94
504.296	1000.27
504.503	892.55
504.71	963.65
504.917	909.4
505.125	959.19
505.332	967.72
505.539	967.91
505.746	1039.41
505.953	1039.99
506.16	1033.4
506.367	1068.08
506.574	1078.74
506.781	1094.82
506.988	967.91
507.195	1061.11
507.402	1052.77
507.609	1076.22
507.816	1033.79
508.023	1056.65
508.23	1080.48
508.437	1047.16
508.644	1100.05
508.851	1153.91
509.058	1109.35
509.265	1106.64
509.472	1132.4
509.679	1246.91
509.885	1104.12
510.092	1153.91
510.299	1163.98
510.506	1142.09
510.713	1184.91
510.92	1160.11
511.126	1186.85
511.333	1236.25
511.54	1265.7
511.746	1245.55
511.953	1226.57
512.16	1303.68
512.367	1227.73
512.573	1244.2
512.78	1266.67
512.987	1253.69
513.193	1250.01
513.4	1192.08
513.606	1247.1
513.813	1326.35
514.02	1274.61
514.226	1343.78
514.433	1318.79
514.639	1263.38
514.846	1320.53
515.052	1309.3
515.259	1284.11
515.465	1353.47
515.672	1331.19
515.878	1405.98
516.085	1350.95
516.291	1391.25
516.497	1362.77
516.704	1318.21
516.91	1289.92
517.117	1269.19
517.323	1218.04
517.529	1271.71
517.736	1244.97
517.942	1287.01
518.148	1328.67
518.354	1338.36
518.561	1340.68
518.767	1339.71
518.973	1407.53
519.179	1417.02
519.386	1422.44
519.592	1373.43
519.798	1421.86
520.004	1544.5
520.21	1500.52
520.417	1567.95
520.623	1554
520.829	1585.19
521.035	1579.19
521.241	1579.57
521.447	1609.02
521.653	1704.73
521.859	1631.5
522.065	1642.15
522.271	1726.82
522.477	1698.34
522.683	1710.35
522.889	1693.3
523.095	1707.83
523.301	1709
523.507	1658.23
523.713	1706.86
523.919	1678.38
524.125	1777
524.331	1785.72
524.537	1861.47
524.742	1855.28
524.948	1872.71
525.154	1835.32
525.36	1946.53
525.566	1852.18
525.772	1868.84
525.977	1845.39
526.183	1867.67
526.389	1926.57
526.595	1854.31
526.8	1798.31
527.006	1735.35
527.212	1720.81
527.417	1733.41
527.623	1739.22
527.829	1796.57
528.034	1824.08
528.24	1826.41
528.446	1838.61
528.651	1933.36
528.857	1929.09
529.062	2017.05
529.268	1976.95
529.473	1990.7
529.679	2000.39
529.884	2084.09
530.09	2021.51
530.295	2027.52
530.501	2035.07
530.706	2047.47
530.912	2035.85
531.117	2012.21
531.323	2069.17
531.528	2115.48
531.733	2103.08
531.939	2082.93
532.144	2126.52
532.35	2081.77
532.555	2098.62
532.76	2085.45
532.966	2048.83
533.171	2067.62
533.376	2042.05
533.581	1998.45
533.787	2077.5
533.992	2123.03
534.197	2111.02
534.402	2082.54
534.607	2127.88
534.813	2221.46
535.018	2124
535.223	2145.9
535.428	2126.33
535.633	2209.06
535.838	2231.14
536.043	2251.49
536.249	2321.62
536.454	2244.13
536.659	2273.58
536.864	2228.04
537.069	2186.39
537.274	2204.02
537.479	2170.31
537.684	2180.77
537.889	2175.35
538.094	2284.23
538.299	2242.96
538.504	2277.64
538.708	2226.69
538.913	2313.68
539.118	2229.4
539.323	2276.48
539.528	2238.51
539.733	2265.05
539.938	2314.26
540.142	2268.15
540.347	2260.21
540.552	2181.55
540.757	2202.66
540.962	2213.9
541.166	2152.1
541.371	2157.33
541.576	2229.21
541.781	2180.96
541.985	2288.11
542.19	2228.63
542.395	2334.22
542.599	2344.29
542.804	2297.6
543.008	2345.07
543.213	2284.43
543.418	2249.16
543.622	2284.43
543.827	2232.11
544.031	2338.48
544.236	2331.51
544.44	2374.32
544.645	2403
544.849	2327.05
545.054	2366.19
545.258	2441.55
545.463	2403.77
545.667	2311.36
545.872	2399.7
546.076	2363.47
546.281	2397.96
546.485	2340.61
546.689	2399.12
546.894	2434
547.098	2397.38
547.302	2355.14
547.507	2361.73
547.711	2361.54
547.915	2411.72
548.119	2329.37
548.324	2358.24
548.528	2421.6
548.732	2347.59
548.936	2427.6
549.141	2408.42
549.345	2415.01
549.549	2419.08
549.753	2431.67
549.957	2473.33
550.161	2511.11
550.366	2438.45
550.57	2375.29
550.774	2415.79
550.978	2451.44
551.182	2440.39
551.386	2390.4
551.59	2420.44
551.794	2384.4
551.998	2429.35
552.202	2409.2
552.406	2376.84
552.61	2457.64
552.814	2423.92
553.018	2475.07
553.222	2402.8
553.426	2422.18
553.63	2493.48
553.833	2417.53
554.037	2365.99
554.241	2425.67
554.445	2424.7
554.649	2420.82
554.853	2419.66
555.056	2482.63
555.26	2458.22
555.464	2448.34
555.668	2426.05
555.871	2436.71
556.075	2460.15
556.279	2382.07
556.483	2382.46
556.686	2398.15
556.89	2380.52
557.094	2408.62
557.297	2356.31
557.501	2389.05
557.704	2286.36
557.908	2393.7
558.112	2292.95
558.315	2380.33
558.519	2348.17
558.722	2302.44
558.926	2321.62
559.129	2200.73
559.333	2231.34
559.536	2246.84
559.74	2246.45
559.943	2206.34
560.147	2223.01
560.35	2255.36
560.553	2282.49
560.757	2211.58
560.96	2297.79
561.164	2269.89
561.367	2377.62
561.57	2277.84
561.774	2274.93
561.977	2272.99
562.18	2222.04
562.384	2341.77
562.587	2281.52
562.79	2249.16
562.993	2244.13
563.197	2300.7
563.4	2274.74
563.603	2300.7
563.806	2322.4
564.009	2235.41
564.212	2262.53
564.416	2174.38
564.619	2225.91
564.822	2181.16
565.025	2232.89
565.228	2146.86
565.431	2224.36
565.634	2123.23
565.837	2163.91
566.04	2120.9
566.243	2106.37
566.446	2025.39
566.649	2112.57
566.852	2063.55
567.055	2112.96
567.258	2128.07
567.461	2224.56
567.664	2168.95
567.867	2083.9
568.07	2112.57
568.273	2150.16
568.475	2130.2
568.678	2047.67
568.881	2056.38
569.084	2028.68
569.287	1928.9
569.489	1982.76
569.692	2036.62
569.895	2029.84
570.098	1974.24
570.3	1982.76
570.503	1899.84
570.706	1911.27
570.909	1925.61
571.111	1854.69
571.314	1876.78
571.516	1872.32
571.719	1887.82
571.922	1876.78
572.124	1849.27
572.327	1873.1
572.529	1844.43
572.732	1871.36
572.935	1893.83
573.137	1965.52
573.34	1859.15
573.542	1909.52
573.745	1898.09
573.947	1889.37
574.15	1863.22
574.352	1849.27
574.554	1906.42
574.757	1845.98
574.959	1815.17
575.162	1809.74
575.364	1788.82
575.566	1893.83
575.769	1797.15
575.971	1833.77
576.173	1722.17
576.376	1805.29
576.578	1853.53
576.78	1851.79
576.982	1723.72
577.185	1782.43
577.387	1750.07
577.589	1740
577.791	1751.62
577.993	1769.45
578.196	1752.2
578.398	1784.75
578.6	1729.92
578.802	1709.19
579.004	1672.38
579.206	1715.58
579.408	1737.86
579.61	1711.32
579.812	1758.6
580.014	1713.06
580.216	1728.76
580.418	1716.55
580.62	1694.46
580.822	1689.43
581.024	1751.04
581.226	1769.45
581.428	1698.92
581.63	1800.06
581.832	1753.17
582.034	1797.93
582.236	1748.13
582.438	1794.83
582.64	1824.08
582.841	1826.41
583.043	1822.73
583.245	1778.94
583.447	1795.6
583.649	1748.33
583.85	1770.8
584.052	1801.61
584.254	1708.03
584.456	1784.75
584.657	1718.88
584.859	1725.27
585.061	1760.73
585.262	1747.36
585.464	1680.13
585.666	1753.17
585.867	1712.48
586.069	1749.68
586.27	1710.74
586.472	1727.98
586.674	1675.87
586.875	1679.93
587.077	1693.88
587.278	1719.26
587.48	1677.03
587.681	1775.64
587.883	1688.85
588.084	1616.97
588.285	1636.73
588.487	1606.7
588.688	1624.72
588.89	1553.42
589.091	1529.97
589.292	1538.89
589.494	1482.12
589.695	1470.3
589.896	1413.73
590.098	1409.46
590.299	1483.67
590.5	1436.97
590.702	1466.81
590.903	1506.92
591.104	1555.94
591.305	1558.65
591.507	1561.55
591.708	1588.29
591.909	1536.56
592.11	1594.88
592.311	1565.62
592.512	1516.99
592.714	1493.94
592.915	1528.62
593.116	1523.19
593.317	1549.93
593.518	1553.42
593.719	1590.42
593.92	1565.43
594.121	1587.13
594.322	1533.65
594.523	1559.04
594.724	1502.85
594.925	1539.85
595.126	1490.64
595.327	1497.62
595.528	1514.28
595.729	1546.83
595.929	1501.49
596.13	1535.4
596.331	1568.92
596.532	1520.09
596.733	1594.68
596.934	1569.11
597.135	1581.12
597.335	1543.15
597.536	1513.5
597.737	1543.15
597.938	1491.42
598.138	1550.51
598.339	1520.87
598.54	1549.93
598.74	1535.79
598.941	1547.02
599.142	1569.89
599.342	1556.13
599.543	1505.95
599.744	1582.29
599.944	1495.29
600.145	1583.25
600.345	1529
600.546	1639.25
600.746	1567.37
600.947	1597.98
601.147	1537.92
601.348	1572.21
601.548	1513.31
601.749	1534.82
601.949	1494.32
602.15	1492.97
602.35	1489.67
602.551	1539.66
602.751	1490.84
602.951	1527.84
603.152	1435.62
603.352	1512.54
603.552	1538.11
603.753	1542.76
603.953	1572.4
604.153	1532.88
604.354	1521.64
604.554	1520.67
604.754	1550.51
604.954	1470.69
605.155	1557.29
605.355	1493.74
605.555	1539.27
605.755	1577.25
605.955	1522.22
606.155	1517.38
606.356	1514.28
606.556	1543.54
606.756	1535.01
606.956	1456.93
607.156	1570.27
607.356	1504.01
607.556	1493.94
607.756	1494.52
607.956	1553.22
608.156	1524.16
608.356	1492.39
608.556	1523.77
608.756	1454.8
608.956	1445.89
609.156	1501.69
609.356	1486.57
609.556	1465.65
609.755	1449.37
609.955	1465.07
610.155	1469.52
610.355	1487.35
610.555	1424.57
610.755	1474.56
610.954	1378.27
611.154	1449.37
611.354	1452.28
611.554	1432.13
611.753	1432.52
611.953	1385.05
612.153	1442.01
612.352	1425.16
612.552	1394.16
612.752	1345.14
612.951	1432.91
613.151	1440.66
613.351	1379.43
613.55	1399.19
613.75	1391.06
613.949	1384.47
614.149	1367.03
614.348	1395.9
614.548	1363.16
614.747	1312.78
614.947	1326.54
615.146	1313.56
615.346	1409.46
615.545	1375.56
615.745	1378.08
615.944	1383.69
616.144	1357.15
616.343	1347.46
616.542	1325.38
616.742	1332.93
616.941	1321.5
617.14	1271.32
617.34	1308.52
617.539	1301.93
617.738	1304.06
617.938	1377.88
618.137	1332.54
618.336	1244.2
618.535	1304.26
618.734	1340.1
618.934	1344.56
619.133	1351.14
619.332	1309.68
619.531	1274.03
619.73	1322.66
619.929	1348.63
620.128	1329.25
620.328	1334.29
620.527	1307.55
620.726	1268.22
620.925	1364.51
621.124	1288.56
621.323	1331.38
621.522	1259.89
621.721	1276.36
621.92	1296.7
622.119	1306
622.318	1239.16
622.517	1280.62
622.715	1261.05
622.914	1233.73
623.113	1257.18
623.312	1211.26
623.511	1258.15
623.71	1216.88
623.909	1211.26
624.107	1283.14
624.306	1197.5
624.505	1199.44
624.704	1200.02
624.902	1244.2
625.101	1254.08
625.3	1223.27
625.499	1195.76
625.697	1200.02
625.896	1189.17
626.095	1187.82
626.293	1151.39
626.492	1165.53
626.69	1214.75
626.889	1194.02
627.088	1244.58
627.286	1183.75
627.485	1184.33
627.683	1184.33
627.882	1197.31
628.08	1088.42
628.279	1129.11
628.477	1168.44
628.676	1091.52
628.874	1139.77
629.073	1101.79
629.271	1110.32
629.469	1145.39
629.668	1128.34
629.866	1121.36
630.065	1118.45
630.263	1143.06
630.461	1122.33
630.66	1107.6
630.858	1134.54
631.056	1162.63
631.254	1198.08
631.453	1119.81
631.651	1180.26
631.849	1098.5
632.047	1162.24
632.245	1117.49
632.444	1184.33
632.642	1154.88
632.84	1182.78
633.038	1153.52
633.236	1098.3
633.434	1098.11
633.632	1117.68
633.83	1121.94
634.028	1161.85
634.227	1157.59
634.425	1203.7
634.623	1157.79
634.821	1178.13
635.019	1164.37
635.216	1138.02
635.414	1186.07
635.612	1174.64
635.81	1120.97
636.008	1181.23
636.206	1122.91
636.404	1144.03
636.602	1110.12
636.8	1163.02
636.997	1193.82
637.195	1156.43
637.393	1130.47
637.591	1202.73
637.789	1137.44
637.986	1106.05
638.184	1143.45
638.382	1182.78
638.58	1176.38
638.777	1213.2
638.975	1142.09
639.173	1166.7
639.37	1136.28
639.568	1146.16
639.765	1149.45
639.963	1123.88
640.161	1124.46
640.358	1168.83
640.556	1087.45
640.753	1077.38
640.951	1062.27
641.148	1104.12
641.346	1075.83
641.543	1086.68
641.741	1097.72
641.938	1069.05
642.136	1076.41
642.333	1049.67
642.531	1096.17
642.728	1133.37
642.925	1080.09
643.123	1053.16
643.32	1080.29
643.517	1053.16
643.715	1039.41
643.912	1036.69
644.109	1039.79
644.306	1061.69
644.504	991.55
644.701	1042.31
644.898	1043.47
645.095	997.94
645.293	1034.56
645.49	1027.59
645.687	1004.34
645.884	1043.47
646.081	965.01
646.278	973.53
646.475	1003.37
646.672	981.09
646.87	996.2
647.067	987.67
647.264	983.61
647.461	939.24
647.658	907.46
647.855	962.68
648.052	918.12
648.249	833.26
648.446	899.52
648.642	909.98
648.839	891.38
649.036	895.65
649.233	869.49
649.43	863.87
649.627	859.41
649.824	865.61
650.021	869.3
650.217	884.99
650.414	858.06
650.611	896.81
650.808	894.87
651.004	907.27
651.201	892.93
651.398	929.36
651.595	876.66
651.791	841.98
651.988	891.58
652.185	828.41
652.381	891.38
652.578	848.37
652.775	886.93
652.971	863.68
653.168	859.03
653.364	908.63
653.561	817.37
653.757	878.01
653.954	902.62
654.15	843.53
654.347	928
654.543	856.7
654.74	817.76
654.936	819.5
655.133	864.26
655.329	839.65
655.525	832.68
655.722	854.38
655.918	794.7
656.115	819.7
656.311	732.9
656.507	729.02
656.704	683.3
656.9	722.82
657.096	726.12
657.292	727.47
657.489	760.8
657.685	773
657.881	761.96
658.077	747.43
658.273	795.67
658.47	843.72
658.666	794.7
658.862	810.01
659.058	794.51
659.254	831.51
659.45	760.8
659.646	804.58
659.842	784.63
660.038	844.11
660.234	789.67
660.43	795.67
660.626	852.25
660.822	825.51
661.018	820.28
661.214	785.02
661.41	771.26
661.606	799.74
661.802	850.89
661.998	779.2
662.194	768.74
662.39	812.33
662.586	787.53
662.781	765.25
662.977	809.04
663.173	798.97
663.369	763.32
663.564	802.84
663.76	804.39
663.956	785.79
664.152	786.57
664.347	694.73
664.543	750.72
664.739	729.41
664.934	697.83
665.13	697.64
665.326	774.75
665.521	763.9
665.717	705.58
665.912	688.53
666.108	660.63
666.304	720.88
666.499	715.65
666.695	643
666.89	750.33
667.086	767.97
667.281	735.22
667.477	772.81
667.672	737.35
667.867	734.64
668.063	720.3
668.258	693.18
668.454	695.12
668.649	756.73
668.844	720.5
669.04	717.01
669.235	658.69
669.43	663.34
669.626	659.08
669.821	696.47
670.016	634.09
670.211	664.7
670.407	653.07
670.602	661.99
670.797	671.87
670.992	709.26
671.187	638.15
671.382	717.2
671.578	673.8
671.773	702.09
671.968	636.22
672.163	677.49
672.358	699.96
672.553	626.92
672.748	638.15
672.943	723.02
673.138	637.57
673.333	692.99
673.528	626.14
673.723	657.34
673.918	651.91
674.113	594.56
674.308	722.82
674.503	653.85
674.698	664.12
674.892	693.57
675.087	641.45
675.282	664.89
675.477	627.5
675.672	657.53
675.867	654.62
676.061	594.37
676.256	600.18
676.451	596.11
676.646	634.09
676.84	625.76
677.035	603.86
677.23	610.06
677.424	684.46
677.619	641.84
677.814	654.04
678.008	664.5
678.203	589.72
678.397	603.47
678.592	625.37
678.787	673.42
678.981	619.75
679.176	664.31
679.37	635.83
679.565	595.14
679.759	620.91
679.954	673.61
680.148	657.72
680.342	678.26
680.537	654.43
680.731	609.09
680.926	653.46
681.12	663.34
681.314	615.68
681.509	651.72
681.703	632.54
681.897	653.27
682.092	607.35
682.286	618.59
682.48	689.5
682.674	653.07
682.869	627.31
683.063	667.22
683.257	698.99
683.451	613.94
683.645	690.47
683.839	669.35
684.034	636.99
684.228	670.9
684.422	585.65
684.616	654.82
684.81	665.86
685.004	660.44
685.198	667.22
685.392	708.68
685.586	662.57
685.78	697.25
685.974	693.76
686.168	687.37
686.362	699.96
686.556	640.87
686.75	613.16
686.944	609.09
687.138	623.62
687.331	542.25
687.525	524.04
687.719	493.81
687.913	527.72
688.107	543.41
688.301	559.69
688.494	604.25
688.688	543.61
688.882	528.11
689.076	540.12
689.269	576.93
689.463	661.02
689.657	568.99
689.85	597.66
690.044	653.07
690.238	661.21
690.431	669.15
690.625	629.63
690.818	704.61
691.012	712.75
691.205	742.2
691.399	693.76
691.593	761.77
691.786	813.11
691.98	833.06
692.173	857.28
692.366	822.21
692.56	853.6
692.753	911.53
692.947	836.75
693.14	868.91
693.333	902.62
693.527	864.84
693.72	895.06
693.914	905.33
694.107	901.07
694.3	949.51
694.493	945.83
694.687	984.77
694.88	946.41
695.073	1031.46
695.266	1020.81
695.46	1002.98
695.653	1050.45
695.846	1046.38
696.039	984.19
696.232	1032.04
696.425	1112.64
696.618	1142.87
696.812	1129.89
697.005	1196.92
697.198	1256.01
697.391	1223.85
697.584	1222.88
697.777	1290.89
697.97	1287.01
698.163	1305.42
698.356	1299.03
698.549	1362.58
698.742	1357.54
698.935	1312.4
699.127	1340.29
699.32	1325.96
699.513	1330.61
699.706	1363.93
699.899	1368.58
700.092	1338.74
700.285	1374.98
700.477	1330.8
700.67	1398.42
700.863	1402.1
701.056	1486.96
701.248	1475.72
701.441	1489.09
701.634	1461.39
701.826	1519.32
702.019	1456.93
702.212	1510.02
702.404	1481.73
702.597	1458.87
702.79	1487.93
702.982	1548.19
703.175	1616.77
703.367	1590.04
703.56	1624.52
703.752	1708.03
703.945	1685.16
704.137	1693.69
704.33	1697.56
704.522	1709
704.715	1718.68
704.907	1758.4
705.1	1794.05
705.292	1797.15
705.484	1746.2
705.677	1789.98
705.869	1849.08
706.061	1841.91
706.254	1881.24
706.446	1835.32
706.638	1866.9
706.831	1906.04
707.023	1882.01
707.215	1971.33
707.407	1993.03
707.599	1966.68
707.792	2015.7
707.984	1982.57
708.176	2026.74
708.368	1992.64
708.56	2069.17
708.752	2023.64
708.944	2033.72
709.136	2095.13
709.329	2044.95
709.521	2156.55
709.713	2150.74
709.905	2137.56
710.097	2205.18
710.289	2107.53
710.481	2167.4
710.672	2199.56
710.864	2179.41
711.056	2219.13
711.248	2223.59
711.44	2216.61
711.632	2252.65
711.824	2280.16
712.016	2322.4
712.207	2316.39
712.399	2286.56
712.591	2385.95
712.783	2368.51
712.975	2354.76
713.166	2324.92
713.358	2362.89
713.55	2368.32
713.741	2402.42
713.933	2415.79
714.125	2410.55
714.316	2395.25
714.508	2442.52
714.7	2432.64
714.891	2432.06
715.083	2454.54
715.274	2417.34
715.466	2458.22
715.657	2476.82
715.849	2367.35
716.04	2408.23
716.232	2293.53
716.423	2379.36
716.615	2275.51
716.806	2274.93
716.998	2165.08
717.189	2107.53
717.381	2035.65
717.572	2012.79
717.763	2042.43
717.955	1990.12
718.146	1917.86
718.337	1893.64
718.528	1845.78
718.72	1802.19
718.911	1825.05
719.102	1795.6
719.293	1845.2
719.485	1795.79
719.676	1802.38
719.867	1727.98
720.058	1760.73
720.249	1732.44
720.44	1804.13
720.632	1825.44
720.823	1883.76
721.014	1999.81
721.205	2047.47
721.396	2137.95
721.587	2187.94
721.778	2281.52
721.969	2293.53
722.16	2319.3
722.351	2337.71
722.542	2484.95
722.733	2484.76
722.924	2416.95
723.115	2461.32
723.305	2443.3
723.496	2424.89
723.687	2260.79
723.878	2288.3
724.069	2285.98
724.26	2313.1
724.45	2243.35
724.641	2205.76
724.832	2243.54
725.023	2237.15
725.213	2229.59
725.404	2195.11
725.595	2209.44
725.785	2192.98
725.976	2262.92
726.167	2270.86
726.357	2247.42
726.548	2351.66
726.739	2283.84
726.929	2382.65
727.12	2364.64
727.31	2386.14
727.501	2310.97
727.691	2303.41
727.882	2365.02
728.072	2386.92
728.263	2424.7
728.453	2452.79
728.644	2427.99
728.834	2405.13
729.024	2358.05
729.215	2381.49
729.405	2412.69
729.596	2472.17
729.786	2460.74
729.976	2507.62
730.167	2447.37
730.357	2480.5
730.547	2464.61
730.737	2536.88
730.928	2567.3
731.118	2572.14
731.308	2561.1
731.498	2549.28
731.688	2641.5
731.879	2692.26
732.069	2728.88
732.259	2755.04
732.449	2757.75
732.639	2807.54
732.829	2856.95
733.019	2923.4
733.209	3029.19
733.399	3004.2
733.589	3095.45
733.779	3097.78
733.969	3080.73
734.159	3181.28
734.349	3214.99
734.539	3188.64
734.729	3181.67
734.919	3256.45
735.109	3300.24
735.299	3204.72
735.488	3255.49
735.678	3246.96
735.868	3257.23
736.058	3235.34
736.248	3192.71
736.437	3213.44
736.627	3153.38
736.817	3310.32
737.007	3263.04
737.196	3320.59
737.386	3302.57
737.576	3262.65
737.765	3319.62
737.955	3318.45
738.144	3446.52
738.334	3334.92
738.524	3313.61
738.713	3378.32
738.903	3363.79
739.092	3409.52
739.282	3337.05
739.471	3383.36
739.661	3348.48
739.85	3416.3
740.04	3411.65
740.229	3454.46
740.419	3512.2
740.608	3513.36
740.797	3510.46
740.987	3580.21
741.176	3531.58
741.365	3489.15
741.555	3468.03
741.744	3569.16
741.933	3529.83
742.123	3585.83
742.312	3578.27
742.501	3601.91
742.69	3599.97
742.88	3538.55
743.069	3646.08
743.258	3579.82
743.447	3667.78
743.636	3634.46
743.825	3607.72
744.014	3648.79
744.204	3679.6
744.393	3586.79
744.582	3693.35
744.771	3683.67
744.96	3666.23
745.149	3684.83
745.338	3654.8
745.527	3747.41
745.716	3714.67
745.905	3660.22
746.094	3681.92
746.283	3739.66
746.471	3727.07
746.66	3731.14
746.849	3758.45
747.038	3756.13
747.227	3683.86
747.416	3771.82
747.604	3668.17
747.793	3702.85
747.982	3685.41
748.171	3760.2
748.359	3720.48
748.548	3726.87
748.737	3709.05
748.926	3713.89
749.114	3631.55
749.303	3685.41
749.491	3685.99
749.68	3626.32
749.869	3687.35
750.057	3644.72
750.246	3651.7
750.434	3634.46
750.623	3641.04
750.811	3631.16
751	3691.8
751.188	3637.75
751.377	3667.97
751.565	3611.59
751.754	3606.75
751.942	3587.76
752.131	3647.82
752.319	3576.72
752.507	3552.31
752.696	3640.46
752.884	3595.13
753.072	3604.81
753.261	3632.71
753.449	3604.81
753.637	3586.6
753.825	3649.18
754.014	3611.4
754.202	3592.99
754.39	3657.71
754.578	3632.13
754.766	3560.83
754.955	3557.54
755.143	3658.29
755.331	3541.07
755.519	3575.75
755.707	3550.56
755.895	3550.56
756.083	3569.94
756.271	3539.52
756.459	3535.26
756.647	3567.81
756.835	3548.63
757.023	3530.99
757.211	3528.67
757.399	3512.59
757.587	3486.63
757.775	3431.99
757.963	3465.51
758.151	3504.06
758.339	3440.32
758.526	3453.69
758.714	3429.47
758.902	3329.3
759.09	3205.5
759.278	2999.74
759.465	2745.35
759.653	2426.83
759.841	2201.31
760.028	1860.51
760.216	1611.93
760.404	1504.01
760.591	1212.23
760.779	1040.57
760.967	902.62
761.154	761.77
761.342	782.69
761.529	776.49
761.717	795.67
761.905	824.73
762.092	868.91
762.28	828.03
762.467	797.22
762.655	749.95
762.842	735.61
763.029	774.36
763.217	752.66
763.404	772.23
763.592	808.26
763.779	754.98
763.966	814.27
764.154	835.97
764.341	898.94
764.528	901.46
764.716	983.41
764.903	1033.59
765.09	1113.61
765.277	1124.65
765.465	1299.8
765.652	1356.76
765.839	1482.31
766.026	1583.45
766.213	1653.2
766.4	1728.37
766.588	1923.86
766.775	1993.61
766.962	2061.23
767.149	2135.43
767.336	2291.98
767.523	2280.16
767.71	2420.44
767.897	2552.77
768.084	2638.21
768.271	2657.97
768.458	2731.21
768.645	2745.35
768.832	2781.58
769.019	2815.29
769.206	2831.57
769.392	2895.5
769.579	3015.05
769.766	2941.23
769.953	2936
770.14	3042.56
770.327	3000.32
770.513	3029.77
770.7	3123.74
770.887	3044.3
771.073	3094.87
771.26	3072.01
771.447	3051.86
771.634	3066.58
771.82	3149.7
772.007	3051.86
772.193	3080.53
772.38	3112.69
772.567	3110.18
772.753	3058.25
772.94	3094.87
773.126	3140.98
773.313	3134.98
773.499	3118.12
773.686	3157.84
773.872	3089.06
774.059	3135.36
774.245	3054.18
774.432	3110.95
774.618	3035.58
774.804	3081.5
774.991	3052.44
775.177	3074.33
775.363	3019.89
775.55	3075.3
775.736	3023.57
775.922	3077.63
776.109	3055.35
776.295	3061.16
776.481	3087.31
776.667	3070.26
776.853	2992.38
777.04	3007.68
777.226	3004.78
777.412	3081.31
777.598	2994.9
777.784	2993.54
777.97	2963.7
778.156	3015.63
778.342	2988.12
778.528	2992.38
778.715	2916.82
778.901	2971.84
779.087	2978.62
779.272	2958.08
779.458	2949.95
779.644	2961.96
779.83	2908.48
780.016	2982.88
780.202	2932.32
780.388	2920.88
780.574	2854.62
780.76	2886.59
780.946	2934.25
781.131	2851.72
781.317	2880.97
781.503	2875.35
781.689	2844.94
781.874	2971.65
782.06	2822.65
782.246	2865.28
782.432	2859.27
782.617	2859.66
782.803	2918.56
782.989	2789.52
783.174	2809.87
783.36	2771.12
783.545	2780.81
783.731	2787.97
783.916	2729.85
784.102	2802.31
784.288	2766.47
784.473	2751.55
784.659	2722.1
784.844	2818.2
785.029	2770.73
785.215	2763.76
785.4	2687.03
785.586	2780.22
785.771	2695.94
785.956	2759.3
786.142	2719.39
786.327	2668.04
786.512	2693.43
786.698	2691.29
786.883	2623.87
787.068	2646.54
787.254	2691.68
787.439	2651.77
787.624	2655.26
787.809	2623.1
787.994	2609.15
788.18	2673.86
788.365	2563.81
788.55	2579.89
788.735	2621.74
788.92	2549.47
789.105	2576.21
789.29	2583.96
789.475	2492.51
789.66	2519.63
789.845	2522.15
790.03	2485.15
790.215	2516.73
790.4	2559.74
790.585	2563.23
790.77	2513.43
790.955	2441.94
791.14	2500.07
791.325	2562.06
791.51	2422.18
791.695	2489.41
791.879	2500.45
792.064	2419.47
792.249	2511.3
792.434	2481.47
792.618	2480.11
792.803	2498.32
792.988	2418.3
793.173	2463.06
793.357	2488.25
793.542	2427.6
793.727	2493.09
793.911	2530.87
794.096	2492.7
794.281	2513.82
794.465	2591.51
794.65	2468.1
794.834	2571.95
795.019	2565.55
795.203	2556.64
795.388	2563.42
795.572	2575.63
795.757	2533.2
795.941	2549.67
796.126	2568.26
796.31	2461.12
796.494	2508.59
796.679	2493.67
796.863	2476.23
797.048	2517.12
797.232	2519.44
797.416	2543.47
797.601	2505.49
797.785	2585.12
797.969	2613.99
798.153	2488.83
798.338	2538.23
798.522	2578.53
798.706	2549.47
798.89	2559.74
799.074	2667.08
799.258	2651.38
799.443	2577.95
799.627	2540.37
799.811	2569.62
799.995	2508.01
800.179	2488.83
800.363	2529.13
800.547	2564.78
800.731	2582.41
800.915	2468.68
801.099	2502.39
801.283	2527
801.467	2529.71
801.651	2514.02
801.835	2604.88
802.019	2536.49
802.202	2519.05
802.386	2467.52
802.57	2460.74
802.754	2499.1
802.938	2465.77
803.121	2466.55
803.305	2557.41
803.489	2475.27
803.673	2506.27
803.856	2546.57
804.04	2554.12
804.224	2513.24
804.407	2490.96
804.591	2489.41
804.775	2506.07
804.958	2548.5
805.142	2632.2
805.326	2505.49
805.509	2529.71
805.693	2558.96
805.876	2576.01
806.06	2576.21
806.243	2565.16
806.427	2616.9
806.61	2563.42
806.794	2527
806.977	2598.68
807.16	2555.09
807.344	2570.01
807.527	2557.61
807.71	2531.26
807.894	2543.47
808.077	2548.7
808.26	2519.83
808.444	2463.06
808.627	2559.35
808.81	2483.21
808.993	2428.57
809.177	2437.1
809.36	2442.91
809.543	2473.91
809.726	2394.67
809.909	2404.74
810.092	2397.77
810.276	2374.91
810.459	2382.07
810.642	2381.11
810.825	2329.76
811.008	2353.98
811.191	2263.89
811.374	2248.97
811.557	2247.81
811.74	2290.24
811.923	2206.15
812.106	2212.16
812.289	2161.59
812.472	2166.63
812.654	2182.9
812.837	2146.86
813.02	2086.22
813.203	2053.09
813.386	1966.87
813.569	1964.94
813.751	1891.89
813.934	1902.74
814.117	1906.23
814.3	1841.71
814.482	1820.59
814.665	1754.91
814.848	1775.64
815.03	1721.01
815.213	1726.82
815.396	1643.51
815.578	1671.6
815.761	1634.02
815.943	1687.68
816.126	1608.05
816.309	1573.57
816.491	1506.92
816.674	1435.81
816.856	1503.04
817.039	1485.8
817.221	1584.03
817.403	1558.26
817.586	1507.3
817.768	1537.53
817.951	1442.4
818.133	1454.02
818.315	1473.79
818.498	1518.93
818.68	1586.94
818.862	1557.87
819.045	1611.93
819.227	1567.17
819.409	1513.89
819.591	1535.4
819.774	1584.61
819.956	1539.85
820.138	1601.08
820.32	1605.73
820.502	1687.68
820.684	1697.76
820.866	1753.36
821.048	1807.81
821.231	1765.18
821.413	1767.51
821.595	1770.61
821.777	1800.25
821.959	1740.19
822.141	1790.76
822.323	1672.96
822.505	1602.43
822.686	1551.87
822.868	1522.03
823.05	1382.14
823.232	1349.98
823.414	1307.16
823.596	1350.18
823.778	1387.18
823.96	1415.47
824.141	1409.46
824.323	1436.97
824.505	1486.57
824.687	1545.09
824.868	1572.79
825.05	1685.55
825.232	1718.88
825.413	1790.76
825.595	1725.46
825.777	1659.78
825.958	1728.37
826.14	1687.1
826.321	1734.18
826.503	1699.7
826.685	1740
826.866	1745.81
827.048	1727.6
827.229	1709.19
827.411	1665.21
827.592	1617.55
827.773	1618.52
827.955	1562.91
828.136	1557.68
828.318	1545.09
828.499	1576.86
828.68	1517.77
828.862	1560.2
829.043	1572.6
829.224	1515.64
829.406	1463.71
829.587	1524.74
829.768	1509.44
829.949	1539.08
830.131	1537.14
830.312	1580.54
830.493	1529
830.674	1584.22
830.855	1514.28
831.036	1540.24
831.218	1589.26
831.399	1633.24
831.58	1545.67
831.761	1565.82
831.942	1559.23
832.123	1535.79
832.304	1494.71
832.485	1523.19
832.666	1532.49
832.847	1527.84
833.028	1522.03
833.209	1529.2
833.389	1583.64
833.57	1493.16
833.751	1496.84
833.932	1575.7
834.113	1580.15
834.294	1538.5
834.475	1545.28
834.655	1596.62
834.836	1602.63
835.017	1599.14
835.198	1514.67
835.378	1566.98
835.559	1608.83
835.74	1551.67
835.92	1548.77
836.101	1592.75
836.281	1589.65
836.462	1600.69
836.643	1627.23
836.823	1661.72
837.004	1634.79
837.184	1657.85
837.365	1642.54
837.545	1651.26
837.726	1612.51
837.906	1653.97
838.087	1664.05
838.267	1636.53
838.448	1602.05
838.628	1605.92
838.808	1641.57
838.989	1632.47
839.169	1585.39
839.349	1644.09
839.53	1679.74
839.71	1668.31
839.89	1620.84
840.07	1660.17
840.251	1634.79
840.431	1677.03
840.611	1600.69
840.791	1599.14
840.971	1626.65
841.151	1613.48
841.332	1578.8
841.512	1613.28
841.692	1573.95
841.872	1627.62
842.052	1621.62
842.232	1623.55
842.412	1533.27
842.592	1601.47
842.772	1617.35
842.952	1620.65
843.132	1594.49
843.312	1566.4
843.492	1566.2
843.672	1640.99
843.851	1519.7
844.031	1600.11
844.211	1572.21
844.391	1549.15
844.571	1585.77
844.751	1630.14
844.93	1603.79
845.11	1560.78
845.29	1579.57
845.47	1564.85
845.649	1545.67
845.829	1609.99
846.009	1571.44
846.188	1614.25
846.368	1603.21
846.547	1593.33
846.727	1593.33
846.907	1502.85
847.086	1545.67
847.266	1620.65
847.445	1566.4
847.625	1523.58
847.804	1515.64
847.984	1541.99
848.163	1525.71
848.343	1544.12
848.522	1560
848.701	1557.87
848.881	1535.2
849.06	1518.74
849.239	1512.15
849.419	1531.52
849.598	1467.78
849.777	1457.9
849.957	1429.42
850.136	1401.91
850.315	1379.24
850.494	1406.75
850.674	1407.33
850.853	1483.67
851.032	1415.47
851.211	1456.74
851.39	1460.03
851.569	1375.17
851.748	1387.57
851.927	1406.56
852.107	1441.24
852.286	1407.53
852.465	1383.11
852.644	1451.12
852.823	1391.44
853.002	1421.86
853.181	1446.08
853.359	1429.61
853.538	1367.61
853.717	1399.58
853.896	1314.14
854.075	1287.6
854.254	1284.11
854.433	1205.64
854.611	1255.43
854.79	1181.23
854.969	1251.75
855.148	1288.95
855.327	1200.02
855.505	1270.93
855.684	1279.65
855.863	1323.63
856.041	1284.69
856.22	1295.54
856.399	1281.59
856.577	1347.85
856.756	1340.88
856.934	1462.74
857.113	1455.77
857.291	1374.2
857.47	1325.57
857.648	1365.09
857.827	1396.48
858.005	1438.91
858.184	1355.79
858.362	1441.04
858.541	1352.31
858.719	1380.01
858.898	1348.04
859.076	1311.43
859.254	1411.4
859.433	1333.13
859.611	1308.52
859.789	1284.11
859.967	1390.48
860.146	1381.37
860.324	1259.89
860.502	1319.76
860.68	1317.82
860.859	1280.43
861.037	1307.55
861.215	1334.09
861.393	1308.91
861.571	1298.83
861.749	1290.89
861.927	1290.5
862.105	1339.91
862.283	1295.73
862.461	1287.4
862.639	1263.76
862.817	1282.95
862.995	1287.4
863.173	1253.88
863.351	1264.54
863.529	1308.33
863.707	1350.56
863.885	1300
864.063	1230.63
864.241	1282.75
864.418	1313.75
864.596	1290.31
864.774	1216.3
864.952	1237.42
865.129	1248.85
865.307	1229.67
865.485	1186.65
865.663	1224.24
865.84	1181.23
866.018	1172.12
866.196	1060.72
866.373	1085.32
866.551	1045.22
866.728	1015.96
866.906	1089.2
867.084	1069.63
867.261	1121.94
867.439	1136.86
867.616	1164.95
867.794	1117.68
867.971	1162.63
868.149	1163.6
868.326	1222.69
868.503	1164.76
868.681	1156.82
868.858	1144.22
869.035	1129.5
869.213	1194.79
869.39	1150.81
869.567	1231.6
869.745	1149.26
869.922	1169.99
870.099	1175.22
870.276	1188.98
870.454	1163.79
870.631	1182
870.808	1157.01
870.985	1168.63
871.162	1199.05
871.339	1148.1
871.517	1134.15
871.694	1094.24
871.871	1163.79
872.048	1127.75
872.225	1133.76
872.402	1129.3
872.579	1096.75
872.756	1177.35
872.933	1076.02
873.11	1093.85
873.287	1131.82
873.463	1071.95
873.64	1120.39
873.817	1114.58
873.994	1098.3
874.171	1064.21
874.348	1138.02
874.524	1049.09
874.701	1092.49
874.878	1024.29
875.055	1086.49
875.231	1059.36
875.408	1111.67
875.585	991.74
875.762	1075.83
875.938	1044.83
876.115	1071.37
876.291	1034.95
876.468	1046.96
876.645	1001.82
876.821	1032.82
876.998	1061.49
877.174	1060.72
877.351	1014.22
877.527	1006.47
877.704	1042.89
877.88	1000.46
878.057	1018.29
878.233	1077.77
878.409	1045.8
878.586	1043.86
878.762	1005.31
878.938	1014.22
879.115	965.01
879.291	1042.51
879.467	961.91
879.644	996.39
879.82	1023.91
879.996	978.18
880.172	954.54
880.349	987.87
880.525	1010.34
880.701	970.43
880.877	949.51
881.053	976.05
881.229	970.24
881.405	1036.11
881.581	954.35
881.757	978.57
881.933	970.04
882.109	984.96
882.285	970.24
882.461	929.55
882.637	961.33
882.813	956.48
882.989	951.44
883.165	1021.77
883.341	948.93
883.517	990.77
883.693	964.81
883.869	984.57
884.044	958.61
884.22	988.84
884.396	1019.84
884.572	1000.46
884.747	1031.07
884.923	983.22
885.099	1002.59
885.275	1022.74
885.45	904.75
885.626	950.67
885.801	919.67
885.977	956.29
886.153	904.56
886.328	956.87
886.504	948.93
886.679	977.02
886.855	934.01
887.03	973.34
887.206	998.33
887.381	985.16
887.557	969.08
887.732	985.35
887.908	990.39
888.083	1021
888.258	963.65
888.434	913.28
888.609	935.36
888.784	1002.98
888.96	976.63
889.135	942.14
889.31	902.23
889.485	985.35
889.661	940.79
889.836	989.61
890.011	984.19
890.186	917.54
890.361	913.28
890.537	952.03
890.712	960.55
890.887	948.15
891.062	933.81
891.237	1003.95
891.412	950.86
891.587	954.16
891.762	984.38
891.937	1019.06
892.112	921.03
892.287	952.41
892.462	889.64
892.637	871.62
892.812	899.52
892.987	862.71
893.161	862.13
893.336	880.92
893.511	868.13
893.686	906.49
893.861	851.28
894.035	886.54
894.21	854.76
894.385	807.49
894.56	849.34
894.734	766.03
894.909	768.35
895.084	763.32
895.258	731.15
895.433	761.18
895.608	730.96
895.782	681.55
895.957	702.29
896.131	713.91
896.306	631.57
896.48	659.66
896.655	673.61
896.829	638.74
897.004	614.32
897.178	622.66
897.353	619.94
897.527	669.74
897.701	626.34
897.876	617.04
898.05	644.94
898.224	654.43
898.399	664.12
898.573	640.09
898.747	509.89
898.921	571.89
899.096	469.59
899.27	515.51
899.444	515.9
899.618	544.38
899.792	561.82
899.967	557.94
900.141	593.21
900.315	516.87
900.489	528.49
900.663	547.67
900.837	543.22
901.011	512.41
901.185	599.21
901.359	583.52
901.533	522.1
901.707	553.87
901.881	543.22
902.055	474.83
902.229	555.81
902.403	602.31
902.576	526.94
902.75	539.34
902.924	636.99
903.098	587.2
903.272	640.29
903.446	689.69
903.619	667.8
903.793	670.9
903.967	652.49
904.14	707.9
904.314	712.17
904.488	656.56
904.661	704.8
904.835	659.66
905.009	724.18
905.182	776.1
905.356	714.1
905.529	674.97
905.703	667.99
905.876	654.43
906.05	636.99
906.223	618.97
906.397	594.17
906.57	554.65
906.744	524.04
906.917	553.87
907.09	560.46
907.264	535.47
907.437	519.19
907.61	466.11
907.784	534.69
907.957	513.58
908.13	469.4
908.304	518.61
908.477	484.71
908.65	498.46
908.823	451.58
908.996	522.29
909.17	465.14
909.343	485.09
909.516	461.46
909.689	467.27
909.862	456.81
910.035	485.68
910.208	422.9
910.381	458.16
910.554	539.34
910.727	497.49
910.9	426.58
911.073	451.58
911.246	508.93
911.419	537.21
911.592	492.46
911.765	440.34
911.938	463.2
912.11	474.44
912.283	474.44
912.456	513.77
912.629	459.91
912.802	437.82
912.974	402.95
913.147	393.84
913.32	349.08
913.493	378.34
913.665	395.97
913.838	410.11
914.01	419.41
914.183	423.68
914.356	392.29
914.528	439.56
914.701	462.04
914.873	463.59
915.046	384.15
915.218	357.8
915.391	321.38
915.563	359.93
915.736	393.65
915.908	415.93
916.081	393.26
916.253	381.83
916.425	405.85
916.598	407.01
916.77	392.48
916.942	384.15
917.115	332.42
917.287	371.75
917.459	379.11
917.632	331.84
917.804	306.46
917.976	373.3
918.148	406.05
918.32	407.21
918.493	423.1
918.665	442.86
918.837	401.78
919.009	451.38
919.181	445.57
919.353	428.71
919.525	434.91
919.697	441.31
919.869	454.48
920.041	492.65
920.213	535.86
920.385	488.78
920.557	432.98
920.729	467.27
920.901	452.74
921.073	439.18
921.244	399.46
921.416	458.94
921.588	453.9
921.76	420.38
921.932	468.63
922.103	469.21
922.275	434.53
922.447	456.42
922.619	382.02
922.79	431.23
922.962	428.13
923.134	419.03
923.305	385.7
923.477	375.43
923.648	396.55
923.82	389.77
923.991	337.46
924.163	337.65
924.335	358.38
924.506	348.7
924.677	402.17
924.849	350.63
925.02	375.43
925.192	415.73
925.363	381.63
925.535	390.55
925.706	349.08
925.877	391.51
926.049	370.59
926.22	376.01
926.391	364.58
926.562	391.13
926.734	343.27
926.905	433.36
927.076	316.73
927.247	331.26
927.419	325.83
927.59	295.8
927.761	299.87
927.932	268.87
928.103	299.48
928.274	251.05
928.445	236.13
928.616	247.95
928.787	277.01
928.958	276.62
929.129	264.22
929.3	249.89
929.471	215.01
929.642	188.86
929.813	134.99
929.984	190.41
930.155	129.18
930.326	184.4
930.496	147.39
930.667	126.86
930.838	168.51
931.009	101.48
931.18	127.24
931.35	125.89
931.521	137.51
931.692	85.98
931.863	57.88
932.033	115.04
932.204	122.59
932.374	125.11
932.545	51.88
932.716	121.43
932.886	91.79
933.057	39.86
933.227	62.34
933.398	116.78
933.568	61.37
933.739	16.81
933.909	14.29
934.08	92.76
934.25	-10.9
934.421	15.45
934.591	45.68
934.761	5.96
934.932	4.6
935.102	41.8
935.272	40.25
935.443	35.02
935.613	33.08
935.783	50.33
935.953	19.13
936.123	141.58
936.294	32.89
936.464	8.48
936.634	30.18
936.804	12.74
936.974	6.35
937.144	35.02
937.314	18.75
937.484	29.59
937.655	1.31
937.825	67.76
937.995	16.42
938.165	91.79
938.334	43.54
938.504	67.96
938.674	32.89
938.844	71.64
939.014	90.04
939.184	74.16
939.354	133.83
939.524	128.21
939.694	60.79
939.863	71.25
940.033	125.11
940.203	127.24
940.373	115.23
940.542	92.95
940.712	109.42
940.882	123.37
941.051	103.99
941.221	113.87
941.391	120.07
941.56	66.41
941.73	73.19
941.899	182.27
942.069	69.51
942.238	98.38
942.408	54.98
942.577	117.94
942.747	89.46
942.916	20.68
943.086	31.53
943.255	109.03
943.425	76.87
943.594	81.52
943.763	10.8
943.933	38.51
944.102	-2.57
944.271	61.56
944.441	66.99
944.61	35.21
944.779	42.38
944.948	141.58
945.117	36.96
945.287	53.43
945.456	13.13
945.625	23.39
945.794	58.85
945.963	39.86
946.132	80.74
946.301	36.76
946.47	63.11
946.639	28.82
946.808	44.51
946.977	68.73
947.146	125.11
947.315	59.24
947.484	85.39
947.653	37.93
947.822	75.9
947.991	46.84
948.16	104.77
948.329	104.38
948.498	69.12
948.666	40.83
948.835	84.62
949.004	14.48
949.173	23.01
949.341	74.74
949.51	77.06
949.679	75.13
949.847	57.3
950.016	144.1
950.185	79.39
950.353	41.03
950.522	46.84
950.69	107.87
950.859	41.61
951.028	92.56
951.196	82.1
951.365	34.44
951.533	54.2
951.701	71.44
951.87	83.07
952.038	4.41
952.207	59.82
952.375	84.43
952.543	42.58
952.712	70.09
952.88	63.5
953.048	101.28
953.217	47.03
953.385	83.07
953.553	108.06
953.721	30.18
953.89	45.68
954.058	35.21
954.226	30.56
954.394	96.24
954.562	28.43
954.73	58.85
954.898	42.38
955.067	90.04
955.235	45.68
955.403	117.94
955.571	120.66
955.739	78.42
955.907	40.64
956.075	42.77
956.243	23.01
956.41	79.97
956.578	38.7
956.746	12.55
956.914	65.63
957.082	95.08
957.25	94.69
957.418	52.46
957.585	83.46
957.753	104.58
957.921	25.53
958.089	73.77
958.256	66.79
958.424	71.25
958.592	58.85
958.759	36.38
958.927	51.88
959.095	39.48
959.262	36.38
959.43	97.02
959.597	21.07
959.765	57.69
959.932	37.93
960.1	85.01
960.267	48.58
960.435	60.01
960.602	99.93
960.77	62.92
960.937	46.84
961.104	70.48
961.272	25.14
961.439	39.28
961.606	71.44
961.774	54.59
961.941	66.02
962.108	79
962.275	82.68
962.443	109.81
962.61	83.26
962.777	130.15
962.944	101.86
963.111	90.04
963.278	93.92
963.446	62.34
963.613	73.77
963.78	94.89
963.947	92.37
964.114	90.63
964.281	148.56
964.448	108.45
964.615	55.75
964.782	79
964.949	83.84
965.116	100.89
965.282	121.43
965.449	66.99
965.616	47.61
965.783	102.44
965.95	84.62
966.117	56.91
966.283	59.24
966.45	121.04
966.617	85.01
966.784	102.44
966.95	109.42
967.117	123.95
967.284	66.21
967.45	60.59
967.617	132.67
967.784	112.91
967.95	151.66
968.117	112.91
968.283	123.17
968.45	192.73
968.616	127.63
968.783	131.89
968.949	110.58
969.116	135.77
969.282	114.07
969.449	134.8
969.615	109.03
969.781	59.24
969.948	76.09
970.114	66.99
970.28	151.27
970.447	92.37
970.613	143.32
970.779	105.54
970.945	122.59
971.112	111.94
971.278	104.77
971.444	78.81
971.61	131.7
971.776	87.91
971.942	107.87
972.108	128.99
972.275	81.33
972.441	127.63
972.607	182.85
972.773	94.11
972.939	118.52
973.105	97.79
973.271	58.08
973.437	88.49
973.602	79.97
973.768	91.98
973.934	83.46
974.1	106.9
974.266	24.75
974.432	110.77
974.598	106.13
974.763	137.12
974.929	77.06
975.095	135.96
975.261	80.16
975.426	65.63
975.592	85.98
975.758	121.24
975.923	46.45
976.089	52.26
976.255	106.13
976.42	102.25
976.586	107.09
976.751	106.32
976.917	173.55
977.082	104.77
977.248	80.55
977.413	47.42
977.579	83.26
977.744	97.41
977.91	38.51
978.075	64.08
978.24	106.51
978.406	89.08
978.571	45.68
978.736	34.05
978.902	99.54
979.067	57.88
979.232	31.73
979.397	95.66
979.563	123.37
979.728	58.08
979.893	87.91
980.058	70.09
980.223	101.28
980.388	66.02
980.554	95.28
980.719	65.05
980.884	74.16
981.049	116.78
981.214	55.94
981.379	81.13
981.544	70.09
981.709	65.24
981.874	66.02
982.039	88.88
982.204	94.31
982.368	114.65
982.533	48
982.698	126.86
982.863	111.55
983.028	67.76
983.193	89.08
983.357	64.66
983.522	123.56
983.687	70.67
983.852	58.27
984.016	86.56
984.181	104.19
984.346	66.02
984.51	92.18
984.675	96.63
984.839	100.89
985.004	107.68
985.168	139.26
985.333	77.45
985.498	80.55
985.662	116.01
985.827	91.4
985.991	80.74
986.155	57.49
986.32	96.05
986.484	140.61
986.649	100.7
986.813	29.59
986.977	90.24
987.142	96.05
987.306	42.38
987.47	51.29
987.634	89.66
987.799	84.23
987.963	84.81
988.127	117.94
988.291	155.53
988.455	92.56
988.62	48.39
988.784	101.86
988.948	72.61
989.112	36.38
989.276	79
989.44	96.83
989.604	78.81
989.768	81.33
989.932	120.85
990.096	52.07
990.26	41.61
990.424	39.67
990.588	73.19
990.752	161.92
990.915	128.99
991.079	81.91
991.243	53.23
991.407	85.59
991.571	91.98
991.734	82.88
991.898	113.1
992.062	159.99
992.226	91.98
992.389	68.34
992.553	47.03
992.717	53.43
992.88	65.05
993.044	83.46
993.207	82.29
993.371	94.89
993.535	89.08
993.698	79.78
993.862	86.94
994.025	105.93
994.189	83.46
994.352	99.34
994.515	93.92
994.679	117.94
994.842	58.27
995.006	96.05
995.169	72.41
995.332	51.68
995.496	88.3
995.659	16.81
995.822	71.44
995.985	77.64
996.149	120.27
996.312	73.77
996.475	143.91
996.638	72.8
996.801	115.62
996.964	143.32
997.128	67.96
997.291	75.71
997.454	62.53
997.617	30.76
997.78	120.66
997.943	33.28
998.106	97.99
998.269	55.36
998.432	84.43
998.595	74.16
998.758	31.14
998.92	37.93
999.083	22.04
999.246	52.46
999.409	20.88
999.572	31.92
999.735	54.59
999.897	80.55
1000.06	51.49
1000.223	53.62
1000.386	87.53
1000.548	79.58
1000.711	95.47
1000.874	86.75
1001.036	20.68
1001.199	75.9
1001.361	42.96
1001.524	66.41
1001.687	79.19
1001.849	58.27
1002.012	61.18
1002.174	77.64
1002.337	111.36
1002.499	48
1002.661	116.78
1002.824	46.84
1002.986	-4.7
1003.149	74.54
1003.311	18.75
1003.473	121.62
1003.636	54.01
1003.798	77.26
1003.96	52.26
1004.123	56.72
1004.285	56.91
1004.447	40.25
1004.609	47.61
1004.771	86.17
1004.933	7.7
1005.096	30.56
1005.258	-7.99
1005.42	30.37
1005.582	85.01
1005.744	54.98
1005.906	1.5
1006.068	67.38
1006.23	42.19
1006.392	23.01
1006.554	24.36
1006.716	80.55
1006.878	60.98
1007.04	11.19
1007.202	20.1
1007.363	46.84
1007.525	35.99
1007.687	75.51
1007.849	88.11
1008.011	-17.87
1008.172	3.63
1008.334	28.04
1008.496	46.45
1008.658	10.41
1008.819	36.76
1008.981	6.35
1009.143	23.39
1009.304	32.31
1009.466	71.06
1009.627	90.82
1009.789	154.56
1009.95	58.66
1010.112	11.96
1010.273	56.53
1010.435	39.48
1010.596	30.95
1010.758	-7.02
1010.919	26.88
1011.081	16.61
1011.242	54.98
1011.403	52.84
1011.565	32.11
1011.726	60.59
1011.887	-4.7
1012.049	20.49
1012.21	53.62
1012.371	98.18
1012.532	-37.05
1012.693	60.98
1012.855	25.33
1013.016	31.73
1013.177	63.11
1013.338	47.03
1013.499	96.83
1013.66	64.47
1013.821	29.01
1013.982	45.09
1014.143	27.08
1014.304	39.48
1014.465	43.16
1014.626	57.3
1014.787	29.79
1014.948	77.45
1015.109	-26.4
1015.27	56.72
1015.431	30.76
1015.592	10.8
1015.752	75.9
1015.913	20.3
1016.074	40.06
1016.235	46.45
1016.395	33.28
1016.556	26.88
1016.717	15.26
1016.877	61.18
1017.038	30.56
1017.199	58.66
1017.359	41.22
1017.52	47.81
1017.681	34.63
1017.841	37.15
1018.002	29.4
1018.162	3.44
1018.323	71.25
1018.483	48.19
1018.644	31.73
1018.804	14.1
1018.964	-7.22
1019.125	27.85
1019.285	34.24
1019.446	-5.09
1019.606	18.36
1019.766	-19.81
1019.926	46.26
1020.087	53.43
1020.247	-18.07
1020.407	47.61
1020.567	41.99
1020.728	27.46
1020.888	-8.38
1021.048	21.07
1021.208	8.09
1021.368	24.56
1021.528	79.97
1021.688	57.88
1021.848	32.89
1022.008	38.89
1022.168	18.55
1022.328	8.28
1022.488	56.14
1022.648	44.9
1022.808	26.3
1022.968	24.17
1023.128	4.02
1023.288	4.41
1023.448	18.75
1023.608	43.93
1023.767	36.57
1023.927	9.06
1024.087	-13.03
1024.247	4.41
1024.406	-4.5
1024.566	13.9
1024.726	7.7
1024.885	23.2
1025.045	63.89
1025.205	17.2
1025.364	17.2
1025.524	9.25
1025.683	7.9
1025.843	54.78
1026.003	39.28
1026.162	57.69
1026.321	46.64
1026.481	25.72
1026.64	11.77
1026.8	27.66
1026.959	47.61
1027.119	23.2
1027.278	8.48
1027.437	6.93
1027.597	6.15
1027.756	22.04
1027.915	11.19
1028.074	30.37
1028.234	0.15
1028.393	19.52
1028.552	-5.86
1028.711	-44.8
1028.87	47.81
1029.03	-11.67
1029.189	-4.31
1029.348	-48.1
1029.507	8.67
1029.666	8.28
1029.825	-0.44
1029.984	-8.19
1030.143	19.13
1030.302	1.11
1030.461	-33.95
1030.62	19.13
1030.779	59.82
1030.938	4.21
1031.097	-10.12
1031.255	34.83
1031.414	87.91
1031.573	71.83
1031.732	-35.12
1031.891	24.56
1032.049	41.61
1032.208	26.69
1032.367	-10.9
1032.525	20.88
1032.684	0.92
1032.843	2.47
1033.001	-47.13
1033.16	122.59
1033.319	44.13
1033.477	26.88
1033.636	25.53
1033.794	-22.91
1033.953	15.65
1034.111	10.8
1034.27	-3.34
1034.428	28.82
1034.587	-17.29
1034.745	13.71
1034.903	20.1
1035.062	43.54
1035.22	-23.88
1035.378	38.51
1035.537	3.83
1035.695	29.21
1035.853	14.87
1036.011	34.24
1036.17	1.31
1036.328	-52.17
1036.486	7.9
1036.644	20.1
1036.802	-48.68
1036.96	-25.24
1037.119	-4.5
1037.277	1.5
1037.435	6.93
1037.593	-9.74
1037.751	-16.13
1037.909	42.19
1038.067	42.19
