Data from gum_young_FLMT105791__1__17-38-00-046.txt Node

Date: Mon Mar 20 17:38:00 GMT 2023
User: antho
Spectrometer: FLMT10579
Trigger mode: 0
Integration Time (sec): 1.000000E-1
Scans to average: 10
Electric dark correction enabled: true
Nonlinearity correction enabled: false
Boxcar width: 0
XAxis mode: Wavelengths
Number of Pixels in Spectrum: 3648
>>>>>Begin Spectral Data<<<<<
345.248	-135.4
345.464	-135.4
345.681	-135.4
345.898	-145.67
346.114	-144.5
346.331	-39.49
346.548	13.4
346.764	15.53
346.981	-5.01
347.197	-18.76
347.414	3.33
347.631	-9.66
347.847	65.13
348.064	-0.55
348.28	7.78
348.497	-24.57
348.713	-7.14
348.93	36.46
349.146	27.35
349.363	-5.01
349.579	-1.52
349.796	10.88
350.012	-14.69
350.229	15.53
350.445	-9.07
350.661	-3.07
350.878	6.43
351.094	12.04
351.311	12.04
351.527	21.93
351.743	-5.59
351.96	28.9
352.176	22.51
352.392	10.3
352.609	43.43
352.825	6.81
353.041	9.53
353.257	10.88
353.474	21.93
353.69	4.1
353.906	31.61
354.122	-3.84
354.339	46.34
354.555	19.41
354.771	-14.11
354.987	45.56
355.203	66.68
355.42	-20.31
355.636	5.46
355.852	-25.15
356.068	19.6
356.284	4.49
356.5	78.31
356.716	24.44
356.932	13.59
357.148	16.5
357.364	24.44
357.58	25.61
357.796	67.65
358.012	25.03
358.228	38.59
358.444	-57.51
358.66	54.67
358.876	20.57
359.092	-12.17
359.308	37.62
359.524	8.17
359.74	13.4
359.956	-15.66
360.172	23.86
360.388	38.39
360.604	5.65
360.819	75.4
361.035	42.27
361.251	35.49
361.467	-5.78
361.683	53.89
361.898	12.43
362.114	35.1
362.33	6.04
362.546	32.78
362.762	-2.29
362.977	16.31
363.193	-13.72
363.409	18.24
363.624	6.23
363.84	-2.87
364.056	1.78
364.271	36.26
364.487	21.15
364.703	-4.23
364.918	-22.83
365.134	3.52
365.35	11.08
365.565	80.05
365.781	7.98
365.996	39.75
366.212	53.89
366.427	47.5
366.643	-32.52
366.858	39.56
367.074	-23.6
367.289	47.31
367.505	113.18
367.72	-27.09
367.936	-7.14
368.151	38.59
368.367	35.49
368.582	23.09
368.798	-5.01
369.013	53.51
369.228	45.18
369.444	19.79
369.659	40.72
369.874	36.84
370.09	75.98
370.305	-34.84
370.52	-10.82
370.736	57.96
370.951	22.51
371.166	59.51
371.381	60.48
371.597	46.73
371.812	-24.77
372.027	-9.46
372.242	5.65
372.458	90.51
372.673	31.81
372.888	16.69
373.103	43.43
373.318	87.02
373.533	32.58
373.749	24.44
373.964	-31.94
374.179	60.68
374.394	-14.11
374.609	71.33
374.824	-14.89
375.039	58.35
375.254	-6.75
375.469	64.36
375.684	31.61
375.899	31.81
376.114	23.28
376.329	37.62
376.544	56.22
376.759	57.77
376.974	-10.62
377.189	37.62
377.404	9.33
377.619	51.18
377.834	-6.94
378.049	-22.44
378.264	2.16
378.478	22.31
378.693	14.56
378.908	55.44
379.123	31.42
379.338	55.83
379.553	33.16
379.767	32.39
379.982	30.64
380.197	26.38
380.412	21.93
380.626	34.52
380.841	83.54
381.056	51.96
381.271	49.44
381.485	5.65
381.7	2.74
381.915	19.21
382.129	23.09
382.344	29.87
382.559	28.51
382.773	50.6
382.988	-22.05
383.202	49.24
383.417	5.84
383.632	127.91
383.846	26.38
384.061	18.63
384.275	21.34
384.49	37.62
384.704	44.01
384.919	15.53
385.133	21.15
385.348	40.91
385.562	3.52
385.777	56.99
385.991	25.61
386.206	20.76
386.42	33.55
386.634	60.68
386.849	34.71
387.063	44.01
387.277	22.7
387.492	17.66
387.706	25.8
387.92	2.36
388.135	86.06
388.349	46.73
388.563	30.06
388.778	38.2
388.992	47.11
389.206	53.7
389.42	65.52
389.635	38.2
389.849	58.93
390.063	61.84
390.277	47.11
390.491	111.24
390.706	33.74
390.92	68.23
391.134	26.77
391.348	41.11
391.562	-23.02
391.776	28.13
391.99	17.66
392.205	65.71
392.419	33.55
392.633	48.08
392.847	91.48
393.061	6.43
393.275	108.14
393.489	38.01
393.703	52.93
393.917	64.94
394.131	18.24
394.345	52.15
394.559	84.12
394.773	30.26
394.986	64.16
395.2	55.25
395.414	52.73
395.628	5.46
395.842	63.39
396.056	19.99
396.27	-2.29
396.484	76.76
396.697	39.94
396.911	91.29
397.125	45.18
397.339	70.17
397.553	56.61
397.766	106.79
397.98	50.99
398.194	97.1
398.408	16.89
398.621	44.21
398.835	69.98
399.049	86.25
399.262	110.47
399.476	75.01
399.69	88.19
399.903	121.32
400.117	51.38
400.331	77.53
400.544	38.98
400.758	180.99
400.971	73.46
401.185	81.02
401.398	43.82
401.612	112.41
401.826	97.68
402.039	102.14
402.253	63.97
402.466	88.19
402.68	65.13
402.893	84.12
403.106	71.14
403.32	46.53
403.533	90.51
403.747	73.46
403.96	67.26
404.174	79.27
404.387	47.5
404.6	71.14
404.814	90.9
405.027	66.68
405.24	87.99
405.454	68.62
405.667	113.57
405.88	11.66
406.094	94.77
406.307	116.67
406.52	78.11
406.733	55.44
406.947	36.26
407.16	133.72
407.373	103.49
407.586	61.84
407.799	55.64
408.012	122.67
408.226	81.79
408.439	137.79
408.652	49.63
408.865	115.31
409.078	148.64
409.291	105.24
409.504	48.28
409.717	82.96
409.93	120.16
410.143	71.33
410.357	41.69
410.57	56.8
410.783	92.64
410.996	76.95
411.209	107.76
411.421	123.64
411.634	93.81
411.847	61.64
412.06	89.35
412.273	91.29
412.486	84.12
412.699	176.73
412.912	98.84
413.125	106.01
413.338	100.39
413.55	114.73
413.763	124.22
413.976	116.28
414.189	89.35
414.402	93.03
414.615	152.32
414.827	84.12
415.04	125.97
415.253	116.67
415.466	150.57
415.678	160.26
415.891	99.23
416.104	97.49
416.316	86.06
416.529	97.1
416.742	144.57
416.954	155.81
417.167	107.56
417.38	117.83
417.592	137.98
417.805	97.29
418.017	87.02
418.23	144.37
418.442	91.29
418.655	89.74
418.868	117.83
419.08	172.08
419.293	147.86
419.505	115.51
419.718	117.64
419.93	144.76
420.142	84.89
420.355	144.96
420.567	183.9
420.78	162.97
420.992	111.63
421.205	179.05
421.417	82.57
421.629	103.3
421.842	76.95
422.054	81.99
422.266	162.2
422.479	172.85
422.691	117.06
422.903	134.88
423.115	117.83
423.328	102.91
423.54	116.67
423.752	125.58
423.964	125.39
424.177	155.22
424.389	103.11
424.601	229.24
424.813	151.35
425.025	149.99
425.238	161.42
425.45	138.37
425.662	126.16
425.874	393.34
426.086	141.86
426.298	138.76
426.51	155.81
426.722	120.54
426.934	94.77
427.146	141.47
427.358	96.13
427.57	156.19
427.782	148.64
427.994	141.47
428.206	128.87
428.418	86.64
428.63	162.97
428.842	171.69
429.054	119.19
429.266	152.51
429.478	109.5
429.69	130.81
429.902	104.46
430.114	165.49
430.325	124.03
430.537	129.07
430.749	100.97
430.961	97.29
431.173	102.91
431.384	152.9
431.596	71.33
431.808	136.24
432.02	168.79
432.231	169.37
432.443	187.19
432.655	143.21
432.867	129.84
433.078	146.31
433.29	217.8
433.502	171.69
433.713	187.39
433.925	158.32
434.136	194.17
434.348	128.1
434.56	100.97
434.771	224.78
434.983	97.29
435.194	148.06
435.406	166.27
435.617	204.44
435.829	227.1
436.04	192.04
436.252	201.34
436.463	246.67
436.675	212.96
436.886	160.65
437.098	194.55
437.309	245.12
437.521	187.39
437.732	207.73
437.943	181.77
438.155	164.14
438.366	125.77
438.578	247.25
438.789	198.24
439	211.02
439.211	176.92
439.423	191.26
439.634	221.68
439.845	204.63
440.057	180.8
440.268	231.75
440.479	193.97
440.69	195.33
440.902	174.99
441.113	195.33
441.324	176.92
441.535	226.52
441.746	243.77
441.957	199.79
442.168	217.61
442.38	217.22
442.591	244.54
442.802	196.69
443.013	206.18
443.224	228.07
443.435	194.75
443.646	223.81
443.857	205.4
444.068	216.45
444.279	228.65
444.49	294.14
444.701	229.62
444.912	321.46
445.123	260.82
445.334	245.32
445.545	257.72
445.756	234.85
445.967	208.12
446.178	251.71
446.388	252.48
446.599	241.25
446.81	274.18
447.021	255
447.232	261.59
447.443	308.28
447.653	218.97
447.864	297.63
448.075	235.44
448.286	307.32
448.496	256.94
448.707	301.7
448.918	249.97
449.129	355.17
449.339	252.1
449.55	297.63
449.761	263.72
449.971	309.25
450.182	245.7
450.393	286.58
450.603	273.8
450.814	303.05
451.024	297.24
451.235	330.18
451.446	343.55
451.656	363.5
451.867	260.04
452.077	295.88
452.288	345.87
452.498	333.86
452.709	292.78
452.919	309.06
453.13	249.77
453.34	329.98
453.55	269.53
453.761	335.6
453.971	298.98
454.182	323.78
454.392	320.68
454.602	363.11
454.813	339.67
455.023	331.92
455.233	265.47
455.444	319.52
455.654	255
455.864	305.77
456.075	303.83
456.285	297.43
456.495	335.41
456.705	305.57
456.916	352.26
457.126	377.84
457.336	322.62
457.546	268.37
457.756	305.57
457.967	349.36
458.177	323.78
458.387	315.45
458.597	301.7
458.807	321.07
459.017	289.1
459.227	327.47
459.437	314.87
459.647	360.6
459.857	330.37
460.068	325.33
460.278	365.44
460.488	346.26
460.698	370.48
460.908	367.76
461.117	307.32
461.327	335.99
461.537	329.79
461.747	339.86
461.957	334.63
462.167	421.63
462.377	397.6
462.587	364.08
462.797	382.68
463.007	325.92
463.216	375.32
463.426	386.56
463.636	416.01
463.846	334.44
464.056	334.25
464.265	404.58
464.475	338.7
464.685	346.26
464.895	356.53
465.104	367.18
465.314	387.14
465.524	360.6
465.733	341.03
465.943	425.31
466.153	451.27
466.362	390.05
466.572	401.48
466.782	354.4
466.991	381.52
467.201	424.92
467.41	324.37
467.62	380.36
467.829	369.9
468.039	407.1
468.249	361.56
468.458	395.66
468.668	425.69
468.877	419.3
469.086	421.82
469.296	415.62
469.505	380.36
469.715	450.3
469.924	384.43
470.134	444.1
470.343	454.56
470.552	400.7
470.762	424.92
470.971	382.88
471.18	394.5
471.39	411.36
471.599	401.28
471.808	469.68
472.018	377.45
472.227	465.22
472.436	483.82
472.645	426.28
472.855	422.01
473.064	504.16
473.273	457.86
473.482	472.58
473.691	498.35
473.901	481.49
474.11	443.71
474.319	551.82
474.528	478.2
474.737	503.39
474.946	497.77
475.155	469.87
475.364	537.1
475.573	487.31
475.783	489.63
475.992	500.09
476.201	528.19
476.41	510.56
476.619	463.48
476.828	498.16
477.037	475.1
477.245	515.98
477.454	548.34
477.663	492.93
477.872	510.36
478.081	584.76
478.29	512.88
478.499	594.64
478.708	547.56
478.917	599.68
479.125	551.44
479.334	557.83
479.543	552.6
479.752	570.04
479.961	557.83
480.169	632.23
480.378	560.93
480.587	675.05
480.796	611.11
481.004	587.28
481.213	616.15
481.422	589.02
481.63	614.99
481.839	658.77
482.048	657.61
482.256	643.08
482.465	626.22
482.674	655.48
482.882	631.26
483.091	689.77
483.299	625.25
483.508	670.59
483.716	653.35
483.925	659.16
484.134	615.37
484.342	619.44
484.551	669.43
484.759	657.61
484.967	686.28
485.176	686.28
485.384	689.77
485.593	733.37
485.801	665.55
486.01	649.28
486.218	629.32
486.426	555.12
486.635	596.97
486.843	595.22
487.051	642.3
487.26	648.31
487.468	638.24
487.676	696.94
487.885	630.29
488.093	713.02
488.301	729.49
488.509	701.4
488.717	742.86
488.926	719.61
489.134	701.4
489.342	715.15
489.55	683.96
489.758	711.08
489.967	719.03
490.175	822.68
490.383	736.66
490.591	828.11
490.799	757.2
491.007	810.09
491.215	793.81
491.423	766.3
491.631	796.14
491.839	751.77
492.047	817.06
492.255	753.13
492.463	729.68
492.671	767.85
492.879	811.25
493.087	803.31
493.295	791.1
493.503	818.42
493.711	824.04
493.919	858.72
494.127	861.24
494.334	854.26
494.542	835.66
494.75	841.48
494.958	828.69
495.166	879.26
495.374	886.04
495.581	891.66
495.789	873.06
495.997	945.13
496.205	867.44
496.412	892.82
496.62	874.03
496.828	867.44
497.035	892.63
497.243	937.58
497.451	903.48
497.658	917.04
497.866	903.09
498.074	980.39
498.281	896.31
498.489	974.58
498.696	914.52
498.904	918.98
499.112	897.86
499.319	987.95
499.527	917.04
499.734	973.42
499.942	916.65
500.149	938.16
500.357	977.87
500.564	926.53
500.771	956.76
500.979	923.63
501.186	922.27
501.394	949.97
501.601	942.03
501.808	998.02
502.016	981.75
502.223	934.09
502.43	980.97
502.638	993.96
502.845	957.53
503.052	1049.37
503.26	986.4
503.467	1079.2
503.674	1024.76
503.881	1019.14
504.089	1075.14
504.296	1063.9
504.503	1010.81
504.71	1060.99
504.917	1004.81
505.125	1045.1
505.332	1065.45
505.539	1111.17
505.746	1138.68
505.953	1132.68
506.16	1140.04
506.367	1162.9
506.574	1172.01
506.781	1172.98
506.988	1136.36
507.195	1141.2
507.402	1159.42
507.609	1195.07
507.816	1176.08
508.023	1112.72
508.23	1128.8
508.437	1128.8
508.644	1160.97
508.851	1239.05
509.058	1251.25
509.265	1229.16
509.472	1229.16
509.679	1333.4
509.885	1279.15
510.092	1271.01
510.299	1282.25
510.506	1243.11
510.713	1233.43
510.92	1304.73
511.126	1307.83
511.333	1347.93
511.54	1324.49
511.746	1410.12
511.953	1364.98
512.16	1417.49
512.367	1351.81
512.573	1365.56
512.78	1363.82
512.987	1365.76
513.193	1391.14
513.4	1327.98
513.606	1361.88
513.813	1435.51
514.02	1400.05
514.226	1483.17
514.433	1437.44
514.639	1381.64
514.846	1435.89
515.052	1404.51
515.259	1427.76
515.465	1450.23
515.672	1452.56
515.878	1548.46
516.085	1499.83
516.291	1517.27
516.497	1493.24
516.704	1457.59
516.91	1428.34
517.117	1389.2
517.323	1362.46
517.529	1402.18
517.736	1368.47
517.942	1420.97
518.148	1426.98
518.354	1477.16
518.561	1497.89
518.767	1472.32
518.973	1521.53
519.179	1570.55
519.386	1562.99
519.592	1544.78
519.798	1588.18
520.004	1711.4
520.21	1668
520.417	1708.88
520.623	1734.26
520.829	1755.96
521.035	1706.56
521.241	1733.49
521.447	1793.74
521.653	1834.82
521.859	1759.64
522.065	1822.03
522.271	1897.21
522.477	1847.8
522.683	1928.79
522.889	1901.08
523.095	1859.62
523.301	1830.36
523.507	1826.29
523.713	1868.53
523.919	1872.6
524.125	1941.57
524.331	1920.45
524.537	2046.58
524.742	2033.41
524.948	2039.8
525.154	2041.93
525.36	2120.21
525.566	2024.5
525.772	2101.61
525.977	1998.34
526.183	2034.18
526.389	2073.52
526.595	1985.75
526.8	2017.91
527.006	1922
527.212	1878.61
527.417	1873.76
527.623	1906.12
527.829	1982.26
528.034	2005.9
528.24	2035.35
528.446	2022.17
528.651	2157.21
528.857	2164.38
529.062	2221.34
529.268	2164.38
529.473	2214.76
529.679	2196.16
529.884	2254.28
530.09	2262.22
530.295	2255.06
530.501	2249.83
530.706	2267.07
530.912	2211.85
531.117	2290.12
531.323	2280.63
531.528	2322.09
531.733	2341.66
531.939	2294.97
532.144	2354.64
532.35	2347.09
532.555	2315.12
532.76	2278.89
532.966	2305.43
533.171	2285.09
533.376	2248.47
533.581	2237.62
533.787	2315.31
533.992	2367.43
534.197	2367.04
534.402	2334.11
534.607	2374.6
534.813	2456.17
535.018	2354.45
535.223	2368.4
535.428	2395.91
535.633	2438.34
535.838	2463.14
536.043	2474.57
536.249	2563.89
536.454	2489.49
536.659	2503.44
536.864	2478.25
537.069	2440.67
537.274	2431.56
537.479	2453.26
537.684	2437.37
537.889	2394.75
538.094	2527.08
538.299	2447.64
538.504	2519.33
538.708	2498.02
538.913	2505.57
539.118	2476.51
539.323	2560.01
539.528	2444.35
539.733	2449.58
539.938	2503.63
540.142	2495.88
540.347	2445.9
540.552	2451.13
540.757	2413.54
540.962	2445.7
541.166	2380.8
541.371	2379.44
541.576	2437.18
541.781	2404.05
541.985	2511
542.19	2462.17
542.395	2577.06
542.599	2609.81
542.804	2507.51
543.008	2619.11
543.213	2524.36
543.418	2498.6
543.622	2558.27
543.827	2494.53
544.031	2548.78
544.236	2580.36
544.44	2593.92
544.645	2656.11
544.849	2604
545.054	2603.61
545.258	2695.44
545.463	2654.76
545.667	2553.62
545.872	2630.15
546.076	2601.48
546.281	2640.23
546.485	2611.74
546.689	2642.74
546.894	2658.63
547.098	2596.05
547.302	2610.78
547.507	2636.93
547.711	2638.87
547.915	2691.76
548.119	2528.24
548.324	2593.34
548.528	2617.56
548.732	2641.78
548.936	2664.83
549.141	2649.14
549.345	2629.76
549.549	2649.14
549.753	2677.62
549.957	2710.36
550.161	2743.3
550.366	2685.37
550.57	2614.84
550.774	2669.87
550.978	2649.33
551.182	2683.82
551.386	2612.13
551.59	2684.98
551.794	2616.39
551.998	2709.97
552.202	2654.76
552.406	2652.63
552.61	2673.74
552.814	2693.89
553.018	2715.59
553.222	2688.28
553.426	2645.84
553.63	2753.57
553.833	2658.05
554.037	2608.26
554.241	2717.92
554.445	2721.6
554.649	2693.7
554.853	2643.71
555.056	2697.38
555.26	2736.91
555.464	2699.12
555.668	2699.51
555.871	2749.89
556.075	2740.2
556.279	2626.66
556.483	2628.02
556.686	2614.26
556.89	2600.9
557.094	2639.64
557.297	2575.51
557.501	2635.38
557.704	2562.53
557.908	2649.14
558.112	2572.8
558.315	2632.48
558.519	2561.56
558.722	2579.39
558.926	2540.25
559.129	2463.72
559.333	2496.27
559.536	2542
559.74	2482.32
559.943	2449.97
560.147	2462.56
560.35	2505.57
560.553	2488.33
560.757	2430.59
560.96	2582.3
561.164	2516.23
561.367	2571.06
561.57	2512.35
561.774	2532.11
561.977	2470.89
562.18	2527.46
562.384	2560.01
562.587	2480
562.79	2497.82
562.993	2461.2
563.197	2521.26
563.4	2493.37
563.603	2537.73
563.806	2574.16
564.009	2465.66
564.212	2503.05
564.416	2418.39
564.619	2457.72
564.822	2358.9
565.025	2460.43
565.228	2402.11
565.431	2406.18
565.634	2349.22
565.837	2322.67
566.04	2326.16
566.243	2338.76
566.446	2257.19
566.649	2328.68
566.852	2271.72
567.055	2320.35
567.258	2319.57
567.461	2339.53
567.664	2370.34
567.867	2289.74
568.07	2297.49
568.273	2314.92
568.475	2323.45
568.678	2244.79
568.881	2255.44
569.084	2259.51
569.287	2138.81
569.489	2194.03
569.692	2252.54
569.895	2238.01
570.098	2145.01
570.3	2142.3
570.503	2101.03
570.706	2112.85
570.909	2112.46
571.111	2042.52
571.314	2079.52
571.516	2062.08
571.719	2100.64
571.922	2069.06
572.124	2079.91
572.327	2092.31
572.529	2049.49
572.732	2021.4
572.935	2111.3
573.137	2149.27
573.34	2057.63
573.542	2119.05
573.745	2090.18
573.947	2108
574.15	2030.7
574.352	2045.42
574.554	2107.61
574.757	2004.54
574.959	2007.64
575.162	2007.45
575.364	1945.06
575.566	2060.92
575.769	1989.24
575.971	1991.95
576.173	1899.72
576.376	1936.92
576.578	1976.84
576.78	2011.52
576.982	1904.57
577.185	1948.55
577.387	1912.51
577.589	1919.68
577.791	1945.64
577.993	1923.36
578.196	1919.29
578.398	1911.74
578.6	1914.06
578.802	1866.21
579.004	1850.9
579.206	1867.76
579.408	1938.67
579.61	1871.63
579.812	1955.33
580.014	1925.49
580.216	1859.04
580.418	1905.92
580.62	1864.85
580.822	1846.25
581.024	1879.57
581.226	1932.08
581.428	1875.89
581.63	1978.77
581.832	1922.78
582.034	1957.46
582.236	1911.15
582.438	1940.02
582.64	1964.82
582.841	1990.59
583.043	2027.21
583.245	1947.77
583.447	1961.72
583.649	1903.41
583.85	1947.77
584.052	1980.13
584.254	1917.16
584.456	1972.96
584.657	1872.41
584.859	1938.67
585.061	1906.89
585.262	1931.11
585.464	1873.76
585.666	1925.1
585.867	1864.66
586.069	1936.54
586.27	1847.8
586.472	1872.79
586.674	1854.58
586.875	1834.82
587.077	1843.15
587.278	1873.37
587.48	1848.19
587.681	1939.64
587.883	1869.31
588.084	1783.28
588.285	1812.93
588.487	1787.54
588.688	1764.29
588.89	1709.85
589.091	1661.03
589.292	1676.72
589.494	1588.76
589.695	1631.77
589.896	1556.21
590.098	1561.44
590.299	1581.78
590.5	1601.74
590.702	1601.93
590.903	1651.73
591.104	1705.01
591.305	1722.45
591.507	1708.88
591.708	1688.73
591.909	1651.92
592.11	1723.8
592.311	1693.77
592.512	1660.45
592.714	1651.34
592.915	1633.52
593.116	1654.05
593.317	1703.26
593.518	1711.6
593.719	1671.1
593.92	1744.53
594.121	1764.68
594.322	1704.43
594.523	1675.56
594.724	1622.28
594.925	1636.42
595.126	1691.06
595.327	1656.57
595.528	1658.51
595.729	1676.53
595.929	1627.12
596.13	1690.09
596.331	1719.93
596.532	1681.76
596.733	1755.19
596.934	1735.43
597.135	1733.1
597.335	1716.25
597.536	1682.92
597.737	1704.04
597.938	1677.5
598.138	1708.69
598.339	1685.25
598.54	1694.35
598.74	1691.64
598.941	1680.01
599.142	1725.55
599.342	1678.27
599.543	1640.88
599.744	1709.66
599.944	1693.19
600.145	1673.62
600.345	1690.86
600.546	1768.17
600.746	1722.64
600.947	1735.81
601.147	1708.69
601.348	1747.05
601.548	1672.07
601.749	1704.23
601.949	1621.7
602.15	1642.04
602.35	1637.39
602.551	1733.29
602.751	1640.68
602.951	1670.52
603.152	1619.57
603.352	1679.82
603.552	1677.88
603.753	1705.01
603.953	1704.04
604.153	1695.51
604.354	1714.31
604.554	1660.45
604.754	1668.2
604.954	1644.95
605.155	1660.06
605.355	1664.51
605.555	1701.52
605.755	1720.31
605.955	1660.45
606.155	1704.23
606.356	1633.71
606.556	1697.65
606.756	1666.65
606.956	1632.74
607.156	1715.47
607.356	1640.3
607.556	1653.47
607.756	1645.91
607.956	1702.49
608.156	1658.12
608.356	1619.76
608.556	1663.55
608.756	1612.2
608.956	1593.02
609.156	1644.56
609.356	1585.08
609.556	1595.54
609.755	1618.98
609.955	1579.65
610.155	1596.12
610.355	1601.16
610.555	1562.99
610.755	1585.27
610.954	1524.24
611.154	1594.38
611.354	1622.47
611.554	1562.6
611.753	1574.62
611.953	1541.1
612.153	1602.71
612.352	1577.52
612.552	1484.72
612.752	1482.97
612.951	1527.15
613.151	1541.1
613.351	1507.97
613.55	1527.34
613.75	1535.87
613.949	1510.87
614.149	1527.73
614.348	1534.32
614.548	1460.11
614.747	1436.67
614.947	1493.63
615.146	1410.71
615.346	1512.81
615.545	1490.53
615.745	1493.24
615.944	1513
616.144	1493.24
616.343	1485.49
616.542	1429.5
616.742	1451.97
616.941	1437.25
617.14	1391.72
617.34	1425.43
617.539	1420.97
617.738	1395.4
617.938	1492.66
618.137	1464.76
618.336	1439.19
618.535	1458.37
618.734	1440.93
618.934	1424.66
619.133	1438.99
619.332	1437.83
619.531	1390.75
619.73	1439.57
619.929	1452.56
620.128	1456.04
620.328	1475.61
620.527	1416.91
620.726	1427.37
620.925	1446.94
621.124	1452.36
621.323	1437.64
621.522	1374.48
621.721	1400.44
621.92	1382.03
622.119	1403.92
622.318	1329.14
622.517	1402.96
622.715	1374.67
622.914	1331.46
623.113	1338.44
623.312	1279.54
623.511	1403.73
623.71	1327.78
623.909	1343.09
624.107	1432.6
624.306	1290.97
624.505	1344.25
624.704	1328.17
624.902	1330.88
625.101	1365.37
625.3	1337.08
625.499	1294.65
625.697	1281.48
625.896	1323.13
626.095	1342.89
626.293	1261.33
626.492	1315.77
626.69	1339.02
626.889	1301.04
627.088	1365.95
627.286	1284.77
627.485	1256.68
627.683	1278.76
627.882	1262.49
628.08	1203.98
628.279	1249.51
628.477	1296.98
628.676	1230.91
628.874	1270.43
629.073	1216.76
629.271	1219.67
629.469	1265.98
629.668	1256.48
629.866	1226.06
630.065	1216.38
630.263	1257.65
630.461	1217.15
630.66	1282.83
630.858	1254.55
631.056	1295.62
631.254	1309.76
631.453	1192.35
631.651	1286.71
631.849	1277.99
632.047	1258.03
632.245	1254.35
632.444	1261.52
632.642	1254.74
632.84	1318.48
633.038	1254.74
633.236	1187.51
633.434	1242.53
633.632	1260.75
633.83	1224.9
634.028	1259
634.227	1246.6
634.425	1327.01
634.623	1269.27
634.821	1272.37
635.019	1269.08
635.216	1299.49
635.414	1279.15
635.612	1281.48
635.81	1245.83
636.008	1311.51
636.206	1250.28
636.404	1281.86
636.602	1217.15
636.8	1263.26
636.997	1279.15
637.195	1292.33
637.393	1294.65
637.591	1310.15
637.789	1278.18
637.986	1265.59
638.184	1241.18
638.382	1279.15
638.58	1254.35
638.777	1311.31
638.975	1234.98
639.173	1238.46
639.37	1271.4
639.568	1268.11
639.765	1241.95
639.963	1250.67
640.161	1260.55
640.358	1248.15
640.556	1207.08
640.753	1195.65
640.951	1196.62
641.148	1226.45
641.346	1177.05
641.543	1181.31
641.741	1209.98
641.938	1178.21
642.136	1166
642.333	1150.31
642.531	1222
642.728	1196.23
642.925	1168.13
643.123	1139.46
643.32	1196.81
643.517	1096.45
643.715	1149.15
643.912	1138.49
644.109	1142.95
644.306	1156.32
644.504	1112.92
644.701	1156.51
644.898	1145.08
645.095	1101.29
645.293	1106.14
645.49	1125.9
645.687	1112.34
645.884	1138.88
646.081	1026.51
646.278	1053.05
646.475	1043.55
646.672	1062.35
646.87	1062.74
647.067	1066.61
647.264	1042.2
647.461	1022.05
647.658	979.62
647.855	1026.7
648.052	1001.51
648.249	966.44
648.446	1009.65
648.642	981.56
648.839	959.66
649.036	961.21
649.233	952.3
649.43	960.82
649.627	929.44
649.824	938.93
650.021	905.22
650.217	949.78
650.414	953.27
650.611	962.76
650.808	979.42
651.004	974.97
651.201	998.41
651.398	1023.41
651.595	965.86
651.791	928.28
651.988	960.63
652.185	929.44
652.381	979.81
652.578	901.93
652.775	935.64
652.971	947.84
653.168	940.87
653.364	962.76
653.561	926.92
653.757	949.97
653.954	969.74
654.15	926.92
654.347	970.32
654.543	950.17
654.74	873.64
654.936	897.86
655.133	900.96
655.329	903.09
655.525	888.36
655.722	943.19
655.918	863.76
656.115	884.49
656.311	779.48
656.507	784.51
656.704	734.92
656.9	801.37
657.096	783.74
657.292	770.37
657.489	854.85
657.685	839.15
657.881	823.65
658.077	818.03
658.273	857.36
658.47	895.34
658.666	863.76
658.862	888.56
659.058	885.46
659.254	916.65
659.45	873.64
659.646	864.73
659.842	892.04
660.038	901.93
660.234	869.57
660.43	883.33
660.626	932.34
660.822	898.24
661.018	911.61
661.214	856.01
661.41	819
661.606	891.66
661.802	885.26
661.998	864.34
662.194	840.12
662.39	831.01
662.586	865.11
662.781	866.28
662.977	851.16
663.173	901.34
663.369	837.41
663.564	840.12
663.76	842.45
663.956	818.42
664.152	857.95
664.347	766.3
664.543	827.33
664.739	792.46
664.934	775.02
665.13	797.69
665.326	834.5
665.521	824.81
665.717	754.1
665.912	749.06
666.108	714.96
666.304	749.64
666.499	779.48
666.695	715.15
666.89	788.39
667.086	797.88
667.281	768.24
667.477	842.45
667.672	765.33
667.867	774.63
668.063	765.92
668.258	722.52
668.454	749.25
668.649	792.85
668.844	744.6
669.04	794.98
669.235	743.25
669.43	742.47
669.626	708.37
669.821	756.03
670.016	692.48
670.211	711.08
670.407	722.71
670.602	733.56
670.797	720.77
670.992	769.98
671.187	708.57
671.382	729.68
671.578	705.08
671.773	727.36
671.968	664.39
672.163	724.65
672.358	747.12
672.553	678.92
672.748	683.96
672.943	786.26
673.138	692.29
673.333	740.73
673.528	684.15
673.723	710.31
673.918	680.86
674.113	653.54
674.308	761.65
674.503	728.33
674.698	717.87
674.892	738.02
675.087	737.63
675.282	705.85
675.477	687.83
675.672	713.99
675.867	675.44
676.061	669.62
676.256	627.77
676.451	683.96
676.646	707.02
676.84	660.71
677.035	643.08
677.23	657.8
677.424	673.5
677.619	735.11
677.814	726.58
678.008	715.73
678.203	652.96
678.397	650.44
678.592	671.95
678.787	745.18
678.981	682.6
679.176	698.1
679.37	703.92
679.565	653.54
679.759	681.25
679.954	696.94
680.148	738.21
680.342	724.84
680.537	697.91
680.731	692.29
680.926	699.46
681.12	726
681.314	674.66
681.509	674.08
681.703	723.29
681.897	703.72
682.092	652.19
682.286	676.4
682.48	749.64
682.674	722.71
682.869	685.7
683.063	709.34
683.257	771.34
683.451	701.78
683.645	728.52
683.839	733.37
684.034	730.07
684.228	739.18
684.422	687.06
684.616	693.65
684.81	751
685.004	704.88
685.198	753.32
685.392	773.47
685.586	716.12
685.78	765.33
685.974	753.52
686.168	741.12
686.362	802.53
686.556	688.8
686.75	640.95
686.944	669.43
687.138	688.03
687.331	572.17
687.525	609.17
687.719	549.5
687.913	599.49
688.107	608.98
688.301	610.14
688.494	663.42
688.688	615.76
688.882	608.2
689.076	608.79
689.269	655.48
689.463	738.79
689.657	680.28
689.85	658.58
690.044	705.08
690.238	705.66
690.431	715.35
690.625	736.47
690.818	761.65
691.012	786.65
691.205	825.01
691.399	760.1
691.593	830.43
691.786	885.84
691.98	897.47
692.173	926.14
692.366	898.63
692.56	947.07
692.753	1004.22
692.947	924.21
693.14	991.44
693.333	981.36
693.527	948.23
693.72	991.05
693.914	995.51
694.107	965.86
694.3	1034.45
694.493	1033.48
694.687	1054.79
694.88	1001.12
695.073	1104.78
695.266	1147.21
695.46	1084.24
695.653	1173.17
695.846	1197.97
696.039	1129.38
696.232	1188.48
696.425	1226.26
696.618	1256.48
696.812	1243.31
697.005	1331.85
697.198	1402.18
697.391	1330.69
697.584	1387.07
697.777	1444.03
697.97	1416.13
698.163	1453.52
698.356	1431.05
698.549	1487.43
698.742	1462.24
698.935	1450.81
699.127	1480.45
699.32	1422.72
699.513	1443.06
699.706	1500.41
699.899	1534.12
700.092	1492.47
700.285	1530.64
700.477	1472.51
700.67	1555.63
700.863	1533.54
701.056	1668.97
701.248	1614.72
701.441	1633.9
701.634	1567.45
701.826	1714.31
702.019	1594.38
702.212	1711.6
702.404	1639.52
702.597	1628.67
702.79	1674.2
702.982	1684.08
703.175	1759.84
703.367	1770.3
703.56	1772.24
703.752	1850.9
703.945	1859.62
704.137	1860.78
704.33	1835.59
704.522	1878.41
704.715	1909.02
704.907	1956.69
705.1	1963.85
705.292	1948.94
705.484	1930.92
705.677	1990.01
705.869	2043.87
706.061	2029.53
706.254	2059.76
706.446	2021.4
706.638	2027.21
706.831	2123.5
707.023	2061.5
707.215	2156.25
707.407	2130.86
707.599	2141.52
707.792	2201
707.984	2187.24
708.176	2211.08
708.368	2201.39
708.56	2216.11
708.752	2232
708.944	2199.06
709.136	2290.51
709.329	2230.84
709.521	2390.68
709.713	2330.81
709.905	2340.89
710.097	2372.47
710.289	2323.45
710.481	2358.9
710.672	2359.29
710.864	2357.35
711.056	2441.25
711.248	2417.22
711.44	2442.22
711.632	2479.03
711.824	2483.1
712.016	2524.95
712.207	2506.73
712.399	2519.91
712.591	2594.5
712.783	2554.78
712.975	2564.28
713.166	2526.69
713.358	2565.44
713.55	2578.23
713.741	2604.77
713.933	2590.63
714.125	2586.36
714.316	2589.08
714.508	2658.83
714.7	2644.68
714.891	2651.85
715.083	2693.89
715.274	2664.44
715.466	2659.02
715.657	2663.09
715.849	2564.86
716.04	2629.38
716.232	2559.05
716.423	2579.97
716.615	2487.94
716.806	2455.58
716.998	2362.39
717.189	2307.17
717.381	2216.69
717.572	2182.79
717.763	2178.33
717.955	2124.28
718.146	2061.31
718.337	2049.68
718.528	2004.15
718.72	1928.01
718.911	1982.45
719.102	1936.54
719.293	1982.45
719.485	1931.5
719.676	1908.83
719.867	1864.66
720.058	1905.54
720.249	1944.48
720.44	1916.19
720.632	2018.68
720.823	2033.02
721.014	2171.74
721.205	2216.89
721.396	2287.02
721.587	2378.47
721.778	2475.35
721.969	2472.25
722.16	2539.28
722.351	2568.73
722.542	2715.01
722.733	2703.39
722.924	2627.44
723.115	2622.59
723.305	2604.77
723.496	2609.03
723.687	2467.98
723.878	2493.95
724.069	2501.12
724.26	2440.28
724.45	2388.74
724.641	2408.12
724.832	2425.55
725.023	2385.84
725.213	2435.05
725.404	2363.75
725.595	2375.37
725.785	2373.05
725.976	2427.49
726.167	2452.29
726.357	2421.68
726.548	2520.88
726.739	2440.86
726.929	2540.83
727.12	2548.97
727.31	2515.65
727.501	2480.77
727.691	2507.51
727.882	2515.07
728.072	2587.91
728.263	2590.43
728.453	2603.61
728.644	2633.44
728.834	2590.24
729.024	2580.94
729.215	2542
729.405	2591.21
729.596	2634.22
729.786	2672.39
729.976	2704.55
730.167	2675.29
730.357	2640.81
730.547	2682.66
730.737	2688.66
730.928	2748.92
731.118	2738.46
731.308	2688.08
731.498	2758.41
731.688	2820.8
731.879	2842.5
732.069	2901.2
732.259	2922.52
732.449	2958.75
732.639	3025.59
732.829	3050.78
733.019	3131.76
733.209	3143.77
733.399	3157.14
733.589	3205.39
733.779	3280.95
733.969	3278.24
734.159	3349.53
734.349	3387.7
734.539	3422
734.729	3465.4
734.919	3424.32
735.109	3495.81
735.299	3422.58
735.488	3454.16
735.678	3454.16
735.868	3445.63
736.058	3467.33
736.248	3428.97
736.437	3417.35
736.627	3396.61
736.817	3507.83
737.007	3452.8
737.196	3550.64
737.386	3548.51
737.576	3434.4
737.765	3560.91
737.955	3527.59
738.144	3627.37
738.334	3651.59
738.524	3542.51
738.713	3545.41
738.903	3556.26
739.092	3609.16
739.282	3614.97
739.471	3670.77
739.661	3631.82
739.85	3681.62
740.04	3686.27
740.229	3687.62
740.419	3712.42
740.608	3695.76
740.797	3726.57
740.987	3802.13
741.176	3750.2
741.365	3739.35
741.555	3694.6
741.744	3810.27
741.933	3720.75
742.123	3770.93
742.312	3749.23
742.501	3834.1
742.69	3811.04
742.88	3780.04
743.069	3879.43
743.258	3825.96
743.447	3880.79
743.636	3893.58
743.825	3831.96
744.014	3858.51
744.204	3944.92
744.393	3817.43
744.582	3926.9
744.771	3911.4
744.96	3944.73
745.149	3942.79
745.338	3870.71
745.527	3934.84
745.716	3887.76
745.905	3922.44
746.094	4010.79
746.283	3980.57
746.471	3912.18
746.66	3955.96
746.849	3943.56
747.038	3947.44
747.227	3956.16
747.416	3955.96
747.604	3902.68
747.793	3903.65
747.982	3907.91
748.171	3968.75
748.359	3967.2
748.548	3933.88
748.737	3938.53
748.926	3951.7
749.114	3784.69
749.303	3893.38
749.491	3898.03
749.68	3795.93
749.869	3919.73
750.057	3848.63
750.246	3856.57
750.434	3867.23
750.623	3901.71
750.811	3849.79
751	3938.53
751.188	3869.75
751.377	3831.96
751.565	3824.41
751.754	3825.38
751.942	3791.67
752.131	3856.96
752.319	3817.24
752.507	3772.87
752.696	3822.86
752.884	3851.92
753.072	3800.77
753.261	3837.97
753.449	3867.61
753.637	3767.64
753.825	3837.2
754.014	3822.08
754.202	3807.94
754.39	3885.83
754.578	3833.51
754.766	3776.75
754.955	3794.38
755.143	3841.07
755.331	3773.84
755.519	3758.15
755.707	3782.37
755.895	3743.23
756.083	3755.05
756.271	3707
756.459	3742.26
756.647	3781.98
756.835	3741.49
757.023	3778.88
757.211	3720.56
757.399	3723.66
757.587	3660.3
757.775	3648.68
757.963	3692.66
758.151	3660.69
758.339	3646.94
758.526	3591.33
758.714	3614.19
758.902	3495.62
759.09	3393.51
759.278	3208.87
759.465	2920.97
759.653	2537.73
759.841	2266.1
760.028	2004.35
760.216	1693.58
760.404	1593.8
760.591	1321.39
760.779	1109.82
760.967	946.87
761.154	800.6
761.342	876.93
761.529	805.05
761.717	882.55
761.905	829.66
762.092	936.8
762.28	856.59
762.467	836.25
762.655	783.93
762.842	781.41
763.029	809.12
763.217	816.1
763.404	776.76
763.592	832.18
763.779	794.78
763.966	864.34
764.154	886.62
764.341	944.74
764.528	946.1
764.716	1036.19
764.903	1079.98
765.09	1189.25
765.277	1224.32
765.465	1366.14
765.652	1444.42
765.839	1517.85
766.026	1662.19
766.213	1724.19
766.4	1849.35
766.588	2015.2
766.775	2068.48
766.962	2185.69
767.149	2229.48
767.336	2432.53
767.523	2422.84
767.71	2555.56
767.897	2645.26
768.084	2756.47
768.271	2790.77
768.458	2849.47
768.645	2901.78
768.832	2892.1
769.019	2942.47
769.206	2985.68
769.392	3053.88
769.579	3150.36
769.766	3122.46
769.953	3110.06
770.14	3185.82
770.327	3167.61
770.513	3204.22
770.7	3298.58
770.887	3221.27
771.073	3273.78
771.26	3259.44
771.447	3260.41
771.634	3214.88
771.82	3353.41
772.007	3250.92
772.193	3247.82
772.38	3324.93
772.567	3271.45
772.753	3276.1
772.94	3327.83
773.126	3296.25
773.313	3282.5
773.499	3279.4
773.686	3328.22
773.872	3271.84
774.059	3286.95
774.245	3222.05
774.432	3249.17
774.618	3196.28
774.804	3226.89
774.991	3169.74
775.177	3248.4
775.363	3261.38
775.55	3220.3
775.736	3162.57
775.922	3233.29
776.109	3177.1
776.295	3209.46
776.481	3203.06
776.667	3205.97
776.853	3168.38
777.04	3153.07
777.226	3176.13
777.412	3204.61
777.598	3129.24
777.784	3147.65
777.97	3135.25
778.156	3126.34
778.342	3141.64
778.528	3101.93
778.715	3105.22
778.901	3115.1
779.087	3115.68
779.272	3073.25
779.458	3079.64
779.644	3069.76
779.83	3044.96
780.016	3131.76
780.202	3065.89
780.388	3093.59
780.574	2981.61
780.76	3079.45
780.946	3064.92
781.131	3059.11
781.317	3051.36
781.503	3021.71
781.689	3010.09
781.874	3098.05
782.06	2994.01
782.246	3006.21
782.432	2998.46
782.617	3018.42
782.803	3075.96
782.989	2977.54
783.174	2957.78
783.36	2936.08
783.545	2947.7
783.731	2958.94
783.916	2867.69
784.102	2955.07
784.288	2899.85
784.473	2933.37
784.659	2871.37
784.844	2936.66
785.029	2919.22
785.215	2902.17
785.4	2840.75
785.586	2891.52
785.771	2835.33
785.956	2914.38
786.142	2849.28
786.327	2838.62
786.512	2842.5
786.698	2832.81
786.883	2771.2
787.068	2796.39
787.254	2833
787.439	2760.74
787.624	2775.07
787.809	2720.05
787.994	2746.98
788.18	2784.76
788.365	2680.33
788.55	2746.59
788.735	2751.82
788.92	2714.24
789.105	2703.97
789.29	2715.98
789.475	2644.68
789.66	2656.31
789.845	2653.98
790.03	2603.8
790.215	2664.25
790.4	2645.84
790.585	2691.57
790.77	2631.89
790.955	2552.26
791.14	2632.09
791.325	2707.46
791.51	2539.48
791.695	2594.11
791.879	2626.86
792.064	2561.37
792.249	2633.64
792.434	2620.66
792.618	2606.9
792.803	2616.98
792.988	2602.83
793.173	2564.66
793.357	2658.63
793.542	2557.11
793.727	2614.65
793.911	2652.24
794.096	2612.52
794.281	2665.22
794.465	2697.57
794.65	2634.61
794.834	2681.11
795.019	2695.83
795.203	2707.46
795.388	2678.2
795.572	2699.9
795.757	2668.51
795.941	2661.54
796.126	2655.92
796.31	2597.21
796.494	2618.53
796.679	2596.63
796.863	2638.68
797.048	2690.21
797.232	2643.71
797.416	2671.42
797.601	2612.33
797.785	2723.54
797.969	2720.63
798.153	2620.08
798.338	2710.94
798.522	2703.77
798.706	2687.89
798.89	2694.47
799.074	2784.18
799.258	2706.1
799.443	2669.48
799.627	2679.94
799.811	2760.54
799.995	2689.05
800.179	2657.08
800.363	2663.86
800.547	2669.68
800.731	2702.22
800.915	2632.09
801.099	2622.4
801.283	2656.31
801.467	2627.24
801.651	2630.15
801.835	2699.9
802.019	2655.34
802.202	2671.61
802.386	2626.47
802.57	2595.08
802.754	2622.01
802.938	2595.47
803.121	2581.91
803.305	2692.54
803.489	2584.62
803.673	2667.35
803.856	2676.46
804.04	2610.58
804.224	2680.91
804.407	2614.46
804.591	2625.89
804.775	2670.26
804.958	2633.25
805.142	2739.04
805.326	2649.33
805.509	2647.39
805.693	2701.84
805.876	2691.18
806.06	2658.63
806.243	2716.56
806.427	2736.91
806.61	2721.41
806.794	2642.16
806.977	2709.2
807.16	2672.78
807.344	2693.7
807.527	2663.86
807.71	2654.76
807.894	2661.73
808.077	2684.4
808.26	2630.93
808.444	2584.81
808.627	2686.92
808.81	2608.26
808.993	2557.11
809.177	2550.71
809.36	2611.55
809.543	2579.97
809.726	2489.88
809.909	2522.81
810.092	2467.02
810.276	2534.05
810.459	2522.43
810.642	2476.32
810.825	2424.78
811.008	2486.58
811.191	2341.27
811.374	2379.44
811.557	2364.33
811.74	2445.12
811.923	2330.81
812.106	2341.08
812.289	2247.11
812.472	2328.87
812.654	2270.75
812.837	2236.65
813.02	2195.19
813.203	2184.34
813.386	2048.33
813.569	2088.43
813.751	1965.99
813.934	2078.75
814.117	1996.79
814.3	1913.67
814.482	1904.37
814.665	1840.82
814.848	1831.14
815.03	1784.06
815.213	1760.81
815.396	1753.64
815.578	1759.26
815.761	1706.36
815.943	1771.66
816.126	1679.24
816.309	1647.46
816.491	1581.98
816.674	1503.12
816.856	1603.29
817.039	1598.64
817.221	1621.12
817.403	1588.95
817.586	1604.65
817.768	1634.48
817.951	1525.99
818.133	1543.81
818.315	1555.63
818.498	1598.64
818.68	1663.16
818.862	1631.19
819.045	1664.32
819.227	1669.36
819.409	1633.9
819.591	1649.79
819.774	1617.43
819.956	1605.42
820.138	1707.33
820.32	1669.55
820.502	1757.32
820.684	1853.03
820.866	1778.83
821.048	1852.45
821.231	1859.62
821.413	1878.8
821.595	1811.18
821.777	1853.03
821.959	1870.08
822.141	1899.72
822.323	1773.59
822.505	1701.52
822.686	1635.07
822.868	1558.34
823.05	1436.47
823.232	1449.84
823.414	1389.78
823.596	1437.25
823.778	1414.58
823.96	1453.52
824.141	1481.81
824.323	1496.92
824.505	1571.13
824.687	1637
824.868	1669.94
825.05	1761.19
825.232	1791.23
825.413	1870.66
825.595	1826.29
825.777	1760.23
825.958	1796.84
826.14	1769.72
826.321	1855.94
826.503	1830.75
826.685	1824.94
826.866	1825.91
827.048	1808.28
827.229	1740.85
827.411	1739.69
827.592	1675.75
827.773	1693.19
827.955	1612.4
828.136	1638.17
828.318	1594.96
828.499	1657.73
828.68	1585.66
828.862	1635.26
829.043	1648.82
829.224	1591.67
829.406	1609.49
829.587	1579.65
829.768	1612.59
829.949	1643.01
830.131	1602.9
830.312	1689.31
830.493	1612.78
830.674	1623.25
830.855	1620.53
831.036	1589.34
831.218	1649.4
831.399	1694.16
831.58	1633.52
831.761	1634.68
831.942	1643.01
832.123	1646.3
832.304	1575.97
832.485	1592.05
832.666	1620.92
832.847	1619.18
833.028	1618.79
833.209	1606.97
833.389	1608.13
833.57	1565.12
833.751	1548.27
833.932	1659.28
834.113	1599.42
834.294	1611.82
834.475	1662.58
834.655	1700.75
834.836	1667.81
835.017	1634.87
835.198	1592.63
835.378	1646.69
835.559	1721.09
835.74	1618.79
835.92	1651.73
836.101	1637.78
836.281	1728.26
836.462	1699.58
836.643	1687.18
836.823	1729.42
837.004	1734.65
837.184	1730.39
837.365	1728.26
837.545	1711.98
837.726	1712.76
837.906	1765.65
838.087	1733.29
838.267	1714.11
838.448	1669.36
838.628	1665.48
838.808	1691.45
838.989	1718.57
839.169	1631.97
839.349	1745.69
839.53	1727.48
839.71	1733.29
839.89	1691.64
840.07	1738.14
840.251	1712.37
840.431	1747.63
840.611	1729.42
840.791	1709.08
840.971	1720.12
841.151	1698.03
841.332	1677.3
841.512	1734.84
841.692	1649.21
841.872	1702.68
842.052	1694.74
842.232	1694.55
842.412	1642.62
842.592	1653.28
842.772	1734.46
842.952	1727.29
843.132	1680.98
843.312	1664.51
843.492	1645.91
843.672	1716.25
843.851	1624.02
844.031	1618.21
844.211	1623.44
844.391	1664.71
844.571	1682.15
844.751	1695.32
844.93	1650.18
845.11	1636.62
845.29	1698.23
845.47	1692.03
845.649	1686.21
845.829	1685.25
846.009	1648.82
846.188	1693.58
846.368	1664.51
846.547	1652.11
846.727	1705.98
846.907	1583.33
847.086	1658.9
847.266	1675.56
847.445	1671.49
847.625	1592.83
847.804	1620.53
847.984	1582.95
848.163	1648.05
848.343	1603.68
848.522	1620.34
848.701	1647.27
848.881	1599.22
849.06	1574.81
849.239	1627.12
849.419	1592.44
849.598	1540.52
849.777	1546.14
849.957	1505.45
850.136	1440.93
850.315	1467.86
850.494	1457.4
850.674	1483.55
850.853	1567.45
851.032	1479.49
851.211	1574.81
851.39	1535.29
851.569	1450.42
851.748	1451.78
851.927	1535.67
852.107	1519.79
852.286	1500.02
852.465	1445.77
852.644	1550.2
852.823	1506.61
853.002	1517.07
853.181	1483.55
853.359	1497.7
853.538	1448.49
853.717	1459.53
853.896	1402.37
854.075	1345.99
854.254	1323.13
854.433	1244.86
854.611	1306.86
854.79	1246.8
854.969	1320.81
855.148	1312.86
855.327	1278.96
855.505	1333.21
855.684	1350.06
855.863	1329.33
856.041	1373.12
856.22	1389.97
856.399	1379.71
856.577	1432.99
856.756	1413.42
856.934	1516.49
857.113	1522.3
857.291	1435.51
857.47	1419.62
857.648	1455.66
857.827	1423.11
858.005	1499.64
858.184	1411.87
858.362	1510.87
858.541	1421.94
858.719	1409.54
858.898	1416.91
859.076	1411.29
859.254	1495.57
859.433	1386.29
859.611	1426.59
859.789	1371.96
859.967	1460.69
860.146	1460.31
860.324	1351.81
860.502	1353.16
860.68	1357.04
860.859	1376.61
861.037	1377.19
861.215	1394.82
861.393	1371.96
861.571	1347.93
861.749	1321.58
861.927	1382.23
862.105	1403.73
862.283	1369.83
862.461	1364.4
862.639	1334.37
862.817	1331.85
862.995	1358.59
863.173	1339.41
863.351	1315.38
863.529	1371.38
863.707	1389.01
863.885	1350.64
864.063	1324.29
864.241	1299.49
864.418	1384.16
864.596	1308.21
864.774	1293.3
864.952	1335.92
865.129	1348.51
865.307	1281.28
865.485	1227.23
865.663	1314.61
865.84	1232.65
866.018	1203.4
866.196	1134.23
866.373	1144.5
866.551	1118.15
866.728	1079.01
866.906	1127.06
867.084	1156.12
867.261	1175.69
867.439	1208.05
867.616	1185.96
867.794	1163.48
867.971	1236.14
868.149	1227.81
868.326	1275.28
868.503	1198.17
868.681	1230.91
868.858	1214.44
869.035	1198.75
869.213	1264.23
869.39	1221.8
869.567	1269.08
869.745	1211.73
869.922	1233.43
870.099	1238.08
870.276	1255.13
870.454	1235.56
870.631	1223.35
870.808	1214.25
870.985	1226.26
871.162	1292.33
871.339	1199.91
871.517	1161.55
871.694	1163.68
871.871	1197.78
872.048	1175.5
872.225	1197
872.402	1200.3
872.579	1166.2
872.756	1180.53
872.933	1151.67
873.11	1167.75
873.287	1196.03
873.463	1155.54
873.64	1131.13
873.817	1179.37
873.994	1151.47
874.171	1119.31
874.348	1136.17
874.524	1128.22
874.701	1136.94
874.878	1085.6
875.055	1151.08
875.231	1126.28
875.408	1144.5
875.585	1068.94
875.762	1140.82
875.938	1109.62
876.115	1103.42
876.291	1093.93
876.468	1088.7
876.645	1078.82
876.821	1081.14
876.998	1106.52
877.174	1097.22
877.351	1073.97
877.527	1060.22
877.704	1081.72
877.88	1094.7
878.057	1109.43
878.233	1100.9
878.409	1078.24
878.586	1078.82
878.762	1086.95
878.938	1060.41
879.115	990.08
879.291	1061.57
879.467	1016.24
879.644	1009.07
879.82	1070.49
879.996	1050.72
880.172	1008.1
880.349	1032.12
880.525	1066.03
880.701	996.09
880.877	1014.69
881.053	1057.5
881.229	985.82
881.405	1056.73
881.581	981.75
881.757	1023.79
881.933	1046.07
882.109	1051.3
882.285	1040.45
882.461	980.2
882.637	1017.79
882.813	989.89
882.989	1022.05
883.165	1048.59
883.341	1007.32
883.517	1065.84
883.693	1053.82
883.869	1044.14
884.044	992.41
884.22	1043.75
884.396	1055.57
884.572	1028.64
884.747	1061.57
884.923	1023.21
885.099	1038.9
885.275	1036.58
885.45	996.67
885.626	990.66
885.801	982.33
885.977	1012.94
886.153	939.51
886.328	1036.39
886.504	981.56
886.679	1006.36
886.855	988.72
887.03	1016.04
887.206	1039.1
887.381	1025.92
887.557	1050.53
887.732	1017.4
887.908	1007.91
888.083	1015.07
888.258	1004.42
888.434	992.02
888.609	991.82
888.784	1060.99
888.96	1007.52
889.135	998.99
889.31	990.47
889.485	1005.97
889.661	996.09
889.836	1043.75
890.011	1030.96
890.186	1000.93
890.361	1001.12
890.537	1037.35
890.712	989.5
890.887	1008.1
891.062	1018.37
891.237	1080.95
891.412	1002.29
891.587	977.87
891.762	1038.9
891.937	1045.88
892.112	970.71
892.287	980.2
892.462	960.82
892.637	894.95
892.812	924.4
892.987	918.01
893.161	918.59
893.336	903.86
893.511	911.42
893.686	905.99
893.861	885.84
894.035	876.54
894.21	909.68
894.385	836.25
894.56	914.52
894.734	834.89
894.909	816.29
895.084	821.33
895.258	821.33
895.433	810.67
895.608	776.18
895.782	752.55
895.957	780.06
896.131	744.02
896.306	672.72
896.48	690.93
896.655	697.33
896.829	674.27
897.004	629.13
897.178	677.18
897.353	625.25
897.527	681.64
897.701	652.57
897.876	614.02
898.05	711.47
898.224	660.9
898.399	709.73
898.573	660.9
898.747	561.9
898.921	611.5
899.096	504.74
899.27	505.71
899.444	518.89
899.618	575.46
899.792	584.96
899.967	586.51
900.141	629.52
900.315	553.57
900.489	516.95
900.663	583.41
900.837	570.81
901.011	521.41
901.185	624.67
901.359	580.89
901.533	585.54
901.707	563.26
901.881	577.21
902.055	507.26
902.229	558.22
902.403	621.96
902.576	575.46
902.75	573.14
902.924	692.68
903.098	644.63
903.272	652.77
903.446	714.57
903.619	708.37
903.793	702.17
903.967	707.98
904.14	741.89
904.314	723.87
904.488	728.33
904.661	749.83
904.835	750.22
905.009	782
905.182	787.61
905.356	741.7
905.529	718.06
905.703	684.35
905.876	673.69
906.05	634.17
906.223	652.96
906.397	614.79
906.57	611.89
906.744	586.31
906.917	573.91
907.09	559.19
907.264	558.41
907.437	526.64
907.61	526.25
907.784	542.72
907.957	543.3
908.13	520.24
908.304	538.65
908.477	503.39
908.65	532.26
908.823	455.73
908.996	540.2
909.17	483.04
909.343	495.44
909.516	497.96
909.689	510.75
909.862	484.4
910.035	464.83
910.208	475.68
910.381	467.74
910.554	559.38
910.727	518.89
910.9	491.96
911.073	477.23
911.246	541.94
911.419	577.21
911.592	549.11
911.765	482.27
911.938	485.95
912.11	506.88
912.283	514.43
912.456	540.78
912.629	491.96
912.802	460.18
912.974	416.4
913.147	396.44
913.32	355.56
913.493	417.36
913.665	420.08
913.838	409.23
914.01	434.8
914.183	450.49
914.356	446.62
914.528	474.33
914.701	489.05
914.873	465.22
915.046	414.65
915.218	389.27
915.391	332.12
915.563	353.23
915.736	418.53
915.908	453.98
916.081	412.13
916.253	422.01
916.425	432.09
916.598	466.77
916.77	419.88
916.942	388.69
917.115	340.06
917.287	394.11
917.459	376.48
917.632	368.54
917.804	311.77
917.976	368.93
918.148	403.03
918.32	421.82
918.493	463.48
918.665	479.94
918.837	463.67
919.009	462.31
919.181	464.64
919.353	471.61
919.525	452.63
919.697	447.98
919.869	452.82
920.041	511.33
920.213	561.12
920.385	501.26
920.557	472
920.729	498.16
920.901	489.24
921.073	454.56
921.244	466.58
921.416	498.74
921.588	480.53
921.76	453.01
921.932	512.49
922.103	446.62
922.275	489.63
922.447	458.44
922.619	398.96
922.79	447.78
922.962	422.4
923.134	457.66
923.305	414.85
923.477	410.97
923.648	391.79
923.82	404.19
923.991	363.31
924.163	370.67
924.335	387.14
924.506	348.39
924.677	444.68
924.849	364.47
925.02	364.66
925.192	413.88
925.363	370.67
925.535	411.75
925.706	404.19
925.877	437.51
926.049	370.09
926.22	406.13
926.391	398.18
926.562	413.68
926.734	350.52
926.905	394.5
927.076	340.83
927.247	341.03
927.419	338.9
927.59	301.5
927.761	318.36
927.932	315.84
928.103	278.83
928.274	265.08
928.445	289.3
928.616	265.08
928.787	271.86
928.958	295.3
929.129	279.61
929.3	244.93
929.471	218
929.642	196.88
929.813	144.18
929.984	253.65
930.155	165.49
930.326	208.12
930.496	164.72
930.667	134.11
930.838	138.56
931.009	128.29
931.18	150.77
931.35	141.08
931.521	147.28
931.692	86.83
931.863	59.32
932.033	100.01
932.204	117.83
932.374	104.27
932.545	55.44
932.716	123.26
932.886	84.51
933.057	12.82
933.227	39.17
933.398	139.14
933.568	45.18
933.739	1.78
933.909	46.73
934.08	56.8
934.25	-9.66
934.421	30.84
934.591	57.38
934.761	51.38
934.932	9.14
935.102	28.32
935.272	49.05
935.443	32
935.613	25.03
935.783	52.15
935.953	13.01
936.123	170.34
936.294	11.85
936.464	27.74
936.634	21.54
936.804	-8.69
936.974	19.99
937.144	38.2
937.314	26.77
937.484	22.12
937.655	4.68
937.825	71.53
937.995	17.86
938.165	64.94
938.334	19.41
938.504	66.29
938.674	19.99
938.844	57.96
939.014	101.75
939.184	84.7
939.354	123.26
939.524	116.86
939.694	93.22
939.863	86.25
940.033	150.19
940.203	121.51
940.373	87.02
940.542	110.66
940.712	90.12
940.882	107.95
941.051	112.02
941.221	106.59
941.391	116.67
941.56	79.47
941.73	44.4
941.899	163.55
942.069	50.79
942.238	104.85
942.408	72.69
942.577	96.52
942.747	64.74
942.916	20.76
943.086	50.79
943.255	76.95
943.425	90.12
943.594	46.53
943.763	16.89
943.933	32
944.102	7.2
944.271	53.7
944.441	77.34
944.61	31.23
944.779	79.47
944.948	142.24
945.117	27.16
945.287	39.36
945.456	30.64
945.625	25.03
945.794	66.49
945.963	23.86
946.132	72.49
946.301	64.55
946.47	44.21
946.639	7.2
946.808	35.88
946.977	69.78
947.146	90.12
947.315	27.74
947.484	79.66
947.653	58.74
947.822	54.28
947.991	33.16
948.16	120.74
948.329	105.62
948.498	70.94
948.666	69.39
948.835	87.61
949.004	43.04
949.173	7.2
949.341	79.47
949.51	67.65
949.679	101.56
949.847	96.52
950.016	132.75
950.185	99.62
950.353	62.81
950.522	49.05
950.69	111.82
950.859	31.23
951.028	126.94
951.196	93.03
951.365	39.75
951.533	49.63
951.701	64.94
951.87	91.67
952.038	50.02
952.207	78.31
952.375	124.42
952.543	50.02
952.712	38.2
952.88	44.98
953.048	120.74
953.217	98.84
953.385	45.37
953.553	98.26
953.721	49.44
953.89	61.45
954.058	6.04
954.226	50.6
954.394	72.88
954.562	17.47
954.73	32.78
954.898	38.39
955.067	98.26
955.235	32.97
955.403	80.24
955.571	111.82
955.739	96.71
955.907	33.36
956.075	51.18
956.243	41.69
956.41	74.82
956.578	45.56
956.746	12.43
956.914	53.51
957.082	79.66
957.25	69.59
957.418	51.96
957.585	62.42
957.753	106.4
957.921	43.63
958.089	48.86
958.256	94.58
958.424	63.78
958.592	65.71
958.759	33.74
958.927	99.62
959.095	3.71
959.262	49.44
959.43	93.03
959.597	21.54
959.765	79.08
959.932	12.24
960.1	84.7
960.267	85.67
960.435	56.61
960.602	115.7
960.77	59.9
960.937	15.14
961.104	75.4
961.272	0.81
961.439	44.01
961.606	81.41
961.774	80.44
961.941	44.59
962.108	79.66
962.275	78.69
962.443	102.14
962.61	83.73
962.777	145.15
962.944	89.16
963.111	85.86
963.278	96.32
963.446	73.66
963.613	57.77
963.78	86.25
963.947	92.84
964.114	92.64
964.281	154.06
964.448	122.48
964.615	61.45
964.782	82.37
964.949	73.66
965.116	101.17
965.282	117.06
965.449	79.08
965.616	67.84
965.783	94.97
965.95	102.72
966.117	53.12
966.283	98.46
966.45	113.18
966.617	104.66
966.784	99.62
966.95	111.44
967.117	113.76
967.284	93.81
967.45	68.81
967.617	120.54
967.784	107.95
967.95	134.69
968.117	104.27
968.283	123.26
968.45	173.44
968.616	121.12
968.783	147.67
968.949	124.03
969.116	130.42
969.282	86.25
969.449	92.84
969.615	107.56
969.781	53.31
969.948	116.47
970.114	40.14
970.28	161.42
970.447	113.37
970.613	146.89
970.779	96.91
970.945	145.54
971.112	124.22
971.278	85.28
971.444	106.59
971.61	118.8
971.776	94
971.942	96.52
972.108	117.64
972.275	98.84
972.441	128.87
972.607	149.61
972.773	84.7
972.939	124.42
973.105	89.16
973.271	96.71
973.437	87.02
973.602	68.04
973.768	127.71
973.934	68.43
974.1	110.27
974.266	31.03
974.432	89.93
974.598	76.95
974.763	116.67
974.929	81.99
975.095	168.98
975.261	83.54
975.426	70.56
975.592	69.2
975.758	147.09
975.923	44.59
976.089	54.67
976.255	104.66
976.42	110.86
976.586	100.39
976.751	87.41
976.917	173.82
977.082	127.52
977.248	72.88
977.413	27.35
977.579	72.3
977.744	92.06
977.91	65.13
978.075	67.84
978.24	106.79
978.406	88.19
978.571	57.77
978.736	79.86
978.902	109.31
979.067	60.09
979.232	29.09
979.397	101.36
979.563	143.6
979.728	45.76
979.893	68.23
980.058	60.68
980.223	131.97
980.388	70.17
980.554	88.77
980.719	73.07
980.884	86.44
981.049	118.02
981.214	57.38
981.379	76.37
981.544	77.14
981.709	100.01
981.874	77.72
982.039	72.49
982.204	108.34
982.368	75.98
982.533	38.39
982.698	138.95
982.863	115.31
983.028	80.63
983.193	107.76
983.357	98.65
983.522	69.78
983.687	84.31
983.852	69.78
984.016	71.53
984.181	83.34
984.346	104.85
984.51	116.09
984.675	84.89
984.839	114.34
985.004	102.14
985.168	114.73
985.333	105.62
985.498	92.26
985.662	107.95
985.827	115.12
985.991	85.28
986.155	68.43
986.32	119.19
986.484	130.62
986.649	114.15
986.813	37.23
986.977	83.54
987.142	99.81
987.306	63.97
987.47	44.59
987.634	93.03
987.799	58.54
987.963	87.22
988.127	128.1
988.291	184.67
988.455	105.82
988.62	61.84
988.784	92.06
988.948	125.19
989.112	55.44
989.276	98.84
989.44	87.22
989.604	45.95
989.768	70.75
989.932	164.33
990.096	60.29
990.26	57.58
990.424	75.98
990.588	41.88
990.752	165.69
990.915	124.22
991.079	73.27
991.243	63.58
991.407	116.86
991.571	63.78
991.734	111.63
991.898	113.96
992.062	148.64
992.226	74.24
992.389	60.29
992.553	33.94
992.717	50.41
992.88	53.51
993.044	62.61
993.207	60.87
993.371	84.12
993.535	90.12
993.698	63.39
993.862	110.66
994.025	127.32
994.189	93.81
994.352	102.14
994.515	86.83
994.679	111.82
994.842	59.71
995.006	107.95
995.169	36.84
995.332	55.25
995.496	95.74
995.659	34.71
995.822	65.91
995.985	77.14
996.149	104.46
996.312	76.76
996.475	117.83
996.638	15.34
996.801	126.55
996.964	140.11
997.128	66.49
997.291	54.67
997.454	75.21
997.617	29.29
997.78	108.53
997.943	55.25
998.106	79.08
998.269	65.13
998.432	77.53
998.595	62.03
998.758	24.44
998.92	44.59
999.083	14.37
999.246	56.99
999.409	23.67
999.572	17.28
999.735	55.64
999.897	71.53
1000.06	63
1000.223	40.91
1000.386	79.47
1000.548	87.61
1000.711	80.82
1000.874	58.54
1001.036	10.88
1001.199	95.16
1001.361	42.46
1001.524	62.03
1001.687	91.48
1001.849	50.99
1002.012	54.67
1002.174	50.6
1002.337	86.25
1002.499	61.84
1002.661	90.9
1002.824	22.31
1002.986	28.9
1003.149	56.99
1003.311	20.96
1003.473	104.27
1003.636	44.01
1003.798	58.35
1003.96	63.19
1004.123	75.59
1004.285	45.18
1004.447	44.4
1004.609	60.29
1004.771	108.34
1004.933	24.83
1005.096	36.65
1005.258	-26.7
1005.42	38.98
1005.582	85.47
1005.744	62.03
1005.906	1.78
1006.068	42.27
1006.23	-0.16
1006.392	5.65
1006.554	26.58
1006.716	99.62
1006.878	68.23
1007.04	25.99
1007.202	14.76
1007.363	48.47
1007.525	53.31
1007.687	70.94
1007.849	85.09
1008.011	12.43
1008.172	-5.39
1008.334	0.61
1008.496	74.43
1008.658	-16.05
1008.819	20.96
1008.981	-2.29
1009.143	3.71
1009.304	30.84
1009.466	44.4
1009.627	81.41
1009.789	136.82
1009.95	50.99
1010.112	20.57
1010.273	33.36
1010.435	40.72
1010.596	20.96
1010.758	27.35
1010.919	12.63
1011.081	-2.29
1011.242	38.98
1011.403	48.47
1011.565	28.71
1011.726	38.59
1011.887	27.74
1012.049	17.66
1012.21	73.27
1012.371	82.57
1012.532	-19.15
1012.693	20.76
1012.855	29.09
1013.016	27.93
1013.177	79.08
1013.338	44.98
1013.499	80.05
1013.66	49.44
1013.821	84.31
1013.982	32.19
1014.143	26.96
1014.304	32.97
1014.465	75.21
1014.626	39.36
1014.787	32
1014.948	113.96
1015.109	-15.66
1015.27	49.83
1015.431	19.79
1015.592	-17.79
1015.752	81.41
1015.913	53.12
1016.074	36.26
1016.235	39.17
1016.395	45.95
1016.556	37.62
1016.717	27.93
1016.877	48.66
1017.038	5.46
1017.199	29.87
1017.359	17.47
1017.52	36.07
1017.681	10.3
1017.841	19.02
1018.002	14.95
1018.162	18.44
1018.323	88.77
1018.483	13.4
1018.644	9.91
1018.804	4.88
1018.964	1.39
1019.125	15.14
1019.285	37.62
1019.446	-0.16
1019.606	-1.91
1019.766	-16.05
1019.926	43.04
1020.087	39.56
1020.247	-12.95
1020.407	40.91
1020.567	73.07
1020.728	4.1
1020.888	-18.18
1021.048	4.1
1021.208	13.98
1021.368	-3.26
1021.528	61.26
1021.688	62.61
1021.848	50.99
1022.008	50.99
1022.168	7.98
1022.328	43.82
1022.488	38.59
1022.648	-9.66
1022.808	29.48
1022.968	33.16
1023.128	-23.02
1023.288	20.57
1023.448	21.73
1023.608	65.33
1023.767	49.83
1023.927	-17.79
1024.087	19.41
1024.247	-18.76
1024.406	27.54
1024.566	-4.04
1024.726	-28.64
1024.885	34.13
1025.045	26.38
1025.205	24.44
1025.364	20.76
1025.524	11.66
1025.683	26.96
1025.843	31.03
1026.003	25.8
1026.162	74.43
1026.321	56.41
1026.481	13.79
1026.64	2.74
1026.8	26.96
1026.959	13.59
1027.119	32.39
1027.278	7.78
1027.437	-14.11
1027.597	7.39
1027.756	46.34
1027.915	50.21
1028.074	28.71
1028.234	4.29
1028.393	40.53
1028.552	-6.94
1028.711	-49.37
1028.87	53.12
1029.03	-17.21
1029.189	6.23
1029.348	-44.14
1029.507	17.08
1029.666	-17.79
1029.825	0.03
1029.984	11.85
1030.143	30.45
1030.302	12.24
1030.461	-49.57
1030.62	-7.33
1030.779	39.94
1030.938	-8.49
1031.097	-22.44
1031.255	31.03
1031.414	71.91
1031.573	35.49
1031.732	-33.68
1031.891	14.95
1032.049	63.78
1032.208	35.68
1032.367	15.53
1032.525	-7.72
1032.684	16.31
1032.843	32.39
1033.001	-50.34
1033.16	111.82
1033.319	76.17
1033.477	29.48
1033.636	-1.13
1033.794	-41.04
1033.953	24.83
1034.111	55.44
1034.27	-22.44
1034.428	19.21
1034.587	-12.56
1034.745	19.21
1034.903	-4.23
1035.062	37.62
1035.22	-17.99
1035.378	28.51
1035.537	-22.64
1035.695	37.43
1035.853	26.38
1036.011	51.18
1036.17	18.44
1036.328	-34.45
1036.486	5.26
1036.644	24.44
1036.802	-63.71
1036.96	20.76
1037.119	12.04
1037.277	-0.74
1037.435	-12.56
1037.593	7.2
1037.751	14.56
1037.909	28.71
1038.067	28.71
