Data from calibration4_FLMT105791__4__17-36-38-048.txt Node

Date: Mon Mar 20 17:36:38 GMT 2023
User: antho
Spectrometer: FLMT10579
Trigger mode: 0
Integration Time (sec): 1.000000E-1
Scans to average: 10
Electric dark correction enabled: true
Nonlinearity correction enabled: false
Boxcar width: 0
XAxis mode: Wavelengths
Number of Pixels in Spectrum: 3648
>>>>>Begin Spectral Data<<<<<
345.248	-138.72
345.464	-138.72
345.681	-138.72
345.898	-148.22
346.114	-172.05
346.331	-38.94
346.548	10.27
346.764	-4.07
346.981	5.23
347.197	9.49
347.414	18.79
347.631	-1.55
347.847	41.46
348.064	-12.4
348.28	28.67
348.497	-51.73
348.713	-5.23
348.93	28.67
349.146	84.86
349.363	80.79
349.579	106.37
349.796	95.9
350.012	98.62
350.229	140.85
350.445	113.73
350.661	61.81
350.878	129.62
351.094	105.59
351.311	99.97
351.527	137.37
351.743	107.34
351.96	134.07
352.176	151.12
352.392	133.1
352.609	135.04
352.825	114.89
353.041	124.77
353.257	126.52
353.474	121.48
353.69	155
353.906	147.83
354.122	134.07
354.339	201.3
354.555	138.92
354.771	126.32
354.987	170.11
355.203	184.45
355.42	148.41
355.636	158.1
355.852	154.22
356.068	142.02
356.284	142.21
356.5	196.27
356.716	170.5
356.932	148.6
357.148	178.05
357.364	133.1
357.58	207.12
357.796	210.6
358.012	194.91
358.228	165.07
358.444	96.49
358.66	191.42
358.876	150.54
359.092	128.07
359.308	163.14
359.524	195.3
359.74	175.34
359.956	196.65
360.172	202.66
360.388	226.3
360.604	205.76
360.819	273.76
361.035	196.85
361.251	234.24
361.467	176.12
361.683	209.44
361.898	211.57
362.114	236.18
362.33	248.77
362.546	239.08
362.762	227.65
362.977	253.62
363.193	216.03
363.409	263.11
363.624	235.02
363.84	215.25
364.056	221.26
364.271	258.27
364.487	267.37
364.703	262.91
364.918	246.83
365.134	235.79
365.35	269.11
365.565	364.05
365.781	306.12
365.996	340.03
366.212	366.18
366.427	345.45
366.643	331.89
366.858	348.36
367.074	300.89
367.289	390.21
367.505	431.67
367.72	311.35
367.936	337.7
368.151	372.96
368.367	350.29
368.582	371.22
368.798	323.17
369.013	379.74
369.228	353.59
369.444	369.09
369.659	407.45
369.874	406.29
370.09	401.44
370.305	334.21
370.52	386.53
370.736	462.67
370.951	371.41
371.166	446.59
371.381	403.38
371.597	438.64
371.812	357.27
372.027	383.43
372.242	389.82
372.458	461.89
372.673	369.09
372.888	367.54
373.103	371.41
373.318	469.45
373.533	382.26
373.749	344.48
373.964	269.11
374.179	385.36
374.394	305.15
374.609	394.86
374.824	317.16
375.039	385.17
375.254	316.2
375.469	413.84
375.684	395.63
375.899	445.23
376.114	439.42
376.329	445.42
376.544	450.07
376.759	442.71
376.974	401.06
377.189	435.93
377.404	433.99
377.619	500.06
377.834	455.11
378.049	485.14
378.264	506.07
378.478	572.52
378.693	542.49
378.908	565.74
379.123	508.97
379.338	565.16
379.553	530.48
379.767	500.45
379.982	494.44
380.197	515.17
380.412	475.46
380.626	556.44
380.841	658.74
381.056	597.71
381.271	655.06
381.485	560.51
381.7	547.34
381.915	557.8
382.129	502.77
382.344	475.65
382.559	457.82
382.773	487.08
382.988	404.35
383.202	441.36
383.417	364.63
383.632	504.13
383.846	418.49
384.061	457.82
384.275	404.54
384.49	511.49
384.704	542.3
384.919	576.01
385.133	631.03
385.348	669.98
385.562	577.17
385.777	635.3
385.991	599.26
386.206	584.92
386.42	583.95
386.634	640.14
386.849	689.74
387.063	655.25
387.277	608.37
387.492	645.76
387.706	623.48
387.92	627.16
388.135	719.19
388.349	706.6
388.563	632.78
388.778	653.51
388.992	686.64
389.206	727.33
389.42	777.31
389.635	770.92
389.849	831.37
390.063	904.99
390.277	921.07
390.491	919.91
390.706	875.16
390.92	898.6
391.134	906.93
391.348	948.39
391.562	957.31
391.776	987.72
391.99	1020.66
392.205	1031.32
392.419	926.11
392.633	919.33
392.847	869.34
393.061	749.22
393.275	735.27
393.489	570.97
393.703	527.57
393.917	551.02
394.131	527.19
394.345	672.88
394.559	787.19
394.773	835.24
394.986	991.4
395.2	1016.2
395.414	1108.62
395.628	1067.55
395.842	1135.94
396.056	1148.53
396.27	1067.74
396.484	1003.8
396.697	892.21
396.911	800.95
397.125	697.49
397.339	697.68
397.553	724.23
397.766	866.24
397.98	995.86
398.194	1190.77
398.408	1288.03
398.621	1345.19
398.835	1438.38
399.049	1474.03
399.262	1576.13
399.476	1619.34
399.69	1650.34
399.903	1682.89
400.117	1624.96
400.331	1707.11
400.544	1637.55
400.758	1776.27
400.971	1721.83
401.185	1765.81
401.398	1728.03
401.612	1839.24
401.826	1863.27
402.039	1853.39
402.253	1896.01
402.466	1936.5
402.68	1939.22
402.893	1995.98
403.106	1934.18
403.32	1882.64
403.533	1894.46
403.747	1865.4
403.96	1917.71
404.174	1989.01
404.387	1934.76
404.6	1975.25
404.814	1993.85
405.027	1900.47
405.24	1927.78
405.454	1966.34
405.667	2038.22
405.88	2005.67
406.094	2042.68
406.307	2015.36
406.52	1958.98
406.733	1886.9
406.947	1962.47
407.16	2006.45
407.373	2064.38
407.586	2032.41
407.799	2034.35
408.012	2090.92
408.226	2103.71
408.439	2205.42
408.652	2179.08
408.865	2333.1
409.078	2384.64
409.291	2391.42
409.504	2337.95
409.717	2380.96
409.93	2350.35
410.143	2170.36
410.357	2090.34
410.57	2045.97
410.783	2094.41
410.996	2167.26
411.209	2252.31
411.421	2447.03
411.634	2518.52
411.847	2487.52
412.06	2554.75
412.273	2575.48
412.486	2558.24
412.699	2621.98
412.912	2630.7
413.125	2533.25
413.338	2535.18
413.55	2513.29
413.763	2516.2
413.976	2561.34
414.189	2579.74
414.402	2623.14
414.615	2769.81
414.827	2631.28
415.04	2650.85
415.253	2644.46
415.466	2741.91
415.678	2784.34
415.891	2692.51
416.104	2658.99
416.316	2721.57
416.529	2799.65
416.742	2920.93
416.954	2834.91
417.167	2806.04
417.38	2769.62
417.592	2752.18
417.805	2687.08
418.017	2684.56
418.23	2703.94
418.442	2731.45
418.655	2751.4
418.868	2744.82
419.08	2807.78
419.293	2867.07
419.505	2897.68
419.718	2840.14
419.93	2894
420.142	2841.3
420.355	2833.94
420.567	2823.28
420.78	2893.42
420.992	2899.62
421.205	3047.84
421.417	3147.62
421.629	3119.91
421.842	3135.41
422.054	3105.19
422.266	3161.37
422.479	3132.51
422.691	2948.25
422.903	3011.03
423.115	2855.25
423.328	2884.7
423.54	2942.44
423.752	2997.66
423.964	3064.11
424.177	3100.92
424.389	3076.9
424.601	3264.45
424.813	3221.05
425.025	3207.29
425.238	3210.2
425.45	3173
425.662	3197.02
425.874	3434.17
426.086	3213.49
426.298	3260.57
426.51	3208.45
426.722	3259.02
426.934	3245.65
427.146	3261.73
427.358	3182.49
427.57	3222.02
427.782	3142
427.994	3157.3
428.206	3137.93
428.418	3353.96
428.63	3433.59
428.842	3439.4
429.054	3324.12
429.266	3272.39
429.478	3206.52
429.69	3175.71
429.902	3072.06
430.114	3052.29
430.325	2866.88
430.537	2719.82
430.749	2638.64
430.961	2567.15
431.173	2580.52
431.384	2682.04
431.596	2821.15
431.808	3219.5
432.02	3618.23
432.231	3874.94
432.443	3992.74
432.655	3829.61
432.867	3767.22
433.078	3772.26
433.29	3876.88
433.502	4014.83
433.713	4068.3
433.925	4118.29
434.136	3948.57
434.348	3695.15
434.56	3623.46
434.771	3832.71
434.983	3708.32
435.194	3988.48
435.406	4206.45
435.617	4190.17
435.829	4361.06
436.04	4346.91
436.252	4303.32
436.463	4551.9
436.675	4647.61
436.886	4697.01
437.098	4721.43
437.309	4754.75
437.521	4602.27
437.732	4484.09
437.943	4486.41
438.155	4484.47
438.366	4346.14
438.578	4397.67
438.789	4208.58
439	4222.53
439.211	4245
439.423	4306.23
439.634	4502.69
439.845	4627.07
440.057	4649.74
440.268	4842.71
440.479	4776.45
440.69	4835.35
440.902	4673.18
441.113	4671.05
441.324	4842.13
441.535	4944.82
441.746	5175.96
441.957	5103.11
442.168	5221.29
442.38	5250.36
442.591	5330.18
442.802	5173.44
443.013	5343.55
443.224	5429.96
443.435	5362.54
443.646	5285.42
443.857	5261.79
444.068	5394.31
444.279	5283.87
444.49	5605.11
444.701	5430.15
444.912	5656.45
445.123	5694.81
445.334	5424.92
445.545	5528.96
445.756	5410.2
445.967	5378.23
446.178	5254.42
446.388	5217.23
446.599	5294.53
446.81	5368.15
447.021	5392.37
447.232	5552.02
447.443	5719.61
447.653	5774.25
447.864	5957.15
448.075	5899.99
448.286	5905.8
448.496	5821.72
448.707	5868.22
448.918	5774.83
449.129	5833.34
449.339	5897.47
449.55	5966.06
449.761	5919.17
449.971	5918.01
450.182	6079.79
450.393	6137.72
450.603	6120.67
450.814	6356.27
451.024	6307.63
451.235	6549.82
451.446	6474.84
451.656	6530.83
451.867	6427.95
452.077	6227.42
452.288	6414.39
452.498	6314.42
452.709	6267.14
452.919	6030.38
453.13	5959.86
453.34	5979.04
453.55	5727.17
453.761	6062.74
453.971	6021.86
454.182	6157.48
454.392	6193.13
454.602	6492.47
454.813	6479.88
455.023	6271.99
455.233	6211.92
455.444	6371.38
455.654	6119.12
455.864	6327.2
456.075	6390.17
456.285	6380.87
456.495	6519.79
456.705	6541.49
456.916	6685.25
457.126	6793.94
457.336	6692.22
457.546	6595.93
457.756	6695.9
457.967	6770.11
458.177	6606.97
458.387	6658.51
458.597	6483.36
458.807	6675.95
459.017	6527.54
459.227	6549.24
459.437	6542.84
459.647	6721.29
459.857	6723.8
460.068	6853.23
460.278	6822.42
460.488	6772.43
460.698	6834.82
460.908	6930.92
461.117	7100.84
461.327	7101.8
461.537	7157.99
461.747	7151.02
461.957	7210.5
462.167	7336.63
462.377	7313.18
462.587	7232.97
462.797	7445.9
463.007	7318.41
463.216	7550.33
463.426	7636.74
463.636	7526.3
463.846	7306.21
464.056	7354.45
464.265	7320.55
464.475	7366.85
464.685	7543.35
464.895	7440.67
465.104	7271.14
465.314	7581.52
465.524	7406.57
465.733	7352.9
465.943	7653.79
466.153	7825.84
466.362	7829.13
466.572	7732.26
466.782	7614.65
466.991	7756.67
467.201	7592.57
467.41	7563.12
467.62	7791.93
467.829	7832.43
468.039	7959.72
468.249	7930.27
468.458	8131.96
468.668	8058.92
468.877	8236.97
469.086	8245.69
469.296	8463.85
469.505	8517.13
469.715	8420.64
469.924	8330.16
470.134	8431.1
470.343	8220.69
470.552	8325.9
470.762	8217.59
470.971	8351.67
471.18	8435.56
471.39	8560.53
471.599	8512.48
471.808	8657.21
472.018	8909.27
472.227	9079.77
472.436	9428.52
472.645	9352.76
472.855	9259.96
473.064	9566.85
473.273	9596.69
473.482	9236.51
473.691	9534.49
473.901	9375.04
474.11	9277.39
474.319	9643.77
474.528	9601.73
474.737	10075.63
474.946	9850.5
475.155	10024.48
475.364	10151.19
475.573	9971.78
475.783	10254.27
475.992	10159.72
476.201	10164.37
476.41	10287.59
476.619	10141.5
476.828	10069.43
477.037	10085.51
477.245	10169.99
477.454	10381.75
477.663	10657.65
477.872	10968.22
478.081	11093
478.29	11013.17
478.499	11188.51
478.708	11411.13
478.917	11336.93
479.125	11110.63
479.334	11219.13
479.543	11602.55
479.752	11688
479.961	11620.96
480.169	11953.04
480.378	12049.14
480.587	12190.58
480.796	12119.28
481.004	12223.51
481.213	12341.7
481.422	12435.08
481.63	12643.75
481.839	12725.9
482.048	12927.98
482.256	12814.64
482.465	13234.87
482.674	13100.99
482.882	13092.47
483.091	13166.48
483.299	13024.46
483.508	13405.56
483.716	13570.06
483.925	13648.14
484.134	13212.2
484.342	13470.47
484.551	13442.96
484.759	13391.23
484.967	13918.03
485.176	13814.95
485.384	13865.71
485.593	13564.63
485.801	13411.96
486.01	12902.02
486.218	12360.88
486.426	11806.76
486.635	11619.02
486.843	11742.24
487.051	12193.87
487.26	12407.38
487.468	12767.94
487.676	13051.39
487.885	13573.74
488.093	13903.69
488.301	14361.9
488.509	14280.91
488.717	14495.39
488.926	14568.24
489.134	14392.9
489.342	14381.86
489.55	14301.65
489.758	14708.9
489.967	15138.83
490.175	15054.55
490.383	15637.34
490.591	15872.94
490.799	15662.72
491.007	15601.5
491.215	15786.14
491.423	15603.05
491.631	15570.69
491.839	15503.85
492.047	15381.59
492.255	15012.7
492.463	15158.4
492.671	14890.64
492.879	15393.22
493.087	15608.66
493.295	15710.19
493.503	15960.32
493.711	16301.12
493.919	16211.22
494.127	16114.34
494.334	16091.29
494.542	16205.6
494.75	16668.07
494.958	16475.88
495.166	16901.93
495.374	17065.06
495.581	17025.15
495.789	17018.76
495.997	17047.04
496.205	16436.93
496.412	16795.75
496.62	17144.5
496.828	16923.82
497.035	17142.17
497.243	17267.92
497.451	17316.35
497.658	17301.24
497.866	17253.58
498.074	17346
498.281	17040.07
498.489	17062.93
498.696	16843.8
498.904	16694.23
499.112	16741.89
499.319	17126.48
499.527	17242.92
499.734	17458.56
499.942	17250.28
500.149	17287.1
500.357	17273.15
500.564	16910.06
500.771	16933.51
500.979	16689.19
501.186	16500.87
501.394	16921.69
501.601	16446.04
501.808	16555.51
502.016	16576.24
502.223	16549.69
502.43	16710.31
502.638	16710.12
502.845	17052.47
503.052	17181.5
503.26	17207.47
503.467	17389.39
503.674	17477.36
503.881	17268.88
504.089	17110.21
504.296	16984.46
504.503	16936.03
504.71	16829.66
504.917	17120.09
505.125	17228.78
505.332	17407.61
505.539	17476.39
505.746	17935.18
505.953	18127.96
506.16	18181.43
506.367	18246.34
506.574	18484.45
506.781	18471.67
506.988	18253.51
507.195	18184.92
507.402	18168.26
507.609	18086.69
507.816	17817.19
508.023	17791.61
508.23	17665.29
508.437	17462.24
508.644	17716.83
508.851	17784.06
509.058	18233.16
509.265	18355.22
509.472	18574.93
509.679	18583.65
509.885	18461.59
510.092	18509.25
510.299	18488.52
510.506	18166.13
510.713	18344.96
510.92	18244.01
511.126	18412.19
511.333	18606.32
511.54	18756.48
511.746	18738.46
511.953	18887.25
512.16	19130.8
512.367	18898.88
512.573	18740.01
512.78	18650.69
512.987	18617.17
513.193	18370.34
513.4	18216.31
513.606	18402.69
513.813	18403.86
514.02	18161.48
514.226	18225.61
514.433	18174.46
514.639	18115.95
514.846	18128.73
515.052	18174.07
515.259	18314.54
515.465	18350.96
515.672	18424.59
515.878	18481.35
516.085	18843.27
516.291	18625.31
516.497	18509.45
516.704	17893.72
516.91	17468.64
517.117	16737.05
517.323	16294.53
517.529	16317.39
517.736	16223.62
517.942	16544.46
518.148	16884.1
518.354	17022.83
518.561	16994.93
518.767	16818.81
518.973	16955.98
519.179	17371.96
519.386	17581.01
519.592	17548.07
519.798	17641.27
520.004	18444.93
520.21	18402.31
520.417	18588.69
520.623	18720.83
520.829	18668.32
521.035	18685.56
521.241	18622.4
521.447	18776.43
521.653	19122.08
521.859	18882.22
522.065	19048.84
522.271	19132.15
522.477	19130.21
522.683	19294.71
522.889	18872.34
523.095	18644.1
523.301	18696.03
523.507	18648.75
523.713	18848.12
523.919	18699.32
524.125	19252.27
524.331	19455.71
524.537	19712.81
524.742	19727.92
524.948	19704.48
525.154	19740.91
525.36	19629.5
525.566	19403.4
525.772	19649.84
525.977	19498.33
526.183	19287.73
526.389	19402.43
526.595	18668.71
526.8	18532.31
527.006	17965.41
527.212	17535.87
527.417	17514.56
527.623	17647.47
527.829	17925.11
528.034	18309.89
528.24	18413.93
528.446	18823.51
528.651	19223.02
528.857	19358.45
529.062	19535.73
529.268	19751.95
529.473	19934.26
529.679	20037.92
529.884	19958.29
530.09	19884.28
530.295	19525.85
530.501	19849.98
530.706	19864.71
530.912	20024.36
531.117	20028.04
531.323	19980.57
531.528	20334.74
531.733	20315.75
531.939	20132.47
532.144	20082.09
532.35	19972.43
532.555	19858.9
532.76	19347.99
532.966	19359.03
533.171	19149.39
533.376	18938.21
533.581	19017.84
533.787	19358.06
533.992	19601.79
534.197	19249.56
534.402	19781.79
534.607	19807.94
534.813	19709.32
535.018	19812.01
535.223	20047.61
535.428	20035.98
535.633	20237.87
535.838	20485.28
536.043	20713.13
536.249	20924.12
536.454	20422.12
536.659	20544.96
536.864	20530.62
537.069	20199.7
537.274	20070.47
537.479	20059.04
537.684	20064.08
537.889	20006.53
538.094	20388.21
538.299	20221.2
538.504	20572.66
538.708	20363.61
538.913	20688.14
539.118	20594.17
539.323	20359.93
539.528	20230.7
539.733	20124.33
539.938	20124.52
540.142	19957.9
540.347	19865.1
540.552	19758.92
540.757	19386.74
540.962	19738.19
541.166	19466.17
541.371	19450.48
541.576	19558.01
541.781	19687.24
541.985	20193.5
542.19	19798.25
542.395	20392.28
542.599	20324.28
542.804	20128.98
543.008	20274.87
543.213	20145.26
543.418	20041.21
543.622	20292.5
543.827	20039.47
544.031	20270.42
544.236	20482.76
544.44	20723.78
544.645	20684.45
544.849	20500.78
545.054	20735.41
545.258	20761.57
545.463	20790.05
545.667	20369.23
545.872	20739.67
546.076	20656.17
546.281	20621.87
546.485	20535.46
546.689	20598.43
546.894	20646.29
547.098	20818.72
547.302	20649.77
547.507	20634.85
547.711	20640.28
547.915	20516.86
548.119	20297.54
548.324	20310.13
548.528	20408.75
548.732	20496.52
548.936	20638.34
549.141	20639.7
549.345	20676.9
549.549	20802.25
549.753	20983.99
549.957	20825.31
550.161	20940.2
550.366	21012.47
550.57	20856.7
550.774	20893.7
550.978	20838.68
551.182	20775.52
551.386	20648.8
551.59	20643.38
551.794	20629.62
551.998	20851.27
552.202	20809.81
552.406	20779.39
552.61	21137.24
552.814	20934
553.018	20805.74
553.222	20550.19
553.426	20682.52
553.63	20923.93
553.833	20866
554.037	20606.96
554.241	20552.12
554.445	20928.19
554.649	20903
554.853	20675.35
555.056	20932.06
555.26	21109.15
555.464	20877.23
555.668	20945.82
555.871	20933.23
556.075	21004.14
556.279	20776.48
556.483	20661.79
556.686	20585.84
556.89	20626.52
557.094	20500.39
557.297	20151.07
557.501	20371.36
557.704	20019.9
557.908	20317.5
558.112	20275.26
558.315	20405.07
558.519	20171.02
558.722	20073.18
558.926	19991.81
559.129	19485.55
559.333	19873.43
559.536	19751.75
559.74	19558.01
559.943	19446.8
560.147	19556.65
560.35	19458.81
560.553	19969.72
560.757	19857.15
560.96	19926.32
561.164	20080.16
561.367	20200.47
561.57	20124.72
561.774	20025.33
561.977	19948.8
562.18	19828.09
562.384	19909.27
562.587	19815.3
562.79	20020.29
562.993	19861.8
563.197	19825.19
563.4	20067.76
563.603	20095.46
563.806	20119.29
564.009	19995.68
564.212	20002.08
564.416	19792.05
564.619	19807.36
564.822	19584.74
565.025	19831.77
565.228	19791.47
565.431	19813.95
565.634	19574.28
565.837	19529.72
566.04	19367.75
566.243	19173.03
566.446	19033.15
566.649	19433.82
566.852	19190.47
567.055	19329.19
567.258	19234.45
567.461	19521
567.664	19528.75
567.867	19564.79
568.07	19297.22
568.273	19489.03
568.475	19655.27
568.678	19039.15
568.881	19002.53
569.084	18763.26
569.287	18724.89
569.489	18882.41
569.692	18943.83
569.895	18938.21
570.098	18756.86
570.3	18745.24
570.503	18702.61
570.706	18649.91
570.909	18526.69
571.111	18265.13
571.314	18192.09
571.516	18216.11
571.719	18421.29
571.922	18318.03
572.124	18354.45
572.327	18606.52
572.529	18548
572.732	18713.46
572.935	18806.46
573.137	19101.15
573.34	18667.35
573.542	18965.53
573.745	18803.94
573.947	18957
574.15	18772.17
574.352	18638.29
574.554	18923.68
574.757	18729.74
574.959	18390.49
575.162	18771.01
575.364	18325.78
575.566	18524.17
575.769	18282.96
575.971	18307.37
576.173	17979.36
576.376	18209.91
576.578	18432.34
576.78	18368.79
576.982	18275.59
577.185	18418.97
577.387	18356
577.589	18587.53
577.791	18315.7
577.993	18431.76
578.196	18402.11
578.398	18167.87
578.6	18102.97
578.802	18112.85
579.004	17996.41
579.206	18141.13
579.408	18397.66
579.61	18113.04
579.812	18662.7
580.014	18248.28
580.216	18481.74
580.418	18668.13
580.62	18630.35
580.822	18674.71
581.024	18739.04
581.226	18818.28
581.428	18750.66
581.63	19092.43
581.832	18889.19
582.034	19086.04
582.236	19053.3
582.438	19310.21
582.64	19409.79
582.841	19374.92
583.043	19622.53
583.245	19266.81
583.447	19581.06
583.649	19525.65
583.85	19545.22
584.052	19509.96
584.254	19383.25
584.456	19444.28
584.657	19389.64
584.859	19610.32
585.061	19271.26
585.262	19368.14
585.464	19199.19
585.666	19283.66
585.867	18975.22
586.069	19059.3
586.27	18961.65
586.472	18959.14
586.674	18963.98
586.875	19028.88
587.077	19117.23
587.278	19136.41
587.48	18996.14
587.681	19253.44
587.883	19143
588.084	18784.18
588.285	18777.4
588.487	18312.79
588.688	18377.12
588.89	17748.99
589.091	17356.85
589.292	16930.8
589.494	16614.41
589.695	16331.92
589.896	16119.38
590.098	16232.92
590.299	16322.43
590.5	16651.41
590.702	16955.59
590.903	17119.7
591.104	17441.13
591.305	17745.89
591.507	17645.34
591.708	17731.75
591.909	17712.95
592.11	17529.67
592.311	17815.83
592.512	17534.12
592.714	17557.96
592.915	17802.85
593.116	17691.64
593.317	17947.58
593.518	18000.67
593.719	18036.51
593.92	18135.13
594.121	18021.2
594.322	17953.01
594.523	17773.79
594.724	17585.85
594.925	17662.38
595.126	17414.78
595.327	17502.93
595.528	17792.97
595.729	17671.1
595.929	17780.76
596.13	17814.28
596.331	18142.1
596.532	17944.67
596.733	18217.28
596.934	18236.07
597.135	18226.58
597.335	18105.48
597.536	18227.55
597.737	18097.73
597.938	18009
598.138	18026.24
598.339	18169.23
598.54	18089.79
598.74	17853.23
598.941	18024.89
599.142	18140.36
599.342	18171.94
599.543	18017.52
599.744	18263
599.944	18197.13
600.145	18334.49
600.345	18200.61
600.546	18204.1
600.746	18296.13
600.947	18418
601.147	17965.79
601.348	18310.47
601.548	18127.18
601.749	18062.86
601.949	17921.62
602.15	18110.91
602.35	17844.89
602.551	17909.8
602.751	18055.11
602.951	18096.18
603.152	17962.11
603.352	18269.39
603.552	18285.28
603.753	18367.82
603.953	18519.91
604.153	18316.67
604.354	18488.52
604.554	18493.17
604.754	18573.77
604.954	18387.39
605.155	18555.17
605.355	18448.22
605.555	18419.16
605.755	18519.91
605.955	18331.01
606.155	18373.24
606.356	18400.37
606.556	18306.4
606.756	18443.77
606.956	18333.33
607.156	18549.36
607.356	18335.27
607.556	18407.54
607.756	18337.4
607.956	18374.6
608.156	18429.62
608.356	18178.72
608.556	18402.5
608.756	18135.32
608.956	18277.73
609.156	18146.56
609.356	18123.5
609.556	18011.9
609.755	18201.78
609.955	18001.44
610.155	17969.67
610.355	18074.49
610.555	17881.9
610.755	17771.85
610.954	17848.58
611.154	18026.24
611.354	17969.28
611.554	17839.47
611.753	18141.72
611.953	17984.97
612.153	18099.87
612.352	17952.04
612.552	17795.3
612.752	17712.57
612.951	18073.52
613.151	17686.6
613.351	17836.56
613.55	17841.6
613.75	17833.08
613.949	17485.69
614.149	17554.47
614.348	17518.24
614.548	17558.15
614.747	17476.19
614.947	17660.64
615.146	17499.06
615.346	17801.88
615.545	17700.17
615.745	17604.45
615.944	17505.64
616.144	17518.24
616.343	17335.15
616.542	17413.23
616.742	17083.66
616.941	17100.32
617.14	17004.61
617.34	17254.93
617.539	17275.08
617.738	17265.59
617.938	17488.21
618.137	17392.3
618.336	17447.91
618.535	17638.36
618.734	17626.93
618.934	17508.94
619.133	17539.94
619.332	17706.37
619.531	17295.62
619.73	17687.38
619.929	17630.22
620.128	17663.93
620.328	17630.8
620.527	17665.68
620.726	17691.45
620.925	17590.5
621.124	17728.84
621.323	17577.52
621.522	17373.51
621.721	17576.36
621.92	17413.61
622.119	17463.02
622.318	17340.76
622.517	17301.43
622.715	17204.56
622.914	17156.51
623.113	17328.95
623.312	16848.07
623.511	16976.52
623.71	16975.74
623.909	16873.25
624.107	17084.44
624.306	16865.5
624.505	16905.03
624.704	16821.52
624.902	16638.43
625.101	16790.91
625.3	16515.01
625.499	16540.2
625.697	16632.81
625.896	16558.8
626.095	16402.06
626.293	16384.82
626.492	16627
626.69	16533.61
626.889	16732.59
627.088	16580.89
627.286	16604.72
627.485	16296.08
627.683	16120.93
627.882	15940.17
628.08	15630.95
628.279	15454.05
628.477	15504.62
628.676	15345.75
628.874	15581.93
629.073	15411.24
629.271	15564.49
629.469	15644.51
629.668	15647.8
629.866	15421.7
630.065	15532.72
630.263	15699.34
630.461	15514.7
630.66	15667.18
630.858	15618.74
631.056	15889.02
631.254	15917.3
631.453	15627.26
631.651	15765.79
631.849	15655.74
632.047	15669.11
632.245	15667.95
632.444	15769.67
632.642	16029.48
632.84	16107.76
633.038	15903.16
633.236	15864.02
633.434	16099.62
633.632	16097.49
633.83	15880.49
634.028	16247.45
634.227	16059.13
634.425	16294.72
634.623	16050.8
634.821	16329.4
635.019	16184.87
635.216	16428.21
635.414	16364.67
635.612	16240.47
635.81	16211.99
636.008	16344.13
636.206	16346.84
636.404	16206.18
636.602	16245.51
636.8	16039.17
636.997	16391.4
637.195	16326.69
637.393	16395.47
637.591	16480.91
637.789	16488.28
637.986	16557.44
638.184	16586.51
638.382	16669.04
638.58	16517.73
638.777	16690.55
638.975	16699.27
639.173	16645.41
639.37	16534.19
639.568	16554.93
639.765	16530.51
639.963	16468.32
640.161	16233.31
640.358	16492.54
640.556	16137.01
640.753	16348.39
640.951	16147.48
641.148	16303.83
641.346	16391.4
641.543	16171.5
641.741	16243.96
641.938	16209.28
642.136	16246.48
642.333	16133.33
642.531	16447.78
642.728	16294.72
642.925	16435.38
643.123	16265.66
643.32	16390.24
643.517	16215.29
643.715	16118.03
643.912	16321.07
644.109	16342.77
644.306	16327.08
644.504	16186.42
644.701	16229.82
644.898	16172.86
645.095	16205.79
645.293	16160.65
645.49	15973.49
645.687	16096.52
645.884	16090.71
646.081	15660.78
646.278	15818.3
646.475	15705.34
646.672	15583.67
646.87	15514.7
647.067	15429.06
647.264	15448.05
647.461	15278.13
647.658	15164.01
647.855	15219.23
648.052	15056.1
648.249	14993.13
648.446	15027.42
648.642	15246.94
648.839	14917.18
649.036	14968.33
649.233	14919.31
649.43	14889.09
649.627	14631.6
649.824	14842.39
650.021	14656.2
650.217	14925.71
650.414	15091.75
650.611	15123.91
650.808	15462
651.004	15294.02
651.201	15211.29
651.398	15457.54
651.595	15181.26
651.791	15028
651.988	15257.59
652.185	14815.66
652.381	15223.88
652.578	15001.46
652.775	15149.87
652.971	15335.29
653.168	15092.52
653.364	15438.75
653.561	15249.65
653.757	15360.09
653.954	15482.34
654.15	15043.12
654.347	15361.06
654.543	15421.5
654.74	15119.84
654.936	15044.47
655.133	14992.55
655.329	15067.72
655.525	14637.02
655.722	14661.43
655.918	14231.9
656.115	13717.69
656.311	13499.92
656.507	13025.82
656.704	12846.02
656.9	13090.34
657.096	13330
657.292	13316.44
657.489	13575.48
657.685	13787.63
657.881	13928.1
658.077	14180.55
658.273	14394.45
658.47	14647.68
658.666	14619.2
658.862	14829.41
659.058	14891.8
659.254	14847.24
659.45	15047.96
659.646	14898.19
659.842	15022.19
660.038	15170.21
660.234	15015.8
660.43	15044.67
660.626	15150.45
660.822	15227.18
661.018	15269.41
661.214	15248.29
661.41	15126.23
661.606	15315.72
661.802	15474.98
661.998	15335.09
662.194	15293.05
662.39	15410.46
662.586	15323.47
662.781	15285.88
662.977	15517.22
663.173	15253.53
663.369	15277.74
663.564	15375.2
663.76	15279.29
663.956	15327.92
664.152	15100.08
664.347	15041.57
664.543	15231.05
664.739	15140.57
664.934	14991.77
665.13	15199.28
665.326	15171.96
665.521	15246.16
665.717	15050.09
665.912	15248.1
666.108	14858.09
666.304	15170.41
666.499	15012.5
666.695	14819.53
666.89	15106.47
667.086	15156.65
667.281	15001.65
667.477	15204.7
667.672	14983.64
667.867	14943.14
668.063	14947.02
668.258	14815.66
668.454	15010.76
668.649	14978.79
668.844	15048.73
669.04	15050.09
669.235	14906.72
669.43	15128.95
669.626	14813.91
669.821	14895.48
670.016	14896.06
670.211	14991.58
670.407	14609.12
670.602	14951.28
670.797	14698.05
670.992	14953.6
671.187	14768.19
671.382	14928.22
671.578	14592.27
671.773	14706.77
671.968	14495.59
672.163	14676.35
672.358	14700.76
672.553	14431.26
672.748	14715.3
672.943	14653.1
673.138	14602.15
673.333	14764.12
673.528	14444.63
673.723	14641.48
673.918	14518.06
674.113	14592.65
674.308	14611.64
674.503	14487.84
674.698	14586.45
674.892	14382.83
675.087	14468.85
675.282	14471.37
675.477	14401.43
675.672	14496.56
675.867	14315.01
676.061	14422.35
676.256	14358.03
676.451	14462.84
676.646	14377.01
676.84	14263.67
677.035	14265.41
677.23	14317.15
677.424	14348.92
677.619	14272.58
677.814	14398.52
678.008	14281.69
678.203	14318.7
678.397	14214.07
678.592	14152.85
678.787	14371.01
678.981	14227.25
679.176	14146.84
679.37	14155.95
679.565	14108.67
679.759	14179.97
679.954	14153.82
680.148	14029.04
680.342	14211.36
680.537	14036.79
680.731	14035.63
680.926	14145.87
681.12	13991.46
681.314	13949.61
681.509	14067.79
681.703	14031.95
681.897	13847.31
682.092	13951.35
682.286	13890.71
682.48	13881.21
682.674	13852.93
682.869	13745.78
683.063	13950.58
683.257	13803.72
683.451	13751.21
683.645	13807.59
683.839	13728.54
684.034	13629.54
684.228	13521.04
684.422	13358.29
684.616	13552.23
684.81	13576.64
685.004	13415.06
685.198	13472.41
685.392	13405.76
685.586	13552.62
685.78	13390.45
685.974	13389.29
686.168	13345.7
686.362	13142.46
686.556	12306.24
686.75	11859.07
686.944	11018.4
687.138	10218.62
687.331	9619.55
687.525	9227.41
687.719	9049.16
687.913	9135.57
688.107	9305.29
688.301	9329.32
688.494	9496.91
688.688	9380.27
688.882	9271
689.076	9370.58
689.269	9381.05
689.463	9475.4
689.657	9506.79
689.85	9602.5
690.044	9805.35
690.238	9883.24
690.431	9886.15
690.625	10062.46
690.818	10291.47
691.012	10272.67
691.205	10508.27
691.399	10614.44
691.593	10657.45
691.786	10740.18
691.98	11030.03
692.173	11111.79
692.366	11085.44
692.56	11155.19
692.753	11100.36
692.947	11038.75
693.14	11001.16
693.333	11020.34
693.527	11043.2
693.72	11025.96
693.914	10943.42
694.107	10734.18
694.3	10812.84
694.493	10634.59
694.687	10961.44
694.88	10798.5
695.073	10948.07
695.266	10949.62
695.46	10980.24
695.653	10927.92
695.846	10987.41
696.039	11087.96
696.232	11059.67
696.425	11292.17
696.618	11409
696.812	11571.75
697.005	11636.26
697.198	11820.71
697.391	11676.95
697.584	11865.27
697.777	11842.41
697.97	11772.08
698.163	11738.18
698.356	11724.61
698.549	11764.33
698.742	11657.77
698.935	11422.76
699.127	11469.45
699.32	11234.24
699.513	11214.67
699.706	11149.38
699.899	11347.39
700.092	11072.46
700.285	10992.06
700.477	10875.81
700.67	10954.27
700.863	10903.51
701.056	10986.82
701.248	10921.14
701.441	10973.26
701.634	10861.28
701.826	10939.74
702.019	10668.5
702.212	10849.65
702.404	10799.47
702.597	10734.37
702.79	10828.53
702.982	10805.09
703.175	10866.51
703.367	10942.07
703.56	11002.52
703.752	11075.75
703.945	11068
704.137	11052.5
704.33	11081.18
704.522	11092.03
704.715	11159.45
704.907	11225.71
705.1	11216.61
705.292	11224.36
705.484	11061.22
705.677	11128.45
705.869	11253.61
706.061	11197.43
706.254	11204.21
706.446	11025.77
706.638	11119.54
706.831	11187.35
707.023	11124
707.215	11309.22
707.407	11320.65
707.599	11066.45
707.792	11357.66
707.984	11314.45
708.176	11210.21
708.368	11227.26
708.56	11165.27
708.752	11261.75
708.944	11066.84
709.136	11124.97
709.329	11110.82
709.521	11220.48
709.713	11107.33
709.905	11202.66
710.097	11222.03
710.289	11120.9
710.481	11094.16
710.672	11132.72
710.864	11128.45
711.056	11113.53
711.248	11030.22
711.44	11089.51
711.632	11124.19
711.824	11083.7
712.016	10985.08
712.207	11085.44
712.399	11015.69
712.591	11039.91
712.783	11025.38
712.975	10942.07
713.166	10928.12
713.358	10902.54
713.55	10904.68
713.741	10863.99
713.933	10923.27
714.125	10727.4
714.316	10664.23
714.508	10749.48
714.7	10624.71
714.891	10668.69
715.083	10566.01
715.274	10453.44
715.466	10617.93
715.657	10464.09
715.849	10276.16
716.04	10244.58
716.232	10050.25
716.423	9846.62
716.615	9650.36
716.806	9307.42
716.998	8911.21
717.189	8597.34
717.381	8333.65
717.572	8173.81
717.763	7988.78
717.955	7820.61
718.146	7637.71
718.337	7482.71
718.528	7306.4
718.72	6983.23
718.911	6932.66
719.102	6878.22
719.293	6858.07
719.485	6762.55
719.676	6669.94
719.867	6582.76
720.058	6582.95
720.249	6527.15
720.44	6546.33
720.632	6777.08
720.823	6898.37
721.014	7243.82
721.205	7453.84
721.396	7635.38
721.587	7835.53
721.778	8095.15
721.969	8179.04
722.16	8321.06
722.351	8423.16
722.542	8579.13
722.733	8514.03
722.924	8350.89
723.115	8356.51
723.305	8140.48
723.496	8172.65
723.687	7765.78
723.878	7815.18
724.069	7710.17
724.26	7607.87
724.45	7504.02
724.641	7372.08
724.832	7418.58
725.023	7267.46
725.213	7249.63
725.404	7173.1
725.595	7150.44
725.785	7087.66
725.976	7161.67
726.167	7141.52
726.357	7184.15
726.548	7335.85
726.739	7147.92
726.929	7347.67
727.12	7292.06
727.31	7227.74
727.501	7128.74
727.691	7039.61
727.882	7110.33
728.072	7190.54
728.263	7223.87
728.453	7339.73
728.644	7304.27
728.834	7211.08
729.024	7092.12
729.215	7087.85
729.405	7074.49
729.596	7212.24
729.786	7256.22
729.976	7325.58
730.167	7252.15
730.357	7150.05
730.547	7198.87
730.737	7268.81
730.928	7254.09
731.118	7279.86
731.308	7180.27
731.498	7267.07
731.688	7437.18
731.879	7498.99
732.069	7477.48
732.259	7636.93
732.449	7711.33
732.639	7855.29
732.829	7886.48
733.019	8025.01
733.209	8140.48
733.399	8166.25
733.589	8260.03
733.779	8369.11
733.969	8405.34
734.159	8585.71
734.349	8550.07
734.539	8607.41
734.729	8639.58
734.919	8686.08
735.109	8733.93
735.299	8517.52
735.488	8602.96
735.678	8510.73
735.868	8547.35
736.058	8497.56
736.248	8481.09
736.437	8397.97
736.627	8381.89
736.817	8541.15
737.007	8417.15
737.196	8489.42
737.386	8533.4
737.576	8470.63
737.765	8579.32
737.955	8447.77
738.144	8691.11
738.334	8558.01
738.524	8472.18
738.713	8542.12
738.903	8481.09
739.092	8534.57
739.282	8499.88
739.471	8552.39
739.661	8516.16
739.85	8587.65
740.04	8539.22
740.229	8595.4
740.419	8649.85
740.608	8675.81
740.797	8590.95
740.987	8677.16
741.176	8631.25
741.365	8629.31
741.555	8488.84
741.744	8748.07
741.933	8569.83
742.123	8637.64
742.312	8644.61
742.501	8686.85
742.69	8636.86
742.88	8608.38
743.069	8793.22
743.258	8713.98
743.447	8744.2
743.636	8703.13
743.825	8667.67
744.014	8681.62
744.204	8774.42
744.393	8589.78
744.582	8712.23
744.771	8722.69
744.96	8669.22
745.149	8640.55
745.338	8624.08
745.527	8712.04
745.716	8609.35
745.905	8615.75
746.094	8790.12
746.283	8705.06
746.471	8630.66
746.66	8658.56
746.849	8661.28
747.038	8688.98
747.227	8597.53
747.416	8662.05
747.604	8622.33
747.793	8537.86
747.982	8525.85
748.171	8616.13
748.359	8537.28
748.548	8548.9
748.737	8486.13
748.926	8543.28
749.114	8374.14
749.303	8479.54
749.491	8447.57
749.68	8314.27
749.869	8432.07
750.057	8401.46
750.246	8368.14
750.434	8367.94
750.623	8319.31
750.811	8241.43
751	8306.33
751.188	8206.55
751.377	8329
751.565	8226.89
751.754	8255.18
751.942	8153.66
752.131	8231.35
752.319	8178.46
752.507	8148.04
752.696	8182.14
752.884	8164.7
753.072	8062.02
753.261	8151.33
753.449	8137
753.637	8052.91
753.825	8162.76
754.014	8073.25
754.202	8098.25
754.39	8044.38
754.578	8146.1
754.766	7963.01
754.955	7930.85
755.143	8055.62
755.331	7946.35
755.519	7995.17
755.707	7925.81
755.895	7910.89
756.083	7965.92
756.271	7831.07
756.459	7953.32
756.647	7823.71
756.835	7862.65
757.023	7771.4
757.211	7786.31
757.399	7791.93
757.587	7788.06
757.775	7670.26
757.963	7657.86
758.151	7706.68
758.339	7598.77
758.526	7615.62
758.714	7592.18
758.902	7362.39
759.09	7067.12
759.278	6600
759.465	5998.41
759.653	5300.92
759.841	4702.63
760.028	4102.21
760.216	3529.49
760.404	3161.76
760.591	2656.47
760.779	2250.57
760.967	1943.09
761.154	1669.91
761.342	1656.35
761.529	1683.86
761.717	1753.02
761.905	1764.46
762.092	1871.99
762.28	1745.66
762.467	1680.37
762.655	1613.53
762.842	1609.07
763.029	1685.99
763.217	1654.41
763.404	1664.48
763.592	1677.85
763.779	1676.3
763.966	1789.64
764.154	1829.94
764.341	1922.55
764.528	1974.48
764.716	2065.73
764.903	2248.44
765.09	2409.83
765.277	2510.96
765.465	2770
765.652	2926.75
765.839	3122.62
766.026	3400.65
766.213	3549.26
766.4	3746.3
766.588	4120.62
766.775	4252.75
766.962	4432.74
767.149	4690.81
767.336	4908.97
767.523	5058.74
767.71	5228.85
767.897	5479.37
768.084	5565.2
768.271	5778.9
768.458	5844
768.645	5979.43
768.832	6029.22
769.019	6161.94
769.206	6151.28
769.392	6314.61
769.579	6435.51
769.766	6418.07
769.953	6476.39
770.14	6489.95
770.327	6509.71
770.513	6617.44
770.7	6704.82
770.887	6565.51
771.073	6600.39
771.26	6690.29
771.447	6670.14
771.634	6584.5
771.82	6694.55
772.007	6588.18
772.193	6672.65
772.38	6694.94
772.567	6698.23
772.753	6614.14
772.94	6747.05
773.126	6714.7
773.313	6730.97
773.499	6625.57
773.686	6759.84
773.872	6574.04
774.059	6700.75
774.245	6683.7
774.432	6627.12
774.618	6516.11
774.804	6658.9
774.991	6583.14
775.177	6538.58
775.363	6521.73
775.55	6590.12
775.736	6487.04
775.922	6553.31
776.109	6558.54
776.295	6555.05
776.481	6581.59
776.667	6579.66
776.853	6476.97
777.04	6450.04
777.226	6519.01
777.412	6551.95
777.598	6357.82
777.784	6454.3
777.97	6354.52
778.156	6405.67
778.342	6452.36
778.528	6384.75
778.715	6336.89
778.901	6327.01
779.087	6362.85
779.272	6283.61
779.458	6300.66
779.644	6257.26
779.83	6245.25
780.016	6365.57
780.202	6256.29
780.388	6293.88
780.574	6152.25
780.76	6228
780.946	6265.98
781.131	6190.42
781.317	6179.18
781.503	6136.17
781.689	6141.4
781.874	6303.76
782.06	6090.06
782.246	6160.58
782.432	6141.79
782.617	6151.09
782.803	6148.96
782.989	6085.41
783.174	6005.97
783.36	6013.33
783.545	5968.19
783.731	6055.96
783.916	5862.02
784.102	5994.73
784.288	5966.06
784.473	5936.22
784.659	5861.82
784.844	5957.73
785.029	5909.29
785.215	5858.33
785.4	5865.5
785.586	5923.63
785.771	5749.45
785.956	5898.25
786.142	5781.03
786.327	5831.99
786.512	5731.82
786.698	5743.25
786.883	5663.23
787.068	5699.46
787.254	5682.02
787.439	5656.26
787.624	5596.78
787.809	5623.32
787.994	5559.96
788.18	5629.71
788.365	5509.78
788.55	5513.85
788.735	5496.22
788.92	5461.54
789.105	5444.1
789.29	5442.75
789.475	5346.26
789.66	5373.77
789.845	5351.69
790.03	5312.74
790.215	5342.39
790.4	5412.91
790.585	5365.83
790.77	5347.62
790.955	5273.22
791.14	5308.87
791.325	5349.36
791.51	5224.98
791.695	5310.22
791.879	5299.18
792.064	5196.49
792.249	5317.2
792.434	5251.71
792.618	5294.72
792.803	5330.18
792.988	5265.08
793.173	5282.71
793.357	5283.49
793.542	5287.94
793.727	5292.59
793.911	5354.4
794.096	5362.73
794.281	5369.12
794.465	5466.38
794.65	5293.17
794.834	5431.32
795.019	5392.57
795.203	5439.65
795.388	5441
795.572	5463.87
795.757	5450.3
795.941	5453.4
796.126	5305.38
796.31	5275.35
796.494	5306.54
796.679	5290.27
796.863	5273.22
797.048	5427.83
797.232	5302.09
797.416	5432.48
797.601	5367.57
797.785	5476.65
797.969	5450.88
798.153	5364.86
798.338	5442.94
798.522	5480.72
798.706	5523.93
798.89	5454.57
799.074	5568.88
799.258	5527.61
799.443	5495.06
799.627	5414.46
799.811	5472
799.995	5400.12
800.179	5336.96
800.363	5365.05
800.547	5395.86
800.731	5440.03
800.915	5329.79
801.099	5322.62
801.283	5337.15
801.467	5357.5
801.651	5330.18
801.835	5394.12
802.019	5382.88
802.202	5370.29
802.386	5296.66
802.57	5245.12
802.754	5326.69
802.938	5240.48
803.121	5295.69
803.305	5383.65
803.489	5266.24
803.673	5336.38
803.856	5341.03
804.04	5286.2
804.224	5336.57
804.407	5300.15
804.591	5309.45
804.775	5250.55
804.958	5352.85
805.142	5457.47
805.326	5338.32
805.509	5358.08
805.693	5353.82
805.876	5374.16
806.06	5420.85
806.243	5399.93
806.427	5398.38
806.61	5459.6
806.794	5379.78
806.977	5433.45
807.16	5419.69
807.344	5435
807.527	5393.73
807.71	5386.56
807.894	5347.42
808.077	5380.17
808.26	5336.38
808.444	5332.89
808.627	5374.55
808.81	5281.55
808.993	5199.01
809.177	5234.28
809.36	5186.42
809.543	5145.35
809.726	5034.13
809.909	5099.62
810.092	5018.83
810.276	5035.88
810.459	4970.2
810.642	4985.89
810.825	4907.23
811.008	4945.01
811.191	4811.13
811.374	4823.72
811.557	4804.74
811.74	4847.75
811.923	4733.63
812.106	4689.07
812.289	4595.49
812.472	4582.7
812.654	4546.67
812.837	4515.28
813.02	4438.17
813.203	4319.4
813.386	4190.95
813.569	4138.63
813.751	4039.82
813.934	4069.47
814.117	3996.42
814.3	3915.83
814.482	3797.83
814.665	3733.12
814.848	3704.83
815.03	3595.95
815.213	3554.87
815.396	3520.19
815.578	3463.43
815.761	3418.67
815.943	3500.43
816.126	3339.23
816.309	3282.08
816.491	3182.69
816.674	3109.84
816.856	3187.14
817.039	3209.23
817.221	3257.86
817.403	3197.22
817.586	3230.15
817.768	3218.34
817.951	3160.21
818.133	3102.67
818.315	3113.91
818.498	3222.4
818.68	3266.38
818.862	3236.16
819.045	3268.9
819.227	3274.72
819.409	3255.15
819.591	3262.32
819.774	3257.47
819.956	3271.62
820.138	3375.66
820.32	3374.88
820.502	3577.35
820.684	3638.96
820.866	3658.34
821.048	3714.33
821.231	3700.96
821.413	3823.02
821.595	3693.6
821.777	3782.33
821.959	3736.03
822.141	3769.16
822.323	3595.37
822.505	3366.75
822.686	3303.97
822.868	3099.37
823.05	2941.86
823.232	2854.09
823.414	2750.44
823.596	2876.76
823.778	2862.23
823.96	2903.69
824.141	3003.28
824.323	2999.21
824.505	3161.18
824.687	3264.83
824.868	3398.91
825.05	3544.61
825.232	3569.21
825.413	3641.29
825.595	3629.47
825.777	3536.66
825.958	3600.79
826.14	3623.07
826.321	3618.62
826.503	3637.02
826.685	3715.88
826.866	3693.6
827.048	3674.42
827.229	3546.35
827.411	3485.32
827.592	3441.34
827.773	3389.03
827.955	3302.03
828.136	3249.33
828.318	3247.4
828.499	3316.37
828.68	3190.24
828.862	3272.97
829.043	3222.21
829.224	3205.16
829.406	3197.02
829.587	3222.4
829.768	3260.38
829.949	3205.94
830.131	3261.35
830.312	3298.93
830.493	3286.92
830.674	3245.46
830.855	3263.28
831.036	3252.82
831.218	3348.15
831.399	3349.7
831.58	3279.95
831.761	3273.94
831.942	3259.22
832.123	3247.78
832.304	3197.02
832.485	3238.68
832.666	3248.95
832.847	3279.37
833.028	3213.88
833.209	3243.52
833.389	3237.13
833.57	3154.01
833.751	3146.26
833.932	3256.12
834.113	3241.58
834.294	3225.31
834.475	3259.6
834.655	3339.04
834.836	3359.58
835.017	3340.59
835.198	3322.38
835.378	3344.46
835.559	3431.26
835.74	3361.71
835.92	3369.85
836.101	3350.28
836.281	3409.76
836.462	3404.53
836.643	3423.9
836.823	3434.17
837.004	3460.33
837.184	3440.56
837.365	3451.41
837.545	3466.72
837.726	3456.45
837.906	3501.79
838.087	3432.04
838.267	3426.61
838.448	3399.88
838.628	3373.33
838.808	3372.17
838.989	3446.76
839.169	3367.33
839.349	3441.34
839.53	3497.52
839.71	3495.01
839.89	3433.39
840.07	3467.3
840.251	3464.98
840.431	3499.27
840.611	3417.7
840.791	3439.79
840.971	3430.49
841.151	3439.4
841.332	3394.65
841.512	3431.46
841.692	3359.19
841.872	3411.89
842.052	3419.44
842.232	3406.46
842.412	3374.3
842.592	3379.92
842.772	3405.5
842.952	3452.96
843.132	3348.53
843.312	3380.7
843.492	3358.8
843.672	3386.9
843.851	3315.6
844.031	3366.94
844.211	3353.57
844.391	3334.78
844.571	3344.85
844.751	3324.31
844.93	3312.88
845.11	3341.36
845.29	3333.03
845.47	3365.97
845.649	3307.27
845.829	3360.55
846.009	3331.68
846.188	3339.43
846.368	3302.23
846.547	3286.34
846.727	3350.86
846.907	3282.08
847.086	3306.88
847.266	3302.23
847.445	3267.74
847.625	3290.6
847.804	3254.57
847.984	3299.52
848.163	3234.03
848.343	3206.71
848.522	3234.8
848.701	3202.45
848.881	3196.25
849.06	3248.37
849.239	3216.4
849.419	3195.67
849.598	3054.23
849.777	3021.29
849.957	2997.08
850.136	2980.61
850.315	2976.54
850.494	2917.45
850.674	2960.26
850.853	3022.84
851.032	2970.92
851.211	3014.9
851.39	2996.11
851.569	2964.72
851.748	2901.17
851.927	3032.14
852.107	3006.57
852.286	2970.34
852.465	2960.85
852.644	3053.26
852.823	2994.17
853.002	3006.57
853.181	2972.47
853.359	3013.35
853.538	2926.75
853.717	2889.74
853.896	2804.49
854.075	2650.85
854.254	2622.76
854.433	2513.48
854.611	2563.86
854.79	2536.73
854.969	2598.93
855.148	2630.7
855.327	2575.68
855.505	2700.84
855.684	2685.14
855.863	2721.37
856.041	2715.56
856.22	2791.7
856.399	2754.31
856.577	2892.45
856.756	2890.13
856.934	2972.47
857.113	2923.06
857.291	2859.13
857.47	2853.9
857.648	2910.66
857.827	2852.73
858.005	2919.77
858.184	2796.16
858.362	2952.32
858.541	2837.04
858.719	2853.12
858.898	2801.78
859.076	2863
859.254	2873.08
859.433	2836.46
859.611	2782.02
859.789	2764.39
859.967	2777.56
860.146	2820.18
860.324	2767.1
860.502	2783.18
860.68	2691.92
860.859	2753.15
861.037	2764.77
861.215	2750.05
861.393	2743.07
861.571	2779.11
861.749	2701.81
861.927	2764.77
862.105	2723.12
862.283	2720.6
862.461	2701.42
862.639	2668.29
862.817	2690.57
862.995	2710.14
863.173	2712.27
863.351	2704.52
863.529	2717.11
863.707	2747.53
863.885	2728.35
864.063	2628.96
864.241	2666.74
864.418	2700.64
864.596	2617.53
864.774	2614.04
864.952	2625.08
865.129	2618.3
865.307	2548.16
865.485	2535.76
865.663	2578.19
865.84	2489.26
866.018	2449.93
866.196	2322.06
866.373	2316.25
866.551	2240.3
866.728	2229.45
866.906	2277.5
867.084	2312.76
867.261	2322.64
867.439	2362.55
867.616	2388.13
867.794	2381.35
867.971	2415.83
868.149	2437.92
868.326	2510.77
868.503	2481.32
868.681	2418.74
868.858	2440.44
869.035	2409.83
869.213	2435.02
869.39	2409.63
869.567	2508.06
869.745	2422.62
869.922	2444.51
870.099	2442.77
870.276	2420.48
870.454	2442.38
870.631	2401.3
870.808	2430.37
870.985	2459.43
871.162	2492.95
871.339	2436.76
871.517	2393.75
871.694	2394.91
871.871	2380.96
872.048	2397.23
872.225	2354.8
872.402	2335.82
872.579	2340.66
872.756	2393.75
872.933	2327.87
873.11	2314.5
873.287	2332.14
873.463	2321.67
873.64	2293.58
873.817	2319.54
873.994	2326.32
874.171	2254.64
874.348	2302.69
874.524	2220.34
874.701	2293.77
874.878	2193.61
875.055	2267.81
875.231	2258.12
875.408	2268.59
875.585	2172.68
875.762	2242.43
875.938	2197.87
876.115	2224.02
876.291	2195.74
876.468	2185.47
876.645	2166.68
876.821	2178.69
876.998	2192.64
877.174	2183.53
877.351	2173.46
877.527	2140.13
877.704	2186.44
877.88	2163.77
878.057	2155.44
878.233	2186.82
878.409	2130.25
878.586	2146.33
878.762	2123.28
878.938	2126.76
879.115	2068.83
879.291	2106.61
879.467	2039.19
879.644	2096.15
879.82	2140.33
879.996	2088.01
880.172	2056.24
880.349	2078.13
880.525	2099.44
880.701	2025.43
880.877	2008.58
881.053	2058.56
881.229	1990.75
881.405	2067.48
881.581	2031.44
881.757	2027.37
881.933	2069.03
882.109	2087.82
882.285	2036.48
882.461	1994.24
882.637	2060.7
882.813	2020.01
882.989	2025.82
883.165	2087.82
883.341	2032.41
883.517	2083.75
883.693	2066.51
883.869	2082.01
884.044	2020.78
884.22	2072.9
884.396	2068.25
884.572	2056.24
884.747	2053.53
884.923	2073.68
885.099	2066.31
885.275	2097.12
885.45	2019.62
885.626	2044.61
885.801	1983.97
885.977	2039.19
886.153	1964.02
886.328	2021.17
886.504	1986.68
886.679	1979.13
886.855	1987.27
887.03	2013.81
887.206	1987.85
887.381	1974.09
887.557	2023.11
887.732	2019.62
887.908	1996.57
888.083	2034.15
888.258	2010.51
888.434	1988.43
888.609	2005.28
888.784	2092.08
888.96	2014.2
889.135	2035.7
889.31	2008.19
889.485	2005.28
889.661	2006.06
889.836	2041.13
890.011	2051.4
890.186	2007.22
890.361	1997.34
890.537	2016.91
890.712	2036.48
890.887	2029.7
891.062	2016.71
891.237	2063.02
891.412	1952.58
891.587	2007.61
891.762	2002.96
891.937	2044.61
892.112	1917.9
892.287	1961.88
892.462	1913.25
892.637	1871.02
892.812	1834.59
892.987	1843.12
893.161	1862.49
893.336	1818.9
893.511	1854.35
893.686	1881.29
893.861	1797.97
894.035	1811.15
894.21	1807.66
894.385	1732.49
894.56	1750.12
894.734	1693.16
894.909	1643.95
895.084	1648.21
895.258	1603.45
895.433	1599.38
895.608	1547.27
895.782	1507.16
895.957	1518.4
896.131	1492.63
896.306	1442.64
896.48	1412.03
896.655	1390.14
896.829	1340.34
897.004	1301.59
897.178	1305.28
897.353	1333.37
897.527	1333.17
897.701	1288.81
897.876	1309.93
898.05	1382.58
898.224	1365.14
898.399	1355.65
898.573	1283.19
898.747	1184.38
898.921	1170.23
899.096	1059.6
899.27	1047.01
899.444	1067.74
899.618	1151.44
899.792	1171.01
899.967	1178.76
900.141	1228.16
900.315	1124.32
900.489	1119.28
900.663	1145.82
900.837	1140.01
901.011	1054.76
901.185	1144.66
901.359	1111.53
901.533	1149.11
901.707	1152.21
901.881	1140.59
902.055	1120.25
902.229	1142.33
902.403	1202.59
902.576	1138.65
902.75	1144.46
902.924	1270.59
903.098	1302.18
903.272	1305.66
903.446	1414.35
903.619	1424.82
903.793	1432.37
903.967	1446.52
904.14	1508.32
904.314	1473.45
904.488	1436.64
904.661	1468.41
904.835	1479.26
905.009	1509.29
905.182	1519.17
905.356	1489.72
905.529	1452.14
905.703	1443.42
905.876	1400.6
906.05	1357.2
906.223	1357.78
906.397	1227.39
906.57	1210.73
906.744	1142.53
906.917	1141.56
907.09	1140.4
907.264	1095.83
907.437	1084.79
907.61	1061.35
907.784	1085.37
907.957	1065.8
908.13	1026.86
908.304	1085.95
908.477	994.7
908.65	1018.34
908.823	987.14
908.996	1040.04
909.17	967.57
909.343	984.82
909.516	933.67
909.689	991.6
909.862	951.69
910.035	953.24
910.208	950.91
910.381	943.16
910.554	1060.77
910.727	989.08
910.9	994.5
911.073	1008.45
911.246	1035.97
911.419	1076.07
911.592	1051.66
911.765	973
911.938	993.15
912.11	990.63
912.283	965.83
912.456	1048.56
912.629	1029.57
912.802	954.01
912.974	881.55
913.147	811.41
913.32	771.7
913.493	812.58
913.665	820.52
913.838	862.37
914.01	874.96
914.183	908.67
914.356	931.73
914.528	915.07
914.701	993.34
914.873	872.25
915.046	836.6
915.218	776.35
915.391	712.41
915.563	731.4
915.736	818.39
915.908	849.19
916.081	877.87
916.253	870.7
916.425	852.68
916.598	923.59
916.77	862.18
916.942	828.46
917.115	739.15
917.287	813.35
917.459	737.21
917.632	725.78
917.804	712.6
917.976	799.21
918.148	820.71
918.32	822.46
918.493	873.99
918.665	915.46
918.837	881.36
919.009	960.6
919.181	943.74
919.353	934.06
919.525	934.06
919.697	924.56
919.869	954.79
920.041	997.41
920.213	1064.06
920.385	1002.45
920.557	967.96
920.729	983.65
920.901	959.82
921.073	930.76
921.244	917.78
921.416	977.07
921.588	908.29
921.76	932.7
921.932	969.12
922.103	919.72
922.275	957.89
922.447	959.63
922.619	865.66
922.79	891.04
922.962	889.69
923.134	914.49
923.305	842.61
923.477	802.31
923.648	822.07
923.82	825.17
923.991	777.7
924.163	762.59
924.335	803.66
924.506	785.26
924.677	839.7
924.849	779.64
925.02	816.06
925.192	857.72
925.363	802.5
925.535	795.33
925.706	763.56
925.877	826.72
926.049	776.15
926.22	781
926.391	804.63
926.562	839.51
926.734	790.29
926.905	811.8
927.076	735.46
927.247	745.35
927.419	671.72
927.59	654.09
927.761	651.18
927.932	615.53
928.103	620.57
928.274	543.07
928.445	521.57
928.616	556.05
928.787	527.57
928.958	589.96
929.129	539.39
929.3	497.35
929.471	457.24
929.642	399.7
929.813	369.86
929.984	421.59
930.155	345.65
930.326	386.14
930.496	346.81
930.667	296.24
930.838	345.45
931.009	291.01
931.18	273.38
931.35	262.33
931.521	262.33
931.692	236.37
931.863	187.35
932.033	228.62
932.204	214.09
932.374	204.02
932.545	150.74
932.716	214.48
932.886	209.63
933.057	113.92
933.227	121.48
933.398	185.8
933.568	105.4
933.739	64.32
933.909	91.64
934.08	135.62
934.25	49.6
934.421	57.93
934.591	112.37
934.761	122.84
934.932	81.76
935.102	97.84
935.272	96.49
935.443	109.85
935.613	80.79
935.783	128.65
935.953	78.86
936.123	230.56
936.294	71.69
936.464	87.96
936.634	76.53
936.804	48.82
936.974	43.01
937.144	100.94
937.314	88.74
937.484	62.97
937.655	65.1
937.825	115.09
937.995	54.64
938.165	157.71
938.334	112.76
938.504	138.72
938.674	133.49
938.844	152.09
939.014	234.43
939.184	224.94
939.354	259.62
939.524	242.18
939.694	207.31
939.863	188.9
940.033	243.35
940.203	262.14
940.373	192.39
940.542	237.15
940.712	185.61
940.882	201.11
941.051	234.05
941.221	218.74
941.391	231.14
941.56	201.88
941.73	174.95
941.899	283.26
942.069	180.96
942.238	170.89
942.408	169.53
942.577	198.59
942.747	154.22
942.916	122.84
943.086	140.85
943.255	192.97
943.425	169.53
943.594	135.04
943.763	71.69
943.933	98.62
944.102	69.36
944.271	115.47
944.441	166.43
944.61	121.48
944.779	175.92
944.948	230.37
945.117	93.19
945.287	144.54
945.456	77.11
945.625	100.55
945.794	117.41
945.963	88.15
946.132	133.88
946.301	106.75
946.47	151.12
946.639	76.92
946.808	141.82
946.977	148.41
947.146	185.03
947.315	127.1
947.484	186
947.653	147.64
947.822	129.62
947.991	128.26
948.16	182.9
948.329	181.15
948.498	159.65
948.666	171.27
948.835	186.38
949.004	109.27
949.173	104.04
949.341	132.52
949.51	135.24
949.679	170.69
949.847	133.69
950.016	210.99
950.185	216.42
950.353	143.37
950.522	164.88
950.69	199.56
950.859	149.96
951.028	187.93
951.196	167.4
951.365	133.88
951.533	115.28
951.701	148.8
951.87	165.85
952.038	102.3
952.207	149.19
952.375	180.96
952.543	107.53
952.712	146.86
952.88	124.19
953.048	210.41
953.217	166.62
953.385	158.49
953.553	196.46
953.721	126.13
953.89	132.52
954.058	99.2
954.226	106.17
954.394	148.99
954.562	84.09
954.73	150.93
954.898	126.32
955.067	172.24
955.235	125.74
955.403	161.2
955.571	203.24
955.739	179.99
955.907	105.79
956.075	140.27
956.243	100.17
956.41	146.47
956.578	98.62
956.746	104.82
956.914	146.09
957.082	181.15
957.25	184.45
957.418	148.22
957.585	159.65
957.753	212.73
957.921	127.68
958.089	170.69
958.256	177.86
958.424	163.33
958.592	172.24
958.759	135.82
958.927	145.7
959.095	105.4
959.262	151.9
959.43	146.09
959.597	122.84
959.765	173.79
959.932	131.75
960.1	199.56
960.267	148.99
960.435	175.92
960.602	184.06
960.77	159.65
960.937	112.18
961.104	181.15
961.272	119.15
961.439	121.29
961.606	198.01
961.774	160.62
961.941	151.51
962.108	167.4
962.275	194.91
962.443	208.28
962.61	212.15
962.777	250.13
962.944	180.77
963.111	205.76
963.278	204.21
963.446	174.57
963.613	172.82
963.78	196.85
963.947	194.13
964.114	209.25
964.281	258.07
964.448	204.4
964.615	129.23
964.782	197.82
964.949	213.7
965.116	221.84
965.282	216.03
965.449	176.31
965.616	180.18
965.783	215.45
965.95	189.29
966.117	152.87
966.283	167.59
966.45	209.83
966.617	205.76
966.784	228.04
966.95	238.89
967.117	246.45
967.284	183.67
967.45	202.27
967.617	259.04
967.784	266.98
967.95	249.55
968.117	223.78
968.283	242.38
968.45	317.55
968.616	249.93
968.783	268.92
968.949	258.07
969.116	260.2
969.282	261.37
969.449	265.24
969.615	247.03
969.781	205.95
969.948	236.57
970.114	234.05
970.28	281.51
970.447	243.73
970.613	301.86
970.779	248
970.945	283.45
971.112	269.11
971.278	252.45
971.444	253.42
971.61	270.08
971.776	271.25
971.942	265.63
972.108	268.73
972.275	250.9
972.441	251.29
972.607	306.7
972.773	205.95
972.939	236.18
973.105	250.9
973.271	221.65
973.437	206.53
973.602	165.07
973.768	237.73
973.934	191.42
974.1	231.92
974.266	174.76
974.432	226.88
974.598	226.1
974.763	229.98
974.929	195.1
975.095	260.59
975.261	176.12
975.426	170.69
975.592	193.17
975.758	249.74
975.923	140.47
976.089	176.31
976.255	212.73
976.42	215.06
976.586	215.45
976.751	215.83
976.917	268.73
977.082	228.04
977.248	162.17
977.413	143.57
977.579	157.32
977.744	212.93
977.91	173.4
978.075	185.42
978.24	235.6
978.406	190.45
978.571	179.02
978.736	183.28
978.902	227.85
979.067	183.28
979.232	155
979.397	211.96
979.563	247.61
979.728	161.39
979.893	195.1
980.058	178.83
980.223	213.9
980.388	207.31
980.554	204.02
980.719	180.38
980.884	198.59
981.049	222.42
981.214	181.93
981.379	237.53
981.544	181.73
981.709	185.42
981.874	207.5
982.039	177.08
982.204	238.12
982.368	178.25
982.533	176.12
982.698	232.5
982.863	253.81
983.028	222.81
983.193	214.67
983.357	205.57
983.522	233.08
983.687	176.89
983.852	189.29
984.016	194.72
984.181	205.76
984.346	204.79
984.51	230.75
984.675	197.82
984.839	216.61
985.004	225.33
985.168	209.25
985.333	229.78
985.498	199.75
985.662	220.48
985.827	228.23
985.991	218.74
986.155	210.99
986.32	226.88
986.484	262.72
986.649	216.03
986.813	159.26
986.977	240.44
987.142	239.67
987.306	174.57
987.47	175.53
987.634	207.31
987.799	186.97
987.963	198.4
988.127	196.46
988.291	246.64
988.455	220.68
988.62	203.43
988.784	237.34
988.948	220.1
989.112	152.29
989.276	182.51
989.44	201.11
989.604	149.57
989.768	184.25
989.932	284.23
990.096	183.09
990.26	165.07
990.424	143.57
990.588	181.54
990.752	225.52
990.915	234.24
991.079	193.94
991.243	166.82
991.407	219.32
991.571	165.85
991.734	211.96
991.898	194.52
992.062	242.77
992.226	188.32
992.389	144.92
992.553	147.05
992.717	143.37
992.88	193.17
993.044	167.4
993.207	164.3
993.371	198.98
993.535	200.92
993.698	185.8
993.862	226.1
994.025	202.27
994.189	189.48
994.352	188.71
994.515	169.72
994.679	199.56
994.842	142.4
995.006	221.07
995.169	138.53
995.332	155.19
995.496	217.38
995.659	110.63
995.822	160.04
995.985	181.35
996.149	208.47
996.312	168.56
996.475	211.38
996.638	145.5
996.801	227.07
996.964	215.83
997.128	144.73
997.291	130
997.454	170.5
997.617	108.69
997.78	191.23
997.943	131.94
998.106	180.96
998.269	127.49
998.432	141.24
998.595	152.87
998.758	105.98
998.92	93.39
999.083	121.48
999.246	136.79
999.409	110.63
999.572	85.64
999.735	129.23
999.897	161.2
1000.06	140.85
1000.223	125.35
1000.386	177.08
1000.548	168.75
1000.711	173.6
1000.874	139.69
1001.036	85.25
1001.199	149.57
1001.361	86.8
1001.524	125.35
1001.687	134.27
1001.849	119.54
1002.012	161.59
1002.174	143.95
1002.337	165.27
1002.499	110.24
1002.661	180.57
1002.824	100.94
1002.986	109.08
1003.149	123.03
1003.311	98.62
1003.473	182.32
1003.636	104.82
1003.798	143.37
1003.96	134.85
1004.123	115.09
1004.285	124.19
1004.447	116.05
1004.609	116.83
1004.771	163.91
1004.933	80.02
1005.096	79.63
1005.258	58.71
1005.42	90.09
1005.582	161
1005.744	117.02
1005.906	78.27
1006.068	118.38
1006.23	83.89
1006.392	49.6
1006.554	61.22
1006.716	132.72
1006.878	137.95
1007.04	70.91
1007.202	76.34
1007.363	116.44
1007.525	127.68
1007.687	106.75
1007.849	133.88
1008.011	85.83
1008.172	76.53
1008.334	103.27
1008.496	123.61
1008.658	56.19
1008.819	76.53
1008.981	57.74
1009.143	84.09
1009.304	117.99
1009.466	101.72
1009.627	115.09
1009.789	179.99
1009.95	92.22
1010.112	102.88
1010.273	107.34
1010.435	71.3
1010.596	81.76
1010.758	68.39
1010.919	99.78
1011.081	79.24
1011.242	100.94
1011.403	108.89
1011.565	75.95
1011.726	100.36
1011.887	45.34
1012.049	91.64
1012.21	113.34
1012.371	133.69
1012.532	43.01
1012.693	122.45
1012.855	77.11
1013.016	117.6
1013.177	89.12
1013.338	96.87
1013.499	114.12
1013.66	109.47
1013.821	109.08
1013.982	88.74
1014.143	105.98
1014.304	61.42
1014.465	90.09
1014.626	99.78
1014.787	38.75
1014.948	152.87
1015.109	40.11
1015.27	96.29
1015.431	55.8
1015.592	69.17
1015.752	104.82
1015.913	97.26
1016.074	80.02
1016.235	81.18
1016.395	89.9
1016.556	78.47
1016.717	65.49
1016.877	111.6
1017.038	59.67
1017.199	85.83
1017.359	77.69
1017.52	74.98
1017.681	64.32
1017.841	66.65
1018.002	69.17
1018.162	63.16
1018.323	121.48
1018.483	56.19
1018.644	65.1
1018.804	51.73
1018.964	31.97
1019.125	52.31
1019.285	46.89
1019.446	32.16
1019.606	39.91
1019.766	27.12
1019.926	91.45
1020.087	71.69
1020.247	49.02
1020.407	64.32
1020.567	71.88
1020.728	56.38
1020.888	30.03
1021.048	49.02
1021.208	47.47
1021.368	41.27
1021.528	100.75
1021.688	91.45
1021.848	83.89
1022.008	83.12
1022.168	48.44
1022.328	70.52
1022.488	78.47
1022.648	42.24
1022.808	62.97
1022.968	58.32
1023.128	27.12
1023.288	32.55
1023.448	74.79
1023.608	65.1
1023.767	83.89
1023.927	62.39
1024.087	6.78
1024.247	26.35
1024.406	24.99
1024.566	14.34
1024.726	25.57
1024.885	51.15
1025.045	64.52
1025.205	44.37
1025.364	32.16
1025.524	43.98
1025.683	43.01
1025.843	80.02
1026.003	45.72
1026.162	91.84
1026.321	73.43
1026.481	23.64
1026.64	25.57
1026.8	61.42
1026.959	46.31
1027.119	40.69
1027.278	50.96
1027.437	15.89
1027.597	55.61
1027.756	56.38
1027.915	48.63
1028.074	61.81
1028.234	26.74
1028.393	77.31
1028.552	53.67
1028.711	-19.57
1028.87	101.91
1029.03	20.92
1029.189	21.51
1029.348	6.78
1029.507	23.06
1029.666	37.2
1029.825	-12.79
1029.984	36.81
1030.143	47.27
1030.302	9.69
1030.461	-6.39
1030.62	45.72
1030.779	62.77
1030.938	23.44
1031.097	-14.14
1031.255	74.79
1031.414	71.49
1031.573	94.94
1031.732	1.74
1031.891	20.15
1032.049	62.77
1032.208	54.06
1032.367	20.73
1032.525	34.29
1032.684	24.41
1032.843	37.78
1033.001	5.23
1033.16	161
1033.319	61.42
1033.477	52.89
1033.636	30.22
1033.794	-8.52
1033.953	50.18
1034.111	55.02
1034.27	46.5
1034.428	39.14
1034.587	-16.86
1034.745	25.96
1034.903	38.75
1035.062	55.99
1035.22	-14.53
1035.378	52.12
1035.537	6.2
1035.695	65.49
1035.853	21.89
1036.011	51.34
1036.17	47.08
1036.328	-31.39
1036.486	48.05
1036.644	49.02
1036.802	-38.36
1036.96	21.7
1037.119	28.87
1037.277	3.29
1037.435	-14.72
1037.593	-10.46
1037.751	30.22
1037.909	38.94
1038.067	38.94
