Data from calibration4_FLMT105791__9__17-36-43-048.txt Node

Date: Mon Mar 20 17:36:43 GMT 2023
User: antho
Spectrometer: FLMT10579
Trigger mode: 0
Integration Time (sec): 1.000000E-1
Scans to average: 10
Electric dark correction enabled: true
Nonlinearity correction enabled: false
Boxcar width: 0
XAxis mode: Wavelengths
Number of Pixels in Spectrum: 3648
>>>>>Begin Spectral Data<<<<<
345.248	-155.64
345.464	-155.64
345.681	-155.64
345.898	-134.91
346.114	-152.93
346.331	-14.6
346.548	45.47
346.764	-1.42
346.981	-4.71
347.197	-25.83
347.414	6.72
347.631	-16.73
347.847	50.7
348.064	-4.13
348.28	14.27
348.497	-42.3
348.713	-7.43
348.93	9.82
349.146	94.1
349.363	96.81
349.579	125.48
349.796	93.52
350.012	91
350.229	161.71
350.445	110.57
350.661	84.02
350.878	117.73
351.094	120.25
351.311	125.1
351.527	117.15
351.743	116.18
351.96	146.6
352.176	144.66
352.392	130.71
352.609	157.26
352.825	107.85
353.041	134.59
353.257	115.22
353.474	136.72
353.69	153.77
353.906	159.39
354.122	103.98
354.339	168.5
354.555	171.21
354.771	143.89
354.987	195.62
355.203	221
355.42	139.24
355.636	126.65
355.852	148.54
356.068	147.38
356.284	132.46
356.5	211.51
356.716	170.82
356.932	122.19
357.148	167.33
357.364	161.52
357.58	162.1
357.796	198.53
358.012	203.76
358.228	187.87
358.444	81.31
358.66	202.01
358.876	168.11
359.092	149.31
359.308	186.71
359.524	180.31
359.74	198.14
359.956	181.28
360.172	198.53
360.388	236.5
360.604	189.61
360.819	265.95
361.035	210.93
361.251	212.28
361.467	171.6
361.683	222.36
361.898	196.59
362.114	226.04
362.33	219.84
362.546	261.88
362.762	237.28
362.977	255.29
363.193	229.33
363.409	266.14
363.624	222.16
363.84	216.54
364.056	231.27
364.271	271.18
364.487	253.16
364.703	270.99
364.918	244.64
365.134	258.59
365.35	280.09
365.565	358.95
365.781	301.6
365.996	339.38
366.212	407.58
366.427	345.19
366.643	333.18
366.858	358.37
367.074	311.48
367.289	409.13
367.505	421.72
367.72	328.92
367.936	348.49
368.151	385.49
368.367	328.14
368.582	382.2
368.798	310.12
369.013	401.38
369.228	330.08
369.444	375.42
369.659	387.43
369.874	387.62
370.09	426.57
370.305	346.16
370.52	394.6
370.736	441.49
370.951	399.05
371.166	464.93
371.381	427.54
371.597	407.39
371.812	391.11
372.027	381.04
372.242	389.75
372.458	444.59
372.673	345.97
372.888	349.84
373.103	372.9
373.318	432.96
373.533	363.41
373.749	341.51
373.964	290.94
374.179	343.26
374.394	334.54
374.609	387.04
374.824	346.94
375.039	357.59
375.254	323.3
375.469	418.43
375.684	399.44
375.899	466.09
376.114	419.4
376.329	453.3
376.544	428.12
376.759	458.54
376.974	409.9
377.189	462.02
377.404	464.15
377.619	519.76
377.834	456.6
378.049	487.02
378.264	517.43
378.478	569.75
378.693	547.47
378.908	573.23
379.123	540.3
379.338	544.95
379.553	517.24
379.767	502.52
379.982	485.85
380.197	503.29
380.412	505.81
380.626	536.23
380.841	621.09
381.056	599.97
381.271	630.58
381.485	551.53
381.7	526.35
381.915	533.13
382.129	458.73
382.344	487.79
382.559	465.51
382.773	489.53
382.988	420.95
383.202	415.14
383.417	378.71
383.632	466.28
383.846	437.61
384.061	437.8
384.275	425.4
384.49	491.67
384.704	525.77
384.919	590.28
385.133	597.06
385.348	672.04
385.562	575.17
385.777	632.91
385.991	618.38
386.206	585.44
386.42	578.66
386.634	657.13
386.849	621.86
387.063	685.03
387.277	615.66
387.492	630
387.706	614.89
387.92	634.46
388.135	688.71
388.349	706.92
388.563	647.63
388.778	660.61
388.992	675.73
389.206	744.7
389.42	774.34
389.635	775.31
389.849	820.84
390.063	902.02
390.277	895.24
390.491	933.41
390.706	908.61
390.92	874.51
391.134	925.85
391.348	959.18
391.562	938.64
391.776	1012.46
391.99	1003.74
392.205	992.89
392.419	896.79
392.633	915.97
392.847	856.69
393.061	736.95
393.275	725.91
393.489	577.69
393.703	539.33
393.917	554.44
394.131	550.18
394.345	672.04
394.559	810.19
394.773	840.41
394.986	993.08
395.2	1026.02
395.414	1122.7
395.628	1071.75
395.842	1153.12
396.056	1117.86
396.27	1029.51
396.484	1010.91
396.697	890.59
396.911	772.79
397.125	707.5
397.339	684.64
397.553	727.26
397.766	896.6
397.98	1037.65
398.194	1218.41
398.408	1264.52
398.621	1392.98
398.835	1460.6
399.049	1461.56
399.262	1604.74
399.476	1603.19
399.69	1640.2
399.903	1653.57
400.117	1639.42
400.331	1683.79
400.544	1693.48
400.758	1809.53
400.971	1753.54
401.185	1767.88
401.398	1698.32
401.612	1855.26
401.826	1878.31
402.039	1859.91
402.253	1889.36
402.466	1926.75
402.68	1898.85
402.893	2005.99
403.106	1941.28
403.32	1881.03
403.533	1928.69
403.747	1862.62
403.96	1952.13
404.174	1975.19
404.387	1956.59
404.6	1982.55
404.814	2007.54
405.027	1942.45
405.24	1907.38
405.454	1948.06
405.667	2025.18
405.88	2002.7
406.094	1995.34
406.307	2047.84
406.52	1955.43
406.733	1922.1
406.947	1958.53
407.16	2025.56
407.373	2071.48
407.586	2077.87
407.799	2057.53
408.012	2113.14
408.226	2093.18
408.439	2228.22
408.652	2222.22
408.865	2307.66
409.078	2398.91
409.291	2349.31
409.504	2372.95
409.717	2400.08
409.93	2337.88
410.143	2171.45
410.357	2053.66
410.57	2024.79
410.783	2090.66
410.996	2126.12
411.209	2258.45
411.421	2478.93
411.634	2510.12
411.847	2494.82
412.06	2529.5
412.273	2602.93
412.486	2592.27
412.699	2578.32
412.912	2571.74
413.125	2619.4
413.338	2572.51
413.55	2550.04
413.763	2533.76
413.976	2567.28
414.189	2548.87
414.402	2617.27
414.615	2725.18
414.827	2588.59
415.04	2648.65
415.253	2660.28
415.466	2725.96
415.678	2763.35
415.891	2663.77
416.104	2662.99
416.316	2687.02
416.529	2816.83
416.742	2883.67
416.954	2870.49
417.167	2851.12
417.38	2788.15
417.592	2790.67
417.805	2688.95
418.017	2688.18
418.23	2732.35
418.442	2726.93
418.655	2744.95
418.868	2724.22
419.08	2815.86
419.293	2821.28
419.505	2916.61
419.718	2834.65
419.93	2929.39
420.142	2854.61
420.355	2829.23
420.567	2809.08
420.78	2931.72
420.992	2929.97
421.205	3067.15
421.417	3080.52
421.629	3154.53
421.842	3178.16
422.054	3141.35
422.266	3140
422.479	3132.05
422.691	2980.35
422.903	2998.76
423.115	2888.9
423.328	2909.24
423.54	2952.45
423.752	2972.41
423.964	3115.2
424.177	3139.8
424.389	3118.1
424.601	3258.96
424.813	3184.56
425.025	3196.96
425.238	3225.44
425.45	3192.31
425.662	3171.77
425.874	3417.83
426.086	3200.83
426.298	3280.46
426.51	3216.53
426.722	3229.9
426.934	3321.93
427.146	3281.82
427.358	3241.33
427.57	3186.3
427.782	3133.6
427.994	3168.09
428.206	3136.32
428.418	3405.62
428.63	3445.92
428.842	3427.71
429.054	3310.49
429.266	3279.49
429.478	3213.04
429.69	3182.81
429.902	3116.17
430.114	3096.98
430.325	2871.85
430.537	2747.27
430.749	2650.98
430.961	2546.16
431.173	2607.77
431.384	2714.14
431.596	2814.5
431.808	3211.88
432.02	3562.17
432.231	3835.16
432.443	4031.04
432.655	3865.39
432.867	3790.6
433.078	3791.76
433.29	3887.09
433.502	4014.96
433.713	4086.45
433.925	4134.89
434.136	3944.82
434.348	3675.71
434.56	3619.13
434.771	3866.74
434.983	3743.52
435.194	4040.92
435.406	4170.34
435.617	4226.34
435.829	4354.02
436.04	4353.63
436.252	4313.91
436.463	4522.96
436.675	4678.16
436.886	4727.95
437.098	4742.29
437.309	4755.65
437.521	4621.39
437.732	4522.77
437.943	4502.81
438.155	4451.28
438.366	4368.16
438.578	4436.75
438.789	4248.23
439	4187.39
439.211	4251.72
439.423	4353.44
439.634	4511.34
439.845	4623.52
440.057	4688.23
440.268	4885.66
440.479	4791.89
440.69	4825.21
440.902	4713.22
441.113	4688.04
441.324	4847.88
441.535	5003.26
441.746	5160.78
441.957	5127.46
442.168	5233.63
442.38	5265.6
442.591	5313.26
442.802	5169.31
443.013	5393.66
443.224	5446.17
443.435	5371.19
443.646	5331.08
443.857	5282.65
444.068	5331.47
444.279	5281.29
444.49	5614.34
444.701	5485.11
444.912	5732.33
445.123	5678.67
445.334	5511.66
445.545	5576.95
445.756	5417.3
445.967	5353.17
446.178	5256.3
446.388	5244.87
446.599	5360.15
446.81	5428.73
447.021	5408.2
447.232	5537.62
447.443	5714.9
447.653	5814.29
447.864	5968.32
448.075	5936.54
448.286	5905.35
448.496	5828.43
448.707	5957.28
448.918	5809.64
449.129	5934.99
449.339	5903.41
449.55	6005.52
449.761	5959.41
449.971	5924.34
450.182	6079.92
450.393	6187.06
450.603	6145.02
450.814	6452.88
451.024	6383.71
451.235	6559.25
451.446	6569.32
451.656	6549.75
451.867	6446.49
452.077	6278.12
452.288	6411.61
452.498	6295.95
452.709	6244.21
452.919	6104.33
453.13	6026.44
453.34	5918.14
453.55	5757.52
453.761	6053.96
453.971	5999.71
454.182	6214.57
454.392	6244.6
454.602	6476.32
454.813	6525.54
455.023	6316.48
455.233	6232.4
455.444	6338.18
455.654	6096.77
455.864	6348.06
456.075	6483.11
456.285	6427.69
456.495	6502.29
456.705	6519.14
456.916	6750.86
457.126	6822.16
457.336	6705.91
457.546	6627.45
457.756	6704.36
457.967	6810.15
458.177	6654.96
458.387	6690.61
458.597	6515.65
458.807	6686.15
459.017	6548.79
459.227	6607.68
459.437	6566.03
459.647	6759.78
459.857	6744.66
460.068	6848.51
460.278	6857.62
460.488	6871.37
460.698	6926.98
460.908	6938.6
461.117	7134.29
461.327	7140.88
461.537	7207.53
461.747	7260.42
461.957	7228.84
462.167	7394.1
462.377	7312.54
462.587	7300.14
462.797	7453.59
463.007	7366.59
463.216	7536.9
463.426	7756.41
463.636	7507.83
463.846	7335.98
464.056	7327.65
464.265	7311.57
464.475	7348.77
464.685	7567.9
464.895	7496.02
465.104	7305.17
465.314	7569.64
465.524	7452.81
465.733	7480.52
465.943	7705.07
466.153	7762.42
466.362	7888.16
466.572	7899.59
466.782	7652.95
466.991	7850.96
467.201	7663.22
467.41	7541.35
467.62	7805.62
467.829	7872.08
468.039	8019.13
468.249	7923.81
468.458	8214.04
468.668	8113.68
468.877	8247.37
469.086	8352.18
469.296	8464.17
469.505	8556.78
469.715	8452.35
469.924	8384.54
470.134	8514.74
470.343	8289.6
470.552	8313.24
470.762	8257.64
470.971	8348.7
471.18	8477.73
471.39	8599.99
471.599	8560.66
471.808	8731.93
472.018	8995.43
472.227	9141.51
472.436	9438.33
472.645	9353.47
472.855	9303.48
473.064	9603.21
473.273	9668.89
473.482	9315.5
473.691	9514.86
473.901	9437.75
474.11	9313.36
474.319	9597.4
474.528	9612.12
474.737	10096.1
474.946	9934.71
475.155	10027.71
475.364	10246.84
475.573	10083.7
475.783	10361.54
475.992	10213.9
476.201	10218.75
476.41	10327.63
476.619	10191.81
476.828	10209.45
477.037	10210.61
477.245	10211.38
477.454	10352.04
477.663	10718.42
477.872	11001.1
478.081	11181.67
478.29	11109.21
478.499	11293.07
478.708	11522.86
478.917	11413.39
479.125	11217.32
479.334	11282.81
479.543	11626.32
479.752	11770.47
479.961	11725.32
480.169	11932.05
480.378	12058.38
480.587	12366.63
480.796	12248.25
481.004	12252.51
481.213	12379.41
481.422	12528.21
481.63	12801.4
481.839	12800.43
482.048	13011.03
482.256	12971.31
482.465	13269.1
482.674	13087.75
482.882	13212.33
483.091	13368.11
483.299	13068.57
483.508	13487.65
483.716	13599.83
483.925	13637.8
484.134	13297.58
484.342	13558.75
484.551	13615.52
484.759	13430.69
484.967	14006.12
485.176	13851.51
485.384	13823.99
485.593	13636.06
485.801	13516.32
486.01	12995.72
486.218	12368.37
486.426	11977
486.635	11574.59
486.843	11839.83
487.051	12251.35
487.26	12460.01
487.468	12763.81
487.676	13133.29
487.885	13597.5
488.093	13983.06
488.301	14469.56
488.509	14367.65
488.717	14597.63
488.926	14622.23
489.134	14398.84
489.342	14507.34
489.55	14399.62
489.758	14760.18
489.967	15290.66
490.175	15103.5
490.383	15677.77
490.591	15994.93
490.799	15871.71
491.007	15731.05
491.215	15836.06
491.423	15678.93
491.631	15668.47
491.839	15523.93
492.047	15496.23
492.255	15128.3
492.463	15193.59
492.671	14999.46
492.879	15424.15
493.087	15645.02
493.295	15858.34
493.503	15990.86
493.711	16401.41
493.919	16369.44
494.127	16255.72
494.334	16253.78
494.542	16298.73
494.75	16740.86
494.958	16537.62
495.166	16995.05
495.374	17077.59
495.581	17103.94
495.789	17137.07
495.997	17153.93
496.205	16503.32
496.412	16886.94
496.62	17320.94
496.828	17042.14
497.035	17361.62
497.243	17306.79
497.451	17378.29
497.658	17428.47
497.866	17343.41
498.074	17511.2
498.281	17036.32
498.489	17245.18
498.696	16851.68
498.904	16869.7
499.112	16833.86
499.319	17218.06
499.527	17281.41
499.734	17587.73
499.942	17397.86
500.149	17398.44
500.357	17460.05
500.564	17084.37
500.771	17028.57
500.979	16787.75
501.186	16658.13
501.394	17100.84
501.601	16551.18
501.808	16563.77
502.016	16727.3
502.223	16569.97
502.43	16838.89
502.638	16754.61
502.845	17195.2
503.052	17301.95
503.26	17388.94
503.467	17448.23
503.674	17485.62
503.881	17324.43
504.089	17211.28
504.296	17150.83
504.503	16952.62
504.71	16938.29
504.917	17233.36
505.125	17314.16
505.332	17585.21
505.539	17609.43
505.746	18019.01
505.953	18199
506.16	18291.61
506.367	18323
506.574	18563.05
506.781	18525.66
506.988	18393.72
507.195	18250.15
507.402	18340.44
507.609	18322.03
507.816	17903.54
508.023	17981.03
508.23	17789.61
508.437	17574.36
508.644	17767.33
508.851	17971.73
509.058	18335.01
509.265	18420.65
509.472	18498.34
509.679	18796.32
509.885	18554.33
510.092	18537.28
510.299	18525.85
510.506	18248.02
510.713	18391.97
510.92	18343.92
511.126	18567.89
511.333	18605.68
511.54	18838.75
511.746	18924
511.953	19061.37
512.16	19317.5
512.367	19129.76
512.573	18910.83
512.78	18762.22
512.987	18722.89
513.193	18452.03
513.4	18362.33
513.606	18582.04
513.813	18514.61
514.02	18321.64
514.226	18351.67
514.433	18368.92
514.639	18215.27
514.846	18325.9
515.052	18226.9
515.259	18453
515.465	18558.98
515.672	18586.88
515.878	18629.89
516.085	18809.11
516.291	18754.47
516.497	18638.61
516.704	18028.5
516.91	17570.29
517.117	16807.89
517.323	16475.23
517.529	16397.73
517.736	16390.37
517.942	16600.39
518.148	16921.82
518.354	17187.25
518.561	17109.17
518.767	16898.18
518.973	17139.4
519.179	17478.65
519.386	17726.64
519.592	17713.08
519.798	17778.96
520.004	18581.46
520.21	18562.28
520.417	18674.84
520.623	18815.12
520.829	18736.45
521.035	18899.98
521.241	18725.22
521.447	18941.63
521.653	19207.65
521.859	19006.54
522.065	19181.1
522.271	19285.92
522.477	19227.99
522.683	19309.17
522.889	18921.68
523.095	18776.17
523.301	18859.87
523.507	18773.65
523.713	18894.94
523.919	18738.2
524.125	19323.51
524.331	19503.5
524.537	19896.81
524.742	19910.95
524.948	19798
525.154	19951.83
525.36	19795.86
525.566	19570.92
525.772	19870.84
525.977	19672.64
526.183	19447.31
526.389	19489.55
526.595	18878.86
526.8	18630.86
527.006	18073.06
527.212	17682.47
527.417	17652.05
527.623	17688.09
527.829	18100.19
528.034	18436.34
528.24	18467.92
528.446	18972.63
528.651	19348.5
528.857	19450.22
529.062	19584.1
529.268	19932.07
529.473	20082.03
529.679	20199.44
529.884	20163.02
530.09	20098.69
530.295	19641.06
530.501	19881.69
530.706	19990.97
530.912	20226.95
531.117	20220.56
531.323	20207.97
531.528	20532.1
531.733	20468.17
531.939	20303.29
532.144	20238.77
532.35	20137.05
532.555	19990.19
532.76	19542.06
532.966	19413.41
533.171	19235.74
533.376	19145.84
533.581	19224.5
533.787	19408.95
533.992	19761.77
534.197	19412.05
534.402	19959.97
534.607	19883.24
534.813	19811.95
535.018	19911.14
535.223	20265.7
535.428	20131.24
535.633	20363.93
535.838	20731.86
536.043	20820.4
536.249	21037.2
536.454	20724.88
536.659	20803.93
536.864	20687.49
537.069	20241.29
537.274	20180.45
537.479	20120.59
537.684	20128.14
537.889	20096.17
538.094	20530.55
538.299	20343.2
538.504	20687.1
538.708	20424.19
538.913	20776.81
539.118	20682.06
539.323	20628.01
539.528	20352.5
539.733	20275.39
539.938	20279.65
540.142	20143.83
540.347	20068.47
540.552	19931.1
540.757	19553.29
540.962	19806.13
541.166	19611.8
541.371	19594.76
541.576	19702.28
541.781	19827.45
541.985	20353.28
542.19	19937.88
542.395	20530.17
542.599	20461.39
542.804	20156.04
543.008	20475.72
543.213	20424.77
543.418	20118.84
543.622	20460.61
543.827	20178.9
544.031	20442.79
544.236	20589.84
544.44	20873.68
544.645	20737.09
544.849	20656.3
545.054	20812.26
545.258	20902.36
545.463	20979.85
545.667	20540.82
545.872	20958.54
546.076	20739.61
546.281	20728.56
546.485	20649.13
546.689	20772.93
546.894	20789.79
547.098	20928.32
547.302	20746.19
547.507	20706.86
547.711	20779.33
547.915	20652.81
548.119	20503.62
548.324	20423.99
548.528	20513.7
548.732	20732.44
548.936	20865.54
549.141	20677.03
549.345	20868.84
549.549	20908.36
549.753	21162.17
549.957	20992.25
550.161	21064.13
550.366	21102.3
550.57	21025.97
550.774	20885.5
550.978	21025
551.182	20859.34
551.386	20779.91
551.59	20892.86
551.794	20784.94
551.998	20986.83
552.202	20993.61
552.406	20968.62
552.61	21204.02
552.814	21050.38
553.018	21043.4
553.222	20758.79
553.426	20840.16
553.63	20974.62
553.833	20944.2
554.037	20722.36
554.241	20791.14
554.445	21103.66
554.649	21020.15
554.853	20980.05
555.056	21119.74
555.26	21241.8
555.464	21025.77
555.668	21144.93
555.871	20984.7
556.075	21079.05
556.279	20956.99
556.483	20816.33
556.686	20653.58
556.89	20687.68
557.094	20631.69
557.297	20317.43
557.501	20521.06
557.704	20154.49
557.908	20481.73
558.112	20446.86
558.315	20515.83
558.519	20350.18
558.722	20088.42
558.926	20060.52
559.129	19704.8
559.333	19928.78
559.536	19876.85
559.74	19751.5
559.943	19477.93
560.147	19849.92
560.35	19712.55
560.553	20031.46
560.757	19985.54
560.96	20145
561.164	20150.62
561.367	20421.47
561.57	20289.53
561.774	20121.36
561.977	20071.95
562.18	19981.47
562.384	20187.43
562.587	19902.81
562.79	20191.88
562.993	19972.17
563.197	19951.06
563.4	20200.99
563.603	20190.72
563.806	20207.19
564.009	20158.75
564.212	20146.55
564.416	19883.44
564.619	19978.76
564.822	19767.97
565.025	20077.19
565.228	19893.32
565.431	20078.15
565.634	19809.43
565.837	19645.32
566.04	19527.14
566.243	19342.11
566.446	19221.4
566.649	19517.84
566.852	19207.65
567.055	19487.03
567.258	19423.68
567.461	19658.69
567.664	19683.1
567.867	19727.28
568.07	19486.45
568.273	19665.09
568.475	19740.26
568.678	19133.44
568.881	19246.4
569.084	18903.08
569.287	18825
569.489	19077.26
569.692	19045.29
569.895	19014.29
570.098	18921.48
570.3	18901.72
570.503	18925.36
570.706	18723.47
570.909	18665.35
571.111	18369.69
571.314	18398.37
571.516	18439.25
571.719	18477.41
571.922	18516.55
572.124	18659.92
572.327	18700.42
572.529	18751.18
572.732	18859.68
572.935	18921.68
573.137	19247.37
573.34	18884.87
573.542	19132.86
573.745	19006.34
573.947	18997.24
574.15	18818.41
574.352	18996.85
574.554	19050.91
574.757	18798.07
574.959	18550.07
575.162	18828.1
575.364	18477.8
575.566	18602.96
575.769	18418.9
575.971	18586.88
576.173	18077.13
576.376	18335.59
576.578	18550.85
576.78	18587.27
576.982	18432.27
577.185	18568.28
577.387	18484
577.589	18643.84
577.791	18540.19
577.993	18430.53
578.196	18586.3
578.398	18300.72
578.6	18234.65
578.802	18207.91
579.004	18143.98
579.206	18317.96
579.408	18478.58
579.61	18317.38
579.812	18703.13
580.014	18428.4
580.216	18528.95
580.418	18885.25
580.62	18746.72
580.822	18826.55
581.024	18932.72
581.226	18950.74
581.428	18966.63
581.63	19279.53
581.832	19059.63
582.034	19207.45
582.236	19202.61
582.438	19363.23
582.64	19491.68
582.841	19478.7
583.043	19808.65
583.245	19451.77
583.447	19656.75
583.649	19642.61
583.85	19629.24
584.052	19595.92
584.254	19506.6
584.456	19600.18
584.657	19546.9
584.859	19765.83
585.061	19520.36
585.262	19551.55
585.464	19257.25
585.666	19449.83
585.867	19106.51
586.069	19104.77
586.27	19082.29
586.472	19178.2
586.674	19070.09
586.875	19106.12
587.077	19266.55
587.278	19169.29
587.48	19199.12
587.681	19355.48
587.883	19228.19
588.084	18829.45
588.285	18977.67
588.487	18456.1
588.688	18527.01
588.89	17827.2
589.091	17543.75
589.292	17033.22
589.494	16699.2
589.695	16446.56
589.896	16154.58
590.098	16479.11
590.299	16479.69
590.5	16701.33
590.702	17127.19
590.903	17337.41
591.104	17593.35
591.305	17832.82
591.507	17771.4
591.708	17838.05
591.909	17832.24
592.11	17733.62
592.311	17943.45
592.512	17671.04
592.714	17707.46
592.915	18033.54
593.116	17844.44
593.317	18145.33
593.518	18085.08
593.719	18172.46
593.92	18227.87
594.121	18163.35
594.322	18147.85
594.523	17895.01
594.724	17722.77
594.925	17824.49
595.126	17634.03
595.327	17639.07
595.528	17831.07
595.729	17871.76
595.929	17909.35
596.13	18049.81
596.331	18219.15
596.532	18115.3
596.733	18304.98
596.934	18421.23
597.135	18347.41
597.335	18342.76
597.536	18233.49
597.737	18275.14
597.938	18046.91
598.138	18121.5
598.339	18173.62
598.54	18300.72
598.74	18001.77
598.941	18077.52
599.142	18322.03
599.342	18256.35
599.543	18296.65
599.744	18366.98
599.944	18377.44
600.145	18429.56
600.345	18375.31
600.546	18287.35
600.746	18379.18
600.947	18584.56
601.147	18136.23
601.348	18479.16
601.548	18306.92
601.749	18236.2
601.949	18081.98
602.15	18192.8
602.35	17920.78
602.551	18019.01
602.751	18129.83
602.951	18324.74
603.152	18186.79
603.352	18349.15
603.552	18331.72
603.753	18508.03
603.953	18636.48
604.153	18527.79
604.354	18636.09
604.554	18643.65
604.754	18651.59
604.954	18623.31
605.155	18751.76
605.355	18589.79
605.555	18570.03
605.755	18532.05
605.955	18488.85
606.155	18472.38
606.356	18550.26
606.556	18515.2
606.756	18516.94
606.956	18510.93
607.156	18638.03
607.356	18437.7
607.556	18529.73
607.756	18618.08
607.956	18546.78
608.156	18538.64
608.356	18241.24
608.556	18478.96
608.756	18292.77
608.956	18297.81
609.156	18264.1
609.356	18284.83
609.556	18179.82
609.755	18324.55
609.955	18112.98
610.155	18123.63
610.355	18294.71
610.555	18019.4
610.755	17905.09
610.954	17985.68
611.154	18174.78
611.354	18137.78
611.554	18029.08
611.753	18273.4
611.953	18075.39
612.153	18142.81
612.352	18057.95
612.552	17939.19
612.752	17894.04
612.951	18143.78
613.151	17864.59
613.351	17987.62
613.55	17974.64
613.75	17962.24
613.949	17663.1
614.149	17707.46
614.348	17679.37
614.548	17724.9
614.747	17736.14
614.947	17827.01
615.146	17618.34
615.346	17963.79
615.545	17891.52
615.745	17842.12
615.944	17692.35
616.144	17691.77
616.343	17416.07
616.542	17491.82
616.742	17280.83
616.941	17324.81
617.14	17173.11
617.34	17245.76
617.539	17358.14
617.738	17409.67
617.938	17535.22
618.137	17475.74
618.336	17704.94
618.535	17694.87
618.734	17674.91
618.934	17601.48
619.133	17680.73
619.332	17890.75
619.531	17532.32
619.73	17931.63
619.929	17721.99
620.128	17778.18
620.328	17794.46
620.527	17803.76
620.726	17787.87
620.925	17791.36
621.124	17944.8
621.323	17643.33
621.522	17524.37
621.721	17703.78
621.92	17431.57
622.119	17536
622.318	17476.52
622.517	17428.27
622.715	17360.66
622.914	17266.11
623.113	17405.61
623.312	16992.92
623.511	17185.7
623.71	17238.6
623.909	17000.48
624.107	17251.96
624.306	17064.8
624.505	16934.61
624.704	16909.61
624.902	16727.49
625.101	17010.36
625.3	16704.63
625.499	16613.18
625.697	16827.46
625.896	16710.44
626.095	16565.52
626.293	16541.69
626.492	16636.82
626.69	16590.12
626.889	16824.17
627.088	16716.45
627.286	16719.74
627.485	16412.26
627.683	16293.11
627.882	15974.01
628.08	15756.82
628.279	15523.35
628.477	15718.45
628.676	15429.96
628.874	15646.38
629.073	15559.39
629.271	15693.07
629.469	15784.91
629.668	15762.63
629.866	15570.43
630.065	15596.39
630.263	15666.14
630.461	15605.69
630.66	15821.72
630.858	15744.8
631.056	15917.82
631.254	16000.94
631.453	15785.3
631.651	15938.74
631.849	15853.3
632.047	15762.43
632.245	15768.63
632.444	15870.16
632.642	16115.44
632.84	16297.56
633.038	16041.04
633.236	15977.11
633.434	16199.53
633.632	16232.27
633.83	16079.41
634.028	16337.86
634.227	16245.64
634.425	16384.75
634.623	16150.12
634.821	16440.74
635.019	16416.53
635.216	16481.43
635.414	16534.32
635.612	16321.59
635.81	16337.48
636.008	16551.18
636.206	16510.11
636.404	16330.31
636.602	16410.13
636.8	16290.59
636.997	16540.33
637.195	16481.04
637.393	16460.12
637.591	16672.08
637.789	16665.1
637.986	16667.23
638.184	16696.1
638.382	16806.15
638.58	16714.9
638.777	16799.56
638.975	16661.81
639.173	16833.47
639.37	16676.73
639.568	16669.75
639.765	16686.22
639.963	16575.2
640.161	16349.49
640.358	16610.27
640.556	16316.55
640.753	16463.02
640.951	16333.8
641.148	16430.09
641.346	16404.32
641.543	16302.02
641.741	16377.78
641.938	16299.7
642.136	16352.4
642.333	16267.34
642.531	16457.41
642.728	16386.88
642.925	16501.97
643.123	16504.29
643.32	16456.82
643.517	16377.58
643.715	16298.53
643.912	16408.39
644.109	16384.17
644.306	16456.24
644.504	16321.98
644.701	16369.06
644.898	16386.3
645.095	16332.25
645.293	16256.1
645.49	16247
645.687	16148.77
645.884	16243.12
646.081	15861.44
646.278	15989.7
646.475	15815.72
646.672	15698.69
646.87	15546.79
647.067	15524.32
647.264	15519.86
647.461	15365.06
647.658	15229.24
647.855	15322.05
648.052	15187.97
648.249	15055.06
648.446	15167.82
648.642	15327.86
648.839	14998.88
649.036	15050.41
649.233	15052.16
649.43	15037.43
649.627	14653.81
649.824	14885.15
650.021	14716.2
650.217	15035.11
650.414	15179.06
650.611	15258.69
650.808	15426.67
651.004	15370.1
651.201	15404.97
651.398	15532.07
651.595	15318.37
651.791	15162.4
651.988	15253.65
652.185	14900.65
652.381	15353.05
652.578	15098.66
652.775	15274.39
652.971	15430.55
653.168	15228.27
653.364	15608.02
653.561	15336.58
653.757	15467.16
653.954	15589.22
654.15	15272.45
654.347	15444.11
654.543	15472.01
654.74	15149.42
654.936	15148.84
655.133	15094.01
655.329	15134.11
655.525	14786.72
655.722	14717.56
655.918	14403.88
656.115	13861.97
656.311	13587.04
656.507	13127.28
656.704	12985.46
656.9	13156.34
657.096	13437.08
657.292	13454.71
657.489	13718.4
657.685	13975.89
657.881	14071.02
658.077	14227.57
658.273	14470.53
658.47	14709.61
658.666	14683.65
658.862	14959.93
659.058	14891.35
659.254	14990.74
659.45	15128.49
659.646	14961.87
659.842	15145.93
660.038	15287.75
660.234	15106.41
660.43	15142.06
660.626	15320.69
660.822	15343.17
661.018	15390.63
661.214	15392.38
661.41	15243.97
661.606	15466.58
661.802	15629.52
661.998	15415.63
662.194	15454.76
662.39	15470.85
662.586	15510.95
662.781	15455.73
662.977	15647.16
663.173	15308.1
663.369	15432.1
663.564	15432.68
663.76	15357.31
663.956	15384.82
664.152	15198.24
664.347	15172.09
664.543	15339.48
664.739	15239.51
664.934	15178.67
665.13	15336.38
665.326	15301.7
665.521	15359.63
665.717	15231.76
665.912	15372.03
666.108	15043.83
666.304	15301.51
666.499	15210.26
666.695	14964.97
666.89	15246.1
667.086	15202.51
667.281	15165.5
667.477	15239.32
667.672	15153.87
667.867	15115.32
668.063	15056.23
668.258	15019.41
668.454	15145.74
668.649	15075.21
668.844	15170.92
669.04	15222.27
669.235	15114.35
669.43	15201.54
669.626	14940.56
669.821	15063.98
670.016	15019.41
670.211	15040.92
670.407	14796.22
670.602	15107.38
670.797	14860.74
670.992	15072.69
671.187	14799.32
671.382	14995
671.578	14633.28
671.773	14854.92
671.968	14605.38
672.163	14749.14
672.358	14744.1
672.553	14636.96
672.748	14811.52
672.943	14795.83
673.138	14675.71
673.333	14847.95
673.528	14587.75
673.723	14792.73
673.918	14618.36
674.113	14645.48
674.308	14805.9
674.503	14688.49
674.698	14842.33
674.892	14431.97
675.087	14647.42
675.282	14660.79
675.477	14596.27
675.672	14627.08
675.867	14455.22
676.061	14573.99
676.256	14410.08
676.451	14637.34
676.646	14551.32
676.84	14415.12
677.035	14366.49
677.23	14477.12
677.424	14442.82
677.619	14383.15
677.814	14572.63
678.008	14462.58
678.203	14492.62
678.397	14345.56
678.592	14346.72
678.787	14491.65
678.981	14363.77
679.176	14311.07
679.37	14234.74
679.565	14315.53
679.759	14328.12
679.954	14237.26
680.148	14199.28
680.342	14363.97
680.537	14250.63
680.731	14198.31
680.926	14288.41
681.12	14168.86
681.314	14239.39
681.509	14125.27
681.703	14175.65
681.897	13945.67
682.092	14047.77
682.286	14163.05
682.48	14041.18
682.674	13992.94
682.869	13893.36
683.063	14072.96
683.257	13964.27
683.451	13875.92
683.645	13946.05
683.839	13796.29
684.034	13725.18
684.228	13631.99
684.422	13540.35
684.616	13643.62
684.81	13641.68
685.004	13575.03
685.198	13630.25
685.392	13499.66
685.586	13660.86
685.78	13413.25
685.974	13466.92
686.168	13426.04
686.362	13264.84
686.556	12415.26
686.75	11894.85
686.944	11027.25
687.138	10279.58
687.331	9679.74
687.525	9346.5
687.719	9101.99
687.913	9225.79
688.107	9371.1
688.301	9428.64
688.494	9568.72
688.688	9499.36
688.882	9414.89
689.076	9431.74
689.269	9402.88
689.463	9574.54
689.657	9615.22
689.85	9655.91
690.044	9849.46
690.238	10007.37
690.431	10046.31
690.625	10073.44
690.818	10343.13
691.012	10347.97
691.205	10655.65
691.399	10731.21
691.593	10733.53
691.786	10832.73
691.98	11084.8
692.173	11167.14
692.366	11156.29
692.56	11325.82
692.753	11146.02
692.947	11197.56
693.14	11018.34
693.333	11112.11
693.527	11100.68
693.72	11144.47
693.914	11033.84
694.107	10917.4
694.3	10862.96
694.493	10749.61
694.687	11057.09
694.88	10863.15
695.073	11069.1
695.266	11005.55
695.46	11091.58
695.653	11067.94
695.846	11041.78
696.039	11158.03
696.232	11150.48
696.425	11337.44
696.618	11521.11
696.812	11683.09
697.005	11680.18
697.198	11939.41
697.391	11810.77
697.584	11967.31
697.777	11926.82
697.97	11803.79
698.163	11885.75
698.356	11802.05
698.549	11881.29
698.742	11713.12
698.935	11538.36
699.127	11474.42
699.32	11391.11
699.513	11359.14
699.706	11282.61
699.899	11375.8
700.092	11236.89
700.285	11114.83
700.477	10928.64
700.67	11103.4
700.863	11025.12
701.056	11154.74
701.248	11064.45
701.441	11035.78
701.634	10973
701.826	11061.93
702.019	10895.89
702.212	10972.81
702.404	10893.57
702.597	10829.82
702.79	10884.46
702.982	10948.59
703.175	11018.73
703.367	11032.1
703.56	11078.21
703.752	11232.24
703.945	11190.19
704.137	11121.03
704.33	11215.96
704.522	11204.14
704.715	11282.03
704.907	11281.06
705.1	11330.66
705.292	11245.02
705.484	11205.5
705.677	11189.23
705.869	11318.07
706.061	11195.43
706.254	11309.93
706.446	11190
706.638	11184.96
706.831	11284.16
707.023	11214.61
707.215	11408.35
707.407	11379.49
707.599	11173.14
707.792	11439.93
707.984	11285.91
708.176	11342.87
708.368	11270.21
708.56	11309.93
708.752	11299.47
708.944	11155.51
709.136	11264.59
709.329	11234.56
709.521	11349.26
709.713	11159.97
709.905	11266.53
710.097	11300.82
710.289	11128.97
710.481	11179.54
710.672	11151.25
710.864	11241.73
711.056	11241.92
711.248	11148.93
711.44	11137.69
711.632	11141.37
711.824	11221.19
712.016	11150.48
712.207	11172.56
712.399	11008.85
712.591	11151.06
712.783	11144.86
712.975	10991.8
713.166	11015.05
713.358	11000.71
713.55	10976.1
713.741	10886.01
713.933	11034.03
714.125	10899.38
714.316	10768.6
714.508	10827.5
714.7	10756.78
714.891	10687.23
715.083	10635.3
715.274	10577.57
715.466	10616.31
715.657	10554.9
715.849	10358.44
716.04	10193.36
716.232	10143.96
716.423	9930.64
716.615	9735.15
716.806	9400.16
716.998	8982.06
717.189	8735.8
717.381	8435.88
717.572	8224.7
717.763	8008.28
717.955	7874.4
718.146	7700.42
718.337	7475.67
718.528	7254.8
718.72	7035.87
718.911	7003.32
719.102	6883.58
719.293	6902.18
719.485	6771.4
719.676	6708.82
719.867	6638.49
720.058	6610.59
720.249	6618.34
720.44	6629.19
720.632	6783.99
720.823	6937.64
721.014	7269.33
721.205	7473.35
721.396	7683.76
721.587	7961.01
721.778	8114.84
721.969	8299.29
722.16	8396.75
722.351	8567.63
722.542	8653.85
722.733	8692.79
722.924	8473.86
723.115	8470.37
723.305	8255.7
723.496	8290.19
723.687	7891.65
723.878	7855.8
724.069	7805.24
724.26	7675.62
724.45	7566.93
724.641	7476.45
724.832	7421.62
725.023	7323
725.213	7298.97
725.404	7228.45
725.595	7149.98
725.785	7208.3
725.976	7265.46
726.167	7261.58
726.357	7228.64
726.548	7347.61
726.739	7159.09
726.929	7360.97
727.12	7357.87
727.31	7320.09
727.501	7140.1
727.691	7097.87
727.882	7136.81
728.072	7266.43
728.263	7315.83
728.453	7407.67
728.644	7394.1
728.834	7260.42
729.024	7151.15
729.215	7187.57
729.405	7169.94
729.596	7270.88
729.786	7338.69
729.976	7323.39
730.167	7301.88
730.357	7273.79
730.547	7311.18
730.737	7283.47
730.928	7347.99
731.118	7339.08
731.308	7290.26
731.498	7319.71
731.688	7368.34
731.879	7483.81
732.069	7462.5
732.259	7717.47
732.449	7809.89
732.639	7896.49
732.829	7968.37
733.019	8039.48
733.209	8206.87
733.399	8255.31
733.589	8369.82
733.779	8431.62
733.969	8498.27
734.159	8625.76
734.349	8641.64
734.539	8662.76
734.729	8707.32
734.919	8658.89
735.109	8813.88
735.299	8572.67
735.488	8699.96
735.678	8666.44
735.868	8570.15
736.058	8563.18
736.248	8548.45
736.437	8466.88
736.627	8436.08
736.817	8602.51
737.007	8442.28
737.196	8590.69
737.386	8609.48
737.576	8565.5
737.765	8620.91
737.955	8538.96
738.144	8767.19
738.334	8632.15
738.524	8556.01
738.713	8639.12
738.903	8609.29
739.092	8597.66
739.282	8554.46
739.471	8619.75
739.661	8581.58
739.85	8765.45
740.04	8695.7
740.229	8708.29
740.419	8795.28
740.608	8768.93
740.797	8687.75
740.987	8769.71
741.176	8686.01
741.365	8740.84
741.555	8623.04
741.744	8806.72
741.933	8628.86
742.123	8647.84
742.312	8676.32
742.501	8739.68
742.69	8765.25
742.88	8653.07
743.069	8821.44
743.258	8801.87
743.447	8837.13
743.636	8771.07
743.825	8802.26
744.014	8748.4
744.204	8836.17
744.393	8673.42
744.582	8828.03
744.771	8843.53
744.96	8754.4
745.149	8806.33
745.338	8680
745.527	8842.37
745.716	8714.3
745.905	8703.45
746.094	8757.5
746.283	8769.52
746.471	8655.79
746.66	8745.49
746.849	8814.85
747.038	8773.78
747.227	8660.63
747.416	8697.64
747.604	8637.77
747.793	8681.94
747.982	8652.88
748.171	8780.37
748.359	8600.96
748.548	8611.61
748.737	8562.79
748.926	8546.32
749.114	8344.82
749.303	8552.91
749.491	8474.63
749.68	8413.41
749.869	8514.35
750.057	8410.5
750.246	8388.61
750.434	8409.34
750.623	8385.51
750.811	8367.68
751	8426.97
751.188	8334.55
751.377	8331.65
751.565	8307.43
751.754	8292.9
751.942	8240.59
752.131	8307.82
752.319	8254.15
752.507	8213.07
752.696	8240.01
752.884	8207.84
753.072	8171.61
753.261	8217.53
753.449	8222.96
753.637	8107.68
753.825	8225.09
754.014	8166.77
754.202	8174.13
754.39	8143.71
754.578	8153.01
754.766	8057.88
754.955	8030.95
755.143	8120.27
755.331	8067.18
755.519	8090.63
755.707	8044.32
755.895	7985.81
756.083	8042.19
756.271	7893
756.459	7968.18
756.647	7879.44
756.835	7869.37
757.023	7889.71
757.211	7904.24
757.399	7853.09
757.587	7826.35
757.775	7775.21
757.963	7763.77
758.151	7755.06
758.339	7648.69
758.526	7624.86
758.714	7625.05
758.902	7398.95
759.09	7188.93
759.278	6681.5
759.465	6064.03
759.653	5329.34
759.841	4756.62
760.028	4120.36
760.216	3554.62
760.404	3227.38
760.591	2705.42
760.779	2290.22
760.967	1971.31
761.154	1664.22
761.342	1672.94
761.529	1672.56
761.717	1749.09
761.905	1793.45
762.092	1865.33
762.28	1770.59
762.467	1751.8
762.655	1601.06
762.842	1671.59
763.029	1653.37
763.217	1679.53
763.404	1641.56
763.592	1709.37
763.779	1682.24
763.966	1764.59
764.154	1838.02
764.341	1948.06
764.528	1986.62
764.716	2096.28
764.903	2243.72
765.09	2404.34
765.277	2500.24
765.465	2764.13
765.652	2956.71
765.839	3166.73
766.026	3423.26
766.213	3571.08
766.4	3803.97
766.588	4110.86
766.775	4293.57
766.962	4540.6
767.149	4692.3
767.336	4990.48
767.523	5031.16
767.71	5309
767.897	5525.8
768.084	5634.1
768.271	5833.08
768.458	5902.44
768.645	6048.14
768.832	6094.84
769.019	6234.53
769.206	6201.98
769.392	6382.36
769.579	6454.24
769.766	6479.23
769.953	6472.45
770.14	6628.61
770.327	6596.64
770.513	6733.81
770.7	6700.88
770.887	6650.89
771.073	6676.66
771.26	6755.51
771.447	6688.48
771.634	6670.85
771.82	6758.61
772.007	6668.72
772.193	6770.04
772.38	6793.49
772.567	6681.7
772.753	6645.47
772.94	6764.43
773.126	6717.35
773.313	6749.9
773.499	6736.33
773.686	6806.47
773.872	6671.81
774.059	6757.06
774.245	6668.91
774.432	6673.17
774.618	6585.79
774.804	6657.48
774.991	6636.75
775.177	6564.87
775.363	6606.91
775.55	6618.53
775.736	6532.9
775.922	6649.15
776.109	6611.95
776.295	6582.88
776.481	6639.46
776.667	6606.33
776.853	6564.87
777.04	6512.75
777.226	6530.96
777.412	6531.54
777.598	6428.47
777.784	6518.17
777.97	6426.92
778.156	6493.57
778.342	6478.65
778.528	6385.46
778.715	6367.83
778.901	6328.88
779.087	6392.24
779.272	6357.36
779.458	6312.22
779.644	6331.4
779.83	6322.68
780.016	6418.59
780.202	6314.35
780.388	6355.04
780.574	6207.4
780.76	6214.96
780.946	6269.21
781.131	6266.3
781.317	6201.78
781.503	6183.38
781.689	6200.23
781.874	6303.5
782.06	6169.04
782.246	6216.32
782.432	6185.32
782.617	6186.87
782.803	6239.37
782.989	6073.52
783.174	6028.96
783.36	6041.17
783.545	6040.01
783.731	6055.51
783.916	5944.88
784.102	5977.81
784.288	6026.83
784.473	5989.44
784.659	5905.54
784.844	6003.39
785.029	5967.74
785.215	5919.11
785.4	5891.21
785.586	5944.49
785.771	5798.79
785.956	5896.83
786.142	5822.23
786.327	5817
786.512	5767.6
786.698	5788.91
786.883	5677.5
787.068	5714.32
787.254	5761.59
787.439	5677.5
787.624	5596.13
787.809	5640.69
787.994	5643.79
788.18	5715.09
788.365	5554.09
788.55	5535.87
788.735	5530.64
788.92	5503.52
789.105	5525.41
789.29	5526.96
789.475	5373.71
789.66	5423.11
789.845	5362.08
790.03	5409.75
790.215	5429.51
790.4	5379.71
790.585	5425.25
790.77	5355.69
790.955	5340.97
791.14	5324.11
791.325	5398.9
791.51	5243.7
791.695	5359.18
791.879	5350.65
792.064	5242.54
792.249	5382.04
792.434	5296.98
792.618	5318.68
792.803	5347.17
792.988	5332.63
793.173	5387.46
793.357	5397.35
793.542	5317.72
793.727	5382.43
793.911	5403.16
794.096	5401.8
794.281	5428.35
794.465	5526.38
794.65	5388.24
794.834	5410.13
795.019	5470.78
795.203	5504.1
795.388	5449.27
795.572	5502.55
795.757	5411.68
795.941	5398.12
796.126	5369.64
796.31	5350.27
796.494	5271.02
796.679	5383.78
796.863	5291.37
797.048	5418.85
797.232	5397.35
797.416	5439.2
797.601	5390.76
797.785	5495.96
797.969	5517.66
798.153	5423.5
798.338	5486.08
798.522	5521.54
798.706	5623.45
798.89	5527.74
799.074	5613.96
799.258	5601.75
799.443	5513.4
799.627	5510.69
799.811	5531.42
799.995	5434.74
800.179	5451.79
800.363	5498.87
800.547	5492.86
800.731	5518.63
800.915	5314.23
801.099	5349.68
801.283	5378.16
801.467	5408.58
801.651	5397.35
801.835	5404.71
802.019	5382.62
802.202	5462.06
802.386	5344.65
802.57	5301.44
802.754	5337.09
802.938	5293.11
803.121	5304.35
803.305	5419.24
803.489	5344.45
803.673	5400.45
803.856	5334.57
804.04	5299.12
804.224	5386.69
804.407	5298.34
804.591	5303.38
804.775	5337.28
804.958	5371.77
805.142	5482.98
805.326	5369.83
805.509	5408.97
805.693	5426.21
805.876	5428.73
806.06	5470
806.243	5509.14
806.427	5495.58
806.61	5512.43
806.794	5482.59
806.977	5518.05
807.16	5482.59
807.344	5530.45
807.527	5463.22
807.71	5462.25
807.894	5394.63
808.077	5408.78
808.26	5362.08
808.444	5337.67
808.627	5395.99
808.81	5286.91
808.993	5250.49
809.177	5272.18
809.36	5256.49
809.543	5233.63
809.726	5112.54
809.909	5066.23
810.092	5067.59
810.276	5139.08
810.459	5050.93
810.642	5066.81
810.825	4992.41
811.008	4988.73
811.191	4831.02
811.374	4883.14
811.557	4844.78
811.74	4834.32
811.923	4766.12
812.106	4703.34
812.289	4669.63
812.472	4645.03
812.654	4579.15
812.837	4551.64
813.02	4448.95
813.203	4352.66
813.386	4210.45
813.569	4179.06
813.751	4064.56
813.934	4135.86
814.117	4041.12
814.3	3964
814.482	3861.32
814.665	3816.95
814.848	3719.11
815.03	3608.67
815.213	3561.4
815.396	3565.85
815.578	3530.4
815.761	3461.04
815.943	3493.39
816.126	3320.57
816.309	3359.32
816.491	3187.08
816.674	3119.27
816.856	3185.14
817.039	3234.93
817.221	3272.71
817.403	3254.11
817.586	3228.15
817.768	3258.38
817.951	3120.43
818.133	3134.57
818.315	3130.5
818.498	3235.51
818.68	3303.33
818.862	3282.59
819.045	3319.02
819.227	3329.29
819.409	3328.9
819.591	3306.62
819.774	3293.06
819.956	3274.07
820.138	3401.36
820.32	3410.27
820.502	3546.28
820.684	3693.92
820.866	3702.06
821.048	3721.04
821.231	3785.56
821.413	3787.89
821.595	3756.69
821.777	3792.54
821.959	3759.6
822.141	3764.83
822.323	3592.59
822.505	3464.33
822.686	3307.59
822.868	3102.6
823.05	2993.33
823.232	2886.58
823.414	2806.56
823.596	2916.8
823.778	2920.87
823.96	2919.32
824.141	2971.63
824.323	3059.98
824.505	3205.68
824.687	3254.31
824.868	3451.54
825.05	3561.2
825.232	3655.56
825.413	3677.26
825.595	3707.68
825.777	3616.23
825.958	3654.98
826.14	3635.21
826.321	3695.28
826.503	3618.16
826.685	3715.43
826.866	3705.54
827.048	3693.53
827.229	3576.9
827.411	3500.75
827.592	3407.56
827.773	3421.12
827.955	3330.26
828.136	3358.35
828.318	3313.59
828.499	3305.84
828.68	3273.49
828.862	3261.86
829.043	3237.06
829.224	3229.7
829.406	3202.19
829.587	3231.45
829.768	3272.71
829.949	3270
830.131	3317.86
830.312	3338.39
830.493	3287.63
830.674	3293.44
830.855	3237.45
831.036	3296.35
831.218	3371.91
831.399	3408.34
831.58	3327.93
831.761	3336.46
831.942	3265.93
832.123	3322.89
832.304	3236.68
832.485	3251.6
832.666	3294.99
832.847	3311.08
833.028	3278.91
833.209	3260.9
833.389	3287.63
833.57	3216.14
833.751	3186.5
833.932	3294.22
834.113	3263.99
834.294	3278.53
834.475	3359.9
834.655	3352.73
834.836	3348.28
835.017	3407.95
835.198	3307.98
835.378	3378.69
835.559	3389.74
835.74	3360.29
835.92	3366.49
836.101	3351.96
836.281	3419.96
836.462	3414.73
836.643	3460.45
836.823	3436.43
837.004	3453.67
837.184	3523.23
837.365	3471.89
837.545	3468.98
837.726	3400.78
837.906	3519.35
838.087	3492.81
838.267	3478.47
838.448	3410.27
838.628	3433.72
838.808	3449.99
838.989	3470.53
839.169	3367.26
839.349	3451.74
839.53	3478.28
839.71	3508.12
839.89	3474.6
840.07	3478.86
840.251	3498.82
840.431	3486.22
840.611	3460.45
840.791	3480.41
840.971	3423.84
841.151	3473.24
841.332	3393.22
841.512	3484.29
841.692	3404.27
841.872	3439.72
842.052	3381.99
842.232	3422.29
842.412	3335.88
842.592	3440.11
842.772	3437.4
842.952	3464.52
843.132	3391.29
843.312	3417.25
843.492	3387.22
843.672	3437.4
843.851	3332.58
844.031	3376.56
844.211	3334.13
844.391	3361.64
844.571	3404.85
844.751	3406.79
844.93	3359.71
845.11	3284.14
845.29	3341.88
845.47	3399.62
845.649	3360.09
845.829	3393.42
846.009	3378.69
846.188	3397.1
846.368	3368.23
846.547	3345.76
846.727	3395.36
846.907	3260.9
847.086	3330.64
847.266	3338.78
847.445	3348.66
847.625	3338.39
847.804	3269.61
847.984	3301.78
848.163	3271.55
848.343	3233
848.522	3260.12
848.701	3243.26
848.881	3252.37
849.06	3279.3
849.239	3247.53
849.419	3200.45
849.598	3096.6
849.777	3109.38
849.957	3047.77
850.136	2968.92
850.315	2989.65
850.494	2994.69
850.674	3003.4
850.853	3038.47
851.032	2992.75
851.211	3057.85
851.39	3045.25
851.569	2985.39
851.748	2958.84
851.927	3055.91
852.107	3022.39
852.286	2975.12
852.465	2968.92
852.644	3072.57
852.823	3038.09
853.002	3011.54
853.181	3010.19
853.359	2975.31
853.538	2943.73
853.717	2958.07
853.896	2835.81
854.075	2696.12
854.254	2623.47
854.433	2569.22
854.611	2569.99
854.79	2532.79
854.969	2625.79
855.148	2646.52
855.327	2628.7
855.505	2688.18
855.684	2705.81
855.863	2729.83
856.041	2719.76
856.22	2835.04
856.399	2764.71
856.577	2886.77
856.756	2896.84
856.934	3031.89
857.113	2983.45
857.291	2938.5
857.47	2859.06
857.648	2946.06
857.827	2897.81
858.005	2977.25
858.184	2868.56
858.362	2962.91
858.541	2873.21
858.719	2839.69
858.898	2867.98
859.076	2825.54
859.254	2894.13
859.433	2853.25
859.611	2864.88
859.789	2783.89
859.967	2860.03
860.146	2879.02
860.324	2773.43
860.502	2789.7
860.68	2747.66
860.859	2756.57
861.037	2748.82
861.215	2759.67
861.393	2754.44
861.571	2767.03
861.749	2728.87
861.927	2765.29
862.105	2745.53
862.283	2781.18
862.461	2727.12
862.639	2703.87
862.817	2717.24
862.995	2753.28
863.173	2685.66
863.351	2746.69
863.529	2736.81
863.707	2745.33
863.885	2723.63
864.063	2633.35
864.241	2651.37
864.418	2719.37
864.596	2688.57
864.774	2619.01
864.952	2644.97
865.129	2712.2
865.307	2606.22
865.485	2543.64
865.663	2600.8
865.84	2480.48
866.018	2452.39
866.196	2300.68
866.373	2300.1
866.551	2240.04
866.728	2236.36
866.906	2271.82
867.084	2325.87
867.261	2340.6
867.439	2352.8
867.616	2399.88
867.794	2408.99
867.971	2438.24
868.149	2446.96
868.326	2506.06
868.503	2458.59
868.681	2461.69
868.858	2438.63
869.035	2406.86
869.213	2489.39
869.39	2464.4
869.567	2481.06
869.745	2442.7
869.922	2441.15
870.099	2475.25
870.276	2465.18
870.454	2452.97
870.631	2446.77
870.808	2433.59
870.985	2466.34
871.162	2490.56
871.339	2448.71
871.517	2341.37
871.694	2404.34
871.871	2422.94
872.048	2381.48
872.225	2404.73
872.402	2373.73
872.579	2354.16
872.756	2392.52
872.933	2343.5
873.11	2335.36
873.287	2377.21
873.463	2322.19
873.64	2344.66
873.817	2363.46
873.994	2335.56
874.171	2258.06
874.348	2340.79
874.524	2258.25
874.701	2291.97
874.878	2221.44
875.055	2310.76
875.231	2240.62
875.408	2268.33
875.585	2195.48
875.762	2284.99
875.938	2228.03
876.115	2226.28
876.291	2225.51
876.468	2226.48
876.645	2174.17
876.821	2177.85
876.998	2191.22
877.174	2226.87
877.351	2174.75
877.527	2172.42
877.704	2167.19
877.88	2170.68
878.057	2162.54
878.233	2207.1
878.409	2134.25
878.586	2198.19
878.762	2137.55
878.938	2170.29
879.115	2047.84
879.291	2120.89
879.467	2082.33
879.644	2095.51
879.82	2111.2
879.996	2071.48
880.172	2055.21
880.349	2101.9
880.525	2105.97
880.701	2018.98
880.877	2030.21
881.053	2051.91
881.229	2048.81
881.405	2121.47
881.581	2043
881.757	2065.67
881.933	2076.13
882.109	2084.85
882.285	2061.99
882.461	2009.29
882.637	2090.86
882.813	2044.94
882.989	2033.7
883.165	2092.21
883.341	2022.85
883.517	2085.62
883.693	2066.25
883.869	2098.02
884.044	2006.58
884.22	2082.14
884.396	2108.1
884.572	2044.36
884.747	2128.25
884.923	2098.99
885.099	2091.44
885.275	2100.93
885.45	2039.9
885.626	2062.57
885.801	1991.46
885.977	2034.48
886.153	2004.06
886.328	2035.44
886.504	1974.22
886.679	1989.14
886.855	2011.23
887.03	2024.59
887.206	2055.79
887.381	2017.81
887.557	2058.89
887.732	2074
887.908	2039.9
888.083	2020.91
888.258	2033.7
888.434	2040.09
888.609	2039.51
888.784	2094.73
888.96	2005.61
889.135	2036.61
889.31	2026.14
889.485	2059.47
889.661	2010.26
889.836	2027.89
890.011	2039.9
890.186	2036.99
890.361	1995.92
890.537	2051.72
890.712	2012.19
890.887	2025.18
891.062	2040.67
891.237	2098.8
891.412	1988.94
891.587	2022.08
891.762	2049.59
891.937	2083.69
892.112	1961.63
892.287	1995.92
892.462	1939.15
892.637	1923.46
892.812	1879.86
892.987	1856.03
893.161	1846.54
893.336	1855.45
893.511	1855.45
893.686	1867.27
893.861	1811.86
894.035	1807.79
894.21	1781.25
894.385	1737.07
894.56	1763.23
894.734	1708.79
894.909	1635.16
895.084	1636.32
895.258	1601.45
895.433	1625.67
895.608	1578.39
895.782	1523.18
895.957	1527.24
896.131	1532.86
896.306	1398.98
896.48	1437.93
896.655	1386
896.829	1348.03
897.004	1340.28
897.178	1328.85
897.353	1294.94
897.527	1359.27
897.701	1340.67
897.876	1298.24
898.05	1397.82
898.224	1366.43
898.399	1367.21
898.573	1299.4
898.747	1150.21
898.921	1142.66
899.096	1052.95
899.27	1062.45
899.444	1078.72
899.618	1147.11
899.792	1189.74
899.967	1179.47
900.141	1221.32
900.315	1167.46
900.489	1155.25
900.663	1151.96
900.837	1134.71
901.011	1057.8
901.185	1166.49
901.359	1114.95
901.533	1180.24
901.707	1164.74
901.881	1155.83
902.055	1119.41
902.229	1114.95
902.403	1193.22
902.576	1147.5
902.75	1180.24
902.924	1307.92
903.098	1279.44
903.272	1369.15
903.446	1409.06
903.619	1418.55
903.793	1467.18
903.967	1454.59
904.14	1485.59
904.314	1494.11
904.488	1490.43
904.661	1487.53
904.835	1460.4
905.009	1484.81
905.182	1534.99
905.356	1516.78
905.529	1504.58
905.703	1424.37
905.876	1421.85
906.05	1360.43
906.223	1318.97
906.397	1272.47
906.57	1225.19
906.744	1195.55
906.917	1194.19
907.09	1139.56
907.264	1133.16
907.437	1118.83
907.61	1059.93
907.784	1065.93
907.957	1125.8
908.13	1036.1
908.304	1061.67
908.477	994.05
908.65	1063.41
908.823	991.92
908.996	1031.45
909.17	1007.42
909.343	977.78
909.516	979.13
909.689	985.14
909.862	985.53
910.035	1019.24
910.208	965.96
910.381	954.53
910.554	1065.16
910.727	1013.81
910.9	984.37
911.073	989.4
911.246	1053.15
911.419	1046.95
911.592	1064
911.765	994.83
911.938	999.28
912.11	1018.46
912.283	1023.5
912.456	1058.96
912.629	1000.25
912.802	951.62
912.974	929.53
913.147	829.95
913.32	785.58
913.493	828.01
913.665	825.1
913.838	859.79
914.01	893.89
914.183	927.02
914.356	925.27
914.528	938.45
914.701	976.62
914.873	925.27
915.046	855.14
915.218	794.69
915.391	733.46
915.563	717.96
915.736	810.38
915.908	870.64
916.081	871.6
916.253	877.42
916.425	867.34
916.598	925.27
916.77	885.94
916.942	814.45
917.115	719.13
917.287	792.56
917.459	739.27
917.632	740.82
917.804	689.09
917.976	766.59
918.148	826.27
918.32	849.13
918.493	890.59
918.665	964.22
918.837	918.49
919.009	958.98
919.181	963.83
919.353	931.67
919.525	934.18
919.697	959.18
919.869	946.2
920.041	1052.18
920.213	1097.71
920.385	1015.17
920.557	995.6
920.729	990.76
920.901	968.87
921.073	945.62
921.244	937.48
921.416	964.99
921.588	931.67
921.76	915.97
921.932	989.98
922.103	951.82
922.275	951.04
922.447	965.77
922.619	869.28
922.79	920.23
922.962	878.58
923.134	902.6
923.305	831.69
923.477	816.19
923.648	787.32
923.82	829.95
923.991	774.15
924.163	760.39
924.335	806.89
924.506	772.79
924.677	872.19
924.849	789.46
925.02	831.5
925.192	831.69
925.363	811.54
925.535	823.36
925.706	778.8
925.877	853.78
926.049	782.29
926.22	824.14
926.391	806.51
926.562	835.76
926.734	784.03
926.905	809.61
927.076	760.2
927.247	743.73
927.419	672.63
927.59	652.48
927.761	666.04
927.932	612.18
928.103	613.73
928.274	573.04
928.445	559.09
928.616	567.42
928.787	526.93
928.958	563.35
929.129	527.51
929.3	513.17
929.471	457.18
929.642	406.22
929.813	358.56
929.984	439.94
930.155	347.71
930.326	390.34
930.496	351.39
930.667	306.25
930.838	357.4
931.009	272.54
931.18	295.21
931.35	277.58
931.521	256.46
931.692	225.65
931.863	168.3
932.033	200.08
932.204	205.5
932.374	213.06
932.545	148.54
932.716	213.64
932.886	195.43
933.057	111.53
933.227	119.86
933.398	198.91
933.568	84.22
933.739	42.56
933.909	84.6
934.08	143.11
934.25	73.17
934.421	89.64
934.591	117.54
934.761	125.1
934.932	73.56
935.102	139.63
935.272	83.63
935.443	104.17
935.613	80.73
935.783	109.21
935.953	90.8
936.123	223.91
936.294	58.25
936.464	93.52
936.634	75.88
936.804	69.3
936.974	52.44
937.144	119.86
937.314	94.87
937.484	72.78
937.655	69.1
937.825	107.47
937.995	71.82
938.165	138.46
938.334	93.9
938.504	162.1
938.674	151.45
938.844	192.33
939.014	215.96
939.184	209.76
939.354	258.2
939.524	258.98
939.694	209.57
939.863	190.58
940.033	253.36
940.203	208.99
940.373	200.46
940.542	225.46
940.712	182.64
940.882	213.06
941.051	220.61
941.221	213.44
941.391	236.89
941.56	193.68
941.73	148.73
941.899	283
942.069	196.2
942.238	215.19
942.408	154.93
942.577	209.76
942.747	158.23
942.916	115.41
943.086	155.51
943.255	219.84
943.425	159.97
943.594	120.45
943.763	77.43
943.933	89.06
944.102	74.72
944.271	136.91
944.441	139.24
944.61	137.11
944.779	146.41
944.948	224.29
945.117	104.56
945.287	130.13
945.456	77.24
945.625	111.34
945.794	124.32
945.963	92.93
946.132	143.31
946.301	117.54
946.47	164.04
946.639	90.42
946.808	114.83
946.977	140.4
947.146	174.89
947.315	123.16
947.484	183.22
947.653	122.58
947.822	100.88
947.991	106.88
948.16	189.42
948.329	200.46
948.498	145.25
948.666	154.16
948.835	159.39
949.004	114.44
949.173	132.46
949.341	120.06
949.51	143.5
949.679	146.8
949.847	163.85
950.016	201.05
950.185	195.62
950.353	130.52
950.522	172.95
950.69	206.66
950.859	145.05
951.028	184.38
951.196	124.32
951.365	133.04
951.533	136.72
951.701	169.08
951.87	133.62
952.038	84.99
952.207	140.79
952.375	180.7
952.543	115.22
952.712	113.86
952.88	132.65
953.048	214.99
953.217	155.13
953.385	157.45
953.553	193.49
953.721	108.82
953.89	163.65
954.058	96.23
954.226	118.51
954.394	146.02
954.562	94.48
954.73	131.3
954.898	132.46
955.067	176.44
955.235	137.3
955.403	177.8
955.571	195.23
955.739	163.46
955.907	125.68
956.075	112.7
956.243	104.75
956.41	154.55
956.578	122.58
956.746	115.02
956.914	126.65
957.082	189.23
957.25	170.43
957.418	144.86
957.585	180.31
957.753	209.76
957.921	131.88
958.089	159.58
958.256	154.93
958.424	162.88
958.592	135.36
958.759	117.73
958.927	166.56
959.095	126.45
959.262	130.13
959.43	128.58
959.597	144.08
959.765	136.14
959.932	118.12
960.1	199.11
960.267	147.18
960.435	140.6
960.602	191.94
960.77	140.4
960.937	125.29
961.104	188.06
961.272	104.75
961.439	123.55
961.606	178.96
961.774	168.88
961.941	145.25
962.108	149.31
962.275	171.98
962.443	171.79
962.61	175.86
962.777	225.26
962.944	175.66
963.111	191.94
963.278	199.11
963.446	189.81
963.613	181.86
963.78	210.15
963.947	207.24
964.114	214.03
964.281	241.73
964.448	186.32
964.615	184.38
964.782	176.05
964.949	208.21
965.116	212.28
965.282	235.92
965.449	166.56
965.616	156.68
965.783	189.42
965.95	207.83
966.117	138.66
966.283	179.35
966.45	170.82
966.617	227.59
966.784	242.89
966.95	251.81
967.117	263.04
967.284	191.16
967.45	209.57
967.617	259.36
967.784	244.25
967.95	299.47
968.117	224.1
968.283	280.09
968.45	341.71
968.616	259.94
968.783	248.9
968.949	252.58
969.116	278.16
969.282	251.03
969.449	250.84
969.615	236.31
969.781	233.98
969.948	250.06
970.114	238.24
970.28	301.79
970.447	248.9
970.613	312.84
970.779	263.82
970.945	256.84
971.112	270.21
971.278	272.34
971.444	243.09
971.61	270.99
971.776	253.94
971.942	261.11
972.108	289.2
972.275	221.97
972.441	249.87
972.607	280.68
972.773	230.69
972.939	251.42
973.105	239.02
973.271	170.24
973.437	205.89
973.602	189.23
973.768	258.98
973.934	214.41
974.1	246.19
974.266	146.41
974.432	224.88
974.598	178.18
974.763	248.13
974.929	215.19
975.095	237.86
975.261	169.08
975.426	156.87
975.592	202.6
975.758	258.59
975.923	148.35
976.089	171.01
976.255	234.18
976.42	224.68
976.586	257.43
976.751	219.26
976.917	282.61
977.082	218.87
977.248	189.03
977.413	155.13
977.579	215.96
977.744	229.91
977.91	154.55
978.075	184.19
978.24	236.69
978.406	190.97
978.571	187.68
978.736	163.65
978.902	205.89
979.067	150.28
979.232	145.44
979.397	188.45
979.563	265.95
979.728	175.08
979.893	218.29
980.058	193.1
980.223	212.48
980.388	205.69
980.554	193.68
980.719	177.02
980.884	233.79
981.049	236.11
981.214	177.02
981.379	220.42
981.544	190.2
981.709	207.44
981.874	202.6
982.039	200.08
982.204	227.98
982.368	202.98
982.533	174.31
982.698	220.81
982.863	233.79
983.028	201.63
983.193	226.62
983.357	220.42
983.522	218.29
983.687	194.26
983.852	166.17
984.016	192.13
984.181	215.77
984.346	211.89
984.51	202.6
984.675	204.53
984.839	210.15
985.004	227.39
985.168	223.52
985.333	233.98
985.498	215.96
985.662	220.42
985.827	211.31
985.991	202.79
986.155	172.76
986.32	228.94
986.484	252.58
986.649	223.91
986.813	145.44
986.977	201.82
987.142	255.1
987.306	178.57
987.47	165.2
987.634	202.6
987.799	203.37
987.963	202.4
988.127	207.44
988.291	278.74
988.455	203.76
988.62	198.91
988.784	214.41
988.948	223.13
989.112	173.53
989.276	201.24
989.44	159.2
989.604	190.78
989.768	177.21
989.932	265.37
990.096	163.07
990.26	169.46
990.424	142.15
990.588	221.39
990.752	248.32
990.915	214.99
991.079	185.55
991.243	177.41
991.407	196.2
991.571	181.48
991.734	179.73
991.898	196.4
992.062	296.76
992.226	162.49
992.389	173.34
992.553	134.59
992.717	175.47
992.88	209.76
993.044	172.95
993.207	170.43
993.371	201.24
993.535	205.89
993.698	168.88
993.862	227.98
994.025	206.28
994.189	208.02
994.352	187.48
994.515	159.78
994.679	203.37
994.842	144.28
995.006	207.63
995.169	139.05
995.332	148.54
995.496	173.92
995.659	124.71
995.822	181.28
995.985	180.51
996.149	239.41
996.312	161.52
996.475	239.99
996.638	150.86
996.801	205.5
996.964	214.03
997.128	148.93
997.291	163.65
997.454	169.46
997.617	116.76
997.78	176.83
997.943	143.7
998.106	210.15
998.269	117.15
998.432	163.07
998.595	167.72
998.758	83.44
998.92	108.24
999.083	105.14
999.246	152.03
999.409	132.07
999.572	98.94
999.735	136.91
999.897	142.73
1000.06	141.37
1000.223	109.21
1000.386	145.25
1000.548	153.19
1000.711	168.3
1000.874	157.45
1001.036	120.25
1001.199	155.13
1001.361	117.93
1001.524	160.75
1001.687	151.25
1001.849	101.27
1002.012	136.14
1002.174	149.12
1002.337	153.58
1002.499	147.18
1002.661	159.58
1002.824	90.8
1002.986	111.92
1003.149	117.15
1003.311	107.08
1003.473	183.61
1003.636	116.57
1003.798	167.33
1003.96	159.2
1004.123	121.61
1004.285	110.76
1004.447	137.88
1004.609	123.74
1004.771	181.48
1004.933	104.75
1005.096	89.83
1005.258	102.43
1005.42	79.18
1005.582	127.81
1005.744	125.48
1005.906	93.9
1006.068	127.42
1006.23	59.8
1006.392	70.65
1006.554	68.33
1006.716	134.4
1006.878	151.25
1007.04	57.87
1007.202	64.65
1007.363	131.68
1007.525	99.33
1007.687	112.89
1007.849	162.49
1008.011	67.17
1008.172	60
1008.334	83.25
1008.496	120.06
1008.658	60
1008.819	76.08
1008.981	56.32
1009.143	59.03
1009.304	84.8
1009.466	119.48
1009.627	129.55
1009.789	192.91
1009.95	126.45
1010.112	92.16
1010.273	107.66
1010.435	69.88
1010.596	84.22
1010.758	96.23
1010.919	65.42
1011.081	63.68
1011.242	79.76
1011.403	132.07
1011.565	72.2
1011.726	92.16
1011.887	60.77
1012.049	96.42
1012.21	105.53
1012.371	156.1
1012.532	25.12
1012.693	104.17
1012.855	66.2
1013.016	90.03
1013.177	126.06
1013.338	97.78
1013.499	120.64
1013.66	126.26
1013.821	103.98
1013.982	83.44
1014.143	87.9
1014.304	76.66
1014.465	129.36
1014.626	93.13
1014.787	60
1014.948	150.86
1015.109	37.33
1015.27	115.99
1015.431	57.48
1015.592	68.91
1015.752	95.65
1015.913	87.32
1016.074	80.34
1016.235	68.52
1016.395	90.8
1016.556	61.55
1016.717	61.55
1016.877	123.93
1017.038	51.28
1017.199	68.52
1017.359	62.52
1017.52	87.32
1017.681	60.97
1017.841	28.61
1018.002	69.3
1018.162	61.55
1018.323	115.99
1018.483	57.28
1018.644	45.85
1018.804	38.3
1018.964	57.09
1019.125	58.45
1019.285	55.35
1019.446	44.3
1019.606	26.67
1019.766	17.18
1019.926	101.65
1020.087	85.57
1020.247	28.42
1020.407	80.92
1020.567	111.92
1020.728	46.24
1020.888	18.15
1021.048	35.39
1021.208	10.79
1021.368	44.88
1021.528	84.41
1021.688	82.47
1021.848	62.71
1022.008	83.83
1022.168	41.4
1022.328	80.92
1022.488	65.81
1022.648	61.93
1022.808	69.49
1022.968	78.02
1023.128	26.09
1023.288	44.11
1023.448	53.22
1023.608	78.4
1023.767	75.69
1023.927	32.48
1024.087	32.29
1024.247	26.09
1024.406	25.32
1024.566	22.02
1024.726	2.65
1024.885	65.23
1025.045	94.87
1025.205	56.32
1025.364	17.18
1025.524	46.05
1025.683	52.05
1025.843	62.9
1026.003	43.72
1026.162	123.74
1026.321	75.88
1026.481	68.91
1026.64	52.63
1026.8	80.15
1026.959	76.85
1027.119	31.52
1027.278	39.07
1027.437	32.1
1027.597	41.2
1027.756	47.4
1027.915	59.61
1028.074	56.9
1028.234	16.6
1028.393	57.48
1028.552	9.04
1028.711	-26.41
1028.87	87.7
1029.03	0.52
1029.189	42.75
1029.348	6.33
1029.507	36.94
1029.666	5.55
1029.825	13.89
1029.984	38.88
1030.143	49.15
1030.302	14.47
1030.461	-14.4
1030.62	50.31
1030.779	78.02
1030.938	7.69
1031.097	15.63
1031.255	51.47
1031.414	79.57
1031.573	84.8
1031.732	-24.09
1031.891	0.32
1032.049	82.86
1032.208	53.22
1032.367	18.34
1032.525	29.19
1032.684	52.25
1032.843	49.73
1033.001	-12.66
1033.16	169.46
1033.319	61.16
1033.477	55.15
1033.636	24.74
1033.794	2.65
1033.953	41.01
1034.111	48.18
1034.27	8.65
1034.428	48.95
1034.587	26.29
1034.745	10.01
1034.903	15.05
1035.062	58.06
1035.22	-24.67
1035.378	62.71
1035.537	-3.75
1035.695	51.47
1035.853	41.78
1036.011	31.32
1036.17	51.86
1036.328	-19.25
1036.486	60.97
1036.644	42.95
1036.802	-46.95
1036.96	4.39
1037.119	-7.04
1037.277	2.45
1037.435	-17.11
1037.593	-2
1037.751	12.72
1037.909	20.47
1038.067	20.47
