Data from calibration4_FLMT105791__8__17-36-42-048.txt Node

Date: Mon Mar 20 17:36:42 GMT 2023
User: antho
Spectrometer: FLMT10579
Trigger mode: 0
Integration Time (sec): 1.000000E-1
Scans to average: 10
Electric dark correction enabled: true
Nonlinearity correction enabled: false
Boxcar width: 0
XAxis mode: Wavelengths
Number of Pixels in Spectrum: 3648
>>>>>Begin Spectral Data<<<<<
345.248	-147.51
345.464	-147.51
345.681	-147.51
345.898	-149.25
346.114	-142.66
346.331	-18.86
346.548	31.52
346.764	-0.26
346.981	-11.5
347.197	-47.92
347.414	13.11
347.631	-21.76
347.847	28.8
348.064	2.65
348.28	25.51
348.497	-23.9
348.713	22.6
348.93	28.42
349.146	64.84
349.363	80.92
349.579	109.02
349.796	83.83
350.012	86.73
350.229	138.85
350.445	131.68
350.661	91.97
350.878	122.38
351.094	132.07
351.311	135.75
351.527	117.93
351.743	106.5
351.96	158.42
352.176	148.54
352.392	125.29
352.609	139.43
352.825	96.81
353.041	111.92
353.257	112.7
353.474	138.08
353.69	158.61
353.906	149.51
354.122	103.2
354.339	184
354.555	145.63
354.771	132.85
354.987	213.06
355.203	177.6
355.42	134.59
355.636	143.89
355.852	158.42
356.068	145.63
356.284	135.36
356.5	209.18
356.716	165.98
356.932	154.93
357.148	165.2
357.364	140.21
357.58	198.91
357.796	202.01
358.012	196.01
358.228	151.64
358.444	114.44
358.66	191.36
358.876	184
359.092	99.33
359.308	161.13
359.524	191.16
359.74	166.95
359.956	169.85
360.172	211.31
360.388	251.61
360.604	223.71
360.819	272.93
361.035	213.06
361.251	226.23
361.467	167.14
361.683	230.69
361.898	195.04
362.114	218.68
362.33	221.39
362.546	239.41
362.762	207.24
362.977	242.51
363.193	211.12
363.409	285.91
363.624	240.76
363.84	235.53
364.056	246.38
364.271	264.01
364.487	280.68
364.703	241.54
364.918	236.31
365.134	297.72
365.35	272.34
365.565	375.42
365.781	288.43
365.996	320.2
366.212	382.39
366.427	327.56
366.643	350.04
366.858	332.02
367.074	316.13
367.289	385.3
367.505	454.27
367.72	335.7
367.936	338.22
368.151	391.69
368.367	350.42
368.582	361.47
368.798	337.44
369.013	380.84
369.228	362.05
369.444	367.09
369.659	371.35
369.874	382
370.09	444.97
370.305	340.93
370.52	381.62
370.736	442.26
370.951	370.38
371.166	426.57
371.381	433.54
371.597	417.27
371.812	339.19
372.027	362.24
372.242	382.59
372.458	417.85
372.673	369.8
372.888	379.49
373.103	392.08
373.318	460.67
373.533	375.42
373.749	361.66
373.964	309.35
374.179	374.84
374.394	303.92
374.609	376.77
374.824	314.97
375.039	396.54
375.254	321.17
375.469	435.87
375.684	394.79
375.899	436.64
376.114	435.67
376.329	461.05
376.544	462.02
376.759	425.4
376.974	403.51
377.189	428.89
377.404	413.2
377.619	507.17
377.834	447.3
378.049	512.4
378.264	519.37
378.478	556.18
378.693	521.31
378.908	556.18
379.123	524.22
379.338	534.68
379.553	505.81
379.767	494.77
379.982	505.03
380.197	510.27
380.412	475.97
380.626	538.94
380.841	603.85
381.056	585.44
381.271	641.43
381.485	560.45
381.7	530.22
381.915	517.43
382.129	470.55
382.344	492.63
382.559	456.99
382.773	478.1
382.988	383.75
383.202	434.7
383.417	398.67
383.632	488.18
383.846	417.07
384.061	435.67
384.275	420.75
384.49	499.8
384.704	568.97
384.919	589.12
385.133	629.03
385.348	635.62
385.562	596.87
385.777	646.86
385.991	611.21
386.206	590.86
386.42	583.7
386.634	656.35
386.849	651.31
387.063	657.9
387.277	609.46
387.492	642.59
387.706	615.66
387.92	593.77
388.135	700.14
388.349	689.87
388.563	671.66
388.778	672.43
388.992	716.8
389.206	711.18
389.42	781.51
389.635	779.38
389.849	792.56
390.063	901.25
390.277	890.4
390.491	918.68
390.706	874.12
390.92	914.23
391.134	929.53
391.348	932.83
391.562	913.26
391.776	1007.61
391.99	973.32
392.205	995.6
392.419	902.41
392.633	890.98
392.847	870.83
393.061	742.57
393.275	754
393.489	576.72
393.703	536.81
393.917	553.66
394.131	554.63
394.345	669.33
394.559	774.15
394.773	833.82
394.986	1011.49
395.2	1026.21
395.414	1114.76
395.628	1090.54
395.842	1157.38
396.056	1146.73
396.27	1039
396.484	1043.26
396.697	905.7
396.911	796.82
397.125	711.96
397.339	708.47
397.553	724.55
397.766	896.4
397.98	1047.91
398.194	1217.83
398.408	1290.29
398.621	1382.13
398.835	1460.79
399.049	1498.38
399.262	1581.3
399.476	1614.43
399.69	1641.75
399.903	1696.19
400.117	1602.22
400.331	1696.77
400.544	1670.62
400.758	1779.5
400.971	1716.54
401.185	1750.05
401.398	1728.94
401.612	1864.95
401.826	1833.95
402.039	1863.4
402.253	1868.24
402.466	1911.83
402.68	1906.41
402.893	1966.08
403.106	1895.75
403.32	1910.86
403.533	1909.51
403.747	1834.33
403.96	1950.58
404.174	1994.95
404.387	1931.98
404.6	1963.56
404.814	1974.03
405.027	1928.88
405.24	1931.6
405.454	1937.6
405.667	2036.99
405.88	2007.54
406.094	2049.59
406.307	2017.62
406.52	1932.18
406.733	1934.7
406.947	1905.05
407.16	2045.91
407.373	2070.71
407.586	2072.45
407.799	2037.19
408.012	2103.06
408.226	2075.36
408.439	2228.61
408.652	2227.83
408.865	2322.38
409.078	2407.44
409.291	2365.78
409.504	2359.39
409.717	2413.64
409.93	2351.45
410.143	2188.5
410.357	2095.51
410.57	2016.46
410.783	2074.58
410.996	2180.75
411.209	2283.63
411.421	2497.53
411.634	2528.92
411.847	2482.03
412.06	2550.42
412.273	2574.06
412.486	2586.27
412.699	2626.57
412.912	2655.24
413.125	2587.24
413.338	2587.62
413.55	2512.26
413.763	2516.91
413.976	2613.97
414.189	2533.57
414.402	2598.09
414.615	2724.41
414.827	2600.41
415.04	2675.58
415.253	2684.3
415.466	2722.08
415.678	2760.83
415.891	2707.94
416.104	2681.98
416.316	2733.13
416.529	2780.6
416.742	2888.51
416.954	2895.1
417.167	2853.06
417.38	2786.6
417.592	2767.61
417.805	2708.33
418.017	2709.49
418.23	2746.5
418.442	2755.99
418.655	2750.76
418.868	2739.52
419.08	2812.95
419.293	2859.64
419.505	2881.15
419.718	2826.71
419.93	2910.6
420.142	2860.81
420.355	2881.73
420.567	2829.03
420.78	2923.77
420.992	2960.97
421.205	3060.17
421.417	3098.34
421.629	3160.34
421.842	3147.94
422.054	3092.14
422.266	3168.87
422.479	3111.71
422.691	3011.15
422.903	2994.69
423.115	2867.78
423.328	2896.26
423.54	3006.89
423.752	2992.94
423.964	3073.15
424.177	3119.46
424.389	3092.72
424.601	3257.8
424.813	3218.27
425.025	3225.83
425.238	3210.13
425.45	3172.16
425.662	3166.73
425.874	3476.34
426.086	3208.2
426.298	3248.5
426.51	3251.98
426.722	3278.53
426.934	3306.43
427.146	3279.49
427.358	3205.29
427.57	3212.46
427.782	3123.72
427.994	3122.17
428.206	3167.51
428.418	3346.34
428.63	3433.72
428.842	3419.77
429.054	3266.32
429.266	3311.66
429.478	3218.46
429.69	3116.36
429.902	3089.82
430.114	3075.09
430.325	2868.75
430.537	2744.56
430.749	2696.51
430.961	2483
431.173	2605.45
431.384	2707.17
431.596	2840.85
431.808	3204.13
432.02	3595.11
432.231	3878.56
432.443	4022.52
432.655	3856.09
432.867	3774.52
433.078	3773.94
433.29	3870.23
433.502	3997.72
433.713	4091.3
433.925	4151.94
434.136	3964.58
434.348	3674.55
434.56	3653.81
434.771	3858.22
434.983	3702.44
435.194	4057.78
435.406	4227.5
435.617	4247.07
435.829	4326.7
436.04	4386.95
436.252	4259.08
436.463	4521.61
436.675	4686.87
436.886	4714.19
437.098	4770.38
437.309	4760.5
437.521	4634.95
437.732	4508.63
437.943	4417.18
438.155	4427.83
438.366	4370.49
438.578	4419.31
438.789	4256.76
439	4199.79
439.211	4266.44
439.423	4309.84
439.634	4494.48
439.845	4650.45
440.057	4695.21
440.268	4851.56
440.479	4738.22
440.69	4798.47
440.902	4683.97
441.113	4726.21
441.324	4835.09
441.535	4996.48
441.746	5136.56
441.957	5147.02
442.168	5211.93
442.38	5232.85
442.591	5282.65
442.802	5226.65
443.013	5400.64
443.224	5416.53
443.435	5360.73
443.646	5245.64
443.857	5254.55
444.068	5301.63
444.279	5340.58
444.49	5634.49
444.701	5513.4
444.912	5688.55
445.123	5695.91
445.334	5463.03
445.545	5564.16
445.756	5405.48
445.967	5380.88
446.178	5292.92
446.388	5209.41
446.599	5298.15
446.81	5446.17
447.021	5399.09
447.232	5591.87
447.443	5696.1
447.653	5833.66
447.864	5971.03
448.075	5884.43
448.286	5929.38
448.496	5879
448.707	5926.08
448.918	5787.17
449.129	5901.67
449.339	5940.03
449.55	5983.24
449.761	5913.68
449.971	5966.96
450.182	6071.2
450.393	6179.12
450.603	6139.79
450.814	6409.87
451.024	6322.68
451.235	6592.96
451.446	6533.29
451.656	6520.11
451.867	6424.21
452.077	6305.25
452.288	6416.65
452.498	6329.85
452.709	6293.23
452.919	6088.64
453.13	6021.02
453.34	5955.14
453.55	5777.09
453.761	6100.84
453.971	5972.39
454.182	6168.46
454.392	6265.72
454.602	6451.52
454.813	6481.17
455.023	6343.99
455.233	6257.97
455.444	6353.29
455.654	6176.02
455.864	6333.34
456.075	6418.2
456.285	6420.52
456.495	6522.05
456.705	6578.62
456.916	6760.16
457.126	6792.13
457.336	6695.06
457.546	6592.18
457.756	6740.4
457.967	6801.82
458.177	6640.82
458.387	6686.93
458.597	6552.66
458.807	6646.24
459.017	6548.01
459.227	6607.3
459.437	6604.39
459.647	6747.38
459.857	6707.27
460.068	6852.77
460.278	6880.87
460.488	6844.83
460.698	6922.33
460.908	6971.74
461.117	7123.25
461.327	7141.85
461.537	7272.63
461.747	7264.68
461.957	7187.76
462.167	7379.96
462.377	7298.59
462.587	7307.11
462.797	7465.6
463.007	7364.66
463.216	7542.52
463.426	7695.58
463.636	7544.26
463.846	7366.21
464.056	7353.03
464.265	7341.99
464.475	7346.44
464.685	7546
464.895	7431.5
465.104	7308.08
465.314	7573.32
465.524	7444.67
465.733	7501.63
465.943	7671.74
466.153	7853.48
466.362	7917.61
466.572	7821.32
466.782	7644.81
466.991	7842.24
467.201	7657.21
467.41	7536.7
467.62	7883.32
467.829	7816.28
468.039	7959.27
468.249	7943.77
468.458	8057.11
468.668	8034.63
468.877	8214.04
469.086	8312.08
469.296	8513.19
469.505	8560.46
469.715	8386.48
469.924	8397.91
470.134	8442.66
470.343	8257.25
470.552	8336.1
470.762	8214.82
470.971	8448.67
471.18	8467.08
471.39	8640.48
471.599	8549.81
471.808	8682.72
472.018	8946.41
472.227	9123.49
472.436	9436.39
472.645	9451.51
472.855	9315.3
473.064	9580.93
473.273	9663.47
473.482	9332.16
473.691	9542.37
473.901	9418.38
474.11	9338.94
474.319	9676.45
474.528	9682.07
474.737	10176.7
474.946	9899.45
475.155	10045.92
475.364	10289.85
475.573	10070.92
475.783	10224.36
475.992	10192.4
476.201	10209.64
476.41	10316.78
476.619	10167.98
476.828	10159.46
477.037	10172.44
477.245	10270.67
477.454	10419.27
477.663	10776.93
477.872	10959.83
478.081	11138.27
478.29	11119.67
478.499	11230.49
478.708	11471.52
478.917	11352.75
479.125	11089.83
479.334	11249.29
479.543	11615.66
479.752	11767.75
479.961	11659.26
480.169	11977.2
480.378	12039.97
480.587	12315.48
480.796	12118.05
481.004	12185.67
481.213	12381.55
481.422	12477.06
481.63	12764.58
481.839	12767.88
482.048	12941.28
482.256	12998.05
482.465	13307.08
482.674	13117.98
482.882	13209.04
483.091	13334.59
483.299	13085.62
483.508	13421.77
483.716	13585.1
483.925	13695.73
484.134	13178.04
484.342	13496.56
484.551	13481.64
484.759	13452.58
484.967	13925.9
485.176	13814.69
485.384	13875.92
485.593	13628.12
485.801	13454.71
486.01	12979.26
486.218	12391.62
486.426	11908.8
486.635	11668.56
486.843	11845.45
487.051	12304.24
487.26	12507.87
487.468	12812.25
487.676	13160.41
487.885	13611.26
488.093	13933.07
488.301	14370.75
488.509	14357.96
488.717	14584.06
488.926	14548.61
489.134	14418.41
489.342	14492.81
489.55	14452.7
489.758	14757.08
489.967	15208.9
490.175	15058.55
490.383	15639.6
490.591	16019.34
490.799	15848.85
491.007	15697.53
491.215	15731.63
491.423	15576.24
491.631	15693.27
491.839	15471.81
492.047	15406.33
492.255	15117.84
492.463	15158.14
492.671	14911.69
492.879	15464.26
493.087	15646.57
493.295	15822.88
493.503	15939.91
493.711	16336.31
493.919	16257.46
494.127	16222.2
494.334	16182.87
494.542	16296.01
494.75	16759.26
494.958	16520.96
495.166	16959.21
495.374	17049.89
495.581	17140.17
495.789	17131.26
495.997	17146.76
496.205	16548.27
496.412	16840.25
496.62	17206.82
496.828	17050.47
497.035	17154.12
497.243	17238.98
497.451	17382.94
497.658	17307.96
497.866	17319.97
498.074	17537.74
498.281	17103.55
498.489	17111.11
498.696	16829.01
498.904	16724.97
499.112	16818.55
499.319	17182.21
499.527	17279.67
499.734	17430.4
499.942	17448.81
500.149	17389.14
500.357	17448.81
500.564	16996.6
500.771	17044.85
500.979	16747.45
501.186	16688.93
501.394	17089.6
501.601	16550.21
501.808	16558.74
502.016	16710.25
502.223	16664.52
502.43	16728.85
502.638	16707.73
502.845	17080.5
503.052	17315.13
503.26	17296.91
503.467	17455.01
503.674	17440.67
503.881	17334.31
504.089	17228.91
504.296	17070.62
504.503	16868.34
504.71	16911.55
504.917	17192.1
505.125	17244.6
505.332	17506.74
505.539	17519.33
505.746	17973.87
505.953	18150.37
506.16	18267.97
506.367	18321.45
506.574	18573.32
506.781	18532.25
506.988	18274.95
507.195	18234.07
507.402	18254.22
507.609	18195.51
507.816	17919.42
508.023	17879.51
508.23	17756.48
508.437	17611.75
508.644	17846.96
508.851	17855.29
509.058	18383.25
509.265	18325.71
509.472	18611.88
509.679	18696.93
509.885	18584.56
510.092	18554.91
510.299	18524.11
510.506	18259.84
510.713	18422.97
510.92	18417.55
511.126	18514.61
511.333	18703.13
511.54	18819.38
511.746	18880.41
511.953	18959.85
512.16	19204.16
512.367	19002.28
512.573	18777.14
512.78	18730.64
512.987	18710.88
513.193	18492.33
513.4	18319.12
513.606	18475.67
513.813	18545.61
514.02	18337.53
514.226	18333.65
514.433	18357.1
514.639	18191.64
514.846	18209.46
515.052	18205.59
515.259	18430.14
515.465	18461.72
515.672	18558.01
515.878	18586.49
516.085	18894.17
516.291	18700.81
516.497	18693.25
516.704	18018.43
516.91	17505.19
517.117	16904.96
517.323	16421.95
517.529	16403.35
517.736	16296.79
517.942	16602.52
518.148	16965.22
518.354	17047.56
518.561	17019.66
518.767	16853.04
518.973	17095.61
519.179	17542.39
519.386	17676.85
519.592	17715.79
519.798	17738.85
520.004	18464.43
520.21	18427.43
520.417	18658.76
520.623	18681.82
520.829	18726.96
521.035	18831.58
521.241	18607.42
521.447	18865.3
521.653	19171.61
521.859	19012.74
522.065	19157.47
522.271	19254.73
522.477	19169.67
522.683	19374.27
522.889	18912.57
523.095	18736.65
523.301	18819.57
523.507	18695.77
523.713	18873.63
523.919	18859.68
524.125	19302.39
524.331	19491.68
524.537	19768.16
524.742	19875.11
524.948	19747.82
525.154	19884.99
525.36	19864.06
525.566	19493.23
525.772	19788.11
525.977	19642.8
526.183	19454.68
526.389	19506.02
526.595	18783.73
526.8	18618.08
527.006	18054.46
527.212	17610.2
527.417	17619.31
527.623	17793.49
527.829	18005.45
528.034	18474.31
528.24	18461.14
528.446	18992.78
528.651	19329.52
528.857	19483.54
529.062	19668.96
529.268	19826.86
529.473	20047.35
529.679	20227.73
529.884	20116.13
530.09	19995.04
530.295	19574.61
530.501	19919.09
530.706	19914.24
530.912	20090.36
531.117	20126.4
531.323	20110.51
531.528	20457.71
531.733	20452.86
531.939	20273.45
532.144	20117.29
532.35	20129.5
532.555	19901.46
532.76	19496.72
532.966	19421.93
533.171	19178.59
533.376	19190.79
533.581	19182.85
533.787	19429.1
533.992	19653.65
534.197	19324.67
534.402	19839.46
534.607	19855.15
534.813	19825.51
535.018	19790.63
535.223	20185.88
535.428	20128.72
535.633	20382.92
535.838	20679.16
536.043	20733.6
536.249	20890.73
536.454	20683.42
536.659	20664.82
536.864	20493.94
537.069	20293.8
537.274	20185.88
537.479	20170.18
537.684	20121.17
537.889	20098.69
538.094	20478.24
538.299	20405.59
538.504	20624.52
538.708	20494.9
538.913	20759.95
539.118	20785.53
539.323	20626.07
539.528	20318.98
539.733	20175.42
539.938	20277.71
540.142	20065.37
540.347	19990.77
540.552	19865.23
540.757	19577.51
540.962	19766.03
541.166	19650.75
541.371	19633.12
541.576	19736.77
541.781	19788.5
541.985	20258.73
542.19	19968.49
542.395	20501.1
542.599	20455.38
542.804	20259.7
543.008	20498.39
543.213	20394.54
543.418	20151.39
543.622	20400.16
543.827	20070.02
544.031	20454.61
544.236	20494.71
544.44	20764.99
544.645	20669.86
544.849	20693.11
545.054	20895.38
545.258	20892.86
545.463	20965.71
545.667	20617.55
545.872	20862.06
546.076	20792.69
546.281	20743.87
546.485	20652.42
546.689	20742.9
546.894	20733.21
547.098	20883.37
547.302	20726.43
547.507	20785.91
547.711	20735.93
547.915	20612.12
548.119	20362.19
548.324	20509.44
548.528	20488.51
548.732	20585.97
548.936	20888.02
549.141	20664.43
549.345	20909.52
549.549	20816.72
549.753	21139.11
549.957	21009.69
550.161	21111.41
550.366	21063.17
550.57	20929.87
550.774	20921.15
550.978	20970.75
551.182	20814.39
551.386	20806.64
551.59	20823.5
551.794	20801.22
551.998	20995.55
552.202	20940.33
552.406	20938.59
552.61	21092.23
552.814	21049.99
553.018	20957.57
553.222	20714.42
553.426	20770.41
553.63	21040.5
553.833	20947.11
554.037	20684.39
554.241	20795.6
554.445	21029.07
554.649	21051.93
554.853	20920.37
555.056	21108.31
555.26	21247.81
555.464	21087.96
555.668	21150.16
555.871	21036.04
556.075	21133.88
556.279	20925.41
556.483	20900.42
556.686	20632.27
556.89	20660.95
557.094	20633.43
557.297	20359.67
557.501	20466.23
557.704	20135.7
557.908	20447.05
558.112	20325.96
558.315	20507.11
558.519	20362.38
558.722	20052
558.926	20158.37
559.129	19651.91
559.333	19953.57
559.536	19842.17
559.74	19695.7
559.943	19503.89
560.147	19831.51
560.35	19618.2
560.553	20087.45
560.757	19921.41
560.96	20086.87
561.164	20276.16
561.367	20328.48
561.57	20249.23
561.774	20039.02
561.977	19924.71
562.18	19967.33
562.384	20088.23
562.587	19922.96
562.79	20169.99
562.993	19951.06
563.197	19942.73
563.4	20120.2
563.603	20205.64
563.806	20104.31
564.009	20179.87
564.212	20163.98
564.416	19841.01
564.619	19861.93
564.822	19670.32
565.025	19947.38
565.228	19910.18
565.431	19978.57
565.634	19683.1
565.837	19607.74
566.04	19464.94
566.243	19330.87
566.446	19235.16
566.649	19501.95
566.852	19259.18
567.055	19551.16
567.258	19355.67
567.461	19650.55
567.664	19737.74
567.867	19692.98
568.07	19428.52
568.273	19602.12
568.475	19801.29
568.678	19196.99
568.881	19226.05
569.084	18877.7
569.287	18781.4
569.489	19039.28
569.692	18970.31
569.895	19018.36
570.098	18881.77
570.3	18910.63
570.503	18796.32
570.706	18661.67
570.909	18665.74
571.111	18372.79
571.314	18262.16
571.516	18419.68
571.719	18506.48
571.922	18449.71
572.124	18559.95
572.327	18709.91
572.529	18695.38
572.732	18833.72
572.935	18844.37
573.137	19237.68
573.34	18892.03
573.542	19165.22
573.745	18901.72
573.947	19049.16
574.15	18939.11
574.352	18939.31
574.554	19088.49
574.757	18855.42
574.959	18456.68
575.162	18816.67
575.364	18509.77
575.566	18669.81
575.769	18433.05
575.971	18493.5
576.173	18069.96
576.376	18273.01
576.578	18504.73
576.78	18527.21
576.982	18422.97
577.185	18496.79
577.387	18472.18
577.589	18645.59
577.791	18473.93
577.993	18522.95
578.196	18572.54
578.398	18325.13
578.6	18220.51
578.802	18186.6
579.004	18048.85
579.206	18266.81
579.408	18475.09
579.61	18241.43
579.812	18601.61
580.014	18455.91
580.216	18426.07
580.418	18860.07
580.62	18760.87
580.822	18770.17
581.024	18833.33
581.226	18941.83
581.428	18856.19
581.63	19263.64
581.832	19145.26
582.034	19148.94
582.236	19111.16
582.438	19414.96
582.64	19489.94
582.841	19497.11
583.043	19723.98
583.245	19435.88
583.447	19650.55
583.649	19639.51
583.85	19703.06
584.052	19580.03
584.254	19509.89
584.456	19597.27
584.657	19579.45
584.859	19726.5
585.061	19507.57
585.262	19483.54
585.464	19330.87
585.666	19327.77
585.867	19127.44
586.069	19109.81
586.27	19037.54
586.472	19172.58
586.674	19088.49
586.875	19080.55
587.077	19204.94
587.278	19221.6
587.48	19186.53
587.681	19329.52
587.883	19178.59
588.084	18944.54
588.285	18930.4
588.487	18522.95
588.688	18457.65
588.89	17799.11
589.091	17478.84
589.292	17060.54
589.494	16554.67
589.695	16458.96
589.896	16203.4
590.098	16397.93
590.299	16406.45
590.5	16752.29
590.702	17024.12
590.903	17337.41
591.104	17509.65
591.305	17842.51
591.507	17673.36
591.708	17785.35
591.909	17806.66
592.11	17635.78
592.311	17871.57
592.512	17635.39
592.714	17603.42
592.915	17922.33
593.116	17788.45
593.317	18129.44
593.518	18177.88
593.719	18139.13
593.92	18133.32
594.121	18111.81
594.322	18081.98
594.523	17886.49
594.724	17697.78
594.925	17836.89
595.126	17597.61
595.327	17632.68
595.528	17824.49
595.729	17830.88
595.929	17790.19
596.13	17941.9
596.331	18249.57
596.532	18190.48
596.733	18339.85
596.934	18353.22
597.135	18371.63
597.335	18276.89
597.536	18149.4
597.737	18219.73
597.938	18199.97
598.138	18262.94
598.339	18320.29
598.54	18278.63
598.74	18029.86
598.941	18141.65
599.142	18347.6
599.342	18268.17
599.543	18163.93
599.744	18305.95
599.944	18329.59
600.145	18459.01
600.345	18307.69
600.546	18341.21
600.746	18320.87
600.947	18549.3
601.147	18158.31
601.348	18465.02
601.548	18180.59
601.749	18139.91
601.949	18086.24
602.15	18130.03
602.35	17973.28
602.551	18071.9
602.751	18221.67
602.951	18250.92
603.152	18128.67
603.352	18278.44
603.552	18386.55
603.753	18516.75
603.953	18659.15
604.153	18605.29
604.354	18582.81
604.554	18590.18
604.754	18553.36
604.954	18572.93
605.155	18702.94
605.355	18515
605.555	18692.28
605.755	18606.64
605.955	18497.95
606.155	18575.84
606.356	18558.4
606.556	18397.2
606.756	18629.51
606.956	18452.42
607.156	18641.32
607.356	18427.43
607.556	18499.11
607.756	18528.95
607.956	18526.43
608.156	18561.11
608.356	18270.88
608.556	18546.78
608.756	18265.46
608.956	18375.31
609.156	18210.24
609.356	18238.72
609.556	18132.74
609.755	18299.36
609.955	18179.63
610.155	18132.54
610.355	18241.62
610.555	17961.66
610.755	17846.96
610.954	17954.49
611.154	18194.54
611.354	18108.52
611.554	18031.21
611.753	18169.36
611.953	18051.56
612.153	18120.73
612.352	18028.7
612.552	17882.42
612.752	17897.92
612.951	18152.69
613.151	17849.48
613.351	17905.09
613.55	17926.4
613.75	17889
613.949	17658.83
614.149	17616.6
614.348	17660.96
614.548	17691.96
614.747	17675.88
614.947	17811.31
615.146	17658.83
615.346	17907.99
615.545	17871.57
615.745	17715.02
615.944	17589.08
616.144	17630.16
616.343	17319.78
616.542	17466.64
616.742	17215.15
616.941	17231.62
617.14	17116.34
617.34	17277.54
617.539	17409.67
617.738	17405.61
617.938	17604.2
618.137	17489.5
618.336	17617.18
618.535	17667.16
618.734	17617.18
618.934	17579.2
619.133	17606.52
619.332	17870.4
619.531	17468.77
619.73	17734.78
619.929	17650.5
620.128	17775.86
620.328	17783.22
620.527	17750.67
620.726	17892.1
620.925	17755.32
621.124	17939.38
621.323	17743.89
621.522	17499.96
621.721	17697.97
621.92	17478.45
622.119	17607.88
622.318	17414.71
622.517	17482.52
622.715	17325.98
622.914	17249.44
623.113	17397.86
623.312	16955.14
623.511	17247.12
623.71	17174.27
623.909	16946.23
624.107	17198.88
624.306	16964.64
624.505	17004.94
624.704	16863.31
624.902	16680.6
625.101	16949.72
625.3	16671.11
625.499	16628.1
625.697	16708.12
625.896	16613.37
626.095	16533.16
626.293	16471.94
626.492	16707.34
626.69	16586.25
626.889	16861.18
627.088	16690.68
627.286	16751.9
627.485	16398.51
627.683	16263.08
627.882	15940.29
628.08	15733.37
628.279	15551.25
628.477	15641.34
628.676	15492.74
628.874	15661.49
629.073	15652
629.271	15679.9
629.469	15738.99
629.668	15719.04
629.866	15553.77
630.065	15582.44
630.263	15726.4
630.461	15642.31
630.66	15774.25
630.858	15743.64
631.056	16011.59
631.254	16033.1
631.453	15797.7
631.651	15880.81
631.849	15834.12
632.047	15733.18
632.245	15753.72
632.444	15826.57
632.642	16094.91
632.84	16178.8
633.038	15956.57
633.236	15942.04
633.434	16141.6
633.632	16228.98
633.83	15965.48
634.028	16343.29
634.227	16088.9
634.425	16433.19
634.623	16147.6
634.821	16324.5
635.019	16375.45
635.216	16496.93
635.414	16517.27
635.612	16379.71
635.81	16398.89
636.008	16368.67
636.206	16479.11
636.404	16333.8
636.602	16420.01
636.8	16229.56
636.997	16421.76
637.195	16490.54
637.393	16503.52
637.591	16714.32
637.789	16607.17
637.986	16650.57
638.184	16578.69
638.382	16764.69
638.58	16637.59
638.777	16739.31
638.975	16737.76
639.173	16756.75
639.37	16646.7
639.568	16659.68
639.765	16670.14
639.963	16511.07
640.161	16388.63
640.358	16614.34
640.556	16322.17
640.753	16421.18
640.951	16383.01
641.148	16394.05
641.346	16418.08
641.543	16256.1
641.741	16442.88
641.938	16261.92
642.136	16364.21
642.333	16244.28
642.531	16484.72
642.728	16421.37
642.925	16563.97
643.123	16439.58
643.32	16463.99
643.517	16270.25
643.715	16336.31
643.912	16377.58
644.109	16400.44
644.306	16496.74
644.504	16272.96
644.701	16392.89
644.898	16363.25
645.095	16311.51
645.293	16247.58
645.49	16176.47
645.687	16150.32
645.884	16170.66
646.081	15832.18
646.278	15901.93
646.475	15719.42
646.672	15768.05
646.87	15588.84
647.067	15539.04
647.264	15480.34
647.461	15406.52
647.658	15173.06
647.855	15355.95
648.052	15164.72
648.249	15083.16
648.446	15112.99
648.642	15311.39
648.839	14976.6
649.036	15044.6
649.233	15026
649.43	14974.46
649.627	14651.1
649.824	14849.5
650.021	14768.9
650.217	15039.95
650.414	15132.95
650.611	15228.86
650.808	15503.01
651.004	15420.08
651.201	15444.69
651.398	15496.03
651.595	15216.65
651.791	15075.21
651.988	15245.32
652.185	14951.41
652.381	15427.64
652.578	15192.04
652.775	15295.12
652.971	15419.31
653.168	15289.69
653.364	15603.37
653.561	15261.21
653.757	15396.45
653.954	15594.84
654.15	15329.02
654.347	15500.29
654.543	15441.78
654.74	15194.17
654.936	15073.86
655.133	14999.85
655.329	15016.12
655.525	14704.58
655.722	14707.68
655.918	14300.42
656.115	13832.91
656.311	13542.87
656.507	13072.64
656.704	12947.87
656.9	13136.97
657.096	13393.68
657.292	13395.43
657.489	13754.44
657.685	13988.29
657.881	13988.87
658.077	14151.43
658.273	14476.34
658.47	14739.06
658.666	14697.21
658.862	14928.55
659.058	14856.09
659.254	14922.54
659.45	15141.09
659.646	14984.15
659.842	15051.38
660.038	15313.72
660.234	15020.77
660.43	15193.4
660.626	15356.34
660.822	15406.52
661.018	15295.12
661.214	15375.13
661.41	15208.9
661.606	15405.94
661.802	15605.69
661.998	15487.9
662.194	15496.42
662.39	15457.67
662.586	15471.62
662.781	15469.88
662.977	15525.87
663.173	15353.63
663.369	15407.88
663.564	15351.5
663.76	15411.17
663.956	15374.36
664.152	15205.8
664.347	15109.7
664.543	15379.01
664.739	15194.95
664.934	15115.71
665.13	15358.08
665.326	15310.04
665.521	15398.77
665.717	15187.78
665.912	15330.38
666.108	15025.03
666.304	15329.6
666.499	15150.77
666.695	14920.02
666.89	15195.92
667.086	15194.95
667.281	15135.86
667.477	15262.76
667.672	15168.79
667.867	15064.94
668.063	15037.63
668.258	14981.05
668.454	15091.68
668.649	14959.55
668.844	15123.84
669.04	15169.57
669.235	15015.15
669.43	15152.91
669.626	14953.35
669.821	15024.84
670.016	14989.58
670.211	15048.48
670.407	14787.31
670.602	15072.31
670.797	14879.53
670.992	15067.66
671.187	14887.47
671.382	14930.1
671.578	14692.56
671.773	14783.04
671.968	14562.95
672.163	14805.32
672.358	14699.15
672.553	14573.8
672.748	14777.81
672.943	14778.01
673.138	14709.03
673.333	14852.21
673.528	14620.3
673.723	14851.82
673.918	14532.92
674.113	14653.81
674.308	14771.03
674.503	14583.87
674.698	14713.49
674.892	14458.71
675.087	14540.28
675.282	14529.62
675.477	14554.61
675.672	14641.99
675.867	14371.72
676.061	14550.16
676.256	14380.82
676.451	14567.79
676.646	14536.6
676.84	14309.33
677.035	14314.76
677.23	14431.97
677.424	14441.85
677.619	14372.88
677.814	14536.4
678.008	14428.1
678.203	14365.9
678.397	14336.26
678.592	14249.08
678.787	14395.16
678.981	14359.7
679.176	14218.27
679.37	14239.39
679.565	14326.57
679.759	14322.31
679.954	14242.88
680.148	14157.24
680.342	14402.52
680.537	14190.37
680.731	14186.49
680.926	14225.63
681.12	14113.84
681.314	14149.3
681.509	14163.63
681.703	14111.71
681.897	13991.2
682.092	14040.6
682.286	14125.85
682.48	14033.43
682.674	13933.27
682.869	13893.55
683.063	14096.79
683.257	13951.09
683.451	13806.94
683.645	13895.49
683.839	13815.47
684.034	13676.36
684.228	13574.64
684.422	13525.04
684.616	13653.69
684.81	13625.98
685.004	13485.32
685.198	13602.73
685.392	13493.07
685.586	13610.29
685.78	13433.21
685.974	13424.49
686.168	13352.22
686.362	13215.63
686.556	12460.01
686.75	11956.46
686.944	11094.29
687.138	10270.67
687.331	9675.87
687.525	9246.72
687.719	9079.12
687.913	9207.77
688.107	9334.29
688.301	9430.39
688.494	9546.64
688.688	9498.78
688.882	9377.11
689.076	9387.18
689.269	9391.83
689.463	9580.54
689.657	9597.79
689.85	9630.14
690.044	9863.8
690.238	9978.69
690.431	9987.61
690.625	10123.81
690.818	10277.84
691.012	10356.89
691.205	10605.08
691.399	10659.91
691.593	10712.41
691.786	10773.44
691.98	11060.19
692.173	11172.95
692.366	11177.99
692.56	11242.51
692.753	11162.29
692.947	11128.97
693.14	11108.05
693.333	11103.78
693.527	11048.56
693.72	11071.43
693.914	11042.56
694.107	10898.6
694.3	10895.5
694.493	10753.29
694.687	11037.52
694.88	10862.18
695.073	11046.24
695.266	10990.44
695.46	11038.88
695.653	11025.7
695.846	10980.17
696.039	11141.76
696.232	11131.49
696.425	11429.67
696.618	11479.46
696.812	11700.14
697.005	11700.52
697.198	11919.85
697.391	11809.99
697.584	11999.86
697.777	11979.91
697.97	11760.59
698.163	11845.25
698.356	11764.27
698.549	11826.27
698.742	11802.05
698.935	11584.28
699.127	11493.02
699.32	11355.07
699.513	11354.49
699.706	11224.87
699.899	11380.26
700.092	11145.24
700.285	11130.13
700.477	10976.1
700.67	11158.61
700.863	10968.93
701.056	11177.41
701.248	11048.18
701.441	11092.93
701.634	10922.44
701.826	11087.51
702.019	10830.79
702.212	10923.6
702.404	10873.8
702.597	10751.16
702.79	10867.8
702.982	10924.76
703.175	11032.87
703.367	11031.9
703.56	11083.63
703.752	11202.01
703.945	11111.73
704.137	11143.11
704.33	11194.65
704.522	11146.02
704.715	11266.72
704.907	11220.42
705.1	11287.26
705.292	11242.89
705.484	11132.65
705.677	11211.31
705.869	11279.9
706.061	11285.52
706.254	11299.47
706.446	11143.89
706.638	11185.54
706.831	11262.27
707.023	11160.94
707.215	11409.13
707.407	11385.3
707.599	11145.63
707.792	11367.86
707.984	11359.92
708.176	11243.86
708.368	11273.89
708.56	11317.1
708.752	11300.63
708.944	11197.36
709.136	11242.12
709.329	11120.83
709.521	11299.47
709.713	11249.09
709.905	11283.77
710.097	11331.24
710.289	11185.54
710.481	11204.92
710.672	11134.98
710.864	11297.72
711.056	11224.1
711.248	11156.29
711.44	11188.45
711.632	11128.58
711.824	11196.78
712.016	11086.73
712.207	11192.91
712.399	10999.55
712.591	11123.93
712.783	11134.01
712.975	10985.6
713.166	10984.05
713.358	11010.78
713.55	10948.98
713.741	11013.88
713.933	10968.35
714.125	10860.44
714.316	10752.91
714.508	10819.17
714.7	10710.86
714.891	10724.43
715.083	10652.35
715.274	10529.13
715.466	10649.45
715.657	10559.55
715.849	10364.06
716.04	10294.31
716.232	10183.48
716.423	9950.02
716.615	9691.17
716.806	9394.74
716.998	9056.46
717.189	8637.57
717.381	8427.94
717.572	8200.87
717.763	8041.41
717.955	7917.22
718.146	7689.57
718.337	7519.07
718.528	7276.89
718.72	7076.75
718.911	7053.88
719.102	6902.18
719.293	6877.38
719.485	6809.76
719.676	6720.06
719.867	6579.4
720.058	6672.98
720.249	6550.72
720.44	6607.3
720.632	6792.13
720.823	6927.76
721.014	7252.86
721.205	7527.79
721.396	7684.34
721.587	7954.42
721.778	8078.81
721.969	8253.37
722.16	8355.48
722.351	8592.43
722.542	8672.06
722.733	8620.33
722.924	8512.61
723.115	8455.26
723.305	8269.45
723.496	8177.42
723.687	7836.62
723.878	7877.7
724.069	7735.87
724.26	7690.15
724.45	7520.04
724.641	7435.18
724.832	7482.65
725.023	7311.57
725.213	7283.28
725.404	7263.33
725.595	7182.34
725.785	7152.5
725.976	7260.03
726.167	7214.89
726.357	7212.37
726.548	7335.4
726.739	7204.81
726.929	7390.42
727.12	7341.79
727.31	7337.34
727.501	7112.2
727.691	7102.71
727.882	7130.8
728.072	7214.31
728.263	7264.88
728.453	7354.58
728.644	7369.69
728.834	7244.53
729.024	7151.73
729.215	7120.92
729.405	7153.86
729.596	7293.36
729.786	7247.83
729.976	7354.77
730.167	7317.96
730.357	7217.41
730.547	7287.74
730.737	7190.09
730.928	7303.43
731.118	7381.12
731.308	7266.81
731.498	7274.37
731.688	7447.19
731.879	7512.68
732.069	7570.41
732.259	7704.29
732.449	7798.07
732.639	7899.98
732.829	7946.67
733.019	8016.23
733.209	8187.11
733.399	8220.63
733.589	8372.14
733.779	8477.73
733.969	8447.9
734.159	8634.67
734.349	8595.53
734.539	8660.24
734.729	8671.67
734.919	8591.46
735.109	8786.37
735.299	8565.89
735.488	8705.77
735.678	8592.62
735.868	8594.76
736.058	8523.84
736.248	8538.76
736.437	8530.04
736.627	8475.8
736.817	8642.03
737.007	8491.3
737.196	8555.81
737.386	8558.53
737.576	8551.55
737.765	8683.88
737.955	8517.84
738.144	8743.55
738.334	8678.07
738.524	8527.91
738.713	8621.3
738.903	8588.94
739.092	8579.64
739.282	8550.97
739.471	8573.25
739.661	8567.44
739.85	8727.86
740.04	8680
740.229	8696.28
740.419	8703.45
740.608	8741.81
740.797	8628.66
740.987	8700.15
741.176	8655.4
741.365	8681.17
741.555	8554.07
741.744	8750.14
741.933	8615.68
742.123	8720.11
742.312	8654.43
742.501	8719.34
742.69	8730.57
742.88	8664.51
743.069	8814.66
743.258	8742
743.447	8839.27
743.636	8764.48
743.825	8745.88
744.014	8720.3
744.204	8824.93
744.393	8697.44
744.582	8880.53
744.771	8829.97
744.96	8732.7
745.149	8725.73
745.338	8732.51
745.527	8824.54
745.716	8696.86
745.905	8708.68
746.094	8764.67
746.283	8789.28
746.471	8652.3
746.66	8774.94
746.849	8764.29
747.038	8736.77
747.227	8681.36
747.416	8702.48
747.604	8581.39
747.793	8657.14
747.982	8625.17
748.171	8715.07
748.359	8612.39
748.548	8583.71
748.737	8609.87
748.926	8600.37
749.114	8389.19
749.303	8538.57
749.491	8491.3
749.68	8372.92
749.869	8512.22
750.057	8409.92
750.246	8408.37
750.434	8430.85
750.623	8351.02
750.811	8349.08
751	8410.7
751.188	8331.84
751.377	8270.04
751.565	8299.1
751.754	8291.15
751.942	8200.29
752.131	8376.6
752.319	8190.41
752.507	8174.71
752.696	8224.51
752.884	8193.7
753.072	8148.17
753.261	8296.58
753.449	8169.87
753.637	8099.54
753.825	8196.22
754.014	8136.93
754.202	8165.22
754.39	8145.26
754.578	8155.92
754.766	8011.77
754.955	8011.77
755.143	8114.46
755.331	8066.21
755.519	8119.88
755.707	8017.58
755.895	7975.35
756.083	8006.35
756.271	7903.27
756.459	7926.13
756.647	7878.09
756.835	7918.19
757.023	7878.28
757.211	7876.73
757.399	7844.76
757.587	7836.04
757.775	7694.99
757.963	7749.82
758.151	7759.12
758.339	7669.42
758.526	7635.71
758.714	7536.32
758.902	7393.33
759.09	7122.66
759.278	6655.15
759.465	6074.1
759.653	5312.48
759.841	4768.05
760.028	4132.37
760.216	3539.31
760.404	3245.98
760.591	2658.92
760.779	2266.39
760.967	1993.4
761.154	1695.03
761.342	1658.61
761.529	1662.87
761.717	1749.86
761.905	1755.29
762.092	1872.31
762.28	1776.4
762.467	1730.1
762.655	1641.56
762.842	1657.64
763.029	1673.72
763.217	1688.25
763.404	1648.34
763.592	1695.8
763.779	1676.82
763.966	1705.69
764.154	1830.85
764.341	1919.97
764.528	1966.47
764.716	2125.15
764.903	2240.43
765.09	2394.46
765.277	2515.36
765.465	2788.93
765.652	2955.36
765.839	3093.88
766.026	3433.33
766.213	3516.64
766.4	3798.35
766.588	4124.04
766.775	4273.42
766.962	4441.59
767.149	4749.26
767.336	4987.18
767.523	5033.1
767.71	5331.47
767.897	5487.83
768.084	5649.22
768.271	5799.76
768.458	5920.27
768.645	6005.71
768.832	6046.59
769.019	6180.86
769.206	6257.39
769.392	6329.27
769.579	6448.42
769.766	6488.72
769.953	6471.09
770.14	6595.87
770.327	6597.22
770.513	6665.62
770.7	6775.47
770.887	6638.1
771.073	6605.17
771.26	6727.81
771.447	6715.99
771.634	6613.88
771.82	6820.42
772.007	6624.93
772.193	6750.09
772.38	6747.57
772.567	6675.69
772.753	6647.4
772.94	6757.45
773.126	6754.16
773.313	6792.91
773.499	6678.98
773.686	6778.18
773.872	6621.44
774.059	6763.26
774.245	6680.15
774.432	6709.4
774.618	6606.33
774.804	6639.85
774.991	6576.3
775.177	6613.69
775.363	6607.88
775.55	6650.12
775.736	6530.96
775.922	6610.2
776.109	6586.18
776.295	6560.41
776.481	6598.97
776.667	6570.68
776.853	6526.5
777.04	6533.29
777.226	6503.84
777.412	6567
777.598	6494.15
777.784	6459.47
777.97	6442.61
778.156	6487.95
778.342	6490.86
778.528	6454.82
778.715	6375.77
778.901	6343.99
779.087	6354.26
779.272	6335.86
779.458	6304.28
779.644	6316.68
779.83	6295.36
780.016	6419.56
780.202	6269.98
780.388	6341.28
780.574	6151.41
780.76	6276.96
780.946	6269.4
781.131	6230.27
781.317	6238.4
781.503	6145.4
781.689	6158
781.874	6368.21
782.06	6193.65
782.246	6232.01
782.432	6156.83
782.617	6171.37
782.803	6163.23
782.989	6120.02
783.174	6061.7
783.36	6034.77
783.545	6042.33
783.731	6068.49
783.916	5925.69
784.102	6005.91
784.288	6018.31
784.473	5987.69
784.659	5920.08
784.844	5977.04
785.029	5957.08
785.215	5863.31
785.4	5904.38
785.586	5947.98
785.771	5798.6
785.956	5881.71
786.142	5807.9
786.327	5821.65
786.512	5792.4
786.698	5830.76
786.883	5692.42
787.068	5691.45
787.254	5725.55
787.439	5658.32
787.624	5629.65
787.809	5643.21
787.994	5564.94
788.18	5686.03
788.365	5516.89
788.55	5522.89
788.735	5610.27
788.92	5519.99
789.105	5488.41
789.29	5507.2
789.475	5375.45
789.66	5411.49
789.845	5392.7
790.03	5373.9
790.215	5433.58
790.4	5394.83
790.585	5399.86
790.77	5317.13
790.955	5341.74
791.14	5286.33
791.325	5437.06
791.51	5276.83
791.695	5339.8
791.879	5339.42
792.064	5287.68
792.249	5384.75
792.434	5262.89
792.618	5310.74
792.803	5354.53
792.988	5310.16
793.173	5352.78
793.357	5352.78
793.542	5279.93
793.727	5381.26
793.911	5407.23
794.096	5395.02
794.281	5388.82
794.465	5457.6
794.65	5408.2
794.834	5504.49
795.019	5495.77
795.203	5491.51
795.388	5460.7
795.572	5460.31
795.757	5421.76
795.941	5444.23
796.126	5335.35
796.31	5281.48
796.494	5384.36
796.679	5321.2
796.863	5335.73
797.048	5415.95
797.232	5298.34
797.416	5445.2
797.601	5410.91
797.785	5450.24
797.969	5519.99
798.153	5409.75
798.338	5485.11
798.522	5517.86
798.706	5548.08
798.89	5551.76
799.074	5599.42
799.258	5627.52
799.443	5501.97
799.627	5484.34
799.811	5537.23
799.995	5425.05
800.179	5357.63
800.363	5428.35
800.547	5441.71
800.731	5507.98
800.915	5339.22
801.099	5400.25
801.283	5370.22
801.467	5367.31
801.651	5400.83
801.835	5421.76
802.019	5390.76
802.202	5385.33
802.386	5309.38
802.57	5282.07
802.754	5364.41
802.938	5328.76
803.121	5330.5
803.305	5385.33
803.489	5358.79
803.673	5419.43
803.856	5356.27
804.04	5257.65
804.224	5374.87
804.407	5338.06
804.591	5350.85
804.775	5311.32
804.958	5327.6
805.142	5446.94
805.326	5377
805.509	5437.06
805.693	5492.48
805.876	5434.16
806.06	5451.01
806.243	5429.51
806.427	5462.06
806.61	5588.57
806.794	5447.33
806.977	5483.37
807.16	5441.52
807.344	5434.55
807.527	5442.1
807.71	5432.41
807.894	5410.91
808.077	5413.62
808.26	5359.37
808.444	5367.12
808.627	5398.31
808.81	5279.16
808.993	5246.61
809.177	5208.64
809.36	5218.9
809.543	5220.84
809.726	5104.21
809.909	5074.37
810.092	5049.38
810.276	5074.37
810.459	5042.79
810.642	5027.68
810.825	4973.43
811.008	4965.29
811.191	4797.31
811.374	4844.78
811.557	4820.17
811.74	4864.35
811.923	4745.19
812.106	4743.06
812.289	4689.2
812.472	4667.31
812.654	4617.13
812.837	4570.82
813.02	4491.77
813.203	4358.67
813.386	4208.32
813.569	4175.38
813.751	4093.62
813.934	4076.38
814.117	4033.56
814.3	3955.87
814.482	3852.99
814.665	3753.21
814.848	3695.66
815.03	3621.46
815.213	3610.8
815.396	3564.11
815.578	3533.69
815.761	3456
815.943	3507.15
816.126	3391.29
816.309	3318.44
816.491	3192.89
816.674	3094.47
816.856	3235.71
817.039	3210.71
817.221	3314.18
817.403	3196.57
817.586	3250.05
817.768	3200.25
817.951	3158.21
818.133	3117.33
818.315	3164.8
818.498	3243.85
818.68	3297.71
818.862	3273.68
819.045	3310.49
819.227	3320.96
819.409	3279.49
819.591	3292.28
819.774	3256.25
819.956	3244.04
820.138	3363.58
820.32	3388.96
820.502	3519.55
820.684	3643.16
820.866	3659.63
821.048	3741.97
821.231	3741.97
821.413	3795.44
821.595	3733.25
821.777	3738.48
821.959	3743.91
822.141	3835.94
822.323	3577.48
822.505	3430.81
822.686	3259.73
822.868	3138.64
823.05	2962.72
823.232	2857.71
823.414	2781.76
823.596	2883.67
823.778	2910.79
823.96	2942.76
824.141	2975.51
824.323	3035.76
824.505	3236.68
824.687	3284.53
824.868	3437.98
825.05	3571.08
825.232	3619.91
825.413	3715.43
825.595	3645.29
825.777	3619.91
825.958	3585.03
826.14	3631.92
826.321	3701.48
826.503	3678.03
826.685	3714.07
826.866	3716.98
827.048	3675.71
827.229	3591.04
827.411	3515.29
827.592	3447.09
827.773	3450.19
827.955	3326.38
828.136	3318.44
828.318	3288.79
828.499	3348.47
828.68	3272.13
828.862	3272.71
829.043	3248.3
829.224	3215.95
829.406	3205.68
829.587	3193.47
829.768	3284.34
829.949	3249.27
830.131	3277.56
830.312	3339.94
830.493	3284.73
830.674	3311.08
830.855	3263.03
831.036	3299.84
831.218	3365.52
831.399	3363.97
831.58	3333.94
831.761	3263.22
831.942	3255.08
832.123	3298.29
832.304	3226.02
832.485	3235.51
832.666	3279.11
832.847	3338.78
833.028	3291.12
833.209	3270.39
833.389	3254.11
833.57	3221.37
833.751	3205.48
833.932	3254.31
834.113	3253.73
834.294	3265.16
834.475	3347.69
834.655	3417.44
834.836	3376.76
835.017	3353.31
835.198	3355.83
835.378	3371.72
835.559	3449.02
835.74	3343.24
835.92	3373.07
836.101	3350.99
836.281	3452.12
836.462	3370.94
836.643	3442.24
836.823	3471.11
837.004	3468.98
837.184	3476.34
837.365	3472.85
837.545	3462.59
837.726	3462.78
837.906	3496.88
838.087	3434.49
838.267	3462.97
838.448	3429.26
838.628	3424.42
838.808	3429.65
838.989	3466.65
839.169	3465.69
839.349	3503.27
839.53	3488.16
839.71	3499.98
839.89	3419.77
840.07	3502.89
840.251	3470.34
840.431	3513.93
840.611	3451.15
840.791	3420.74
840.971	3433.14
841.151	3432.75
841.332	3392.64
841.512	3463.55
841.692	3412.21
841.872	3446.31
842.052	3428.68
842.232	3423.26
842.412	3350.02
842.592	3428.87
842.772	3454.06
842.952	3470.14
843.132	3429.07
843.312	3400.59
843.492	3348.08
843.672	3422.87
843.851	3312.82
844.031	3366.1
844.211	3358.93
844.391	3294.03
844.571	3339.17
844.751	3337.43
844.93	3340.33
845.11	3334.91
845.29	3324.44
845.47	3362.81
845.649	3354.09
845.829	3409.31
846.009	3323.86
846.188	3415.89
846.368	3377.14
846.547	3325.22
846.727	3379.47
846.907	3294.03
847.086	3311.27
847.266	3373.46
847.445	3334.33
847.625	3343.24
847.804	3276.78
847.984	3303.13
848.163	3239.39
848.343	3239.58
848.522	3267.87
848.701	3267.48
848.881	3213.23
849.06	3246.75
849.239	3210.91
849.419	3203.35
849.598	3122.95
849.777	3068.5
849.957	3046.61
850.136	2972.6
850.315	2982.48
850.494	2964.07
850.674	3006.12
850.853	3063.27
851.032	3017.35
851.211	3062.11
851.39	3020.45
851.569	3000.11
851.748	2953.61
851.927	3030.34
852.107	3005.34
852.286	2991.78
852.465	2964.27
852.644	3045.45
852.823	3016.58
853.002	3038.09
853.181	2999.53
853.359	3005.92
853.538	2920.67
853.717	2977.64
853.896	2818.76
854.075	2713.56
854.254	2644.2
854.433	2545
854.611	2566.12
854.79	2491.33
854.969	2606.03
855.148	2645.94
855.327	2616.49
855.505	2673.07
855.684	2687.21
855.863	2750.95
856.041	2768.78
856.22	2757.93
856.399	2785.44
856.577	2888.9
856.756	2869.33
856.934	2981.51
857.113	2981.51
857.291	2923.77
857.47	2873.98
857.648	2916.8
857.827	2854.99
858.005	2931.52
858.184	2854.41
858.362	2965.62
858.541	2893.94
858.719	2857.13
858.898	2832.33
859.076	2853.83
859.254	2911.18
859.433	2849.57
859.611	2833.1
859.789	2766.26
859.967	2865.46
860.146	2897.81
860.324	2790.67
860.502	2854.61
860.68	2735.45
860.859	2770.52
861.037	2793
861.215	2779.63
861.393	2776.91
861.571	2737.58
861.749	2728.48
861.927	2767.23
862.105	2758.9
862.283	2734.68
862.461	2709.68
862.639	2690.7
862.817	2719.76
862.995	2725.77
863.173	2714.92
863.351	2729.64
863.529	2707.17
863.707	2700
863.885	2701.16
864.063	2647.3
864.241	2708.91
864.418	2717.05
864.596	2654.27
864.774	2609.71
864.952	2656.21
865.129	2631.41
865.307	2571.54
865.485	2537.64
865.663	2617.07
865.84	2448.13
866.018	2479.51
866.196	2289.25
866.373	2310.37
866.551	2206.33
866.728	2246.43
866.906	2318.51
867.084	2354.93
867.261	2365.01
867.439	2386.9
867.616	2407.63
867.794	2379.73
867.971	2428.56
868.149	2431.85
868.326	2481.06
868.503	2452.39
868.681	2485.71
868.858	2448.9
869.035	2412.09
869.213	2483.19
869.39	2418.68
869.567	2525.24
869.745	2424.29
869.922	2435.73
870.099	2431.46
870.276	2480.48
870.454	2435.73
870.631	2439.02
870.808	2453.16
870.985	2497.14
871.162	2493.46
871.339	2477.38
871.517	2362.49
871.694	2393.1
871.871	2390.97
872.048	2372.76
872.225	2401.04
872.402	2381.67
872.579	2351.25
872.756	2396.98
872.933	2338.85
873.11	2358.81
873.287	2362.49
873.463	2303.59
873.64	2298.94
873.817	2346.6
873.994	2340.4
874.171	2248.57
874.348	2340.01
874.524	2286.73
874.701	2285.57
874.878	2238.68
875.055	2303.4
875.231	2275.5
875.408	2270.85
875.585	2207.88
875.762	2229.97
875.938	2232.1
876.115	2228.61
876.291	2196.64
876.468	2199.94
876.645	2184.82
876.821	2177.07
876.998	2224.73
877.174	2168.74
877.351	2197.42
877.527	2163.9
877.704	2193.93
877.88	2195.48
878.057	2133.87
878.233	2239.65
878.409	2140.26
878.586	2182.5
878.762	2113.14
878.938	2151.69
879.115	2060.24
879.291	2132.32
879.467	2079.42
879.644	2103.84
879.82	2120.69
879.996	2101.12
880.172	2016.84
880.349	2101.32
880.525	2116.82
880.701	2015.88
880.877	2034.67
881.053	2058.11
881.229	2027.11
881.405	2071.48
881.581	2032.34
881.757	2058.69
881.933	2094.54
882.109	2075.36
882.285	2083.3
882.461	2038.35
882.637	2042.22
882.813	1995.34
882.989	2075.55
883.165	2116.24
883.341	2031.38
883.517	2056.17
883.693	2080.39
883.869	2093.18
884.044	2002.7
884.22	2040.09
884.396	2102.67
884.572	2060.44
884.747	2079.23
884.923	2091.44
885.099	2086.59
885.275	2072.64
885.45	2025.18
885.626	2056.95
885.801	2020.91
885.977	2023.43
886.153	1962.4
886.328	2016.84
886.504	1981
886.679	2012.19
886.855	2003.28
887.03	2016.07
887.206	2080.01
887.381	2015.29
887.557	2022.85
887.732	2049.97
887.908	2023.82
888.083	2058.31
888.258	2045.71
888.434	2021.88
888.609	1976.16
888.784	2106.36
888.96	2035.25
889.135	2023.82
889.31	2031.96
889.485	2055.4
889.661	2034.09
889.836	2072.45
890.011	2025.37
890.186	2017.04
890.361	2021.69
890.537	2009.68
890.712	2023.43
890.887	2098.8
891.062	2023.82
891.237	2061.02
891.412	1993.79
891.587	2015.88
891.762	2023.04
891.937	2053.46
892.112	1937.41
892.287	1980.81
892.462	1894.78
892.637	1917.06
892.812	1835.3
892.987	1885.1
893.161	1860.3
893.336	1849.06
893.511	1826.78
893.686	1831.04
893.861	1834.14
894.035	1845.57
894.21	1848.28
894.385	1730.29
894.56	1768.65
894.734	1639.42
894.909	1639.23
895.084	1626.64
895.258	1571.61
895.433	1608.23
895.608	1557.66
895.782	1520.85
895.957	1521.04
896.131	1513.49
896.306	1405.57
896.48	1387.75
896.655	1358.3
896.829	1317.03
897.004	1316.45
897.178	1355.97
897.353	1297.85
897.527	1362.95
897.701	1320.71
897.876	1308.7
898.05	1419.13
898.224	1353.84
898.399	1364.88
898.573	1245.73
898.747	1164.36
898.921	1175.79
899.096	1064.77
899.27	1063.22
899.444	1074.46
899.618	1168.62
899.792	1187.99
899.967	1230.62
900.141	1228.1
900.315	1129.48
900.489	1144.01
900.663	1133.55
900.837	1122.89
901.011	1082.98
901.185	1204.07
901.359	1128.71
901.533	1171.72
901.707	1190.32
901.881	1156.61
902.055	1116.11
902.229	1160.87
902.403	1173.85
902.576	1148.47
902.75	1141.11
902.924	1266.27
903.098	1258.52
903.272	1380.38
903.446	1401.89
903.619	1389.49
903.793	1436.76
903.967	1437.73
904.14	1526.28
904.314	1491.98
904.488	1444.9
904.661	1486.36
904.835	1463.7
905.009	1506.13
905.182	1519.69
905.356	1510
905.529	1470.28
905.703	1431.73
905.876	1394.33
906.05	1363.53
906.223	1343.57
906.397	1242.44
906.57	1236.43
906.744	1203.3
906.917	1186.06
907.09	1156.8
907.264	1156.61
907.437	1115.92
907.61	1047.91
907.784	1098.29
907.957	1100.03
908.13	1041.71
908.304	1040.16
908.477	1050.43
908.65	1024.86
908.823	969.45
908.996	1060.12
909.17	1004.51
909.343	975.07
909.516	1015.56
909.689	978.17
909.862	959.18
910.035	1018.85
910.208	965.57
910.381	953.56
910.554	1087.24
910.727	1008.39
910.9	983.59
911.073	1014.59
911.246	1089.18
911.419	1091.12
911.592	1064.19
911.765	1020.6
911.938	1012.07
912.11	1009.36
912.283	1019.43
912.456	1077.75
912.629	1018.85
912.802	934.96
912.974	881.29
913.147	833.24
913.32	721.84
913.493	778.8
913.665	824.91
913.838	844.87
914.01	874.32
914.183	913.07
914.356	920.82
914.528	946
914.701	975.45
914.873	930.12
915.046	850.68
915.218	777.44
915.391	734.24
915.563	736.95
915.736	795.85
915.908	817.35
916.081	862.11
916.253	852.23
916.425	889.04
916.598	887.3
916.77	872.19
916.942	811.74
917.115	740.44
917.287	805.73
917.459	799.92
917.632	732.49
917.804	708.47
917.976	784.42
918.148	819.1
918.32	857.07
918.493	899.31
918.665	888.85
918.837	860.56
919.009	961.7
919.181	955.3
919.353	918.49
919.525	928.18
919.697	945.62
919.869	967.12
920.041	997.54
920.213	1086.08
920.385	1037.65
920.557	985.92
920.729	974.68
920.901	946.97
921.073	941.74
921.244	937.48
921.416	968.87
921.588	943.48
921.76	946.97
921.932	972.74
922.103	971.97
922.275	953.37
922.447	960.15
922.619	865.21
922.79	922.95
922.962	873.93
923.134	885.94
923.305	849.13
923.477	849.32
923.648	818.9
923.82	823.36
923.991	739.47
924.163	772.6
924.335	795.46
924.506	773.96
924.677	846.61
924.849	781.9
925.02	787.32
925.192	854.94
925.363	812.32
925.535	796.04
925.706	768.72
925.877	840.22
926.049	747.99
926.22	790.23
926.391	799.53
926.562	845.25
926.734	781.71
926.905	809.61
927.076	733.66
927.247	739.08
927.419	698.2
927.59	656.54
927.761	653.44
927.932	609.27
928.103	607.53
928.274	581.56
928.445	589.7
928.616	593.58
928.787	536.03
928.958	552.31
929.129	554.25
929.3	500.77
929.471	430.25
929.642	403.7
929.813	353.33
929.984	418.62
930.155	347.52
930.326	382.78
930.496	365.73
930.667	314.19
930.838	330.47
931.009	292.11
931.18	302.37
931.35	289.39
931.521	276.22
931.692	224.49
931.863	162.49
932.033	219.84
932.204	217.51
932.374	207.24
932.545	160.16
932.716	187.29
932.886	188.84
933.057	113.86
933.227	113.08
933.398	202.79
933.568	102.82
933.739	58.83
933.909	89.06
934.08	125.48
934.25	48.18
934.421	70.85
934.591	121.61
934.761	109.21
934.932	75.3
935.102	108.82
935.272	96.81
935.443	97.97
935.613	88.09
935.783	86.93
935.953	67.36
936.123	189.61
936.294	75.88
936.464	96.81
936.634	81.12
936.804	71.04
936.974	55.54
937.144	102.23
937.314	79.95
937.484	73.95
937.655	56.7
937.825	140.4
937.995	71.43
938.165	133.23
938.334	116.18
938.504	139.24
938.674	153.19
938.844	165.4
939.014	227.78
939.184	219.45
939.354	251.61
939.524	229.91
939.694	191.75
939.863	175.08
940.033	264.79
940.203	234.76
940.373	240.57
940.542	228.36
940.712	169.46
940.882	212.86
941.051	211.89
941.221	205.89
941.391	245.8
941.56	192.91
941.73	172.95
941.899	273.7
942.069	190.78
942.238	193.68
942.408	166.36
942.577	194.85
942.747	158.23
942.916	92.93
943.086	146.99
943.255	208.6
943.425	163.26
943.594	149.31
943.763	96.42
943.933	89.45
944.102	92.16
944.271	166.56
944.441	171.79
944.61	136.14
944.779	169.08
944.948	209.96
945.117	112.7
945.287	117.35
945.456	85.18
945.625	136.33
945.794	135.75
945.963	94.29
946.132	141.76
946.301	111.34
946.47	154.35
946.639	82.28
946.808	147.38
946.977	144.47
947.146	193.1
947.315	116.18
947.484	171.01
947.653	143.11
947.822	101.65
947.991	114.25
948.16	212.86
948.329	179.54
948.498	172.95
948.666	164.43
948.835	186.9
949.004	120.25
949.173	88.28
949.341	109.21
949.51	148.54
949.679	168.3
949.847	150.67
950.016	200.66
950.185	192.13
950.353	160.55
950.522	164.23
950.69	217.9
950.859	140.21
951.028	198.91
951.196	169.46
951.365	110.76
951.533	129.55
951.701	168.69
951.87	135.56
952.038	80.15
952.207	138.08
952.375	161.91
952.543	122.77
952.712	142.92
952.88	116.38
953.048	181.86
953.217	163.46
953.385	129.55
953.553	187.48
953.721	141.56
953.89	143.5
954.058	98.94
954.226	87.12
954.394	141.56
954.562	78.4
954.73	160.94
954.898	155.32
955.067	219.26
955.235	128.97
955.403	173.15
955.571	211.12
955.739	193.1
955.907	129.36
956.075	117.73
956.243	113.08
956.41	144.28
956.578	115.22
956.746	131.1
956.914	149.9
957.082	189.42
957.25	195.04
957.418	165.59
957.585	177.02
957.753	211.7
957.921	133.81
958.089	165.78
958.256	177.41
958.424	165.98
958.592	145.83
958.759	132.65
958.927	169.85
959.095	112.31
959.262	141.37
959.43	143.11
959.597	145.63
959.765	152.61
959.932	141.18
960.1	179.93
960.267	142.73
960.435	163.65
960.602	167.53
960.77	169.46
960.937	116.18
961.104	166.75
961.272	120.83
961.439	159.58
961.606	183.22
961.774	167.33
961.941	163.65
962.108	169.27
962.275	160.16
962.443	205.11
962.61	207.63
962.777	251.23
962.944	190
963.111	194.07
963.278	207.63
963.446	187.1
963.613	174.7
963.78	188.45
963.947	175.66
964.114	165.4
964.281	241.34
964.448	216.16
964.615	184.58
964.782	183.22
964.949	238.05
965.116	206.47
965.282	195.04
965.449	197.95
965.616	162.1
965.783	194.85
965.95	190.78
966.117	128.2
966.283	158.03
966.45	197.17
966.617	188.65
966.784	235.53
966.95	231.85
967.117	239.21
967.284	204.53
967.45	201.24
967.617	269.44
967.784	246.77
967.95	252.39
968.117	253.55
968.283	300.44
968.45	311.48
968.616	243.09
968.783	308.57
968.949	285.33
969.116	279.51
969.282	249.29
969.449	260.91
969.615	257.04
969.781	217.13
969.948	256.46
970.114	232.63
970.28	308.77
970.447	253.74
970.613	291.91
970.779	245.41
970.945	265.37
971.112	262.66
971.278	245.22
971.444	249.09
971.61	287.07
971.776	237.47
971.942	263.24
972.108	262.46
972.275	266.14
972.441	258.39
972.607	310.51
972.773	223.52
972.939	271.18
973.105	239.02
973.271	190.2
973.437	189.03
973.602	189.23
973.768	240.18
973.934	200.85
974.1	224.29
974.266	155.32
974.432	216.74
974.598	193.3
974.763	218.29
974.929	199.69
975.095	252.97
975.261	177.41
975.426	177.41
975.592	190
975.758	240.76
975.923	169.27
976.089	136.53
976.255	234.37
976.42	209.18
976.586	213.44
976.751	238.83
976.917	274.67
977.082	237.86
977.248	174.89
977.413	141.76
977.579	217.9
977.744	199.69
977.91	173.15
978.075	189.81
978.24	220.03
978.406	199.3
978.571	161.52
978.736	179.73
978.902	209.38
979.067	142.34
979.232	146.99
979.397	220.61
979.563	247.54
979.728	185.55
979.893	189.61
980.058	186.32
980.223	238.05
980.388	199.69
980.554	215.77
980.719	198.33
980.884	196.01
981.049	259.94
981.214	179.54
981.379	213.06
981.544	185.55
981.709	204.34
981.874	174.5
982.039	185.35
982.204	238.63
982.368	203.76
982.533	151.06
982.698	216.74
982.863	241.93
983.028	189.42
983.193	219.84
983.357	227.98
983.522	185.93
983.687	216.54
983.852	198.91
984.016	210.34
984.181	203.76
984.346	208.21
984.51	248.13
984.675	200.27
984.839	209.38
985.004	202.98
985.168	235.53
985.333	204.92
985.498	188.84
985.662	229.53
985.827	215.58
985.991	207.83
986.155	186.13
986.32	241.54
986.484	260.14
986.649	228.17
986.813	142.53
986.977	223.13
987.142	225.84
987.306	172.95
987.47	165.78
987.634	207.63
987.799	209.18
987.963	221.19
988.127	235.73
988.291	249.87
988.455	204.92
988.62	198.14
988.784	220.42
988.948	200.85
989.112	172.56
989.276	219.45
989.44	199.3
989.604	164.62
989.768	184
989.932	263.43
990.096	173.92
990.26	134.2
990.424	143.5
990.588	191.16
990.752	241.34
990.915	224.1
991.079	168.88
991.243	149.9
991.407	222.55
991.571	180.12
991.734	188.06
991.898	249.87
992.062	260.33
992.226	174.7
992.389	166.56
992.553	135.75
992.717	142.92
992.88	143.11
993.044	179.35
993.207	137.3
993.371	213.64
993.535	202.4
993.698	182.83
993.862	194.65
994.025	219.84
994.189	185.74
994.352	177.99
994.515	190.97
994.679	217.9
994.842	169.66
995.006	208.41
995.169	171.6
995.332	151.25
995.496	200.46
995.659	116.18
995.822	163.65
995.985	170.43
996.149	197.36
996.312	172.76
996.475	226.04
996.638	149.31
996.801	226.04
996.964	199.5
997.128	142.34
997.291	136.14
997.454	155.71
997.617	128.58
997.78	198.53
997.943	134.78
998.106	214.03
998.269	144.86
998.432	167.14
998.595	159.58
998.758	97.39
998.92	121.8
999.083	95.45
999.246	131.3
999.409	126.65
999.572	109.02
999.735	142.73
999.897	161.33
1000.06	135.36
1000.223	140.21
1000.386	168.69
1000.548	160.55
1000.711	156.87
1000.874	167.72
1001.036	90.61
1001.199	158.61
1001.361	130.52
1001.524	142.92
1001.687	175.28
1001.849	111.34
1002.012	122.19
1002.174	143.11
1002.337	160.55
1002.499	118.51
1002.661	153.96
1002.824	104.75
1002.986	125.68
1003.149	139.43
1003.311	120.64
1003.473	179.15
1003.636	121.61
1003.798	144.28
1003.96	147.18
1004.123	139.05
1004.285	106.88
1004.447	129.94
1004.609	122.58
1004.771	164.43
1004.933	75.88
1005.096	51.47
1005.258	73.17
1005.42	87.7
1005.582	168.3
1005.744	136.72
1005.906	84.02
1006.068	114.44
1006.23	68.91
1006.392	73.56
1006.554	78.02
1006.716	153.19
1006.878	118.12
1007.04	79.37
1007.202	91
1007.363	97.58
1007.525	113.67
1007.687	130.13
1007.849	152.03
1008.011	56.32
1008.172	72.59
1008.334	86.15
1008.496	123.74
1008.658	52.83
1008.819	93.9
1008.981	50.5
1009.143	81.89
1009.304	94.87
1009.466	118.31
1009.627	151.45
1009.789	187.1
1009.95	122.77
1010.112	66.97
1010.273	97.39
1010.435	76.66
1010.596	98.94
1010.758	89.25
1010.919	97.2
1011.081	56.7
1011.242	98.36
1011.403	102.43
1011.565	82.08
1011.726	118.31
1011.887	72.01
1012.049	97.2
1012.21	109.6
1012.371	140.98
1012.532	20.09
1012.693	98.75
1012.855	71.04
1013.016	91
1013.177	117.54
1013.338	84.02
1013.499	138.08
1013.66	116.57
1013.821	112.5
1013.982	102.62
1014.143	107.47
1014.304	60.38
1014.465	112.7
1014.626	106.88
1014.787	86.93
1014.948	157.84
1015.109	42.75
1015.27	105.14
1015.431	76.85
1015.592	49.53
1015.752	117.93
1015.913	58.83
1016.074	93.32
1016.235	84.41
1016.395	72.2
1016.556	62.71
1016.717	84.22
1016.877	84.99
1017.038	38.88
1017.199	95.45
1017.359	57.87
1017.52	82.67
1017.681	48.18
1017.841	84.6
1018.002	64.65
1018.162	63.29
1018.323	100.88
1018.483	52.44
1018.644	64.84
1018.804	40.62
1018.964	18.15
1019.125	42.75
1019.285	60.38
1019.446	26.48
1019.606	14.66
1019.766	33.07
1019.926	96.62
1020.087	106.11
1020.247	23.38
1020.407	71.23
1020.567	98.55
1020.728	81.7
1020.888	35.97
1021.048	45.66
1021.208	17.76
1021.368	30.93
1021.528	92.74
1021.688	77.43
1021.848	103.4
1022.008	72.2
1022.168	53.8
1022.328	63.68
1022.488	70.65
1022.648	26.29
1022.808	61.16
1022.968	75.3
1023.128	21.44
1023.288	41.59
1023.448	69.68
1023.608	71.62
1023.767	56.51
1023.927	29.19
1024.087	42.75
1024.247	35.39
1024.406	63.1
1024.566	24.15
1024.726	47.21
1024.885	60
1025.045	64.45
1025.205	42.17
1025.364	25.51
1025.524	35.97
1025.683	47.98
1025.843	45.08
1026.003	47.6
1026.162	102.62
1026.321	90.8
1026.481	70.07
1026.64	55.93
1026.8	70.65
1026.959	52.83
1027.119	47.02
1027.278	16.4
1027.437	25.7
1027.597	49.73
1027.756	50.5
1027.915	58.25
1028.074	78.98
1028.234	24.93
1028.393	61.93
1028.552	26.29
1028.711	-37.26
1028.87	86.73
1029.03	-18.08
1029.189	46.82
1029.348	-38.23
1029.507	18.54
1029.666	38.3
1029.825	6.14
1029.984	1.87
1030.143	57.87
1030.302	38.68
1030.461	4
1030.62	51.47
1030.779	52.25
1030.938	12.34
1031.097	-7.81
1031.255	80.15
1031.414	85.57
1031.573	66
1031.732	-0.84
1031.891	28.8
1032.049	67.75
1032.208	53.99
1032.367	-10.91
1032.525	22.22
1032.684	25.51
1032.843	31.13
1033.001	-4.91
1033.16	147.57
1033.319	64.84
1033.477	32.1
1033.636	40.43
1033.794	-10.14
1033.953	72.2
1034.111	56.32
1034.27	15.05
1034.428	56.32
1034.587	-25.64
1034.745	47.21
1034.903	32.87
1035.062	42.37
1035.22	-5.1
1035.378	57.87
1035.537	-23.12
1035.695	62.52
1035.853	12.14
1036.011	57.48
1036.17	45.08
1036.328	-17.31
1036.486	33.65
1036.644	23.19
1036.802	-64.39
1036.96	28.03
1037.119	26.09
1037.277	-12.27
1037.435	5.94
1037.593	6.91
1037.751	44.5
1037.909	32.1
1038.067	32.1
