Data from calibration4_FLMT105791__6__17-36-40-048.txt Node

Date: Mon Mar 20 17:36:40 GMT 2023
User: antho
Spectrometer: FLMT10579
Trigger mode: 0
Integration Time (sec): 1.000000E-1
Scans to average: 10
Electric dark correction enabled: true
Nonlinearity correction enabled: false
Boxcar width: 0
XAxis mode: Wavelengths
Number of Pixels in Spectrum: 3648
>>>>>Begin Spectral Data<<<<<
345.248	-135.48
345.464	-135.48
345.681	-135.48
345.898	-149.23
346.114	-133.54
346.331	-34.54
346.548	12.16
346.764	-24.85
346.981	4.21
347.197	-24.07
347.414	27.66
347.631	-16.52
347.847	56.33
348.064	15.84
348.28	-8.57
348.497	-31.05
348.713	23.39
348.93	9.64
349.146	81.91
349.363	80.94
349.579	89.85
349.796	83.46
350.012	85.78
350.229	135.38
350.445	127.82
350.661	92.56
350.878	118.91
351.094	128.99
351.311	125.5
351.527	110.39
351.743	110.19
351.96	137.12
352.176	132.09
352.392	117.75
352.609	145.26
352.825	100.7
353.041	132.47
353.257	114.65
353.474	107.29
353.69	123.76
353.906	166.19
354.122	133.25
354.339	195.44
354.555	170.64
354.771	110.77
354.987	223.15
355.203	205.32
355.42	150.3
355.636	146.04
355.852	142.74
356.068	165.22
356.284	124.92
356.5	192.54
356.716	161.34
356.932	151.66
357.148	159.6
357.364	149.72
357.58	192.34
357.796	165.99
358.012	182.27
358.228	171.03
358.444	88.3
358.66	182.27
358.876	181.88
359.092	130.34
359.308	177.04
359.524	186.14
359.74	175.1
359.956	165.02
360.172	196.99
360.388	231.09
360.604	216.95
360.819	290.57
361.035	207.26
361.251	216.56
361.467	190.79
361.683	222.18
361.898	212.1
362.114	227.22
362.33	203.97
362.546	261.12
362.762	231.09
362.977	270.23
363.193	226.64
363.409	266.74
363.624	220.63
363.84	236.32
364.056	242.91
364.271	272.17
364.487	247.56
364.703	276.82
364.918	229.15
365.134	252.6
365.35	261.32
365.565	358.77
365.781	297.16
365.996	320.99
366.212	394.03
366.427	344.05
366.643	338.23
366.858	321.38
367.074	320.99
367.289	391.32
367.505	437.24
367.72	315.95
367.936	339.2
368.151	372.53
368.367	375.63
368.582	333.78
368.798	327.38
369.013	381.05
369.228	343.47
369.444	366.91
369.659	384.15
369.874	387.64
370.09	427.55
370.305	356.83
370.52	385.31
370.736	410.11
370.951	372.14
371.166	410.11
371.381	434.72
371.597	404.88
371.812	353.73
372.027	379.5
372.242	382.21
372.458	427.94
372.673	318.47
372.888	357.42
373.103	394.61
373.318	419.41
373.533	387.45
373.749	341.92
373.964	301.23
374.179	386.09
374.394	284.57
374.609	423.68
374.824	332.03
375.039	405.27
375.254	337.27
375.469	402.36
375.684	408.37
375.899	462.43
376.114	435.5
376.329	453.71
376.544	428.13
376.759	459.52
376.974	393.65
377.189	421.16
377.404	428.91
377.619	507.38
377.834	480.25
378.049	484.71
378.264	505.24
378.478	579.45
378.693	546.51
378.908	581.19
379.123	527.91
379.338	563.56
379.553	502.53
379.767	491.68
379.982	491.1
380.197	516.87
380.412	478.31
380.626	509.31
380.841	607.54
381.056	599.21
381.271	628.08
381.485	560.46
381.7	528.3
381.915	540.31
382.129	489.94
382.344	500.59
382.559	430.07
382.773	465.91
382.988	383.96
383.202	427.55
383.417	371.95
383.632	460.49
383.846	431.43
384.061	424.84
384.275	427.16
384.49	486.26
384.704	546.9
384.919	594.56
385.133	617.62
385.348	650.36
385.562	613.16
385.777	646.1
385.991	588.56
386.206	608.71
386.42	616.65
386.634	676.9
386.849	631.76
387.063	671.87
387.277	609.48
387.492	621.69
387.706	607.74
387.92	593.21
388.135	685.43
388.349	699.77
388.563	667.8
388.778	683.49
388.992	679.04
389.206	714.88
389.42	783.27
389.635	785.21
389.849	845.27
390.063	900.29
390.277	865.81
390.491	910.18
390.706	894.68
390.92	893.51
391.134	923.16
391.348	979.34
391.562	969.08
391.776	1015.96
391.99	972.37
392.205	1033.98
392.419	895.06
392.633	925.48
392.847	856.31
393.061	744.72
393.275	745.1
393.489	587.97
393.703	519.19
393.917	545.16
394.131	583.52
394.345	682.14
394.559	818.73
394.773	857.67
394.986	991.36
395.2	1014.41
395.414	1109.74
395.628	1097.34
395.842	1163.6
396.056	1133.37
396.27	1049.87
396.484	1021
396.697	902.62
396.911	800.52
397.125	717.4
397.339	696.47
397.553	719.53
397.766	907.66
397.98	1011.7
398.194	1180.65
398.408	1268.8
398.621	1380.01
398.835	1455.38
399.049	1466.23
399.262	1596.62
399.476	1579.77
399.69	1614.83
399.903	1688.07
400.117	1576.28
400.331	1693.3
400.544	1664.05
400.758	1803.54
400.971	1718.88
401.185	1764.02
401.398	1715.78
401.612	1843.26
401.826	1875.04
402.039	1895.77
402.253	1884.53
402.466	1950.02
402.68	1916.5
402.893	1974.04
403.106	1918.63
403.32	1884.34
403.533	1951.18
403.747	1857.21
403.96	1917.47
404.174	1998.84
404.387	1976.17
404.6	1956.99
404.814	2001.17
405.027	1947.5
405.24	1929.87
405.454	1945.95
405.667	2051.15
405.88	1991.48
406.094	2026.55
406.307	2022.48
406.52	1969.59
406.733	1921.15
406.947	1963.77
407.16	2050.18
407.373	2074.98
407.586	2073.24
407.799	2077.5
408.012	2075.18
408.226	2101.92
408.439	2221.07
408.652	2187.75
408.865	2324.34
409.078	2380.14
409.291	2389.05
409.504	2305.74
409.717	2389.44
409.93	2328.21
410.143	2235.02
410.357	2088.93
410.57	2028.29
410.783	2101.14
410.996	2151.13
411.209	2281.91
411.421	2463.84
411.634	2518.67
411.847	2478.95
412.06	2571.95
412.273	2591.51
412.486	2549.28
412.699	2650.41
412.912	2604.11
413.125	2572.53
413.338	2584.54
413.55	2558.77
413.763	2553.15
413.976	2586.48
414.189	2589
414.402	2629.3
414.615	2769.96
414.827	2607.4
415.04	2663.2
415.253	2653.32
415.466	2770.54
415.678	2736.44
415.891	2685.29
416.104	2669.59
416.316	2719.78
416.529	2793.01
416.742	2935.8
416.954	2904.42
417.167	2842.22
417.38	2791.85
417.592	2765.11
417.805	2662.62
418.017	2695.17
418.23	2791.27
418.442	2697.11
418.655	2746.71
418.868	2797.47
419.08	2804.25
419.293	2871.29
419.505	2928.63
419.718	2893.37
419.93	2883.1
420.142	2833.89
420.355	2892.02
420.567	2829.44
420.78	2877.87
420.992	2922.63
421.205	3067.94
421.417	3106.69
421.629	3181.67
421.842	3164.43
422.054	3152.99
422.266	3178.18
422.479	3149.89
422.691	2958.08
422.903	2980.95
423.115	2899.38
423.328	2904.8
423.54	2973.39
423.752	3016.21
423.964	3098.36
424.177	3133.23
424.389	3119.09
424.601	3227.78
424.813	3203.76
425.025	3218.87
425.238	3230.11
425.45	3184.77
425.662	3184.57
425.874	3488.95
426.086	3240.96
426.298	3297.14
426.51	3247.35
426.722	3225.46
426.934	3324.07
427.146	3284.35
427.358	3195.04
427.57	3195.04
427.782	3133.23
427.994	3123.16
428.206	3170.04
428.418	3366.89
428.63	3445.16
428.842	3433.54
429.054	3295.98
429.266	3260.52
429.478	3233.79
429.69	3162.29
429.902	3084.99
430.114	3100.49
430.325	2878.26
430.537	2762.98
430.749	2663.78
430.961	2551.22
431.173	2579.89
431.384	2734.31
431.596	2802.7
431.808	3256.07
432.02	3610.24
432.231	3849.52
432.443	4009.94
432.655	3824.52
432.867	3748.57
433.078	3806.5
433.29	3887.1
433.502	4023.89
433.713	4062.25
433.925	4184.89
434.136	3969.44
434.348	3730.17
434.56	3677.47
434.771	3864.24
434.983	3736.75
435.194	4045.59
435.406	4252.51
435.617	4211.05
435.829	4321.68
436.04	4383.48
436.252	4324.97
436.463	4543.13
436.675	4658.8
436.886	4725.45
437.098	4745.21
437.309	4742.3
437.521	4611.14
437.732	4545.84
437.943	4486.36
438.155	4474.35
438.366	4377.67
438.578	4495.66
438.789	4236.82
439	4201.75
439.211	4267.04
439.423	4361.98
439.634	4506.71
439.845	4655.89
440.057	4711.3
440.268	4926.75
440.479	4790.55
440.69	4809.34
440.902	4685.73
441.113	4691.35
441.324	4828.13
441.535	5013.74
441.746	5155.18
441.957	5134.25
442.168	5220.86
442.38	5283.44
442.591	5300.1
442.802	5268.52
443.013	5362.29
443.224	5470.4
443.435	5342.53
443.646	5332.46
443.857	5273.17
444.068	5348.34
444.279	5264.26
444.49	5571.35
444.701	5448.51
444.912	5673.06
445.123	5662.8
445.334	5503.73
445.545	5627.34
445.756	5416.93
445.967	5379.15
446.178	5312.5
446.388	5292.54
446.599	5313.08
446.81	5420.22
447.021	5414.22
447.232	5560.3
447.443	5662.21
447.653	5882.12
447.864	5986.35
448.075	5959.81
448.286	5835.04
448.496	5824.57
448.707	5932.3
448.918	5750.18
449.129	5917.38
449.339	5927.07
449.55	6032.66
449.761	5997.78
449.971	5925.13
450.182	6169.44
450.393	6191.34
450.603	6146.78
450.814	6400.2
451.024	6381.4
451.235	6584.26
451.446	6573.6
451.656	6555
451.867	6466.65
452.077	6321.15
452.288	6449.8
452.498	6338.59
452.709	6317.47
452.919	6140.19
453.13	5985.97
453.34	6009.02
453.55	5774.98
453.761	6068.11
453.971	6002.24
454.182	6192.69
454.392	6253.72
454.602	6436.43
454.813	6534.85
455.023	6380.05
455.233	6308.56
455.444	6383.92
455.654	6163.83
455.864	6362.42
456.075	6449.02
456.285	6486.42
456.495	6488.16
456.705	6592.39
456.916	6767.15
457.126	6822.18
457.336	6696.63
457.546	6637.15
457.756	6734.02
457.967	6850.27
458.177	6620.68
458.387	6742.55
458.597	6582.71
458.807	6694.11
459.017	6527.49
459.227	6614.09
459.437	6604.21
459.647	6738.29
459.857	6758.44
460.068	6899.29
460.278	6850.66
460.488	6867.32
460.698	6904.13
460.908	7000.04
461.117	7137.21
461.327	7188.94
461.537	7245.32
461.747	7219.17
461.957	7215.29
462.167	7367.77
462.377	7325.53
462.587	7296.47
462.797	7496.81
463.007	7397.8
463.216	7551.83
463.426	7767.67
463.636	7543.11
463.846	7360.6
464.056	7364.86
464.265	7376.1
464.475	7401.87
464.685	7583.22
464.895	7499.71
465.104	7329.22
465.314	7617.71
465.524	7508.04
465.733	7484.02
465.943	7727.95
466.153	7857.76
466.362	7892.44
466.572	7863.57
466.782	7626.42
466.991	7856.01
467.201	7666.92
467.41	7569.07
467.62	7866.48
467.829	7879.46
468.039	8032.13
468.249	7949.98
468.458	8176.08
468.668	8151.67
468.877	8223.17
469.086	8251.26
469.296	8503.13
469.505	8558.35
469.715	8450.43
469.924	8318.1
470.134	8479.49
470.343	8261.72
470.552	8310.55
470.762	8315.2
470.971	8451.4
471.18	8525.02
471.39	8648.25
471.599	8502.94
471.808	8638.75
472.018	9015.59
472.227	9193.06
472.436	9486.2
472.645	9407.74
472.855	9379.25
473.064	9658.64
473.273	9641.98
473.482	9318.61
473.691	9475.55
473.901	9443.77
474.11	9310.47
474.319	9640.23
474.528	9660.58
474.737	10151.14
474.946	9975.03
475.155	10050.78
475.364	10260.22
475.573	10110.46
475.783	10278.63
475.992	10194.16
476.201	10255.57
476.41	10333.65
476.619	10213.34
476.828	10166.06
477.037	10202.87
477.245	10287.35
477.454	10426.65
477.663	10725.6
477.872	11005.18
478.081	11185.37
478.29	11131.89
478.499	11251.24
478.708	11539.34
478.917	11440.53
479.125	11119.88
479.334	11265.58
479.543	11601.73
479.752	11733.09
479.961	11732.12
480.169	12006.08
480.378	12052.39
480.587	12337
480.796	12258.34
481.004	12184.13
481.213	12396.29
481.422	12504.98
481.63	12803.16
481.839	12770.8
482.048	13057.74
482.256	12961.06
482.465	13357.66
482.674	13171.86
482.882	13172.83
483.091	13336.93
483.299	13110.44
483.508	13501.03
483.716	13568.65
483.925	13648.67
484.134	13253.23
484.342	13477.4
484.551	13499.29
484.759	13483.6
484.967	13974.36
485.176	13850.75
485.384	13821.3
485.593	13690.32
485.801	13524.86
486.01	13035.65
486.218	12300.96
486.426	11928.58
486.635	11686.01
486.843	11803.42
487.051	12297.86
487.26	12498.2
487.468	12862.44
487.676	13218.55
487.885	13597.52
488.093	13940.65
488.301	14387.04
488.509	14335.5
488.717	14605.78
488.926	14623.99
489.134	14382.97
489.342	14533.32
489.55	14351.97
489.758	14795.46
489.967	15235.46
490.175	15174.04
490.383	15697.93
490.591	15996.5
490.799	15727.96
491.007	15668.29
491.215	15869.59
491.423	15673.52
491.631	15652.98
491.839	15556.11
492.047	15502.64
492.255	15110.88
492.463	15200.39
492.671	14979.32
492.879	15523.75
493.087	15716.34
493.295	15815.54
493.503	15945.35
493.711	16412.28
493.919	16228.03
494.127	16311.34
494.334	16277.82
494.542	16361.32
494.75	16886.96
494.958	16525.23
495.166	16989.06
495.374	17171.77
495.581	17230.67
495.789	17116.36
495.997	17193.47
496.205	16558.36
496.412	16891.42
496.62	17261.86
496.828	17056.1
497.035	17236.29
497.243	17367.84
497.451	17407.75
497.658	17371.72
497.866	17391.67
498.074	17531.17
498.281	17156.85
498.489	17246.55
498.696	16961.75
498.904	16846.08
499.112	16864.29
499.319	17182.62
499.527	17350.02
499.734	17516.44
499.942	17470.72
500.149	17411.24
500.357	17476.73
500.564	17103.76
500.771	16992.94
500.979	16803.65
501.186	16625.01
501.394	17135.34
501.601	16547.32
501.808	16653.69
502.016	16773.42
502.223	16689.73
502.43	16834.26
502.638	16840.85
502.845	17097.37
503.052	17346.53
503.26	17362.03
503.467	17499.01
503.674	17573.6
503.881	17431.58
504.089	17180.68
504.296	17040.21
504.503	16947.8
504.71	16877.47
504.917	17259.34
505.125	17313.79
505.332	17553.06
505.539	17573.02
505.746	18049.44
505.953	18290.08
506.16	18374.94
506.367	18311.2
506.574	18640.18
506.781	18501.65
506.988	18401.09
507.195	18336.38
507.402	18249.58
507.609	18237.57
507.816	17937.65
508.023	18034.72
508.23	17955.09
508.437	17590.65
508.644	17836.32
508.851	17894.06
509.058	18308.68
509.265	18355.18
509.472	18617.9
509.679	18745.77
509.885	18608.6
510.092	18596.97
510.299	18540.79
510.506	18308.87
510.713	18393.54
510.92	18349.75
511.126	18524.51
511.333	18658.39
511.54	18849.04
511.746	18914.52
511.953	19021.67
512.16	19270.24
512.367	19075.33
512.573	18918.59
512.78	18844.78
512.987	18706.63
513.193	18571.59
513.4	18345.1
513.606	18481.31
513.813	18585.93
514.02	18381.33
514.226	18313.13
514.433	18398.77
514.639	18278.65
514.846	18341.03
515.052	18300.15
515.259	18432.48
515.465	18505.72
515.672	18615.96
515.878	18568.3
516.085	18961.99
516.291	18749.26
516.497	18722.13
516.704	18063.97
516.91	17606.73
517.117	16856.15
517.323	16470.98
517.529	16361.13
517.736	16352.61
517.942	16556.04
518.148	16916.02
518.354	16984.41
518.561	17041.57
518.767	16947.22
518.973	17073.15
519.179	17463.75
519.386	17721.04
519.592	17729.37
519.798	17800.09
520.004	18559.19
520.21	18465.81
520.417	18705.08
520.623	18848.46
520.829	18720
521.035	18803.7
521.241	18718.65
521.447	18906.58
521.653	19199.53
521.859	19028.06
522.065	19174.34
522.271	19299.5
522.477	19191.78
522.683	19414.01
522.889	18987.18
523.095	18870.74
523.301	18893.02
523.507	18668.47
523.713	18834.12
523.919	18897.47
524.125	19378.94
524.331	19517.85
524.537	19925.11
524.742	19919.88
524.948	19852.46
525.154	19859.43
525.36	19894.11
525.566	19564.55
525.772	19782.51
525.977	19628.87
526.183	19528.51
526.389	19520.76
526.595	18880.04
526.8	18612.28
527.006	18062.23
527.212	17651.49
527.417	17654.39
527.623	17722.79
527.829	17961.87
528.034	18466.77
528.24	18490.41
528.446	18971.68
528.651	19315.39
528.857	19487.44
529.062	19594.19
529.268	19855.75
529.473	20037.29
529.679	20196.16
529.884	20093.09
530.09	19978.2
530.295	19697.07
530.501	19967.54
530.706	19944.87
530.912	20081.85
531.117	20151.21
531.323	20212.82
531.528	20458.3
531.733	20449.97
531.939	20231.23
532.144	20164.58
532.35	20109.17
532.555	20034.19
532.76	19548.08
532.966	19372.93
533.171	19200.11
533.376	19091.22
533.581	19199.91
533.787	19413.42
533.992	19762.36
534.197	19351.42
534.402	19940.8
534.607	19916
534.813	19835.6
535.018	19905.74
535.223	20161.09
535.428	20162.64
535.633	20338.57
535.838	20690.22
536.043	20794.45
536.249	20932.98
536.454	20631.71
536.659	20655.54
536.864	20542.58
537.069	20282.96
537.274	20215.34
537.479	20140.17
537.684	20134.94
537.889	20157.99
538.094	20584.82
538.299	20313.96
538.504	20722.19
538.708	20495.5
538.913	20860.13
539.118	20739.82
539.323	20629.77
539.528	20317.84
539.733	20206.24
539.938	20238.59
540.142	20017.72
540.347	19983.82
540.552	19830.37
540.757	19524.44
540.962	19773.99
541.166	19684.67
541.371	19660.65
541.576	19715.09
541.781	19837.92
541.985	20393.01
542.19	19959.6
542.395	20529.6
542.599	20482.13
542.804	20187.06
543.008	20441.64
543.213	20406.57
543.418	20179.5
543.622	20391.85
543.827	20155.86
544.031	20553.43
544.236	20541.61
544.44	20836.3
544.645	20804.92
544.849	20767.52
545.054	20872.73
545.258	20910.9
545.463	20954.88
545.667	20588.89
545.872	20891.33
546.076	20765.97
546.281	20762.29
546.485	20700.1
546.689	20789.22
546.894	20791.55
547.098	20847.35
547.302	20930.27
547.507	20716.37
547.711	20798.14
547.915	20712.69
548.119	20472.83
548.324	20394.37
548.528	20568.35
548.732	20650.31
548.936	20923.68
549.141	20667.55
549.345	20837.27
549.549	20790
549.753	21115.3
549.957	20914.58
550.161	20969.21
550.366	21130.02
550.57	20923.88
550.774	20944.03
550.978	21015.33
551.182	20919.03
551.386	20680.14
551.59	20862.46
551.794	20867.5
551.998	21010.09
552.202	21016.68
552.406	20843.67
552.61	21169.55
552.814	21084.88
553.018	20905.67
553.222	20698.94
553.426	20798.52
553.63	20993.04
553.833	20945.96
554.037	20761.71
554.241	20729.74
554.445	21133.12
554.649	21031.99
554.853	20817.51
555.056	21131.77
555.26	21232.9
555.464	21021.33
555.668	21102.9
555.871	21046.52
556.075	21193.57
556.279	20910.12
556.483	20816.93
556.686	20648.17
556.89	20783.6
557.094	20671.23
557.297	20402.12
557.501	20454.04
557.704	20217.09
557.908	20399.02
558.112	20447.26
558.315	20517.4
558.519	20455.2
558.722	20012.88
558.926	20171.56
559.129	19650.18
559.333	20019.08
559.536	19840.83
559.74	19629.26
559.943	19546.14
560.147	19772.24
560.35	19650.38
560.553	20125.64
560.757	20004.35
560.96	20143.08
561.164	20175.63
561.367	20408.9
561.57	20314.15
561.774	20089.8
561.977	19992.34
562.18	20021.21
562.384	20082.43
562.587	19971.8
562.79	20218.44
562.993	19963.86
563.197	19934.41
563.4	20162.06
563.603	20140.36
563.806	20297.49
564.009	20091.54
564.212	20194.03
564.416	19925.3
564.619	19925.89
564.822	19761.01
565.025	20052.79
565.228	19853.04
565.431	20083.79
565.634	19741.83
565.837	19580.24
566.04	19467.67
566.243	19339.02
566.446	19173.37
566.649	19482.59
566.852	19232.66
567.055	19480.27
567.258	19388.82
567.461	19586.44
567.664	19714.12
567.867	19720.71
568.07	19465.74
568.273	19661.61
568.475	19763.14
568.678	19222.39
568.881	19232.08
569.084	18940.68
569.287	18710.12
569.489	18962.19
569.692	18983.11
569.895	19013.72
570.098	18836.83
570.3	18857.56
570.503	18881.98
570.706	18768.25
570.909	18595.23
571.111	18320.69
571.314	18311
571.516	18360.02
571.719	18494.48
571.922	18446.04
572.124	18574.5
572.327	18684.55
572.529	18708.96
572.732	18775.22
572.935	18928.67
573.137	19178.8
573.34	18846.13
573.542	19118.54
573.745	18940.1
573.947	19010.04
574.15	18855.43
574.352	18904.26
574.554	18974.39
574.757	18815.33
574.959	18537.11
575.162	18851.75
575.364	18441.39
575.566	18612.86
575.769	18360.8
575.971	18519.28
576.173	18022.32
576.376	18316.04
576.578	18562.49
576.78	18496.22
576.982	18399.74
577.185	18572.75
577.387	18477.04
577.589	18654.32
577.791	18550.28
577.993	18515.41
578.196	18575.85
578.398	18231.37
578.6	18220.13
578.802	18224.59
579.004	18112.41
579.206	18282.33
579.408	18482.27
579.61	18251.72
579.812	18699.85
580.014	18378.81
580.216	18434.81
580.418	18764.95
580.62	18763.01
580.822	18767.08
581.024	18801.57
581.226	18909.1
581.428	18960.64
581.63	19244.86
581.832	19098
582.034	19200.11
582.236	19171.43
582.438	19465.15
582.64	19471.55
582.841	19455.08
583.043	19854.2
583.245	19494.02
583.447	19583.73
583.649	19618.8
583.85	19526.77
584.052	19614.92
584.254	19563.77
584.456	19619.38
584.657	19507.2
584.859	19752.68
585.061	19467.67
585.262	19486.27
585.464	19345.22
585.666	19352.39
585.867	19093.35
586.069	19082.7
586.27	19122.8
586.472	19149.73
586.674	19151.09
586.875	19186.74
587.077	19263.08
587.278	19221.81
587.48	19178.41
587.681	19362.08
587.883	19251.64
588.084	18945.72
588.285	18948.43
588.487	18464.06
588.688	18427.44
588.89	17852.01
589.091	17423.45
589.292	16953.61
589.494	16609.51
589.695	16405.11
589.896	16183.27
590.098	16336.33
590.299	16458.97
590.5	16688.95
590.702	17063.66
590.903	17257.79
591.104	17595.3
591.305	17834.19
591.507	17749.52
591.708	17828.57
591.909	17817.33
592.11	17754.95
592.311	17964.78
592.512	17661.56
592.714	17641.8
592.915	17965.36
593.116	17799.51
593.317	18115.7
593.518	18085.09
593.719	18099.04
593.92	18169.57
594.121	18107.37
594.322	17981.83
594.523	17903.55
594.724	17648.97
594.925	17719.1
595.126	17473.82
595.327	17624.75
595.528	17770.64
595.729	17796.41
595.929	17812.88
596.13	17944.63
596.331	18220.72
596.532	18105.05
596.733	18241.64
596.934	18321.27
597.135	18276.32
597.335	18297.83
597.536	18196.11
597.737	18219.75
597.938	18133.72
598.138	18268.96
598.339	18220.13
598.54	18223.04
598.74	17980.86
598.941	18057.58
599.142	18320.11
599.342	18239.51
599.543	18149.61
599.744	18306.74
599.944	18271.28
600.145	18428.8
600.345	18335.8
600.546	18349.56
600.746	18384.82
600.947	18546.79
601.147	18130.04
601.348	18410.2
601.548	18250.36
601.749	18205.8
601.949	18050.41
602.15	18156.97
602.35	17896.77
602.551	18008.18
602.751	18159.3
602.951	18314.1
603.152	18204.44
603.352	18322.24
603.552	18329.6
603.753	18522.96
603.953	18670.21
604.153	18544.66
604.354	18606.08
604.554	18436.55
604.754	18604.92
604.954	18584.38
605.155	18762.05
605.355	18499.71
605.555	18565.59
605.755	18626.42
605.955	18508.04
606.155	18492.74
606.356	18569.46
606.556	18458.83
606.756	18575.27
606.956	18516.96
607.156	18555.32
607.356	18501.84
607.556	18524.9
607.756	18532.26
607.956	18489.44
608.156	18531.29
608.356	18303.06
608.556	18444.49
608.756	18267.22
608.956	18339.48
609.156	18270.7
609.356	18250.75
609.556	18191.85
609.755	18233.5
609.955	18168.79
610.155	18053.51
610.355	18204.05
610.555	17968.65
610.755	17860.15
610.954	17922.93
611.154	18129.85
611.354	18089.74
611.554	17939.2
611.753	18244.74
611.953	18075.02
612.153	18148.25
612.352	18036.07
612.552	17911.5
612.752	17934.36
612.951	18147.67
613.151	17876.62
613.351	17944.63
613.55	17904.52
613.75	17963.42
613.949	17609.06
614.149	17702.83
614.348	17659.24
614.548	17685.78
614.747	17624.94
614.947	17906.46
615.146	17650.91
615.346	17909.95
615.545	17890.76
615.745	17720.46
615.944	17699.73
616.144	17630.56
616.343	17405.62
616.542	17522.84
616.742	17257.02
616.941	17301
617.14	17013.86
617.34	17283.95
617.539	17321.54
617.738	17382.95
617.938	17595.69
618.137	17441.27
618.336	17566.82
618.535	17670.47
618.734	17638.12
618.934	17583.87
619.133	17702.05
619.332	17853.18
619.531	17494.75
619.73	17757.66
619.929	17734.41
620.128	17705.74
620.328	17728.6
620.527	17707.29
620.726	17803
620.925	17784.4
621.124	17950.83
621.323	17669.89
621.522	17468.2
621.721	17716.59
621.92	17475.37
622.119	17536.4
622.318	17372.1
622.517	17459.1
622.715	17305.07
622.914	17301
623.113	17416.86
623.312	17102.21
623.511	17238.03
623.71	17127.79
623.909	16991
624.107	17190.37
624.306	17045.06
624.505	16976.08
624.704	16860.42
624.902	16676.74
625.101	16885.99
625.3	16778.66
625.499	16694.38
625.697	16749.4
625.896	16576.77
626.095	16499.85
626.293	16441.92
626.492	16679.84
626.69	16519.42
626.889	16841.04
627.088	16651.17
627.286	16700.58
627.485	16374.11
627.683	16242.56
627.882	15892.65
628.08	15754.51
628.279	15497.99
628.477	15705.3
628.676	15443.16
628.874	15637.29
629.073	15572.58
629.271	15631.48
629.469	15775.24
629.668	15629.73
629.866	15502.44
630.065	15676.04
630.263	15689.8
630.461	15641.75
630.66	15820.19
630.858	15754.12
631.056	15912.8
631.254	16004.83
631.453	15697.93
631.651	15909.7
631.849	15752.18
632.047	15698.13
632.245	15721.96
632.444	15828.52
632.642	16031.37
632.84	16216.98
633.038	16050.36
633.236	15907.37
633.434	16138.71
633.632	16235.39
633.83	15986.23
634.028	16265.42
634.227	16222.6
634.425	16374.89
634.623	16047.45
634.821	16318.89
635.019	16402.79
635.216	16525.23
635.414	16503.34
635.612	16342.53
635.81	16307.46
636.008	16451.22
636.206	16411.7
636.404	16357.26
636.602	16429.33
636.8	16239.65
636.997	16503.53
637.195	16502.57
637.393	16383.6
637.591	16652.72
637.789	16562.82
637.986	16582
638.184	16579.29
638.382	16760.83
638.58	16686.82
638.777	16840.65
638.975	16697.86
639.173	16649.81
639.37	16685.27
639.568	16617.85
639.765	16650.01
639.963	16576.96
640.161	16338.07
640.358	16620.36
640.556	16276.66
640.753	16506.83
640.951	16390.19
641.148	16386.12
641.346	16444.83
641.543	16281.11
641.741	16382.83
641.938	16229.19
642.136	16405.69
642.333	16208.26
642.531	16449.48
642.728	16390.77
642.925	16556.04
643.123	16366.55
643.32	16396
643.517	16309.98
643.715	16346.99
643.912	16463.82
644.109	16398.72
644.306	16435.53
644.504	16332.65
644.701	16336.72
644.898	16349.7
645.095	16294.48
645.293	16304.75
645.49	16224.73
645.687	16141.23
645.884	16144.13
646.081	15885.67
646.278	15835.69
646.475	15733.39
646.672	15701.23
646.87	15622.95
647.067	15469.12
647.264	15532.28
647.461	15434.82
647.658	15259.1
647.855	15326.33
648.052	15059.92
648.249	15049.66
648.446	15145.37
648.642	15298.23
648.839	15020.79
649.036	15012.84
649.233	15046.75
649.43	14992.11
649.627	14683.28
649.824	14862.69
650.021	14729.78
650.217	15102.94
650.414	15158.93
650.611	15217.63
650.808	15403.44
651.004	15354.61
651.201	15337.18
651.398	15512.71
651.595	15280.99
651.791	15118.82
651.988	15259.68
652.185	14854.16
652.381	15319.93
652.578	15123.86
652.775	15271.3
652.971	15439.86
653.168	15215.7
653.364	15609.97
653.561	15279.44
653.757	15441.8
653.954	15591.18
654.15	15175.2
654.347	15556.5
654.543	15450.71
654.74	15235.46
654.936	15163.58
655.133	15076.97
655.329	15046.56
655.525	14805.34
655.722	14714.86
655.918	14344.42
656.115	13835.05
656.311	13487.28
656.507	13144.93
656.704	12927.35
656.9	13151.13
657.096	13390.98
657.292	13315.04
657.489	13648.09
657.685	13911.58
657.881	13952.27
658.077	14231.85
658.273	14425.6
658.47	14653.25
658.666	14679.99
658.862	14941.35
659.058	14921.2
659.254	15005.09
659.45	15228.87
659.646	14940.96
659.842	15035.51
660.038	15167.65
660.234	15098.09
660.43	15171.72
660.626	15293
660.822	15312.57
661.018	15329.62
661.214	15256.77
661.41	15241.46
661.606	15411.77
661.802	15529.57
661.998	15408.28
662.194	15410.61
662.39	15503.99
662.586	15402.08
662.781	15404.99
662.977	15534.99
663.173	15269.75
663.369	15361.39
663.564	15299.59
663.76	15373.99
663.956	15378.64
664.152	15171.13
664.347	15093.05
664.543	15266.85
664.739	15212.98
664.934	15086.27
665.13	15223.06
665.326	15289.32
665.521	15330.01
665.717	15229.26
665.912	15308.89
666.108	15008.58
666.304	15412.54
666.499	15155.44
666.695	14949.29
666.89	15227.51
667.086	15171.52
667.281	15144.2
667.477	15248.63
667.672	15102.94
667.867	14938.25
668.063	15099.25
668.258	14885.55
668.454	15048.69
668.649	14960.14
668.844	15168.81
669.04	15076.78
669.235	15056.05
669.43	15202.72
669.626	14873.35
669.821	15086.85
670.016	14960.53
670.211	15112.62
670.407	14793.33
670.602	15005.87
670.797	14779.18
670.992	15099.25
671.187	14816.19
671.382	15049.85
671.578	14609.85
671.773	14795.26
671.968	14518.79
672.163	14815.8
672.358	14715.05
672.553	14600.16
672.748	14760.97
672.943	14806.31
673.138	14728.03
673.333	14796.81
673.528	14536.03
673.723	14785.97
673.918	14552.11
674.113	14570.52
674.308	14728.03
674.503	14546.49
674.698	14744.89
674.892	14417.26
675.087	14514.72
675.282	14513.94
675.477	14603.07
675.672	14622.05
675.867	14381.61
676.061	14505.23
676.256	14440.32
676.451	14561.22
676.646	14514.91
676.84	14376.19
677.035	14319.03
677.23	14406.22
677.424	14484.3
677.619	14338.8
677.814	14541.07
678.008	14400.8
678.203	14384.91
678.397	14267.69
678.592	14202.4
678.787	14389.95
678.981	14340.54
679.176	14295.2
679.37	14230.88
679.565	14253.74
679.759	14303.15
679.954	14156.87
680.148	14249.67
680.342	14325.62
680.537	14210.73
680.731	14125.67
680.926	14195.23
681.12	14125.29
681.314	14092.16
681.509	14117.92
681.703	14075.11
681.897	13975.13
682.092	14023.18
682.286	14095.45
682.48	14036.36
682.674	13972.61
682.869	13878.26
683.063	14063.09
683.257	13924.76
683.451	13801.34
683.645	13947.43
683.839	13815.49
684.034	13614.18
684.228	13608.18
684.422	13552.18
684.616	13650.41
684.81	13583.76
685.004	13465.19
685.198	13626.97
685.392	13498.71
685.586	13572.33
685.78	13466.55
685.974	13413.46
686.168	13336.93
686.362	13196.85
686.556	12400.16
686.75	11870.65
686.944	11063.69
687.138	10247.24
687.331	9657.28
687.525	9244.02
687.719	9102.58
687.913	9176.98
688.107	9358.91
688.301	9379.45
688.494	9549.75
688.688	9515.65
688.882	9316.87
689.076	9397.27
689.269	9398.63
689.463	9604.39
689.657	9639.65
689.85	9630.35
690.044	9812.28
690.238	9944.42
690.431	10026.76
690.625	10044
690.818	10304.4
691.012	10345.47
691.205	10566.34
691.399	10698.48
691.593	10703.52
691.786	10796.9
691.98	10987.94
692.173	11109.42
692.366	11126.47
692.56	11237.68
692.753	11073.96
692.947	11109.03
693.14	11090.43
693.333	11078.42
693.527	11095.66
693.72	11056.91
693.914	11038.51
694.107	10837.2
694.3	10844.76
694.493	10719.21
694.687	11020.88
694.88	10867.04
695.073	11023.98
695.266	10981.16
695.46	11019.33
695.653	11006.54
695.846	10988.71
696.039	11105.74
696.232	11170.84
696.425	11354.31
696.618	11413.21
696.812	11632.54
697.005	11676.32
697.198	11895.84
697.391	11735.41
697.584	11923.54
697.777	11968.88
697.97	11717.4
698.163	11836.16
698.356	11760.99
698.549	11771.65
698.742	11779.98
698.935	11491.29
699.127	11526.36
699.32	11319.44
699.513	11395.78
699.706	11239.81
699.899	11431.23
700.092	11184.98
700.285	11087.14
700.477	10963.53
700.67	11048.58
700.863	10969.92
701.056	11112.91
701.248	10992.2
701.441	11045.87
701.634	10890.48
701.826	11074.74
702.019	10770.36
702.212	10892.42
702.404	10855.61
702.597	10823.06
702.79	10817.83
702.982	10901.14
703.175	10976.31
703.367	11052.26
703.56	11080.36
703.752	11182.65
703.945	11141.97
704.137	11127.63
704.33	11190.99
704.522	11211.13
704.715	11240.58
704.907	11277.4
705.1	11345.4
705.292	11263.64
705.484	11138.48
705.677	11116.2
705.869	11322.35
706.061	11190.21
706.254	11256.86
706.446	11153.79
706.638	11181.88
706.831	11206.48
707.023	11170.64
707.215	11373.69
707.407	11310.53
707.599	11239.81
707.792	11363.23
707.984	11308.59
708.176	11278.75
708.368	11260.35
708.56	11233.42
708.752	11275.27
708.944	11150.49
709.136	11222.76
709.329	11155.92
709.521	11357.8
709.713	11230.32
709.905	11229.15
710.097	11308.59
710.289	11156.3
710.481	11186.72
710.672	11228.57
710.864	11227.99
711.056	11154.17
711.248	11135.38
711.44	11144.1
711.632	11187.3
711.824	11143.9
712.016	11062.72
712.207	11043.74
712.399	11028.04
712.591	11086.56
712.783	11055.36
712.975	10955.78
713.166	11052.07
713.358	10966.04
713.55	10947.25
713.741	10955
713.933	10975.34
714.125	10905.01
714.316	10767.07
714.508	10927.49
714.7	10633.96
714.891	10672.71
715.083	10634.16
715.274	10539.61
715.466	10677.75
715.657	10540.19
715.849	10389.84
716.04	10247.05
716.232	10183.11
716.423	9907.8
716.615	9671.62
716.806	9346.71
716.998	9067.9
717.189	8680.21
717.381	8488.6
717.572	8206.31
717.763	7977.88
717.955	7833.54
718.146	7697.72
718.337	7513.66
718.528	7310.62
718.72	7046.54
718.911	7001.2
719.102	6885.34
719.293	6885.92
719.485	6795.05
719.676	6739.45
719.867	6626.11
720.058	6602.08
720.249	6504.43
720.44	6605.18
720.632	6757.66
720.823	6887.86
721.014	7302.67
721.205	7442.56
721.396	7603.76
721.587	7964.13
721.778	8096.26
721.969	8212.51
722.16	8338.83
722.351	8562.03
722.542	8596.32
722.733	8609.3
722.924	8448.49
723.115	8446.56
723.305	8238.08
723.496	8198.56
723.687	7852.72
723.878	7848.26
724.069	7739.77
724.26	7693.07
724.45	7489.83
724.641	7442.75
724.832	7393.73
725.023	7291.05
725.213	7335.03
725.404	7188.36
725.595	7150.39
725.785	7166.86
725.976	7239.32
726.167	7145.54
726.357	7287.75
726.548	7340.45
726.739	7133.34
726.929	7330.77
727.12	7350.92
727.31	7254.62
727.501	7151.74
727.691	7143.61
727.882	7117.45
728.072	7249.39
728.263	7237.77
728.453	7362.15
728.644	7343.94
728.834	7244.94
729.024	7170.54
729.215	7128.88
729.405	7147.09
729.596	7294.73
729.786	7253.65
729.976	7284.65
730.167	7257.72
730.357	7221.69
730.547	7189.33
730.737	7264.5
730.928	7300.73
731.118	7356.73
731.308	7264.89
731.498	7263.34
731.688	7455.15
731.879	7526.06
732.069	7574.11
732.259	7730.27
732.449	7820.95
732.639	7889.34
732.829	7941.07
733.019	8033.1
733.209	8174.15
733.399	8194.1
733.589	8354.33
733.779	8423.69
733.969	8448.3
734.159	8659.48
734.349	8547.69
734.539	8716.64
734.729	8720.32
734.919	8648.44
735.109	8809.44
735.299	8573.07
735.488	8707.15
735.678	8645.73
735.868	8573.85
736.058	8508.75
736.248	8490.15
736.437	8479.3
736.627	8404.51
736.817	8583.73
737.007	8428.15
737.196	8560.48
737.386	8602.13
737.576	8502.16
737.765	8673.82
737.955	8551.76
738.144	8757.91
738.334	8680.99
738.524	8516.5
738.713	8587.6
738.903	8531.61
739.092	8610.27
739.282	8600.78
739.471	8545.17
739.661	8517.47
739.85	8717.8
740.04	8588.18
740.229	8695.52
740.419	8689.9
740.608	8713.73
740.797	8645.92
740.987	8771.66
741.176	8707.15
741.365	8667.82
741.555	8484.53
741.744	8751.71
741.933	8574.04
742.123	8640.11
742.312	8682.35
742.501	8727.1
742.69	8736.6
742.88	8657.74
743.069	8818.55
743.258	8789.29
743.447	8800.92
743.636	8781.93
743.825	8731.75
744.014	8835.02
744.204	8795.49
744.393	8676.73
744.582	8856.72
744.771	8804.02
744.96	8707.15
745.149	8779.22
745.338	8688.16
745.527	8829.79
745.716	8720.32
745.905	8639.72
746.094	8812.54
746.283	8702.69
746.471	8723.81
746.66	8749.38
746.849	8756.75
747.038	8644.18
747.227	8658.32
747.416	8672.27
747.604	8647.67
747.793	8550.02
747.982	8573.65
748.171	8733.11
748.359	8592.06
748.548	8615.7
748.737	8538.59
748.926	8592.83
749.114	8340.77
749.303	8541.69
749.491	8470
749.68	8372.93
749.869	8497.51
750.057	8410.32
750.246	8408.19
750.434	8398.51
750.623	8358.4
750.811	8325.46
751	8343.87
751.188	8311.71
751.377	8263.08
751.565	8255.71
751.754	8196.04
751.942	8205.53
752.131	8290.78
752.319	8178.02
752.507	8162.13
752.696	8225.3
752.884	8176.28
753.072	8122.03
753.261	8215.61
753.449	8151.09
753.637	8088.32
753.825	8190.23
754.014	8123.97
754.202	8120.09
754.39	8154.19
754.578	8132.3
754.766	8052.67
754.955	7981.17
755.143	8134.43
755.331	8071.85
755.519	8058.87
755.707	7984.27
755.895	7971.88
756.083	7938.16
756.271	7809.9
756.459	7923.83
756.647	7912.39
756.835	7842.65
757.023	7853.69
757.211	7840.9
757.399	7774.45
757.587	7789.17
757.775	7662.07
757.963	7708.38
758.151	7733.76
758.339	7721.75
758.526	7615.96
758.714	7590.58
758.902	7312.94
759.09	7094.98
759.278	6621.46
759.465	6008.44
759.653	5308.24
759.841	4683.6
760.028	4109.14
760.216	3576.53
760.404	3199.3
760.591	2675.41
760.779	2288.49
760.967	1962.22
761.154	1702.8
761.342	1675.09
761.529	1672.57
761.717	1752.59
761.905	1782.81
762.092	1857.21
762.28	1778.36
762.467	1716.36
762.655	1610.38
762.842	1641.38
763.029	1686.13
763.217	1677.8
763.404	1657.85
763.592	1698.73
763.779	1669.47
763.966	1760.92
764.154	1840.16
764.341	1919.41
764.528	1977.72
764.716	2091.07
764.903	2231.73
765.09	2350.11
765.277	2475.07
765.465	2805.61
765.652	2955.37
765.839	3108.82
766.026	3408.93
766.213	3560.25
766.4	3769.11
766.588	4092.28
766.775	4254.83
766.962	4505.35
767.149	4707.82
767.336	4972.86
767.523	5046.68
767.71	5228.8
767.897	5498.89
768.084	5630.05
768.271	5761.41
768.458	5886.19
768.645	6024.33
768.832	6107.25
769.019	6150.84
769.206	6206.26
769.392	6339.94
769.579	6434.49
769.766	6450.77
769.953	6478.47
770.14	6503.08
770.327	6603.44
770.513	6623.59
770.7	6745.07
770.887	6662.14
771.073	6689.85
771.26	6714.07
771.447	6672.8
771.634	6632.11
771.82	6819.85
772.007	6647.03
772.193	6779.55
772.38	6728.02
772.567	6730.34
772.753	6685.39
772.94	6732.67
773.126	6751.46
773.313	6790.4
773.499	6660.21
773.686	6770.84
773.872	6635.21
774.059	6704.77
774.245	6637.15
774.432	6679
774.618	6498.62
774.804	6671.06
774.991	6564.88
775.177	6598.79
775.363	6564.3
775.55	6604.02
775.736	6523.23
775.922	6617
776.109	6570.7
776.295	6600.92
776.481	6629.01
776.667	6501.14
776.853	6466.27
777.04	6525.16
777.226	6551.71
777.412	6495.71
777.598	6437.98
777.784	6486.42
777.97	6404.07
778.156	6493.78
778.342	6453.09
778.528	6394.19
778.715	6361.25
778.901	6383.15
779.087	6378.89
779.272	6351.76
779.458	6335.87
779.644	6360.09
779.83	6310.49
780.016	6407.37
780.202	6325.22
780.388	6298.67
780.574	6159.76
780.76	6245.59
780.946	6213.04
781.131	6250.82
781.317	6160.73
781.503	6193.86
781.689	6179.91
781.874	6335.1
782.06	6104.54
782.246	6191.53
782.432	6163.63
782.617	6130.11
782.803	6137.28
782.989	6085.94
783.174	6050.29
783.36	6001.08
783.545	6037.7
783.731	6001.85
783.916	5894.13
784.102	5996.43
784.288	5986.55
784.473	5949.54
784.659	5869.91
784.844	5981.32
785.029	5951.67
785.215	5886.57
785.4	5862.16
785.586	5943.34
785.771	5827.67
785.956	5917.96
786.142	5845.69
786.327	5843.17
786.512	5738.74
786.698	5788.54
786.883	5658.73
787.068	5723.24
787.254	5728.09
787.439	5674.03
787.624	5616.3
787.809	5587.82
787.994	5602.15
788.18	5676.36
788.365	5546.55
788.55	5524.65
788.735	5512.84
788.92	5510.51
789.105	5470.99
789.29	5466.92
789.475	5377.99
789.66	5408.99
789.845	5348.73
790.03	5352.99
790.215	5386.32
790.4	5367.72
790.585	5354.74
790.77	5386.12
790.955	5285.18
791.14	5304.17
791.325	5362.68
791.51	5283.83
791.695	5309.21
791.879	5303.01
792.064	5274.14
792.249	5365.39
792.434	5307.46
792.618	5316.96
792.803	5409.18
792.988	5319.67
793.173	5317.93
793.357	5390.77
793.542	5272.39
793.727	5385.16
793.911	5344.08
794.096	5364.04
794.281	5414.8
794.465	5479.32
794.65	5321.8
794.834	5446.57
795.019	5425.84
795.203	5483.39
795.388	5479.12
795.572	5501.99
795.757	5427.01
795.941	5455.29
796.126	5330.13
796.31	5266.58
796.494	5324.51
796.679	5315.6
796.863	5358.03
797.048	5433.01
797.232	5358.22
797.416	5379.92
797.601	5401.04
797.785	5411.31
797.969	5466.34
798.153	5424.49
798.338	5469.82
798.522	5492.88
798.706	5520.78
798.89	5458.78
799.074	5590.14
799.258	5583.94
799.443	5487.45
799.627	5513.61
799.811	5540.35
799.995	5451.22
800.179	5434.56
800.363	5382.44
800.547	5431.85
800.731	5474.09
800.915	5357.26
801.099	5340.98
801.283	5407.24
801.467	5373.34
801.651	5410.54
801.835	5424.29
802.019	5380.51
802.202	5424.49
802.386	5311.14
802.57	5242.75
802.754	5338.85
802.938	5262.13
803.121	5296.42
803.305	5406.47
803.489	5387.48
803.673	5314.83
803.856	5376.05
804.04	5343.89
804.224	5391.74
804.407	5304.36
804.591	5305.72
804.775	5313.08
804.958	5382.83
805.142	5429.52
805.326	5363.26
805.509	5417.51
805.693	5430.69
805.876	5402.59
806.06	5446.19
806.243	5451.42
806.427	5516.52
806.61	5498.89
806.794	5378.18
806.977	5478.74
807.16	5425.65
807.344	5453.55
807.527	5467.89
807.71	5411.7
807.894	5399.69
808.077	5381.47
808.26	5379.54
808.444	5347.18
808.627	5441.15
808.81	5252.25
808.993	5228.8
809.177	5252.83
809.36	5200.13
809.543	5213.3
809.726	5118.17
809.909	5043.19
810.092	5087.95
810.276	5101.7
810.459	5010.45
810.642	5012
810.825	4935.27
811.008	5005.22
811.191	4809.34
811.374	4828.13
811.557	4784.93
811.74	4838.01
811.923	4775.24
812.106	4703.17
812.289	4684.18
812.472	4647.95
812.654	4596.6
812.837	4531.31
813.02	4457.3
813.203	4337.37
813.386	4233.72
813.569	4147.11
813.751	4038.81
813.934	4103.71
814.117	4071.74
814.3	3922.17
814.482	3819.87
814.665	3746.44
814.848	3703.24
815.03	3612.17
815.213	3559.67
815.396	3539.71
815.578	3510.65
815.761	3461.25
815.943	3469.58
816.126	3339.57
816.309	3311.29
816.491	3226.23
816.674	3106.3
816.856	3225.07
817.039	3232.24
817.221	3331.82
817.403	3187.29
817.586	3223.52
817.768	3245.22
817.951	3122.77
818.133	3144.86
818.315	3147.38
818.498	3194.46
818.68	3299.85
818.862	3258.97
819.045	3358.56
819.227	3296.95
819.409	3257.81
819.591	3334.15
819.774	3238.44
819.956	3272.54
820.138	3360.69
820.32	3394.6
820.502	3527.51
820.684	3620.12
820.866	3670.3
821.048	3698.2
821.231	3780.54
821.413	3767.56
821.595	3718.74
821.777	3763.3
821.959	3725.71
822.141	3782.09
822.323	3579.63
822.505	3401.57
822.686	3314.77
822.868	3092.35
823.05	2964.67
823.232	2834.09
823.414	2758.33
823.596	2903.64
823.778	2862.95
823.96	2956.34
824.141	2990.63
824.323	3073.36
824.505	3205.11
824.687	3294.43
824.868	3419.98
825.05	3517.24
825.232	3609.66
825.413	3673.21
825.595	3644.53
825.777	3590.09
825.958	3608.88
826.14	3636.97
826.321	3682.51
826.503	3695.49
826.685	3723.97
826.866	3731.91
827.048	3695.49
827.229	3576.14
827.411	3537.19
827.592	3441.29
827.773	3418.82
827.955	3327.17
828.136	3300.24
828.318	3323.3
828.499	3314.77
828.68	3243.47
828.862	3283.97
829.043	3252.19
829.224	3177.02
829.406	3189.81
829.587	3191.74
829.768	3231.27
829.949	3207.82
830.131	3268.85
830.312	3348.68
830.493	3254.52
830.674	3308.38
830.855	3264.98
831.036	3268.66
831.218	3330.47
831.399	3364.95
831.58	3257.04
831.761	3271.37
831.942	3281.45
832.123	3311.29
832.304	3204.53
832.485	3240.37
832.666	3320.39
832.847	3288.23
833.028	3288.23
833.209	3264.59
833.389	3250.45
833.57	3179.92
833.751	3213.25
833.932	3276.22
834.113	3265.17
834.294	3229.52
834.475	3305.67
834.655	3354.68
834.836	3358.95
835.017	3355.27
835.198	3319.04
835.378	3372.12
835.559	3431.02
835.74	3377.35
835.92	3408.74
836.101	3332.6
836.281	3450.98
836.462	3425.6
836.643	3430.05
836.823	3454.27
837.004	3490.11
837.184	3458.92
837.365	3478.1
837.545	3432.38
837.726	3432.76
837.906	3509.88
838.087	3467.83
838.267	3435.67
838.448	3394.6
838.628	3424.43
838.808	3431.8
838.989	3478.3
839.169	3417.85
839.349	3493.8
839.53	3478.49
839.71	3488.95
839.89	3447.49
840.07	3560.44
840.251	3415.13
840.431	3545.14
840.611	3438.19
840.791	3403.7
840.971	3471.9
841.151	3435.86
841.332	3380.45
841.512	3494.96
841.692	3384.72
841.872	3469.77
842.052	3404.09
842.232	3448.26
842.412	3382.78
842.592	3438
842.772	3441.1
842.952	3450.78
843.132	3362.43
843.312	3383.36
843.492	3344.42
843.672	3375.03
843.851	3293.65
844.031	3319.23
844.211	3351.78
844.391	3324.46
844.571	3359.14
844.751	3325.82
844.93	3387.23
845.11	3326.79
845.29	3354.3
845.47	3335.5
845.649	3362.82
845.829	3352.17
846.009	3316.13
846.188	3412.81
846.368	3378.9
846.547	3317.29
846.727	3364.18
846.907	3317.68
847.086	3300.05
847.266	3334.54
847.445	3301.4
847.625	3310.32
847.804	3258.39
847.984	3273.31
848.163	3265.95
848.343	3241.34
848.522	3252.77
848.701	3265.17
848.881	3238.44
849.06	3290.55
849.239	3239.79
849.419	3212.67
849.598	3107.46
849.777	3082.08
849.957	3050.5
850.136	2940.07
850.315	2969.9
850.494	2965.64
850.674	2994.12
850.853	3041.59
851.032	2999.55
851.211	3006.91
851.39	3016.01
851.569	2967.77
851.748	2991.41
851.927	3080.53
852.107	3018.15
852.286	2997.41
852.465	2964.87
852.644	3067.94
852.823	3001.1
853.002	3002.65
853.181	2994.9
853.359	2999.16
853.538	2898.02
853.717	2929.22
853.896	2805.41
854.075	2687.03
854.254	2617.09
854.433	2525.45
854.611	2599.26
854.79	2518.47
854.969	2607.4
855.148	2644.41
855.327	2593.65
855.505	2686.64
855.684	2687.42
855.863	2687.23
856.041	2748.26
856.22	2788.75
856.399	2757.36
856.577	2900.74
856.756	2889.89
856.934	2979.01
857.113	2978.23
857.291	2868.38
857.47	2842.8
857.648	2903.06
857.827	2849
858.005	2929.41
858.184	2848.81
858.362	2963.12
858.541	2860.05
858.719	2851.14
858.898	2842.61
859.076	2827.89
859.254	2857.53
859.433	2855.01
859.611	2821.49
859.789	2738.76
859.967	2856.75
860.146	2858.11
860.324	2783.13
860.502	2786.81
860.68	2741.67
860.859	2759.49
861.037	2761.04
861.215	2789.91
861.393	2770.92
861.571	2765.69
861.749	2731.98
861.927	2755.04
862.105	2748.64
862.283	2729.46
862.461	2729.27
862.639	2701.76
862.817	2686.64
862.995	2738.96
863.173	2701.95
863.351	2720.74
863.529	2743.02
863.707	2732.56
863.885	2718.23
864.063	2627.16
864.241	2658.55
864.418	2728.69
864.596	2655.06
864.774	2578.53
864.952	2647.7
865.129	2649.25
865.307	2593.06
865.485	2527.77
865.663	2565.55
865.84	2470.42
866.018	2457.64
866.196	2309.42
866.373	2324.53
866.551	2277.06
866.728	2248.19
866.906	2299.54
867.084	2311.36
867.261	2332.47
867.439	2400.87
867.616	2418.5
867.794	2397.38
867.971	2419.27
868.149	2425.86
868.326	2480.88
868.503	2473.13
868.681	2451.63
868.858	2462.29
869.035	2420.05
869.213	2436.9
869.39	2422.95
869.567	2514.98
869.745	2436.52
869.922	2446.01
870.099	2456.47
870.276	2465.58
870.454	2475.46
870.631	2473.52
870.808	2422.95
870.985	2459.77
871.162	2484.57
871.339	2456.67
871.517	2345.84
871.694	2381.1
871.871	2404.35
872.048	2394.47
872.225	2405.13
872.402	2399.9
872.579	2359.02
872.756	2390.99
872.933	2282.1
873.11	2362.31
873.287	2369.87
873.463	2291.01
873.64	2316.97
873.817	2310.58
873.994	2318.52
874.171	2288.3
874.348	2286.75
874.524	2251.1
874.701	2279.39
874.878	2209.83
875.055	2241.99
875.231	2237.54
875.408	2275.51
875.585	2213.51
875.762	2263.11
875.938	2244.71
876.115	2234.44
876.291	2166.43
876.468	2210.99
876.645	2173.02
876.821	2187.94
876.998	2210.61
877.174	2201.7
877.351	2179.03
877.527	2162.75
877.704	2187.55
877.88	2133.69
878.057	2135.63
878.233	2214.87
878.409	2154.23
878.586	2149.19
878.762	2157.13
878.938	2143.18
879.115	2061.62
879.291	2160.23
879.467	2073.82
879.644	2101.14
879.82	2131.17
879.996	2113.54
880.172	2063.36
880.349	2057.35
880.525	2090.87
880.701	1995.16
880.877	1995.74
881.053	2068.59
881.229	2049.22
881.405	2099.01
881.581	2024.22
881.757	2030.62
881.933	2070.53
882.109	2078.47
882.285	2031
882.461	1961.25
882.637	2039.14
882.813	2023.45
882.989	2025.58
883.165	2091.45
883.341	2024.03
883.517	2083.7
883.693	2078.67
883.869	2073.82
884.044	1995.55
884.22	2063.36
884.396	2053.67
884.572	2068.59
884.747	2096.88
884.923	2081.57
885.099	2100.56
885.275	2083.51
885.45	2019.19
885.626	2021.32
885.801	2045.53
885.977	2017.05
886.153	1970.94
886.328	2009.69
886.504	1987.02
886.679	1986.25
886.855	2014.34
887.03	1974.04
887.206	2036.23
887.381	2021.7
887.557	2028.68
887.732	2040.11
887.908	2037.4
888.083	2031.58
888.258	2009.69
888.434	2009.11
888.609	2020.74
888.784	2087.58
888.96	2005.62
889.135	2005.24
889.31	2005.43
889.485	2023.84
889.661	1954.28
889.836	2040.11
890.011	2060.84
890.186	2032.36
890.361	2001.75
890.537	2019.19
890.712	2020.54
890.887	2066.07
891.062	2007.75
891.237	2091.07
891.412	1994.58
891.587	2020.15
891.762	2013.76
891.937	2061.42
892.112	1926.96
892.287	1941.11
892.462	1953.89
892.637	1913.98
892.812	1862.06
892.987	1863.22
893.161	1827.96
893.336	1841.13
893.511	1850.24
893.686	1814.98
893.861	1840.16
894.035	1849.08
894.21	1811.68
894.385	1759.56
894.56	1756.46
894.734	1684.97
894.909	1663.85
895.084	1621.81
895.258	1610.77
895.433	1629.17
895.608	1558.07
895.782	1542.57
895.957	1483.67
896.131	1510.02
896.306	1425.54
896.48	1433.68
896.655	1406.75
896.829	1283.14
897.004	1287.4
897.178	1321.11
897.353	1309.68
897.527	1363.93
897.701	1333.71
897.876	1312.59
898.05	1377.49
898.224	1371.88
898.399	1349.79
898.573	1271.9
898.747	1140.54
898.921	1143.45
899.096	1033.79
899.27	1067.5
899.444	1082.22
899.618	1133.95
899.792	1180.26
899.967	1227.73
900.141	1232.38
900.315	1137.05
900.489	1129.11
900.663	1122.14
900.837	1105.86
901.011	1055.68
901.185	1211.26
901.359	1135.31
901.533	1198.08
901.707	1146.94
901.881	1140.54
902.055	1086.87
902.229	1153.72
902.403	1196.92
902.576	1149.07
902.75	1132.21
902.924	1277.13
903.098	1274.81
903.272	1335.45
903.446	1408.88
903.619	1388.54
903.793	1474.76
903.967	1448.99
904.14	1481.34
904.314	1479.79
904.488	1442.98
904.661	1461.58
904.835	1469.72
905.009	1493.55
905.182	1547.02
905.356	1492.58
905.529	1473.01
905.703	1435.23
905.876	1401.33
906.05	1343.78
906.223	1334.48
906.397	1246.13
906.57	1235.67
906.744	1171.54
906.917	1165.53
907.09	1143.06
907.264	1090.94
907.437	1067.5
907.61	1062.46
907.784	1083.39
907.957	1082.61
908.13	1026.62
908.304	1050.84
908.477	997.56
908.65	1037.86
908.823	990.39
908.996	1032.62
909.17	989.42
909.343	990.58
909.516	958.61
909.689	997.75
909.862	976.83
910.035	996.78
910.208	948.15
910.381	930.52
910.554	1054.71
910.727	983.22
910.9	961.13
911.073	1002.21
911.246	1073.89
911.419	1089
911.592	1053.94
911.765	987.48
911.938	966.75
912.11	1011.51
912.283	993.87
912.456	1041.34
912.629	1000.27
912.802	963.26
912.974	852.63
913.147	820.66
913.32	771.26
913.493	779.2
913.665	859.41
913.838	840.04
914.01	852.63
914.183	905.14
914.356	921.41
914.528	943.11
914.701	961.91
914.873	955.51
915.046	823.57
915.218	810.01
915.391	720.3
915.563	729.02
915.736	810.98
915.908	841.59
916.081	866
916.253	869.1
916.425	895.65
916.598	920.06
916.77	856.12
916.942	817.18
917.115	745.1
917.287	799.74
917.459	765.83
917.632	716.04
917.804	710.23
917.976	784.43
918.148	820.47
918.32	856.7
918.493	867.55
918.665	900.68
918.837	900.88
919.009	939.82
919.181	946.41
919.353	913.86
919.525	900.88
919.697	914.24
919.869	956.68
920.041	1023.91
920.213	1073.31
920.385	1019.45
920.557	994.65
920.729	998.14
920.901	957.06
921.073	912.11
921.244	924.13
921.416	938.66
921.588	932.07
921.76	932.07
921.932	990.39
922.103	958.03
922.275	943.5
922.447	942.92
922.619	901.84
922.79	935.75
922.962	906.88
923.134	932.26
923.305	844.69
923.477	827.06
923.648	813.69
923.82	838.49
923.991	784.63
924.163	748.78
924.335	796.64
924.506	803.42
924.677	838.68
924.849	787.92
925.02	823.96
925.192	824.93
925.363	814.85
925.535	771.84
925.706	773
925.877	864.26
926.049	778.82
926.22	812.14
926.391	818.53
926.562	829
926.734	772.42
926.905	834.23
927.076	733.67
927.247	758.47
927.419	663.92
927.59	661.99
927.761	666.44
927.932	637.77
928.103	583.71
928.274	556.01
928.445	531.01
928.616	561.43
928.787	520.55
928.958	576.54
929.129	522.29
929.3	508.73
929.471	455.45
929.642	371.56
929.813	375.63
929.984	448.09
930.155	369.82
930.326	383.18
930.496	314.21
930.667	308.4
930.838	326.42
931.009	247.37
931.18	296.77
931.35	278.75
931.521	271.2
931.692	218.11
931.863	169.48
932.033	215.59
932.204	211.91
932.374	208.42
932.545	160.37
932.716	226.25
932.886	196.99
933.057	106.9
933.227	147.2
933.398	194.67
933.568	106.51
933.739	61.76
933.909	79.78
934.08	123.95
934.25	74.74
934.421	97.99
934.591	122.79
934.761	87.91
934.932	90.43
935.102	93.92
935.272	94.5
935.443	78.03
935.613	102.06
935.783	81.33
935.953	58.27
936.123	210.36
936.294	58.46
936.464	67.57
936.634	58.46
936.804	49.36
936.974	62.14
937.144	98.96
937.314	86.17
937.484	60.01
937.655	57.69
937.825	107.48
937.995	68.15
938.165	124.53
938.334	117.94
938.504	132.67
938.674	134.02
938.844	173.55
939.014	224.5
939.184	219.08
939.354	258.6
939.524	265.58
939.694	216.75
939.863	187.11
940.033	251.24
940.203	216.37
940.373	204.35
940.542	206.1
940.712	158.24
940.882	215.4
941.051	230.32
941.221	216.56
941.391	241.75
941.56	157.47
941.73	157.86
941.899	285.15
942.069	174.13
942.238	193.7
942.408	161.15
942.577	189.05
942.747	169.48
942.916	107.29
943.086	158.44
943.255	178.01
943.425	169.48
943.594	157.66
943.763	71.83
943.933	72.99
944.102	51.1
944.271	147.97
944.441	143.13
944.61	134.8
944.779	170.06
944.948	234
945.117	131.51
945.287	136.16
945.456	88.69
945.625	90.82
945.794	134.61
945.963	87.14
946.132	128.02
946.301	110
946.47	155.34
946.639	79.97
946.808	103.22
946.977	153.21
947.146	180.52
947.315	130.73
947.484	155.92
947.653	120.27
947.822	103.61
947.991	123.56
948.16	182.27
948.329	184.98
948.498	131.12
948.666	142.94
948.835	175.1
949.004	103.41
949.173	127.24
949.341	143.52
949.51	140.81
949.679	183.04
949.847	155.92
950.016	220.82
950.185	181.88
950.353	146.62
950.522	126.66
950.69	179.75
950.859	118.52
951.028	189.63
951.196	169.87
951.365	120.85
951.533	105.16
951.701	145.26
951.87	153.98
952.038	113.29
952.207	132.86
952.375	181.69
952.543	115.81
952.712	137.51
952.88	123.56
953.048	173.94
953.217	155.72
953.385	168.32
953.553	193.51
953.721	89.46
953.89	147.01
954.058	95.47
954.226	119.11
954.394	124.72
954.562	92.18
954.73	131.7
954.898	171.61
955.067	172.97
955.235	128.41
955.403	170.84
955.571	196.02
955.739	143.52
955.907	109.03
956.075	115.81
956.243	127.82
956.41	172.97
956.578	109.42
956.746	107.09
956.914	139.64
957.082	191.37
957.25	200.29
957.418	145.46
957.585	176.46
957.753	219.85
957.921	133.25
958.089	137.9
958.256	159.99
958.424	170.06
958.592	165.61
958.759	102.64
958.927	169.29
959.095	109.03
959.262	120.07
959.43	149.33
959.597	129.37
959.765	160.18
959.932	104.96
960.1	192.34
960.267	153.01
960.435	163.47
960.602	165.61
960.77	130.15
960.937	141
961.104	164.06
961.272	110.39
961.439	136.74
961.606	182.46
961.774	177.81
961.941	148.75
962.108	194.67
962.275	148.75
962.443	190.41
962.61	193.12
962.777	213.65
962.944	195.06
963.111	192.92
963.278	208.42
963.446	189.82
963.613	176.26
963.78	193.31
963.947	160.37
964.114	167.93
964.281	262.09
964.448	180.33
964.615	171.42
964.782	199.7
964.949	218.69
965.116	208.62
965.282	240.2
965.449	179.56
965.616	153.98
965.783	215.4
965.95	184.59
966.117	147.2
966.283	185.37
966.45	204.94
966.617	184.21
966.784	252.99
966.95	251.44
967.117	230.51
967.284	188.08
967.45	191.57
967.617	279.53
967.784	247.56
967.95	268.1
968.117	225.86
968.283	277.98
968.45	308.98
968.616	233.42
968.783	277.2
968.949	265.39
969.116	292.7
969.282	240
969.449	250.85
969.615	250.85
969.781	229.74
969.948	221.6
970.114	240.97
970.28	290.96
970.447	242.91
970.613	294.25
970.779	252.21
970.945	266.16
971.112	249.89
971.278	223.54
971.444	249.11
971.61	285.53
971.776	243.69
971.942	236.32
972.108	261.51
972.275	244.46
972.441	244.65
972.607	286.31
972.773	222.95
972.939	241.94
973.105	210.75
973.271	204.74
973.437	218.5
973.602	191.37
973.768	225.47
973.934	221.79
974.1	211.33
974.266	154.95
974.432	198.15
974.598	181.11
974.763	199.51
974.929	200.87
975.095	238.84
975.261	180.33
975.426	163.28
975.592	192.73
975.758	247.75
975.923	132.28
976.089	178.2
976.255	191.18
976.42	195.25
976.586	210.17
976.751	220.24
976.917	266.74
977.082	236.71
977.248	174.13
977.413	157.27
977.579	188.27
977.744	198.35
977.91	158.63
978.075	184.59
978.24	212.1
978.406	200.48
978.571	176.46
978.736	187.31
978.902	205.32
979.067	179.56
979.232	143.13
979.397	170.64
979.563	255.5
979.728	180.52
979.893	178.01
980.058	188.66
980.223	226.25
980.388	205.13
980.554	206.87
980.719	182.46
980.884	188.86
981.049	220.82
981.214	171.42
981.379	223.15
981.544	198.35
981.709	215.01
981.874	197.96
982.039	209.78
982.204	222.18
982.368	199.32
982.533	197.57
982.698	219.08
982.863	257.83
983.028	193.7
983.193	212.49
983.357	198.74
983.522	196.22
983.687	211.14
983.852	184.98
984.016	194.28
984.181	189.24
984.346	226.44
984.51	204.35
984.675	200.09
984.839	201.06
985.004	192.54
985.168	220.63
985.333	234.39
985.498	203.97
985.662	211.91
985.827	243.69
985.991	194.86
986.155	196.02
986.32	246.98
986.484	260.54
986.649	200.87
986.813	148.17
986.977	201.45
987.142	241.75
987.306	159.99
987.47	149.52
987.634	190.02
987.799	202.61
987.963	181.88
988.127	212.49
988.291	238.45
988.455	202.22
988.62	191.76
988.784	210.55
988.948	213.65
989.112	174.71
989.276	205.32
989.44	196.22
989.604	187.89
989.768	169.87
989.932	288.63
990.096	155.34
990.26	160.37
990.424	164.83
990.588	168.12
990.752	257.25
990.915	197.57
991.079	186.92
991.243	177.42
991.407	224.5
991.571	182.07
991.734	195.44
991.898	210.36
992.062	247.17
992.226	189.82
992.389	164.06
992.553	149.52
992.717	149.72
992.88	164.64
993.044	189.24
993.207	168.71
993.371	194.09
993.535	174.71
993.698	176.07
993.862	217.72
994.025	203.39
994.189	191.96
994.352	196.99
994.515	187.11
994.679	200.29
994.842	158.24
995.006	178.2
995.169	153.4
995.332	159.21
995.496	192.54
995.659	115.62
995.822	165.02
995.985	156.89
996.149	209.39
996.312	159.21
996.475	228.96
996.638	139.84
996.801	198.93
996.964	236.9
997.128	147.2
997.291	133.44
997.454	179.56
997.617	124.53
997.78	178.39
997.943	152.62
998.106	192.34
998.269	121.24
998.432	150.49
998.595	166.77
998.758	101.28
998.92	147.2
999.083	57.49
999.246	144.87
999.409	96.63
999.572	98.96
999.735	141.19
999.897	170.26
1000.06	120.27
1000.223	104.58
1000.386	172.77
1000.548	149.14
1000.711	148.56
1000.874	156.69
1001.036	85.78
1001.199	162.31
1001.361	126.86
1001.524	141
1001.687	158.63
1001.849	108.06
1002.012	125.11
1002.174	167.54
1002.337	140.61
1002.499	132.86
1002.661	156.69
1002.824	111.94
1002.986	101.48
1003.149	135.38
1003.311	124.72
1003.473	179.94
1003.636	100.12
1003.798	147.97
1003.96	161.15
1004.123	118.91
1004.285	113.49
1004.447	134.02
1004.609	129.76
1004.771	171.61
1004.933	74.16
1005.096	101.09
1005.258	66.21
1005.42	99.54
1005.582	148.17
1005.744	109.42
1005.906	67.96
1006.068	126.08
1006.23	79.58
1006.392	89.66
1006.554	53.23
1006.716	121.43
1006.878	130.73
1007.04	58.08
1007.202	68.34
1007.363	89.27
1007.525	115.81
1007.687	115.04
1007.849	136.54
1008.011	82.29
1008.172	81.52
1008.334	83.46
1008.496	152.62
1008.658	66.02
1008.819	82.29
1008.981	73.58
1009.143	66.21
1009.304	87.14
1009.466	122.4
1009.627	139.26
1009.789	184.98
1009.95	105.93
1010.112	84.23
1010.273	83.46
1010.435	99.73
1010.596	78.23
1010.758	67.18
1010.919	71.06
1011.081	47.81
1011.242	103.03
1011.403	107.09
1011.565	105.35
1011.726	105.35
1011.887	57.11
1012.049	97.6
1012.21	105.54
1012.371	140.81
1012.532	0.92
1012.693	78.23
1012.855	82.49
1013.016	87.33
1013.177	119.3
1013.338	81.71
1013.499	148.75
1013.66	96.24
1013.821	110.97
1013.982	76.87
1014.143	87.14
1014.304	66.02
1014.465	103.61
1014.626	129.37
1014.787	62.34
1014.948	135.77
1015.109	27.85
1015.27	140.81
1015.431	49.74
1015.592	63.69
1015.752	129.76
1015.913	69.51
1016.074	85.2
1016.235	86.75
1016.395	96.44
1016.556	72.22
1016.717	59.43
1016.877	118.33
1017.038	65.05
1017.199	92.56
1017.359	63.11
1017.52	103.41
1017.681	60.79
1017.841	91.21
1018.002	58.27
1018.162	42.77
1018.323	127.44
1018.483	71.44
1018.644	65.63
1018.804	37.15
1018.964	41.61
1019.125	43.74
1019.285	73.19
1019.446	35.02
1019.606	37.15
1019.766	9.83
1019.926	67.76
1020.087	83.65
1020.247	25.14
1020.407	73.96
1020.567	59.24
1020.728	40.25
1020.888	18.94
1021.048	32.69
1021.208	41.61
1021.368	34.44
1021.528	93.73
1021.688	68.54
1021.848	45.29
1022.008	55.17
1022.168	19.52
1022.328	43.16
1022.488	64.86
1022.648	67.38
1022.808	49.74
1022.968	43.54
1023.128	23.78
1023.288	29.01
1023.448	58.08
1023.608	61.37
1023.767	51.1
1023.927	37.73
1024.087	30.76
1024.247	14.1
1024.406	36.18
1024.566	17.39
1024.726	15.06
1024.885	54.01
1025.045	62.73
1025.205	50.71
1025.364	37.34
1025.524	45.29
1025.683	32.11
1025.843	47.61
1026.003	44.32
1026.162	90.63
1026.321	85.78
1026.481	50.91
1026.64	29.01
1026.8	59.24
1026.959	59.24
1027.119	50.91
1027.278	33.86
1027.437	-6.25
1027.597	61.76
1027.756	55.75
1027.915	44.71
1028.074	58.46
1028.234	4.99
1028.393	34.24
1028.552	9.06
1028.711	-32.4
1028.87	99.34
1029.03	0.92
1029.189	14.1
1029.348	-18.65
1029.507	22.43
1029.666	43.93
1029.825	22.04
1029.984	27.66
1030.143	50.91
1030.302	21.26
1030.461	-3.92
1030.62	50.33
1030.779	55.75
1030.938	-2.95
1031.097	-9.15
1031.255	53.04
1031.414	79.39
1031.573	75.13
1031.732	-11.48
1031.891	27.66
1032.049	86.36
1032.208	30.95
1032.367	5.18
1032.525	17.2
1032.684	26.11
1032.843	25.91
1033.001	-16.71
1033.16	159.41
1033.319	69.89
1033.477	46.06
1033.636	9.83
1033.794	-16.9
1033.953	49.55
1034.111	58.85
1034.27	13.71
1034.428	36.38
1034.587	-16.71
1034.745	23.01
1034.903	28.63
1035.062	38.31
1035.22	5.76
1035.378	32.5
1035.537	-7.99
1035.695	17.78
1035.853	7.51
1036.011	55.75
1036.17	33.66
1036.328	-34.54
1036.486	47.23
1036.644	35.79
1036.802	-35.7
1036.96	-10.7
1037.119	3.25
1037.277	19.52
1037.435	2.86
1037.593	-6.25
1037.751	22.23
1037.909	33.08
1038.067	33.08
