Data from calibration4_FLMT105791__2__17-36-36-048.txt Node

Date: Mon Mar 20 17:36:36 GMT 2023
User: antho
Spectrometer: FLMT10579
Trigger mode: 0
Integration Time (sec): 1.000000E-1
Scans to average: 10
Electric dark correction enabled: true
Nonlinearity correction enabled: false
Boxcar width: 0
XAxis mode: Wavelengths
Number of Pixels in Spectrum: 3648
>>>>>Begin Spectral Data<<<<<
345.248	-143.74
345.464	-143.74
345.681	-143.74
345.898	-138.51
346.114	-141.23
346.331	-14.71
346.548	3.89
346.764	7.96
346.981	1.37
347.197	-14.32
347.414	11.06
347.631	-40.28
347.847	67.44
348.064	5.44
348.28	11.06
348.497	-46.87
348.713	7.96
348.93	34.31
349.146	87.01
349.363	91.85
349.579	107.74
349.796	103.86
350.012	121.88
350.229	121.88
350.445	115.3
350.661	111.81
350.878	109.29
351.094	132.93
351.311	136.61
351.527	122.85
351.743	109.1
351.96	163.15
352.176	152.3
352.392	148.62
352.609	138.35
352.825	131.96
353.041	140.1
353.257	130.21
353.474	122.66
353.69	132.93
353.906	130.41
354.122	135.06
354.339	182.33
354.555	186.98
354.771	156.76
354.987	195.12
355.203	198.22
355.42	166.64
355.636	162.96
355.852	151.33
356.068	139.9
356.284	108.51
356.5	219.14
356.716	158.7
356.932	141.45
357.148	186.4
357.364	143
357.58	176.91
357.796	213.53
358.012	160.44
358.228	163.93
358.444	111.81
358.66	177.68
358.876	146.88
359.092	142.81
359.308	166.25
359.524	186.79
359.74	193.38
359.956	182.14
360.172	225.34
360.388	220.89
360.604	179.04
360.819	269.32
361.035	233.48
361.251	219.73
361.467	181.94
361.683	226.7
361.898	212.17
362.114	241.23
362.33	248.98
362.546	261.19
362.762	232.51
362.977	270.29
363.193	218.37
363.409	268.74
363.624	219.73
363.84	215.08
364.056	219.14
364.271	262.74
364.487	254.79
364.703	267
364.918	229.99
365.134	249.18
365.35	260.41
365.565	387.32
365.781	327.64
365.996	332.49
366.212	393.13
366.427	343.14
366.643	326.09
366.858	348.37
367.074	313.69
367.289	391.58
367.505	442.73
367.72	326.67
367.936	352.05
368.151	378.79
368.367	361.74
368.582	355.15
368.798	332.49
369.013	401.46
369.228	348.95
369.444	391.19
369.659	396.23
369.874	377.24
370.09	432.07
370.305	363.49
370.52	387.32
370.736	439.43
370.951	380.92
371.166	418.9
371.381	437.3
371.597	428
371.812	397.2
372.027	357.67
372.242	397
372.458	450.48
372.673	381.7
372.888	357.67
373.103	390.8
373.318	448.35
373.533	377.63
373.749	366.78
373.964	261.19
374.179	400.88
374.394	330.36
374.609	380.54
374.824	315.24
375.039	375.3
375.254	330.55
375.469	409.6
375.684	387.9
375.899	456.29
376.114	455.52
376.329	447.38
376.544	436.33
376.759	444.28
376.974	413.09
377.189	454.74
377.404	431.68
377.619	498.92
377.834	460.75
378.049	509.18
378.264	488.07
378.478	578.16
378.693	522.36
378.908	568.86
379.123	511.12
379.338	554.91
379.553	518.87
379.767	490.97
379.982	490.58
380.197	519.45
380.412	479.15
380.626	561.69
380.841	641.51
381.056	578.35
381.271	641.51
381.485	545.22
381.7	534.18
381.915	554.33
382.129	510.54
382.344	507.05
382.559	448.54
382.773	487.48
382.988	418.12
383.202	425.1
383.417	398.36
383.632	488.45
383.846	399.91
384.061	446.41
384.275	434.01
384.49	511.51
384.704	524.68
384.919	591.53
385.133	601.99
385.348	660.89
385.562	582.42
385.777	645.58
385.991	602.96
386.206	580.68
386.42	570.02
386.634	649.07
386.849	653.53
387.063	665.73
387.277	630.86
387.492	648.49
387.706	612.06
387.92	646.55
388.135	689.76
388.349	680.65
388.563	662.63
388.778	682.78
388.992	710.49
389.206	708.74
389.42	787.79
389.635	761.25
389.849	822.09
390.063	889.9
390.277	874.78
390.491	930.58
390.706	888.73
390.92	899.58
391.134	905.98
391.348	978.44
391.562	950.54
391.776	1013.31
391.99	1002.85
392.205	1002.85
392.419	923.22
392.633	918.57
392.847	845.34
393.061	736.64
393.275	734.51
393.489	589.78
393.703	532.05
393.917	560.33
394.131	543.28
394.345	680.84
394.559	786.82
394.773	850.76
394.986	979.21
395.2	1053.23
395.414	1123.75
395.628	1083.45
395.842	1176.26
396.056	1145.26
396.27	1043.73
396.484	1023
396.697	924.58
396.911	791.28
397.125	701.19
397.339	699.25
397.553	722.89
397.766	891.83
397.98	1050.51
398.194	1200.28
398.408	1286.11
398.621	1385.12
398.835	1408.17
399.049	1472.5
399.262	1541.66
399.476	1618
399.69	1606.18
399.903	1666.05
400.117	1621.87
400.331	1688.33
400.544	1655.59
400.758	1824.53
400.971	1715.26
401.185	1733.86
401.398	1706.74
401.612	1842.75
401.826	1888.08
402.039	1897
402.253	1893.12
402.466	1959.96
402.68	1948.14
402.893	1995.23
403.106	1949.69
403.32	1859.8
403.533	1899.71
403.747	1849.53
403.96	1925.86
404.174	2023.32
404.387	1962.68
404.6	1973.91
404.814	2002.2
405.027	1920.83
405.24	1939.04
405.454	1965.39
405.667	2047.73
405.88	1997.55
406.094	2047.15
406.307	2045.6
406.52	1977.01
406.733	1951.83
406.947	1935.16
407.16	2027.58
407.373	2067.3
407.586	2092.68
407.799	2051.99
408.012	2097.14
408.226	2098.88
408.439	2220.17
408.652	2201.18
408.865	2336.61
409.078	2398.61
409.291	2378.07
409.504	2337.19
409.717	2394.34
409.93	2341.26
410.143	2184.32
410.357	2067.88
410.57	2050.25
410.783	2054.12
410.996	2131.04
411.209	2285.46
411.421	2451.69
411.634	2519.51
411.847	2515.82
412.06	2517.57
412.273	2612.7
412.486	2565.23
412.699	2635.37
412.912	2587.7
413.125	2564.07
413.338	2542.56
413.55	2508.46
413.763	2556.12
413.976	2547.21
414.189	2578.6
414.402	2626.84
414.615	2718.29
414.827	2653
415.04	2641.76
415.253	2683.42
415.466	2729.14
415.678	2756.65
415.891	2738.44
416.104	2663.27
416.316	2730.5
416.529	2833.57
416.742	2943.42
416.954	2885.49
417.167	2865.73
417.38	2767.5
417.592	2761.5
417.805	2679.54
418.017	2732.43
418.23	2770.8
418.442	2723.91
418.655	2781.84
418.868	2749.68
419.08	2815.74
419.293	2890.92
419.505	2912.81
419.718	2880.84
419.93	2944.59
420.142	2836.67
420.355	2859.92
420.567	2838.03
420.78	2946.52
420.992	2926.18
421.205	3115.28
421.417	3076.33
421.629	3144.53
421.842	3134.85
422.054	3159.65
422.266	3157.32
422.479	3134.27
422.691	2962.99
422.903	3027.9
423.115	2902.93
423.328	2901.77
423.54	2967.64
423.752	2971.32
423.964	3097.07
424.177	3105.4
424.389	3082.53
424.601	3240.83
424.813	3221.06
425.025	3231.72
425.238	3229.01
425.45	3166.04
425.662	3153.06
425.874	3449.69
426.086	3167.01
426.298	3277.25
426.51	3245.86
426.722	3253.42
426.934	3273.57
427.146	3290.43
427.358	3190.06
427.57	3224.75
427.782	3118.18
427.994	3151.9
428.206	3151.31
428.418	3400.47
428.63	3449.1
428.842	3425.66
429.054	3292.94
429.266	3297.21
429.478	3189.68
429.69	3166.23
429.902	3085.44
430.114	3079.43
430.325	2874.45
430.537	2753.36
430.749	2645.63
430.961	2528.61
431.173	2607.85
431.384	2686.52
431.596	2783.2
431.808	3235.21
432.02	3574.07
432.231	3886.2
432.443	4003.8
432.655	3845.7
432.867	3767.43
433.078	3791.84
433.29	3920.69
433.502	3970.67
433.713	4056.11
433.925	4109.01
434.136	3944.32
434.348	3679.28
434.56	3665.91
434.771	3875.15
434.983	3761.04
435.194	4052.82
435.406	4181.28
435.617	4220.02
435.829	4319.22
436.04	4361.85
436.252	4317.09
436.463	4535.25
436.675	4685.79
436.886	4709.82
437.098	4762.52
437.309	4770.07
437.521	4626.51
437.732	4498.83
437.943	4462.21
438.155	4485.46
438.366	4369.79
438.578	4402.73
438.789	4267.11
439	4185.93
439.211	4255.67
439.423	4303.34
439.634	4498.83
439.845	4671.84
440.057	4681.72
440.268	4818.32
440.479	4753.22
440.69	4820.45
440.902	4693.16
441.113	4712.53
441.324	4831.3
441.535	5024.85
441.746	5184.5
441.957	5087.24
442.168	5244.75
442.38	5223.25
442.591	5280.6
442.802	5212.59
443.013	5388.51
443.224	5421.26
443.435	5354.22
443.646	5348.41
443.857	5270.91
444.068	5341.82
444.279	5286.02
444.49	5600.86
444.701	5465.04
444.912	5733.97
445.123	5660.54
445.334	5434.63
445.545	5599.31
445.756	5428.43
445.967	5341.24
446.178	5280.79
446.388	5245.14
446.599	5268.97
446.81	5410.41
447.021	5458.65
447.232	5569.09
447.443	5703.55
447.653	5768.84
447.864	5946.12
448.075	5957.55
448.286	5863
448.496	5828.71
448.707	5980.61
448.918	5798.1
449.129	5898.65
449.339	5890.32
449.55	6004.24
449.761	5940.69
449.971	5935.46
450.182	6080.77
450.393	6163.5
450.603	6148.78
450.814	6376.62
451.024	6359.96
451.235	6519.03
451.446	6558.55
451.656	6565.72
451.867	6419.06
452.077	6224.53
452.288	6398.91
452.498	6339.04
452.709	6255.53
452.919	6092.2
453.13	5966.27
453.34	5926.16
453.55	5744.04
453.761	6082.71
453.971	6056.94
454.182	6222.01
454.392	6226.47
454.602	6492.29
454.813	6476.4
455.023	6326.64
455.233	6189.66
455.444	6364.81
455.654	6150.33
455.864	6323.73
456.075	6428.36
456.285	6350.66
456.495	6503.72
456.705	6463.04
456.916	6678.68
457.126	6791.05
457.336	6730.02
457.546	6608.15
457.756	6719.95
457.967	6852.86
458.177	6645.74
458.387	6707.74
458.597	6509.73
458.807	6706.96
459.017	6547.51
459.227	6592.65
459.437	6563.98
459.647	6738.35
459.857	6681.58
460.068	6820.69
460.278	6835.42
460.488	6792.41
460.698	6893.54
460.908	6950.5
461.117	7098.33
461.327	7175.44
461.537	7316.49
461.747	7223.88
461.957	7190.75
462.167	7349.62
462.377	7282.78
462.587	7268.64
462.797	7460.45
463.007	7337.8
463.216	7549.38
463.426	7721.62
463.636	7547.44
463.846	7375.97
464.056	7354.66
464.265	7309.13
464.475	7329.28
464.685	7513.73
464.895	7450.57
465.104	7283.75
465.314	7596.84
465.524	7414.34
465.733	7439.72
465.943	7739.64
466.153	7818.69
466.362	7838.64
466.572	7786.14
466.782	7592
466.991	7757.27
467.201	7653.81
467.41	7550.73
467.62	7794.85
467.829	7826.82
468.039	7963.03
468.249	7898.32
468.458	8114.73
468.668	8050.6
468.877	8202.11
469.086	8223.23
469.296	8477.04
469.505	8587.67
469.715	8362.34
469.924	8379
470.134	8490.21
470.343	8259.27
470.552	8295.3
470.762	8259.27
470.971	8469.29
471.18	8499.71
471.39	8585.34
471.599	8486.14
471.808	8628.55
472.018	8962.96
472.227	9073.2
472.436	9422.14
472.645	9410.71
472.855	9320.81
473.064	9577.72
473.273	9659.87
473.482	9244.08
473.691	9496.34
473.901	9442.67
474.11	9282.83
474.319	9675.37
474.528	9527.73
474.737	10077.78
474.946	9925.3
475.155	9986.91
475.364	10208.95
475.573	10062.47
475.783	10279.66
475.992	10132.41
476.201	10191.7
476.41	10288.96
476.619	10124.67
476.828	10210.5
477.037	10123.31
477.245	10154.89
477.454	10396.88
477.663	10695.44
477.872	10988.2
478.081	11187.37
478.29	11035.86
478.499	11210.04
478.708	11452.41
478.917	11343.53
479.125	11130.99
479.334	11202.67
479.543	11542.7
479.752	11716.3
479.961	11665.34
480.169	11907.33
480.378	12002.08
480.587	12329.9
480.796	12183.81
481.004	12202.99
481.213	12348.3
481.422	12453.12
481.63	12762.34
481.839	12797.02
482.048	12926.44
482.256	12897.96
482.465	13291.27
482.674	13079.5
482.882	13140.15
483.091	13232.76
483.299	13077.95
483.508	13452.27
483.716	13593.32
483.925	13610.95
484.134	13255.04
484.342	13508.65
484.551	13512.72
484.759	13459.64
484.967	13975.97
485.176	13806.44
485.384	13860.89
485.593	13670.24
485.801	13478.04
486.01	12932.26
486.218	12388.8
486.426	11846.88
486.635	11595.21
486.843	11774.42
487.051	12219.85
487.26	12402.94
487.468	12783.85
487.676	13162.82
487.885	13592.16
488.093	13869.8
488.301	14324.33
488.509	14329.75
488.717	14616.69
488.926	14573.88
489.134	14386.33
489.342	14512.07
489.55	14362.11
489.758	14729.07
489.967	15124.89
490.175	15061.15
490.383	15629.8
490.591	15929.72
490.799	15753.6
491.007	15715.44
491.215	15748.37
491.423	15710.79
491.631	15577.87
491.839	15510.45
492.047	15420.75
492.255	15135.74
492.463	15128.57
492.671	14862.17
492.879	15421.33
493.087	15634.06
493.295	15770.85
493.503	15893.1
493.711	16368.17
493.919	16191.47
494.127	16195.54
494.334	16122.3
494.542	16309.85
494.75	16723.5
494.958	16504.76
495.166	16964.14
495.374	16990.1
495.581	17097.82
495.789	17098.21
495.997	17116.23
496.205	16533.63
496.412	16807.2
496.62	17141.03
496.828	17010.64
497.035	17166.6
497.243	17202.64
497.451	17284.21
497.658	17344.46
497.866	17229.57
498.074	17474.66
498.281	17034.08
498.489	17141.8
498.696	16797.71
498.904	16741.91
499.112	16845.76
499.319	17151.1
499.527	17296.22
499.734	17470.78
499.942	17327.61
500.149	17337.49
500.357	17247.39
500.564	17030.2
500.771	16978.09
500.979	16800.23
501.186	16597.18
501.394	17096.66
501.601	16500.89
501.808	16563.08
502.016	16658.79
502.223	16490.62
502.43	16758.96
502.638	16757.8
502.845	16977.7
503.052	17214.65
503.26	17217.56
503.467	17363.64
503.674	17379.92
503.881	17326.44
504.089	17135.21
504.296	17019.16
504.503	16934.11
504.71	16813.59
504.917	17171.25
505.125	17296.02
505.332	17439.01
505.539	17472.14
505.746	17975.69
505.953	18193.27
506.16	18189.2
506.367	18224.66
506.574	18527.68
506.781	18486.02
506.988	18333.35
507.195	18236.47
507.402	18197.14
507.609	18185.91
507.816	17875.72
508.023	17845.69
508.23	17808.29
508.437	17575.99
508.644	17702.51
508.851	17827.86
509.058	18300.02
509.265	18283.94
509.472	18520.89
509.679	18680.35
509.885	18567.59
510.092	18533.68
510.299	18493.96
510.506	18281.81
510.713	18335.29
510.92	18348.85
511.126	18471.49
511.333	18668.34
511.54	18749.52
511.746	18759.98
511.953	18917.3
512.16	19099.42
512.367	19015.53
512.573	18794.27
512.78	18710.38
512.987	18769.67
513.193	18437.2
513.4	18294.21
513.606	18441.46
513.813	18463.16
514.02	18163.24
514.226	18239.57
514.433	18328.89
514.639	18099.11
514.846	18189.78
515.052	18175.64
515.259	18335.09
515.465	18458.51
515.672	18510.05
515.878	18539.88
516.085	18814.03
516.291	18675.89
516.497	18600.33
516.704	17935.2
516.91	17513.8
517.117	16836.84
517.323	16368.17
517.529	16304.43
517.736	16309.46
517.942	16463.88
518.148	16941.66
518.354	16968.79
518.561	17073.8
518.767	16946.31
518.973	17047.64
519.179	17521.55
519.386	17596.33
519.592	17601.76
519.798	17724.4
520.004	18461.22
520.21	18503.26
520.417	18564.29
520.623	18737.12
520.829	18715.22
521.035	18708.25
521.241	18641.99
521.447	18811.32
521.653	19138.37
521.859	18859.76
522.065	19057.77
522.271	19236.79
522.477	19093.81
522.683	19357.11
522.889	18860.34
523.095	18732.27
523.301	18828.37
523.507	18676.67
523.713	18802.22
523.919	18810.35
524.125	19274.38
524.331	19533.81
524.537	19772.31
524.742	19827.14
524.948	19765.53
525.154	19799.43
525.36	19741.31
525.566	19497.38
525.772	19690.35
525.977	19504.94
526.183	19370.86
526.389	19502.61
526.595	18790.78
526.8	18526.9
527.006	18078.18
527.212	17630.82
527.417	17527.36
527.623	17712.78
527.829	17988.48
528.034	18396.7
528.24	18532.52
528.446	18881.26
528.651	19185.84
528.857	19354.2
529.062	19512.49
529.268	19901.93
529.473	19949.39
529.679	20125.7
529.884	20074.36
530.09	19948.62
530.295	19465.99
530.501	19821.91
530.706	19935.25
530.912	20033.67
531.117	20066.03
531.323	20093.54
531.528	20337.66
531.733	20485.88
531.939	20284.38
532.144	20077.27
532.35	19997.06
532.555	19958.89
532.76	19465.61
532.966	19292.59
533.171	19167.62
533.376	18924.28
533.581	19098.84
533.787	19376.29
533.992	19711.86
534.197	19285.42
534.402	19850.58
534.607	19801.37
534.813	19804.66
535.018	19820.55
535.223	20221.61
535.428	20050.92
535.633	20287.68
535.838	20566.09
536.043	20707.53
536.249	20819.9
536.454	20477.74
536.659	20572.1
536.864	20560.67
537.069	20289.23
537.274	20151.86
537.479	20067.97
537.684	20051.3
537.889	20105.17
538.094	20502.35
538.299	20240.6
538.504	20612.59
538.708	20349.87
538.913	20722.44
539.118	20665.1
539.323	20585.66
539.528	20219.28
539.733	20113.11
539.938	20188.67
540.142	19922.85
540.347	19860.66
540.552	19861.63
540.757	19484.98
540.962	19728.13
541.166	19518.69
541.371	19506.87
541.576	19702.37
541.781	19780.25
541.985	20268.11
542.19	19837.79
542.395	20420.01
542.599	20451.59
542.804	20113.88
543.008	20401.41
543.213	20418.46
543.418	20122.8
543.622	20412.26
543.827	20059.25
544.031	20449.45
544.236	20480.84
544.44	20825.71
544.645	20736.01
544.849	20643.98
545.054	20768.94
545.258	20796.46
545.463	20801.11
545.667	20527.15
545.872	20841.6
546.076	20651.73
546.281	20714.69
546.485	20563.77
546.689	20703.65
546.894	20636.03
547.098	20845.09
547.302	20706.36
547.507	20674.78
547.711	20734.26
547.915	20529.47
548.119	20389.2
548.324	20466.31
548.528	20535.28
548.732	20486.07
548.936	20778.24
549.141	20732.71
549.345	20734.46
549.549	20714.11
549.753	20947.58
549.957	20868.72
550.161	21026.24
550.366	20961.34
550.57	20836.17
550.774	20773.21
550.978	20936.34
551.182	20792.97
551.386	20689.51
551.59	20771.66
551.794	20734.07
551.998	20923.55
552.202	20918.13
552.406	20881.9
552.61	21098.7
552.814	20992.72
553.018	20833.66
553.222	20654.25
553.426	20726.32
553.63	20921.42
553.833	20841.41
554.037	20687.76
554.241	20617.63
554.445	21004.73
554.649	20911.35
554.853	20709.08
555.056	21067.7
555.26	21056.08
555.464	20926.46
555.668	20927.62
555.871	20930.14
556.075	21043.29
556.279	20932.08
556.483	20735.62
556.686	20688.73
556.89	20625.38
557.094	20571.32
557.297	20203.78
557.501	20316.93
557.704	20158.64
557.908	20238.66
558.112	20351.03
558.315	20467.86
558.519	20350.26
558.722	20067.97
558.926	20161.55
559.129	19490.21
559.333	19844.77
559.536	19788.78
559.74	19564.81
559.943	19408.06
560.147	19673.69
560.35	19618.86
560.553	19918.97
560.757	19905.41
560.96	20017.59
561.164	20095.48
561.367	20253.38
561.57	20314.8
561.774	20001.51
561.977	19906.38
562.18	19918.01
562.384	20022.63
562.587	19909.87
562.79	20088.5
562.993	19893.59
563.197	19860.46
563.4	20120.47
563.603	20108.85
563.806	20045.1
564.009	20172.2
564.212	20085.21
564.416	19859.49
564.619	19810.28
564.822	19681.05
565.025	19889.14
565.228	19848.64
565.431	20057.5
565.634	19705.08
565.837	19560.35
566.04	19471.23
566.243	19217.61
566.446	19083.15
566.649	19426.28
566.852	19226.52
567.055	19506.87
567.258	19376.29
567.461	19562.67
567.664	19657.42
567.867	19626.42
568.07	19447.01
568.273	19502.42
568.475	19748.48
568.678	19081.79
568.881	19081.02
569.084	18891.53
569.287	18718.32
569.489	18902.19
569.692	19040.72
569.895	19062.22
570.098	18844.26
570.3	18824.88
570.503	18695.07
570.706	18696.24
570.909	18515.08
571.111	18169.24
571.314	18265.73
571.516	18331.02
571.719	18422.67
571.922	18333.74
572.124	18513.92
572.327	18616.22
572.529	18680.93
572.732	18752.42
572.935	18782.26
573.137	19132.36
573.34	18773.15
573.542	19007.98
573.745	18923.7
573.947	18976.98
574.15	18766.76
574.352	18864.99
574.554	18994.8
574.757	18778.39
574.959	18524.38
575.162	18748.94
575.364	18446.5
575.566	18598.98
575.769	18309.13
575.971	18443.2
576.173	18020.83
576.376	18280.26
576.578	18465.68
576.78	18401.16
576.982	18299.05
577.185	18405.42
577.387	18341.87
577.589	18591.23
577.791	18398.45
577.993	18441.46
578.196	18482.15
578.398	18205.67
578.6	18088.84
578.802	18092.71
579.004	18017.73
579.206	18156.07
579.408	18405.23
579.61	18194.24
579.812	18594.52
580.014	18346.13
580.216	18394.38
580.418	18712.7
580.62	18683.84
580.822	18678.61
581.024	18697.4
581.226	18768.89
581.428	18988.6
581.63	19214.51
581.832	19008.56
582.034	19208.12
582.236	19072.11
582.438	19289.49
582.64	19434.61
582.841	19447.01
583.043	19698.68
583.245	19340.25
583.447	19506.49
583.649	19550.08
583.85	19465.61
584.052	19559.77
584.254	19507.84
584.456	19511.33
584.657	19522.96
584.859	19777.73
585.061	19416.01
585.262	19459.41
585.464	19240.86
585.666	19310.61
585.867	19015.92
586.069	19091.29
586.27	19037.81
586.472	19011.46
586.674	19087.8
586.875	19078.69
587.077	19114.54
587.278	19096.32
587.48	19141.85
587.681	19264.11
587.883	19235.43
588.084	18935.51
588.285	18864.22
588.487	18404.26
588.688	18400.19
588.89	17701.54
589.091	17268.71
589.292	16946.89
589.494	16600.28
589.695	16457.68
589.896	16110.68
590.098	16289.12
590.299	16497.01
590.5	16658.02
590.702	17032.72
590.903	17216.2
591.104	17491.9
591.305	17749.78
591.507	17635.28
591.708	17701.54
591.909	17685.65
592.11	17653.49
592.311	17808.1
592.512	17478.92
592.714	17594.59
592.915	17850.72
593.116	17789.69
593.317	18114.41
593.518	17971.43
593.719	18140.76
593.92	18128.94
594.121	18087.09
594.322	18008.43
594.523	17805
594.724	17682.74
594.925	17774.97
595.126	17500.43
595.327	17570.18
595.528	17724.79
595.729	17740.09
595.929	17789.31
596.13	17873.2
596.331	18137.28
596.532	18059.97
596.733	18367.25
596.934	18174.47
597.135	18344
597.335	18121.19
597.536	18260.69
597.737	18127.2
597.938	18020.25
598.138	18089.03
598.339	18276.39
598.54	18179.12
598.74	17928.03
598.941	18025.48
599.142	18237.25
599.342	18236.47
599.543	18035.17
599.744	18281.42
599.944	18305.45
600.145	18393.8
600.345	18133.01
600.546	18274.64
600.746	18284.33
600.947	18527.87
601.147	18140.57
601.348	18427.7
601.548	18118.87
601.749	18077.02
601.949	18024.13
602.15	18101.24
602.35	17808.29
602.551	17973.95
602.751	18033.23
602.951	18182.42
603.152	18046.99
603.352	18275.22
603.552	18283.94
603.753	18401.35
603.953	18579.21
604.153	18489.7
604.354	18570.3
604.554	18495.71
604.754	18496.68
604.954	18569.33
605.155	18625.13
605.355	18528.45
605.555	18487.76
605.755	18574.18
605.955	18421.31
606.155	18552.86
606.356	18463.93
606.556	18485.63
606.756	18484.86
606.956	18463.55
607.156	18540.27
607.356	18456.96
607.556	18481.37
607.756	18456.96
607.956	18460.25
608.156	18445.72
608.356	18135.73
608.556	18377.33
608.756	18168.08
608.956	18235.31
609.156	18145.99
609.356	18160.91
609.556	18149.48
609.755	18121.19
609.955	18042.73
610.155	18083.03
610.355	18179.51
610.555	17939.07
610.755	17814.11
610.954	17901.87
611.154	17991.58
611.354	18004.17
611.554	17970.85
611.753	18096.01
611.953	17938.68
612.153	18087.48
612.352	17983.44
612.552	17841.81
612.752	17873.59
612.951	18035.56
613.151	17701.73
613.351	17940.23
613.55	17798.02
613.75	17812.17
613.949	17534.72
614.149	17645.74
614.348	17575.6
614.548	17588.97
614.747	17496.75
614.947	17697.86
615.146	17617.45
615.346	17833.48
615.545	17815.66
615.745	17625.01
615.944	17482.99
616.144	17540.53
616.343	17359.38
616.542	17533.75
616.742	17102.28
616.941	17163.31
617.14	17037.37
617.34	17247.59
617.539	17272
617.738	17233.83
617.938	17520.19
618.137	17413.24
618.336	17566.11
618.535	17726.73
618.734	17674.22
618.934	17526
619.133	17568.05
619.332	17801.71
619.531	17378.17
619.73	17796.86
619.929	17648.06
620.128	17657.94
620.328	17736.61
620.527	17649.23
620.726	17695.53
620.925	17769.74
621.124	17815.07
621.323	17609.31
621.522	17458.58
621.721	17656.98
621.92	17369.26
622.119	17455.87
622.318	17348.34
622.517	17369.26
622.715	17302.61
622.914	17189.66
623.113	17337.87
623.312	16898.46
623.511	17124.36
623.71	17065.27
623.909	16971.69
624.107	17104.6
624.306	16964.72
624.505	16892.84
624.704	16812.04
624.902	16650.27
625.101	16978.86
625.3	16658.98
625.499	16634.38
625.697	16664.8
625.896	16492.94
626.095	16453.03
626.293	16408.66
626.492	16591.75
626.69	16516.77
626.889	16770.39
627.088	16653.17
627.286	16670.22
627.485	16303.46
627.683	16187.21
627.882	15999.08
628.08	15684.44
628.279	15431.21
628.477	15533.89
628.676	15456.59
628.874	15528.28
629.073	15483.13
629.271	15621.66
629.469	15650.53
629.668	15655.18
629.866	15411.45
630.065	15563.92
630.263	15603.84
630.461	15579.62
630.66	15786.93
630.858	15736.94
631.056	15865.4
631.254	15928.17
631.453	15781.31
631.651	15788.09
631.849	15755.15
632.047	15653.82
632.245	15692.77
632.444	15823.55
632.642	15981.06
632.84	16168.03
633.038	15945.03
633.236	15874.7
633.434	16067.09
633.632	16152.72
633.83	15944.06
634.028	16291.45
634.227	16069.61
634.425	16419.51
634.623	16092.85
634.821	16272.46
635.019	16262.96
635.216	16455.16
635.414	16428.81
635.612	16233.13
635.81	16238.94
636.008	16318.76
636.206	16379.99
636.404	16299.2
636.602	16408.86
636.8	16195.93
636.997	16366.43
637.195	16409.05
637.393	16478.02
637.591	16605.12
637.789	16596.98
637.986	16604.93
638.184	16560.75
638.382	16671.58
638.58	16562.11
638.777	16804.1
638.975	16651.23
639.173	16637.67
639.37	16544.87
639.568	16668.09
639.765	16529.95
639.963	16489.84
640.161	16297.26
640.358	16556.49
640.556	16348.79
640.753	16370.3
640.951	16270.71
641.148	16253.86
641.346	16367.98
641.543	16187.79
641.741	16312.76
641.938	16162.8
642.136	16303.07
642.333	16166.09
642.531	16390.45
642.728	16312.18
642.925	16505.54
643.123	16411.57
643.32	16426.49
643.517	16286.8
643.715	16273.23
643.912	16372.24
644.109	16311.21
644.306	16357.32
644.504	16220.92
644.701	16339.3
644.898	16306.95
645.095	16172.29
645.293	16166.87
645.49	16137.61
645.687	16110.1
645.884	16170.55
646.081	15867.91
646.278	15819.67
646.475	15789.45
646.672	15656.15
646.87	15572.84
647.067	15435.66
647.264	15472.28
647.461	15306.24
647.658	15202.2
647.855	15261.29
648.052	15049.53
648.249	14974.35
648.446	15097.96
648.642	15385.87
648.839	14916.81
649.036	15048.94
649.233	14984.81
649.43	14937.35
649.627	14615.92
649.824	14826.72
650.021	14590.15
650.217	15031.51
650.414	15149.89
650.611	15111.33
650.808	15428.69
651.004	15343.83
651.201	15309.15
651.398	15474.22
651.595	15193.87
651.791	15088.28
651.988	15156.28
652.185	14802.89
652.381	15289.19
652.578	15090.21
652.775	15181.86
652.971	15387.81
653.168	15159.77
653.364	15492.24
653.561	15213.44
653.757	15364.56
653.954	15590.27
654.15	15180.11
654.347	15382.77
654.543	15451.16
654.74	15079.75
654.936	15092.93
655.133	14980.94
655.329	15003.61
655.525	14693.22
655.722	14577.75
655.918	14246.25
656.115	13746.38
656.311	13421.08
656.507	13079.5
656.704	12908.04
656.9	13028.94
657.096	13428.64
657.292	13385.82
657.489	13641.56
657.685	13920.75
657.881	13988.18
658.077	14128.26
658.273	14463.25
658.47	14624.06
658.666	14574.07
658.862	14883.68
659.058	14906.15
659.254	14903.05
659.45	15111.33
659.646	14882.32
659.842	15017.17
660.038	15250.05
660.234	15094.67
660.43	15087.69
660.626	15230.49
660.822	15265.36
661.018	15193.48
661.214	15281.64
661.41	15216.92
661.606	15416.1
661.802	15530.79
661.998	15439.73
662.194	15378.31
662.39	15454.07
662.586	15397.11
662.781	15334.72
662.977	15620.5
663.173	15308.76
663.369	15314.18
663.564	15323.48
663.76	15297.33
663.956	15384.51
664.152	15151.63
664.347	15081.3
664.543	15184.37
664.739	15119.66
664.934	14997.8
665.13	15256.64
665.326	15161.9
665.521	15202.97
665.717	15121.6
665.912	15248.12
666.108	14982.88
666.304	15233.2
666.499	15102.42
666.695	14810.83
666.89	15209.17
667.086	15123.73
667.281	15115.59
667.477	15280.47
667.672	15085.95
667.867	14988.88
668.063	15088.86
668.258	14810.64
668.454	15070.26
668.649	14992.37
668.844	15064.06
669.04	15130.71
669.235	15011.75
669.43	15078.78
669.626	14875.54
669.821	14924.17
670.016	14931.92
670.211	14976.1
670.407	14712.79
670.602	14992.95
670.797	14711.63
670.992	15042.94
671.187	14755.81
671.382	14939.86
671.578	14633.16
671.773	14820.9
671.968	14515.75
672.163	14741.47
672.358	14686.64
672.553	14579.69
672.748	14677.53
672.943	14655.06
673.138	14620.96
673.333	14785.64
673.528	14436.9
673.723	14674.82
673.918	14568.84
674.113	14579.11
674.308	14726.36
674.503	14566.9
674.698	14644.4
674.892	14391.75
675.087	14575.81
675.282	14520.21
675.477	14447.36
675.672	14579.5
675.867	14393.3
676.061	14482.23
676.256	14332.85
676.451	14491.34
676.646	14445.62
676.84	14324.91
677.035	14234.63
677.23	14357.27
677.424	14353
677.619	14266.79
677.814	14474.48
678.008	14366.76
678.203	14412.29
678.397	14245.47
678.592	14228.04
678.787	14373.74
678.981	14311.54
679.176	14263.49
679.37	14229.2
679.565	14249.54
679.759	14212.34
679.954	14182.51
680.148	14136.78
680.342	14296.24
680.537	14125.93
680.731	14138.91
680.926	14246.06
681.12	14019.76
681.314	14059.28
681.509	14069.94
681.703	14069.36
681.897	13890.92
682.092	13978.3
682.286	14043.78
682.48	14000.38
682.674	13935.48
682.869	13863.02
683.063	14015.11
683.257	13843.06
683.451	13779.13
683.645	13931.22
683.839	13723.13
684.034	13629.36
684.228	13574.53
684.422	13472.42
684.616	13591.58
684.81	13529
685.004	13426.51
685.198	13673.73
685.392	13489.47
685.586	13618.7
685.78	13344.74
685.974	13444.14
686.168	13356.37
686.362	13256.4
686.556	12406.81
686.75	11917.6
686.944	11027.53
687.138	10233.16
687.331	9619.57
687.525	9248.15
687.719	9071.07
687.913	9152.05
688.107	9312.48
688.301	9384.55
688.494	9551.17
688.688	9394.43
688.882	9316.74
689.076	9446.55
689.269	9367.11
689.463	9531.6
689.657	9538.97
689.85	9660.25
690.044	9822.23
690.238	9885.77
690.431	9949.32
690.625	9993.5
690.818	10324.81
691.012	10325.58
691.205	10606.13
691.399	10634.61
691.593	10705.13
691.786	10776.24
691.98	11002.53
692.173	11064.34
692.366	11201.32
692.56	11257.12
692.753	11103.67
692.947	11098.44
693.14	10996.33
693.333	11005.25
693.527	11067.05
693.72	11127.5
693.914	10936.08
694.107	10797.74
694.3	10856.84
694.493	10656.5
694.687	10951
694.88	10817.31
695.073	10989.75
695.266	10944.41
695.46	11012.61
695.653	11000.02
695.846	11012.8
696.039	11144.74
696.232	11077.9
696.425	11265.25
696.618	11366.78
696.812	11582.23
697.005	11633.57
697.198	11826.15
697.391	11680.65
697.584	11921.67
697.777	11926.32
697.97	11809.49
698.163	11829.25
698.356	11727.54
698.549	11781.2
698.742	11711.45
698.935	11508.02
699.127	11438.08
699.32	11290.83
699.513	11354.38
699.706	11195.12
699.899	11306.91
700.092	11175.94
700.285	11053.68
700.477	10904.5
700.67	11044.96
700.863	10896.36
701.056	11058.53
701.248	11011.64
701.441	10975.22
701.634	10978.9
701.826	11001.95
702.019	10765.97
702.212	10945.38
702.404	10775.27
702.597	10778.17
702.79	10790.96
702.982	10802.2
703.175	10969.02
703.367	10999.24
703.56	11059.69
703.752	11107.74
703.945	11080.03
704.137	11066.66
704.33	11155.01
704.522	11138.16
704.715	11201.9
704.907	11242.39
705.1	11299.35
705.292	11218.17
705.484	11090.88
705.677	11211.97
705.869	11227.47
706.061	11219.14
706.254	11244.72
706.446	11035.66
706.638	11100.57
706.831	11212.36
707.023	11158.11
707.215	11352.25
707.407	11320.47
707.599	11146.1
707.792	11381.7
707.984	11262.16
708.176	11210.81
708.368	11186.98
708.56	11226.12
708.752	11290.83
708.944	11089.72
709.136	11170.51
709.329	11111.03
709.521	11262.54
709.713	11169.93
709.905	11219.34
710.097	11259.44
710.289	11176.13
710.481	11168.19
710.672	11138.54
710.864	11208.68
711.056	11114.71
711.248	11082.36
711.44	11077.13
711.632	11114.52
711.824	11210.23
712.016	11062.21
712.207	11098.83
712.399	11000.6
712.591	11027.53
712.783	11090.88
712.975	10995.75
713.166	10909.54
713.358	10937.63
713.55	10973.47
713.741	10867.3
713.933	10907.02
714.125	10811.69
714.316	10684.4
714.508	10840.56
714.7	10644.88
714.891	10702.23
715.083	10672.78
715.274	10516.62
715.466	10585.98
715.657	10481.16
715.849	10266.1
716.04	10177.17
716.232	10116.14
716.423	9859.62
716.615	9594.77
716.806	9312.48
716.998	8988.53
717.189	8683.96
717.381	8407.29
717.572	8175.57
717.763	7963.22
717.955	7837.48
718.146	7705.34
718.337	7453.28
718.528	7277.94
718.72	7018.9
718.911	7002.62
719.102	6869.52
719.293	6879.21
719.485	6812.56
719.676	6676.55
719.867	6590.72
720.058	6572.89
720.249	6543.25
720.44	6581.61
720.632	6722.27
720.823	6890.83
721.014	7254.3
721.205	7441.46
721.396	7603.63
721.587	7890.18
721.778	8058.35
721.969	8187.39
722.16	8351.88
722.351	8493.31
722.542	8596.19
722.733	8606.66
722.924	8415.81
723.115	8424.53
723.305	8180.41
723.496	8211.6
723.687	7844.65
723.878	7792.53
724.069	7715.22
724.26	7673.38
724.45	7527.1
724.641	7414.14
724.832	7381.98
725.023	7270.96
725.213	7284.91
725.404	7168.28
725.595	7150.26
725.785	7178.35
725.976	7231.44
726.167	7163.43
726.357	7215.74
726.548	7340.13
726.739	7127.2
726.929	7351.37
727.12	7340.71
727.31	7312.81
727.501	7215.94
727.691	7090.78
727.882	7092.52
728.072	7213.61
728.263	7246.55
728.453	7391.09
728.644	7244.23
728.834	7189.2
729.024	7155.88
729.215	7103.95
729.405	7173.12
729.596	7210.71
729.786	7263.79
729.976	7326.76
730.167	7245.39
730.357	7212.45
730.547	7209.16
730.737	7237.83
730.928	7244.81
731.118	7323.27
731.308	7227.37
731.498	7244.23
731.688	7416.47
731.879	7465.48
732.069	7547.83
732.259	7691.01
732.449	7873.9
732.639	7896.18
732.829	7945.2
733.019	7984.34
733.209	8150.19
733.399	8159.49
733.589	8299.95
733.779	8381.33
733.969	8404.19
734.159	8557.64
734.349	8511.53
734.539	8658.39
734.729	8601.81
734.919	8683.96
735.109	8733.95
735.299	8539.81
735.488	8644.24
735.678	8558.8
735.868	8594.45
736.058	8530.13
736.248	8518.11
736.437	8460.76
736.627	8387.33
736.817	8606.66
737.007	8416.01
737.196	8563.64
737.386	8523.15
737.576	8474.91
737.765	8603.75
737.955	8515.79
738.144	8752.93
738.334	8627.19
738.524	8498.93
738.713	8589.61
738.903	8499.32
739.092	8544.27
739.282	8565.58
739.471	8549.69
739.661	8513.85
739.85	8645.4
740.04	8589.61
740.229	8641.72
740.419	8639.98
740.608	8687.64
740.797	8585.54
740.987	8636.69
741.176	8676.6
741.365	8614.79
741.555	8575.07
741.744	8766.3
741.933	8564.22
742.123	8672.14
742.312	8663.04
742.501	8704.11
742.69	8683.57
742.88	8621.57
743.069	8802.73
743.258	8762.82
743.447	8716.32
743.636	8750.42
743.825	8692.87
744.014	8724.84
744.204	8744.6
744.393	8613.24
744.582	8801.57
744.771	8769.4
744.96	8667.1
745.149	8750.22
745.338	8720.39
745.527	8783.16
745.716	8704.3
745.905	8609.17
746.094	8764.17
746.283	8694.04
746.471	8593.29
746.66	8710.89
746.849	8720.39
747.038	8731.82
747.227	8641.34
747.416	8606.46
747.604	8625.45
747.793	8616.34
747.982	8595.61
748.171	8719.42
748.359	8484.98
748.548	8588.25
748.737	8611.31
748.926	8533.03
749.114	8348.2
749.303	8536.71
749.491	8467.35
749.68	8330.18
749.869	8475.49
750.057	8387.33
750.246	8390.43
750.434	8323.98
750.623	8388.11
750.811	8275.54
751	8349.75
751.188	8272.83
751.377	8281.35
751.565	8237.37
751.754	8209.28
751.942	8168.59
752.131	8281.94
752.319	8215.87
752.507	8144.76
752.696	8186.22
752.884	8200.17
753.072	8104.85
753.261	8201.14
753.449	8207.73
753.637	8038.01
753.825	8211.99
754.014	8096.71
754.202	8161.23
754.39	8163.94
754.578	8106.4
754.766	8063.78
754.955	7992.67
755.143	8060.09
755.331	8080.63
755.519	8080.44
755.707	8042.46
755.895	7931.25
756.083	7959.93
756.271	7872.74
756.459	7904.13
756.647	7865.18
756.835	7866.54
757.023	7874.48
757.211	7799.5
757.399	7729.56
757.587	7815.2
757.775	7678.8
757.963	7727.43
758.151	7714.06
758.339	7563.91
758.526	7631.33
758.714	7572.05
758.902	7341.68
759.09	7042.73
759.278	6638.38
759.465	6020.32
759.653	5308.11
759.841	4700.91
760.028	4094.09
760.216	3531.64
760.404	3200.72
760.591	2722.16
760.779	2289.14
760.967	1959.19
761.154	1680
761.342	1695.11
761.529	1683.1
761.717	1749.55
761.905	1764.08
762.092	1860.96
762.28	1799.15
762.467	1708.29
762.655	1630.59
762.842	1654.81
763.029	1676.9
763.217	1659.27
763.404	1671.09
763.592	1701.89
763.779	1666.44
763.966	1736.38
764.154	1811.55
764.341	1925.28
764.528	1965.97
764.716	2086.87
764.903	2278.29
765.09	2385.82
765.277	2501.1
765.465	2811.29
765.652	2945.56
765.839	3166.81
766.026	3422.75
766.213	3568.07
766.4	3771.11
766.588	4079.95
766.775	4271.17
766.962	4490.5
767.149	4692.19
767.336	4953.75
767.523	5045.19
767.71	5260.83
767.897	5461.56
768.084	5582.07
768.271	5745.4
768.458	5854.28
768.645	6061.01
768.832	6058.3
769.019	6163.5
769.206	6220.66
769.392	6373.52
769.579	6446.96
769.766	6425.64
769.953	6449.86
770.14	6531.62
770.327	6572.5
770.513	6634.5
770.7	6701.73
770.887	6628.3
771.073	6640.7
771.26	6663.76
771.447	6677.13
771.634	6616.68
771.82	6769.74
772.007	6615.13
772.193	6775.55
772.38	6738.35
772.567	6684.49
772.753	6652.91
772.94	6765.86
773.126	6697.47
773.313	6753.66
773.499	6692.63
773.686	6774.78
773.872	6636.25
774.059	6746.68
774.245	6653.1
774.432	6696.31
774.618	6515.54
774.804	6624.23
774.991	6549.83
775.177	6588.58
775.363	6619.97
775.55	6598.66
775.736	6536.66
775.922	6593.43
776.109	6547.12
776.295	6526.97
776.481	6621.52
776.667	6540.92
776.853	6536.08
777.04	6508.76
777.226	6552.35
777.412	6569.21
777.598	6417.7
777.784	6457.03
777.97	6385.54
778.156	6418.28
778.342	6428.16
778.528	6387.09
778.715	6290.79
778.901	6302.42
779.087	6422.35
779.272	6332.26
779.458	6282.08
779.644	6317.73
779.83	6297.58
780.016	6362.87
780.202	6275.49
780.388	6242.94
780.574	6148.2
780.76	6237.9
780.946	6235.77
781.131	6220.46
781.317	6172.22
781.503	6166.8
781.689	6222.4
781.874	6357.64
782.06	6135.99
782.246	6185.78
782.432	6102.47
782.617	6147.23
782.803	6135.6
782.989	6088.14
783.174	6041.83
783.36	6028.65
783.545	5990.87
783.731	6032.53
783.916	5859.9
784.102	6028.46
784.288	5955.42
784.473	5997.66
784.659	5872.88
784.844	5941.47
785.029	5931.59
785.215	5872.69
785.4	5818.44
785.586	5898.46
785.771	5797.71
785.956	5878.5
786.142	5807.98
786.327	5852.15
786.512	5794.41
786.698	5713.23
786.883	5654.53
787.068	5692.7
787.254	5686.88
787.439	5619.46
787.624	5598.92
787.809	5605.12
787.994	5574.32
788.18	5662.47
788.365	5534.99
788.55	5522.78
788.735	5532.86
788.92	5441.21
789.105	5473.18
789.29	5415.44
789.475	5408.47
789.66	5395.3
789.845	5342.98
790.03	5375.73
790.215	5338.33
790.4	5393.75
790.585	5409.83
790.77	5368.17
790.955	5290.48
791.14	5310.82
791.325	5420.29
791.51	5208.14
791.695	5330.78
791.879	5307.92
792.064	5307.33
792.249	5370.3
792.434	5266.84
792.618	5290.48
792.803	5316.25
792.988	5220.73
793.173	5299
793.357	5383.48
793.542	5269.36
793.727	5324.96
793.911	5361
794.096	5341.82
794.281	5400.53
794.465	5426.49
794.65	5366.04
794.834	5408.28
795.019	5432.11
795.203	5450.71
795.388	5410.02
795.572	5466.59
795.757	5380.57
795.941	5387.35
796.126	5343.18
796.31	5283.5
796.494	5386.19
796.679	5332.52
796.863	5310.05
797.048	5417.58
797.232	5311.02
797.416	5423.19
797.601	5410.02
797.785	5456.33
797.969	5390.06
798.153	5386.96
798.338	5483.84
798.522	5493.91
798.706	5503.79
798.89	5506.31
799.074	5609.19
799.258	5525.88
799.443	5522.78
799.627	5445.48
799.811	5525.3
799.995	5378.25
800.179	5415.44
800.363	5363.52
800.547	5457.49
800.731	5438.69
800.915	5323.61
801.099	5325.35
801.283	5372.05
801.467	5392
801.651	5349.96
801.835	5367.2
802.019	5340.27
802.202	5367.78
802.386	5333.49
802.57	5242.43
802.754	5295.71
802.938	5266.07
803.121	5284.86
803.305	5415.64
803.489	5303.07
803.673	5369.72
803.856	5344.15
804.04	5305.2
804.224	5356.93
804.407	5287.18
804.591	5293
804.775	5296.29
804.958	5335.81
805.142	5485.78
805.326	5337.36
805.509	5371.66
805.693	5428.23
805.876	5435.59
806.06	5406.53
806.243	5462.53
806.427	5485.39
806.61	5471.63
806.794	5370.69
806.977	5477.64
807.16	5443.73
807.344	5404.6
807.527	5381.35
807.71	5446.64
807.894	5341.43
808.077	5416.61
808.26	5328.45
808.444	5258.7
808.627	5366.23
808.81	5274.01
808.993	5190.7
809.177	5166.67
809.36	5219.57
809.543	5200
809.726	5063.6
809.909	5060.11
810.092	5019.23
810.276	5038.03
810.459	5005.48
810.642	4984.74
810.825	4920.03
811.008	4954.52
811.191	4778.99
811.374	4820.64
811.557	4816.77
811.74	4816.38
811.923	4751.09
812.106	4672.04
812.289	4623.99
812.472	4618.76
812.654	4618.18
812.837	4521.11
813.02	4437.02
813.203	4380.25
813.386	4257.22
813.569	4128.38
813.751	4053.6
813.934	4050.69
814.117	3999.54
814.3	3931.92
814.482	3840.09
814.665	3770.34
814.848	3675.59
815.03	3582.6
815.213	3587.44
815.396	3563.61
815.578	3542.3
815.761	3451.24
815.943	3499.67
816.126	3329.95
816.309	3307.86
816.491	3231.14
816.674	3068.2
816.856	3231.53
817.039	3201.88
817.221	3282.87
817.403	3221.26
817.586	3232.69
817.768	3229.01
817.951	3097.26
818.133	3144.34
818.315	3154.61
818.498	3266.79
818.68	3261.36
818.862	3311.74
819.045	3293.53
819.227	3248.38
819.409	3272.41
819.591	3266.98
819.774	3266.01
819.956	3282.48
820.138	3351.46
820.32	3437.09
820.502	3533.58
820.684	3663.19
820.866	3652.54
821.048	3713.18
821.231	3782.35
821.413	3758.91
821.595	3760.07
821.777	3776.54
821.959	3738.56
822.141	3736.63
822.323	3545.59
822.505	3414.04
822.686	3275.51
822.868	3066.45
823.05	2968.61
823.232	2879.29
823.414	2804.12
823.596	2911.84
823.778	2892.47
823.96	2975.2
824.141	3004.65
824.323	3051.73
824.505	3158.48
824.687	3267.56
824.868	3395.24
825.05	3516.33
825.232	3572.91
825.413	3691.87
825.595	3625.41
825.777	3594.8
825.958	3619.8
826.14	3596.93
826.321	3641.3
826.503	3620.96
826.685	3669.98
826.866	3676.76
827.048	3672.88
827.229	3582.6
827.411	3488.24
827.592	3425.66
827.773	3370.44
827.955	3251.29
828.136	3323.75
828.318	3254.19
828.499	3305.73
828.68	3228.04
828.862	3240.83
829.043	3268.34
829.224	3211.57
829.406	3184.64
829.587	3183.86
829.768	3278.03
829.949	3302.24
830.131	3257.1
830.312	3345.64
830.493	3238.31
830.674	3311.74
830.855	3280.74
831.036	3266.21
831.218	3350.49
831.399	3395.82
831.58	3287.52
831.761	3276.09
831.942	3280.74
832.123	3263.88
832.304	3247.22
832.485	3279.19
832.666	3244.51
832.847	3303.21
833.028	3276.86
833.209	3259.81
833.389	3288.29
833.57	3152.67
833.751	3261.75
833.932	3273.38
834.113	3239.86
834.294	3267.56
834.475	3309.61
834.655	3367.73
834.836	3376.06
835.017	3363.47
835.198	3312.71
835.378	3335.57
835.559	3428.57
835.74	3355.33
835.92	3396.79
836.101	3330.53
836.281	3396.99
836.462	3413.07
836.643	3418.88
836.823	3400.47
837.004	3462.28
837.184	3507.03
837.365	3440
837.545	3456.27
837.726	3380.13
837.906	3494.63
838.087	3452.59
838.267	3476.23
838.448	3411.32
838.628	3396.79
838.808	3431.28
838.989	3472.35
839.169	3412.29
839.349	3485.34
839.53	3474.68
839.71	3482.43
839.89	3459.57
840.07	3486.3
840.251	3477.2
840.431	3470.8
840.611	3414.62
840.791	3479.72
840.971	3438.25
841.151	3416.75
841.332	3410.35
841.512	3471.77
841.692	3378
841.872	3440.19
842.052	3390.79
842.232	3403.77
842.412	3360.37
842.592	3423.14
842.772	3412.29
842.952	3421.79
843.132	3399.51
843.312	3414.04
843.492	3340.22
843.672	3411.52
843.851	3311.74
844.031	3325.49
844.211	3357.46
844.391	3332.47
844.571	3314.64
844.751	3336.92
844.93	3332.47
845.11	3313.29
845.29	3384.39
845.47	3359.01
845.649	3336.73
845.829	3393.69
846.009	3324.33
846.188	3379.94
846.368	3347.97
846.547	3334.21
846.727	3400.67
846.907	3271.05
847.086	3347.19
847.266	3338.09
847.445	3279.96
847.625	3265.43
847.804	3254.19
847.984	3325.49
848.163	3230.36
848.343	3203.24
848.522	3259.23
848.701	3233.66
848.881	3213.9
849.06	3228.43
849.239	3186.96
849.419	3204.4
849.598	3133.1
849.777	3071.3
849.957	3002.9
850.136	3012.2
850.315	2968.61
850.494	2977.33
850.674	2977.72
850.853	3057.15
851.032	3011.04
851.211	3022.28
851.39	2989.54
851.569	2988.37
851.748	2961.83
851.927	3043.98
852.107	3033.9
852.286	2983.14
852.465	2912.42
852.644	3017.63
852.823	3002.9
853.002	3016.85
853.181	3004.84
853.359	2989.34
853.538	2919.79
853.717	2949.82
853.896	2764.79
854.075	2689.23
854.254	2648.15
854.433	2521.44
854.611	2553.99
854.79	2506.14
854.969	2609.02
855.148	2643.12
855.327	2611.92
855.505	2649.51
855.684	2683.42
855.863	2720.81
856.041	2749.48
856.22	2783.78
856.399	2800.24
856.577	2902.35
856.756	2844.23
856.934	2965.7
857.113	2943.04
857.291	2891.11
857.47	2865.34
857.648	2917.07
857.827	2885.49
858.005	2941.1
858.184	2836.67
858.362	2960.47
858.541	2859.73
858.719	2840.16
858.898	2848.49
859.076	2798.89
859.254	2880.26
859.433	2837.44
859.611	2795.4
859.789	2767.5
859.967	2848.1
860.146	2867.86
860.324	2778.74
860.502	2811.87
860.68	2749.29
860.859	2776.41
861.037	2756.65
861.215	2755.1
861.393	2791.14
861.571	2729.91
861.749	2737.86
861.927	2723.13
862.105	2759.17
862.283	2700.27
862.461	2698.53
862.639	2729.14
862.817	2694.65
862.995	2717.13
863.173	2689.42
863.351	2711.51
863.529	2741.54
863.707	2727.59
863.885	2718.1
864.063	2631.1
864.241	2668.3
864.418	2731.27
864.596	2646.99
864.774	2605.14
864.952	2623.16
865.129	2656.68
865.307	2600.49
865.485	2559.8
865.663	2578.6
865.84	2508.07
866.018	2486.76
866.196	2309.87
866.373	2310.06
866.551	2248.45
866.728	2234.5
866.906	2290.5
867.084	2324.4
867.261	2355.01
867.439	2381.56
867.616	2410.81
867.794	2400.54
867.971	2429.22
868.149	2423.79
868.326	2506.72
868.503	2469.91
868.681	2440.46
868.858	2438.52
869.035	2422.24
869.213	2456.73
869.39	2414.69
869.567	2494.51
869.745	2443.75
869.922	2465.84
870.099	2424.38
870.276	2501.68
870.454	2466.42
870.631	2466.61
870.808	2389.11
870.985	2446.66
871.162	2480.76
871.339	2413.72
871.517	2390.47
871.694	2386.01
871.871	2403.26
872.048	2391.44
872.225	2350.17
872.402	2388.14
872.579	2326.15
872.756	2412.56
872.933	2342.03
873.11	2350.56
873.287	2344.16
873.463	2314.71
873.64	2301.93
873.817	2326.53
873.994	2330.02
874.171	2286.04
874.348	2330.6
874.524	2259.88
874.701	2305.03
874.878	2242.83
875.055	2258.92
875.231	2254.65
875.408	2272.67
875.585	2179.48
875.762	2247.1
875.938	2236.44
876.115	2230.63
876.291	2186.26
876.468	2178.32
876.645	2155.65
876.821	2155.26
876.998	2194.78
877.174	2185.68
877.351	2180.25
877.527	2170.57
877.704	2167.08
877.88	2163.2
878.057	2173.86
878.233	2199.63
878.409	2129.69
878.586	2152.55
878.762	2120.58
878.938	2115.15
879.115	2048.7
879.291	2143.64
879.467	2090.55
879.644	2117.87
879.82	2134.53
879.996	2095.59
880.172	2056.84
880.349	2068.85
880.525	2103.14
880.701	2051.02
880.877	2019.06
881.053	2082.22
881.229	2026.03
881.405	2070.59
881.581	2014.21
881.757	2022.74
881.933	2062.84
882.109	2059.16
882.285	2029.13
882.461	2020.02
882.637	2053.35
882.813	1972.56
882.989	2059.55
883.165	2107.4
883.341	2039.21
883.517	2057.03
883.693	2082.61
883.869	2097.52
884.044	2022.16
884.22	2086.09
884.396	2122.13
884.572	2070.4
884.747	2070.21
884.923	2077.37
885.099	2073.31
885.275	2092.87
885.45	2014.02
885.626	2059.74
885.801	2028.94
885.977	1990.19
886.153	1965.58
886.328	2057.42
886.504	1983.99
886.679	1996
886.855	1997.16
887.03	1995.81
887.206	2033.97
887.381	2008.21
887.557	2036.3
887.732	2038.82
887.908	2031.26
888.083	2028.94
888.258	2024.09
888.434	2005.49
888.609	2014.21
888.784	2048.12
888.96	2036.11
889.135	2038.43
889.31	1997.36
889.485	2053.74
889.661	2001.81
889.836	2036.11
890.011	2056.84
890.186	2031.07
890.361	1998.71
890.537	1995.81
890.712	2030.68
890.887	2066.33
891.062	2013.82
891.237	2088.42
891.412	1983.79
891.587	2029.52
891.762	2016.73
891.937	2032.04
892.112	1946.4
892.287	1975.66
892.462	1942.14
892.637	1925.09
892.812	1852.24
892.987	1884.98
893.161	1833.64
893.336	1835
893.511	1831.12
893.686	1836.35
893.861	1819.69
894.035	1824.92
894.21	1839.26
894.385	1775.71
894.56	1758.08
894.734	1686.97
894.909	1622.65
895.084	1656.55
895.258	1575.96
895.433	1609.86
895.608	1546.51
895.782	1506.79
895.957	1545.15
896.131	1505.04
896.306	1416.31
896.48	1415.15
896.655	1409.14
896.829	1304.13
897.004	1329.12
897.178	1311.88
897.353	1299.29
897.527	1347.72
897.701	1322.73
897.876	1291.54
898.05	1396.74
898.224	1350.63
898.399	1370
898.573	1288.05
898.747	1173.35
898.921	1144.29
899.096	1035.98
899.27	1059.04
899.444	1101.28
899.618	1144.87
899.792	1176.84
899.967	1212.49
900.141	1224.3
900.315	1110.77
900.489	1127.82
900.663	1134.41
900.837	1128.4
901.011	1064.46
901.185	1187.49
901.359	1138.86
901.533	1131.89
901.707	1154.75
901.881	1153.01
902.055	1105.93
902.229	1140.99
902.403	1219.27
902.576	1128.59
902.75	1162.69
902.924	1301.8
903.098	1258.6
903.272	1343.07
903.446	1401.97
903.619	1417.47
903.793	1433.36
903.967	1434.91
904.14	1503.3
904.314	1469.98
904.488	1430.65
904.661	1464.94
904.835	1476.18
905.009	1506.59
905.182	1504.27
905.356	1486.83
905.529	1487.03
905.703	1467.26
905.876	1379.11
906.05	1366.9
906.223	1331.45
906.397	1257.63
906.57	1226.44
906.744	1150.49
906.917	1187.88
907.09	1159.98
907.264	1143.71
907.437	1084.23
907.61	1093.14
907.784	1099.73
907.957	1088.29
908.13	1024.36
908.304	1034.24
908.477	1007.89
908.65	1048.96
908.823	990.06
908.996	1060.01
909.17	995.3
909.343	1004.21
909.516	1004.6
909.689	995.88
909.862	948.6
910.035	994.13
910.208	950.35
910.381	936.78
910.554	1050.51
910.727	1005.56
910.9	975.53
911.073	975.92
911.246	1066.21
911.419	1062.33
911.592	1075.51
911.765	994.52
911.938	989.48
912.11	1039.28
912.283	1008.08
912.456	1046.83
912.629	1007.11
912.802	948.41
912.974	883.31
913.147	831
913.32	754.86
913.493	804.26
913.665	831.39
913.838	843.2
914.01	865.87
914.183	913.15
914.356	926.32
914.528	963.52
914.701	988.51
914.873	897.65
915.046	848.05
915.218	818.79
915.391	709.91
915.563	746.72
915.736	786.24
915.908	840.69
916.081	866.45
916.253	886.22
916.425	867.23
916.598	903.27
916.77	848.24
916.942	829.84
917.115	732.96
917.287	821.89
917.459	780.43
917.632	734.32
917.804	709.91
917.976	792.44
918.148	825.96
918.32	820.34
918.493	878.66
918.665	910.63
918.837	898.62
919.009	934.27
919.181	963.52
919.353	937.56
919.525	950.93
919.697	932.13
919.869	954.41
920.041	1031.14
920.213	1089.07
920.385	996.65
920.557	988.51
920.729	987.55
920.901	952.28
921.073	957.9
921.244	937.95
921.416	991.03
921.588	926.9
921.76	923.03
921.932	1026.3
922.103	953.64
922.275	964.68
922.447	975.92
922.619	878.47
922.79	930.2
922.962	900.36
923.134	924.77
923.305	839.33
923.477	819.57
923.648	795.74
923.82	827.7
923.991	766.48
924.163	754.08
924.335	780.82
924.506	775.01
924.677	831.39
924.849	802.52
925.02	798.64
925.192	815.69
925.363	819.18
925.535	819.37
925.706	802.9
925.877	831.97
926.049	747.69
926.22	813.75
926.391	828.09
926.562	846.69
926.734	764.16
926.905	835.65
927.076	734.9
927.247	732.57
927.419	682.39
927.59	686.27
927.761	652.94
927.932	619.81
928.103	646.74
928.274	574.28
928.445	524.88
928.616	577
928.787	528.95
928.958	538.05
929.129	535.53
929.3	509.77
929.471	463.46
929.642	385.19
929.813	349.15
929.984	446.8
930.155	325.12
930.326	397.78
930.496	360.39
930.667	306.33
930.838	330.36
931.009	290.06
931.18	289.28
931.35	285.02
931.521	279.21
931.692	215.27
931.863	181.75
932.033	222.05
932.204	211.2
932.374	203.45
932.545	161.21
932.716	230.96
932.886	205
933.057	127.31
933.227	131.96
933.398	182.14
933.568	102.12
933.739	74.03
933.909	108.51
934.08	129.63
934.25	51.17
934.421	89.33
934.591	118.2
934.761	73.45
934.932	74.03
935.102	105.41
935.272	81
935.443	102.7
935.613	90.88
935.783	126.15
935.953	63.37
936.123	228.64
936.294	89.14
936.464	95.34
936.634	80.61
936.804	55.23
936.974	52.91
937.144	84.88
937.314	87.98
937.484	89.72
937.655	92.24
937.825	113.94
937.995	63.57
938.165	139.32
938.334	115.68
938.504	161.02
938.674	127.7
938.844	151.14
939.014	224.57
939.184	239.1
939.354	262.16
939.524	257.51
939.694	201.32
939.863	186.59
940.033	240.46
940.203	218.37
940.373	210.81
940.542	217.98
940.712	197.44
940.882	215.85
941.051	232.32
941.221	211.59
941.391	236.78
941.56	209.65
941.73	173.42
941.899	290.83
942.069	185.82
942.238	217.98
942.408	174
942.577	177.68
942.747	138.74
942.916	133.51
943.086	160.63
943.255	183.3
943.425	193.18
943.594	141.45
943.763	91.08
943.933	95.73
944.102	77.71
944.271	125.95
944.441	180.2
944.61	155.01
944.779	138.74
944.948	227.28
945.117	106.96
945.287	116.07
945.456	104.06
945.625	105.22
945.794	161.41
945.963	127.5
946.132	143.58
946.301	103.09
946.47	150.95
946.639	71.9
946.808	109.29
946.977	164.7
947.146	179.43
947.315	120.33
947.484	172.06
947.653	145.52
947.822	99.8
947.991	81.39
948.16	210.04
948.329	175.74
948.498	151.91
948.666	170.71
948.835	180.2
949.004	136.22
949.173	81.78
949.341	124.6
949.51	134.48
949.679	179.23
949.847	159.66
950.016	198.22
950.185	182.72
950.353	143.39
950.522	165.09
950.69	196.67
950.859	152.11
951.028	195.89
951.196	150.36
951.365	118.78
951.533	147.65
951.701	172.06
951.87	163.35
952.038	75.97
952.207	128.66
952.375	213.33
952.543	138.55
952.712	130.02
952.88	120.33
953.048	193.96
953.217	158.7
953.385	162.57
953.553	162.18
953.721	136.22
953.89	146.49
954.058	116.26
954.226	111.03
954.394	157.73
954.562	88.17
954.73	140.87
954.898	132.73
955.067	170.13
955.235	131.96
955.403	184.46
955.571	215.85
955.739	159.28
955.907	115.49
956.075	127.11
956.243	114.13
956.41	144.75
956.578	127.11
956.746	117.04
956.914	125.56
957.082	212.36
957.25	163.93
957.418	153.46
957.585	174.19
957.753	202.87
957.921	156.56
958.089	135.25
958.256	176.91
958.424	192.99
958.592	176.13
958.759	111.81
958.927	158.89
959.095	150.17
959.262	148.43
959.43	163.73
959.597	129.83
959.765	156.18
959.932	127.31
960.1	197.06
960.267	148.43
960.435	162.57
960.602	192.41
960.77	139.51
960.937	113.94
961.104	166.64
961.272	107.16
961.439	164.9
961.606	169.35
961.774	163.73
961.941	158.5
962.108	161.99
962.275	191.24
962.443	182.14
962.61	187.18
962.777	252.66
962.944	232.71
963.111	180.01
963.278	220.69
963.446	192.6
963.613	175.94
963.78	219.53
963.947	218.56
964.114	194.93
964.281	252.66
964.448	201.13
964.615	183.88
964.782	179.23
964.949	221.86
965.116	190.86
965.282	220.89
965.449	186.4
965.616	146.68
965.783	205
965.95	204.61
966.117	126.34
966.283	192.6
966.45	199.38
966.617	171.87
966.784	227.28
966.95	256.34
967.117	226.12
967.284	204.81
967.45	215.85
967.617	275.52
967.784	247.63
967.95	300.91
968.117	237.55
968.283	268.74
968.45	330.36
968.616	252.47
968.783	268.55
968.949	266.81
969.116	297.81
969.282	253.05
969.449	241.04
969.615	276.69
969.781	214.11
969.948	225.54
970.114	201.71
970.28	283.08
970.447	251.69
970.613	294.12
970.779	254.21
970.945	272.42
971.112	276.11
971.278	275.33
971.444	250.14
971.61	308.27
971.776	247.63
971.942	267.97
972.108	276.3
972.275	223.41
972.441	260.99
972.607	282.89
972.773	217.4
972.939	237.16
973.105	232.32
973.271	206.36
973.437	206.36
973.602	194.54
973.768	227.67
973.934	181.75
974.1	239.29
974.266	152.11
974.432	195.51
974.598	222.63
974.763	233.87
974.929	184.66
975.095	266.42
975.261	210.43
975.426	180.78
975.592	207.33
975.758	248.98
975.923	150.95
976.089	187.95
976.255	222.05
976.42	220.69
976.586	228.44
976.751	219.14
976.917	260.99
977.082	250.92
977.248	174.19
977.413	160.05
977.579	171.87
977.744	216.43
977.91	160.44
978.075	192.02
978.24	231.35
978.406	201.13
978.571	194.54
978.736	201.13
978.902	230.77
979.067	180.2
979.232	124.6
979.397	226.12
979.563	241.04
979.728	152.69
979.893	184.66
980.058	182.91
980.223	218.76
980.388	204.81
980.554	225.93
980.719	199.96
980.884	234.45
981.049	240.84
981.214	207.33
981.379	224.76
981.544	175.16
981.709	203.06
981.874	205.58
982.039	222.83
982.204	209.84
982.368	198.41
982.533	171.48
982.698	237.94
982.863	251.69
983.028	196.09
983.193	234.84
983.357	205.58
983.522	202.68
983.687	196.86
983.852	187.37
984.016	200.74
984.181	222.83
984.346	195.12
984.51	233.87
984.675	221.86
984.839	212.75
985.004	256.54
985.168	219.92
985.333	221.66
985.498	203.64
985.662	228.64
985.827	240.07
985.991	186.59
986.155	209.07
986.32	254.41
986.484	262.54
986.649	235.42
986.813	150.36
986.977	209.26
987.142	220.89
987.306	166.64
987.47	195.7
987.634	201.13
987.799	198.41
987.963	185.63
988.127	234.64
988.291	290.06
988.455	216.04
988.62	198.61
988.784	203.45
988.948	216.63
989.112	166.83
989.276	237.74
989.44	180.39
989.604	175.55
989.768	194.34
989.932	299.16
990.096	172.45
990.26	170.51
990.424	154.43
990.588	171.87
990.752	235.81
990.915	224.38
991.079	190.28
991.243	155.4
991.407	201.9
991.571	194.15
991.734	200.93
991.898	202.48
992.062	264.48
992.226	181.36
992.389	168.38
992.553	133.51
992.717	167.03
992.88	152.11
993.044	181.56
993.207	151.33
993.371	195.7
993.535	190.86
993.698	196.86
993.862	186.21
994.025	218.37
994.189	190.08
994.352	185.43
994.515	205.19
994.679	191.24
994.842	185.04
995.006	184.85
995.169	186.4
995.332	138.16
995.496	213.33
995.659	114.13
995.822	147.07
995.985	173.23
996.149	231.35
996.312	156.95
996.475	215.08
996.638	129.83
996.801	212.94
996.964	245.88
997.128	176.33
997.291	152.88
997.454	171.48
997.617	122.85
997.78	214.49
997.943	134.09
998.106	187.95
998.269	171.29
998.432	178.26
998.595	150.17
998.758	123.82
998.92	98.44
999.083	106.77
999.246	132.35
999.409	127.5
999.572	82.75
999.735	133.12
999.897	189.69
1000.06	161.21
1000.223	130.99
1000.386	164.12
1000.548	174.19
1000.711	175.55
1000.874	151.53
1001.036	124.4
1001.199	148.04
1001.361	136.41
1001.524	160.63
1001.687	182.53
1001.849	121.11
1002.012	146.49
1002.174	123.82
1002.337	149.01
1002.499	132.93
1002.661	157.73
1002.824	75.97
1002.986	109.29
1003.149	117.81
1003.311	113.16
1003.473	175.36
1003.636	85.07
1003.798	131.96
1003.96	155.79
1004.123	135.45
1004.285	118.2
1004.447	109.48
1004.609	117.62
1004.771	172.45
1004.933	85.26
1005.096	93.98
1005.258	53.88
1005.42	69.18
1005.582	157.15
1005.744	112.97
1005.906	81
1006.068	128.66
1006.23	69.18
1006.392	86.62
1006.554	71.7
1006.716	135.25
1006.878	116.65
1007.04	55.23
1007.202	85.85
1007.363	112.97
1007.525	114.13
1007.687	119.36
1007.849	178.46
1008.011	62.21
1008.172	80.23
1008.334	106.96
1008.496	122.27
1008.658	38.77
1008.819	87.59
1008.981	67.25
1009.143	77.52
1009.304	93.6
1009.466	125.76
1009.627	136.22
1009.789	186.4
1009.95	95.53
1010.112	106.58
1010.273	99.41
1010.435	102.51
1010.596	94.37
1010.758	86.23
1010.919	73.45
1011.081	60.08
1011.242	101.73
1011.403	113.55
1011.565	94.18
1011.726	96.89
1011.887	66.86
1012.049	50.39
1012.21	99.99
1012.371	150.75
1012.532	31.79
1012.693	96.11
1012.855	60.27
1013.016	79.84
1013.177	93.21
1013.338	76.93
1013.499	130.21
1013.66	124.21
1013.821	98.25
1013.982	119.75
1014.143	93.98
1014.304	81
1014.465	67.05
1014.626	104.45
1014.787	44.97
1014.948	180.01
1015.109	29.47
1015.27	134.67
1015.431	75.77
1015.592	42.25
1015.752	126.73
1015.913	89.72
1016.074	88.75
1016.235	76.74
1016.395	53.3
1016.556	79.07
1016.717	62.21
1016.877	103.48
1017.038	70.15
1017.199	72.87
1017.359	80.23
1017.52	88.36
1017.681	56.98
1017.841	76.93
1018.002	75.58
1018.162	43.42
1018.323	101.93
1018.483	83.13
1018.644	58.33
1018.804	-2.5
1018.964	1.57
1019.125	51.94
1019.285	75.38
1019.446	37.22
1019.606	53.88
1019.766	21.33
1019.926	81.39
1020.087	87.59
1020.247	19.2
1020.407	90.5
1020.567	83.33
1020.728	38.18
1020.888	56.59
1021.048	31.79
1021.208	37.6
1021.368	38.18
1021.528	108.13
1021.688	109.29
1021.848	85.85
1022.008	62.98
1022.168	43.61
1022.328	61.43
1022.488	89.72
1022.648	36.63
1022.808	55.43
1022.968	68.6
1023.128	57.75
1023.288	52.13
1023.448	54.65
1023.608	82.16
1023.767	97.86
1023.927	44.38
1024.087	41.09
1024.247	6.99
1024.406	51.36
1024.566	10.48
1024.726	35.47
1024.885	63.37
1025.045	57.75
1025.205	57.75
1025.364	55.82
1025.524	44.77
1025.683	44.77
1025.843	74.03
1026.003	43.42
1026.162	100.76
1026.321	89.33
1026.481	72.28
1026.64	19.58
1026.8	58.72
1026.959	49.62
1027.119	49.62
1027.278	5.83
1027.437	11.45
1027.597	43.8
1027.756	41.28
1027.915	53.1
1028.074	53.88
1028.234	29.27
1028.393	39.93
1028.552	14.74
1028.711	-23.81
1028.87	59.88
1029.03	13.77
1029.189	39.35
1029.348	-5.02
1029.507	26.17
1029.666	50.97
1029.825	4.08
1029.984	13.77
1030.143	66.08
1030.302	47.68
1030.461	-22.65
1030.62	30.05
1030.779	63.76
1030.938	32.37
1031.097	-19.36
1031.255	83.91
1031.414	94.76
1031.573	93.4
1031.732	-12.77
1031.891	19.39
1032.049	59.3
1032.208	82.16
1032.367	44.38
1032.525	39.73
1032.684	18.62
1032.843	30.82
1033.001	-29.43
1033.16	172.84
1033.319	108.32
1033.477	55.04
1033.636	37.22
1033.794	7.18
1033.953	67.05
1034.111	50.39
1034.27	12.61
1034.428	47.29
1034.587	6.41
1034.745	56.2
1034.903	18.23
1035.062	37.99
1035.22	2.15
1035.378	53.68
1035.537	-11.61
1035.695	71.7
1035.853	38.96
1036.011	41.28
1036.17	33.34
1036.328	-2.7
1036.486	46.32
1036.644	-3.08
1036.802	-47.65
1036.96	10.09
1037.119	26.37
1037.277	15.52
1037.435	-1.53
1037.593	-12.38
1037.751	4.28
1037.909	64.73
1038.067	64.73
