Data from calibration4_FLMT105791__7__17-36-41-048.txt Node

Date: Mon Mar 20 17:36:41 GMT 2023
User: antho
Spectrometer: FLMT10579
Trigger mode: 0
Integration Time (sec): 1.000000E-1
Scans to average: 10
Electric dark correction enabled: true
Nonlinearity correction enabled: false
Boxcar width: 0
XAxis mode: Wavelengths
Number of Pixels in Spectrum: 3648
>>>>>Begin Spectral Data<<<<<
345.248	-175.87
345.464	-175.87
345.681	-175.87
345.898	-163.28
346.114	-146.81
346.331	-35.41
346.548	10.51
346.764	9.15
346.981	-13.13
347.197	-2.28
347.414	31.05
347.631	-26.69
347.847	45.97
348.064	6.64
348.28	11.87
348.497	-47.81
348.713	10.12
348.93	41.7
349.146	72.7
349.363	92.47
349.579	119.2
349.796	125.98
350.012	86.46
350.229	153.88
350.445	105.25
350.661	100.8
350.878	110.29
351.094	143.42
351.311	122.11
351.527	152.33
351.743	110.87
351.96	169.19
352.176	166.67
352.392	161.44
352.609	174.03
352.825	123.85
353.041	124.43
353.257	106.42
353.474	118.82
353.69	152.91
353.906	140.9
354.122	113.2
354.339	185.46
354.555	148.07
354.771	187.6
354.987	198.83
355.203	234.48
355.42	155.63
355.636	167.45
355.852	153.5
356.068	168.03
356.284	115.13
356.5	202.51
356.716	178.68
356.932	150.59
357.148	177.91
357.364	127.92
357.58	166.28
357.796	179.46
358.012	176.36
358.228	190.11
358.444	124.43
358.66	181.59
358.876	165.12
359.092	130.83
359.308	165.12
359.524	195.54
359.74	203.87
359.956	201.74
360.172	204.26
360.388	261.03
360.604	184.3
360.819	254.83
361.035	216.85
361.251	225.57
361.467	187.6
361.683	233.71
361.898	216.27
362.114	220.73
362.33	198.06
362.546	244.75
362.762	220.34
362.977	262.77
363.193	208.33
363.409	291.83
363.624	224.8
363.84	229.83
364.056	235.65
364.271	269.74
364.487	246.11
364.703	255.79
364.918	245.33
365.134	268.97
365.35	258.7
365.565	375.53
365.781	339.3
365.996	329.42
366.212	389.09
366.427	342.21
366.643	346.66
366.858	321.67
367.074	323.8
367.289	415.05
367.505	433.07
367.72	307.53
367.936	311.79
368.151	403.43
368.367	355.19
368.582	345.69
368.798	328.84
369.013	386.57
369.228	345.89
369.444	384.25
369.659	387.74
369.874	374.95
370.09	429.39
370.305	361.39
370.52	392.58
370.736	444.12
370.951	371.46
371.166	385.22
371.381	440.63
371.597	445.47
371.812	380.18
372.027	403.43
372.242	393.36
372.458	422.61
372.673	372.04
372.888	368.56
373.103	384.64
373.318	453.03
373.533	370.88
373.749	373.01
373.964	312.37
374.179	369.14
374.394	305.59
374.609	386.57
374.824	317.79
375.039	383.86
375.254	316.24
375.469	411.37
375.684	395.1
375.899	447.41
376.114	409.82
376.329	432.3
376.544	456.32
376.759	448.19
376.974	393.74
377.189	442.18
377.404	443.54
377.619	524.91
377.834	453.22
378.049	511.73
378.264	484.22
378.478	584.97
378.693	557.46
378.908	592.53
379.123	531.88
379.338	570.44
379.553	530.92
379.767	519.1
379.982	509.6
380.197	531.69
380.412	496.62
380.626	531.69
380.841	636.9
381.056	599.31
381.271	646.2
381.485	539.63
381.7	535.95
381.915	554.17
382.129	478.02
382.344	472.79
382.559	452.25
382.773	496.62
382.988	389.67
383.202	436.95
383.417	370.3
383.632	494.49
383.846	447.41
384.061	413.12
384.275	429.59
384.49	533.05
384.704	562.11
384.919	603.57
385.133	640
385.348	660.92
385.562	591.75
385.777	662.47
385.991	602.6
386.206	622.17
386.42	580.9
386.634	654.14
386.849	640
387.063	703.16
387.277	643.1
387.492	648.52
387.706	611.13
387.92	635.15
388.135	699.28
388.349	694.44
388.563	664.8
388.778	679.71
388.992	692.5
389.206	721.76
389.42	811.85
389.635	805.84
389.849	848.47
390.063	890.32
390.277	871.52
390.491	941.08
390.706	876.17
390.92	920.35
391.134	922.67
391.348	985.64
391.562	952.32
391.776	1023.81
391.99	1004.43
392.205	1008.12
392.419	928.1
392.633	884.7
392.847	839.17
393.061	733.77
393.275	734.35
393.489	570.05
393.703	538.86
393.917	568.31
394.131	565.98
394.345	685.14
394.559	794.22
394.773	860.29
394.986	988.16
395.2	1007.34
395.414	1109.45
395.628	1109.25
395.842	1181.52
396.056	1144.32
396.27	1042.41
396.484	1016.25
396.697	925.39
396.911	828.32
397.125	727.96
397.339	701.99
397.553	729.12
397.766	897.87
397.98	1020.9
398.194	1218.33
398.408	1275.49
398.621	1410.14
398.835	1481.83
399.049	1470.98
399.262	1582.77
399.476	1638.76
399.69	1620.36
399.903	1657.56
400.117	1615.32
400.331	1696.89
400.544	1686.42
400.758	1818.37
400.971	1746.1
401.185	1745.32
401.398	1767.99
401.612	1851.5
401.826	1913.69
402.039	1857.31
402.253	1849.75
402.466	1936.36
402.68	1903.61
402.893	1961.93
403.106	1924.35
403.32	1857.7
403.533	1894.7
403.747	1894.51
403.96	1930.16
404.174	1991.96
404.387	1979.37
404.6	2005.53
404.814	2010.76
405.027	1922.8
405.24	1912.33
405.454	1932.68
405.667	2051.64
405.88	2029.55
406.094	2025.29
406.307	2065.59
406.52	1989.83
406.733	1912.33
406.947	1957.28
407.16	2027.03
407.373	2068.88
407.586	2090.19
407.799	2048.54
408.012	2077.02
408.226	2111.12
408.439	2248.1
408.652	2242.67
408.865	2366.28
409.078	2384.11
409.291	2353.3
409.504	2355.63
409.717	2396.51
409.93	2340.51
410.143	2188.62
410.357	2080.89
410.57	2024.32
410.783	2116.74
410.996	2177.57
411.209	2249.07
411.421	2463.74
411.634	2519.92
411.847	2515.86
412.06	2555.38
412.273	2618.15
412.486	2594.71
412.699	2599.17
412.912	2621.64
413.125	2615.83
413.338	2570.69
413.55	2547.05
413.763	2529.03
413.976	2603.62
414.189	2561.77
414.402	2633.65
414.615	2712.32
414.827	2628.62
415.04	2704.76
415.253	2713.87
415.466	2734.21
415.678	2743.12
415.891	2755.33
416.104	2676.47
416.316	2726.07
416.529	2820.62
416.742	2875.26
416.954	2885.33
417.167	2832.63
417.38	2812.29
417.592	2759.98
417.805	2710.18
418.017	2745.45
418.23	2740.8
418.442	2746.42
418.655	2768.12
418.868	2737.5
419.08	2823.14
419.293	2906.26
419.505	2928.34
419.718	2852.4
419.93	2882.81
420.142	2873.71
420.355	2871.58
420.567	2819.65
420.78	2937.84
420.992	2914.98
421.205	3038.39
421.417	3085.47
421.629	3170.33
421.842	3164.91
422.054	3160.45
422.266	3164.72
422.479	3137.78
422.691	2962.06
422.903	2976.78
423.115	2922.92
423.328	2906.64
423.54	2949.66
423.752	2987.44
423.964	3103.1
424.177	3170.14
424.389	3143.02
424.601	3236.01
424.813	3231.56
425.025	3195.72
425.238	3223.42
425.45	3131
425.662	3185.06
425.874	3441.39
426.086	3204.82
426.298	3249.77
426.51	3251.9
426.722	3303.83
426.934	3325.14
427.146	3301.69
427.358	3228.46
427.57	3232.72
427.782	3116.28
427.994	3145.53
428.206	3183.51
428.418	3390.24
428.63	3476.07
428.842	3423.76
429.054	3318.94
429.266	3295.11
429.478	3207.34
429.69	3217.61
429.902	3076.37
430.114	3034.13
430.325	2905.87
430.537	2729.95
430.749	2682.67
430.961	2569.72
431.173	2599.55
431.384	2672.99
431.596	2836.12
431.808	3201.53
432.02	3625.06
432.231	3857.94
432.443	3995.89
432.655	3835.66
432.867	3772.5
433.078	3850.77
433.29	3897.27
433.502	4013.91
433.713	4062.35
433.925	4156.9
434.136	3954.82
434.348	3718.45
434.56	3655.28
434.771	3830.62
434.983	3763.78
435.194	3990.66
435.406	4211.14
435.617	4248.93
435.829	4316.74
436.04	4393.65
436.252	4321
436.463	4533.35
436.675	4702.87
436.886	4779.6
437.098	4751.7
437.309	4736.01
437.521	4618.98
437.732	4504.67
437.943	4508.74
438.155	4413.42
438.366	4378.54
438.578	4506.8
438.789	4254.35
439	4164.84
439.211	4246.99
439.423	4313.64
439.634	4540.9
439.845	4674.01
440.057	4695.13
440.268	4867.95
440.479	4808.85
440.69	4786.19
440.902	4709.07
441.113	4712.56
441.324	4857.49
441.535	5067.7
441.746	5160.31
441.957	5133.57
442.168	5179.3
442.38	5271.52
442.591	5318.02
442.802	5224.64
443.013	5364.52
443.224	5390.68
443.435	5394.36
443.646	5313.76
443.857	5338.17
444.068	5369.37
444.279	5271.14
444.49	5624.34
444.701	5423.81
444.912	5722.37
445.123	5670.84
445.334	5454.61
445.545	5548.78
445.756	5419.55
445.967	5381.38
446.178	5263.77
446.388	5242.85
446.599	5348.25
446.81	5431.36
447.021	5420.13
447.232	5615.04
447.443	5682.07
447.653	5802.2
447.864	5968.63
448.075	5955.26
448.286	5917.28
448.496	5860.9
448.707	5939.18
448.918	5808.78
449.129	5876.4
449.339	5909.73
449.55	6013.96
449.761	6002.53
449.971	5879.11
450.182	6114.52
450.393	6211.2
450.603	6134.67
450.814	6397.19
451.024	6345.46
451.235	6553.35
451.446	6560.33
451.656	6542.89
451.867	6467.33
452.077	6258.28
452.288	6410.18
452.498	6353.41
452.709	6302.84
452.919	6080.81
453.13	5963.78
453.34	5946.15
453.55	5812.27
453.761	6104.83
453.971	6013.77
454.182	6232.12
454.392	6247.23
454.602	6496.97
454.813	6537.08
455.023	6325.9
455.233	6263.9
455.444	6408.82
455.654	6145.71
455.864	6322.41
456.075	6483.41
456.285	6471.59
456.495	6567.11
456.705	6511.89
456.916	6721.91
457.126	6822.86
457.336	6749.23
457.546	6594.62
457.756	6793.99
457.967	6900.94
458.177	6622.91
458.387	6703.51
458.597	6521.97
458.807	6690.53
459.017	6549.48
459.227	6538.44
459.437	6563.62
459.647	6752.33
459.857	6711.84
460.068	6855.41
460.278	6880.59
460.488	6863.93
460.698	6902.87
460.908	6986.38
461.117	7140.8
461.327	7159.4
461.537	7211.51
461.747	7240.96
461.957	7241.16
462.167	7355.08
462.377	7332.22
462.587	7307.81
462.797	7501.75
463.007	7327.57
463.216	7586.61
463.426	7737.15
463.636	7533.33
463.846	7355.86
464.056	7398.48
464.265	7300.83
464.475	7389.18
464.685	7592.03
464.895	7445.56
465.104	7340.36
465.314	7603.85
465.524	7503.68
465.733	7427.15
465.943	7747.42
466.153	7847.78
466.362	7882.07
466.572	7791.59
466.782	7640.66
466.991	7822.4
467.201	7718.74
467.41	7585.25
467.62	7862.89
467.829	7833.64
468.039	8064.97
468.249	7978.37
468.458	8125.81
468.668	8060.9
468.877	8262.4
469.086	8206.6
469.296	8500.9
469.505	8511.36
469.715	8477.85
469.924	8372.25
470.134	8520.08
470.343	8281
470.552	8326.92
470.762	8272.47
470.971	8466.22
471.18	8542.94
471.39	8647.37
471.599	8574.72
471.808	8679.34
472.018	9004.45
472.227	9146.47
472.436	9397.56
472.645	9428.76
472.855	9345.06
473.064	9598.87
473.273	9606.04
473.482	9305.53
473.691	9554.5
473.901	9428.18
474.11	9362.69
474.319	9665.9
474.528	9623.28
474.737	10145.04
474.946	9980.16
475.155	10108.81
475.364	10273.5
475.573	10068.51
475.783	10343.83
475.992	10204.33
476.201	10240.17
476.41	10353.32
476.619	10135.74
476.828	10138.07
477.037	10156.28
477.245	10251.41
477.454	10436.44
477.663	10742.56
477.872	11043.64
478.081	11179.46
478.29	11063.4
478.499	11240.68
478.708	11484.61
478.917	11424.16
479.125	11130.05
479.334	11326.32
479.543	11554.16
479.752	11772.71
479.961	11720.98
480.169	11983.51
480.378	12048.03
480.587	12387.86
480.796	12252.43
481.004	12234.41
481.213	12371.78
481.422	12476.98
481.63	12762.18
481.839	12829.21
482.048	12968.13
482.256	12932.48
482.465	13312.42
482.674	13115.57
482.882	13169.63
483.091	13435.26
483.299	13119.84
483.508	13466.06
483.716	13618.54
483.925	13713.86
484.134	13303.12
484.342	13632.49
484.551	13526.32
484.759	13508.69
484.967	13998.29
485.176	13840.38
485.384	13891.14
485.593	13646.25
485.801	13467.03
486.01	12962.13
486.218	12355.12
486.426	11955.8
486.635	11672.16
486.843	11921.7
487.051	12374.88
487.26	12529.68
487.468	12824.76
487.676	13143.28
487.885	13659.03
488.093	13936.48
488.301	14434.02
488.509	14375.9
488.717	14646.18
488.926	14615.76
489.134	14401.86
489.342	14497.38
489.55	14401.47
489.758	14762.42
489.967	15233.42
490.175	15188.67
490.383	15702.1
490.591	16046.19
490.799	15890.23
491.007	15770.49
491.215	15817.38
491.423	15674.97
491.631	15667.61
491.839	15508.93
492.047	15503.31
492.255	15143.53
492.463	15234.78
492.671	14935.05
492.879	15496.92
493.087	15625.57
493.295	15860.2
493.503	16022.75
493.711	16416.06
493.919	16315.7
494.127	16347.86
494.334	16273.65
494.542	16290.7
494.75	16799.87
494.958	16526.88
495.166	17044.38
495.374	17046.32
495.581	17224.18
495.789	17167.6
495.997	17117.23
496.205	16602.25
496.412	16818.28
496.62	17180.2
496.828	17043.6
497.035	17309.81
497.243	17305.94
497.451	17404.56
497.658	17487.29
497.866	17363.29
498.074	17551.03
498.281	17156.56
498.489	17151.33
498.696	16903.14
498.904	16847.14
499.112	16864.58
499.319	17284.24
499.527	17417.15
499.734	17570.4
499.942	17434.39
500.149	17450.09
500.357	17488.25
500.564	17123.23
500.771	17000.4
500.979	16847.14
501.186	16798.32
501.394	17084.1
501.601	16560.4
501.808	16649.14
502.016	16754.15
502.223	16648.55
502.43	16854.7
502.638	16762.86
502.845	17116.84
503.052	17334.42
503.26	17344.11
503.467	17463.26
503.674	17568.47
503.881	17407.07
504.089	17227.86
504.296	17139.32
504.503	16992.07
504.71	16893.84
504.917	17274.75
505.125	17367.36
505.332	17471.79
505.539	17517.9
505.746	18047.99
505.953	18228.37
506.16	18327.95
506.367	18415.92
506.574	18652.87
506.781	18558.71
506.988	18409.91
507.195	18272.35
507.402	18259.56
507.609	18260.53
507.816	17955.57
508.023	17959.06
508.23	17806
508.437	17583.38
508.644	17749.23
508.851	17937.55
509.058	18473.27
509.265	18372.52
509.472	18584.28
509.679	18689.29
509.885	18674.57
510.092	18630.78
510.299	18651.32
510.506	18277
510.713	18506.4
510.92	18351.4
511.126	18540.5
511.333	18726.49
511.54	18901.25
511.746	18977.78
511.953	18996
512.16	19263.17
512.367	19014.4
512.573	18826.85
512.78	18761.95
512.987	18686.97
513.193	18495.55
513.4	18326.21
513.606	18464.16
513.813	18577.7
514.02	18376.39
514.226	18353.72
514.433	18375.81
514.639	18214.03
514.846	18299.67
515.052	18288.82
515.259	18461.25
515.465	18547.28
515.672	18542.24
515.878	18647.64
516.085	18973.13
516.291	18858.24
516.497	18693.56
516.704	18045.08
516.91	17626.01
517.117	16928.91
517.323	16451.51
517.529	16319.57
517.736	16464.88
517.942	16570.09
518.148	16916.31
518.354	17100.76
518.561	17095.92
518.767	16918.64
518.973	17093.4
519.179	17530.88
519.386	17707.77
519.592	17665.15
519.798	17718.43
520.004	18614.7
520.21	18513.56
520.417	18701.11
520.623	18774.35
520.829	18731.14
521.035	18816.39
521.241	18769.31
521.447	18835.19
521.653	19237.4
521.859	18986.89
522.065	19200.4
522.271	19283.32
522.477	19217.64
522.683	19416.43
522.889	18958.41
523.095	18726.69
523.301	18836.35
523.507	18774.35
523.713	18848.94
523.919	18792.75
524.125	19359.27
524.331	19618.31
524.537	19996.31
524.742	19900.99
524.948	19841.12
525.154	19868.63
525.36	19887.81
525.566	19569.29
525.772	19801.21
525.977	19686.7
526.183	19451.11
526.389	19488.69
526.595	18880.72
526.8	18727.27
527.006	18061.17
527.212	17693.05
527.417	17627.17
527.623	17845.14
527.829	18036.56
528.034	18480.63
528.24	18604.04
528.446	18990.38
528.651	19324.01
528.857	19483.27
529.062	19615.99
529.268	19843.45
529.473	20052.31
529.679	20171.07
529.884	20170.1
530.09	20085.44
530.295	19494.7
530.501	19962.79
530.706	19893.43
530.912	20254.38
531.117	20092.6
531.323	20254.58
531.528	20499.47
531.733	20531.64
531.939	20340.21
532.144	20225.32
532.35	20172.62
532.555	20067.22
532.76	19469.32
532.966	19361.6
533.171	19245.35
533.376	19040.17
533.581	19075.63
533.787	19366.63
533.992	19785.9
534.197	19395.31
534.402	19899.25
534.607	19906.03
534.813	19859.14
535.018	19943.81
535.223	20266.01
535.428	20086.99
535.633	20394.08
535.838	20654.47
536.043	20796.88
536.249	21013.29
536.454	20615.72
536.659	20743.01
536.864	20602.35
537.069	20294.3
537.274	20192.58
537.479	20133.68
537.684	20194.13
537.889	20125.35
538.094	20591.7
538.299	20394.85
538.504	20652.73
538.708	20563.41
538.913	20892.2
539.118	20748.63
539.323	20513.42
539.528	20385.94
539.733	20193.74
539.938	20322
540.142	20121.67
540.347	19993.21
540.552	19955.04
540.757	19590.8
540.962	19805.86
541.166	19647.37
541.371	19651.44
541.576	19717.32
541.781	19897.11
541.985	20306.31
542.19	19945.16
542.395	20531.44
542.599	20455.69
542.804	20208.47
543.008	20485.14
543.213	20435.15
543.418	20149.37
543.622	20479.52
543.827	20137.55
544.031	20553.53
544.236	20652.92
544.44	20819.54
544.645	20811.02
544.849	20643.04
545.054	20852.87
545.258	20885.42
545.463	20942.57
545.667	20602.55
545.872	20899.17
546.076	20686.44
546.281	20776.73
546.485	20725.77
546.689	20809.08
546.894	20745.53
547.098	20895.69
547.302	20835.63
547.507	20801.53
547.711	20875.73
547.915	20617.08
548.119	20481.84
548.324	20524.27
548.528	20580.85
548.732	20558.95
548.936	20890.46
549.141	20739.53
549.345	20793.78
549.549	20810.63
549.753	21148.91
549.957	21050.88
550.161	21055.14
550.366	21152.21
550.57	20883.48
550.774	20985.97
550.978	21021.24
551.182	20956.14
551.386	20748.05
551.59	20839.89
551.794	20806.56
551.998	20997.21
552.202	21018.14
552.406	21054.37
552.61	21243.08
552.814	21085.37
553.018	20930.17
553.222	20674.62
553.426	20847.44
553.63	21106.87
553.833	20952.07
554.037	20638.2
554.241	20833.3
554.445	21092.53
554.649	21067.15
554.853	20916.22
555.056	21201.23
555.26	21199.87
555.464	20970.67
555.668	21054.56
555.871	21050.49
556.075	21155.89
556.279	20993.92
556.483	20825.74
556.686	20676.95
556.89	20778.28
557.094	20647.3
557.297	20366.37
557.501	20426.82
557.704	20199.55
557.908	20562.25
558.112	20490.56
558.315	20588.99
558.519	20345.25
558.722	20066.64
558.926	20149.76
559.129	19693.87
559.333	19960.47
559.536	19875.41
559.74	19728.55
559.943	19520.47
560.147	19804.12
560.35	19735.14
560.553	20094.15
560.757	19982.36
560.96	20093.38
561.164	20251.86
561.367	20320.65
561.57	20275.7
561.774	20217.18
561.977	19998.44
562.18	20048.24
562.384	20052.11
562.587	19997.09
562.79	20196.07
562.993	20005.81
563.197	19963.96
563.4	20272.21
563.603	20260.39
563.806	20182.12
564.009	20147.63
564.212	20184.25
564.416	19893.63
564.619	19951.94
564.822	19819.81
565.025	20030.02
565.228	19904.28
565.431	20135.04
565.634	19815.55
565.837	19582.66
566.04	19488.31
566.243	19301.15
566.446	19165.14
566.649	19565.22
566.852	19177.73
567.055	19511.17
567.258	19477.84
567.461	19613.47
567.664	19716.54
567.867	19697.17
568.07	19436.58
568.273	19810.12
568.475	19783.97
568.678	19156.61
568.881	19234.11
569.084	18925.08
569.287	18825.3
569.489	19044.43
569.692	19104.49
569.895	18984.56
570.098	18884.98
570.3	18916.56
570.503	18846.04
570.706	18720.29
570.909	18587
571.111	18340.16
571.314	18361.86
571.516	18491.87
571.719	18566.85
571.922	18455.63
572.124	18535.65
572.327	18668.56
572.529	18786.17
572.732	18824.14
572.935	18934.38
573.137	19190.32
573.34	18823.37
573.542	19128.32
573.745	18990.96
573.947	19082.6
574.15	18961.9
574.352	18889.43
574.554	19078.34
574.757	18825.11
574.959	18557.55
575.162	18847.59
575.364	18500.58
575.566	18601.72
575.769	18334.93
575.971	18539.72
576.173	18094.68
576.376	18327.57
576.578	18564.71
576.78	18497.48
576.982	18539.91
577.185	18590.87
577.387	18438.39
577.589	18687.55
577.791	18541.85
577.993	18560.26
578.196	18621.48
578.398	18342.29
578.6	18213.45
578.802	18258.98
579.004	18067.56
579.206	18286.11
579.408	18528.1
579.61	18342.1
579.812	18654.81
580.014	18408.94
580.216	18517.44
580.418	18749.55
580.62	18812.13
580.822	18873.16
581.024	18884.59
581.226	18951.24
581.428	18934.38
581.63	19288.75
581.832	19089.19
582.034	19214.93
582.236	19157
582.438	19394.15
582.64	19473.58
582.841	19513.3
583.043	19842.67
583.245	19433.28
583.447	19627.22
583.649	19630.13
583.85	19652.99
584.052	19689.42
584.254	19474.36
584.456	19646.79
584.657	19590.22
584.859	19840.15
585.061	19561.54
585.262	19504.39
585.464	19363.53
585.666	19344.35
585.867	19077.76
586.069	19174.63
586.27	19086.28
586.472	19105.27
586.674	19145.96
586.875	19173.08
587.077	19230.62
587.278	19193.04
587.48	19173.66
587.681	19353.65
587.883	19209.89
588.084	18872.58
588.285	18917.72
588.487	18488.18
588.688	18449.24
588.89	17795.93
589.091	17493.29
589.292	17088.75
589.494	16664.44
589.695	16391.06
589.896	16242.46
590.098	16494.91
590.299	16451.32
590.5	16746.01
590.702	17071.7
590.903	17321.63
591.104	17597.14
591.305	17879.62
591.507	17843.39
591.708	17822.08
591.909	17904.62
592.11	17785.27
592.311	18027.07
592.512	17689.36
592.714	17706.03
592.915	17956.15
593.116	17834.87
593.317	18131.11
593.518	18143.7
593.719	18094.3
593.92	18156.68
594.121	18183.61
594.322	18127.23
594.523	17927.87
594.724	17768.61
594.925	17788.37
595.126	17591.52
595.327	17642.09
595.528	17809.68
595.729	17878.85
595.929	17844.17
596.13	18067.36
596.331	18285.52
596.532	18137.7
596.733	18408.17
596.934	18339.77
597.135	18349.07
597.335	18298.51
597.536	18348.69
597.737	18153.2
597.938	18163.27
598.138	18258.01
598.339	18286.49
598.54	18265.96
598.74	18055.93
598.941	18139.05
599.142	18385.69
599.342	18220.43
599.543	18236.12
599.744	18435.48
599.944	18345
600.145	18493.22
600.345	18395.57
600.546	18335.7
600.746	18252.2
600.947	18491.28
601.147	18159.2
601.348	18537.59
601.548	18283.97
601.749	18307.03
601.949	18038.5
602.15	18184
602.35	17954.02
602.551	18069.11
602.751	18187.68
602.951	18205.51
603.152	18127.04
603.352	18318.85
603.552	18400.03
603.753	18530.42
603.953	18624.97
604.153	18658.29
604.354	18595.91
604.554	18589.71
604.754	18671.66
604.954	18649.96
605.155	18713.9
605.355	18646.09
605.555	18609.08
605.755	18605.98
605.955	18541.08
606.155	18559.87
606.356	18600.75
606.556	18608.5
606.756	18613.54
606.956	18518.21
607.156	18700.53
607.356	18377.17
607.556	18558.71
607.756	18559.1
607.956	18553.09
608.156	18550.38
608.356	18240.77
608.556	18556
608.756	18223.33
608.956	18355.47
609.156	18301.41
609.356	18294.05
609.556	18178.96
609.755	18317.49
609.955	18134.4
610.155	18203.38
610.355	18241.16
610.555	17871.1
610.755	17911.59
610.954	17923.8
611.154	18195.24
611.354	18168.31
611.554	18017.38
611.753	18190.01
611.953	18014.28
612.153	18148.55
612.352	18030.36
612.552	17906.17
612.752	17932.9
612.951	18170.83
613.151	17835.45
613.351	18003.23
613.55	17998.97
613.75	17953.05
613.949	17640.73
614.149	17694.98
614.348	17698.28
614.548	17689.75
614.747	17674.25
614.947	17877.88
615.146	17652.16
615.346	17935.42
615.545	18020.48
615.745	17820.92
615.944	17684.52
616.144	17688.4
616.343	17447.37
616.542	17530.3
616.742	17240.26
616.941	17291.02
617.14	17112.19
617.34	17280.36
617.539	17409.79
617.738	17382.66
617.938	17664.76
618.137	17506.27
618.336	17512.09
618.535	17703.12
618.734	17756.59
618.934	17631.82
619.133	17689.17
619.332	17863.54
619.531	17441.76
619.73	17784.3
619.929	17695.56
620.128	17785.66
620.328	17723.27
620.527	17799.8
620.726	17832.74
620.925	17826.54
621.124	17809.29
621.323	17722.11
621.522	17525.45
621.721	17694.21
621.92	17404.75
622.119	17600.63
622.318	17422.77
622.517	17442.14
622.715	17362.32
622.914	17325.12
623.113	17424.32
623.312	16974.82
623.511	17197.25
623.71	17176.32
623.909	16980.44
624.107	17229.21
624.306	17087
624.505	16955.26
624.704	16902.94
624.902	16762.86
625.101	16911.47
625.3	16692.53
625.499	16675.87
625.697	16829.32
625.896	16531.92
626.095	16462.17
626.293	16480.38
626.492	16638.48
626.69	16573.57
626.889	16902.17
627.088	16698.54
627.286	16707.45
627.485	16423.81
627.683	16340.11
627.882	16042.13
628.08	15741.04
628.279	15557.18
628.477	15605.23
628.676	15520.75
628.874	15691.44
629.073	15606.97
629.271	15652.5
629.469	15755.38
629.668	15679.43
629.866	15542.84
630.065	15659.67
630.263	15654.82
630.461	15630.8
630.66	15796.65
630.858	15718.18
631.056	15919.48
631.254	15957.46
631.453	15725.93
631.651	15831.13
631.849	15814.08
632.047	15720.5
632.245	15793.74
632.444	15921.61
632.642	16128.73
632.84	16332.55
633.038	15971.02
633.236	15979.93
633.434	16225.22
633.632	16226.96
633.83	16040.96
634.028	16361.03
634.227	16063.05
634.425	16409.47
634.623	16159.73
634.821	16359.87
635.019	16338.75
635.216	16581.32
635.414	16403.27
635.612	16331.58
635.81	16337.4
636.008	16498.21
636.206	16396.68
636.404	16277.72
636.602	16470.5
636.8	16224.05
636.997	16451.9
637.195	16370.53
637.393	16457.71
637.591	16699.7
637.789	16546.26
637.986	16680.52
638.184	16641
638.382	16741.75
638.58	16687.69
638.777	16826.8
638.975	16751.05
639.173	16831.45
639.37	16748.33
639.568	16652.82
639.765	16715.2
639.963	16508.86
640.161	16289.93
640.358	16619.1
640.556	16299.03
640.753	16450.93
640.951	16328.29
641.148	16441.05
641.346	16514.67
641.543	16350.57
641.741	16374.98
641.938	16269
642.136	16384.48
642.333	16303.68
642.531	16476.7
642.728	16404.63
642.925	16520.1
643.123	16429.81
643.32	16442.41
643.517	16209.14
643.715	16221.73
643.912	16396.49
644.109	16369.17
644.306	16430.78
644.504	16288.38
644.701	16407.92
644.898	16360.06
645.095	16324.41
645.293	16319.38
645.49	16227.54
645.687	16229.48
645.884	16246.92
646.081	15871.05
646.278	15980.13
646.475	15819.12
646.672	15662.77
646.87	15599.61
647.067	15509.71
647.264	15535.86
647.461	15393.46
647.658	15195.64
647.855	15298.33
648.052	15112.14
648.249	15061.18
648.446	15155.93
648.642	15352.58
648.839	14998.6
649.036	14994.73
649.233	15018.95
649.43	14999.77
649.627	14701.59
649.824	14866.08
650.021	14795.56
650.217	15047.43
650.414	15215.99
650.611	15287.87
650.808	15559.31
651.004	15351.8
651.201	15427.95
651.398	15526.95
651.595	15289.03
651.791	15109.43
651.988	15299.1
652.185	14955.98
652.381	15382.61
652.578	15148.95
652.775	15275.47
652.971	15453.33
653.168	15247.96
653.364	15575.58
653.561	15336.89
653.757	15467.47
653.954	15627.7
654.15	15202.23
654.347	15479.1
654.543	15413.03
654.74	15209.79
654.936	15181.69
655.133	15047.43
655.329	15065.06
655.525	14669.04
655.722	14673.69
655.918	14329.01
656.115	13818.68
656.311	13532.32
656.507	13097.36
656.704	12948.76
656.9	13165.56
657.096	13460.44
657.292	13496.48
657.489	13738.28
657.685	13958.37
657.881	13961.47
658.077	14229.62
658.273	14496.6
658.47	14682.6
658.666	14645.6
658.862	15005.19
659.058	14934.08
659.254	15042.2
659.45	15207.66
659.646	15039.1
659.842	15084.63
660.038	15347.54
660.234	15086.76
660.43	15123.18
660.626	15418.07
660.822	15359.55
661.018	15333.79
661.214	15369.24
661.41	15336.89
661.606	15409.93
661.802	15627.51
661.998	15479.87
662.194	15417.48
662.39	15486.46
662.586	15454.68
662.781	15472.51
662.977	15717.99
663.173	15369.63
663.369	15415.16
663.564	15401.79
663.76	15421.17
663.956	15377.96
664.152	15204.17
664.347	15203.2
664.543	15284.19
664.739	15257.64
664.934	15183.05
665.13	15303.17
665.326	15246.41
665.521	15339.21
665.717	15212.69
665.912	15323.52
666.108	15053.05
666.304	15368.27
666.499	15185.96
666.695	14922.27
666.89	15295.81
667.086	15189.64
667.281	15145.27
667.477	15311.89
667.672	15084.63
667.867	15069.9
668.063	15082.3
668.258	14991.24
668.454	15128.41
668.649	15082.5
668.844	15195.84
669.04	15183.05
669.235	15133.06
669.43	15179.56
669.626	14965.67
669.821	15029.21
670.016	14844.57
670.211	15100.13
670.407	14862.01
670.602	15104.19
670.797	14844.38
670.992	15087.92
671.187	14852.13
671.382	14967.8
671.578	14709.34
671.773	14863.56
671.968	14569.26
672.163	14784.12
672.358	14755.45
672.553	14604.13
672.748	14839.34
672.943	14794.59
673.138	14759.91
673.333	14862.98
673.528	14577.2
673.723	14751.77
673.918	14531.67
674.113	14621.18
674.308	14673.69
674.503	14554.53
674.698	14689.96
674.892	14431.7
675.087	14603.75
675.282	14576.23
675.477	14617.11
675.672	14610.91
675.867	14390.62
676.061	14524.5
676.256	14394.31
676.451	14580.5
676.646	14561.12
676.84	14441.39
677.035	14357.88
677.23	14484.78
677.424	14502.61
677.619	14414.65
677.814	14483.23
678.008	14421.62
678.203	14440.22
678.397	14393.53
678.592	14339.67
678.787	14491.76
678.981	14361.76
679.176	14355.17
679.37	14279.41
679.565	14355.17
679.759	14338.12
679.954	14250.54
680.148	14223.23
680.342	14325.52
680.537	14257.33
680.731	14101.17
680.926	14307.51
681.12	14113.37
681.314	14123.06
681.509	14093.03
681.703	14143.01
681.897	13969.61
682.092	14023.67
682.286	14090.7
682.48	14049.63
682.674	14009.52
682.869	13928.54
683.063	14046.92
683.257	13991.5
683.451	13793.11
683.645	13981.82
683.839	13757.46
684.034	13712.51
684.228	13618.15
684.422	13472.46
684.616	13604.98
684.81	13618.54
685.004	13547.44
685.198	13626.29
685.392	13553.05
685.586	13632.1
685.78	13397.28
685.974	13460.06
686.168	13379.26
686.362	13290.91
686.556	12418.66
686.75	11989.9
686.944	11140.9
687.138	10237.65
687.331	9691.09
687.525	9311.54
687.719	9113.53
687.913	9181.54
688.107	9355.13
688.301	9359.78
688.494	9589.37
688.688	9469.64
688.882	9350.68
689.076	9396.98
689.269	9468.86
689.463	9595.38
689.657	9629.87
689.85	9697.48
690.044	9788.35
690.238	10007.67
690.431	9950.52
690.625	10119.47
690.818	10348.48
691.012	10344.21
691.205	10629.02
691.399	10665.83
691.593	10674.75
691.786	10869.07
691.98	11019.42
692.173	11062.43
692.366	11165.31
692.56	11319.15
692.753	11131.21
692.947	11183.53
693.14	11100.21
693.333	11137.41
693.527	11106.22
693.72	11100.6
693.914	10972.15
694.107	10893.49
694.3	10962.85
694.493	10736.94
694.687	11004.7
694.88	10818.89
695.073	11018.45
695.266	10988.42
695.46	11083.75
695.653	11057.01
695.846	11040.35
696.039	11104.48
696.232	11164.93
696.425	11432.3
696.618	11445.08
696.812	11705.09
697.005	11662.47
697.198	11921.51
697.391	11768.06
697.584	11927.32
697.777	11963.94
697.97	11842.07
698.163	11819.79
698.356	11794.02
698.549	11870.55
698.742	11778.52
698.935	11485.58
699.127	11505.15
699.32	11383.86
699.513	11379.79
699.706	11226.15
699.899	11414.09
700.092	11262.77
700.285	11092.08
700.477	10978.15
700.67	11125.01
700.863	10974.09
701.056	11092.27
701.248	11006.25
701.441	11038.6
701.634	10984.74
701.826	11058.37
702.019	10896.39
702.212	10973.7
702.404	10925.07
702.597	10815.79
702.79	10936.69
702.982	10883.22
703.175	11019.42
703.367	11067.47
703.56	11109.13
703.752	11189.92
703.945	11179.07
704.137	11094.98
704.33	11199.61
704.522	11203.87
704.715	11261.22
704.907	11238.94
705.1	11364.1
705.292	11278.46
705.484	11162.99
705.677	11278.07
705.869	11283.11
706.061	11233.9
706.254	11366.62
706.446	11156.79
706.638	11167.06
706.831	11249.59
707.023	11192.83
707.215	11423.97
707.407	11438.5
707.599	11207.16
707.792	11410.02
707.984	11269.36
708.176	11277.11
708.368	11269.94
708.56	11357.32
708.752	11263.16
708.944	11178.68
709.136	11219.56
709.329	11208.33
709.521	11312.95
709.713	11186.82
709.905	11194.18
710.097	11350.34
710.289	11212.01
710.481	11168.41
710.672	11182.94
710.864	11248.63
711.056	11191.08
711.248	11196.51
711.44	11198.44
711.632	11185.85
711.824	11216.27
712.016	11096.53
712.207	11166.09
712.399	11058.75
712.591	11101.38
712.783	11097.31
712.975	11066.7
713.166	10956.45
713.358	11014.19
713.55	10973.12
713.741	10963.82
713.933	10972.73
714.125	10880.12
714.316	10760.38
714.508	10843.5
714.7	10731.32
714.891	10689.28
715.083	10644.91
715.274	10579.81
715.466	10629.99
715.657	10532.92
715.849	10357.39
716.04	10284.73
716.232	10133.61
716.423	9951.1
716.615	9674.62
716.806	9359.2
716.998	8993.79
717.189	8647.76
717.381	8407.32
717.572	8206.41
717.763	8081.63
717.955	7895.83
718.146	7714.48
718.337	7524.61
718.528	7324.66
718.72	7062.91
718.911	7058.84
719.102	6957.9
719.293	6910.62
719.485	6804.64
719.676	6729.47
719.867	6631.82
720.058	6623.3
720.249	6601.21
720.44	6552.19
720.632	6801.35
720.823	6947.82
721.014	7304.71
721.205	7534.88
721.396	7683.87
721.587	7936.71
721.778	8062.06
721.969	8195.75
722.16	8339.9
722.351	8519.5
722.542	8656.29
722.733	8576.66
722.924	8447.43
723.115	8504.97
723.305	8255.62
723.496	8237.99
723.687	7852.04
723.878	7879.36
724.069	7739.86
724.26	7728.43
724.45	7501.36
724.641	7469
724.832	7443.04
725.023	7325.63
725.213	7325.44
725.404	7204.93
725.595	7116.38
725.785	7179.74
725.976	7312.07
726.167	7180.9
726.357	7176.83
726.548	7391.51
726.739	7130.33
726.929	7403.71
727.12	7392.09
727.31	7307.81
727.501	7168.7
727.691	7113.67
727.882	7129.37
728.072	7227.4
728.263	7291.14
728.453	7431.61
728.644	7378.72
728.834	7272.35
729.024	7159.4
729.215	7114.45
729.405	7165.21
729.596	7238.44
729.786	7262.66
729.976	7321.17
730.167	7301.61
730.357	7258.98
730.547	7231.86
730.737	7311.49
730.928	7304.32
731.118	7326.02
731.308	7213.65
731.498	7319.62
731.688	7492.25
731.879	7538.75
732.069	7567.04
732.259	7735.21
732.449	7821.43
732.639	7872.19
732.829	7959.18
733.019	8056.83
733.209	8187.81
733.399	8231.4
733.589	8402.48
733.779	8463.9
733.969	8506.71
734.159	8573.75
734.349	8627.42
734.539	8680.7
734.729	8740.37
734.919	8692.32
735.109	8808.38
735.299	8638.27
735.488	8695.04
735.678	8617.54
735.868	8645.63
736.058	8536.36
736.248	8566.39
736.437	8487.53
736.627	8441.23
736.817	8638.07
737.007	8494.51
737.196	8596.23
737.386	8698.52
737.576	8530.74
737.765	8638.66
737.955	8603.98
738.144	8805.86
738.334	8687.87
738.524	8546.04
738.713	8644.08
738.903	8562.32
739.092	8619.48
739.282	8530.74
739.471	8615.21
739.661	8593.32
739.85	8738.05
740.04	8597.58
740.229	8723.32
740.419	8739.02
740.608	8743.28
740.797	8633.04
740.987	8732.04
741.176	8713.44
741.365	8720.8
741.555	8558.83
741.744	8758.2
741.933	8634.59
742.123	8709.18
742.312	8724.68
742.501	8822.33
742.69	8762.85
742.88	8614.44
743.069	8794.43
743.258	8766.34
743.447	8798.89
743.636	8743.86
743.825	8659.39
744.014	8814.97
744.204	8815.55
744.393	8735.34
744.582	8858.56
744.771	8820.78
744.96	8735.92
745.149	8747.54
745.338	8654.93
745.527	8839.18
745.716	8713.83
745.905	8662.49
746.094	8785.71
746.283	8781.25
746.471	8666.75
746.66	8730.69
746.849	8773.7
747.038	8772.54
747.227	8690.19
747.416	8709.18
747.604	8648.73
747.793	8666.75
747.982	8616.96
748.171	8688.45
748.359	8610.37
748.548	8614.24
748.737	8598.94
748.926	8590.8
749.114	8393.95
749.303	8535.78
749.491	8520.08
749.68	8349.78
749.869	8571.62
750.057	8463.7
750.246	8453.82
750.434	8400.35
750.623	8355.79
750.811	8283.32
751	8408.68
751.188	8322.07
751.377	8308.7
751.565	8318.39
751.754	8256.01
751.942	8225.01
752.131	8346.1
752.319	8255.23
752.507	8232.37
752.696	8227.14
752.884	8232.17
753.072	8161.84
753.261	8237.79
753.449	8180.64
753.637	8103.72
753.825	8244.96
754.014	8214.16
754.202	8142.47
754.39	8102.17
754.578	8160.88
754.766	8089
754.955	7938.84
755.143	8129.68
755.331	8042.69
755.519	8066.52
755.707	8015.57
755.895	7996.77
756.083	7968.29
756.271	7881.3
756.459	7941.55
756.647	7925.28
756.835	7870.25
757.023	7841.77
757.211	7840.81
757.399	7771.25
757.587	7840.81
757.775	7712.54
757.963	7752.65
758.151	7758.46
758.339	7679.61
758.526	7610.05
758.714	7616.25
758.902	7327.37
759.09	7127.23
759.278	6622.33
759.465	6086.42
759.653	5295.94
759.841	4730.19
760.028	4135.78
760.216	3557.64
760.404	3218.58
760.591	2713.28
760.779	2274.06
760.967	1971.23
761.154	1681.39
761.342	1665.31
761.529	1682.55
761.717	1754.62
761.905	1786.59
762.092	1862.54
762.28	1788.72
762.467	1733.5
762.655	1602.53
762.842	1659.11
763.029	1679.64
763.217	1676.54
763.404	1666.47
763.592	1709.67
763.779	1701.34
763.966	1746.29
764.154	1862.54
764.341	1926.09
764.528	2000.88
764.716	2129.91
764.903	2202.95
765.09	2369.38
765.277	2547.24
765.465	2764.24
765.652	2973.87
765.839	3112.6
766.026	3397.02
766.213	3549.5
766.4	3753.9
766.588	4119.7
766.775	4278.57
766.962	4490.72
767.149	4734.65
767.336	5018.68
767.523	5003.57
767.71	5269.2
767.897	5488.71
768.084	5597.6
768.271	5767.52
768.458	5924.26
768.645	6057.56
768.832	6093.59
769.019	6226.7
769.206	6223.4
769.392	6335.39
769.579	6473.53
769.766	6490
769.953	6499.69
770.14	6567.5
770.327	6587.45
770.513	6626.78
770.7	6761.63
770.887	6610.32
771.073	6690.53
771.26	6709.32
771.447	6701.57
771.634	6662.63
771.82	6781.2
772.007	6658.95
772.193	6763.18
772.38	6749.62
772.567	6755.43
772.753	6658.56
772.94	6816.46
773.126	6751.75
773.313	6820.92
773.499	6733.35
773.686	6821.69
773.872	6628.72
774.059	6751.95
774.245	6703.7
774.432	6670.77
774.618	6577.19
774.804	6622.52
774.991	6598.11
775.177	6638.6
775.363	6581.06
775.55	6602.95
775.736	6490.39
775.922	6630.85
776.109	6587.26
776.295	6587.45
776.481	6656.04
776.667	6596.95
776.853	6523.32
777.04	6524.29
777.226	6514.61
777.412	6611.29
777.598	6444.86
777.784	6458.03
777.97	6425.29
778.156	6436.53
778.342	6457.26
778.528	6378.21
778.715	6382.28
778.901	6348.76
779.087	6379.76
779.272	6375.49
779.458	6364.45
779.644	6336.36
779.83	6342.95
780.016	6397.19
780.202	6302.26
780.388	6381.31
780.574	6203.64
780.76	6222.63
780.946	6245.68
781.131	6242.78
781.317	6183.68
781.503	6167.22
781.689	6231.54
781.874	6299.74
782.06	6114.13
782.246	6194.53
782.432	6249.75
782.617	6174.77
782.803	6203.64
782.989	6136.22
783.174	6109.87
783.36	6033.34
783.545	6049.22
783.731	6021.91
783.916	5970.76
784.102	6001.56
784.288	6004.86
784.473	5974.24
784.659	5867.88
784.844	6031.79
785.029	5931.62
785.215	5915.35
785.4	5838.81
785.586	5952.35
785.771	5833.97
785.956	5889.19
786.142	5803.36
786.327	5853.93
786.512	5799.1
786.698	5739.23
786.883	5671.42
787.068	5761.51
787.254	5766.74
787.439	5694.28
787.624	5626.08
787.809	5662.31
787.994	5614.84
788.18	5691.37
788.365	5532.5
788.55	5506.15
788.735	5546.06
788.92	5526.11
789.105	5537.15
789.29	5511.38
789.475	5393
789.66	5418
789.845	5367.43
790.03	5356.97
790.215	5375.76
790.4	5414.12
790.585	5350.57
790.77	5410.63
790.955	5281.02
791.14	5337.59
791.325	5394.55
791.51	5232.58
791.695	5349.41
791.879	5330.81
792.064	5265.9
792.249	5348.63
792.434	5291.09
792.618	5323.06
792.803	5349.22
792.988	5287.8
793.173	5344.95
793.357	5381.18
793.542	5301.36
793.727	5326.16
793.911	5378.08
794.096	5435.63
794.281	5421.68
794.465	5481.55
794.65	5395.13
794.834	5509.64
795.019	5449
795.203	5517.19
795.388	5446.67
795.572	5460.43
795.757	5448.61
795.941	5402.88
796.126	5385.25
796.31	5315.12
796.494	5400.95
796.679	5395.91
796.863	5323.45
797.048	5449
797.232	5419.16
797.416	5424.97
797.601	5399.2
797.785	5502.86
797.969	5492.98
798.153	5435.82
798.338	5504.41
798.522	5579.39
798.706	5569.51
798.89	5520.88
799.074	5601.09
799.258	5603.41
799.443	5481.93
799.627	5531.14
799.811	5519.33
799.995	5421.68
800.179	5429.81
800.363	5373.05
800.547	5444.15
800.731	5512.16
800.915	5385.45
801.099	5349.6
801.283	5397.26
801.467	5389.13
801.651	5374.6
801.835	5449.96
802.019	5398.62
802.202	5400.95
802.386	5357.74
802.57	5258.15
802.754	5354.25
802.938	5294.77
803.121	5342.24
803.305	5390.1
803.489	5369.17
803.673	5446.67
803.856	5382.54
804.04	5343.6
804.224	5346.31
804.407	5281.99
804.591	5299.62
804.775	5347.47
804.958	5343.79
805.142	5467.01
805.326	5382.35
805.509	5391.65
805.693	5478.83
805.876	5407.34
806.06	5497.82
806.243	5488.71
806.427	5527.08
806.61	5453.26
806.794	5459.07
806.977	5459.46
807.16	5493.75
807.344	5457.91
807.527	5415.48
807.71	5446.28
807.894	5393.97
808.077	5391.45
808.26	5350.38
808.444	5297.1
808.627	5421.1
808.81	5303.1
808.993	5252.15
809.177	5205.46
809.36	5218.24
809.543	5226.57
809.726	5060.73
809.909	5099.86
810.092	5082.62
810.276	5124.66
810.459	5009
810.642	5054.33
810.825	4985.94
811.008	4973.54
811.191	4842.18
811.374	4861.36
811.557	4798.39
811.74	4875.89
811.923	4790.84
812.106	4693.58
812.289	4632.16
812.472	4605.23
812.654	4630.61
812.837	4581.2
813.02	4491.3
813.203	4395.79
813.386	4263.46
813.569	4189.44
813.751	4077.27
813.934	4124.54
814.117	4046.65
814.3	3922.85
814.482	3848.26
814.665	3777.15
814.848	3694.61
815.03	3612.66
815.213	3618.08
815.396	3555.7
815.578	3539.23
815.761	3423.37
815.943	3485.37
816.126	3391.01
816.309	3336.18
816.491	3223.81
816.674	3173.63
816.856	3214.7
817.039	3227.68
817.221	3324.94
817.403	3238.15
817.586	3259.07
817.768	3230.78
817.951	3146.5
818.133	3115.5
818.315	3160.84
818.498	3236.21
818.68	3278.25
818.862	3302.86
819.045	3354.39
819.227	3299.95
819.409	3250.35
819.591	3294.14
819.774	3296.46
819.956	3254.61
820.138	3361.18
820.32	3414.84
820.502	3590.77
820.684	3665.94
820.866	3665.75
821.048	3744.21
821.231	3770.76
821.413	3760.68
821.595	3790.71
821.777	3764.75
821.959	3759.91
822.141	3803.69
822.323	3599.1
822.505	3442.55
822.686	3314.48
822.868	3137.59
823.05	2948.3
823.232	2875.06
823.414	2800.47
823.596	2894.24
823.778	2909.55
823.96	2968.84
824.141	3022.7
824.323	3043.82
824.505	3217.03
824.687	3264.69
824.868	3452.62
825.05	3552.4
825.232	3638.62
825.413	3676.79
825.595	3665.94
825.777	3590.96
825.958	3616.73
826.14	3640.56
826.321	3675.82
826.503	3639.98
826.685	3700.23
826.866	3712.05
827.048	3693.26
827.229	3598.13
827.411	3525.28
827.592	3397.21
827.773	3400.51
827.955	3356.14
828.136	3316.23
828.318	3291.81
828.499	3304.99
828.68	3252.68
828.862	3280.38
829.043	3277.48
829.224	3234.27
829.406	3223.23
829.587	3228.07
829.768	3264.5
829.949	3252.48
830.131	3311.96
830.312	3324.94
830.493	3297.82
830.674	3305.57
830.855	3259.26
831.036	3266.24
831.218	3331.73
831.399	3328.04
831.58	3306.73
831.761	3312.54
831.942	3308.09
832.123	3294.33
832.304	3231.75
832.485	3258.68
832.666	3288.91
832.847	3323.59
833.028	3286.2
833.209	3289.1
833.389	3291.43
833.57	3221.29
833.751	3172.66
833.932	3299.18
834.113	3262.36
834.294	3281.16
834.475	3300.53
834.655	3378.23
834.836	3402.25
835.017	3417.75
835.198	3372.03
835.378	3364.28
835.559	3435.57
835.74	3371.64
835.92	3398.37
836.101	3394.69
836.281	3433.25
836.462	3417.36
836.643	3418.72
836.823	3449.33
837.004	3446.23
837.184	3497.96
837.365	3471.81
837.545	3463.86
837.726	3406.12
837.906	3523.73
838.087	3472.19
838.267	3475.68
838.448	3407.67
838.628	3436.93
838.808	3474.32
838.989	3458.82
839.169	3408.64
839.349	3453.59
839.53	3510.55
839.71	3518.69
839.89	3385.39
840.07	3532.06
840.251	3536.52
840.431	3524.5
840.611	3463.67
840.791	3429.76
840.971	3429.76
841.151	3433.25
841.332	3440.03
841.512	3481.69
841.692	3398.57
841.872	3441.58
842.052	3406.12
842.232	3440.61
842.412	3354.98
842.592	3443.52
842.772	3410.77
842.952	3423.76
843.132	3420.66
843.312	3356.53
843.492	3373.58
843.672	3451.66
843.851	3294.72
844.031	3352.26
844.211	3338.12
844.391	3323.78
844.571	3374.35
844.751	3324.75
844.93	3346.84
845.11	3305.38
845.29	3355.75
845.47	3397.79
845.649	3352.65
845.829	3370.67
846.009	3348.19
846.188	3381.33
846.368	3388.3
846.547	3323.2
846.727	3383.46
846.907	3272.05
847.086	3323.78
847.266	3362.53
847.445	3298.01
847.625	3310.61
847.804	3284.84
847.984	3316.81
848.163	3292.78
848.343	3232.72
848.522	3257.52
848.701	3253.06
848.881	3202.69
849.06	3290.07
849.239	3190.48
849.419	3220.51
849.598	3124.61
849.777	3068.62
849.957	3031.22
850.136	2992.86
850.315	2967.09
850.494	2986.47
850.674	2987.63
850.853	3059.12
851.032	3027.54
851.211	3085.47
851.39	3035.49
851.569	2965.35
851.748	2977.56
851.927	3044.98
852.107	3026.57
852.286	2996.54
852.465	2965.35
852.644	3019.02
852.823	3027.54
853.002	2999.06
853.181	3020.57
853.359	3008.36
853.538	2920.79
853.717	2923.69
853.896	2830.31
854.075	2688.68
854.254	2618.54
854.433	2486.6
854.611	2614.09
854.79	2524.57
854.969	2624.74
855.148	2653.61
855.327	2586.77
855.505	2698.56
855.684	2696.62
855.863	2760.56
856.041	2698.75
856.22	2831.28
856.399	2765.98
856.577	2903.16
856.756	2872.35
856.934	2990.92
857.113	3004.1
857.291	2895.02
857.47	2854.53
857.648	2930.48
857.827	2865.57
858.005	2952.56
858.184	2862.86
858.362	2973.87
858.541	2833.41
858.719	2886.88
858.898	2850.85
859.076	2852.59
859.254	2906.64
859.433	2862.08
859.611	2810.35
859.789	2773.35
859.967	2866.73
860.146	2865.18
860.324	2746.8
860.502	2817.52
860.68	2726.65
860.859	2801.25
861.037	2787.68
861.215	2800.08
861.393	2788.65
861.571	2765.4
861.749	2722
861.927	2751.45
862.105	2745.06
862.283	2733.82
862.461	2731.5
862.639	2709.6
862.817	2731.88
862.995	2744.67
863.173	2704.18
863.351	2728.98
863.529	2721.62
863.707	2731.3
863.885	2731.69
864.063	2656.32
864.241	2657.49
864.418	2706.12
864.596	2661.36
864.774	2636.17
864.952	2606.53
865.129	2666.01
865.307	2569.14
865.485	2565.26
865.663	2577.66
865.84	2456.57
866.018	2511.4
866.196	2335.87
866.373	2304.87
866.551	2244.8
866.728	2263.21
866.906	2300.41
867.084	2330.25
867.261	2357.56
867.439	2390.11
867.616	2431.77
867.794	2431.77
867.971	2458.7
868.149	2457.15
868.326	2548.79
868.503	2472.46
868.681	2458.89
868.858	2452.31
869.035	2411.62
869.213	2472.46
869.39	2441.65
869.567	2545.69
869.745	2440.49
869.922	2518.18
870.099	2462.38
870.276	2517.21
870.454	2461.22
870.631	2445.91
870.808	2432.74
870.985	2468.78
871.162	2480.4
871.339	2434.29
871.517	2400.77
871.694	2357.56
871.871	2420.53
872.048	2371.9
872.225	2370.55
872.402	2422.28
872.579	2330.05
872.756	2430.22
872.933	2313.2
873.11	2360.86
873.287	2381.2
873.463	2338.77
873.64	2326.18
873.817	2316.88
873.994	2357.37
874.171	2255.46
874.348	2341.48
874.524	2234.73
874.701	2276
874.878	2230.08
875.055	2308.55
875.231	2282.97
875.408	2280.45
875.585	2193.46
875.762	2259.53
875.938	2225.82
876.115	2232.4
876.291	2174.28
876.468	2188.81
876.645	2202.76
876.821	2180.87
876.998	2199.47
877.174	2169.63
877.351	2228.72
877.527	2165.37
877.704	2186.87
877.88	2187.26
878.057	2160.33
878.233	2206.83
878.409	2130.49
878.586	2209.35
878.762	2194.82
878.938	2130.11
879.115	2121
879.291	2119.06
879.467	2048.15
879.644	2087.48
879.82	2114.8
879.996	2094.46
880.172	2027.23
880.349	2117.71
880.525	2108.02
880.701	2028.78
880.877	2039.04
881.053	2051.44
881.229	2014.63
881.405	2102.4
881.581	2050.28
881.757	2029.55
881.933	2087.29
882.109	2110.34
882.285	2052.61
882.461	2005.33
882.637	2088.45
882.813	1997
882.989	2045.44
883.165	2096.78
883.341	2049.12
883.517	2101.82
883.693	2052.41
883.869	2104.92
884.044	2010.37
884.22	2090.19
884.396	2128.75
884.572	2050.86
884.747	2067.14
884.923	2053.19
885.099	2073.14
885.275	2081.28
885.45	2013.28
885.626	2012.31
885.801	2009.79
885.977	2024.13
886.153	1974.72
886.328	2032.46
886.504	1984.8
886.679	1987.51
886.855	1995.64
887.03	2006.88
887.206	2084.38
887.381	2030.13
887.557	2051.06
887.732	2048.93
887.908	2032.65
888.083	2040.98
888.258	2010.76
888.434	2009.21
888.609	2045.24
888.784	2078.37
888.96	2052.99
889.135	2016.96
889.31	2015.6
889.485	2008.63
889.661	2020.44
889.836	2040.4
890.011	2074.5
890.186	1987.51
890.361	2006.49
890.537	2019.48
890.712	2027.23
890.887	2059
891.062	2029.55
891.237	2104.72
891.412	1985.38
891.587	2008.43
891.762	2048.73
891.937	2072.18
892.112	1952.25
892.287	2003.78
892.462	1949.34
892.637	1917.76
892.812	1871.84
892.987	1838.52
893.161	1893.54
893.336	1851.5
893.511	1830.38
893.686	1850.92
893.861	1816.82
894.035	1806.74
894.21	1856.53
894.385	1776.13
894.56	1770.12
894.734	1704.64
894.909	1649.81
895.084	1624.23
895.258	1602.92
895.433	1612.03
895.608	1570.18
895.782	1514.96
895.957	1542.86
896.131	1543.25
896.306	1411.11
896.48	1423.9
896.655	1420.6
896.829	1323.15
897.004	1323.34
897.178	1322.57
897.353	1285.95
897.527	1380.5
897.701	1346.59
897.876	1269.29
898.05	1405.88
898.224	1372.36
898.399	1341.17
898.573	1300.67
898.747	1143.35
898.921	1153.23
899.096	1060.62
899.27	1075.35
899.444	1084.65
899.618	1135.6
899.792	1190.43
899.967	1217.94
900.141	1241.39
900.315	1130.95
900.489	1107.12
900.663	1106.93
900.837	1124.94
901.011	1079.03
901.185	1189.46
901.359	1160.21
901.533	1182.49
901.707	1159.24
901.881	1158.27
902.055	1119.52
902.229	1156.33
902.403	1219.88
902.576	1137.54
902.75	1172.8
902.924	1274.91
903.098	1267.16
903.272	1346.4
903.446	1410.92
903.619	1386.7
903.793	1482.8
903.967	1458.77
904.14	1481.44
904.314	1458.38
904.488	1464.2
904.661	1513.99
904.835	1472.53
905.009	1483.96
905.182	1551.77
905.356	1531.23
905.529	1492.48
905.703	1421.57
905.876	1429.9
906.05	1384.95
906.223	1330.51
906.397	1253.59
906.57	1237.32
906.744	1212.71
906.917	1174.54
907.09	1179.78
907.264	1154.59
907.437	1090.46
907.61	1051.13
907.784	1086.97
907.957	1093.17
908.13	1029.43
908.304	1051.51
908.477	1003.08
908.65	993.58
908.823	997.27
908.996	1054.03
909.17	986.22
909.343	999.98
909.516	987.19
909.689	1003.66
909.862	979.25
910.035	1001.53
910.208	935.27
910.381	973.24
910.554	1071.66
910.727	993
910.9	987.38
911.073	1001.53
911.246	1095.69
911.419	1071.28
911.592	1056.75
911.765	1015.87
911.938	996.88
912.11	1036.21
912.283	1022.65
912.456	1058.3
912.629	975.57
912.802	980.02
912.974	881.4
913.147	836.46
913.32	745.59
913.493	825.61
913.665	849.44
913.838	836.84
914.01	825.8
914.183	917.64
914.356	940.69
914.528	969.37
914.701	970.72
914.873	916.67
915.046	856.99
915.218	802.94
915.391	737.45
915.563	715.56
915.736	828.71
915.908	843.43
916.081	864.16
916.253	894.39
916.425	884.31
916.598	912.4
916.77	873.07
916.942	853.89
917.115	752.37
917.287	772.13
917.459	741.33
917.632	740.94
917.804	719.24
917.976	791.89
918.148	812.43
918.32	870.36
918.493	896.52
918.665	922.09
918.837	892.64
919.009	972.85
919.181	959.1
919.353	958.13
919.525	947.47
919.697	936.24
919.869	956.38
920.041	990.1
920.213	1077.67
920.385	996.68
920.557	982.93
920.729	1025.75
920.901	964.72
921.073	921.12
921.244	953.67
921.416	987.77
921.588	967.23
921.76	937.4
921.932	1012.96
922.103	946.89
922.275	949.6
922.447	963.17
922.619	894.77
922.79	914.73
922.962	897.49
923.134	911.63
923.305	814.56
923.477	836.46
923.648	812.24
923.82	841.88
923.991	754.31
924.163	791.89
924.335	822.7
924.506	797.32
924.677	857.96
924.849	757.99
925.02	827.54
925.192	811.46
925.363	806.62
925.535	795.38
925.706	770.58
925.877	846.72
926.049	759.54
926.22	817.27
926.391	806.42
926.562	834.52
926.734	781.62
926.905	838.59
927.076	729.7
927.247	730.86
927.419	707.23
927.59	673.13
927.761	660.92
927.932	609.58
928.103	618.1
928.274	573.35
928.445	547.97
928.616	569.86
928.787	514.06
928.958	576.45
929.129	532.08
929.3	486.16
929.471	456.13
929.642	421.25
929.813	363.52
929.984	432.88
930.155	357.9
930.326	415.44
930.496	364.49
930.667	307.14
930.838	335.23
931.009	287.76
931.18	307.53
931.35	259.09
931.521	277.49
931.692	237
931.863	173.06
932.033	187.4
932.204	224.6
932.374	210.46
932.545	161.44
932.716	220.92
932.886	191.86
933.057	96.73
933.227	157.37
933.398	216.08
933.568	93.82
933.739	78.9
933.909	74.06
934.08	154.08
934.25	57.01
934.421	67.67
934.591	122.69
934.761	93.63
934.932	67.67
935.102	108.16
935.272	101.96
935.443	69.99
935.613	89.37
935.783	105.06
935.953	71.93
936.123	215.88
936.294	94.02
936.464	68.25
936.634	96.73
936.804	63.02
936.974	44.8
937.144	117.85
937.314	93.43
937.484	68.63
937.655	36.86
937.825	140.32
937.995	68.63
938.165	139.93
938.334	117.27
938.504	143.03
938.674	149.43
938.844	170.55
939.014	240.29
939.184	226.93
939.354	260.44
939.524	236.61
939.694	197.09
939.863	200.38
940.033	255.41
940.203	240.68
940.373	191.47
940.542	232.35
940.712	188.76
940.882	245.72
941.051	218.98
941.221	237.58
941.391	259.09
941.56	181.59
941.73	180.81
941.899	254.05
942.069	182.56
942.238	201.74
942.408	174.42
942.577	189.15
942.747	189.73
942.916	122.69
943.086	157.56
943.255	210.46
943.425	185.85
943.594	153.69
943.763	87.62
943.933	118.62
944.102	56.82
944.271	166.28
944.441	163.76
944.61	173.06
944.779	130.25
944.948	213.36
945.117	112.03
945.287	109.32
945.456	73.67
945.625	111.45
945.794	153.5
945.963	91.69
946.132	138.77
946.301	129.67
946.47	151.37
946.639	83.75
946.808	125.98
946.977	160.47
947.146	187.4
947.315	122.69
947.484	176.16
947.653	160.86
947.822	110.29
947.991	113.78
948.16	195.73
948.329	198.25
948.498	178.49
948.666	145.17
948.835	193.8
949.004	124.63
949.173	102.35
949.341	153.11
949.51	147.49
949.679	178.3
949.847	125.6
950.016	203.1
950.185	200.96
950.353	133.54
950.522	163.57
950.69	221.7
950.859	134.12
951.028	203.1
951.196	135.28
951.365	127.15
951.533	144.39
951.701	158.34
951.87	145.94
952.038	110.68
952.207	126.18
952.375	200.38
952.543	140.71
952.712	129.28
952.88	143.81
953.048	206.78
953.217	161.44
953.385	180.04
953.553	208.71
953.721	119.01
953.89	119.01
954.058	111.65
954.226	115.72
954.394	145.75
954.562	81.81
954.73	131.6
954.898	123.47
955.067	173.45
955.235	119.78
955.403	177.13
955.571	194.57
955.739	132.77
955.907	134.7
956.075	125.21
956.243	117.07
956.41	151.37
956.578	99.44
956.746	131.8
956.914	161.05
957.082	186.05
957.25	178.49
957.418	131.8
957.585	172.87
957.753	204.65
957.921	155.82
958.089	151.75
958.256	194.38
958.424	166.48
958.592	170.55
958.759	144.58
958.927	172.1
959.095	136.45
959.262	136.83
959.43	152.33
959.597	133.35
959.765	157.18
959.932	143.81
960.1	175
960.267	164.73
960.435	158.34
960.602	180.43
960.77	144.2
960.937	158.92
961.104	162.02
961.272	118.04
961.439	147.68
961.606	172.68
961.774	177.91
961.941	150.4
962.108	185.27
962.275	175.97
962.443	213.56
962.61	183.33
962.777	231.96
962.944	235.06
963.111	200.58
963.278	181.2
963.446	208.91
963.613	194.76
963.78	201.93
963.947	205.03
964.114	203.1
964.281	255.6
964.448	219.18
964.615	176.75
964.782	191.86
964.949	231.38
965.116	200.96
965.282	225.96
965.449	191.47
965.616	162.21
965.783	182.56
965.95	206.39
966.117	134.32
966.283	177.71
966.45	195.35
966.617	193.8
966.784	243.01
966.95	227.31
967.117	256.96
967.284	187.01
967.45	201.55
967.617	279.63
967.784	238.36
967.95	301.13
968.117	240.68
968.283	276.91
968.45	330.19
968.616	248.04
968.783	279.82
968.949	238.94
969.116	258.31
969.282	264.9
969.449	272.65
969.615	247.66
969.781	227.7
969.948	241.46
970.114	212.01
970.28	304.62
970.447	262.77
970.613	298.03
970.779	251.34
970.945	241.07
971.112	272.46
971.278	263.54
971.444	254.24
971.61	309.46
971.776	246.88
971.942	257.73
972.108	282.34
972.275	230.03
972.441	266.26
972.607	305.39
972.773	195.73
972.939	266.64
973.105	222.66
973.271	206.97
973.437	218.4
973.602	205.81
973.768	270.33
973.934	199.22
974.1	239.33
974.266	149.82
974.432	249.21
974.598	196.7
974.763	244.75
974.929	200.77
975.095	271.88
975.261	192.63
975.426	149.04
975.592	200.96
975.758	240.88
975.923	136.83
976.089	181.98
976.255	229.06
976.42	198.45
976.586	213.36
976.751	217.05
976.917	276.14
977.082	219.76
977.248	170.16
977.413	155.05
977.579	193.41
977.744	217.43
977.91	190.5
978.075	181.59
978.24	213.75
978.406	215.3
978.571	180.81
978.736	164.54
978.902	234.48
979.067	170.55
979.232	142.07
979.397	203.87
979.563	237.58
979.728	161.05
979.893	198.45
980.058	195.15
980.223	219.95
980.388	193.6
980.554	198.45
980.719	174.81
980.884	233.9
981.049	220.15
981.214	171.51
981.379	221.11
981.544	196.9
981.709	219.37
981.874	179.46
982.039	182.36
982.204	224.99
982.368	220.73
982.533	177.13
982.698	231.77
982.863	242.81
983.028	171.9
983.193	242.43
983.357	229.25
983.522	203.68
983.687	186.82
983.852	173.45
984.016	206.97
984.181	212.78
984.346	205.81
984.51	242.04
984.675	205.23
984.839	210.85
985.004	217.24
985.168	251.34
985.333	241.84
985.498	208.13
985.662	221.7
985.827	265.09
985.991	216.27
986.155	217.82
986.32	234.48
986.484	235.84
986.649	226.35
986.813	147.68
986.977	206.78
987.142	209.88
987.306	193.41
987.47	187.4
987.634	214.33
987.799	197.48
987.963	225.57
988.127	207.36
988.291	279.04
988.455	202.51
988.62	184.3
988.784	200.96
988.948	239.33
989.112	156.98
989.276	217.43
989.44	209.49
989.604	193.21
989.768	167.25
989.932	246.3
990.096	170.93
990.26	175.39
990.424	170.74
990.588	199.03
990.752	240.68
990.915	196.7
991.079	189.73
991.243	182.95
991.407	217.43
991.571	193.8
991.734	211.43
991.898	207.36
992.062	258.89
992.226	189.15
992.389	174.03
992.553	138.97
992.717	150.4
992.88	152.72
993.044	195.54
993.207	169.77
993.371	194.18
993.535	198.64
993.698	175.2
993.862	217.63
994.025	219.18
994.189	194.96
994.352	187.6
994.515	173.45
994.679	219.18
994.842	141.68
995.006	214.33
995.169	149.23
995.332	147.68
995.496	194.76
995.659	139.35
995.822	171.32
995.985	166.86
996.149	238.36
996.312	174.61
996.475	219.56
996.638	140.52
996.801	224.99
996.964	207.16
997.128	158.73
997.291	153.69
997.454	183.33
997.617	114.55
997.78	211.04
997.943	126.37
998.106	190.89
998.269	137.22
998.432	169.38
998.595	147.3
998.758	103.9
998.92	117.85
999.083	121.33
999.246	138
999.409	118.43
999.572	103.32
999.735	137.61
999.897	168.61
1000.06	140.13
1000.223	124.43
1000.386	180.81
1000.548	164.54
1000.711	149.04
1000.874	151.75
1001.036	114.75
1001.199	165.31
1001.361	150.59
1001.524	131.99
1001.687	190.11
1001.849	105.83
1002.012	142.84
1002.174	159.31
1002.337	186.63
1002.499	133.93
1002.661	195.54
1002.824	104.87
1002.986	121.33
1003.149	122.11
1003.311	91.69
1003.473	203.1
1003.636	124.63
1003.798	152.14
1003.96	143.42
1004.123	138.58
1004.285	121.33
1004.447	117.27
1004.609	139.16
1004.771	224.6
1004.933	74.25
1005.096	101.96
1005.258	81.62
1005.42	112.81
1005.582	130.44
1005.744	148.85
1005.906	47.32
1006.068	125.79
1006.23	70.96
1006.392	68.44
1006.554	95.37
1006.716	136.83
1006.878	128.5
1007.04	74.64
1007.202	105.45
1007.363	110.68
1007.525	130.44
1007.687	145.55
1007.849	142.65
1008.011	63.99
1008.172	74.45
1008.334	98.86
1008.496	121.14
1008.658	55.27
1008.819	71.93
1008.981	51.2
1009.143	76.77
1009.304	105.06
1009.466	93.63
1009.627	145.55
1009.789	189.73
1009.95	119.78
1010.112	78.32
1010.273	143.23
1010.435	66.12
1010.596	103.9
1010.758	106.03
1010.919	77.74
1011.081	69.6
1011.242	104.28
1011.403	83.36
1011.565	94.6
1011.726	101.18
1011.887	58.75
1012.049	89.56
1012.21	122.5
1012.371	126.76
1012.532	50.04
1012.693	97.7
1012.855	83.75
1013.016	81.03
1013.177	122.11
1013.338	93.43
1013.499	141.48
1013.66	91.88
1013.821	108.74
1013.982	100.41
1014.143	72.7
1014.304	77.74
1014.465	127.73
1014.626	103.9
1014.787	67.47
1014.948	176.75
1015.109	10.12
1015.27	119.59
1015.431	76
1015.592	64.57
1015.752	141.29
1015.913	79.1
1016.074	68.44
1016.235	59.92
1016.395	90.92
1016.556	73.48
1016.717	57.98
1016.877	118.04
1017.038	60.69
1017.199	91.69
1017.359	65.53
1017.52	61.08
1017.681	57.01
1017.841	67.67
1018.002	66.31
1018.162	75.22
1018.323	89.56
1018.483	51.97
1018.644	75.42
1018.804	42.67
1018.964	23.1
1019.125	48.49
1019.285	51.78
1019.446	54.1
1019.606	45.19
1019.766	31.24
1019.926	73.67
1020.087	61.08
1020.247	33.95
1020.407	88.98
1020.567	102.15
1020.728	57.59
1020.888	7.41
1021.048	50.62
1021.208	46.94
1021.368	25.24
1021.528	80.65
1021.688	101.77
1021.848	120.95
1022.008	62.24
1022.168	44.61
1022.328	48.29
1022.488	91.11
1022.648	62.44
1022.808	62.82
1022.968	67.28
1023.128	41.9
1023.288	26.2
1023.448	50.42
1023.608	75.8
1023.767	75.8
1023.927	38.41
1024.087	30.47
1024.247	28.14
1024.406	55.07
1024.566	32.02
1024.726	22.14
1024.885	57.2
1025.045	84.13
1025.205	37.25
1025.364	54.1
1025.524	41.51
1025.683	36.86
1025.843	55.07
1026.003	29.11
1026.162	123.85
1026.321	72.9
1026.481	68.63
1026.64	39.77
1026.8	72.9
1026.959	39.57
1027.119	57.01
1027.278	21.94
1027.437	25.82
1027.597	82.78
1027.756	40.15
1027.915	63.4
1028.074	48.29
1028.234	29.5
1028.393	37.25
1028.552	42.67
1028.711	-19.52
1028.87	45.97
1029.03	-3.25
1029.189	44.42
1029.348	-11.58
1029.507	28.14
1029.666	19.81
1029.825	6.44
1029.984	8.77
1030.143	77.35
1030.302	18.84
1030.461	-0.15
1030.62	46.55
1030.779	64.37
1030.938	15.94
1031.097	1.6
1031.255	57.59
1031.414	87.04
1031.573	74.64
1031.732	5.86
1031.891	40.35
1032.049	69.41
1032.208	70.96
1032.367	19.04
1032.525	25.24
1032.684	28.14
1032.843	29.89
1033.001	-12.55
1033.16	178.3
1033.319	87.62
1033.477	42.87
1033.636	36.47
1033.794	-10.61
1033.953	60.3
1034.111	67.47
1034.27	21.36
1034.428	34.92
1034.587	19.23
1034.745	54.3
1034.903	36.86
1035.062	60.89
1035.22	-5.76
1035.378	42.67
1035.537	-9.64
1035.695	55.65
1035.853	25.43
1036.011	58.37
1036.17	31.82
1036.328	-48.19
1036.486	18.65
1036.644	47.32
1036.802	-31.92
1036.96	8.77
1037.119	21.55
1037.277	-10.41
1037.435	-7.9
1037.593	-0.15
1037.751	8.19
1037.909	22.52
1038.067	22.52
