Data from calibration4_FLMT105791__0__17-36-34-048.txt Node

Date: Mon Mar 20 17:36:34 GMT 2023
User: antho
Spectrometer: FLMT10579
Trigger mode: 0
Integration Time (sec): 1.000000E-1
Scans to average: 10
Electric dark correction enabled: true
Nonlinearity correction enabled: false
Boxcar width: 0
XAxis mode: Wavelengths
Number of Pixels in Spectrum: 3648
>>>>>Begin Spectral Data<<<<<
345.248	-141.44
345.464	-141.44
345.681	-141.44
345.898	-157.71
346.114	-140.47
346.331	-8.14
346.548	-3.49
346.764	-2.71
346.981	21.12
347.197	-39.91
347.414	14.34
347.631	-20.73
347.847	68.39
348.064	-4.26
348.28	12.59
348.497	-36.81
348.713	-0.39
348.93	26.16
349.146	84.09
349.363	93.58
349.579	80.6
349.796	117.02
350.012	82.15
350.229	132.72
350.445	122.25
350.661	80.41
350.878	93.58
351.094	146.09
351.311	139.5
351.527	121.09
351.743	108.69
351.96	144.92
352.176	176.31
352.392	138.34
352.609	151.7
352.825	85.64
353.041	98.42
353.257	138.53
353.474	134.46
353.69	142.99
353.906	160.81
354.122	124.97
354.339	195.88
354.555	141.44
354.771	148.22
354.987	176.89
355.203	219.52
355.42	155.58
355.636	127.1
355.852	145.5
356.068	160.23
356.284	98.81
356.5	210.6
356.716	150.74
356.932	164.1
357.148	171.47
357.364	159.45
357.58	182.51
357.796	206.92
358.012	189.87
358.228	171.27
358.444	84.09
358.66	209.83
358.876	153.25
359.092	134.65
359.308	165.46
359.524	187.16
359.74	173.99
359.956	197.82
360.172	206.15
360.388	249.74
360.604	205.76
360.819	290.23
361.035	206.53
361.251	215.83
361.467	176.89
361.683	249.35
361.898	219.71
362.114	232.69
362.33	228.82
362.546	227.27
362.762	243.93
362.977	263.5
363.193	228.62
363.409	259.43
363.624	241.22
363.84	211.38
364.056	228.82
364.271	298.18
364.487	272.21
364.703	254
364.918	249.93
365.134	264.85
365.35	247.8
365.565	378.97
365.781	315.23
365.996	340.22
366.212	397.76
366.427	349.71
366.643	334.41
366.858	330.92
367.074	320.46
367.289	371.03
367.505	423.14
367.72	331.89
367.936	336.93
368.151	368.12
368.367	388.85
368.582	345.06
368.798	352.62
369.013	374.71
369.228	359.98
369.444	347.2
369.659	409.39
369.874	391.76
370.09	418.11
370.305	378.19
370.52	384.39
370.736	424.89
370.951	388.46
371.166	422.37
371.381	431.67
371.597	420.63
371.812	380.33
372.027	398.93
372.242	402.22
372.458	442.71
372.673	384.01
372.888	362.69
373.103	385.17
373.318	431.67
373.533	378.19
373.749	355.14
373.964	311.35
374.179	368.12
374.394	328.01
374.609	391.76
374.824	326.66
375.039	390.01
375.254	335.18
375.469	432.64
375.684	383.81
375.899	471.19
376.114	447.36
376.329	417.72
376.544	447.36
376.759	429.54
376.974	415.59
377.189	438.26
377.404	443.1
377.619	507.62
377.834	439.61
378.049	495.22
378.264	508.01
378.478	554.31
378.693	553.54
378.908	583.95
379.123	533.19
379.338	532.22
379.553	498.71
379.767	489.79
379.982	495.22
380.197	515.17
380.412	473.52
380.626	551.4
380.841	626.97
381.056	603.14
381.271	632.58
381.485	568.45
381.7	534.16
381.915	562.84
382.129	467.71
382.344	521.37
382.559	463.25
382.773	481.07
382.988	392.53
383.202	438.64
383.417	372.19
383.632	479.72
383.846	422.18
384.061	414.23
384.275	409.97
384.49	510.33
384.704	574.07
384.919	584.92
385.133	619.6
385.348	685.87
385.562	615.92
385.777	628.71
385.991	608.95
386.206	583.18
386.42	563.8
386.634	633.94
386.849	638.59
387.063	662.62
387.277	628.9
387.492	621.35
387.706	627.16
387.92	624.83
388.135	699.81
388.349	682.77
388.563	694.97
388.778	667.46
388.992	700.98
389.206	719
389.42	771.7
389.635	767.82
389.849	841.25
390.063	898.41
390.277	880
390.491	913.13
390.706	856.56
390.92	893.76
391.134	900.34
391.348	980.17
391.562	950.52
391.776	1011.75
391.99	1008.65
392.205	986.75
392.419	897.63
392.633	893.76
392.847	873.22
393.061	762.4
393.275	739.34
393.489	593.84
393.703	544.82
393.917	554.89
394.131	552.95
394.345	665.52
394.559	816.26
394.773	841.64
394.986	952.66
395.2	1014.27
395.414	1072.97
395.628	1105.33
395.842	1104.75
396.056	1108.23
396.27	1079.37
396.484	1038.68
396.697	898.79
396.911	829.04
397.125	710.08
397.339	713.57
397.553	741.28
397.766	889.69
397.98	1015.82
398.194	1166.75
398.408	1266.14
398.621	1384.13
398.835	1406.41
399.049	1471.51
399.262	1544.36
399.476	1595.31
399.69	1600.35
399.903	1692.96
400.117	1576.71
400.331	1675.91
400.544	1654.41
400.758	1776.66
400.971	1719.31
401.185	1764.46
401.398	1739.27
401.612	1833.24
401.826	1870.05
402.039	1846.41
402.253	1890
402.466	1925.27
402.68	1889.04
402.893	1971.57
403.106	1903.18
403.32	1862.1
403.533	1902.4
403.747	1847.57
403.96	1926.43
404.174	1980.29
404.387	1929.14
404.6	1965.18
404.814	1995.98
405.027	1921.97
405.24	1932.24
405.454	1938.63
405.667	1999.08
405.88	2026.21
406.094	2028.34
406.307	1996.76
406.52	1959.37
406.733	1921.39
406.947	1927.2
407.16	2012.84
407.373	2082.01
407.586	2043.06
407.799	2047.13
408.012	2085.3
408.226	2115.14
408.439	2187.21
408.652	2214.92
408.865	2290.09
409.078	2370.5
409.291	2323.8
409.504	2334.07
409.717	2366.62
409.93	2330.78
410.143	2202.13
410.357	2055.66
410.57	1968.28
410.783	2086.85
410.996	2156.41
411.209	2223.64
411.421	2446.25
411.634	2487.13
411.847	2464.46
412.06	2507.28
412.273	2617.91
412.486	2546.81
412.699	2562.31
412.912	2589.63
413.125	2531.7
413.338	2547.19
413.55	2497.6
413.763	2519.88
413.976	2556.69
414.189	2546.42
414.402	2664.41
414.615	2712.46
414.827	2586.72
415.04	2638.26
415.253	2651.82
415.466	2705.29
415.678	2741.52
415.891	2650.46
416.104	2627.02
416.316	2719.24
416.529	2802.17
416.742	2863
416.954	2885.09
417.167	2815.73
417.38	2774.07
417.592	2754.31
417.805	2679.91
418.017	2705.87
418.23	2721.18
418.442	2701.81
418.655	2767.68
418.868	2722.15
419.08	2800.03
419.293	2843.43
419.505	2886.83
419.718	2844.79
419.93	2878.5
420.142	2848.86
420.355	2869.59
420.567	2810.69
420.78	2872.88
420.992	2914.54
421.205	3036.6
421.417	3087.94
421.629	3095.69
421.842	3119.33
422.054	3109.45
422.266	3122.24
422.479	3116.42
422.691	2921.32
422.903	2953.68
423.115	2893.61
423.328	2895.16
423.54	2945.54
423.752	2983.9
423.964	3079.61
424.177	3112.36
424.389	3080
424.601	3197.8
424.813	3191.4
425.025	3203.42
425.238	3218.92
425.45	3153.04
425.662	3168.54
425.874	3421.19
426.086	3158.08
426.298	3233.83
426.51	3249.33
426.722	3219.5
426.934	3272.97
427.146	3255.15
427.358	3176.1
427.57	3200.32
427.782	3092.59
427.994	3120.3
428.206	3130.18
428.418	3346.4
428.63	3391.74
428.842	3387.67
429.054	3266.19
429.266	3251.08
429.478	3208.84
429.69	3162.92
429.902	3055.59
430.114	3002.69
430.325	2839.56
430.537	2725.25
430.749	2629.15
430.961	2510.77
431.173	2547.19
431.384	2689.41
431.596	2791.9
431.808	3215.04
432.02	3561.07
432.231	3801.9
432.443	3982.86
432.655	3796.28
432.867	3730.02
433.078	3749.78
433.29	3869.71
433.502	3981.31
433.713	4030.72
433.925	4114.42
434.136	3928.61
434.348	3658.53
434.56	3614.74
434.771	3835.03
434.983	3679.07
435.194	3998.36
435.406	4153.17
435.617	4187.07
435.829	4303.32
436.04	4335.09
436.252	4271.16
436.463	4514.12
436.675	4613.32
436.886	4674.93
437.098	4734.6
437.309	4750.29
437.521	4575.73
437.732	4464.9
437.943	4442.43
438.155	4390.12
438.366	4328.31
438.578	4395.54
438.789	4229.89
439	4218.46
439.211	4220.01
439.423	4325.41
439.634	4449.21
439.845	4607.31
440.057	4686.75
440.268	4803.38
440.479	4725.11
440.69	4743.13
440.902	4652.26
441.113	4623.97
441.324	4783.62
441.535	4924.67
441.746	5140.89
441.957	5069.01
442.168	5185.84
442.38	5200.56
442.591	5261.98
442.802	5157.16
443.013	5316.23
443.224	5412.14
443.435	5310.42
443.646	5234.47
443.857	5207.15
444.068	5286.39
444.279	5249.58
444.49	5618.86
444.701	5401.87
444.912	5679.89
445.123	5660.52
445.334	5447.2
445.545	5550.08
445.756	5362.15
445.967	5300.73
446.178	5196.69
446.388	5202.5
446.599	5274.77
446.81	5343.16
447.021	5364.86
447.232	5519.86
447.443	5617.89
447.653	5798.27
447.864	5898.63
448.075	5924.98
448.286	5875.19
448.496	5770.57
448.707	5889.92
448.918	5717.09
449.129	5880.81
449.339	5908.52
449.55	5968.77
449.761	5884.68
449.971	5878.68
450.182	6048.79
450.393	6132.49
450.603	6083.66
450.814	6316.16
451.024	6271.99
451.235	6511.46
451.446	6479.68
451.656	6427.76
451.867	6352.39
452.077	6221.22
452.288	6292.72
452.498	6260.17
452.709	6190.81
452.919	6061.77
453.13	5906.77
453.34	5827.72
453.55	5695.39
453.761	6033.87
453.971	5999.96
454.182	6075.72
454.392	6206.5
454.602	6385.91
454.813	6453.91
455.023	6227.23
455.233	6139.07
455.444	6314.61
455.654	6037.94
455.864	6251.45
456.075	6352.2
456.285	6374.28
456.495	6456.24
456.705	6541.68
456.916	6674.79
457.126	6726.9
457.336	6641.07
457.546	6525.41
457.756	6625.38
457.967	6716.05
458.177	6550.79
458.387	6545.94
458.597	6499.64
458.807	6629.45
459.017	6494.21
459.227	6487.43
459.437	6554.47
459.647	6641.46
459.857	6679.24
460.068	6775.92
460.278	6823.2
460.488	6748.22
460.698	6824.55
460.908	6895.08
461.117	7020.82
461.327	7068.29
461.537	7197.9
461.747	7135.13
461.957	7165.74
462.167	7340.5
462.377	7231.42
462.587	7206.04
462.797	7369.18
463.007	7269.01
463.216	7493.95
463.426	7623.18
463.636	7455.59
463.846	7294.39
464.056	7271.53
464.265	7224.45
464.475	7301.95
464.685	7461.79
464.895	7370.14
465.104	7196.93
465.314	7461.01
465.524	7412.19
465.733	7419.55
465.943	7576.29
466.153	7704.36
466.362	7851.41
466.572	7750.47
466.782	7576.29
466.991	7756.67
467.201	7586.37
467.41	7537.93
467.62	7759.19
467.829	7770.43
468.039	7915.54
468.249	7867.88
468.458	8000.6
468.668	7989.55
468.877	8163.15
469.086	8234.06
469.296	8377.24
469.505	8478.38
469.715	8349.73
469.924	8209.85
470.134	8424.32
470.343	8227.86
470.552	8243.75
470.762	8187.76
470.971	8337.91
471.18	8446.8
471.39	8511.9
471.599	8426.65
471.808	8570.02
472.018	8843.79
472.227	9024.94
472.436	9402.55
472.645	9275.65
472.855	9237.67
473.064	9558.71
473.273	9509.89
473.482	9258.41
473.691	9397.32
473.901	9317.5
474.11	9190.4
474.319	9522.48
474.528	9509.11
474.737	10005.3
474.946	9837.13
475.155	9949.89
475.364	10092.87
475.573	9965.58
475.783	10170.57
475.992	10126.59
476.201	10064.39
476.41	10194.2
476.619	10053.35
476.828	10042.31
477.037	10056.06
477.245	10164.56
477.454	10307.35
477.663	10599.14
477.872	10869.8
478.081	11019.76
478.29	10945.36
478.499	11171.27
478.708	11313.09
478.917	11305.15
479.125	11062.77
479.334	11138.92
479.543	11433.41
479.752	11625.41
479.961	11573.3
480.169	11871.09
480.378	11916.04
480.587	12213.44
480.796	12050.3
481.004	12104.55
481.213	12218.48
481.422	12316.12
481.63	12669.71
481.839	12683.08
482.048	12827.62
482.256	12718.54
482.465	13121.34
482.674	12963.82
482.882	13025.82
483.091	13151.56
483.299	12966.73
483.508	13266.07
483.716	13430.95
483.925	13528.01
484.134	13031.05
484.342	13379.8
484.551	13425.91
484.759	13252.5
484.967	13743.65
485.176	13651.04
485.384	13627.21
485.593	13461.75
485.801	13353.06
486.01	12789.64
486.218	12158.61
486.426	11769.76
486.635	11519.44
486.843	11732.56
487.051	12101.45
487.26	12384.9
487.468	12669.91
487.676	13000.44
487.885	13474.54
488.093	13785.12
488.301	14246.23
488.509	14134.44
488.717	14411.11
488.926	14373.33
489.134	14222.79
489.342	14327.41
489.55	14250.5
489.758	14603.5
489.967	15058.81
490.175	14999.72
490.383	15452.12
490.591	15776.64
490.799	15596.26
491.007	15525.74
491.215	15655.55
491.423	15437.59
491.631	15539.69
491.839	15312.81
492.047	15285.88
492.255	14919.31
492.463	15032.85
492.671	14796.86
492.879	15233.18
493.087	15454.44
493.295	15629.01
493.503	15709.8
493.711	16163.94
493.919	16050.8
494.127	16082.57
494.334	15978.92
494.542	16091.29
494.75	16609.37
494.958	16329.79
495.166	16743.83
495.374	16862.4
495.581	17001.32
495.789	16923.63
495.997	17029.41
496.205	16307.32
496.412	16665.94
496.62	17072.42
496.828	16826.17
497.035	17100.71
497.243	17152.44
497.451	17121.44
497.658	17223.74
497.866	17105.36
498.074	17288.07
498.281	16925.37
498.489	16964.31
498.696	16715.74
498.904	16597.36
499.112	16624.48
499.319	16932.15
499.527	17163.1
499.734	17279.54
499.942	17144.3
500.149	17167.17
500.357	17207.47
500.564	16941.65
500.771	16844.38
500.979	16586.7
501.186	16433.25
501.394	16838.57
501.601	16321.27
501.808	16408.26
502.016	16517.34
502.223	16381.13
502.43	16605.11
502.638	16590.58
502.845	16840.9
503.052	17122.99
503.26	17102.07
503.467	17197.97
503.674	17288.45
503.881	17191.39
504.089	17032.71
504.296	16909.29
504.503	16682.99
504.71	16736.08
504.917	16967.61
505.125	17094.71
505.332	17329.53
505.539	17359.75
505.746	17764.3
505.953	18063.44
506.16	18125.44
506.367	18108.58
506.574	18340.11
506.781	18278.69
506.988	18205.26
507.195	18082.04
507.402	18047.75
507.609	17950.87
507.816	17823.97
508.023	17676.14
508.23	17597.67
508.437	17302.98
508.644	17503.71
508.851	17727.68
509.058	18067.7
509.265	18109.75
509.472	18308.53
509.679	18470.12
509.885	18308.14
510.092	18314.54
510.299	18354.06
510.506	17992.92
510.713	18101.8
510.92	18077.59
511.126	18200.61
511.333	18517.78
511.54	18623.18
511.746	18586.17
511.953	18762.09
512.16	18899.85
512.367	18859.36
512.573	18660.18
512.78	18563.12
512.987	18534.83
513.193	18334.3
513.4	18156.63
513.606	18198.1
513.813	18257.58
514.02	18075.84
514.226	18105.87
514.433	18041.74
514.639	17948.94
514.846	18033.8
515.052	17938.09
515.259	18120.4
515.465	18187.25
515.672	18235.88
515.878	18416.26
516.085	18715.21
516.291	18582.3
516.497	18413.54
516.704	17707.33
516.91	17435.31
517.117	16632.04
517.323	16259.27
517.529	16190.1
517.736	16140.69
517.942	16339.87
518.148	16673.89
518.354	16844.77
518.561	16886.04
518.767	16722.71
518.973	16784.71
519.179	17293.3
519.386	17479.49
519.592	17467.67
519.798	17535.09
520.004	18314.15
520.21	18230.65
520.417	18428.27
520.623	18510.8
520.829	18489.69
521.035	18516.04
521.241	18467.21
521.447	18734.97
521.653	18980.06
521.859	18695.06
522.065	18916.12
522.271	19045.35
522.477	18929.49
522.683	19186.21
522.889	18764.42
523.095	18532.89
523.301	18612.91
523.507	18469.92
523.713	18613.3
523.919	18589.66
524.125	19170.71
524.331	19273.97
524.537	19590.17
524.742	19639.77
524.948	19555.3
525.154	19587.26
525.36	19532.24
525.566	19270.68
525.772	19532.24
525.977	19423.93
526.183	19185.43
526.389	19294.12
526.595	18574.35
526.8	18380.22
527.006	17801.88
527.212	17456.24
527.417	17415.55
527.623	17563.77
527.829	17810.6
528.034	18078.55
528.24	18214.76
528.446	18782.24
528.651	19091.27
528.857	19288.7
529.062	19397.2
529.268	19646.55
529.473	19752.92
529.679	19967.4
529.884	19876.33
530.09	19711.26
530.295	19290.64
530.501	19710.87
530.706	19792.44
530.912	19942.6
531.117	19898.03
531.323	19895.13
531.528	20190.79
531.733	20223.53
531.939	20072.41
532.144	19968.95
532.35	19831.39
532.555	19801.35
532.76	19233.67
532.966	19134.28
533.171	18969.6
533.376	18816.92
533.581	18929.49
533.787	19184.08
533.992	19493.3
534.197	19073.45
534.402	19622.72
534.607	19604.7
534.813	19642.68
535.018	19591.33
535.223	19977.08
535.428	19850.37
535.633	20111.74
535.838	20330.67
536.043	20567.62
536.249	20610.44
536.454	20375.43
536.659	20420.38
536.864	20329.51
537.069	20002.66
537.274	19926.71
537.479	19923.41
537.684	19891.83
537.889	19771.32
538.094	20337.84
538.299	20049.16
538.504	20396.35
538.708	20156.11
538.913	20457.38
539.118	20478.5
539.323	20303.93
539.528	20088.1
539.733	19896.68
539.938	19942.79
540.142	19728.12
540.347	19696.92
540.552	19603.34
540.757	19289.86
540.962	19534.56
541.166	19328.22
541.371	19335.2
541.576	19402.62
541.781	19599.08
541.985	20049.74
542.19	19637.44
542.395	20311.3
542.599	20345.2
542.804	19932.71
543.008	20162.5
543.213	20153.59
543.418	19859.28
543.622	20150.49
543.827	19872.07
544.031	20197.76
544.236	20311.1
544.44	20665.47
544.645	20521.71
544.849	20420.76
545.054	20528.29
545.258	20565.49
545.463	20653.07
545.667	20231.47
545.872	20639.12
546.076	20483.54
546.281	20394.22
546.485	20345.01
546.689	20448.86
546.894	20402.75
547.098	20549.41
547.302	20493.03
547.507	20479.86
547.711	20473.08
547.915	20429.29
548.119	20177.61
548.324	20218.49
548.528	20274.68
548.732	20259.95
548.936	20599.4
549.141	20466.29
549.345	20529.46
549.549	20588.36
549.753	20892.93
549.957	20656.36
550.161	20770.87
550.366	20772.8
550.57	20677.29
550.774	20614.32
550.978	20757.69
551.182	20500.59
551.386	20432.2
551.59	20613.35
551.794	20594.94
551.998	20771.25
552.202	20718.55
552.406	20677.67
552.61	20881.69
552.814	20760.02
553.018	20644.54
553.222	20406.81
553.426	20498.07
553.63	20733.47
553.833	20720.68
554.037	20422.7
554.241	20417.86
554.445	20741.22
554.649	20769.32
554.853	20586.42
555.056	20841
555.26	20962.68
555.464	20775.52
555.668	20844.1
555.871	20729.4
556.075	20929.54
556.279	20712.55
556.483	20617.42
556.686	20456.8
556.89	20442.85
557.094	20374.85
557.297	19973.4
557.501	20182.46
557.704	19930.2
557.908	20185.36
558.112	20107.28
558.315	20378.72
558.519	20003.05
558.722	19872.85
558.926	19857.54
559.129	19373.75
559.333	19688.98
559.536	19551.23
559.74	19283.27
559.943	19294.51
560.147	19506.08
560.35	19324.74
560.553	19781.4
560.757	19681.81
560.96	19854.44
561.164	19967.59
561.367	20059.43
561.57	20070.28
561.774	19857.35
561.977	19698.28
562.18	19757.37
562.384	19805.62
562.587	19676.58
562.79	19857.73
562.993	19644.23
563.197	19759.5
563.4	19913.34
563.603	19859.48
563.806	19916.63
564.009	19791.86
564.212	19867.81
564.416	19602.57
564.619	19508.6
564.822	19501.43
565.025	19721.72
565.228	19634.93
565.431	19829.25
565.634	19451.64
565.837	19370.65
566.04	19208.88
566.243	19101.73
566.446	18907.02
566.649	19225.73
566.852	18990.13
567.055	19241.42
567.258	19112
567.461	19388.09
567.664	19403.4
567.867	19469.47
568.07	19138.16
568.273	19367.17
568.475	19480.7
568.678	18916.51
568.881	18990.13
569.084	18641.97
569.287	18560.02
569.489	18651.08
569.692	18787.67
569.895	18813.24
570.098	18659.02
570.3	18621.82
570.503	18631.51
570.706	18496.27
570.909	18440.28
571.111	18041.94
571.314	18054.53
571.516	18170
571.719	18273.66
571.922	18222.7
572.124	18383.51
572.327	18469.34
572.529	18430.79
572.732	18585.59
572.935	18638.1
573.137	18928.72
573.34	18686.92
573.542	18778.95
573.745	18766.74
573.947	18774.49
574.15	18516.81
574.352	18624.34
574.554	18780.5
574.757	18598.18
574.959	18277.73
575.162	18536.57
575.364	18255.45
575.566	18451.13
575.769	18106.07
575.971	18315.12
576.173	17828.23
576.376	18106.07
576.578	18319.19
576.78	18250.99
576.982	18161.09
577.185	18275.21
577.387	18183.37
577.589	18425.36
577.791	18186.47
577.993	18205.46
578.196	18264.94
578.398	18121.18
578.6	17944.29
578.802	17908.25
579.004	17796.26
579.206	17986.72
579.408	18175.23
579.61	18038.45
579.812	18388.74
580.014	18156.25
580.216	18268.04
580.418	18546.26
580.62	18544.9
580.822	18481.55
581.024	18578.62
581.226	18609.81
581.428	18603.61
581.63	19024.23
581.832	18781.28
582.034	18967.47
582.236	18835.33
582.438	19122.46
582.64	19244.52
582.841	19260.99
583.043	19492.13
583.245	19149.01
583.447	19342.37
583.649	19426.07
583.85	19340.62
584.052	19391.39
584.254	19268.74
584.456	19300.71
584.657	19185.43
584.859	19496.59
585.061	19272.81
585.262	19308.85
585.464	19080.81
585.666	19188.14
585.867	18864.01
586.069	18901.2
586.27	18844.05
586.472	18896.94
586.674	18848.7
586.875	18882.8
587.077	18958.55
587.278	18959.91
587.48	18903.53
587.681	19087.4
587.883	18960.88
588.084	18645.26
588.285	18645.65
588.487	18235.3
588.688	18288.96
588.89	17558.54
589.091	17178.6
589.292	16778.51
589.494	16458.44
589.695	16158.33
589.896	16011.27
590.098	16164.91
590.299	16297.63
590.5	16538.46
590.702	16849.42
590.903	17063.71
591.104	17293.3
591.305	17574.81
591.507	17479.87
591.708	17589.15
591.909	17573.84
592.11	17444.03
592.311	17669.17
592.512	17367.31
592.714	17389.98
592.915	17747.83
593.116	17595.93
593.317	17862.91
593.518	17838.69
593.719	17908.06
593.92	17941.38
594.121	17835.59
594.322	17868.92
594.523	17727.29
594.724	17508.36
594.925	17568.03
595.126	17312.67
595.327	17331.85
595.528	17575.59
595.729	17555.05
595.929	17660.45
596.13	17774.18
596.331	17916.39
596.532	17898.56
596.733	18072.55
596.934	18108.39
597.135	18000.09
597.335	18116.14
597.536	18013.45
597.737	18010.16
597.938	17815.64
598.138	18012.87
598.339	18025.27
598.54	18088.63
598.74	17814.28
598.941	17930.72
599.142	18069.84
599.342	17999.7
599.543	17901.08
599.744	18151.98
599.944	18025.27
600.145	18250.41
600.345	18087.08
600.546	18172.91
600.746	17957.85
600.947	18312.02
601.147	17856.91
601.348	18176.78
601.548	17984.01
601.749	17982.26
601.949	17775.92
602.15	17949.52
602.35	17717.99
602.551	17797.04
602.751	17907.67
602.951	17950.49
603.152	17934.21
603.352	18081.27
603.552	17974.9
603.753	18293.81
603.953	18427.11
604.153	18387.77
604.354	18367.62
604.554	18334.49
604.754	18313.57
604.954	18322.29
605.155	18475.74
605.355	18340.31
605.555	18257.38
605.755	18280.83
605.955	18251.57
606.155	18269.01
606.356	18219.02
606.556	18256.8
606.756	18259.51
606.956	18269.78
607.156	18326.94
607.356	18262.61
607.556	18242.46
607.756	18267.26
607.956	18336.63
608.156	18206.81
608.356	18079.14
608.556	18231.81
608.756	18053.56
608.956	18069.25
609.156	18052.01
609.356	17994.08
609.556	17928.01
609.755	18009.58
609.955	17845.09
610.155	17854.19
610.355	18047.55
610.555	17748.41
610.755	17603.68
610.954	17719.15
611.154	17931.89
611.354	17916.19
611.554	17693
611.753	17982.07
611.953	17829.98
612.153	17844.51
612.352	17803.82
612.552	17637.97
612.752	17656.77
612.951	17907.48
613.151	17576.17
613.351	17752.86
613.55	17656.18
613.75	17566.87
613.949	17376.22
614.149	17386.3
614.348	17416.52
614.548	17479.68
614.747	17369.44
614.947	17521.92
615.146	17360.72
615.346	17668.39
615.545	17654.83
615.745	17487.43
615.944	17435.89
616.144	17381.65
616.343	17179.76
616.542	17196.23
616.742	16999.77
616.941	16989.89
617.14	16888.75
617.34	17094.9
617.539	17116.99
617.738	17150.89
617.938	17308.02
618.137	17271.79
618.336	17353.94
618.535	17437.06
618.734	17510.87
618.934	17294.27
619.133	17422.72
619.332	17609.3
619.531	17284.58
619.73	17550.98
619.929	17494.21
620.128	17541.49
620.328	17571.32
620.527	17475.23
620.726	17555.82
620.925	17538.19
621.124	17720.7
621.323	17406.64
621.522	17148.37
621.721	17543.62
621.92	17174.92
622.119	17268.11
622.318	17218.7
622.517	17189.45
622.715	17159.8
622.914	17053.24
623.113	17142.75
623.312	16722.71
623.511	17016.82
623.71	16926.53
623.909	16666.14
624.107	16983.11
624.306	16740.15
624.505	16721.94
624.704	16668.27
624.902	16503
625.101	16741.31
625.3	16420.27
625.499	16521.79
625.697	16587.48
625.896	16326.69
626.095	16255.78
626.293	16260.43
626.492	16397.6
626.69	16318.75
626.889	16587.67
627.088	16450.5
627.286	16548.73
627.485	16153.68
627.683	16045.37
627.882	15758.62
628.08	15487.38
628.279	15328.51
628.477	15352.53
628.676	15294.79
628.874	15495.13
629.073	15357.76
629.271	15466.07
629.469	15464.13
629.668	15432.74
629.866	15272.9
630.065	15443.2
630.263	15407.36
630.461	15416.27
630.66	15587.35
630.858	15487.38
631.056	15703.79
631.254	15804.93
631.453	15513.15
631.651	15709.61
631.849	15571.85
632.047	15498.03
632.245	15526.9
632.444	15632.5
632.642	15852.79
632.84	16095.36
633.038	15823.34
633.236	15768.31
633.434	15905.29
633.632	16006.23
633.83	15798.15
634.028	16103.3
634.227	15911.1
634.425	16197.27
634.623	15929.32
634.821	16182.54
635.019	16111.63
635.216	16242.41
635.414	16211.61
635.612	16076.95
635.81	16168.01
636.008	16271.67
636.206	16156
636.404	16065.13
636.602	16156.39
636.8	16080.44
636.997	16195.14
637.195	16280.58
637.393	16210.64
637.591	16480.53
637.789	16428.41
637.986	16439.45
638.184	16452.24
638.382	16449.91
638.58	16422.21
638.777	16607.24
638.975	16498.74
639.173	16454.37
639.37	16418.14
639.568	16414.27
639.765	16441.78
639.963	16342
640.161	16132.17
640.358	16437.9
640.556	16131.78
640.753	16198.24
640.951	16057.58
641.148	16143.79
641.346	16169.56
641.543	15990.54
641.741	16153.48
641.938	15957.6
642.136	16107.18
642.333	15898.32
642.531	16202.69
642.728	16238.54
642.925	16250.16
643.123	16215.87
643.32	16231.37
643.517	16063.58
643.715	16047.31
643.912	16220.13
644.109	16107.95
644.306	16164.14
644.504	16093.42
644.701	16158.13
644.898	16143.21
645.095	16013.4
645.293	16049.44
645.49	15995
645.687	15882.24
645.884	15925.63
646.081	15674.54
646.278	15736.92
646.475	15557.13
646.672	15489.12
646.87	15364.74
647.067	15337.81
647.264	15327.34
647.461	15221.17
647.658	14997.78
647.855	15060.17
648.052	14934.81
648.249	14839.1
648.446	14918.73
648.642	15128.75
648.839	14752.3
649.036	14831.93
649.233	14856.54
649.43	14782.33
649.627	14443.27
649.824	14651.36
650.021	14619.97
650.217	14850.92
650.414	15003.79
650.611	15021.22
650.808	15245.97
651.004	15224.85
651.201	15160.53
651.398	15368.42
651.595	15103.57
651.791	14888.51
651.988	15032.65
652.185	14725.37
652.381	15107.25
652.578	14893.54
652.775	15036.72
652.971	15233.38
653.168	15017.35
653.364	15391.67
653.561	14990.8
653.757	15214.78
653.954	15398.64
654.15	15044.67
654.347	15230.47
654.543	15209.54
654.74	14947.02
654.936	14931.52
655.133	14809.07
655.329	14817.21
655.525	14578.9
655.722	14495.01
655.918	14101.7
656.115	13659.95
656.311	13437.34
656.507	12940.38
656.704	12806.89
656.9	12948.13
657.096	13262.19
657.292	13206.39
657.489	13486.16
657.685	13673.13
657.881	13739.78
658.077	14008.89
658.273	14256.31
658.47	14443.47
658.666	14426.22
658.862	14730.6
659.058	14732.15
659.254	14792.41
659.45	14945.85
659.646	14785.63
659.842	14856.15
660.038	15078.77
660.234	14866.03
660.43	14951.67
660.626	15106.28
660.822	15057.65
661.018	15250.43
661.214	15176.41
661.41	15017.15
661.606	15137.08
661.802	15310.87
661.998	15221.75
662.194	15213.61
662.39	15246.74
662.586	15240.54
662.781	15207.61
662.977	15432.74
663.173	15115
663.369	15105.31
663.564	15133.6
663.76	15182.23
663.956	15128.95
664.152	14953.6
664.347	14946.44
664.543	15045.05
664.739	15045.05
664.934	14832.9
665.13	15086.13
665.326	15057.26
665.521	15145.22
665.717	15008.63
665.912	15122.55
666.108	14791.05
666.304	15137.08
666.499	14859.83
666.695	14681.58
666.89	14986.93
667.086	14977.24
667.281	14909.24
667.477	14992.16
667.672	14934.04
667.867	14767.8
668.063	14897.81
668.258	14810.43
668.454	14806.74
668.649	14871.07
668.844	15001.27
669.04	14974.72
669.235	14840.65
669.43	14897.22
669.626	14709.1
669.821	14787.95
670.016	14803.06
670.211	14880.37
670.407	14559.72
670.602	14822.63
670.797	14556.62
670.992	14916.02
671.187	14566.5
671.382	14791.05
671.578	14499.07
671.773	14623.46
671.968	14375.08
672.163	14600.4
672.358	14554.87
672.553	14368.68
672.748	14585.1
672.943	14555.84
673.138	14529.3
673.333	14640.51
673.528	14333.23
673.723	14485.12
673.918	14418.47
674.113	14391.16
674.308	14528.72
674.503	14383.79
674.698	14494.62
674.892	14244.49
675.087	14347.18
675.282	14358.8
675.477	14366.74
675.672	14397.36
675.867	14217.95
676.061	14350.47
676.256	14242.17
676.451	14408.01
676.646	14267.55
676.84	14234.03
677.035	14116.62
677.23	14256.5
677.424	14245.26
677.619	14183.46
677.814	14364.23
678.008	14156.72
678.203	14175.71
678.397	14063.92
678.592	14066.63
678.787	14210.78
678.981	14096.66
679.176	14078.25
679.37	14094.14
679.565	14047.64
679.759	14049.19
679.954	14046.48
680.148	13953.87
680.342	14121.46
680.537	14000.37
680.731	13841.5
680.926	14042.41
681.12	13921.13
681.314	13920.35
681.509	13885.28
681.703	13858.35
681.897	13727.18
682.092	13777.37
682.286	13929.07
682.48	13821.54
682.674	13792.87
682.869	13702.77
683.063	13927.91
683.257	13767.1
683.451	13648.33
683.645	13774.65
683.839	13560.95
684.034	13531.69
684.228	13403.43
684.422	13325.16
684.616	13419.13
684.81	13434.43
685.004	13318.57
685.198	13417.77
685.392	13330.78
685.586	13431.91
685.78	13241.65
685.974	13316.25
686.168	13233.9
686.362	13070.38
686.556	12259.74
686.75	11771.89
686.944	10968.42
687.138	10141.89
687.331	9558.52
687.525	9187.69
687.719	8971.08
687.913	9047.03
688.107	9227.79
688.301	9243.29
688.494	9460.29
688.688	9343.85
688.882	9221.79
689.076	9290.95
689.269	9319.24
689.463	9478.7
689.657	9461.65
689.85	9522.87
690.044	9697.63
690.238	9828.99
690.431	9895.06
690.625	9881.11
690.818	10161.85
691.012	10171.34
691.205	10538.11
691.399	10482.31
691.593	10572.79
691.786	10615.99
691.98	10926.76
692.173	10942.07
692.366	10990.7
692.56	11143.37
692.753	10964.35
692.947	10984.11
693.14	10957.37
693.333	10942.46
693.527	10895.76
693.72	10992.44
693.914	10816.33
694.107	10716.35
694.3	10853.33
694.493	10539.07
694.687	10901.19
694.88	10621.8
695.073	10907.97
695.266	10804.12
695.46	10905.84
695.653	10920.37
695.846	10850.62
696.039	10937.03
696.232	10984.31
696.425	11246.25
696.618	11286.55
696.812	11500.45
697.005	11525.05
697.198	11730.62
697.391	11551.21
697.584	11805.6
697.777	11782.54
697.97	11657.58
698.163	11680.83
698.356	11599.26
698.549	11672.5
698.742	11623.09
698.935	11374.51
699.127	11345.64
699.32	11203.24
699.513	11155
699.706	11056.38
699.899	11206.73
700.092	11058.32
700.285	10967.06
700.477	10778.16
700.67	10942.46
700.863	10846.36
701.056	10961.06
701.248	10882.98
701.441	10889.76
701.634	10778.93
701.826	10910.68
702.019	10664.62
702.212	10777.96
702.404	10724.68
702.597	10646.02
702.79	10746.97
702.982	10722.36
703.175	10879.68
703.367	10899.64
703.56	10912.43
703.752	11033.71
703.945	10979.85
704.137	10960.28
704.33	10949.24
704.522	11099.97
704.715	11069.17
704.907	11057.15
705.1	11182.12
705.292	11097.84
705.484	10940.32
705.677	11038.17
705.869	11053.28
706.061	11022.86
706.254	11140.08
706.446	10901.58
706.638	11034.29
706.831	11062.58
707.023	11020.73
707.215	11238.11
707.407	11187.74
707.599	11026.54
707.792	11220.48
707.984	11173.21
708.176	11111.02
708.368	11062
708.56	11124.58
708.752	11049.79
708.944	11006.78
709.136	11068.59
709.329	10999.42
709.521	11181.54
709.713	11082.54
709.905	11034.49
710.097	11149.77
710.289	11034.68
710.481	11014.14
710.672	10945.36
710.864	11026.35
711.056	11027.7
711.248	10927.92
711.44	10980.43
711.632	10976.56
711.824	11043.98
712.016	10970.16
712.207	11020.92
712.399	10916.88
712.591	10939.36
712.783	10954.66
712.975	10868.83
713.166	10803.93
713.358	10828.34
713.55	10794.05
713.741	10806.06
713.933	10833.18
714.125	10728.37
714.316	10553.41
714.508	10670.24
714.7	10580.73
714.891	10538.88
715.083	10514.08
715.274	10405.78
715.466	10475.14
715.657	10362.57
715.849	10201.95
716.04	10126.2
716.232	9948.34
716.423	9792.18
716.615	9499.43
716.806	9210.16
716.998	8886.8
717.189	8549.29
717.381	8368.14
717.572	8066.08
717.763	7900.24
717.955	7784.96
718.146	7573.39
718.337	7336.63
718.528	7206.23
718.72	6882.1
718.911	6866.79
719.102	6893.33
719.293	6779.6
719.485	6736.78
719.676	6621.7
719.867	6577.72
720.058	6512.62
720.249	6493.83
720.44	6493.63
720.632	6728.65
720.823	6798.01
721.014	7148.5
721.205	7370.73
721.396	7632.09
721.587	7814.99
721.778	7996.72
721.969	8085.07
722.16	8252.86
722.351	8412.31
722.542	8518.87
722.733	8452.61
722.924	8324.54
723.115	8291.41
723.305	8137.19
723.496	8060.08
723.687	7709.4
723.878	7744.46
724.069	7601.87
724.26	7597.41
724.45	7399.98
724.641	7312.41
724.832	7337.01
725.023	7236.46
725.213	7192.67
725.404	7135.71
725.595	7092.89
725.785	7049.69
725.976	7159.93
726.167	7116.34
726.357	7121.76
726.548	7253.7
726.739	7123.12
726.929	7267.26
727.12	7240.92
727.31	7189.96
727.501	7049.3
727.691	6988.66
727.882	7031.86
728.072	7115.37
728.263	7186.67
728.453	7232.58
728.644	7227.93
728.834	7143.07
729.024	7070.61
729.215	6949.71
729.405	7069.45
729.596	7151.79
729.786	7149.47
729.976	7190.35
730.167	7207.59
730.357	7133.97
730.547	7136.87
730.737	7160.12
730.928	7239.37
731.118	7253.31
731.308	7157.02
731.498	7193.64
731.688	7313.38
731.879	7357.36
732.069	7491.04
732.259	7628.02
732.449	7727.41
732.639	7796
732.829	7817.89
733.019	7920.19
733.209	8025.01
733.399	8073.83
733.589	8261.77
733.779	8347.6
733.969	8348.37
734.159	8501.24
734.349	8452.03
734.539	8555.1
734.729	8577.96
734.919	8520.42
735.109	8685.69
735.299	8537.47
735.488	8522.17
735.678	8569.05
735.868	8408.63
736.058	8356.71
736.248	8419.29
736.437	8411.73
736.627	8379.57
736.817	8499.3
737.007	8362.13
737.196	8483.22
737.386	8447.77
737.576	8450.67
737.765	8535.92
737.955	8432.85
738.144	8631.63
738.334	8539.99
738.524	8458.81
738.713	8504.15
738.903	8405.92
739.092	8493.68
739.282	8450.09
739.471	8503.76
739.661	8403.79
739.85	8572.15
740.04	8529.33
740.229	8573.31
740.419	8632.41
740.608	8531.85
740.797	8541.15
740.987	8605.67
741.176	8529.92
741.365	8549.48
741.555	8479.15
741.744	8680.84
741.933	8496.59
742.123	8550.65
742.312	8562.85
742.501	8596.37
742.69	8646.16
742.88	8476.05
743.069	8714.36
743.258	8673.29
743.447	8691.69
743.636	8661.47
743.825	8610.13
744.014	8616.33
744.204	8678.33
744.393	8535.92
744.582	8732.77
744.771	8662.24
744.96	8615.94
745.149	8628.73
745.338	8640.35
745.527	8674.26
745.716	8558.4
745.905	8519.65
746.094	8611.48
746.283	8596.76
746.471	8529.72
746.66	8582.03
746.849	8603.73
747.038	8621.75
747.227	8467.72
747.416	8557.43
747.604	8551.03
747.793	8475.86
747.982	8490.39
748.171	8568.86
748.359	8434.01
748.548	8436.72
748.737	8442.92
748.926	8449.12
749.114	8296.84
749.303	8435.95
749.491	8356.9
749.68	8221.66
749.869	8419.67
750.057	8334.04
750.246	8336.56
750.434	8272.23
750.623	8226.89
750.811	8185.05
751	8224.18
751.188	8168.19
751.377	8164.12
751.565	8132.54
751.754	8191.44
751.942	8107.55
752.131	8200.93
752.319	8094.76
752.507	8096.31
752.696	8132.54
752.884	8144.75
753.072	8058.33
753.261	8098.25
753.449	8104.45
753.637	7958.75
753.825	8108.71
754.014	8110.65
754.202	8062.98
754.39	8051.17
754.578	8083.72
754.766	7962.04
754.955	7891.71
755.143	7980.84
755.331	7970.57
755.519	7966.5
755.707	7934.14
755.895	7851.41
756.083	7925.42
756.271	7786.89
756.459	7862.07
756.647	7744.46
756.835	7736.13
757.023	7813.44
757.211	7646.82
757.399	7668.32
757.587	7670.84
757.775	7565.83
757.963	7634.8
758.151	7585.98
758.339	7561.57
758.526	7488.14
758.714	7507.12
758.902	7245.18
759.09	6994.86
759.278	6553.5
759.465	6006.94
759.653	5210.64
759.841	4670.28
760.028	4053.77
760.216	3560.3
760.404	3171.64
760.591	2678.56
760.779	2253.67
760.967	1942.12
761.154	1673.78
761.342	1671.65
761.529	1642.59
761.717	1722.41
761.905	1775.89
762.092	1835.75
762.28	1747.21
762.467	1691.41
762.655	1598.22
762.842	1613.72
763.029	1667.97
763.217	1678.24
763.404	1684.05
763.592	1686.57
763.779	1669.13
763.966	1710.4
764.154	1812.12
764.341	1885.94
764.528	1955.1
764.716	2110.29
764.903	2233.52
765.09	2343.95
765.277	2472.99
765.465	2785.7
765.652	2901.95
765.839	3077.67
766.026	3375.46
766.213	3525.62
766.4	3761.8
766.588	4045.44
766.775	4226.4
766.962	4415.69
767.149	4641.6
767.336	4912.46
767.523	4943.85
767.71	5169.18
767.897	5434.03
768.084	5529.16
768.271	5725.62
768.458	5845.94
768.645	5995.9
768.832	5963.73
769.019	6076.69
769.206	6061.38
769.392	6260.36
769.579	6369.25
769.766	6325.07
769.953	6406.64
770.14	6469.22
770.327	6463.6
770.513	6515.53
770.7	6684.67
770.887	6519.01
771.073	6582.17
771.26	6637.97
771.447	6621.7
771.634	6519.21
771.82	6715.47
772.007	6582.37
772.193	6633.32
772.38	6687.77
772.567	6610.27
772.753	6563.19
772.94	6683.31
773.126	6632.55
773.313	6688.93
773.499	6595.35
773.686	6699
773.872	6546.53
774.059	6652.7
774.245	6575.01
774.432	6591.86
774.618	6459.15
774.804	6507.58
774.991	6498.67
775.177	6493.24
775.363	6474.06
775.55	6578.49
775.736	6439.58
775.922	6576.94
776.109	6474.06
776.295	6412.84
776.481	6504.68
776.667	6455.66
776.853	6433.96
777.04	6352.39
777.226	6476.39
777.412	6498.86
777.598	6405.67
777.784	6396.56
777.97	6305.5
778.156	6354.91
778.342	6344.45
778.528	6303.37
778.715	6263.27
778.901	6249.12
779.087	6221.42
779.272	6225.49
779.458	6226.84
779.644	6254.55
779.83	6251.25
780.016	6297.75
780.202	6273.73
780.388	6223.16
780.574	6081.53
780.76	6198.17
780.946	6222.58
781.131	6176.66
781.317	6126.48
781.503	6129.19
781.689	6128.42
781.874	6240.21
782.06	6079.4
782.246	6138.69
782.432	6065.64
782.617	6067.19
782.803	6135.01
782.989	6010.04
783.174	5967.22
783.36	5931.18
783.545	5989.31
783.731	5950.95
783.916	5783.16
784.102	5926.34
784.288	5914.13
784.473	5909.87
784.659	5786.07
784.844	5869.77
785.029	5876.55
785.215	5834.31
785.4	5793.82
785.586	5901.93
785.771	5725.81
785.956	5840.9
786.142	5709.54
786.327	5745.19
786.512	5712.25
786.698	5708.76
786.883	5575.46
787.068	5676.6
787.254	5641.14
787.439	5564.81
787.624	5577.4
787.809	5550.08
787.994	5491.18
788.18	5599.49
788.365	5423.76
788.55	5429.18
788.735	5494.67
788.92	5485.95
789.105	5421.43
789.29	5401.48
789.475	5364.09
789.66	5375.13
789.845	5275.35
790.03	5291.04
790.215	5258.11
790.4	5285.04
790.585	5335.41
790.77	5276.12
790.955	5238.93
791.14	5280
791.325	5282.52
791.51	5210.83
791.695	5227.69
791.879	5309.84
792.064	5155.23
792.249	5296.27
792.434	5224.59
792.618	5278.06
792.803	5310.42
792.988	5227.11
793.173	5238.15
793.357	5257.33
793.542	5242.61
793.727	5323.98
793.911	5303.06
794.096	5303.44
794.281	5290.85
794.465	5404.77
794.65	5339.87
794.834	5385.98
795.019	5410.2
795.203	5423.37
795.388	5359.24
795.572	5422.02
795.757	5361.37
795.941	5320.11
796.126	5220.91
796.31	5217.61
796.494	5227.3
796.679	5288.52
796.863	5172.47
797.048	5351.1
797.232	5261.4
797.416	5316.04
797.601	5306.35
797.785	5382.88
797.969	5396.25
798.153	5330.37
798.338	5412.33
798.522	5418.14
798.706	5459.8
798.89	5461.93
799.074	5527.61
799.258	5522.76
799.443	5437.71
799.627	5392.95
799.811	5434.61
799.995	5330.37
800.179	5340.06
800.363	5342
800.547	5391.4
800.731	5420.08
800.915	5249.97
801.099	5286.78
801.283	5291.62
801.467	5318.94
801.651	5294.92
801.835	5392.95
802.019	5290.07
802.202	5347.42
802.386	5247.06
802.57	5225.56
802.754	5240.48
802.938	5221.88
803.121	5254.23
803.305	5280.19
803.489	5227.11
803.673	5291.82
803.856	5296.47
804.04	5253.26
804.224	5316.23
804.407	5226.14
804.591	5201.92
804.775	5234.08
804.958	5225.17
805.142	5379.59
805.326	5288.33
805.509	5347.04
805.693	5390.44
805.876	5348
806.06	5331.73
806.243	5368.54
806.427	5380.94
806.61	5401.87
806.794	5378.42
806.977	5421.82
807.16	5340.06
807.344	5394.89
807.527	5313.91
807.71	5373.39
807.894	5297.05
808.077	5339.48
808.26	5273.41
808.444	5243.77
808.627	5318.17
808.81	5244.74
808.993	5113.57
809.177	5121.32
809.36	5193.59
809.543	5132.17
809.726	4995.97
809.909	5051.77
810.092	5009.33
810.276	4977.95
810.459	4971.17
810.642	4991.32
810.825	4843.87
811.008	4905.1
811.191	4748.55
811.374	4767.54
811.557	4729.56
811.74	4778.97
811.923	4673.76
812.106	4600.72
812.289	4622.03
812.472	4596.65
812.654	4576.7
812.837	4525.94
813.02	4381.79
813.203	4303.13
813.386	4177.19
813.569	4129.92
813.751	3973.95
813.934	4027.62
814.117	3981.51
814.3	3933.65
814.482	3763.73
814.665	3722.47
814.848	3606.02
815.03	3602.73
815.213	3514.38
815.396	3496.75
815.578	3454.9
815.761	3410.53
815.943	3416.15
816.126	3313.66
816.309	3269.68
816.491	3192.18
816.674	3091.82
816.856	3180.94
817.039	3186.95
817.221	3214.27
817.403	3184.82
817.586	3211.55
817.768	3235.77
817.951	3128.24
818.133	3073.99
818.315	3103.83
818.498	3221.24
818.68	3228.41
818.862	3233.45
819.045	3273.75
819.227	3262.32
819.409	3216.59
819.591	3276.85
819.774	3227.83
819.956	3227.05
820.138	3336.52
820.32	3357.06
820.502	3489
820.684	3618.62
820.866	3618.42
821.048	3694.18
821.231	3702.9
821.413	3723.05
821.595	3693.79
821.777	3746.1
821.959	3690.5
822.141	3734.67
822.323	3538.41
822.505	3372.36
822.686	3237.71
822.868	3067.21
823.05	2913.76
823.232	2837.82
823.414	2745.2
823.596	2860.87
823.778	2876.37
823.96	2911.63
824.141	2945.35
824.323	3026.53
824.505	3153.43
824.687	3224.34
824.868	3378.37
825.05	3489.19
825.232	3553.52
825.413	3633.54
825.595	3566.5
825.777	3542.67
825.958	3613.39
826.14	3562.43
826.321	3632.76
826.503	3609.9
826.685	3675.97
826.866	3648.65
827.048	3619.78
827.229	3528.14
827.411	3438.63
827.592	3400.07
827.773	3348.53
827.955	3300.1
828.136	3274.72
828.318	3247.01
828.499	3257.28
828.68	3223.18
828.862	3216.2
829.043	3213.3
829.224	3138.9
829.406	3185.4
829.587	3201.29
829.768	3208.07
829.949	3210.39
830.131	3255.53
830.312	3290.8
830.493	3259.99
830.674	3285.95
830.855	3222.79
831.036	3232.29
831.218	3319.47
831.399	3336.71
831.58	3264.64
831.761	3253.98
831.942	3226.47
832.123	3242.36
832.304	3207.68
832.485	3199.35
832.666	3246.82
832.847	3281.88
833.028	3237.32
833.209	3212.91
833.389	3218.34
833.57	3170.87
833.751	3132.31
833.932	3261.73
834.113	3225.89
834.294	3213.3
834.475	3297.58
834.655	3319.47
834.836	3311.72
835.017	3349.31
835.198	3332.65
835.378	3333.23
835.559	3382.63
835.74	3319.28
835.92	3347.37
836.101	3343.5
836.281	3408.21
836.462	3358.8
836.643	3388.45
836.823	3372.17
837.004	3433.2
837.184	3439.21
837.365	3435.53
837.545	3433.78
837.726	3349.11
837.906	3484.35
838.087	3383.6
838.267	3444.05
838.448	3374.88
838.628	3393.48
838.808	3424.29
838.989	3429.91
839.169	3356.48
839.349	3426.03
839.53	3451.8
839.71	3431.46
839.89	3393.48
840.07	3444.05
840.251	3415.57
840.431	3481.06
840.611	3406.46
840.791	3365.78
840.971	3461.1
841.151	3388.64
841.332	3371.01
841.512	3415.57
841.692	3317.15
841.872	3437.08
842.052	3352.41
842.232	3376.24
842.412	3338.85
842.592	3318.7
842.772	3385.54
842.952	3415.76
843.132	3308.23
843.312	3314.43
843.492	3314.82
843.672	3380.7
843.851	3241.78
844.031	3308.04
844.211	3316.57
844.391	3325.09
844.571	3257.28
844.751	3279.17
844.93	3255.53
845.11	3263.48
845.29	3316.37
845.47	3311.72
845.649	3334.97
845.829	3351.63
846.009	3264.25
846.188	3337.3
846.368	3303.97
846.547	3276.27
846.727	3333.23
846.907	3244.68
847.086	3273.17
847.266	3325.67
847.445	3281.88
847.625	3225.5
847.804	3202.06
847.984	3256.7
848.163	3181.52
848.343	3189.85
848.522	3162.34
848.701	3207.49
848.881	3171.84
849.06	3206.9
849.239	3175.52
849.419	3177.84
849.598	3043.58
849.777	3020.91
849.957	3012.96
850.136	2927.13
850.315	2956.2
850.494	2953.87
850.674	2907.18
850.853	3062.76
851.032	2951.93
851.211	3038.93
851.39	2967.82
851.569	2900.4
851.748	2929.46
851.927	3005.41
852.107	2916.48
852.286	2962.98
852.465	2947.86
852.644	3028.27
852.823	2974.6
853.002	2971.69
853.181	2977.31
853.359	2970.34
853.538	2859.13
853.717	2891.48
853.896	2762.25
854.075	2667.32
854.254	2576.45
854.433	2458.07
854.611	2549.13
854.79	2447.8
854.969	2607.06
855.148	2591.18
855.327	2586.53
855.505	2653.17
855.684	2653.37
855.863	2678.75
856.041	2713.04
856.22	2782.79
856.399	2721.95
856.577	2854.09
856.756	2819.41
856.934	2944.38
857.113	2925.78
857.291	2834.52
857.47	2820.38
857.648	2888.96
857.827	2849.25
858.005	2894.2
858.184	2822.12
858.362	2965.11
858.541	2824.83
858.719	2835.3
858.898	2821.54
859.076	2793.25
859.254	2853.12
859.433	2801.2
859.611	2773.1
859.789	2718.27
859.967	2822.7
860.146	2863.58
860.324	2709.55
860.502	2787.64
860.68	2705.68
860.859	2734.55
861.037	2739.59
861.215	2731.84
861.393	2750.05
861.571	2720.6
861.749	2718.66
861.927	2711.49
862.105	2683.21
862.283	2710.14
862.461	2698.51
862.639	2664.41
862.817	2705.68
862.995	2664.61
863.173	2655.89
863.351	2683.98
863.529	2665.96
863.707	2699.29
863.885	2692.51
864.063	2580.91
864.241	2621.21
864.418	2651.82
864.596	2613.07
864.774	2567.34
864.952	2582.26
865.129	2587.49
865.307	2514.84
865.485	2466.4
865.663	2559.01
865.84	2483.65
866.018	2438.7
866.196	2273.43
866.373	2267.04
866.551	2215.11
866.728	2196.9
866.906	2235.26
867.084	2292.03
867.261	2331.94
867.439	2348.41
867.616	2379.99
867.794	2372.24
867.971	2413.51
868.149	2400.33
868.326	2484.23
868.503	2443.54
868.681	2410.99
868.858	2452.26
869.035	2378.44
869.213	2452.65
869.39	2421.84
869.567	2477.83
869.745	2394.52
869.922	2454.2
870.099	2457.1
870.276	2475.31
870.454	2432.3
870.631	2401.88
870.808	2367.59
870.985	2445.67
871.162	2457.3
871.339	2424.94
871.517	2342.79
871.694	2321.48
871.871	2357.52
872.048	2329.81
872.225	2369.92
872.402	2377.86
872.579	2322.06
872.756	2355
872.933	2351.32
873.11	2344.15
873.287	2344.54
873.463	2333.69
873.64	2294.74
873.817	2294.94
873.994	2311.6
874.171	2252.31
874.348	2263.94
874.524	2212.4
874.701	2280.4
874.878	2179.46
875.055	2256.77
875.231	2212.21
875.408	2248.82
875.585	2172.1
875.762	2197.09
875.938	2202.32
876.115	2205.23
876.291	2159.31
876.468	2154.47
876.645	2136.84
876.821	2157.38
876.998	2152.14
877.174	2154.08
877.351	2150.01
877.527	2152.34
877.704	2167.26
877.88	2125.02
878.057	2118.63
878.233	2204.84
878.409	2111.84
878.586	2162.03
878.762	2118.43
878.938	2101.58
879.115	2047.91
879.291	2111.46
879.467	2083.36
879.644	2076.2
879.82	2081.23
879.996	2050.43
880.172	2040.74
880.349	2057.01
880.525	2049.65
880.701	1984.36
880.877	1971.18
881.053	2036.09
881.229	2015.75
881.405	2065.93
881.581	2026.21
881.757	2027.56
881.933	2063.8
882.109	2042.1
882.285	2014.97
882.461	1978.55
882.637	2021.17
882.813	1967.89
882.989	2018.26
883.165	2059.53
883.341	2012.26
883.517	1995.98
883.693	2037.06
883.869	2035.51
884.044	1990.37
884.22	2080.26
884.396	2075.42
884.572	2045.39
884.747	2032.99
884.923	2056.05
885.099	2050.62
885.275	2086.85
885.45	2009.74
885.626	2001.99
885.801	1968.28
885.977	2000.63
886.153	1915.19
886.328	2000.63
886.504	1947.93
886.679	2016.33
886.855	1979.52
887.03	1977
887.206	2007.03
887.381	1986.88
887.557	1999.86
887.732	2022.72
887.908	1986.1
888.083	2008.58
888.258	1990.17
888.434	1994.43
888.609	2004.9
888.784	2022.72
888.96	1989.98
889.135	1975.83
889.31	1969.83
889.485	2016.71
889.661	1959.17
889.836	2005.48
890.011	2022.33
890.186	1997.73
890.361	2005.67
890.537	1991.72
890.712	2007.03
890.887	1996.76
891.062	2007.61
891.237	2040.16
891.412	1949.1
891.587	2008.19
891.762	2056.82
891.937	2039.19
892.112	1912.29
892.287	1960.92
892.462	1918.68
892.637	1887.87
892.812	1864.82
892.987	1861.14
893.161	1826.07
893.336	1794.1
893.511	1798.75
893.686	1809.6
893.861	1780.34
894.035	1803.59
894.21	1771.82
894.385	1709.63
894.56	1719.7
894.734	1673.2
894.909	1619.34
895.084	1614.5
895.258	1592.99
895.433	1623.8
895.608	1591.05
895.782	1493.21
895.957	1532.73
896.131	1504.83
896.306	1418.62
896.48	1395.76
896.655	1348.87
896.829	1299.85
897.004	1296.36
897.178	1325.42
897.353	1309.73
897.527	1349.06
897.701	1288.23
897.876	1285.13
898.05	1389.36
898.224	1323.49
898.399	1377.74
898.573	1240.18
898.747	1106.68
898.921	1145.63
899.096	1032.67
899.27	1042.94
899.444	1086.73
899.618	1109.59
899.792	1192.71
899.967	1181.28
900.141	1221.19
900.315	1135.55
900.489	1108.43
900.663	1128.58
900.837	1122.77
901.011	1091.38
901.185	1152.99
901.359	1124.9
901.533	1119.47
901.707	1144.85
901.881	1165.58
902.055	1093.9
902.229	1142.33
902.403	1171.4
902.576	1142.53
902.75	1171.01
902.924	1275.83
903.098	1237.46
903.272	1346.54
903.446	1414.55
903.619	1389.75
903.793	1444.97
903.967	1443.8
904.14	1468.8
904.314	1455.82
904.488	1453.1
904.661	1435.28
904.835	1472.87
905.009	1500.38
905.182	1503.67
905.356	1494.37
905.529	1435.28
905.703	1450.39
905.876	1369.02
906.05	1369.21
906.223	1342.28
906.397	1266.91
906.57	1184.57
906.744	1165
906.917	1133.03
907.09	1131.1
907.264	1096.61
907.437	1051.66
907.61	1024.15
907.784	1057.67
907.957	1069.1
908.13	1021.82
908.304	1049.33
908.477	1015.04
908.65	1008.65
908.823	959.44
908.996	1034.8
909.17	983.65
909.343	993.92
909.516	990.24
909.689	953.04
909.862	959.63
910.035	962.15
910.208	965.83
910.381	929.79
910.554	1068.52
910.727	982.88
910.9	971.84
911.073	983.65
911.246	1043.14
911.419	1078.78
911.592	1023.18
911.765	1001.67
911.938	978.04
912.11	1003.42
912.283	979.39
912.456	1041.97
912.629	990.82
912.802	917.2
912.974	848.81
913.147	770.34
913.32	779.25
913.493	780.8
913.665	834.47
913.838	851.91
914.01	852.49
914.183	907.12
914.356	883.29
914.528	929.6
914.701	954.98
914.873	890.85
915.046	818.97
915.218	805.21
915.391	691.68
915.563	743.6
915.736	776.54
915.908	833.5
916.081	868.18
916.253	860.63
916.425	853.84
916.598	886.01
916.77	878.64
916.942	842.41
917.115	747.86
917.287	804.63
917.459	740.31
917.632	713.18
917.804	699.43
917.976	763.95
918.148	807.54
918.32	846.29
918.493	912.36
918.665	921.27
918.837	918.94
919.009	924.76
919.181	965.25
919.353	926.31
919.525	916.04
919.697	897.44
919.869	936.77
920.041	1025.31
920.213	1078.2
920.385	1034.61
920.557	983.65
920.729	944.91
920.901	986.37
921.073	908.67
921.244	901.51
921.416	961.57
921.588	904.99
921.76	903.25
921.932	964.67
922.103	936.96
922.275	933.86
922.447	955.37
922.619	856.94
922.79	899.37
922.962	889.88
923.134	952.85
923.305	852.68
923.477	816.06
923.648	807.15
923.82	807.15
923.991	753.1
924.163	752.32
924.335	815.48
924.506	792.81
924.677	810.44
924.849	789.52
925.02	816.06
925.192	814.51
925.363	822.07
925.535	799.98
925.706	759.1
925.877	810.06
926.049	790.88
926.22	810.25
926.391	805.79
926.562	811.41
926.734	773.05
926.905	822.46
927.076	741.08
927.247	727.13
927.419	661.45
927.59	649.63
927.761	647.31
927.932	623.28
928.103	616.31
928.274	552.37
928.445	558.77
928.616	564.58
928.787	511.49
928.958	558.19
929.129	528.15
929.3	514.4
929.471	441.74
929.642	412.29
929.813	334.21
929.984	452.59
930.155	351.84
930.326	407.26
930.496	342.16
930.667	292.56
930.838	323.75
931.009	279.19
931.18	279.96
931.35	271.25
931.521	294.88
931.692	219.13
931.863	185.22
932.033	210.8
932.204	209.44
932.374	223
932.545	143.18
932.716	207.12
932.886	195.68
933.057	124.58
933.227	111.79
933.398	185.61
933.568	128.26
933.739	76.34
933.909	93.39
934.08	134.27
934.25	63.55
934.421	81.37
934.591	117.22
934.761	100.17
934.932	81.57
935.102	105.98
935.272	101.33
935.443	93
935.613	76.34
935.783	95.32
935.953	63.16
936.123	207.5
936.294	74.21
936.464	86.02
936.634	95.52
936.804	67.42
936.974	67.42
937.144	92.22
937.314	82.34
937.484	62.97
937.655	77.11
937.825	132.33
937.995	67.04
938.165	149.96
938.334	97.26
938.504	132.72
938.674	147.05
938.844	191.81
939.014	220.48
939.184	208.28
939.354	276.86
939.524	212.93
939.694	221.65
939.863	196.65
940.033	242.77
940.203	228.23
940.373	208.86
940.542	231.53
940.712	201.11
940.882	250.52
941.051	244.7
941.221	240.05
941.391	230.95
941.56	193.36
941.73	173.02
941.899	270.08
942.069	169.53
942.238	198.2
942.408	166.82
942.577	203.05
942.747	168.75
942.916	136.4
943.086	128.84
943.255	195.88
943.425	189.29
943.594	126.71
943.763	68.97
943.933	101.14
944.102	50.57
944.271	153.84
944.441	184.06
944.61	136.59
944.779	168.17
944.948	220.68
945.117	100.94
945.287	120.7
945.456	75.17
945.625	84.47
945.794	145.89
945.963	123.22
946.132	173.02
946.301	89.32
946.47	158.87
946.639	94.35
946.808	120.32
946.977	140.27
947.146	223.78
947.315	148.22
947.484	171.85
947.653	116.83
947.822	121.87
947.991	104.24
948.16	195.3
948.329	168.17
948.498	156.55
948.666	159.45
948.835	162.36
949.004	95.52
949.173	96.68
949.341	147.44
949.51	148.8
949.679	173.6
949.847	150.54
950.016	204.6
950.185	199.56
950.353	130.97
950.522	172.05
950.69	232.5
950.859	160.04
951.028	201.11
951.196	153.25
951.365	130.2
951.533	120.9
951.701	152.48
951.87	167.2
952.038	110.24
952.207	127.1
952.375	192
952.543	106.95
952.712	139.3
952.88	137.95
953.048	182.32
953.217	162.94
953.385	183.09
953.553	185.61
953.721	101.91
953.89	133.69
954.058	114.5
954.226	111.21
954.394	156.94
954.562	97.65
954.73	137.17
954.898	123.8
955.067	148.02
955.235	138.72
955.403	154.22
955.571	221.07
955.739	178.05
955.907	122.25
956.075	143.37
956.243	138.53
956.41	162.94
956.578	110.24
956.746	118.38
956.914	161.59
957.082	169.53
957.25	178.83
957.418	152.87
957.585	172.24
957.753	211.38
957.921	162.36
958.089	154.61
958.256	177.28
958.424	153.45
958.592	170.3
958.759	131.75
958.927	164.69
959.095	93.97
959.262	144.73
959.43	171.47
959.597	106.75
959.765	146.67
959.932	138.72
960.1	173.21
960.267	142.79
960.435	165.07
960.602	159.07
960.77	161.97
960.937	134.85
961.104	173.79
961.272	126.32
961.439	137.17
961.606	161
961.774	194.33
961.941	141.05
962.108	164.3
962.275	179.99
962.443	202.85
962.61	183.28
962.777	237.92
962.944	202.47
963.111	198.59
963.278	215.83
963.446	189.48
963.613	164.49
963.78	200.14
963.947	198.78
964.114	196.46
964.281	260.98
964.448	184.25
964.615	172.82
964.782	183.67
964.949	231.33
965.116	206.15
965.282	204.98
965.449	163.72
965.616	167.79
965.783	213.7
965.95	177.08
966.117	150.15
966.283	208.86
966.45	199.37
966.617	203.43
966.784	255.17
966.95	223.58
967.117	254.39
967.284	217
967.45	207.89
967.617	275.12
967.784	248.97
967.95	279
968.117	224.55
968.283	269.31
968.45	337.31
968.616	257.88
968.783	267.37
968.949	254.97
969.116	277.64
969.282	245.28
969.449	241.6
969.615	239.28
969.781	219.13
969.948	246.25
970.114	219.52
970.28	305.15
970.447	256.33
970.613	293.14
970.779	230.75
970.945	276.48
971.112	253.23
971.278	257.1
971.444	265.63
971.61	288.49
971.776	254.39
971.942	247.03
972.108	255.55
972.275	251.48
972.441	248.77
972.607	306.31
972.773	205.37
972.939	250.71
973.105	209.05
973.271	165.07
973.437	228.04
973.602	194.91
973.768	231.33
973.934	202.66
974.1	241.8
974.266	149.96
974.432	225.91
974.598	189.87
974.763	238.7
974.929	187.55
975.095	266.6
975.261	177.47
975.426	192.2
975.592	178.63
975.758	270.08
975.923	162.55
976.089	172.63
976.255	219.71
976.42	203.43
976.586	212.35
976.751	231.72
976.917	263.88
977.082	202.47
977.248	170.3
977.413	168.95
977.579	202.85
977.744	229.01
977.91	152.67
978.075	201.11
978.24	204.6
978.406	202.27
978.571	193.75
978.736	149.57
978.902	217.38
979.067	189.87
979.232	139.11
979.397	222.42
979.563	266.01
979.728	198.98
979.893	177.86
980.058	199.37
980.223	224.55
980.388	192.2
980.554	209.25
980.719	190.07
980.884	212.93
981.049	270.86
981.214	160.81
981.379	223
981.544	174.37
981.709	204.4
981.874	225.13
982.039	194.52
982.204	236.76
982.368	197.23
982.533	180.57
982.698	221.65
982.863	222.03
983.028	195.3
983.193	214.09
983.357	207.5
983.522	208.86
983.687	208.08
983.852	217.77
984.016	196.85
984.181	192
984.346	244.9
984.51	224.55
984.675	214.28
984.839	228.43
985.004	221.65
985.168	237.15
985.333	220.29
985.498	191.23
985.662	229.4
985.827	234.24
985.991	213.9
986.155	196.46
986.32	228.23
986.484	257.3
986.649	215.83
986.813	149.77
986.977	202.85
987.142	220.87
987.306	185.42
987.47	159.84
987.634	178.25
987.799	188.13
987.963	224.75
988.127	245.48
988.291	254
988.455	196.27
988.62	208.28
988.784	214.28
988.948	217.38
989.112	171.85
989.276	192.2
989.44	191.81
989.604	161
989.768	174.37
989.932	260.59
990.096	139.5
990.26	154.61
990.424	166.43
990.588	214.09
990.752	264.27
990.915	223.97
991.079	184.06
991.243	147.64
991.407	185.61
991.571	183.87
991.734	216.42
991.898	212.73
992.062	283.84
992.226	210.02
992.389	160.62
992.553	154.03
992.717	165.85
992.88	165.46
993.044	187.55
993.207	185.22
993.371	192.58
993.535	179.6
993.698	196.65
993.862	198.01
994.025	213.12
994.189	185.42
994.352	181.73
994.515	180.38
994.679	198.2
994.842	151.9
995.006	208.08
995.169	169.53
995.332	146.67
995.496	169.34
995.659	144.15
995.822	172.63
995.985	173.02
996.149	227.07
996.312	173.6
996.475	228.43
996.638	148.22
996.801	209.25
996.964	226.68
997.128	175.34
997.291	169.53
997.454	165.46
997.617	127.29
997.78	175.53
997.943	148.02
998.106	193.55
998.269	173.21
998.432	158.49
998.595	147.83
998.758	87.96
998.92	141.63
999.083	109.66
999.246	156.35
999.409	109.27
999.572	111.4
999.735	136.4
999.897	155.19
1000.06	136.01
1000.223	127.68
1000.386	168.95
1000.548	169.53
1000.711	155.77
1000.874	177.28
1001.036	102.69
1001.199	159.65
1001.361	141.63
1001.524	147.25
1001.687	149.96
1001.849	103.07
1002.012	166.24
1002.174	139.5
1002.337	158.87
1002.499	139.69
1002.661	159.07
1002.824	105.2
1002.986	111.4
1003.149	137.75
1003.311	113.73
1003.473	169.92
1003.636	101.72
1003.798	154.42
1003.96	160.23
1004.123	135.43
1004.285	101.33
1004.447	106.75
1004.609	113.73
1004.771	183.28
1004.933	100.36
1005.096	105.4
1005.258	84.86
1005.42	111.79
1005.582	179.41
1005.744	99.59
1005.906	71.69
1006.068	110.63
1006.23	70.33
1006.392	77.69
1006.554	115.47
1006.716	152.29
1006.878	136.01
1007.04	46.11
1007.202	92.61
1007.363	101.91
1007.525	124.77
1007.687	111.21
1007.849	151.12
1008.011	62.77
1008.172	62
1008.334	88.54
1008.496	120.7
1008.658	71.88
1008.819	64.71
1008.981	69.94
1009.143	65.49
1009.304	84.86
1009.466	111.02
1009.627	121.48
1009.789	198.98
1009.95	100.94
1010.112	85.83
1010.273	100.94
1010.435	93.19
1010.596	91.84
1010.758	83.7
1010.919	74.79
1011.081	51.54
1011.242	89.51
1011.403	117.8
1011.565	77.5
1011.726	114.7
1011.887	55.99
1012.049	99.78
1012.21	100.94
1012.371	161.78
1012.532	15.89
1012.693	109.85
1012.855	74.4
1013.016	86.41
1013.177	114.5
1013.338	104.82
1013.499	137.17
1013.66	88.74
1013.821	101.14
1013.982	110.82
1014.143	86.61
1014.304	45.14
1014.465	93.97
1014.626	100.75
1014.787	61.22
1014.948	141.44
1015.109	35.65
1015.27	124.77
1015.431	90.09
1015.592	48.63
1015.752	101.33
1015.913	87.96
1016.074	106.37
1016.235	72.07
1016.395	66.07
1016.556	62.77
1016.717	61.61
1016.877	136.59
1017.038	46.89
1017.199	61.81
1017.359	86.61
1017.52	93.77
1017.681	75.76
1017.841	80.02
1018.002	75.37
1018.162	43.21
1018.323	128.84
1018.483	48.63
1018.644	69.36
1018.804	39.91
1018.964	50.18
1019.125	61.81
1019.285	64.52
1019.446	37.39
1019.606	39.14
1019.766	33.52
1019.926	72.27
1020.087	88.54
1020.247	27.51
1020.407	73.24
1020.567	106.56
1020.728	35.07
1020.888	39.14
1021.048	43.01
1021.208	33.71
1021.368	58.51
1021.528	84.28
1021.688	99.2
1021.848	77.11
1022.008	77.11
1022.168	43.98
1022.328	50.96
1022.488	80.6
1022.648	45.14
1022.808	72.27
1022.968	84.86
1023.128	33.13
1023.288	39.14
1023.448	51.15
1023.608	82.73
1023.767	69.56
1023.927	24.22
1024.087	24.22
1024.247	25.38
1024.406	60.45
1024.566	-0.39
1024.726	39.72
1024.885	75.56
1025.045	69.56
1025.205	43.01
1025.364	19.76
1025.524	66.46
1025.683	42.82
1025.843	64.91
1026.003	50.76
1026.162	88.74
1026.321	88.35
1026.481	62
1026.64	10.46
1026.8	35.46
1026.959	48.44
1027.119	37.97
1027.278	37.01
1027.437	37.78
1027.597	42.24
1027.756	56.19
1027.915	60.26
1028.074	69.17
1028.234	28.29
1028.393	51.15
1028.552	50.18
1028.711	-3.68
1028.87	55.8
1029.03	3.87
1029.189	27.32
1029.348	-18.79
1029.507	7.94
1029.666	38.17
1029.825	11.04
1029.984	20.15
1030.143	42.24
1030.302	31.19
1030.461	1.55
1030.62	25.57
1030.779	65.1
1030.938	21.51
1031.097	-2.32
1031.255	47.08
1031.414	102.3
1031.573	62.58
1031.732	15.5
1031.891	24.22
1032.049	87.57
1032.208	44.37
1032.367	18.99
1032.525	23.83
1032.684	39.14
1032.843	2.91
1033.001	-13.37
1033.16	172.82
1033.319	72.85
1033.477	40.88
1033.636	23.44
1033.794	9.69
1033.953	55.02
1034.111	60.45
1034.27	16.08
1034.428	49.79
1034.587	-13.17
1034.745	49.41
1034.903	50.57
1035.062	50.18
1035.22	0.58
1035.378	58.32
1035.537	6.39
1035.695	40.49
1035.853	41.27
1036.011	50.96
1036.17	54.06
1036.328	-44.37
1036.486	34.1
1036.644	57.35
1036.802	-23.44
1036.96	7.75
1037.119	36.62
1037.277	-7.36
1037.435	-6.39
1037.593	-18.79
1037.751	15.69
1037.909	52.12
1038.067	52.12
