Data from oakcork_FLMT105791__226__17-32-57-045.txt Node

Date: Mon Mar 20 17:32:57 GMT 2023
User: antho
Spectrometer: FLMT10579
Trigger mode: 0
Integration Time (sec): 1.000000E-1
Scans to average: 10
Electric dark correction enabled: true
Nonlinearity correction enabled: false
Boxcar width: 0
XAxis mode: Wavelengths
Number of Pixels in Spectrum: 3648
>>>>>Begin Spectral Data<<<<<
345.248	-162.04
345.464	-162.04
345.681	-162.04
345.898	-172.5
346.114	-139.56
346.331	-17.7
346.548	11.17
346.764	-24.67
346.981	2.45
347.197	-5.1
347.414	10.98
347.631	-24.67
347.847	55.93
348.064	2.26
348.28	30.93
348.497	-31.65
348.713	-9.95
348.93	10.59
349.146	17.37
349.363	-25.64
349.579	41.2
349.796	0.9
350.012	-14.79
350.229	16.02
350.445	3.23
350.661	-21.76
350.878	10.4
351.094	15.44
351.311	10.98
351.527	17.37
351.743	-13.43
351.96	54.77
352.176	53.6
352.392	26.87
352.609	41.01
352.825	13.89
353.041	9.62
353.257	22.6
353.474	32.48
353.69	3.04
353.906	34.42
354.122	-10.91
354.339	76.85
354.555	28.22
354.771	2.84
354.987	65.62
355.203	55.54
355.42	-3.75
355.636	4.97
355.852	-23.7
356.068	8.07
356.284	-31.65
356.5	85.18
356.716	16.4
356.932	21.25
357.148	34.62
357.364	2.65
357.58	28.22
357.796	59.61
358.012	61.55
358.228	17.95
358.444	-27.77
358.66	26.67
358.876	38.1
359.092	-11.3
359.308	9.43
359.524	36.36
359.74	-2.97
359.956	2.26
360.172	-3.36
360.388	49.53
360.604	21.64
360.819	100.3
361.035	32.1
361.251	22.6
361.467	11.17
361.683	65.81
361.898	30.16
362.114	61.93
362.33	10.98
362.546	26.29
362.762	11.37
362.977	19.31
363.193	-8.59
363.409	22.22
363.624	-23.9
363.84	-12.85
364.056	9.24
364.271	72.78
364.487	22.41
364.703	-15.18
364.918	-33.78
365.134	13.11
365.35	21.05
365.565	101.46
365.781	19.12
365.996	16.21
366.212	69.49
366.427	38.88
366.643	4.59
366.858	0.9
367.074	-12.08
367.289	66.78
367.505	109.21
367.72	-11.69
367.936	17.57
368.151	50.5
368.367	46.43
368.582	10.98
368.798	18.54
369.013	35.97
369.228	24.54
369.444	19.89
369.659	53.22
369.874	50.89
370.09	75.11
370.305	-35.13
370.52	-1.61
370.736	82.08
370.951	35.58
371.166	38.88
371.381	85.77
371.597	41.98
371.812	-1.23
372.027	-18.28
372.242	27.06
372.458	91.19
372.673	20.28
372.888	22.41
373.103	52.44
373.318	111.73
373.533	29.77
373.749	38.49
373.964	-29.71
374.179	75.88
374.394	8.46
374.609	62.13
374.824	4.2
375.039	69.49
375.254	-10.53
375.469	44.69
375.684	29.77
375.899	63.48
376.114	4.97
376.329	22.02
376.544	64.65
376.759	19.7
376.974	32.1
377.189	8.46
377.404	32.87
377.619	95.07
377.834	-6.85
378.049	-13.82
378.264	-16.92
378.478	41.2
378.693	24.15
378.908	65.62
379.123	11.17
379.338	78.79
379.553	53.6
379.767	34.03
379.982	54.57
380.197	54.18
380.412	33.65
380.626	60.58
380.841	141.76
381.056	50.89
381.271	103.2
381.485	44.69
381.7	25.32
381.915	47.79
382.129	20.67
382.344	45.66
382.559	16.99
382.773	82.86
382.988	-18.08
383.202	62.9
383.417	-23.9
383.632	105.14
383.846	41.01
384.061	52.44
384.275	12.53
384.49	71.43
384.704	72.4
384.919	44.5
385.133	50.89
385.348	72.4
385.562	12.14
385.777	91
385.991	41.2
386.206	19.31
386.42	44.3
386.634	66.39
386.849	40.43
387.063	32.87
387.277	1.87
387.492	32.87
387.706	11.56
387.92	8.85
388.135	93.71
388.349	65.62
388.563	45.66
388.778	51.67
388.992	50.5
389.206	73.17
389.42	120.83
389.635	66.58
389.849	93.9
390.063	91.58
390.277	65.42
390.491	121.22
390.706	72.4
390.92	87.9
391.134	72.78
391.348	86.54
391.562	16.21
391.776	38.68
391.99	35.2
392.205	61.93
392.419	34.23
392.633	67.17
392.847	77.63
393.061	38.3
393.275	115.99
393.489	64.26
393.703	66.78
393.917	52.44
394.131	23.19
394.345	93.71
394.559	82.47
394.773	49.53
394.986	79.95
395.2	56.9
395.414	106.88
395.628	32.68
395.842	61.35
396.056	51.08
396.27	4.78
396.484	67.17
396.697	69.3
396.911	97.39
397.125	55.73
397.339	67.36
397.553	75.5
397.766	106.88
397.98	83.44
398.194	118.51
398.408	96.03
398.621	100.1
398.835	93.13
399.049	87.51
399.262	123.16
399.476	117.15
399.69	138.27
399.903	159.78
400.117	78.79
400.331	131.88
400.544	89.83
400.758	215.19
400.971	119.48
401.185	125.29
401.398	80.73
401.612	165.59
401.826	106.88
402.039	119.86
402.253	90.61
402.466	115.6
402.68	107.66
402.893	117.93
403.106	112.89
403.32	112.12
403.533	144.08
403.747	135.36
403.96	135.56
404.174	136.14
404.387	88.48
404.6	147.57
404.814	140.79
405.027	106.88
405.24	128.2
405.454	93.9
405.667	159.39
405.88	68.13
406.094	135.36
406.307	135.36
406.52	128.2
406.733	111.34
406.947	73.17
407.16	178.96
407.373	164.23
407.586	92.55
407.799	102.04
408.012	148.73
408.226	148.35
408.439	187.29
408.652	89.83
408.865	144.47
409.078	180.7
409.291	167.91
409.504	95.45
409.717	138.27
409.93	145.44
410.143	135.75
410.357	92.93
410.57	72.98
410.783	123.35
410.996	134.98
411.209	122.58
411.421	160.16
411.634	138.66
411.847	128.78
412.06	162.68
412.273	134.59
412.486	132.07
412.699	227.59
412.912	161.71
413.125	182.64
413.338	138.85
413.55	176.05
413.763	143.5
413.976	173.92
414.189	139.05
414.402	104.95
414.615	199.69
414.827	131.49
415.04	173.34
415.253	164.04
415.466	194.26
415.678	213.44
415.891	155.9
416.104	171.4
416.316	158.42
416.529	164.04
416.742	171.98
416.954	202.6
417.167	158.03
417.38	147.57
417.592	179.54
417.805	145.63
418.017	110.95
418.23	193.88
418.442	133.04
418.655	156.87
418.868	161.13
419.08	173.15
419.293	204.14
419.505	193.3
419.718	181.67
419.93	183.8
420.142	143.11
420.355	192.13
420.567	210.15
420.78	183.41
420.992	191.55
421.205	199.3
421.417	122
421.629	158.23
421.842	149.9
422.054	125.29
422.266	216.54
422.479	206.66
422.691	179.73
422.903	176.05
423.115	155.71
423.328	168.88
423.54	166.56
423.752	171.21
423.964	174.5
424.177	198.91
424.389	169.85
424.601	273.51
424.813	180.9
425.025	220.61
425.238	210.15
425.45	150.86
425.662	161.91
425.874	431.02
426.086	172.37
426.298	212.86
426.51	202.98
426.722	194.46
426.934	170.82
427.146	205.69
427.358	161.52
427.57	221.97
427.782	166.95
427.994	173.34
428.206	183.61
428.418	142.73
428.63	205.31
428.842	232.04
429.054	199.88
429.266	225.84
429.478	170.82
429.69	198.53
429.902	134.78
430.114	202.6
430.325	201.43
430.537	147.76
430.749	171.6
430.961	113.08
431.173	169.27
431.384	190
431.596	122
431.808	197.75
432.02	191.16
432.231	239.99
432.443	233.4
432.655	222.74
432.867	182.25
433.078	237.86
433.29	253.74
433.502	274.86
433.713	286.29
433.925	217.13
434.136	255.1
434.348	181.67
434.56	162.1
434.771	276.41
434.983	176.63
435.194	210.73
435.406	231.46
435.617	247.74
435.829	288.62
436.04	254.13
436.252	249.29
436.463	259.94
436.675	279.13
436.886	294.82
437.098	248.9
437.309	331.63
437.521	247.35
437.732	249.09
437.943	265.18
438.155	255.49
438.366	214.41
438.578	321.17
438.789	246.19
439	277.96
439.211	247.35
439.423	272.54
439.634	283
439.845	313.03
440.057	275.64
440.268	287.46
440.479	247.35
440.69	267.31
440.902	245.41
441.113	267.5
441.324	278.16
441.535	288.23
441.746	336.67
441.957	239.41
442.168	265.76
442.38	311.48
442.591	325.43
442.802	276.41
443.013	294.82
443.224	318.46
443.435	290.75
443.646	279.9
443.857	285.13
444.068	274.09
444.279	253.55
444.49	366.89
444.701	270.99
444.912	398.67
445.123	325.43
445.334	313.42
445.545	324.66
445.756	285.71
445.967	272.93
446.178	284.74
446.388	324.27
446.599	322.91
446.81	331.05
447.021	279.9
447.232	326.79
447.443	383.94
447.653	288.04
447.864	350.42
448.075	319.81
448.286	372.71
448.496	331.82
448.707	365.54
448.918	302.37
449.129	369.02
449.339	315.94
449.55	365.73
449.761	351.2
449.971	378.13
450.182	327.95
450.393	380.07
450.603	319.23
450.814	381.42
451.024	375.03
451.235	386.46
451.446	431.6
451.656	402.93
451.867	325.62
452.077	402.93
452.288	414.75
452.498	406.61
452.709	356.43
452.919	354.88
453.13	338.8
453.34	383.36
453.55	319.23
453.761	388.01
453.971	364.76
454.182	388.2
454.392	367.09
454.602	427.34
454.813	406.8
455.023	385.49
455.233	330.27
455.444	389.95
455.654	295.4
455.864	357.21
456.075	369.22
456.285	371.74
456.495	369.02
456.705	392.66
456.916	424.24
457.126	437.22
457.336	388.4
457.546	351.78
457.756	373.29
457.967	442.84
458.177	372.12
458.387	408.94
458.597	374.45
458.807	360.5
459.017	376.39
459.227	337.06
459.437	376.39
459.647	426.57
459.857	438.19
460.068	372.32
460.278	435.09
460.488	404.87
460.698	447.49
460.908	408.16
461.117	351.78
461.327	361.86
461.537	406.42
461.747	395.37
461.957	406.61
462.167	512.01
462.377	444.59
462.587	380.84
462.797	450.98
463.007	419.4
463.216	448.65
463.426	469.77
463.636	461.25
463.846	398.67
464.056	390.72
464.265	448.65
464.475	384.14
464.685	430.05
464.895	479.85
465.104	448.85
465.314	460.86
465.524	406.03
465.733	401.96
465.943	495.73
466.153	497.48
466.362	486.24
466.572	452.14
466.782	421.14
466.991	436.84
467.201	477.33
467.41	394.02
467.62	460.09
467.829	469.77
468.039	475
468.249	453.5
468.458	457.37
468.668	480.62
468.877	490.12
469.086	502.13
469.296	524.6
469.505	445.17
469.715	533.71
469.924	491.28
470.134	543.2
470.343	522.08
470.552	480.23
470.762	488.37
470.971	439.35
471.18	472.29
471.39	484.88
471.599	465.7
471.808	496.9
472.018	518.21
472.227	533.32
472.436	555.21
472.645	509.68
472.855	485.66
473.064	593
473.273	540.1
473.482	536.23
473.691	588.93
473.901	564.51
474.11	535.65
474.319	613.73
474.528	557.35
474.737	602.3
474.946	599.2
475.155	568.78
475.364	617.21
475.573	549.79
475.783	599.39
475.992	576.33
476.201	586.02
476.41	571.49
476.619	569.36
476.828	604.04
477.037	567.23
477.245	572.85
477.454	614.31
477.663	588.93
477.872	588.93
478.081	675.34
478.29	612.18
478.499	719.71
478.708	631.94
478.917	699.56
479.125	617.99
479.334	656.54
479.543	623.41
479.752	673.79
479.961	670.69
480.169	685.8
480.378	658.87
480.587	784.22
480.796	702.46
481.004	685.99
481.213	718.93
481.422	720.68
481.63	708.86
481.839	735.98
482.048	787.71
482.256	715.06
482.465	736.17
482.674	737.72
482.882	721.26
483.091	753.61
483.299	745.28
483.508	748.19
483.716	758.65
483.925	764.85
484.134	738.11
484.342	745.67
484.551	793.14
484.759	761.56
484.967	794.3
485.176	798.37
485.384	800.31
485.593	807.67
485.801	783.45
486.01	775.51
486.218	697.23
486.426	648.79
486.635	699.94
486.843	691.81
487.051	710.6
487.26	713.89
487.468	757.68
487.676	793.72
487.885	746.64
488.093	771.05
488.301	792.94
488.509	813.29
488.717	834.79
488.926	815.61
489.134	795.27
489.342	803.6
489.55	775.7
489.758	818.32
489.967	816.58
490.175	914.03
490.383	834.6
490.591	921.98
490.799	826.27
491.007	896.99
491.215	898.34
491.423	887.49
491.631	852.81
491.839	864.24
492.047	885.17
492.255	851.26
492.463	839.64
492.671	813.67
492.879	905.32
493.087	858.43
493.295	937.28
493.503	924.88
493.711	948.91
493.919	949.68
494.127	941.74
494.334	967.51
494.542	922.95
494.75	968.09
494.958	924.69
495.166	1001.8
495.374	953.95
495.581	972.74
495.789	971.97
495.997	1027.76
496.205	935.54
496.412	954.14
496.62	942.13
496.828	928.95
497.035	974.1
497.243	974.87
497.451	980.3
497.658	983.4
497.866	976.62
498.074	1046.95
498.281	956.27
498.489	1039.78
498.696	986.5
498.904	930.12
499.112	971.19
499.319	1022.34
499.527	1000.45
499.734	1031.45
499.942	980.3
500.149	968.87
500.357	1008
500.564	962.86
500.771	972.35
500.979	926.63
501.186	948.72
501.394	983.59
501.601	923.72
501.808	984.95
502.016	971.77
502.223	927.79
502.43	976.03
502.638	964.6
502.845	928.95
503.052	1004.9
503.26	990.56
503.467	1068.65
503.674	982.82
503.881	1019.05
504.089	1073.3
504.296	1011.3
504.503	961.7
504.71	988.43
504.917	954.33
505.125	995.6
505.332	1005.29
505.539	1027.76
505.746	1101.19
505.953	1092.48
506.16	1080.27
506.367	1124.06
506.574	1079.49
506.781	1128.32
506.988	1061.86
507.195	1066.71
507.402	1070.39
507.609	1059.73
507.816	1012.26
508.023	1049.27
508.23	1032.41
508.437	1028.35
508.644	1094.8
508.851	1090.34
509.058	1094.8
509.265	1105.65
509.472	1130.84
509.679	1196.91
509.885	1073.68
510.092	1081.82
510.299	1076.78
510.506	1101.78
510.713	1114.76
510.92	1098.68
511.126	1112.82
511.333	1152.93
511.54	1142.27
511.746	1205.62
511.953	1194.19
512.16	1179.47
512.367	1132.19
512.573	1134.13
512.78	1107.39
512.987	1144.98
513.193	1138.01
513.4	1050.82
513.606	1126.77
513.813	1138.2
514.02	1152.34
514.226	1217.06
514.433	1153.51
514.639	1110.49
514.846	1101
515.052	1083.37
515.259	1142.08
515.465	1160.09
515.672	1137.23
515.878	1228.29
516.085	1121.73
516.291	1176.37
516.497	1141.88
516.704	1139.36
516.91	1078.33
517.117	1021.95
517.323	1008.39
517.529	1059.54
517.736	1038.23
517.942	1022.73
518.148	1056.44
518.354	1094.22
518.561	1111.46
518.767	1108.36
518.973	1162.03
519.179	1141.3
519.386	1077.94
519.592	1140.91
519.798	1126.38
520.004	1194.97
520.21	1164.94
520.417	1206.21
520.623	1265.69
520.829	1246.7
521.035	1232.36
521.241	1237.98
521.447	1239.34
521.653	1337.57
521.859	1250.57
522.065	1232.56
522.271	1346.67
522.477	1276.92
522.683	1353.26
522.889	1310.05
523.095	1288.16
523.301	1281.19
523.507	1243.99
523.713	1278.47
523.919	1234.88
524.125	1347.64
524.331	1328.65
524.537	1364.88
524.742	1351.71
524.948	1365.66
525.154	1378.25
525.36	1438.12
525.566	1346.09
525.772	1389.1
525.977	1313.74
526.183	1372.05
526.389	1387.17
526.595	1330.2
526.8	1314.32
527.006	1266.46
527.212	1244.57
527.417	1231.39
527.623	1235.46
527.829	1328.85
528.034	1315.09
528.24	1353.26
528.446	1311.6
528.651	1399.95
528.857	1410.03
529.062	1468.15
529.268	1408.87
529.473	1441.03
529.679	1446.45
529.884	1510.97
530.09	1487.14
530.295	1498.57
530.501	1455.56
530.706	1453.23
530.912	1426.11
531.117	1470.86
531.323	1487.33
531.528	1496.44
531.733	1548.56
531.939	1485.01
532.144	1518.72
532.35	1461.56
532.555	1521.43
532.76	1478.81
532.966	1493.34
533.171	1477.65
533.376	1464.66
533.581	1471.45
533.787	1480.36
533.992	1497.41
534.197	1535.38
534.402	1444.51
534.607	1470.67
534.813	1606.87
535.018	1514.84
535.223	1515.04
535.428	1552.82
535.633	1582.85
535.838	1582.27
536.043	1603.39
536.249	1665.77
536.454	1571.81
536.659	1586.73
536.864	1548.36
537.069	1553.98
537.274	1560.57
537.479	1559.41
537.684	1585.37
537.889	1537.13
538.094	1682.05
538.299	1574.91
538.504	1616.95
538.708	1612.11
538.913	1649.5
539.118	1636.13
539.323	1584.4
539.528	1566.19
539.733	1616.95
539.938	1592.93
540.142	1604.94
540.347	1601.45
540.552	1573.16
540.757	1572.97
540.962	1558.24
541.166	1542.74
541.371	1531.89
541.576	1542.74
541.781	1498.76
541.985	1615.01
542.19	1593.51
542.395	1647.17
542.599	1672.36
542.804	1639.23
543.008	1645.04
543.213	1570.84
543.418	1588.66
543.622	1641.75
543.827	1599.9
544.031	1681.47
544.236	1699.87
544.44	1667.13
544.645	1737.65
544.849	1661.32
545.054	1670.23
545.258	1752.19
545.463	1718.86
545.667	1655.7
545.872	1688.83
546.076	1689.22
546.281	1668.87
546.485	1649.11
546.689	1666.36
546.894	1682.63
547.098	1677.98
547.302	1634.19
547.507	1656.09
547.711	1682.24
547.915	1737.07
548.119	1662.29
548.324	1676.43
548.528	1707.62
548.732	1682.63
548.936	1720.8
549.141	1729.52
549.345	1658.8
549.549	1706.65
549.753	1734.75
549.957	1765.36
550.161	1761.87
550.366	1708.4
550.57	1683.21
550.774	1702.39
550.978	1709.56
551.182	1760.13
551.386	1666.94
551.59	1692.9
551.794	1680.31
551.998	1704.91
552.202	1679.14
552.406	1678.95
552.61	1733
552.814	1712.47
553.018	1763.62
553.222	1704.52
553.426	1695.61
553.63	1776.98
553.833	1685.54
554.037	1683.6
554.241	1722.74
554.445	1709.37
554.649	1711.11
554.853	1676.43
555.056	1775.24
555.26	1750.25
555.464	1763.62
555.668	1770.79
555.871	1750.25
556.075	1769.82
556.279	1717.5
556.483	1696.58
556.686	1697.55
556.89	1735.52
557.094	1713.44
557.297	1650.08
557.501	1715.37
557.704	1667.32
557.908	1733.97
558.112	1682.05
558.315	1715.57
558.519	1682.24
558.722	1646.59
558.926	1649.11
559.129	1589.63
559.333	1623.54
559.536	1615.59
559.74	1580.72
559.943	1569.87
560.147	1580.91
560.35	1627.61
560.553	1602.03
560.757	1531.31
560.96	1685.92
561.164	1608.04
561.367	1642.14
561.57	1640.59
561.774	1629.35
561.977	1622.18
562.18	1620.63
562.384	1685.54
562.587	1602.81
562.79	1594.86
562.993	1601.06
563.197	1659.57
563.4	1708.4
563.603	1647.76
563.806	1739.01
564.009	1582.46
564.212	1609.01
564.416	1536.74
564.619	1630.12
564.822	1532.67
565.025	1633.42
565.228	1617.53
565.431	1594.86
565.634	1507.68
565.837	1559.02
566.04	1535.38
566.243	1541.58
566.446	1446.84
566.649	1549.14
566.852	1487.33
567.055	1478.81
567.258	1550.3
567.461	1572.97
567.664	1587.89
567.867	1485.78
568.07	1535.58
568.273	1545.46
568.475	1567.93
568.678	1476.87
568.881	1482.3
569.084	1485.78
569.287	1444.32
569.489	1419.33
569.692	1472.41
569.895	1511.16
570.098	1418.17
570.3	1403.25
570.503	1389.49
570.706	1429.01
570.909	1399.95
571.111	1362.75
571.314	1374.96
571.516	1348.8
571.719	1416.03
571.922	1350.16
572.124	1380.58
572.327	1401.89
572.529	1358.88
572.732	1325.94
572.935	1369.53
573.137	1443.74
573.34	1351.71
573.542	1401.7
573.745	1419.13
573.947	1425.14
574.15	1389.88
574.352	1360.82
574.554	1428.05
574.757	1329.43
574.959	1325.75
575.162	1334.66
575.364	1320.9
575.566	1399.37
575.769	1301.14
575.971	1338.15
576.173	1237.21
576.376	1352.48
576.578	1342.41
576.78	1378.25
576.982	1234.88
577.185	1306.76
577.387	1267.04
577.589	1268.4
577.791	1314.7
577.993	1337.37
578.196	1331.75
578.398	1288.74
578.6	1317.8
578.802	1270.14
579.004	1272.47
579.206	1266.85
579.408	1308.12
579.61	1246.7
579.812	1319.55
580.014	1266.85
580.216	1289.9
580.418	1255.42
580.62	1256.58
580.822	1226.36
581.024	1285.84
581.226	1345.9
581.428	1319.35
581.63	1359.07
581.832	1233.14
582.034	1346.09
582.236	1289.9
582.438	1360.04
582.64	1361.2
582.841	1373.02
583.043	1414.68
583.245	1325.36
583.447	1336.6
583.649	1303.47
583.85	1311.8
584.052	1353.45
584.254	1268.79
584.456	1359.27
584.657	1274.02
584.859	1324.78
585.061	1309.67
585.262	1274.6
585.464	1260.45
585.666	1308.89
585.867	1253.67
586.069	1375.73
586.27	1311.02
586.472	1293.97
586.674	1258.52
586.875	1275.95
587.077	1309.47
587.278	1293
587.48	1247.47
587.681	1378.25
587.883	1282.74
588.084	1245.92
588.285	1227.71
588.487	1220.54
588.688	1244.96
588.89	1168.62
589.091	1152.54
589.292	1174.82
589.494	1125.41
589.695	1104.68
589.896	1061.86
590.098	1055.66
590.299	1099.45
590.5	1091.51
590.702	1123.67
590.903	1132.39
591.104	1199.23
591.305	1190.71
591.507	1204.07
591.708	1207.17
591.909	1177.53
592.11	1227.91
592.311	1177.92
592.512	1173.07
592.714	1119.02
592.915	1115.92
593.116	1173.66
593.317	1198.46
593.518	1160.48
593.719	1145.18
593.92	1146.92
594.121	1229.46
594.322	1147.31
594.523	1167.26
594.724	1081.43
594.925	1148.08
595.126	1167.46
595.327	1184.7
595.528	1140.53
595.729	1150.6
595.929	1154.09
596.13	1176.76
596.331	1161.45
596.532	1172.11
596.733	1246.51
596.934	1203.49
597.135	1228.49
597.335	1228.1
597.536	1177.14
597.737	1155.64
597.938	1172.3
598.138	1210.08
598.339	1190.12
598.54	1206.01
598.74	1156.22
598.941	1181.02
599.142	1228.87
599.342	1183.15
599.543	1117.86
599.744	1175.59
599.944	1165.13
600.145	1162.81
600.345	1225.39
600.546	1229.46
600.746	1206.4
600.947	1254.25
601.147	1173.07
601.348	1224.81
601.548	1164.74
601.749	1224.42
601.949	1135.88
602.15	1167.26
602.35	1159.51
602.551	1211.82
602.751	1144.01
602.951	1172.3
603.152	1140.91
603.352	1184.89
603.552	1181.99
603.753	1201.94
603.953	1199.42
604.153	1152.73
604.354	1152.73
604.554	1187.41
604.754	1206.98
604.954	1127.35
605.155	1205.04
605.355	1186.06
605.555	1206.98
605.755	1255.42
605.955	1189.74
606.155	1213.18
606.356	1201.17
606.556	1179.47
606.756	1172.88
606.956	1135.88
607.156	1227.71
607.356	1137.43
607.556	1172.69
607.756	1196.52
607.956	1219.19
608.156	1170.56
608.356	1138.01
608.556	1227.91
608.756	1164.16
608.956	1173.46
609.156	1163
609.356	1136.46
609.556	1149.24
609.755	1167.26
609.955	1138.78
610.155	1142.08
610.355	1139.17
610.555	1095.19
610.755	1140.14
610.954	1070.2
611.154	1136.65
611.354	1155.44
611.554	1121.73
611.753	1119.02
611.953	1087.83
612.153	1123.67
612.352	1127.35
612.552	1058.57
612.752	1068.45
612.951	1132.58
613.151	1123.67
613.351	1074.07
613.55	1077.56
613.75	1119.41
613.949	1118.24
614.149	1113.01
614.348	1087.05
614.548	1076.01
614.747	1034.55
614.947	1059.73
615.146	1019.24
615.346	1091.7
615.545	1101.39
615.745	1119.79
615.944	1113.79
616.144	1091.12
616.343	1087.24
616.542	1092.86
616.742	1068.65
616.941	1062.45
617.14	974.48
617.34	1047.72
617.539	1067.68
617.738	1035.32
617.938	1120.38
618.137	1032.41
618.336	1035.9
618.535	1091.12
618.734	1076.01
618.934	1082.79
619.133	1091.12
619.332	1112.04
619.531	1083.76
619.73	1090.34
619.929	1118.63
620.128	1095.77
620.328	1119.99
620.527	1055.47
620.726	1044.43
620.925	1065.74
621.124	1054.89
621.323	1078.91
621.522	1041.91
621.721	1022.34
621.92	1007.03
622.119	1073.1
622.318	1029.9
622.517	1035.13
622.715	1073.68
622.914	955.11
623.113	1003.93
623.312	970.03
623.511	1011.49
623.71	1008
623.909	1001.61
624.107	1051.01
624.306	996.38
624.505	974.29
624.704	991.53
624.902	1003.35
625.101	1024.86
625.3	998.7
625.499	961.31
625.697	997.15
625.896	956.66
626.095	986.3
626.293	942.71
626.492	922.56
626.69	1002
626.889	925.27
627.088	1019.05
627.286	956.08
627.485	940.77
627.683	934.96
627.882	973.32
628.08	885.75
628.279	912.1
628.477	973.13
628.676	902.99
628.874	946.2
629.073	890.79
629.271	884.78
629.469	960.53
629.668	879.94
629.866	932.25
630.065	897.37
630.263	927.6
630.461	890.4
630.66	912.48
630.858	949.88
631.056	950.07
631.254	970.8
631.453	899.5
631.651	965.96
631.849	918.1
632.047	939.42
632.245	914.42
632.444	918.1
632.642	961.5
632.84	961.7
633.038	923.33
633.236	918.88
633.434	928.76
633.632	918.88
633.83	912.29
634.028	952.2
634.227	951.23
634.425	999.48
634.623	939.8
634.821	922.75
635.019	975.45
635.216	911.71
635.414	930.5
635.612	947.36
635.81	933.99
636.008	997.93
636.206	965.38
636.404	1001.41
636.602	899.5
636.8	970.8
636.997	961.5
637.195	987.85
637.393	961.7
637.591	1044.04
637.789	972.74
637.986	931.08
638.184	944.84
638.382	986.11
638.58	986.5
638.777	1015.36
638.975	945.62
639.173	965.57
639.37	973.13
639.568	956.27
639.765	965.77
639.963	936.51
640.161	983.78
640.358	976.23
640.556	910.93
640.753	909.97
640.951	937.48
641.148	955.3
641.346	899.5
641.543	941.35
641.741	933.8
641.938	892.53
642.136	921.2
642.333	903.77
642.531	961.5
642.728	1011.3
642.925	959.57
643.123	922.75
643.32	942.71
643.517	933.99
643.715	940.58
643.912	922.56
644.109	928.37
644.306	941.93
644.504	907.64
644.701	938.25
644.898	941.35
645.095	917.52
645.293	911.9
645.49	940.38
645.687	935.54
645.884	944.84
646.081	861.72
646.278	878.19
646.475	871.6
646.672	865.21
646.87	889.04
647.067	893.5
647.264	872.77
647.461	821.62
647.658	822
647.855	860.37
648.052	859.2
648.249	792.56
648.446	831.89
648.642	828.79
648.839	819.1
649.036	823.75
649.233	813.67
649.43	825.69
649.627	787.13
649.824	830.34
650.021	822.97
650.217	843.32
650.414	804.18
650.611	858.43
650.808	858.82
651.004	877.03
651.201	863.08
651.398	909.38
651.595	872.57
651.791	805.34
651.988	876.45
652.185	825.49
652.381	876.64
652.578	784.42
652.775	825.69
652.971	829.95
653.168	822.2
653.364	852.23
653.561	797.98
653.757	815.03
653.954	850.87
654.15	794.88
654.347	877.42
654.543	820.45
654.74	777.64
654.936	776.47
655.133	797.21
655.329	783.64
655.525	822
655.722	833.44
655.918	780.35
656.115	799.14
656.311	734.43
656.507	700.53
656.704	676.31
656.9	697.81
657.096	714.09
657.292	708.28
657.489	772.21
657.685	788.49
657.881	736.17
658.077	746.25
658.273	785.77
658.47	803.02
658.666	751.87
658.862	809.02
659.058	779.57
659.254	842.35
659.45	765.82
659.646	785
659.842	788.49
660.038	854.75
660.234	787.71
660.43	811.16
660.626	863.27
660.822	821.62
661.018	841.77
661.214	793.52
661.41	794.88
661.606	849.71
661.802	829.37
661.998	811.16
662.194	789.46
662.39	825.49
662.586	813.48
662.781	848.55
662.977	791.2
663.173	825.1
663.369	828.4
663.564	816.39
663.76	842.74
663.956	800.69
664.152	869.28
664.347	765.24
664.543	816.19
664.739	791.59
664.934	759.62
665.13	745.86
665.326	825.88
665.521	800.69
665.717	727.84
665.912	768.72
666.108	709.44
666.304	742.57
666.499	764.07
666.695	719.32
666.89	787.13
667.086	810.57
667.281	771.05
667.477	844.48
667.672	763.49
667.867	772.41
668.063	777.25
668.258	766.79
668.454	805.92
668.649	844.48
668.844	788.68
669.04	802.05
669.235	771.05
669.43	749.35
669.626	715.25
669.821	735.21
670.016	717.19
670.211	763.69
670.407	722.23
670.602	775.12
670.797	732.49
670.992	776.09
671.187	703.43
671.382	770.47
671.578	729.97
671.773	769.69
671.968	734.24
672.163	764.46
672.358	746.64
672.553	701.3
672.748	714.48
672.943	811.35
673.138	743.92
673.333	755.74
673.528	717.96
673.723	741.21
673.918	723.58
674.113	700.53
674.308	816.58
674.503	780.16
674.698	764.07
674.892	766.4
675.087	774.92
675.282	765.04
675.477	735.21
675.672	744.51
675.867	701.88
676.061	722.81
676.256	672.24
676.451	742.57
676.646	743.54
676.84	712.34
677.035	674.76
677.23	702.66
677.424	729.78
677.619	741.21
677.814	771.24
678.008	746.06
678.203	686.77
678.397	708.47
678.592	706.73
678.787	765.82
678.981	702.66
679.176	728.81
679.37	726.88
679.565	689.29
679.759	691.61
679.954	711.76
680.148	744.89
680.342	769.69
680.537	753.61
680.731	698.78
680.926	738.89
681.12	747.02
681.314	703.43
681.509	690.45
681.703	727.46
681.897	731.91
682.092	726.68
682.286	707.31
682.48	745.86
682.674	760.39
682.869	736.56
683.063	726.29
683.257	746.83
683.451	680.57
683.645	736.17
683.839	712.93
684.034	696.07
684.228	743.34
684.422	648.6
684.616	675.73
684.81	739.47
685.004	679.79
685.198	703.63
685.392	739.86
685.586	670.49
685.78	720.09
685.974	710.6
686.168	717.96
686.362	741.21
686.556	656.93
686.75	577.5
686.944	614.31
687.138	575.36
687.331	530.8
687.525	532.93
687.719	478.1
687.913	518.4
688.107	558.31
688.301	502.32
688.494	552.5
688.688	512.01
688.882	529.64
689.076	502.32
689.269	570.71
689.463	618.18
689.657	541.07
689.85	546.5
690.044	571.1
690.238	560.25
690.431	566.45
690.625	553.28
690.818	579.63
691.012	564.51
691.205	621.48
691.399	589.7
691.593	630.39
691.786	656.54
691.98	673.21
692.173	671.66
692.366	639.69
692.56	681.15
692.753	735.21
692.947	620.31
693.14	680.76
693.333	692
693.527	640.46
693.72	694.71
693.914	650.34
694.107	652.48
694.3	695.49
694.493	653.25
694.687	726.88
694.88	650.73
695.073	714.28
695.266	699.94
695.46	696.46
695.653	756.52
695.846	741.41
696.039	655.58
696.232	727.26
696.425	752.84
696.618	779.19
696.812	749.35
697.005	803.02
697.198	879.74
697.391	808.44
697.584	824.14
697.777	872.38
697.97	851.84
698.163	857.46
698.356	829.37
698.549	882.07
698.742	878.39
698.935	854.55
699.127	835.76
699.32	852.81
699.513	845.06
699.706	883.23
699.899	890.59
700.092	879.35
700.285	868.31
700.477	853.97
700.67	888.46
700.863	937.09
701.056	973.13
701.248	950.46
701.441	974.48
701.634	902.41
701.826	1022.15
702.019	904.54
702.212	985.14
702.404	936.7
702.597	921.59
702.79	986.3
702.982	986.69
703.175	1019.24
703.367	1034.55
703.56	1049.08
703.752	1145.76
703.945	1082.98
704.137	1105.07
704.33	1144.98
704.522	1128.71
704.715	1113.59
704.907	1133.36
705.1	1173.66
705.292	1120.57
705.484	1166.1
705.677	1172.11
705.869	1189.54
706.061	1231.97
706.254	1268.98
706.446	1193.42
706.638	1260.84
706.831	1292.42
707.023	1245.15
707.215	1345.12
707.407	1336.6
707.599	1312.38
707.792	1349.38
707.984	1348.42
708.176	1372.25
708.368	1346.09
708.56	1360.62
708.752	1385.81
708.944	1372.25
709.136	1442.38
709.329	1395.11
709.521	1519.49
709.713	1495.28
709.905	1449.75
710.097	1508.65
710.289	1467.96
710.481	1508.65
710.672	1531.89
710.864	1509.61
711.056	1583.63
711.248	1603
711.44	1579.36
711.632	1538.48
711.824	1567.35
712.016	1643.49
712.207	1663.45
712.399	1593.7
712.591	1709.17
712.783	1688.64
712.975	1677.98
713.166	1644.07
713.358	1693.09
713.55	1741.14
713.741	1717.89
713.933	1763.04
714.125	1786.87
714.316	1723.7
714.508	1795.2
714.7	1813.6
714.891	1819.03
715.083	1839.37
715.274	1821.93
715.466	1846.73
715.657	1897.3
715.849	1775.05
716.04	1829.49
716.232	1767.69
716.423	1828.52
716.615	1751.99
716.806	1711.5
716.998	1708.98
717.189	1651.44
717.381	1581.88
717.572	1545.65
717.763	1570.26
717.955	1554.18
718.146	1534.8
718.337	1510.2
718.528	1462.92
718.72	1390.85
718.911	1469.51
719.102	1458.27
719.293	1498.57
719.485	1460.79
719.676	1452.26
719.867	1420.88
720.058	1412.16
720.249	1482.88
720.44	1506.51
720.632	1531.89
720.823	1568.71
721.014	1655.51
721.205	1708.79
721.396	1779.7
721.587	1863.01
721.778	1883.93
721.969	1953.68
722.16	2009.48
722.351	2004.25
722.542	2126.7
722.733	2142.78
722.924	2035.83
723.115	2097.64
723.305	2027.11
723.496	2078.65
723.687	1955.23
723.878	1973.44
724.069	1998.63
724.26	1968.02
724.45	1942.25
724.641	1959.69
724.832	1942.64
725.023	1948.26
725.213	1937.02
725.404	1897.5
725.595	1932.76
725.785	1922.68
725.976	2001.93
726.167	1994.56
726.357	1996.5
726.548	2085.43
726.739	2020.33
726.929	2079.04
727.12	2154.79
727.31	2119.72
727.501	2124.18
727.691	2091.63
727.882	2140.84
728.072	2148.98
728.263	2176.49
728.453	2208.07
728.644	2242.75
728.834	2192.77
729.024	2171.45
729.215	2199.74
729.405	2226.48
729.596	2278.4
729.786	2284.8
729.976	2322.38
730.167	2307.46
730.357	2266.39
730.547	2271.82
730.737	2356.29
730.928	2371.79
731.118	2414.61
731.308	2409.18
731.498	2394.65
731.688	2516.71
731.879	2494.82
732.069	2563.6
732.259	2593.24
732.449	2624.63
732.639	2682.17
732.829	2704.45
733.019	2731.97
733.209	2845.69
733.399	2837.75
733.589	2890.45
733.779	2917.96
733.969	2938.31
734.159	2984.81
734.349	3043.12
734.539	3096.02
734.729	3060.75
734.919	3088.07
735.109	3127.6
735.299	3047.19
735.488	3122.75
735.678	3121.78
735.868	3136.32
736.058	3110.55
736.248	3116.75
736.437	3070.05
736.627	3090.01
736.817	3220.21
737.007	3164.02
737.196	3256.63
737.386	3233
737.576	3193.86
737.765	3248.5
737.955	3235.9
738.144	3300.23
738.334	3310.69
738.524	3250.43
738.713	3334.91
738.903	3284.53
739.092	3315.53
739.282	3323.48
739.471	3361.26
739.661	3394
739.85	3390.32
740.04	3385.28
740.229	3461.04
740.419	3413.18
740.608	3477.89
740.797	3459.68
740.987	3544.54
741.176	3476.54
741.365	3430.23
741.555	3421.32
741.744	3501.14
741.933	3502.3
742.123	3549
742.312	3573.02
742.501	3562.56
742.69	3599.37
742.88	3528.85
743.069	3699.73
743.258	3611.58
743.447	3653.62
743.636	3627.85
743.825	3615.26
744.014	3602.08
744.204	3653.81
744.393	3613.13
744.582	3701.09
744.771	3728.6
744.96	3654.01
745.149	3665.44
745.338	3616.81
745.527	3735.19
745.716	3674.74
745.905	3633.86
746.094	3746.43
746.283	3724.14
746.471	3762.12
746.66	3771.42
746.849	3735.19
747.038	3803.39
747.227	3668.93
747.416	3730.34
747.604	3684.04
747.793	3731.89
747.982	3712.52
748.171	3747.59
748.359	3757.66
748.548	3809.78
748.737	3747.78
748.926	3746.81
749.114	3645.1
749.303	3765.03
749.491	3749.72
749.68	3662.15
749.869	3739.84
750.057	3696.83
750.246	3688.69
750.434	3691.21
750.623	3681.33
750.811	3648.2
751	3716.01
751.188	3655.95
751.377	3715.62
751.565	3694.7
751.754	3656.14
751.942	3644.71
752.131	3740.61
752.319	3659.24
752.507	3664.08
752.696	3700.7
752.884	3720.66
753.072	3641.41
753.261	3652.65
753.449	3662.15
753.637	3643.55
753.825	3751.46
754.014	3666.21
754.202	3680.36
754.39	3755.92
754.578	3710.58
754.766	3663.89
754.955	3663.7
755.143	3743.71
755.331	3688.11
755.519	3682.49
755.707	3651.49
755.895	3629.98
756.083	3664.66
756.271	3564.5
756.459	3621.26
756.647	3626.69
756.835	3589.1
757.023	3571.47
757.211	3587.36
757.399	3551.13
757.587	3593.37
757.775	3523.42
757.963	3610.8
758.151	3598.21
758.339	3517.03
758.526	3495.14
758.714	3519.55
758.902	3399.42
759.09	3295.38
759.278	3073.93
759.465	2793
759.653	2461.69
759.841	2229
760.028	1905.83
760.216	1643.88
760.404	1553.4
760.591	1246.12
760.779	1060.31
760.967	952.78
761.154	770.66
761.342	822.59
761.529	800.31
761.717	868.7
761.905	882.45
762.092	933.6
762.28	833.82
762.467	860.17
762.655	793.52
762.842	803.79
763.029	817.55
763.217	795.07
763.404	817.74
763.592	861.92
763.779	810.57
763.966	872.19
764.154	900.86
764.341	964.02
764.528	986.11
764.716	1065.93
764.903	1084.34
765.09	1161.84
765.277	1220.35
765.465	1367.4
765.652	1433.28
765.839	1541.19
766.026	1652.6
766.213	1705.88
766.4	1822.9
766.588	2006.77
766.775	2040.09
766.962	2147.82
767.149	2208.07
767.336	2386.71
767.523	2362.3
767.71	2527.56
767.897	2645.94
768.084	2680.62
768.271	2701.93
768.458	2785.05
768.645	2868.75
768.832	2851.7
769.019	2861.19
769.206	2891.42
769.392	3003.79
769.579	3086.33
769.766	3068.89
769.953	3053.59
770.14	3108.22
770.327	3085.55
770.513	3173.32
770.7	3160.15
770.887	3112.68
771.073	3179.71
771.26	3170.42
771.447	3130.12
771.634	3097.18
771.82	3241.33
772.007	3145.03
772.193	3192.89
772.38	3201.22
772.567	3169.06
772.753	3135.93
772.94	3247.53
773.126	3192.11
773.313	3209.94
773.499	3199.48
773.686	3248.5
773.872	3191.15
774.059	3188.24
774.245	3152.2
774.432	3161.7
774.618	3063.66
774.804	3164.8
774.991	3086.14
775.177	3159.95
775.363	3162.67
775.55	3179.52
775.736	3090.01
775.922	3132.25
776.109	3108.42
776.295	3124.5
776.481	3116.94
776.667	3159.76
776.853	3149.3
777.04	3048.35
777.226	3073.93
777.412	3140.77
777.598	3084.2
777.784	3069.28
777.97	3058.04
778.156	3037.7
778.342	3058.43
778.528	3029.17
778.715	2986.74
778.901	3019.29
779.087	3014.84
779.272	3010.77
779.458	2950.71
779.644	3011.74
779.83	2975.89
780.016	3076.64
780.202	2985.58
780.388	2960.97
780.574	2923.58
780.76	2958.07
780.946	2989.65
781.131	2970.66
781.317	2918.16
781.503	2936.95
781.689	2942.57
781.874	3088.85
782.06	2924.36
782.246	2940.44
782.432	2887.74
782.617	2943.73
782.803	3009.6
782.989	2864.88
783.174	2903.24
783.36	2817.99
783.545	2868.75
783.731	2848.6
783.916	2798.61
784.102	2897.43
784.288	2847.24
784.473	2841.82
784.659	2808.69
784.844	2855.96
785.029	2803.26
785.215	2780.98
785.4	2742.43
785.586	2840.46
785.771	2740.3
785.956	2816.25
786.142	2750.76
786.327	2737.2
786.512	2732.74
786.698	2741.65
786.883	2686.82
787.068	2752.11
787.254	2767.03
787.439	2688.37
787.624	2643.62
787.809	2672.68
787.994	2641.29
788.18	2737.78
788.365	2634.9
788.55	2647.3
788.735	2640.52
788.92	2602.74
789.105	2598.86
789.29	2652.33
789.475	2570.77
789.66	2619.59
789.845	2587.04
790.03	2564.76
790.215	2603.12
790.4	2640.13
790.585	2587.24
790.77	2590.72
790.955	2494.82
791.14	2518.07
791.325	2607.39
791.51	2445.61
791.695	2571.54
791.879	2519.81
792.064	2479.9
792.249	2565.34
792.434	2519.04
792.618	2537.64
792.803	2554.11
792.988	2538.22
793.173	2549.07
793.357	2566.31
793.542	2533.76
793.727	2594.6
793.911	2593.44
794.096	2546.16
794.281	2571.35
794.465	2612.23
794.65	2553.72
794.834	2624.24
795.019	2618.82
795.203	2622.11
795.388	2594.02
795.572	2635.09
795.757	2577.74
795.941	2590.14
796.126	2589.95
796.31	2481.64
796.494	2581.62
796.679	2548.29
796.863	2511.48
797.048	2620.95
797.232	2588.4
797.416	2564.37
797.601	2564.37
797.785	2619.01
797.969	2658.34
798.153	2558.76
798.338	2614.17
798.522	2682.17
798.706	2602.74
798.89	2661.63
799.074	2707.94
799.258	2686.82
799.443	2597.89
799.627	2595.18
799.811	2675.97
799.995	2620.75
800.179	2584.52
800.363	2595.57
800.547	2615.72
800.731	2634.9
800.915	2515.36
801.099	2557.79
801.283	2569.02
801.467	2547.71
801.651	2549.84
801.835	2652.53
802.019	2588.4
802.202	2597.31
802.386	2528.34
802.57	2517.49
802.754	2546.55
802.938	2545.39
803.121	2538.8
803.305	2620.75
803.489	2569.02
803.673	2578.13
803.856	2603.32
804.04	2590.53
804.224	2594.6
804.407	2567.09
804.591	2577.35
804.775	2549.84
804.958	2584.72
805.142	2675.97
805.326	2605.64
805.509	2562.44
805.693	2634.51
805.876	2607.77
806.06	2617.65
806.243	2596.15
806.427	2655.82
806.61	2679.65
806.794	2614.17
806.977	2651.37
807.16	2618.82
807.344	2601.57
807.527	2626.95
807.71	2602.74
807.894	2585.1
808.077	2598.09
808.26	2551.59
808.444	2527.95
808.627	2576.19
808.81	2561.66
808.993	2487.65
809.177	2457.04
809.36	2463.82
809.543	2525.24
809.726	2424.29
809.909	2440.38
810.092	2373.34
810.276	2407.63
810.459	2418.87
810.642	2407.24
810.825	2393.88
811.008	2389.23
811.191	2297.58
811.374	2308.24
811.557	2345.63
811.74	2345.05
811.923	2277.24
812.106	2238.1
812.289	2248.37
812.472	2204.39
812.654	2241.98
812.837	2188.31
813.02	2133.29
813.203	2123.41
813.386	2035.44
813.569	2012.39
813.751	1952.52
813.934	1990.88
814.117	1979.06
814.3	1922.1
814.482	1837.43
814.665	1807.98
814.848	1792.87
815.03	1727
815.213	1749.67
815.396	1736.88
815.578	1704.91
815.761	1640.59
815.943	1724.48
816.126	1651.44
816.309	1593.31
816.491	1548.94
816.674	1480.36
816.856	1552.43
817.039	1542.55
817.221	1586.92
817.403	1568.51
817.586	1586.53
817.768	1563.28
817.951	1504
818.133	1502.06
818.315	1505.74
818.498	1612.11
818.68	1625.86
818.862	1600.68
819.045	1593.12
819.227	1594.09
819.409	1561.15
819.591	1596.99
819.774	1563.86
819.956	1542.74
820.138	1684.57
820.32	1631.09
820.502	1726.42
820.684	1779.31
820.866	1756.06
821.048	1789
821.231	1802.75
821.413	1815.73
821.595	1830.07
821.777	1813.6
821.959	1789.38
822.141	1856.62
822.323	1754.9
822.505	1641.56
822.686	1593.7
822.868	1520.66
823.05	1404.41
823.232	1420.68
823.414	1343.57
823.596	1418.75
823.778	1412.55
823.96	1419.72
824.141	1455.17
824.323	1491.01
824.505	1545.07
824.687	1576.26
824.868	1659.57
825.05	1713.44
825.232	1767.3
825.413	1836.47
825.595	1774.85
825.777	1703.17
825.958	1762.07
826.14	1705.69
826.321	1818.83
826.503	1769.62
826.685	1751.41
826.866	1778.53
827.048	1780.28
827.229	1733.59
827.411	1679.14
827.592	1630.71
827.773	1639.62
827.955	1609.2
828.136	1591.57
828.318	1551.08
828.499	1594.86
828.68	1544.1
828.862	1565.99
829.043	1597.19
829.224	1565.22
829.406	1552.24
829.587	1560.76
829.768	1591.38
829.949	1623.34
830.131	1574.71
830.312	1628.19
830.493	1578.59
830.674	1604.36
830.855	1580.33
831.036	1563.09
831.218	1643.11
831.399	1653.37
831.58	1597.38
831.761	1584.4
831.942	1613.07
832.123	1598.93
832.304	1565.03
832.485	1553.21
832.666	1572
832.847	1609.97
833.028	1569.87
833.209	1620.05
833.389	1554.95
833.57	1510.58
833.751	1533.25
833.932	1601.45
834.113	1617.53
834.294	1569.48
834.475	1606.1
834.655	1632.45
834.836	1637.87
835.017	1635.74
835.198	1578.78
835.378	1632.84
835.559	1665.77
835.74	1615.4
835.92	1595.06
836.101	1572.97
836.281	1622.57
836.462	1632.45
836.643	1661.9
836.823	1672.94
837.004	1659.38
837.184	1717.12
837.365	1678.76
837.545	1685.34
837.726	1652.02
837.906	1694.64
838.087	1678.76
838.267	1677.01
838.448	1636.13
838.628	1694.06
838.808	1654.15
838.989	1725.84
839.169	1644.07
839.349	1646.98
839.53	1696.77
839.71	1695.61
839.89	1656.86
840.07	1702.59
840.251	1654.92
840.431	1684.76
840.611	1646.4
840.791	1637.29
840.971	1704.14
841.151	1639.42
841.332	1646.21
841.512	1688.06
841.692	1605.52
841.872	1663.64
842.052	1645.43
842.232	1668.1
842.412	1581.49
842.592	1637.87
842.772	1652.41
842.952	1656.86
843.132	1633.03
843.312	1625.47
843.492	1640.01
843.672	1654.73
843.851	1575.49
844.031	1615.59
844.211	1623.73
844.391	1591.57
844.571	1611.33
844.751	1642.14
844.93	1621.02
845.11	1597.77
845.29	1615.98
845.47	1643.3
845.649	1609.59
845.829	1625.28
846.009	1588.86
846.188	1624.7
846.368	1622.96
846.547	1593.7
846.727	1644.85
846.907	1584.01
847.086	1612.3
847.266	1634.77
847.445	1603.39
847.625	1569.87
847.804	1570.64
847.984	1574.91
848.163	1569.87
848.343	1541.39
848.522	1593.51
848.701	1594.09
848.881	1557.86
849.06	1559.02
849.239	1597.96
849.419	1584.01
849.598	1499.15
849.777	1513.68
849.957	1508.06
850.136	1475.32
850.315	1425.72
850.494	1408.48
850.674	1460.21
850.853	1494.5
851.032	1490.82
851.211	1501.28
851.39	1490.82
851.569	1452.65
851.748	1434.44
851.927	1470.09
852.107	1465.25
852.286	1390.27
852.465	1422.62
852.644	1488.3
852.823	1472.41
853.002	1429.98
853.181	1446.65
853.359	1480.55
853.538	1400.73
853.717	1461.95
853.896	1376.12
854.075	1293.39
854.254	1269.17
854.433	1223.84
854.611	1293.97
854.79	1222.48
854.969	1294.94
855.148	1320.32
855.327	1234.11
855.505	1308.12
855.684	1299.59
855.863	1327.49
856.041	1306.57
856.22	1340.86
856.399	1297.27
856.577	1425.92
856.756	1400.92
856.934	1503.22
857.113	1479
857.291	1437.35
857.47	1377.48
857.648	1394.53
857.827	1411.19
858.005	1444.71
858.184	1363.14
858.362	1446.65
858.541	1410.03
858.719	1372.05
858.898	1384.84
859.076	1356.75
859.254	1427.66
859.433	1354.81
859.611	1375.93
859.789	1337.37
859.967	1383.1
860.146	1427.46
860.324	1299.01
860.502	1346.28
860.68	1345.12
860.859	1327.88
861.037	1331.56
861.215	1365.27
861.393	1318.19
861.571	1350.55
861.749	1288.35
861.927	1311.22
862.105	1313.74
862.283	1320.13
862.461	1287.19
862.639	1279.25
862.817	1307.34
862.995	1319.74
863.173	1294.55
863.351	1311.22
863.529	1300.75
863.707	1354.03
863.885	1303.27
864.063	1238.95
864.241	1287.39
864.418	1321.1
864.596	1293
864.774	1225.58
864.952	1271.5
865.129	1292.04
865.307	1268.4
865.485	1209.89
865.663	1268.2
865.84	1204.85
866.018	1233.14
866.196	1098.29
866.373	1121.54
866.551	1106.04
866.728	1068.06
866.906	1088.21
867.084	1129.09
867.261	1165.32
867.439	1195.55
867.616	1208.92
867.794	1168.23
867.971	1176.37
868.149	1200.97
868.326	1238.17
868.503	1205.04
868.681	1193.81
868.858	1185.09
869.035	1146.53
869.213	1180.63
869.39	1160.29
869.567	1258.13
869.745	1177.72
869.922	1180.82
870.099	1196.91
870.276	1206.4
870.454	1217.64
870.631	1204.46
870.808	1171.91
870.985	1183.34
871.162	1249.8
871.339	1233.91
871.517	1138.2
871.694	1124.83
871.871	1174.04
872.048	1161.64
872.225	1167.46
872.402	1189.74
872.579	1140.33
872.756	1156.03
872.933	1114.95
873.11	1113.4
873.287	1164.16
873.463	1137.04
873.64	1124.06
873.817	1144.4
873.994	1109.14
874.171	1068.06
874.348	1118.83
874.524	1053.15
874.701	1111.85
874.878	1077.56
875.055	1125.41
875.231	1101
875.408	1111.27
875.585	1045.78
875.762	1063.61
875.938	1061.67
876.115	1097.51
876.291	1089.18
876.468	1090.93
876.645	1031.45
876.821	1055.66
876.998	1077.94
877.174	1123.09
877.351	1078.91
877.527	1048.11
877.704	1046.75
877.88	1066.51
878.057	1038.42
878.233	1093.64
878.409	1065.16
878.586	1063.41
878.762	1043.85
878.938	1020.21
879.115	970.03
879.291	1051.01
879.467	1002.77
879.644	1009.75
879.82	1044.43
879.996	981.85
880.172	928.57
880.349	995.8
880.525	1042.3
880.701	973.71
880.877	955.11
881.053	992.7
881.229	990.56
881.405	1051.79
881.581	972.74
881.757	965.38
881.933	1018.08
882.109	1032.03
882.285	995.8
882.461	944.65
882.637	1002.77
882.813	982.82
882.989	986.3
883.165	1034.93
883.341	975.07
883.517	996.18
883.693	995.99
883.869	1023.89
884.044	957.43
884.22	1029.12
884.396	1064.19
884.572	1043.07
884.747	1024.28
884.923	1017.69
885.099	1045.01
885.275	1057.8
885.45	990.37
885.626	977.39
885.801	963.83
885.977	975.07
886.153	929.92
886.328	986.5
886.504	934.18
886.679	1008.58
886.855	945.03
887.03	1009.16
887.206	1013.04
887.381	1012.85
887.557	1031.06
887.732	969.25
887.908	1008
888.083	1014.4
888.258	973.9
888.434	973.13
888.609	1010.13
888.784	1028.54
888.96	1009.16
889.135	951.62
889.31	931.08
889.485	962.47
889.661	956.27
889.836	1000.83
890.011	1002.38
890.186	971.38
890.361	946.58
890.537	982.43
890.712	1013.04
890.887	1024.47
891.062	998.12
891.237	1022.34
891.412	913.65
891.587	961.12
891.762	991.92
891.937	1005.29
892.112	940.19
892.287	971.97
892.462	940.58
892.637	909.19
892.812	907.64
892.987	879.74
893.161	888.46
893.336	899.7
893.511	901.83
893.686	891.75
893.861	931.67
894.035	896.02
894.21	908.42
894.385	847.77
894.56	871.8
894.734	823.94
894.909	815.61
895.084	823.94
895.258	775.12
895.433	769.11
895.608	752.06
895.782	748.57
895.957	737.14
896.131	747.41
896.306	678.24
896.48	705.37
896.655	714.67
896.829	631.75
897.004	625.74
897.178	645.89
897.353	620.9
897.527	688.13
897.701	662.55
897.876	620.51
898.05	672.43
898.224	675.73
898.399	677.66
898.573	641.04
898.747	570.13
898.921	578.85
899.096	504.26
899.27	534.87
899.444	507.94
899.618	551.73
899.792	548.63
899.967	587.18
900.141	610.63
900.315	513.95
900.489	547.08
900.663	576.33
900.837	581.56
901.011	514.92
901.185	629.42
901.359	537.97
901.533	588.73
901.707	546.11
901.881	560.25
902.055	532.16
902.229	547.85
902.403	613.92
902.576	582.34
902.75	543.4
902.924	658.48
903.098	617.02
903.272	654.99
903.446	687.74
903.619	670.69
903.793	694.71
903.967	702.27
904.14	750.9
904.314	731.52
904.488	719.51
904.661	704.79
904.835	725.91
905.009	750.71
905.182	773.37
905.356	722.23
905.529	728.23
905.703	700.53
905.876	664.68
906.05	656.74
906.223	648.6
906.397	603.65
906.57	573.43
906.744	537.97
906.917	559.09
907.09	562.77
907.264	532.35
907.437	534.68
907.61	517.63
907.784	526.15
907.957	527.12
908.13	508.91
908.304	517.63
908.477	472.48
908.65	532.74
908.823	474.23
908.996	548.43
909.17	486.24
909.343	488.76
909.516	502.71
909.689	459.89
909.862	449.43
910.035	489.92
910.208	446.72
910.381	479.85
910.554	537.78
910.727	482.95
910.9	464.54
911.073	487.79
911.246	552.7
911.419	538.94
911.592	523.63
911.765	467.64
911.938	479.65
912.11	520.53
912.283	502.71
912.456	522.28
912.629	484.5
912.802	472.48
912.974	420.17
913.147	418.82
913.32	371.35
913.493	410.87
913.665	435.09
913.838	436.84
914.01	419.01
914.183	421.14
914.356	453.69
914.528	461.44
914.701	491.67
914.873	468.61
915.046	432.96
915.218	393.82
915.391	347.91
915.563	362.63
915.736	401.57
915.908	413.59
916.081	442.45
916.253	424.05
916.425	449.62
916.598	458.15
916.77	411.07
916.942	407.97
917.115	319.81
917.287	420.17
917.459	385.69
917.632	335.31
917.804	308.57
917.976	381.04
918.148	399.05
918.32	410.68
918.493	443.42
918.665	460.67
918.837	404.09
919.009	484.69
919.181	469.97
919.353	447.1
919.525	445.75
919.697	421.14
919.869	448.85
920.041	480.23
920.213	563.55
920.385	500.19
920.557	460.67
920.729	470.35
920.901	460.09
921.073	430.83
921.244	437.8
921.416	476.36
921.588	450.79
921.76	450.79
921.932	491.67
922.103	420.37
922.275	456.6
922.447	478.68
922.619	403.12
922.79	412.62
922.962	420.56
923.134	449.24
923.305	374.26
923.477	394.99
923.648	376.19
923.82	403.9
923.991	335.89
924.163	358.37
924.335	369.99
924.506	363.41
924.677	421.14
924.849	374.84
925.02	396.15
925.192	408.16
925.363	378.52
925.535	363.79
925.706	346.36
925.877	404.87
926.049	365.92
926.22	408.35
926.391	372.32
926.562	415.72
926.734	350.04
926.905	436.45
927.076	330.66
927.247	372.51
927.419	335.89
927.59	330.47
927.761	318.84
927.932	310.51
928.103	321.56
928.274	264.01
928.445	271.38
928.616	267.69
928.787	287.46
928.958	297.14
929.129	289.39
929.3	274.67
929.471	215.38
929.642	179.54
929.813	145.25
929.984	238.05
930.155	143.89
930.326	186.32
930.496	144.47
930.667	126.26
930.838	163.46
931.009	128.39
931.18	149.12
931.35	139.43
931.521	174.31
931.692	82.08
931.863	77.24
932.033	125.1
932.204	133.43
932.374	80.34
932.545	97.97
932.716	114.63
932.886	114.44
933.057	31.52
933.227	44.69
933.398	138.66
933.568	46.63
933.739	-3.16
933.909	17.95
934.08	99.33
934.25	23.96
934.421	34.81
934.591	49.73
934.761	37.91
934.932	-7.62
935.102	32.29
935.272	42.56
935.443	44.69
935.613	22.41
935.783	39.27
935.953	19.7
936.123	143.11
936.294	10.2
936.464	18.54
936.634	21.05
936.804	21.64
936.974	6.91
937.144	22.02
937.314	31.13
937.484	16.6
937.655	9.62
937.825	61.35
937.995	23.38
938.165	76.27
938.334	19.5
938.504	47.02
938.674	41.4
938.844	60.97
939.014	100.88
939.184	96.23
939.354	151.45
939.524	97.2
939.694	106.11
939.863	67.36
940.033	128.39
940.203	123.74
940.373	117.54
940.542	108.82
940.712	69.49
940.882	106.11
941.051	104.95
941.221	102.04
941.391	123.35
941.56	77.24
941.73	44.5
941.899	169.08
942.069	81.5
942.238	102.04
942.408	84.6
942.577	98.94
942.747	90.42
942.916	20.09
943.086	46.05
943.255	87.9
943.425	90.22
943.594	57.87
943.763	-15.56
943.933	26.67
944.102	-1.23
944.271	47.6
944.441	51.67
944.61	42.56
944.779	76.85
944.948	149.7
945.117	18.92
945.287	57.67
945.456	11.56
945.625	27.64
945.794	73.37
945.963	34.03
946.132	66
946.301	36.17
946.47	85.77
946.639	-2.39
946.808	25.12
946.977	97.97
947.146	93.9
947.315	25.51
947.484	76.85
947.653	49.73
947.822	36.75
947.991	50.5
948.16	111.53
948.329	111.34
948.498	48.76
948.666	82.67
948.835	92.74
949.004	5.36
949.173	16.6
949.341	56.12
949.51	83.25
949.679	83.05
949.847	71.04
950.016	135.75
950.185	127.03
950.353	48.76
950.522	52.63
950.69	99.91
950.859	41.78
951.028	105.53
951.196	73.95
951.365	52.05
951.533	51.28
951.701	98.17
951.87	89.83
952.038	55.73
952.207	60
952.375	106.88
952.543	52.83
952.712	55.93
952.88	57.28
953.048	108.05
953.217	57.09
953.385	77.82
953.553	111.92
953.721	32.1
953.89	60
954.058	-12.46
954.226	35.2
954.394	57.48
954.562	9.43
954.73	64.65
954.898	59.8
955.067	96.81
955.235	48.57
955.403	72.78
955.571	147.96
955.739	114.63
955.907	28.22
956.075	55.15
956.243	24.35
956.41	88.28
956.578	6.33
956.746	24.35
956.914	40.82
957.082	84.99
957.25	64.07
957.418	63.87
957.585	67.55
957.753	106.69
957.921	43.53
958.089	74.72
958.256	68.91
958.424	60.58
958.592	88.87
958.759	52.25
958.927	74.33
959.095	31.71
959.262	57.09
959.43	74.33
959.597	60.19
959.765	59.61
959.932	51.28
960.1	83.44
960.267	76.85
960.435	69.49
960.602	99.52
960.77	46.24
960.937	54.18
961.104	91.38
961.272	49.73
961.439	47.4
961.606	98.75
961.774	84.02
961.941	71.62
962.108	95.07
962.275	74.33
962.443	105.53
962.61	81.31
962.777	136.33
962.944	97.97
963.111	102.43
963.278	87.12
963.446	65.81
963.613	94.87
963.78	101.65
963.947	92.93
964.114	95.84
964.281	123.93
964.448	105.92
964.615	64.26
964.782	97.78
964.949	118.7
965.116	87.12
965.282	120.64
965.449	102.23
965.616	54.18
965.783	111.92
965.95	84.6
966.117	65.03
966.283	76.66
966.45	92.74
966.617	94.87
966.784	97.97
966.95	117.15
967.117	134.59
967.284	68.91
967.45	73.95
967.617	132.65
967.784	123.16
967.95	143.7
968.117	87.12
968.283	130.91
968.45	181.28
968.616	110.95
968.783	142.73
968.949	101.65
969.116	130.52
969.282	106.3
969.449	123.93
969.615	111.15
969.781	67.17
969.948	110.18
970.114	68.72
970.28	150.86
970.447	115.22
970.613	160.94
970.779	109.6
970.945	118.7
971.112	92.55
971.278	99.33
971.444	107.85
971.61	146.21
971.776	80.15
971.942	116.76
972.108	109.02
972.275	98.36
972.441	113.08
972.607	170.43
972.773	72.78
972.939	116.76
973.105	112.7
973.271	84.99
973.437	77.63
973.602	80.15
973.768	95.65
973.934	109.02
974.1	95.45
974.266	38.88
974.432	97.97
974.598	74.92
974.763	120.45
974.929	83.25
975.095	135.75
975.261	80.15
975.426	34.81
975.592	85.77
975.758	146.21
975.923	50.12
976.089	84.02
976.255	113.08
976.42	102.43
976.586	104.17
976.751	93.9
976.917	174.7
977.082	112.89
977.248	43.92
977.413	38.3
977.579	91.97
977.744	105.72
977.91	65.81
978.075	79.37
978.24	99.72
978.406	77.43
978.571	81.5
978.736	58.64
978.902	90.42
979.067	63.68
979.232	43.53
979.397	88.28
979.563	139.05
979.728	47.98
979.893	91.77
980.058	58.64
980.223	115.22
980.388	79.37
980.554	104.95
980.719	91
980.884	126.45
981.049	134.2
981.214	87.32
981.379	102.23
981.544	92.35
981.709	92.93
981.874	103.01
982.039	92.35
982.204	128.58
982.368	95.07
982.533	63.1
982.698	118.31
982.863	143.5
983.028	70.85
983.193	108.82
983.357	90.22
983.522	85.77
983.687	65.81
983.852	85.57
984.016	80.73
984.181	73.95
984.346	108.05
984.51	116.18
984.675	62.32
984.839	110.76
985.004	123.55
985.168	133.04
985.333	107.66
985.498	67.17
985.662	119.86
985.827	126.45
985.991	85.96
986.155	59.22
986.32	100.68
986.484	159.78
986.649	92.74
986.813	46.82
986.977	95.65
987.142	99.52
987.306	76.08
987.47	80.34
987.634	79.18
987.799	100.49
987.963	83.83
988.127	100.68
988.291	152.8
988.455	102.04
988.62	83.44
988.784	77.05
988.948	104.37
989.112	50.7
989.276	109.79
989.44	94.1
989.604	49.92
989.768	85.96
989.932	145.25
990.096	61.55
990.26	73.17
990.424	44.3
990.588	82.86
990.752	137.88
990.915	90.61
991.079	65.81
991.243	84.02
991.407	103.98
991.571	77.24
991.734	101.85
991.898	109.02
992.062	187.29
992.226	64.65
992.389	69.68
992.553	46.24
992.717	54.96
992.88	81.7
993.044	77.82
993.207	67.94
993.371	104.95
993.535	94.29
993.698	85.38
993.862	107.47
994.025	88.67
994.189	87.32
994.352	44.69
994.515	84.02
994.679	96.62
994.842	56.32
995.006	116.96
995.169	49.53
995.332	54.38
995.496	83.83
995.659	60.58
995.822	67.17
995.985	72.01
996.149	104.75
996.312	63.68
996.475	117.54
996.638	69.68
996.801	116.57
996.964	124.51
997.128	62.71
997.291	78.02
997.454	98.36
997.617	45.27
997.78	114.05
997.943	82.67
998.106	120.64
998.269	40.04
998.432	47.4
998.595	72.59
998.758	14.66
998.92	36.94
999.083	6.14
999.246	49.15
999.409	47.02
999.572	11.56
999.735	52.83
999.897	76.47
1000.06	40.62
1000.223	47.98
1000.386	61.55
1000.548	76.47
1000.711	88.48
1000.874	80.15
1001.036	35.97
1001.199	103.59
1001.361	52.83
1001.524	66.2
1001.687	66.58
1001.849	39.65
1002.012	80.73
1002.174	94.29
1002.337	62.32
1002.499	83.83
1002.661	104.95
1002.824	17.18
1002.986	48.57
1003.149	47.02
1003.311	39.85
1003.473	113.67
1003.636	41.2
1003.798	69.68
1003.96	78.6
1004.123	30.93
1004.285	46.05
1004.447	47.02
1004.609	48.76
1004.771	87.32
1004.933	-15.18
1005.096	41.59
1005.258	4.2
1005.42	42.75
1005.582	95.65
1005.744	63.87
1005.906	10.01
1006.068	64.07
1006.23	41.01
1006.392	-6.65
1006.554	25.7
1006.716	71.23
1006.878	74.33
1007.04	1.29
1007.202	32.29
1007.363	58.64
1007.525	46.43
1007.687	46.82
1007.849	95.07
1008.011	-3.16
1008.172	19.12
1008.334	38.3
1008.496	74.72
1008.658	-7.81
1008.819	5.75
1008.981	-14.79
1009.143	-3.16
1009.304	28.8
1009.466	64.26
1009.627	102.62
1009.789	122.58
1009.95	70.27
1010.112	24.54
1010.273	59.03
1010.435	14.85
1010.596	16.4
1010.758	22.8
1010.919	37.52
1011.081	11.56
1011.242	39.85
1011.403	65.62
1011.565	46.63
1011.726	78.21
1011.887	-1.23
1012.049	52.05
1012.21	72.4
1012.371	72.59
1012.532	-20.8
1012.693	41.59
1012.855	24.74
1013.016	15.24
1013.177	70.65
1013.338	2.07
1013.499	79.37
1013.66	46.82
1013.821	60.58
1013.982	33.84
1014.143	58.64
1014.304	42.56
1014.465	58.06
1014.626	73.95
1014.787	22.99
1014.948	114.63
1015.109	-30.68
1015.27	96.62
1015.431	33.26
1015.592	10.98
1015.752	71.43
1015.913	27.84
1016.074	55.54
1016.235	44.11
1016.395	39.85
1016.556	26.09
1016.717	23.77
1016.877	69.68
1017.038	3.81
1017.199	36.75
1017.359	40.04
1017.52	32.48
1017.681	7.3
1017.841	28.61
1018.002	24.74
1018.162	7.69
1018.323	77.43
1018.483	32.68
1018.644	17.57
1018.804	2.07
1018.964	30.35
1019.125	20.47
1019.285	38.88
1019.446	10.98
1019.606	-1.42
1019.766	-25.64
1019.926	53.6
1020.087	46.24
1020.247	-20.99
1020.407	64.07
1020.567	60.77
1020.728	32.48
1020.888	0.71
1021.048	1.29
1021.208	-9.95
1021.368	2.26
1021.528	56.7
1021.688	74.14
1021.848	37.72
1022.008	35.58
1022.168	22.02
1022.328	40.23
1022.488	43.92
1022.648	-2.78
1022.808	10.59
1022.968	36.17
1023.128	-0.45
1023.288	-0.06
1023.448	2.45
1023.608	51.28
1023.767	40.82
1023.927	-8.01
1024.087	3.04
1024.247	7.49
1024.406	-8.98
1024.566	-20.99
1024.726	-14.4
1024.885	15.24
1025.045	40.04
1025.205	18.73
1025.364	13.5
1025.524	30.55
1025.683	9.62
1025.843	29.77
1026.003	-27.58
1026.162	72.98
1026.321	56.51
1026.481	25.32
1026.64	16.02
1026.8	36.36
1026.959	24.54
1027.119	13.89
1027.278	23.57
1027.437	-5.3
1027.597	1.49
1027.756	51.67
1027.915	32.1
1028.074	22.22
1028.234	-7.04
1028.393	7.69
1028.552	9.24
1028.711	-42.3
1028.87	57.28
1029.03	-29.9
1029.189	10.01
1029.348	-59.54
1029.507	-14.98
1029.666	20.86
1029.825	-21.57
1029.984	29.77
1030.143	15.24
1030.302	-14.21
1030.461	-40.17
1030.62	32.87
1030.779	49.34
1030.938	-19.25
1031.097	2.07
1031.255	32.48
1031.414	65.42
1031.573	40.23
1031.732	-25.64
1031.891	9.82
1032.049	58.45
1032.208	18.34
1032.367	-13.82
1032.525	15.24
1032.684	19.89
1032.843	18.54
1033.001	-27.58
1033.16	136.91
1033.319	48.57
1033.477	27.06
1033.636	19.7
1033.794	-13.82
1033.953	58.83
1034.111	27.84
1034.27	-9.17
1034.428	19.5
1034.587	-13.24
1034.745	13.11
1034.903	21.25
1035.062	27.45
1035.22	-28.93
1035.378	42.56
1035.537	-19.63
1035.695	18.54
1035.853	5.55
1036.011	5.75
1036.17	28.8
1036.328	-18.66
1036.486	57.67
1036.644	21.05
1036.802	-77.95
1036.96	-6.85
1037.119	9.24
1037.277	0.9
1037.435	-49.86
1037.593	-27
1037.751	-0.65
1037.909	31.32
1038.067	31.32
