Data from oakcork_FLMT105791__159__17-31-32-058.txt Node

Date: Mon Mar 20 17:31:32 GMT 2023
User: antho
Spectrometer: FLMT10579
Trigger mode: 0
Integration Time (sec): 1.000000E-1
Scans to average: 10
Electric dark correction enabled: true
Nonlinearity correction enabled: false
Boxcar width: 0
XAxis mode: Wavelengths
Number of Pixels in Spectrum: 3648
>>>>>Begin Spectral Data<<<<<
345.248	-154.58
345.464	-154.58
345.681	-154.58
345.898	-156.32
346.114	-173.18
346.331	-17.79
346.548	22.12
346.764	5.65
346.981	-14.5
347.197	17.28
347.414	26.58
347.631	-31.16
347.847	49.44
348.064	-11.01
348.28	6.81
348.497	-48.4
348.713	-5.01
348.93	12.04
349.146	12.24
349.363	-27.29
349.579	11.66
349.796	1.78
350.012	-16.05
350.229	36.65
350.445	7.98
350.661	-24.38
350.878	-22.44
351.094	11.46
351.311	5.46
351.527	22.51
351.743	-25.93
351.96	10.49
352.176	43.63
352.392	-3.65
352.609	16.89
352.825	-6.36
353.041	-4.42
353.257	1.58
353.474	-3.84
353.69	8.17
353.906	-13.53
354.122	-26.7
354.339	47.5
354.555	-0.55
354.771	7.59
354.987	56.99
355.203	56.8
355.42	7.78
355.636	-9.66
355.852	-24.57
356.068	16.11
356.284	-20.7
356.5	49.24
356.716	11.85
356.932	1.97
357.148	11.27
357.364	8.56
357.58	21.93
357.796	84.31
358.012	50.41
358.228	15.92
358.444	-53.44
358.66	46.34
358.876	18.83
359.092	-18.95
359.308	24.83
359.524	8.94
359.74	7.01
359.956	4.49
360.172	32.58
360.388	48.66
360.604	-9.85
360.819	72.11
361.035	3.13
361.251	31.81
361.467	-36.2
361.683	39.94
361.898	11.08
362.114	34.91
362.33	-0.74
362.546	52.73
362.762	26.58
362.977	6.62
363.193	-15.47
363.409	40.33
363.624	-19.34
363.84	-23.41
364.056	-25.93
364.271	22.89
364.487	16.89
364.703	-8.88
364.918	-9.85
365.134	-8.11
365.35	7.2
365.565	92.84
365.781	30.26
365.996	11.27
366.212	58.93
366.427	5.26
366.643	-3.84
366.858	1.97
367.074	-31.55
367.289	29.87
367.505	122.48
367.72	-40.07
367.936	16.89
368.151	34.91
368.367	33.16
368.582	5.84
368.798	-8.3
369.013	31.23
369.228	17.28
369.444	-1.71
369.659	73.66
369.874	4.29
370.09	28.32
370.305	-51.31
370.52	-4.42
370.736	65.91
370.951	28.32
371.166	64.36
371.381	81.21
371.597	49.05
371.812	3.71
372.027	1.39
372.242	-7.14
372.458	83.92
372.673	-5.78
372.888	13.79
373.103	11.08
373.318	87.22
373.533	32.97
373.749	35.1
373.964	-35.62
374.179	66.49
374.394	-1.13
374.609	47.69
374.824	0.03
375.039	56.99
375.254	9.72
375.469	34.71
375.684	39.94
375.899	65.13
376.114	-6.17
376.329	19.02
376.544	49.63
376.759	47.11
376.974	-14.5
377.189	3.33
377.404	10.88
377.619	66.1
377.834	-44.72
378.049	-45.89
378.264	-35.23
378.478	-4.42
378.693	-23.8
378.908	22.51
379.123	-3.46
379.338	39.75
379.553	47.31
379.767	20.38
379.982	30.06
380.197	28.32
380.412	19.6
380.626	32
380.841	68.23
381.056	35.49
381.271	71.53
381.485	-0.36
381.7	3.13
381.915	29.48
382.129	5.84
382.344	33.94
382.559	28.13
382.773	38.01
382.988	-22.44
383.202	49.83
383.417	10.3
383.632	110.66
383.846	31.42
384.061	21.15
384.275	16.89
384.49	21.34
384.704	37.04
384.919	6.81
385.133	12.63
385.348	46.34
385.562	-5.2
385.777	59.13
385.991	23.09
386.206	21.93
386.42	1.97
386.634	53.12
386.849	55.64
387.063	63.58
387.277	0.42
387.492	-17.6
387.706	-0.36
387.92	-2.87
388.135	48.08
388.349	68.62
388.563	0.81
388.778	30.45
388.992	45.18
389.206	56.41
389.42	111.44
389.635	27.35
389.849	77.53
390.063	45.56
390.277	43.63
390.491	88.96
390.706	41.69
390.92	51.38
391.134	18.24
391.348	32.97
391.562	-24.96
391.776	20.76
391.99	-11.79
392.205	48.28
392.419	12.24
392.633	11.27
392.847	36.07
393.061	1.39
393.275	63.19
393.489	21.73
393.703	29.87
393.917	66.29
394.131	30.45
394.345	44.79
394.559	49.63
394.773	28.51
394.986	46.73
395.2	31.03
395.414	68.04
395.628	14.95
395.842	29.09
396.056	22.51
396.27	-5.59
396.484	50.02
396.697	30.64
396.911	64.94
397.125	69.98
397.339	43.82
397.553	65.52
397.766	114.15
397.98	41.3
398.194	75.79
398.408	36.46
398.621	65.33
398.835	64.74
399.049	50.02
399.262	78.11
399.476	49.83
399.69	69.2
399.903	100.59
400.117	9.91
400.331	34.33
400.544	13.79
400.758	136.43
400.971	70.75
401.185	64.94
401.398	15.34
401.612	75.01
401.826	25.22
402.039	69.2
402.253	32.58
402.466	61.45
402.68	19.79
402.893	65.52
403.106	64.36
403.32	42.46
403.533	89.93
403.747	42.46
403.96	57.58
404.174	42.66
404.387	6.62
404.6	48.66
404.814	88.96
405.027	43.63
405.24	44.01
405.454	44.59
405.667	76.17
405.88	-11.01
406.094	42.27
406.307	76.95
406.52	64.36
406.733	26.19
406.947	7.39
407.16	95.74
407.373	94.97
407.586	39.75
407.799	31.81
408.012	89.54
408.226	51.38
408.439	96.13
408.652	25.41
408.865	55.25
409.078	74.43
409.291	74.62
409.504	22.89
409.717	55.83
409.93	75.01
410.143	52.73
410.357	10.69
410.57	3.33
410.783	40.14
410.996	62.61
411.209	42.27
411.421	107.76
411.634	41.49
411.847	13.79
412.06	43.82
412.273	53.12
412.486	51.76
412.699	137.01
412.912	56.41
413.125	93.61
413.338	71.33
413.55	71.14
413.763	73.07
413.976	69.59
414.189	28.71
414.402	41.3
414.615	113.37
414.827	17.28
415.04	83.34
415.253	77.72
415.466	76.76
415.678	137.4
415.891	62.81
416.104	39.94
416.316	44.98
416.529	38.01
416.742	84.7
416.954	109.5
417.167	39.75
417.38	60.48
417.592	78.69
417.805	49.05
418.017	16.31
418.23	98.26
418.442	71.91
418.655	29.48
418.868	67.84
419.08	113.37
419.293	83.92
419.505	70.94
419.718	111.24
419.93	118.02
420.142	57.38
420.355	131.78
420.567	124.03
420.78	98.65
420.992	86.44
421.205	120.74
421.417	23.28
421.629	53.89
421.842	38.78
422.054	17.47
422.266	87.61
422.479	106.4
422.691	59.13
422.903	115.89
423.115	54.86
423.328	51.38
423.54	91.48
423.752	95.94
423.964	42.66
424.177	79.27
424.389	68.62
424.601	173.44
424.813	86.25
425.025	124.22
425.238	98.46
425.45	60.87
425.662	67.65
425.874	370.48
426.086	58.16
426.298	113.76
426.51	91.48
426.722	66.88
426.934	71.53
427.146	79.86
427.358	40.33
427.57	130.04
427.782	99.42
427.994	99.42
428.206	46.34
428.418	26.19
428.63	81.41
428.842	101.56
429.054	79.08
429.266	88.38
429.478	62.61
429.69	55.06
429.902	60.48
430.114	128.68
430.325	96.71
430.537	61.06
430.749	71.91
430.961	35.88
431.173	72.3
431.384	117.06
431.596	13.4
431.808	96.71
432.02	82.57
432.231	106.79
432.443	114.73
432.655	105.04
432.867	69.59
433.078	87.41
433.29	143.79
433.502	101.17
433.713	117.83
433.925	94.77
434.136	113.57
434.348	82.76
434.56	38.2
434.771	175.57
434.983	37.62
435.194	62.81
435.406	90.71
435.617	159.49
435.829	169.17
436.04	145.34
436.252	115.31
436.463	141.66
436.675	103.3
436.886	124.22
437.098	105.04
437.309	161.04
437.521	109.5
437.732	112.79
437.943	97.1
438.155	111.24
438.366	85.67
438.578	147.28
438.789	121.51
439	118.99
439.211	80.05
439.423	133.14
439.634	112.79
439.845	107.37
440.057	112.6
440.268	151.93
440.479	78.69
440.69	94.77
440.902	108.34
441.113	121.9
441.324	130.62
441.535	130.04
441.746	181.38
441.957	106.4
442.168	118.02
442.38	118.8
442.591	173.05
442.802	110.08
443.013	106.79
443.224	141.86
443.435	129.07
443.646	128.49
443.857	121.71
444.068	132.75
444.279	112.99
444.49	179.05
444.701	141.27
444.912	188.55
445.123	160.65
445.334	159.87
445.545	136.43
445.756	149.61
445.967	104.66
446.178	154.45
446.388	188.74
446.599	170.53
446.81	150.19
447.021	149.99
447.232	176.92
447.443	163.17
447.653	83.54
447.864	184.48
448.075	138.95
448.286	187.39
448.496	151.35
448.707	191.45
448.918	153.67
449.129	241.25
449.339	142.44
449.55	157.16
449.761	151.16
449.971	205.6
450.182	141.47
450.393	160.84
450.603	142.24
450.814	188.35
451.024	162.2
451.235	188.94
451.446	220.71
451.656	226.52
451.867	145.73
452.077	190.68
452.288	201.14
452.498	196.49
452.709	196.49
452.919	177.7
453.13	153.09
453.34	206.95
453.55	141.66
453.761	220.71
453.971	184.87
454.182	212.96
454.392	180.6
454.602	246.67
454.813	195.72
455.023	224.97
455.233	141.86
455.444	181.19
455.654	125.19
455.864	163.55
456.075	154.26
456.285	183.9
456.495	165.1
456.705	186.8
456.916	212.77
457.126	217.22
457.336	172.27
457.546	113.57
457.756	173.82
457.967	220.32
458.177	166.07
458.387	194.55
458.597	137.4
458.807	181.57
459.017	174.79
459.227	191.45
459.437	176.73
459.647	219.35
459.857	218.19
460.068	174.02
460.278	219.35
460.488	200.95
460.698	232.14
460.908	205.4
461.117	167.62
461.327	193.97
461.537	187.58
461.747	183.32
461.957	186.03
462.167	287.36
462.377	261.78
462.587	179.64
462.797	225.17
463.007	203.08
463.216	199.79
463.426	210.64
463.636	224.97
463.846	168.2
464.056	192.23
464.265	245.51
464.475	162.97
464.685	218.77
464.895	224.2
465.104	195.72
465.314	220.71
465.524	189.32
465.733	186.22
465.943	264.69
466.153	250.55
466.362	246.09
466.572	210.83
466.782	198.43
466.991	202.3
467.201	268.18
467.41	179.44
467.62	225.94
467.829	216.06
468.039	239.89
468.249	218.58
468.458	218.58
468.668	259.65
468.877	230.4
469.086	259.65
469.296	261.59
469.505	214.51
469.715	278.25
469.924	231.56
470.134	259.46
470.343	280.19
470.552	246.09
470.762	228.46
470.971	181.38
471.18	245.9
471.39	222.45
471.599	178.86
471.808	246.67
472.018	197.46
472.227	269.15
472.436	283.29
472.645	228.46
472.855	206.37
473.064	296.47
473.273	262.95
473.482	268.57
473.691	249
473.901	301.31
474.11	259.46
474.319	359.43
474.528	278.25
474.737	294.72
474.946	283.48
475.155	265.47
475.364	288.13
475.573	285.03
475.783	293.75
475.992	282.9
476.201	321.27
476.41	274.57
476.619	246.48
476.828	273.8
477.037	266.24
477.245	286.58
477.454	303.63
477.663	281.16
477.872	271.86
478.081	333.28
478.29	267.02
478.499	357.5
478.708	290.27
478.917	351.3
479.125	331.34
479.334	320.3
479.543	267.6
479.752	311
479.961	305.18
480.169	347.81
480.378	293.95
480.587	406.51
480.796	321.65
481.004	334.05
481.213	375.32
481.422	310.42
481.63	316.62
481.839	368.54
482.048	400.9
482.256	324.75
482.465	345.87
482.674	356.53
482.882	363.5
483.091	434.22
483.299	357.11
483.508	358.85
483.716	342.96
483.925	381.71
484.134	347.03
484.342	372.41
484.551	382.68
484.759	394.7
484.967	381.52
485.176	370.48
485.384	374.35
485.593	401.86
485.801	398.38
486.01	371.45
486.218	369.9
486.426	302.67
486.635	348
486.843	356.33
487.051	358.46
487.26	339.86
487.468	366.8
487.676	396.63
487.885	344.51
488.093	362.15
488.301	394.89
488.509	382.1
488.717	408.45
488.926	404.38
489.134	346.84
489.342	384.23
489.55	384.81
489.758	391.01
489.967	375.9
490.175	473.16
490.383	390.05
490.591	453.79
490.799	382.1
491.007	427.24
491.215	405.35
491.423	420.27
491.631	399.35
491.839	405.55
492.047	453.98
492.255	398.76
492.463	371.06
492.671	409.81
492.879	459.21
493.087	395.08
493.295	463.09
493.503	473.16
493.711	458.24
493.919	474.71
494.127	482.46
494.334	485.37
494.542	418.14
494.75	454.37
494.958	444.88
495.166	478.39
495.374	462.51
495.581	451.27
495.789	480.33
495.997	472.78
496.205	447.78
496.412	459.6
496.62	440.81
496.828	487.11
497.035	439.64
497.243	495.44
497.451	465.22
497.658	497.77
497.866	494.09
498.074	528.77
498.281	443.13
498.489	536.91
498.696	488.47
498.904	459.79
499.112	476.07
499.319	560.74
499.527	461.54
499.734	521.21
499.942	457.86
500.149	458.05
500.357	505.13
500.564	484.79
500.771	532.26
500.979	454.95
501.186	472
501.394	515.4
501.601	473.55
501.808	524.12
502.016	479.75
502.223	503.58
502.43	482.85
502.638	489.24
502.845	468.71
503.052	564.61
503.26	497.38
503.467	531.48
503.674	519.86
503.881	508.04
504.089	560.35
504.296	535.16
504.503	480.53
504.71	514.04
504.917	473.16
505.125	524.7
505.332	503
505.539	530.9
505.746	591.54
505.953	567.71
506.16	546.21
506.367	573.14
506.574	601.23
506.781	590.96
506.988	521.21
507.195	550.27
507.402	533.03
507.609	574.11
507.816	549.69
508.023	531.09
508.23	548.72
508.437	517.34
508.644	577.01
508.851	596.77
509.058	599.68
509.265	561.12
509.472	586.51
509.679	671.75
509.885	596.77
510.092	587.28
510.299	587.47
510.506	606.65
510.713	601.42
510.92	619.25
511.126	631.65
511.333	654.51
511.54	632.23
511.746	678.92
511.953	634.36
512.16	685.9
512.367	629.32
512.573	614.79
512.78	625.06
512.987	639.4
513.193	661.87
513.4	583.02
513.606	600.65
513.813	660.52
514.02	616.15
514.226	700.04
514.433	692.68
514.639	593.09
514.846	630.1
515.052	619.25
515.259	650.25
515.465	641.53
515.672	637.85
515.878	732.98
516.085	654.12
516.291	701.2
516.497	660.52
516.704	647.92
516.91	602
517.117	586.7
517.323	583.79
517.529	614.4
517.736	639.4
517.942	626.61
518.148	637.27
518.354	655.29
518.561	638.62
518.767	681.25
518.973	700.43
519.179	716.51
519.386	660.32
519.592	613.05
519.798	660.32
520.004	739.37
520.21	703.53
520.417	723.48
520.623	766.5
520.829	773.08
521.035	756.62
521.241	767.85
521.447	787.61
521.653	864.53
521.859	746.73
522.065	794.98
522.271	832.95
522.477	818.81
522.683	860.85
522.889	797.69
523.095	815.51
523.301	811.45
523.507	783.55
523.713	817.45
523.919	775.21
524.125	863.37
524.331	817.45
524.537	889.91
524.742	880.03
524.948	903.86
525.154	875.58
525.36	976.13
525.566	881.97
525.772	918.39
525.977	858.33
526.183	890.49
526.389	921.11
526.595	865.11
526.8	871.51
527.006	850
527.212	829.46
527.417	805.83
527.623	811.45
527.829	871.51
528.034	909.48
528.24	892.24
528.446	860.66
528.651	958.5
528.857	931.38
529.062	986.79
529.268	964.31
529.473	956.56
529.679	946.1
529.884	989.11
530.09	981.94
530.295	977.68
530.501	990.27
530.706	969.35
530.912	936.41
531.117	1005.58
531.323	986.79
531.528	1014.88
531.733	1009.65
531.939	983.11
532.144	1034.64
532.35	1007.13
532.555	1047.82
532.76	1013.72
532.966	1033.67
533.171	1023.02
533.376	990.66
533.581	957.53
533.787	991.82
533.992	1041.81
534.197	1066.61
534.402	1037.16
534.607	1035.03
534.813	1104.39
535.018	1028.25
535.223	1005.19
535.428	1058.28
535.633	1075.72
535.838	1061.57
536.043	1077.27
536.249	1143.14
536.454	1078.43
536.659	1080.56
536.864	1067.97
537.069	1065.84
537.274	1092.96
537.479	1084.63
537.684	1101.87
537.889	1055.95
538.094	1149.34
538.299	1061.38
538.504	1131.32
538.708	1083.08
538.913	1129
539.118	1118.73
539.323	1104.39
539.528	1061.57
539.733	1082.11
539.938	1082.89
540.142	1090.44
540.347	1090.83
540.552	1050.72
540.757	1068.16
540.962	1068.74
541.166	1049.75
541.371	1045.69
541.576	1083.08
541.781	1026.31
541.985	1099.16
542.19	1078.62
542.395	1164.84
542.599	1175.88
542.804	1121.05
543.008	1169.88
543.213	1083.27
543.418	1035.42
543.622	1146.63
543.827	1101.87
544.031	1181.31
544.236	1147.79
544.44	1145.47
544.645	1219.09
544.849	1121.44
545.054	1205.33
545.258	1249.31
545.463	1225.87
545.667	1109.43
545.872	1184.8
546.076	1197.58
546.281	1148.57
546.485	1142.95
546.689	1197.78
546.894	1191.58
547.098	1180.15
547.302	1128.03
547.507	1156.12
547.711	1149.15
547.915	1192.55
548.119	1120.09
548.324	1160.38
548.528	1196.23
548.732	1197.58
548.936	1214.44
549.141	1207.47
549.345	1166.2
549.549	1179.18
549.753	1177.43
549.957	1266.36
550.161	1205.14
550.366	1157.09
550.57	1175.5
550.774	1182.86
550.978	1180.15
551.182	1224.9
551.386	1174.33
551.59	1176.66
551.794	1187.9
551.998	1202.43
552.202	1163.48
552.406	1138.1
552.61	1216.57
552.814	1161.16
553.018	1236.53
553.222	1185.57
553.426	1165.23
553.63	1267.72
553.833	1195.26
554.037	1124.35
554.241	1205.92
554.445	1195.84
554.649	1194.87
554.853	1195.45
555.056	1197
555.26	1232.65
555.464	1198.94
555.668	1227.23
555.871	1245.25
556.075	1259.58
556.279	1173.37
556.483	1152.05
556.686	1178.6
556.89	1193.52
557.094	1167.94
557.297	1139.46
557.501	1225.48
557.704	1135.97
557.908	1218.7
558.112	1144.69
558.315	1202.23
558.519	1143.92
558.722	1184.99
558.926	1138.88
559.129	1086.37
559.333	1091.8
559.536	1116.99
559.74	1104.39
559.943	1092.96
560.147	1097.22
560.35	1137.72
560.553	1131.52
560.757	1067.39
560.96	1180.34
561.164	1108.46
561.367	1146.82
561.57	1115.82
561.774	1110.4
561.977	1153.6
562.18	1101.29
562.384	1191.58
562.587	1117.95
562.79	1073.2
562.993	1098.39
563.197	1133.65
563.4	1193.13
563.603	1181.89
563.806	1206.3
564.009	1099.74
564.212	1109.43
564.416	1066.22
564.619	1142.17
564.822	1091.02
565.025	1137.33
565.228	1103.04
565.431	1079.79
565.634	1019.92
565.837	1068.16
566.04	1041.62
566.243	1063.51
566.446	1011.39
566.649	1046.65
566.852	1030.77
567.055	1054.6
567.258	1051.3
567.461	1112.92
567.664	1134.23
567.867	975.36
568.07	1075.33
568.273	1054.4
568.475	1109.62
568.678	1052.27
568.881	1050.92
569.084	1049.37
569.287	977.68
569.489	963.34
569.692	1034.45
569.895	1018.56
570.098	941.84
570.3	969.35
570.503	888.56
570.706	939.71
570.909	928.47
571.111	886.81
571.314	883.13
571.516	917.23
571.719	956.17
571.922	896.89
572.124	912.19
572.327	934.09
572.529	892.63
572.732	903.09
572.935	947.84
573.137	955.98
573.34	920.91
573.542	943.19
573.745	956.76
573.947	935.64
574.15	940.48
574.352	858.72
574.554	955.21
574.757	864.73
574.959	874.99
575.162	872.28
575.364	853.68
575.566	949.78
575.769	846.9
575.971	897.66
576.173	799.63
576.376	866.86
576.578	917.43
576.78	936.41
576.982	788.39
577.185	826.17
577.387	833.15
577.589	819.58
577.791	877.9
577.993	887.98
578.196	833.34
578.398	881.39
578.6	937.96
578.802	788.39
579.004	823.85
579.206	791.3
579.408	868.99
579.61	812.8
579.812	881.97
580.014	819
580.216	827.72
580.418	817.65
580.62	815.71
580.822	786.26
581.024	851.94
581.226	856.59
581.428	820.75
581.63	905.61
581.832	825.78
582.034	875.77
582.236	866.47
582.438	894.37
582.64	882.74
582.841	910.84
583.043	931.76
583.245	875.58
583.447	867.24
583.649	850.97
583.85	853.49
584.052	910.64
584.254	805.05
584.456	889.14
584.657	796.72
584.859	831.4
585.061	816.87
585.262	796.91
585.464	787.03
585.666	862.98
585.867	825.2
586.069	884.68
586.27	802.15
586.472	832.95
586.674	778.31
586.875	824.04
587.077	800.4
587.278	814.93
587.48	830.43
587.681	904.44
587.883	814.16
588.084	769.21
588.285	798.46
588.487	770.95
588.688	774.25
588.89	736.08
589.091	748.87
589.292	728.72
589.494	700.62
589.695	712.25
589.896	648.7
590.098	647.73
590.299	724.45
590.5	685.7
590.702	689.19
590.903	698.88
591.104	797.11
591.305	738.6
591.507	796.14
591.708	750.61
591.909	724.65
592.11	783.55
592.311	773.66
592.512	758.17
592.714	690.55
592.915	704.11
593.116	748.87
593.317	741.5
593.518	733.75
593.719	725.42
593.92	779.67
594.121	794.78
594.322	767.27
594.523	745.18
594.724	690.93
594.925	722.71
595.126	747.7
595.327	757.78
595.528	759.52
595.729	749.06
595.929	751.19
596.13	745.77
596.331	751.19
596.532	722.32
596.733	807.57
596.934	777.35
597.135	763.59
597.335	735.88
597.536	719.8
597.737	760.68
597.938	737.43
598.138	758.75
598.339	755.65
598.54	763.78
598.74	738.4
598.941	752.35
599.142	793.43
599.342	770.18
599.543	721.16
599.744	709.15
599.944	746.93
600.145	722.32
600.345	735.3
600.546	794.01
600.746	797.5
600.947	794.01
601.147	747.51
601.348	783.55
601.548	725.81
601.749	737.24
601.949	721.93
602.15	707.21
602.35	740.34
602.551	760.68
602.751	693.84
602.951	744.99
603.152	663.81
603.352	712.63
603.552	724.26
603.753	772.11
603.953	752.93
604.153	745.57
604.354	734.14
604.554	724.07
604.754	720.77
604.954	697.52
605.155	769.79
605.355	740.53
605.555	770.95
605.755	789.55
605.955	745.38
606.155	760.68
606.356	707.4
606.556	768.24
606.756	750.42
606.956	678.73
607.156	768.05
607.356	714.77
607.556	709.73
607.756	714.57
607.956	768.82
608.156	741.31
608.356	707.02
608.556	754.68
608.756	704.69
608.956	692.48
609.156	731.43
609.356	651.02
609.556	674.85
609.755	711.28
609.955	678.92
610.155	714.77
610.355	702.95
610.555	683.57
610.755	722.52
610.954	659.74
611.154	704.88
611.354	746.93
611.554	665.75
611.753	692.29
611.953	662.84
612.153	715.93
612.352	704.11
612.552	625.45
612.752	633.2
612.951	688.22
613.151	681.64
613.351	631.65
613.55	700.04
613.75	713.8
613.949	628.55
614.149	667.49
614.348	655.87
614.548	628.74
614.747	614.6
614.947	639.98
615.146	598.52
615.346	692.1
615.545	657.42
615.745	671.37
615.944	693.26
616.144	640.17
616.343	676.79
616.542	631.26
616.742	649.09
616.941	618.47
617.14	607.24
617.34	640.75
617.539	630.29
617.738	619.44
617.938	685.51
618.137	637.27
618.336	622.54
618.535	664.78
618.734	645.99
618.934	662.65
619.133	639.01
619.332	622.54
619.531	617.12
619.73	643.08
619.929	666.33
620.128	635.72
620.328	690.35
620.527	595.22
620.726	612.47
620.925	632.62
621.124	627.58
621.323	651.8
621.522	587.28
621.721	592.9
621.92	578.17
622.119	621.96
622.318	571.97
622.517	597.35
622.715	598.13
622.914	551.44
623.113	609.17
623.312	553.76
623.511	618.86
623.71	585.54
623.909	584.37
624.107	630.49
624.306	544.27
624.505	571.39
624.704	569.84
624.902	564.61
625.101	634.94
625.3	570.62
625.499	552.21
625.697	574.69
625.896	536.13
626.095	584.76
626.293	508.23
626.492	562.29
626.69	574.88
626.889	568.87
627.088	601.04
627.286	523.34
627.485	551.44
627.683	563.06
627.882	604.72
628.08	494.28
628.279	516.76
628.477	573.72
628.676	517.72
628.874	545.24
629.073	497.96
629.271	508.04
629.469	558.99
629.668	503.58
629.866	559.38
630.065	521.99
630.263	548.53
630.461	514.04
630.66	524.7
630.858	539.42
631.056	542.14
631.254	586.31
631.453	515.98
631.651	572.17
631.849	521.41
632.047	536.13
632.245	552.02
632.444	563.06
632.642	578.95
632.84	588.83
633.038	556.86
633.236	510.36
633.434	518.5
633.632	494.28
633.83	520.44
634.028	580.89
634.227	535.16
634.425	626.22
634.623	566.36
634.821	552.41
635.019	568.29
635.216	523.92
635.414	560.74
635.612	537.68
635.81	511.91
636.008	593.29
636.206	527.8
636.404	576.43
636.602	530.32
636.8	541.75
636.997	578.17
637.195	565.58
637.393	562.87
637.591	607.82
637.789	561.51
637.986	523.92
638.184	551.63
638.382	567.13
638.58	582.82
638.777	606.65
638.975	531.67
639.173	532.84
639.37	542.14
639.568	545.24
639.765	530.9
639.963	516.76
640.161	581.08
640.358	574.49
640.556	497.96
640.753	511.52
640.951	497.58
641.148	552.02
641.346	520.82
641.543	522.57
641.741	548.72
641.938	494.09
642.136	539.81
642.333	523.54
642.531	578.76
642.728	568.1
642.925	532.26
643.123	520.24
643.32	511.14
643.517	506.29
643.715	537.49
643.912	510.17
644.109	537.68
644.306	523.15
644.504	465.03
644.701	502.23
644.898	562.29
645.095	514.62
645.293	513.07
645.49	535.55
645.687	537.29
645.884	556.09
646.081	480.53
646.278	477.23
646.475	507.26
646.672	517.14
646.87	496.03
647.067	511.33
647.264	505.71
647.461	447.78
647.658	443.13
647.855	493.12
648.052	473.16
648.249	411.94
648.446	471.81
648.642	435.77
648.839	452.24
649.036	462.7
649.233	459.79
649.43	417.56
649.627	422.98
649.824	436.93
650.021	420.46
650.217	453.98
650.414	432.67
650.611	487.69
650.808	486.14
651.004	475.49
651.201	475.1
651.398	525.86
651.595	464.64
651.791	468.51
651.988	474.13
652.185	406.9
652.381	458.05
652.578	424.34
652.775	469.87
652.971	448.75
653.168	452.04
653.364	490.6
653.561	390.82
653.757	450.69
653.954	473.94
654.15	425.69
654.347	518.11
654.543	459.02
654.74	401.28
654.936	418.53
655.133	434.22
655.329	447.98
655.525	423.95
655.722	482.08
655.918	403.22
656.115	431.89
656.311	380.16
656.507	352.07
656.704	328.05
656.9	369.7
657.096	370.86
657.292	373.77
657.489	422.4
657.685	387.91
657.881	387.53
658.077	377.06
658.273	409.03
658.47	441.19
658.666	405.55
658.862	425.5
659.058	383.46
659.254	415.62
659.45	363.7
659.646	404.96
659.842	374.16
660.038	436.35
660.234	382.88
660.43	414.26
660.626	469.09
660.822	447.01
661.018	432.67
661.214	421.05
661.41	379
661.606	422.21
661.802	464.06
661.998	414.85
662.194	377.45
662.39	405.55
662.586	442.94
662.781	430.93
662.977	435.19
663.173	462.7
663.369	405.55
663.564	424.14
663.76	432.48
663.956	399.54
664.152	445.84
664.347	361.56
664.543	394.7
664.739	394.11
664.934	370.09
665.13	352.65
665.326	411.94
665.521	398.18
665.717	362.73
665.912	377.26
666.108	330.37
666.304	372.8
666.499	374.74
666.695	291.62
666.89	379.78
667.086	403.61
667.281	370.09
667.477	429.57
667.672	373.19
667.867	375.51
668.063	372.61
668.258	362.73
668.454	376.1
668.649	475.68
668.844	370.86
669.04	404.58
669.235	353.62
669.43	358.08
669.626	346.65
669.821	342.19
670.016	348.58
670.211	353.43
670.407	324.95
670.602	343.16
670.797	365.44
670.992	403.22
671.187	308.67
671.382	373.96
671.578	348.78
671.773	381.71
671.968	325.92
672.163	369.9
672.358	404.38
672.553	354.4
672.748	357.3
672.943	414.46
673.138	337.35
673.333	407.29
673.528	335.8
673.723	374.55
673.918	340.64
674.113	310.03
674.308	407.29
674.503	370.09
674.698	372.41
674.892	367.57
675.087	380.75
675.282	357.11
675.477	312.55
675.672	367.18
675.867	325.14
676.061	302.67
676.256	315.26
676.451	353.43
676.646	363.5
676.84	325.53
677.035	320.88
677.23	303.25
677.424	360.6
677.619	391.21
677.814	371.83
678.008	408.65
678.203	326.88
678.397	310.03
678.592	355.75
678.787	378.42
678.981	330.37
679.176	351.1
679.37	371.25
679.565	309.64
679.759	324.17
679.954	349.36
680.148	396.44
680.342	372.41
680.537	361.37
680.731	332.7
680.926	352.46
681.12	358.08
681.314	308.28
681.509	341.03
681.703	341.41
681.897	377.06
682.092	336.96
682.286	320.3
682.48	414.46
682.674	396.83
682.869	346.06
683.063	341.22
683.257	405.35
683.451	320.3
683.645	363.89
683.839	362.34
684.034	350.71
684.228	370.86
684.422	309.06
684.616	297.63
684.81	372.61
685.004	333.67
685.198	384.04
685.392	377.45
685.586	349.75
685.78	374.74
685.974	363.31
686.168	362.73
686.362	416.59
686.556	335.21
686.75	337.54
686.944	313.13
687.138	340.25
687.331	284.65
687.525	317.2
687.719	261.2
687.913	316.62
688.107	325.72
688.301	280.97
688.494	305.57
688.688	287.17
688.882	275.73
689.076	261.98
689.269	287.17
689.463	386.56
689.657	292.59
689.85	299.57
690.044	317.97
690.238	297.24
690.431	321.65
690.625	334.63
690.818	341.03
691.012	338.9
691.205	362.15
691.399	301.7
691.593	366.99
691.786	397.21
691.98	402.06
692.173	392.95
692.366	403.22
692.56	381.13
692.753	457.28
692.947	340.25
693.14	425.89
693.333	421.63
693.527	380.75
693.72	412.52
693.914	405.93
694.107	394.7
694.3	395.47
694.493	402.45
694.687	451.66
694.88	411.36
695.073	464.83
695.266	461.15
695.46	437.71
695.653	465.8
695.846	469.29
696.039	406.51
696.232	442.74
696.425	478.78
696.618	489.44
696.812	483.82
697.005	574.11
697.198	604.14
697.391	540.97
697.584	564.42
697.777	586.7
697.97	573.14
698.163	594.45
698.356	586.89
698.549	627.97
698.742	618.67
698.935	552.02
699.127	612.47
699.32	573.72
699.513	579.72
699.706	615.57
699.899	645.99
700.092	583.79
700.285	642.11
700.477	557.25
700.67	638.24
700.863	675.63
701.056	740.73
701.248	701.98
701.441	708.18
701.634	659.55
701.826	747.32
702.019	658.58
702.212	735.69
702.404	690.16
702.597	678.15
702.79	689.38
702.982	718.45
703.175	729.88
703.367	753.9
703.56	748.87
703.752	840.12
703.945	768.63
704.137	806.02
704.33	838.18
704.522	856.4
704.715	821.71
704.907	861.82
705.1	889.72
705.292	890.49
705.484	897.08
705.677	918.98
705.869	896.69
706.061	934.48
706.254	954.62
706.446	925.37
706.638	934.28
706.831	997.44
707.023	969.16
707.215	1016.62
707.407	1013.72
707.599	1040.07
707.792	1079.98
707.984	1049.75
708.176	1076.69
708.368	1057.5
708.56	1069.71
708.752	1064.87
708.944	1050.92
709.136	1127.83
709.329	1098.77
709.521	1199.72
709.713	1145.66
709.905	1169.88
710.097	1194.48
710.289	1190.42
710.481	1193.71
710.672	1232.07
710.864	1201.65
711.056	1247.76
711.248	1287.87
711.44	1228.78
711.632	1252.61
711.824	1293.3
712.016	1332.24
712.207	1339.79
712.399	1321
712.591	1375.44
712.783	1353.55
712.975	1375.64
713.166	1315.77
713.358	1358.39
713.55	1408.57
713.741	1411.09
713.933	1429.31
714.125	1393.85
714.316	1397.34
714.508	1455.46
714.7	1488.4
714.891	1459.92
715.083	1506.42
715.274	1503.9
715.466	1483.55
715.657	1526.57
715.849	1448.1
716.04	1523.47
716.232	1419.62
716.423	1542.84
716.615	1465.15
716.806	1406.25
716.998	1406.25
717.189	1358.39
717.381	1281.28
717.572	1285.35
717.763	1324.29
717.955	1305.31
718.146	1263.46
718.337	1275.08
718.528	1233.04
718.72	1176.85
718.911	1247.57
719.102	1225.29
719.293	1249.7
719.485	1246.02
719.676	1207.66
719.867	1190.61
720.058	1240.98
720.249	1253.38
720.44	1261.13
720.632	1290.78
720.823	1358.98
721.014	1439.19
721.205	1436.09
721.396	1470.19
721.587	1598.06
721.778	1595.15
721.969	1644.75
722.16	1688.54
722.351	1656.18
722.542	1800.91
722.733	1823.19
722.924	1701.91
723.115	1785.41
723.305	1781.15
723.496	1766.43
723.687	1703.26
723.878	1720.12
724.069	1723.22
724.26	1754.41
724.45	1664.13
724.641	1694.35
724.832	1665.48
725.023	1670.13
725.213	1665.48
725.404	1685.83
725.595	1721.48
725.785	1662.58
725.976	1741.82
726.167	1736.01
726.357	1741.82
726.548	1835.59
726.739	1772.63
726.929	1857.68
727.12	1847.02
727.31	1891.59
727.501	1836.37
727.691	1864.66
727.882	1847.02
728.072	1914.25
728.263	1917.74
728.453	1983.04
728.644	2008.8
728.834	1946.8
729.024	1945.64
729.215	1923.17
729.405	1965.79
729.596	2037.09
729.786	2044.45
729.976	2032.44
730.167	2101.03
730.357	2059.18
730.547	2038.64
730.737	2088.05
730.928	2149.08
731.118	2205.46
731.308	2133.58
731.498	2103.93
731.688	2244.59
731.879	2244.79
732.069	2249.24
732.259	2331.01
732.449	2350.38
732.639	2418.97
732.829	2452.68
733.019	2451.13
733.209	2513.32
733.399	2534.44
733.589	2601.09
733.779	2653.79
733.969	2603.03
734.159	2689.44
734.349	2761.51
734.539	2773.52
734.729	2779.72
734.919	2812.85
735.109	2875.82
735.299	2802
735.488	2861.29
735.678	2859.74
735.868	2870.78
736.058	2847.15
736.248	2849.86
736.437	2825.45
736.627	2844.24
736.817	2956.42
737.007	2886.67
737.196	2936.27
737.386	2919.8
737.576	2897.13
737.765	2978.12
737.955	2953.9
738.144	3014.93
738.334	3042.83
738.524	2965.33
738.713	3030.82
738.903	3014.55
739.092	3049.23
739.282	3083.52
739.471	3080.61
739.661	3066.47
739.85	3138.74
740.04	3139.12
740.229	3148.42
740.419	3172.45
740.608	3202.48
740.797	3210.42
740.987	3245.88
741.176	3288.12
741.365	3213.14
741.555	3148.81
741.744	3305.94
741.933	3278.04
742.123	3276.88
742.312	3309.82
742.501	3343.92
742.69	3411.15
742.88	3241.23
743.069	3454.35
743.258	3339.07
743.447	3435.36
743.636	3423.16
743.825	3341.01
744.014	3405.33
744.204	3408.24
744.393	3341.01
744.582	3472.18
744.771	3474.31
744.96	3408.24
745.149	3476.25
745.338	3461.33
745.527	3495.04
745.716	3498.72
745.905	3448.15
746.094	3514.99
746.283	3490.58
746.471	3513.64
746.66	3583.77
746.849	3537.08
747.038	3604.31
747.227	3489.23
747.416	3545.03
747.604	3481.86
747.793	3545.22
747.982	3554.33
748.171	3542.12
748.359	3571.96
748.548	3543.09
748.737	3532.82
748.926	3546.38
749.114	3481.67
749.303	3535.14
749.491	3563.04
749.68	3424.51
749.869	3562.08
750.057	3583.77
750.246	3528.94
750.434	3497.36
750.623	3517.13
750.811	3499.11
751	3544.25
751.188	3500.46
751.377	3536.11
751.565	3521.19
751.754	3481.48
751.942	3508.79
752.131	3556.26
752.319	3457.65
752.507	3452.41
752.696	3532.24
752.884	3544.25
753.072	3513.25
753.261	3497.94
753.449	3520.61
753.637	3514.41
753.825	3632.02
754.014	3528.17
754.202	3529.72
754.39	3570.02
754.578	3537.28
754.766	3479.54
754.955	3508.21
755.143	3560.14
755.331	3511.7
755.519	3534.37
755.707	3534.37
755.895	3497.36
756.083	3539.41
756.271	3459.97
756.459	3427.03
756.647	3481.67
756.835	3459
757.023	3476.25
757.211	3436.14
757.399	3424.71
757.587	3437.3
757.775	3387.32
757.963	3410.56
758.151	3447.96
758.339	3387.51
758.526	3362.9
758.714	3378.6
758.902	3264.67
759.09	3172.84
759.278	2998.27
759.465	2718.11
759.653	2399.79
759.841	2140.55
760.028	1836.56
760.216	1614.53
760.404	1510.29
760.591	1242.34
760.779	1068.55
760.967	947.46
761.154	801.56
761.342	802.15
761.529	810.28
761.717	854.85
761.905	842.25
762.092	892.82
762.28	816.87
762.467	842.45
762.655	789.94
762.842	800.4
763.029	838.38
763.217	835.47
763.404	811.45
763.592	863.37
763.779	801.56
763.966	836.25
764.154	905.41
764.341	947.46
764.528	985.04
764.716	1037.35
764.903	1086.37
765.09	1133.84
765.277	1205.53
765.465	1363.63
765.652	1407.99
765.839	1498.09
766.026	1612.78
766.213	1637.78
766.4	1764.49
766.588	1984
766.775	2034.77
766.962	2130.86
767.149	2178.53
767.336	2323.06
767.523	2330.81
767.71	2418.39
767.897	2540.83
768.084	2641.39
768.271	2669.09
768.458	2705.52
768.645	2785.15
768.832	2761.32
769.019	2805.88
769.206	2851.41
769.392	2914.57
769.579	2998.85
769.766	2952.74
769.953	2983.93
770.14	3048.26
770.327	2981.61
770.513	3084.49
770.7	3112.97
770.887	3033.34
771.073	3122.46
771.26	3084.68
771.447	3049.03
771.634	3037.41
771.82	3159.08
772.007	3038.18
772.193	3065.89
772.38	3116.84
772.567	3104.83
772.753	3082.36
772.94	3144.36
773.126	3154.82
773.313	3146.68
773.499	3129.83
773.686	3192.02
773.872	3109.68
774.059	3101.73
774.245	3057.75
774.432	3098.05
774.618	2983.35
774.804	3080.81
774.991	2999.24
775.177	3057.17
775.363	3064.14
775.55	3047.68
775.736	3008.54
775.922	3051.74
776.109	3031.98
776.295	3047.68
776.481	3051.74
776.667	3094.37
776.853	3026.75
777.04	3037.02
777.226	2998.27
777.412	3054.46
777.598	2983.74
777.784	3015.32
777.97	2975.21
778.156	3024.43
778.342	3067.83
778.528	3008.73
778.715	2941.12
778.901	2983.35
779.087	2994.01
779.272	2944.22
779.458	2894.81
779.644	2952.93
779.83	2925.62
780.016	3020.75
780.202	2953.13
780.388	2938.21
780.574	2857.22
780.76	2901.01
780.946	2927.75
781.131	2903.33
781.317	2885.51
781.503	2872.53
781.689	2859.74
781.874	2986.65
782.06	2850.83
782.246	2872.33
782.432	2869.82
782.617	2857.8
782.803	2930.46
782.989	2814.21
783.174	2799.87
783.36	2740.97
783.545	2771.01
783.731	2830.49
783.916	2739.04
784.102	2795.22
784.288	2782.24
784.473	2781.08
784.659	2768.1
784.844	2825.64
785.029	2730.12
785.215	2781.27
785.4	2735.55
785.586	2791.93
785.771	2698.93
785.956	2741.75
786.142	2705.32
786.327	2706.68
786.512	2710.94
786.698	2704.55
786.883	2631.7
787.068	2681.11
787.254	2677.62
787.439	2680.91
787.624	2665.22
787.809	2621.24
787.994	2605.35
788.18	2684.98
788.365	2585.4
788.55	2597.02
788.735	2615.04
788.92	2568.15
789.105	2587.72
789.29	2595.28
789.475	2521.46
789.66	2509.45
789.845	2526.11
790.03	2505.38
790.215	2600.51
790.4	2578.61
790.585	2544.71
790.77	2527.46
790.955	2466.05
791.14	2517
791.325	2607.48
791.51	2424.78
791.695	2501.89
791.879	2490.85
792.064	2460.04
792.249	2529.4
792.434	2497.05
792.618	2462.56
792.803	2554.78
792.988	2475.73
793.173	2487.55
793.357	2510.8
793.542	2453.65
793.727	2511.58
793.911	2530.37
794.096	2493.17
794.281	2558.08
794.465	2588.5
794.65	2496.27
794.834	2509.06
795.019	2595.08
795.203	2575.32
795.388	2571.83
795.572	2583.85
795.757	2560.01
795.941	2567.76
796.126	2524.36
796.31	2484.07
796.494	2525.91
796.679	2464.5
796.863	2513.32
797.048	2591.79
797.232	2561.37
797.416	2553.62
797.601	2562.34
797.785	2612.33
797.969	2563.7
798.153	2528.24
798.338	2594.89
798.522	2597.6
798.706	2598.38
798.89	2613.29
799.074	2675.88
799.258	2646.81
799.443	2593.34
799.627	2552.65
799.811	2614.46
799.995	2584.23
800.179	2550.13
800.363	2567.76
800.547	2613.1
800.731	2636.93
800.915	2517.2
801.099	2524.36
801.283	2550.33
801.467	2559.63
801.651	2527.08
801.835	2631.51
802.019	2561.95
802.202	2536.38
802.386	2514.29
802.57	2499.76
802.754	2518.55
802.938	2493.95
803.121	2529.79
803.305	2590.24
803.489	2523.4
803.673	2570.86
803.856	2523.78
804.04	2529.6
804.224	2541.22
804.407	2540.06
804.591	2483.1
804.775	2535.6
804.958	2575.71
805.142	2622.01
805.326	2543.55
805.509	2541.61
805.693	2589.46
805.876	2565.63
806.06	2583.65
806.243	2586.36
806.427	2631.89
806.61	2615.62
806.794	2550.33
806.977	2586.17
807.16	2573.77
807.344	2594.89
807.527	2594.5
807.71	2573.96
807.894	2584.62
808.077	2601.48
808.26	2556.33
808.444	2489.1
808.627	2604.96
808.81	2527.27
808.993	2454.23
809.177	2498.98
809.36	2451.32
809.543	2512.74
809.726	2444.54
809.909	2428.27
810.092	2390.1
810.276	2376.34
810.459	2391.07
810.642	2368.79
810.825	2362.39
811.008	2341.86
811.191	2310.86
811.374	2294.97
811.557	2290.51
811.74	2384.29
811.923	2242.46
812.106	2257.77
812.289	2192.09
812.472	2246.34
812.654	2217.86
812.837	2161.28
813.02	2127.96
813.203	2115.36
813.386	2007.06
813.569	1996.21
813.751	1940.99
813.934	2009.58
814.117	1942.93
814.3	1880.74
814.482	1844.7
814.665	1841.6
814.848	1789.29
815.03	1732.33
815.213	1718.57
815.396	1709.46
815.578	1718.18
815.761	1657.73
815.943	1707.33
816.126	1638.75
816.309	1583.53
816.491	1534.7
816.674	1515.72
816.856	1555.82
817.039	1546.14
817.221	1639.91
817.403	1572.29
817.586	1606.39
817.768	1634.68
817.951	1501.19
818.133	1499.64
818.315	1541.49
818.498	1539.16
818.68	1636.81
818.862	1611.43
819.045	1617.63
819.227	1600
819.409	1593.6
819.591	1613.95
819.774	1649.79
819.956	1585.27
820.138	1658.31
820.32	1624.41
820.502	1693.77
820.684	1754.22
820.866	1733.29
821.048	1832.49
821.231	1838.69
821.413	1819.32
821.595	1814.28
821.777	1832.88
821.959	1829.01
822.141	1829.78
822.323	1716.63
822.505	1659.86
822.686	1612.59
822.868	1527.92
823.05	1419.42
823.232	1407.99
823.414	1350.26
823.596	1423.3
823.778	1404.31
823.96	1431.82
824.141	1433.76
824.323	1458.17
824.505	1495.18
824.687	1572.1
824.868	1655.6
825.05	1692.8
825.232	1719.54
825.413	1815.64
825.595	1752.86
825.777	1712.18
825.958	1777.28
826.14	1743.56
826.321	1762.94
826.503	1763.91
826.685	1773.59
826.866	1797.43
827.048	1772.82
827.229	1725.35
827.411	1677.5
827.592	1642.82
827.773	1639.52
827.955	1641.07
828.136	1620.34
828.318	1569.58
828.499	1607.75
828.68	1553.3
828.862	1579.46
829.043	1652.89
829.224	1577.91
829.406	1566.48
829.587	1533.54
829.768	1539.35
829.949	1594.77
830.131	1600.19
830.312	1645.53
830.493	1578.68
830.674	1626.73
830.855	1559.89
831.036	1580.82
831.218	1654.25
831.399	1655.8
831.58	1593.02
831.761	1605.03
831.942	1610.27
832.123	1592.44
832.304	1543.81
832.485	1519.2
832.666	1604.07
832.847	1626.35
833.028	1591.47
833.209	1612.78
833.389	1603.48
833.57	1557.95
833.751	1547.69
833.932	1630.8
834.113	1612.2
834.294	1577.72
834.475	1610.07
834.655	1608.52
834.836	1628.48
835.017	1652.31
835.198	1583.14
835.378	1627.51
835.559	1649.21
835.74	1630.42
835.92	1600.38
836.101	1609.3
836.281	1663.35
836.462	1647.85
836.643	1670.71
836.823	1661.8
837.004	1680.6
837.184	1705.01
837.365	1686.21
837.545	1704.62
837.726	1633.13
837.906	1689.9
838.087	1699.78
838.267	1680.98
838.448	1644.95
838.628	1646.88
838.808	1693.96
838.989	1707.53
839.169	1632.93
839.349	1713.53
839.53	1700.94
839.71	1688.93
839.89	1668
840.07	1718.38
840.251	1660.64
840.431	1721.28
840.611	1674.01
840.791	1634.29
840.971	1724
841.151	1669.75
841.332	1642.43
841.512	1698.61
841.692	1630.61
841.872	1679.82
842.052	1663.93
842.232	1693.38
842.412	1651.34
842.592	1646.5
842.772	1667.42
842.952	1675.17
843.132	1633.52
843.312	1606.2
843.492	1621.5
843.672	1680.98
843.851	1594.96
844.031	1630.42
844.211	1643.98
844.391	1593.02
844.571	1641.07
844.751	1655.21
844.93	1643.98
845.11	1600.19
845.29	1633.52
845.47	1664.32
845.649	1619.57
845.829	1658.9
846.009	1607.75
846.188	1650.18
846.368	1644.17
846.547	1611.82
846.727	1664.13
846.907	1554.66
847.086	1634.48
847.266	1638.94
847.445	1618.98
847.625	1583.72
847.804	1554.85
847.984	1583.92
848.163	1587.21
848.343	1565.32
848.522	1598.45
848.701	1588.95
848.881	1551.56
849.06	1539.94
849.239	1571.52
849.419	1569
849.598	1483.17
849.777	1505.45
849.957	1472.7
850.136	1453.72
850.315	1430.08
850.494	1416.71
850.674	1439.38
850.853	1535.48
851.032	1464.76
851.211	1516.1
851.39	1476.58
851.569	1418.84
851.748	1442.48
851.927	1465.54
852.107	1471.93
852.286	1451.78
852.465	1426.01
852.644	1513.97
852.823	1508.16
853.002	1451.01
853.181	1488.59
853.359	1465.34
853.538	1383.39
853.717	1483.75
853.896	1354.33
854.075	1320.03
854.254	1301.24
854.433	1245.05
854.611	1284.38
854.79	1220.83
854.969	1306.86
855.148	1305.31
855.327	1264.23
855.505	1325.65
855.684	1316.54
855.863	1345.03
856.041	1291.36
856.22	1344.06
856.399	1342.51
856.577	1436.47
856.756	1357.81
856.934	1475.61
857.113	1496.15
857.291	1420.59
857.47	1354.71
857.648	1410.12
857.827	1432.6
858.005	1451.59
858.184	1378.54
858.362	1462.63
858.541	1381.64
858.719	1419.04
858.898	1404.31
859.076	1399.86
859.254	1433.57
859.433	1370.21
859.611	1351.42
859.789	1341.54
859.967	1418.26
860.146	1468.06
860.324	1366.73
860.502	1390.36
860.68	1313.25
860.859	1354.33
861.037	1342.51
861.215	1343.67
861.393	1383.58
861.571	1347.54
861.749	1319.26
861.927	1403.34
862.105	1331.08
862.283	1323.33
862.461	1301.24
862.639	1319.45
862.817	1331.08
862.995	1333.59
863.173	1355.1
863.351	1325.46
863.529	1333.59
863.707	1389.59
863.885	1357.23
864.063	1297.17
864.241	1305.69
864.418	1349.87
864.596	1303.95
864.774	1275.86
864.952	1250.48
865.129	1304.73
865.307	1283.41
865.485	1204.95
865.663	1303.37
865.84	1201.46
866.018	1258.23
866.196	1099.74
866.373	1123.38
866.551	1118.54
866.728	1051.11
866.906	1112.14
867.084	1127.83
867.261	1159.8
867.439	1160.77
867.616	1216.96
867.794	1154.18
867.971	1200.68
868.149	1208.24
868.326	1289.03
868.503	1240.01
868.681	1215.41
868.858	1189.64
869.035	1173.17
869.213	1229.16
869.39	1200.1
869.567	1252.41
869.745	1181.89
869.922	1237.69
870.099	1219.48
870.276	1234.59
870.454	1209.4
870.631	1229.94
870.808	1178.98
870.985	1245.25
871.162	1257.84
871.339	1199.72
871.517	1179.76
871.694	1162.13
871.871	1179.37
872.048	1180.34
872.225	1193.32
872.402	1187.32
872.579	1141.59
872.756	1186.15
872.933	1140.43
873.11	1186.93
873.287	1188.67
873.463	1148.18
873.64	1135.2
873.817	1146.05
873.994	1132.1
874.171	1079.79
874.348	1161.93
874.524	1127.45
874.701	1139.27
874.878	1080.37
875.055	1127.83
875.231	1117.95
875.408	1161.16
875.585	1078.24
875.762	1104.39
875.938	1077.65
876.115	1132.68
876.291	1096.25
876.468	1101.49
876.645	1029.61
876.821	1048.01
876.998	1106.52
877.174	1091.22
877.351	1094.12
877.527	1053.24
877.704	1122.02
877.88	1064.09
878.057	1087.54
878.233	1106.91
878.409	1083.66
878.586	1104.39
878.762	1061.38
878.938	1062.74
879.115	990.66
879.291	1044.33
879.467	1008.87
879.644	1011.59
879.82	1053.24
879.996	1031.93
880.172	989.89
880.349	1018.76
880.525	1060.02
880.701	980.78
880.877	1013.91
881.053	1027.47
881.229	1007.32
881.405	1048.2
881.581	1011.39
881.757	1022.24
881.933	1014.49
882.109	1029.41
882.285	1016.82
882.461	1007.91
882.637	1024.96
882.813	984.85
882.989	983.49
883.165	1075.52
883.341	1006.94
883.517	1032.9
883.693	1011.97
883.869	1030.38
884.044	989.5
884.22	1022.82
884.396	1071.84
884.572	1021.47
884.747	1038.52
884.923	1008.49
885.099	1044.33
885.275	1057.5
885.45	977.29
885.626	969.16
885.801	1001.9
885.977	998.61
886.153	936.8
886.328	1020.5
886.504	981.56
886.679	1028.83
886.855	963.92
887.03	1029.61
887.206	1027.09
887.381	1033.48
887.557	1062.74
887.732	1015.27
887.908	1035.61
888.083	1012.75
888.258	996.09
888.434	990.86
888.609	994.34
888.784	1019.14
888.96	992.21
889.135	984.46
889.31	976.13
889.485	1020.5
889.661	999.38
889.836	1056.54
890.011	1021.08
890.186	972.45
890.361	994.92
890.537	1009.07
890.712	988.34
890.887	1042.59
891.062	1011.39
891.237	1044.72
891.412	943.58
891.587	1010.23
891.762	1034.64
891.937	1048.01
892.112	947.46
892.287	967.99
892.462	955.59
892.637	937.38
892.812	903.28
892.987	890.88
893.161	926.34
893.336	920.53
893.511	923.43
893.686	925.76
893.861	904.83
894.035	889.33
894.21	920.91
894.385	862.01
894.56	881
894.734	834.89
894.909	832.56
895.084	810.28
895.258	831.21
895.433	841.86
895.608	794.59
895.782	744.8
895.957	791.1
896.131	778.7
896.306	718.83
896.48	713.99
896.655	714.38
896.829	634.55
897.004	676.99
897.178	656.84
897.353	660.13
897.527	702.95
897.701	680.09
897.876	674.08
898.05	731.62
898.224	683.57
898.399	685.9
898.573	672.14
898.747	560.16
898.921	601.42
899.096	522.76
899.27	538.07
899.444	558.02
899.618	561.32
899.792	592.32
899.967	608.2
900.141	636.88
900.315	555.12
900.489	582.63
900.663	584.37
900.837	586.31
901.011	534
901.185	650.44
901.359	610.53
901.533	599.68
901.707	572.94
901.881	559.38
902.055	568.68
902.229	610.72
902.403	622.74
902.576	589.8
902.75	593.87
902.924	675.82
903.098	641.92
903.272	677.57
903.446	730.07
903.619	708.57
903.793	732.01
903.967	710.5
904.14	737.63
904.314	765.92
904.488	733.56
904.661	751
904.835	742.86
905.009	757.58
905.182	818.42
905.356	769.6
905.529	748.48
905.703	715.54
905.876	701.2
906.05	681.25
906.223	668.85
906.397	604.52
906.57	623.12
906.744	580.69
906.917	573.14
907.09	576.04
907.264	559.38
907.437	542.72
907.61	537.1
907.784	550.27
907.957	555.89
908.13	518.89
908.304	546.4
908.477	542.91
908.65	511.91
908.823	481.49
908.996	567.52
909.17	521.79
909.343	546.79
909.516	505.71
909.689	506.49
909.862	500.29
910.035	501.84
910.208	492.15
910.381	497.38
910.554	558.02
910.727	519.08
910.9	490.6
911.073	500.87
911.246	571.2
911.419	550.27
911.592	550.66
911.765	516.37
911.938	487.69
912.11	523.73
912.283	491.76
912.456	545.82
912.629	536.71
912.802	504.55
912.974	459.6
913.147	418.91
913.32	400.31
913.493	391.79
913.665	436.54
913.838	427.24
914.01	434.22
914.183	450.3
914.356	436.16
914.528	492.15
914.701	516.95
914.873	446.43
915.046	465.41
915.218	392.37
915.391	343.74
915.563	365.05
915.736	427.83
915.908	461.54
916.081	432.86
916.253	455.14
916.425	440.61
916.598	472.97
916.77	459.21
916.942	391.21
917.115	366.8
917.287	454.37
917.459	407.29
917.632	382.1
917.804	339.48
917.976	405.35
918.148	428.79
918.32	403.03
918.493	425.31
918.665	468.9
918.837	435.77
919.009	504.16
919.181	486.53
919.353	460.18
919.525	466.19
919.697	481.88
919.869	462.51
920.041	531.67
920.213	560.16
920.385	513.46
920.557	482.08
920.729	504.16
920.901	488.47
921.073	450.69
921.244	462.31
921.416	518.5
921.588	487.5
921.76	471.81
921.932	518.5
922.103	441.97
922.275	468.13
922.447	480.91
922.619	416.2
922.79	446.81
922.962	452.24
923.134	502.42
923.305	425.31
923.477	400.9
923.648	391.98
923.82	395.86
923.991	386.95
924.163	349.55
924.335	413.68
924.506	400.31
924.677	444.1
924.849	371.06
925.02	416.78
925.192	415.81
925.363	383.85
925.535	418.53
925.706	412.52
925.877	463.86
926.049	370.86
926.22	419.5
926.391	409.23
926.562	424.14
926.734	370.28
926.905	434.03
927.076	342.96
927.247	364.66
927.419	344.32
927.59	350.52
927.761	350.13
927.932	322.82
928.103	311
928.274	301.12
928.445	283.1
928.616	297.43
928.787	292.98
928.958	305.18
929.129	304.8
929.3	278.64
929.471	261.59
929.642	201.92
929.813	147.86
929.984	263.72
930.155	174.21
930.326	224.78
930.496	168.4
930.667	107.17
930.838	189.52
931.009	134.11
931.18	132.17
931.35	145.34
931.521	142.63
931.692	89.16
931.863	73.46
932.033	124.03
932.204	111.63
932.374	104.85
932.545	63.39
932.716	110.66
932.886	113.37
933.057	44.4
933.227	39.56
933.398	139.14
933.568	52.73
933.739	20.96
933.909	55.83
934.08	82.18
934.25	-21.47
934.421	4.49
934.591	54.48
934.761	23.67
934.932	-0.74
935.102	44.01
935.272	46.73
935.443	31.61
935.613	22.12
935.783	48.28
935.953	11.85
936.123	167.62
936.294	-1.52
936.464	13.59
936.634	29.68
936.804	5.65
936.974	8.94
937.144	50.02
937.314	46.92
937.484	13.01
937.655	-4.42
937.825	83.92
937.995	-1.52
938.165	71.33
938.334	62.81
938.504	69.78
938.674	44.98
938.844	84.7
939.014	134.11
939.184	84.89
939.354	120.54
939.524	127.32
939.694	79.66
939.863	74.82
940.033	125.58
940.203	122.09
940.373	95.55
940.542	126.36
940.712	87.02
940.882	100.78
941.051	138.76
941.221	130.62
941.391	133.72
941.56	84.89
941.73	84.12
941.899	168.59
942.069	73.66
942.238	104.46
942.408	55.64
942.577	105.04
942.747	64.55
942.916	24.64
943.086	27.93
943.255	94.19
943.425	96.52
943.594	67.65
943.763	8.56
943.933	39.94
944.102	-3.07
944.271	73.46
944.441	72.49
944.61	45.76
944.779	67.65
944.948	149.61
945.117	30.06
945.287	31.23
945.456	4.88
945.625	21.93
945.794	59.51
945.963	36.84
946.132	60.87
946.301	45.56
946.47	106.4
946.639	2.55
946.808	19.6
946.977	70.94
947.146	94.97
947.315	51.18
947.484	118.8
947.653	71.14
947.822	59.71
947.991	34.13
948.16	135.46
948.329	104.07
948.498	40.53
948.666	54.09
948.835	91.48
949.004	21.93
949.173	30.64
949.341	54.48
949.51	81.6
949.679	88.38
949.847	106.98
950.016	149.41
950.185	122.09
950.353	76.37
950.522	75.4
950.69	101.17
950.859	28.71
951.028	112.79
951.196	70.56
951.365	35.68
951.533	53.31
951.701	108.14
951.87	78.11
952.038	25.61
952.207	48.86
952.375	112.99
952.543	69.78
952.712	39.75
952.88	50.02
953.048	108.92
953.217	71.53
953.385	58.74
953.553	98.46
953.721	23.86
953.89	71.14
954.058	13.79
954.226	51.76
954.394	84.31
954.562	-1.32
954.73	42.27
954.898	25.8
955.067	87.02
955.235	19.02
955.403	78.89
955.571	135.66
955.739	70.17
955.907	22.7
956.075	61.84
956.243	21.54
956.41	71.33
956.578	1.58
956.746	30.84
956.914	49.44
957.082	110.86
957.25	83.15
957.418	47.11
957.585	78.89
957.753	94.58
957.921	33.55
958.089	61.06
958.256	92.84
958.424	99.62
958.592	65.33
958.759	62.23
958.927	126.94
959.095	23.48
959.262	64.36
959.43	83.54
959.597	48.66
959.765	53.89
959.932	35.68
960.1	70.17
960.267	57.38
960.435	74.62
960.602	91.48
960.77	59.9
960.937	25.8
961.104	68.43
961.272	46.53
961.439	55.44
961.606	65.33
961.774	85.86
961.941	61.64
962.108	90.32
962.275	73.85
962.443	113.76
962.61	80.24
962.777	120.74
962.944	110.47
963.111	97.1
963.278	73.07
963.446	95.94
963.613	88.77
963.78	124.42
963.947	116.47
964.114	83.34
964.281	165.69
964.448	99.62
964.615	78.11
964.782	82.57
964.949	101.17
965.116	115.12
965.282	124.22
965.449	96.13
965.616	68.04
965.783	110.47
965.95	87.8
966.117	63.58
966.283	85.09
966.45	67.26
966.617	112.79
966.784	148.06
966.95	107.95
967.117	132.56
967.284	107.76
967.45	87.22
967.617	158.71
967.784	106.01
967.95	159.29
968.117	93.81
968.283	159.29
968.45	186.03
968.616	127.71
968.783	146.12
968.949	117.44
969.116	152.12
969.282	97.29
969.449	96.91
969.615	122.87
969.781	100.78
969.948	100.78
970.114	56.03
970.28	159.49
970.447	104.66
970.613	155.22
970.779	90.51
970.945	135.85
971.112	112.41
971.278	83.73
971.444	122.48
971.61	147.09
971.776	106.98
971.942	103.49
972.108	130.42
972.275	100.39
972.441	133.91
972.607	154.84
972.773	88.96
972.939	135.46
973.105	100.97
973.271	88.77
973.437	89.35
973.602	57.58
973.768	111.63
973.934	97.29
974.1	144.37
974.266	32.78
974.432	107.17
974.598	81.02
974.763	122.48
974.929	71.72
975.095	143.79
975.261	82.18
975.426	40.14
975.592	93.61
975.758	142.05
975.923	49.83
976.089	53.51
976.255	115.31
976.42	103.88
976.586	105.62
976.751	115.31
976.917	181.77
977.082	124.22
977.248	64.94
977.413	26.58
977.579	82.57
977.744	99.04
977.91	30.26
978.075	74.04
978.24	107.37
978.406	97.68
978.571	71.72
978.736	57.96
978.902	83.92
979.067	55.06
979.232	49.24
979.397	115.51
979.563	143.6
979.728	65.52
979.893	94
980.058	67.84
980.223	96.13
980.388	90.51
980.554	85.86
980.719	89.74
980.884	81.6
981.049	129.84
981.214	75.98
981.379	92.84
981.544	91.87
981.709	69.98
981.874	68.62
982.039	83.54
982.204	101.36
982.368	102.33
982.533	70.17
982.698	135.85
982.863	98.07
983.028	65.13
983.193	88.38
983.357	80.82
983.522	105.04
983.687	81.41
983.852	59.9
984.016	90.51
984.181	78.31
984.346	96.52
984.51	121.9
984.675	100.01
984.839	98.07
985.004	97.1
985.168	145.15
985.333	109.31
985.498	84.51
985.662	114.73
985.827	106.79
985.991	105.62
986.155	65.91
986.32	112.99
986.484	185.84
986.649	104.85
986.813	42.66
986.977	107.76
987.142	112.6
987.306	54.09
987.47	83.92
987.634	71.72
987.799	118.41
987.963	76.76
988.127	97.49
988.291	183.51
988.455	119.19
988.62	71.91
988.784	125.19
988.948	88.57
989.112	29.48
989.276	112.79
989.44	101.94
989.604	75.98
989.768	78.89
989.932	164.52
990.096	52.15
990.26	25.61
990.424	42.66
990.588	98.46
990.752	156.77
990.915	106.59
991.079	79.47
991.243	78.31
991.407	106.01
991.571	88.38
991.734	82.57
991.898	102.14
992.062	186.03
992.226	66.1
992.389	48.47
992.553	14.56
992.717	55.06
992.88	62.61
993.044	104.66
993.207	68.43
993.371	108.92
993.535	91.87
993.698	80.63
993.862	93.81
994.025	126.74
994.189	112.02
994.352	81.02
994.515	82.76
994.679	104.85
994.842	44.98
995.006	103.49
995.169	43.24
995.332	68.81
995.496	109.11
995.659	18.05
995.822	55.44
995.985	68.62
996.149	93.42
996.312	67.46
996.475	111.24
996.638	50.02
996.801	101.94
996.964	132.56
997.128	39.75
997.291	70.17
997.454	88.19
997.617	29.68
997.78	100.2
997.943	60.29
998.106	109.69
998.269	58.54
998.432	65.71
998.595	46.14
998.758	22.31
998.92	13.59
999.083	-3.84
999.246	45.56
999.409	62.03
999.572	-7.72
999.735	43.82
999.897	84.31
1000.06	40.91
1000.223	47.5
1000.386	79.27
1000.548	90.51
1000.711	69.39
1000.874	97.1
1001.036	24.83
1001.199	85.47
1001.361	43.04
1001.524	69.98
1001.687	63.97
1001.849	35.29
1002.012	62.23
1002.174	49.05
1002.337	69.39
1002.499	43.43
1002.661	78.89
1002.824	24.25
1002.986	37.81
1003.149	48.28
1003.311	30.26
1003.473	96.52
1003.636	27.54
1003.798	70.94
1003.96	71.53
1004.123	47.5
1004.285	36.84
1004.447	35.49
1004.609	56.22
1004.771	106.59
1004.933	18.24
1005.096	22.51
1005.258	-1.91
1005.42	43.63
1005.582	89.35
1005.744	49.24
1005.906	4.49
1006.068	34.52
1006.23	14.18
1006.392	-13.14
1006.554	-0.74
1006.716	59.51
1006.878	74.04
1007.04	-4.62
1007.202	13.59
1007.363	40.53
1007.525	74.04
1007.687	41.49
1007.849	84.7
1008.011	4.1
1008.172	5.07
1008.334	33.16
1008.496	79.86
1008.658	-26.9
1008.819	45.56
1008.981	15.53
1009.143	23.28
1009.304	54.86
1009.466	80.05
1009.627	88.77
1009.789	123.26
1009.95	52.34
1010.112	30.84
1010.273	60.29
1010.435	16.11
1010.596	45.56
1010.758	34.52
1010.919	18.24
1011.081	4.1
1011.242	37.43
1011.403	57.19
1011.565	39.94
1011.726	46.34
1011.887	9.91
1012.049	-1.13
1012.21	69.01
1012.371	94.77
1012.532	-42.01
1012.693	22.89
1012.855	-12.56
1013.016	16.31
1013.177	51.38
1013.338	19.79
1013.499	88.38
1013.66	33.36
1013.821	66.29
1013.982	45.76
1014.143	29.68
1014.304	12.43
1014.465	53.51
1014.626	51.76
1014.787	33.36
1014.948	105.43
1015.109	-22.83
1015.27	63.78
1015.431	18.05
1015.592	-3.26
1015.752	85.67
1015.913	21.15
1016.074	38.39
1016.235	29.68
1016.395	1
1016.556	24.06
1016.717	44.98
1016.877	66.29
1017.038	23.48
1017.199	41.88
1017.359	45.56
1017.52	18.83
1017.681	21.34
1017.841	21.93
1018.002	13.4
1018.162	19.99
1018.323	78.5
1018.483	-4.04
1018.644	44.98
1018.804	-34.84
1018.964	-4.62
1019.125	9.33
1019.285	32.58
1019.446	-28.45
1019.606	8.94
1019.766	-34.84
1019.926	32.39
1020.087	40.53
1020.247	-15.08
1020.407	21.73
1020.567	44.59
1020.728	7.59
1020.888	-20.12
1021.048	16.5
1021.208	18.44
1021.368	2.55
1021.528	40.14
1021.688	41.49
1021.848	56.8
1022.008	48.28
1022.168	15.14
1022.328	38.01
1022.488	39.94
1022.648	6.04
1022.808	31.23
1022.968	21.73
1023.128	-6.75
1023.288	-27.29
1023.448	29.29
1023.608	36.84
1023.767	26.58
1023.927	-18.95
1024.087	-11.98
1024.247	-11.98
1024.406	-15.27
1024.566	-6.56
1024.726	-31.16
1024.885	25.61
1025.045	45.95
1025.205	6.62
1025.364	-8.3
1025.524	5.65
1025.683	25.41
1025.843	34.91
1026.003	15.92
1026.162	37.62
1026.321	59.32
1026.481	19.99
1026.64	-2.49
1026.8	21.54
1026.959	3.91
1027.119	5.84
1027.278	17.28
1027.437	-10.04
1027.597	-2.87
1027.756	7.01
1027.915	48.08
1028.074	40.14
1028.234	-6.56
1028.393	13.59
1028.552	8.17
1028.711	-45.3
1028.87	38.78
1029.03	-18.76
1029.189	-16.63
1029.348	-30.97
1029.507	-15.47
1029.666	9.33
1029.825	-42.4
1029.984	-25.93
1030.143	28.32
1030.302	-6.17
1030.461	-49.18
1030.62	25.61
1030.779	0.23
1030.938	-34.65
1031.097	-0.74
1031.255	34.13
1031.414	53.7
1031.573	35.49
1031.732	-18.37
1031.891	9.91
1032.049	43.43
1032.208	41.3
1032.367	-20.31
1032.525	0.03
1032.684	6.43
1032.843	-10.24
1033.001	-42.2
1033.16	121.12
1033.319	55.83
1033.477	35.1
1033.636	-12.17
1033.794	-38.33
1033.953	13.79
1034.111	18.44
1034.27	11.66
1034.428	11.27
1034.587	-39.3
1034.745	14.76
1034.903	1
1035.062	25.61
1035.22	-42.2
1035.378	23.86
1035.537	-23.22
1035.695	30.45
1035.853	-5.97
1036.011	18.83
1036.17	23.48
1036.328	-38.52
1036.486	8.36
1036.644	-2.49
1036.802	-66.23
1036.96	-17.4
1037.119	-16.05
1037.277	-11.4
1037.435	-23.41
1037.593	-35.81
1037.751	-19.54
1037.909	19.02
1038.067	19.02
