Data from oakcork_FLMT105791__260__17-34-06-053.txt Node

Date: Mon Mar 20 17:34:06 GMT 2023
User: antho
Spectrometer: FLMT10579
Trigger mode: 0
Integration Time (sec): 1.000000E-1
Scans to average: 10
Electric dark correction enabled: true
Nonlinearity correction enabled: false
Boxcar width: 0
XAxis mode: Wavelengths
Number of Pixels in Spectrum: 3648
>>>>>Begin Spectral Data<<<<<
345.248	-138.55
345.464	-138.55
345.681	-138.55
345.898	-173.81
346.114	-142.61
346.331	-22.1
346.548	37.76
346.764	3.08
346.981	-17.26
347.197	-25.78
347.414	8.9
347.631	-33.15
347.847	63.73
348.064	-10.28
348.28	48.81
348.497	-45.35
348.713	-8.35
348.93	34.08
349.146	21.49
349.363	-19.2
349.579	33.11
349.796	-11.64
350.012	7.93
350.229	12.96
350.445	13.55
350.661	-21.13
350.878	4.44
351.094	-1.37
351.311	20.52
351.527	21.68
351.743	-3.31
351.96	72.06
352.176	12.38
352.392	9.28
352.609	36.8
352.825	2.89
353.041	17.23
353.257	-16.48
353.474	35.25
353.69	21.3
353.906	37.38
354.122	-9.7
354.339	47.06
354.555	28.85
354.771	-15.13
354.987	36.02
355.203	62.37
355.42	-0.4
355.636	-3.12
355.852	7.54
356.068	7.93
356.284	-24.62
356.5	55.4
356.716	30.98
356.932	-6.99
357.148	32.34
357.364	6.96
357.58	39.31
357.796	70.7
358.012	31.56
358.228	38.93
358.444	-44.77
358.66	23.23
358.876	-0.02
359.092	-39.35
359.308	18.2
359.524	14.71
359.74	-7.57
359.956	-15.71
360.172	-11.64
360.388	46.87
360.604	23.04
360.819	78.84
361.035	22.65
361.251	47.45
361.467	-42.45
361.683	57.14
361.898	34.28
362.114	15.1
362.33	9.09
362.546	35.63
362.762	4.83
362.977	18.58
363.193	-4.28
363.409	64.89
363.624	-22.3
363.84	-19.78
364.056	-1.95
364.271	40.67
364.487	23.62
364.703	2.12
364.918	-13.19
365.134	2.12
365.35	9.28
365.565	109.06
365.781	14.13
365.996	44.55
366.212	55.78
366.427	50.36
366.643	-15.52
366.858	27.69
367.074	-3.12
367.289	71.86
367.505	128.44
367.72	-5.25
367.936	6.96
368.151	55.4
368.367	13.74
368.582	34.08
368.798	-0.98
369.013	65.28
369.228	25.17
369.444	32.34
369.659	54.62
369.874	22.65
370.09	71.09
370.305	-31.98
370.52	23.23
370.736	67.02
370.951	26.91
371.166	60.63
371.381	93.76
371.597	31.18
371.812	3.08
372.027	0.95
372.242	7.35
372.458	64.89
372.673	5.22
372.888	16.06
373.103	42.61
373.318	93.76
373.533	76.13
373.749	27.11
373.964	-26.37
374.179	63.53
374.394	3.28
374.609	73.8
374.824	-6.6
375.039	44.35
375.254	21.88
375.469	89.69
375.684	54.23
375.899	48.61
376.114	8.51
376.329	34.86
376.544	58.69
376.759	52.88
376.974	-1.76
377.189	9.86
377.404	12
377.619	63.34
377.834	-24.23
378.049	3.67
378.264	3.47
378.478	47.65
378.693	15.87
378.908	52.88
379.123	22.65
379.338	83.49
379.553	34.86
379.767	25.17
379.982	55.01
380.197	63.34
380.412	31.95
380.626	74
380.841	124.95
381.056	45.71
381.271	99.57
381.485	33.11
381.7	7.54
381.915	49.58
382.129	27.3
382.344	49.97
382.559	26.72
382.773	85.81
382.988	-13.77
383.202	37.38
383.417	-26.17
383.632	97.05
383.846	50.55
384.061	36.6
384.275	11.41
384.49	74.19
384.704	32.73
384.919	36.6
385.133	44.74
385.348	57.72
385.562	-4.28
385.777	76.13
385.991	51.52
386.206	5.41
386.42	17.23
386.634	96.47
386.849	67.41
387.063	55.2
387.277	-23.27
387.492	33.7
387.706	19.16
387.92	21.88
388.135	65.47
388.349	59.66
388.563	27.11
388.778	34.86
388.992	63.92
389.206	74.38
389.42	126.31
389.635	49.58
389.849	73.61
390.063	81.55
390.277	73.8
390.491	98.02
390.706	88.72
390.92	60.82
391.134	58.5
391.348	85.23
391.562	5.8
391.776	46.48
391.99	26.72
392.205	68.57
392.419	21.68
392.633	19.94
392.847	87.95
393.061	48.23
393.275	86.98
393.489	39.51
393.703	46.48
393.917	93.76
394.131	24.01
394.345	43.77
394.559	84.46
394.773	40.48
394.986	69.15
395.2	61.21
395.414	86.98
395.628	56.75
395.842	48.03
396.056	60.05
396.27	4.63
396.484	72.45
396.697	84.85
396.911	95.69
397.125	43.38
397.339	99.76
397.553	60.82
397.766	121.85
397.98	110.42
398.194	125.53
398.408	63.34
398.621	80.39
398.835	99.57
399.049	87.95
399.262	128.24
399.476	111
399.69	103.64
399.903	138.32
400.117	53.07
400.331	120.49
400.544	67.41
400.758	208.65
400.971	96.66
401.185	122.82
401.398	77.1
401.612	146.84
401.826	121.27
402.039	116.81
402.253	86.4
402.466	126.11
402.68	94.34
402.893	107.71
403.106	114.68
403.32	95.5
403.533	137.16
403.747	110.23
403.96	143.16
404.174	140.45
404.387	105.19
404.6	111.19
404.814	130.76
405.027	103.64
405.24	114.68
405.454	85.04
405.667	119.53
405.88	85.62
406.094	116.81
406.307	167.58
406.52	122.04
406.733	103.25
406.947	83.3
407.16	199.74
407.373	172.42
407.586	84.85
407.799	86.98
408.012	151.49
408.226	119.72
408.439	168.35
408.652	75.16
408.865	135.8
409.078	161.18
409.291	161.76
409.504	78.65
409.717	140.26
409.93	140.64
410.143	123.59
410.357	100.34
410.57	94.53
410.783	101.12
410.996	121.27
411.209	128.24
411.421	175.52
411.634	134.64
411.847	107.9
412.06	115.26
412.273	129.41
412.486	150.33
412.699	236.74
412.912	135.61
413.125	152.66
413.338	145.68
413.55	164.09
413.763	140.84
413.976	173.39
414.189	123.4
414.402	123.98
414.615	184.24
414.827	129.79
415.04	164.28
415.253	158.47
415.466	186.76
415.678	205.74
415.891	135.61
416.104	173.58
416.316	145.49
416.529	142.39
416.742	197.02
416.954	193.54
417.167	160.21
417.38	153.63
417.592	180.94
417.805	135.99
418.017	100.73
418.23	142.78
418.442	124.18
418.655	126.11
418.868	160.02
419.08	158.28
419.293	170.87
419.505	154.4
419.718	182.49
419.93	192.76
420.142	149.56
420.355	224.73
420.567	206.13
420.78	152.27
420.992	152.46
421.205	245.85
421.417	115.26
421.629	143.36
421.842	144.91
422.054	154.59
422.266	198.19
422.479	203.61
422.691	161.38
422.903	222.21
423.115	171.45
423.328	157.11
423.54	179.98
423.752	173.19
423.964	167.58
424.177	209.04
424.389	161.38
424.601	271.42
424.813	203.61
425.025	210.01
425.238	202.06
425.45	165.44
425.662	176.49
425.874	408.21
426.086	211.36
426.298	196.25
426.51	192.37
426.722	176.49
426.934	164.09
427.146	203.22
427.358	155.18
427.57	200.71
427.782	166.99
427.994	193.73
428.206	172.42
428.418	163.31
428.63	191.02
428.842	213.88
429.054	190.05
429.266	220.47
429.478	163.12
429.69	186.17
429.902	141.42
430.114	214.85
430.325	195.86
430.537	162.73
430.749	172.61
430.961	107.32
431.173	152.66
431.384	191.41
431.596	96.08
431.808	172.81
432.02	209.23
432.231	242.75
432.443	236.94
432.655	196.64
432.867	168.93
433.078	212.91
433.29	263.48
433.502	252.63
433.713	269.29
433.925	228.99
434.136	245.66
434.348	166.61
434.56	172.03
434.771	307.07
434.983	161.96
435.194	196.83
435.406	222.02
435.617	249.34
435.829	283.63
436.04	274.91
436.252	243.72
436.463	280.14
436.675	266.19
436.886	252.44
437.098	270.26
437.309	288.86
437.521	229.19
437.732	240.23
437.943	245.85
438.155	241.78
438.366	204.77
438.578	288.28
438.789	251.08
439	269.29
439.211	243.33
439.423	266
439.634	277.82
439.845	241.39
440.057	256.31
440.268	256.31
440.479	274.33
440.69	252.82
440.902	235
441.113	264.26
441.324	241.2
441.535	267.55
441.746	309.79
441.957	244.69
442.168	265.42
442.38	295.84
442.591	297.58
442.802	211.36
443.013	278.4
443.224	287.31
443.435	223.96
443.646	276.85
443.857	298.35
444.068	280.72
444.279	272.78
444.49	343.69
444.701	306.88
444.912	353.96
445.123	323.15
445.334	280.14
445.545	319.67
445.756	287.12
445.967	234.03
446.178	299.52
446.388	322.19
446.599	314.63
446.81	316.37
447.021	277.82
447.232	322.57
447.443	348.92
447.653	272.78
447.864	331.49
448.075	292.35
448.286	336.33
448.496	305.14
448.707	336.91
448.918	301.26
449.129	366.94
449.339	309.79
449.55	292.74
449.761	322.38
449.971	349.5
450.182	305.91
450.393	350.28
450.603	301.45
450.814	355.32
451.024	342.34
451.235	383.22
451.446	362.87
451.656	391.16
451.867	276.85
452.077	352.22
452.288	386.32
452.498	384.38
452.709	344.47
452.919	350.67
453.13	312.69
453.34	380.5
453.55	327.61
453.761	371.01
453.971	358.8
454.182	375.47
454.392	352.99
454.602	427.97
454.813	364.23
455.023	336.72
455.233	304.94
455.444	362.87
455.654	281.89
455.864	335.55
456.075	345.82
456.285	332.45
456.495	341.17
456.705	341.17
456.916	392.32
457.126	410.15
457.336	365.39
457.546	324.7
457.756	330.52
457.967	406.47
458.177	338.07
458.387	357.45
458.597	301.45
458.807	357.06
459.017	352.41
459.227	352.41
459.437	361.13
459.647	392.9
459.857	384.18
460.068	354.35
460.278	383.8
460.488	370.82
460.698	400.65
460.908	363.26
461.117	335.75
461.327	359.97
461.537	378.37
461.747	389.03
461.957	362.87
462.167	443.08
462.377	417.9
462.587	378.95
462.797	439.98
463.007	381.08
463.216	392.9
463.426	424.29
463.636	413.05
463.846	344.27
464.056	362.48
464.265	414.41
464.475	365.39
464.685	401.62
464.895	404.33
465.104	382.25
465.314	413.63
465.524	366.55
465.733	355.9
465.943	448.7
466.153	446.76
466.362	452.38
466.572	417.9
466.782	416.15
466.991	412.08
467.201	438.82
467.41	370.43
467.62	404.92
467.829	394.84
468.039	410.53
468.249	399.68
468.458	402.4
468.668	434.95
468.877	426.03
469.086	495.01
469.296	464.98
469.505	409.95
469.715	475.25
469.924	451.8
470.134	450.83
470.343	502.56
470.552	423.71
470.762	417.32
470.971	401.82
471.18	442.7
471.39	415.77
471.599	421.58
471.808	445.21
472.018	395.62
472.227	499.66
472.436	469.05
472.645	434.56
472.855	428.36
473.064	482.22
473.273	454.13
473.482	440.57
473.691	515.74
473.901	486.87
474.11	462.85
474.319	545.96
474.528	498.3
474.737	526.01
474.946	488.03
475.155	483.38
475.364	527.56
475.573	485.13
475.783	483.19
475.992	502.18
476.201	527.75
476.41	486.48
476.619	459.94
476.828	491.91
477.037	480.28
477.245	499.66
477.454	540.15
477.663	505.28
477.872	508.18
478.081	587.23
478.29	485.32
478.499	578.71
478.708	543.83
478.917	566.89
479.125	555.84
479.334	564.95
479.543	500.43
479.752	546.93
479.961	577.74
480.169	574.06
480.378	551.58
480.587	657.37
480.796	550.61
481.004	564.37
481.213	572.7
481.422	576.77
481.63	569.6
481.839	588.78
482.048	640.71
482.256	589.94
482.465	611.45
482.674	613.97
482.882	602.73
483.091	692.44
483.299	630.05
483.508	651.17
483.716	598.66
483.925	608.93
484.134	591.88
484.342	590.91
484.551	614.16
484.759	625.01
484.967	656.4
485.176	633.34
485.384	660.47
485.593	629.66
485.801	643.42
486.01	628.31
486.218	629.08
486.426	555.07
486.635	591.69
486.843	579.87
487.051	630.24
487.26	588.2
487.468	630.82
487.676	653.69
487.885	597.31
488.093	648.65
488.301	648.26
488.509	692.63
488.717	690.11
488.926	662.6
489.134	610.09
489.342	657.76
489.55	648.26
489.758	650.78
489.967	662.41
490.175	738.94
490.383	689.34
490.591	735.06
490.799	697.67
491.007	728.09
491.215	705.03
491.423	671.12
491.631	702.9
491.839	704.84
492.047	715.1
492.255	659.31
492.463	653.11
492.671	676.16
492.879	744.36
493.087	697.47
493.295	723.05
493.503	707.55
493.711	737.39
493.919	748.43
494.127	754.05
494.334	750.17
494.542	706
494.75	743.2
494.958	729.44
495.166	799.97
495.374	748.82
495.581	736.61
495.789	774.78
495.997	798.42
496.205	768.39
496.412	729.83
496.62	765.87
496.828	780.59
497.035	777.88
497.243	781.75
497.451	780.98
497.658	782.14
497.866	792.8
498.074	843.17
498.281	750.95
498.489	829.42
498.696	766.45
498.904	774.2
499.112	791.83
499.319	853.63
499.527	792.6
499.734	829.03
499.942	763.54
500.149	774.78
500.357	810.62
500.564	739.32
500.771	800.55
500.979	778.46
501.186	758.7
501.394	790.28
501.601	777.3
501.808	801.71
502.016	845.5
502.223	741.26
502.43	793.77
502.638	791.05
502.845	764.7
503.052	820.89
503.26	778.07
503.467	845.5
503.674	786.6
503.881	824.57
504.089	869.72
504.296	821.47
504.503	755.79
504.71	813.72
504.917	762.77
505.125	814.69
505.332	811.59
505.539	823.41
505.746	892.38
505.953	870.1
506.16	833.1
506.367	871.07
506.574	905.36
506.781	896.26
506.988	806.94
507.195	840.27
507.402	845.69
507.609	877.66
507.816	855.77
508.023	838.72
508.23	860.8
508.437	800.16
508.644	861.97
508.851	909.05
509.058	873.98
509.265	848.4
509.472	885.6
509.679	950.9
509.885	849.95
510.092	872.43
510.299	889.86
510.506	881.53
510.713	892.38
510.92	886.96
511.126	898.97
511.333	936.17
511.54	928.23
511.746	947.8
511.953	970.46
512.16	932.49
512.367	933.07
512.573	896.65
512.78	914.66
512.987	911.56
513.193	951.67
513.4	861.97
513.606	914.66
513.813	930.36
514.02	907.3
514.226	944.5
514.433	943.53
514.639	859.83
514.846	924.74
515.052	881.73
515.259	899.94
515.465	876.3
515.672	935.4
515.878	976.08
516.085	945.66
516.291	966.01
516.497	904.59
516.704	912.15
516.91	869.91
517.117	861.19
517.323	846.27
517.529	857.7
517.736	855.96
517.942	866.03
518.148	865.65
518.354	909.05
518.561	892.77
518.767	885.8
518.973	919.9
519.179	945.28
519.386	897.81
519.592	918.15
519.798	932.88
520.004	996.23
520.21	965.81
520.417	984.8
520.623	997.01
520.829	1009.02
521.035	994.49
521.241	982.09
521.447	982.28
521.653	1118.68
521.859	1013.28
522.065	1012.7
522.271	1108.8
522.477	1048.16
522.683	1075.09
522.889	1032.66
523.095	1059.01
523.301	1035.76
523.507	1018.32
523.713	1068.11
523.919	1020.64
524.125	1060.75
524.331	1081.48
524.537	1107.44
524.742	1088.46
524.948	1140.38
525.154	1109.77
525.36	1182.81
525.566	1102.02
525.772	1147.94
525.977	1049.32
526.183	1113.84
526.389	1133.99
526.595	1040.6
526.8	1076.25
527.006	1023.74
527.212	1015.99
527.417	989.45
527.623	1025.29
527.829	1067.72
528.034	1060.94
528.24	1087.87
528.446	1074.89
528.651	1148.32
528.857	1120.42
529.062	1170.6
529.268	1175.45
529.473	1122.56
529.679	1140.38
529.884	1213.42
530.09	1173.7
530.295	1202.96
530.501	1186.3
530.706	1188.62
530.912	1157.82
531.117	1172.74
531.323	1144.25
531.528	1211.49
531.733	1174.67
531.939	1143.48
532.144	1212.07
532.35	1185.52
532.555	1244.81
532.76	1192.89
532.966	1204.12
533.171	1199.09
533.376	1170.99
533.581	1141.16
533.787	1156.27
533.992	1208.39
534.197	1216.72
534.402	1177.97
534.607	1188.82
534.813	1296.73
535.018	1227.57
535.223	1222.34
535.428	1243.65
535.633	1281.04
535.838	1247.91
536.043	1236.67
536.249	1320.18
536.454	1248.88
536.659	1290.15
536.864	1212.45
537.069	1234.35
537.274	1275.42
537.479	1283.37
537.684	1268.64
537.889	1189.4
538.094	1333.93
538.299	1279.3
538.504	1305.26
538.708	1277.94
538.913	1284.14
539.118	1261.47
539.323	1260.31
539.528	1254.69
539.733	1268.83
539.938	1280.27
540.142	1284.53
540.347	1267.09
540.552	1238.03
540.757	1271.35
540.962	1240.55
541.166	1183.78
541.371	1187.27
541.576	1235.51
541.781	1186.49
541.985	1270.58
542.19	1237.83
542.395	1321.73
542.599	1342.85
542.804	1313.78
543.008	1312.04
543.213	1286.27
543.418	1242.1
543.622	1299.64
543.827	1244.03
544.031	1331.03
544.236	1347.69
544.44	1304.1
544.645	1382.95
544.849	1328.9
545.054	1311.65
545.258	1396.51
545.463	1397.1
545.667	1310.49
545.872	1322.11
546.076	1329.86
546.281	1320.18
546.485	1293.05
546.689	1327.93
546.894	1341.49
547.098	1344.01
547.302	1273.68
547.507	1307
547.711	1344.59
547.915	1338
548.119	1258.18
548.324	1322.89
548.528	1360.67
548.732	1317.85
548.936	1356.21
549.141	1344.98
549.345	1325.41
549.549	1323.47
549.753	1351.56
549.957	1397.29
550.161	1380.63
550.366	1313.59
550.57	1321.53
550.774	1337.61
550.978	1325.6
551.182	1349.63
551.386	1310.88
551.59	1320.76
551.794	1329.86
551.998	1326.76
552.202	1332.77
552.406	1288.4
552.61	1348.08
552.814	1347.69
553.018	1417.63
553.222	1316.69
553.426	1338.78
553.63	1383.15
553.833	1339.36
554.037	1280.85
554.241	1357.76
554.445	1347.11
554.649	1366.1
554.853	1318.24
555.056	1397.87
555.26	1371.71
555.464	1367.06
555.668	1373.07
555.871	1394.19
556.075	1388.18
556.279	1340.71
556.483	1294.6
556.686	1323.66
556.89	1339.55
557.094	1359.31
557.297	1283.95
557.501	1397.87
557.704	1263.99
557.908	1382.56
558.112	1274.84
558.315	1360.67
558.519	1302.16
558.722	1296.35
558.926	1280.27
559.129	1274.07
559.333	1231.44
559.536	1264.38
559.74	1232.02
559.943	1232.99
560.147	1240.35
560.35	1258.57
560.553	1279.68
560.757	1217.3
560.96	1337.23
561.164	1275.42
561.367	1329.86
561.57	1238.03
561.774	1292.08
561.977	1261.08
562.18	1246.94
562.384	1360.28
562.587	1285.11
562.79	1253.72
562.993	1250.23
563.197	1308.75
563.4	1325.02
563.603	1321.53
563.806	1347.11
564.009	1243.45
564.212	1271.55
564.416	1272.13
564.619	1254.3
564.822	1247.13
565.025	1307.2
565.228	1274.26
565.431	1236.09
565.634	1200.05
565.837	1238.61
566.04	1176.8
566.243	1164.79
566.446	1159.56
566.649	1227.95
566.852	1174.09
567.055	1204.7
567.258	1218.85
567.461	1264.38
567.664	1248.49
567.867	1153.55
568.07	1211.29
568.273	1192.3
568.475	1299.06
568.678	1193.47
568.881	1178.55
569.084	1179.9
569.287	1101.63
569.489	1147.94
569.692	1213.04
569.895	1171.96
570.098	1169.64
570.3	1101.63
570.503	1080.71
570.706	1099.31
570.909	1086.91
571.111	1083.42
571.314	1090.78
571.516	1118.49
571.719	1124.69
571.922	1107.44
572.124	1096.21
572.327	1116.16
572.529	1068.31
572.732	1079.93
572.935	1119.26
573.137	1161.3
573.34	1099.89
573.542	1094.85
573.745	1109.77
573.947	1104.73
574.15	1097.95
574.352	1055.71
574.554	1165.18
574.757	1053.39
574.959	1057.26
575.162	1065.01
575.364	1084.19
575.566	1145.03
575.769	1046.61
575.971	1072.37
576.173	973.18
576.376	1061.72
576.578	1066.17
576.78	1146.58
576.982	993.13
577.185	1030.33
577.387	1040.79
577.589	1013.67
577.791	1082.45
577.993	1057.84
578.196	1045.44
578.398	1077.02
578.6	1111.32
578.802	1030.91
579.004	998.56
579.206	1021.81
579.408	1042.34
579.61	1001.08
579.812	1056.49
580.014	1018.51
580.216	1016.58
580.418	1056.87
580.62	1040.21
580.822	995.07
581.024	1040.41
581.226	1065.79
581.428	1045.44
581.63	1115
581.832	1012.89
582.034	1093.88
582.236	1053
582.438	1052.42
582.64	1112.48
582.841	1085.74
583.043	1169.05
583.245	1066.56
583.447	1063.85
583.649	1061.72
583.85	1083.22
584.052	1097.95
584.254	1043.7
584.456	1106.47
584.657	1011.73
584.859	1082.64
585.061	1052.81
585.262	1036.73
585.464	1024.71
585.666	1064.43
585.867	1044.67
586.069	1064.62
586.27	1066.56
586.472	1043.51
586.674	1049.32
586.875	1007.86
587.077	1037.31
587.278	1058.42
587.48	1030.33
587.681	1149.1
587.883	1056.49
588.084	963.3
588.285	998.94
588.487	993.13
588.688	1040.99
588.89	948.18
589.091	934.04
589.292	974.34
589.494	948.38
589.695	905.36
589.896	877.85
590.098	861.38
590.299	949.15
590.5	877.27
590.702	914.28
590.903	954
591.104	1022.39
591.305	954.58
591.507	1032.66
591.708	1007.28
591.909	971.04
592.11	1001.85
592.311	995.07
592.512	963.68
592.714	929.39
592.915	935.98
593.116	961.16
593.317	956.32
593.518	951.09
593.719	950.12
593.92	1005.34
594.121	986.93
594.322	959.42
594.523	953.03
594.724	912.15
594.925	911.56
595.126	991
595.327	971.24
595.528	953.03
595.729	989.64
595.929	948.57
596.13	977.24
596.331	970.85
596.532	980.15
596.733	1006.5
596.934	1034.21
597.135	994.29
597.335	983.25
597.536	953.8
597.737	1014.64
597.938	951.28
598.138	991.78
598.339	961.55
598.54	983.64
598.74	962.91
598.941	990.81
599.142	1007.08
599.342	989.06
599.543	923.77
599.744	942.18
599.944	968.33
600.145	933.26
600.345	940.24
600.546	1053.39
600.746	1025.1
600.947	1053
601.147	984.41
601.348	1021.23
601.548	961.16
601.749	965.23
601.949	932.49
602.15	934.04
602.35	929.78
602.551	1023.36
602.751	936.95
602.951	961.16
603.152	907.3
603.352	975.89
603.552	963.49
603.753	1011.15
603.953	989.26
604.153	959.23
604.354	981.31
604.554	974.73
604.754	952.45
604.954	921.25
605.155	984.22
605.355	962.13
605.555	1002.82
605.755	1013.28
605.955	972.59
606.155	976.28
606.356	998.56
606.556	983.83
606.756	984.41
606.956	922.8
607.156	1012.31
607.356	954
607.556	980.54
607.756	953.03
607.956	1039.63
608.156	993.91
608.356	947.6
608.556	989.26
608.756	970.27
608.956	954.19
609.156	966.98
609.356	952.45
609.556	923.19
609.755	962.13
609.955	931.71
610.155	940.05
610.355	955.55
610.555	915.44
610.755	966.4
610.954	869.13
611.154	919.9
611.354	958.45
611.554	924.74
611.753	927.84
611.953	889.67
612.153	933.46
612.352	953.61
612.552	874.37
612.752	850.53
612.951	897.42
613.151	933.46
613.351	878.05
613.55	887.15
613.75	917.96
613.949	888.51
614.149	889.09
614.348	900.33
614.548	860.8
614.747	834.65
614.947	887.35
615.146	840.46
615.346	933.46
615.545	894.51
615.745	870.49
615.944	935.98
616.144	890.25
616.343	920.86
616.542	842.2
616.742	863.52
616.941	880.57
617.14	824.96
617.34	871.85
617.539	856.93
617.738	854.41
617.938	921.25
618.137	882.7
618.336	854.41
618.535	853.25
618.734	886.76
618.934	872.43
619.133	873.59
619.332	876.69
619.531	827.09
619.73	846.66
619.929	901.88
620.128	904.59
620.328	923.96
620.527	859.06
620.726	910.6
620.925	867.97
621.124	870.3
621.323	884.63
621.522	855.38
621.721	803.07
621.92	811.4
622.119	893.93
622.318	821.28
622.517	838.33
622.715	855.96
622.914	796.48
623.113	836.39
623.312	758.5
623.511	845.3
623.71	822.63
623.909	788.54
624.107	867.39
624.306	811.4
624.505	786.21
624.704	803.07
624.902	797.64
625.101	872.82
625.3	799.58
625.499	779.62
625.697	800.55
625.896	775.94
626.095	830.58
626.293	761.8
626.492	792.6
626.69	805.58
626.889	796.87
627.088	847.43
627.286	740.1
627.485	768
627.683	751.92
627.882	800.55
628.08	740.68
628.279	760.44
628.477	812.17
628.676	744.75
628.874	800.16
629.073	755.21
629.271	739.13
629.469	791.83
629.668	759.47
629.866	776.33
630.065	770.9
630.263	781.95
630.461	787.18
630.66	797.45
630.858	791.25
631.056	820.5
631.254	778.65
631.453	759.67
631.651	826.9
631.849	796.87
632.047	781.37
632.245	785.82
632.444	815.47
632.642	790.47
632.84	793.96
633.038	768.97
633.236	724.79
633.434	742.81
633.632	759.28
633.83	747.65
634.028	790.09
634.227	765.67
634.425	839.68
634.623	765.29
634.821	796.28
635.019	773.23
635.216	804.81
635.414	831.93
635.612	783.69
635.81	793.38
636.008	839.88
636.206	794.73
636.404	806.75
636.602	766.84
636.8	783.5
636.997	803.07
637.195	814.5
637.393	797.06
637.591	835.62
637.789	802.48
637.986	773.04
638.184	800.93
638.382	809.46
638.58	836.78
638.777	865.45
638.975	800.55
639.173	799
639.37	801.13
639.568	785.44
639.765	829.22
639.963	759.86
640.161	820.12
640.358	838.72
640.556	756.95
640.753	730.6
640.951	778.65
641.148	790.86
641.346	812.75
641.543	780.79
641.741	810.62
641.938	742.81
642.136	750.95
642.333	773.81
642.531	803.45
642.728	808.3
642.925	772.07
643.123	767.03
643.32	795.9
643.517	794.93
643.715	778.07
643.912	774.2
644.109	766.45
644.306	770.9
644.504	751.53
644.701	789.5
644.898	792.99
645.095	728.47
645.293	768.39
645.49	805
645.687	786.6
645.884	761.99
646.081	709.49
646.278	729.05
646.475	751.34
646.672	733.51
646.87	768.19
647.067	742.42
647.264	753.85
647.461	717.24
647.658	719.95
647.855	786.6
648.052	734.48
648.249	659.11
648.446	714.72
648.642	700.77
648.839	691.47
649.036	701.16
649.233	693.21
649.43	652.33
649.627	662.02
649.824	735.45
650.021	659.5
650.217	670.54
650.414	675.58
650.611	709.68
650.808	728.67
651.004	710.65
651.201	724.99
651.398	752.89
651.595	704.26
651.791	690.69
651.988	721.5
652.185	678.29
652.381	711.23
652.578	642.06
652.775	710.07
652.971	681.59
653.168	705.81
653.364	728.09
653.561	694.57
653.757	668.02
653.954	724.99
654.15	687.01
654.347	775.94
654.543	723.82
654.74	632.18
654.936	645.74
655.133	692.44
655.329	671.71
655.525	659.31
655.722	706.19
655.918	667.06
656.115	696.12
656.311	602.15
656.507	604.48
656.704	552.16
656.9	602.54
657.096	597.5
657.292	588.39
657.489	650.01
657.685	639.93
657.881	634.51
658.077	635.28
658.273	667.25
658.47	675.19
658.666	662.79
658.862	693.99
659.058	665.12
659.254	695.54
659.45	660.27
659.646	671.51
659.842	676.55
660.038	687.98
660.234	648.65
660.43	655.62
660.626	721.3
660.822	680.62
661.018	717.43
661.214	671.12
661.41	636.64
661.606	681.01
661.802	705.03
661.998	665.89
662.194	631.6
662.39	701.74
662.586	705.42
662.781	691.66
662.977	688.17
663.173	687.4
663.369	675
663.564	672.48
663.76	722.66
663.956	660.86
664.152	698.64
664.347	637.61
664.543	667.64
664.739	663.76
664.934	630.05
665.13	610.87
665.326	708.9
665.521	667.06
665.717	641.48
665.912	635.09
666.108	608.16
666.304	634.89
666.499	649.62
666.695	566.69
666.89	638.19
667.086	683.14
667.281	672.29
667.477	665.51
667.672	652.91
667.867	657.76
668.063	641.67
668.258	616.29
668.454	656.98
668.649	712
668.844	631.79
669.04	678.49
669.235	634.51
669.43	619.39
669.626	609.32
669.821	601.96
670.016	596.34
670.211	625.21
670.407	576.58
670.602	613.78
670.797	620.56
670.992	658.72
671.187	609.71
671.382	655.04
671.578	598.47
671.773	639.93
671.968	575.8
672.163	621.72
672.358	640.71
672.553	569.02
672.748	618.81
672.943	688.76
673.138	624.62
673.333	642.64
673.528	578.13
673.723	600.99
673.918	629.86
674.113	598.28
674.308	720.53
674.503	630.44
674.698	679.07
674.892	621.91
675.087	669.96
675.282	636.25
675.477	569.79
675.672	624.62
675.867	609.32
676.061	585.1
676.256	559.72
676.451	561.08
676.646	624.62
676.84	566.69
677.035	553.91
677.23	528.91
677.424	638.38
677.619	638.38
677.814	643.81
678.008	630.05
678.203	580.06
678.397	556.04
678.592	591.49
678.787	658.14
678.981	600.79
679.176	608.16
679.37	590.91
679.565	558.17
679.759	617.07
679.954	618.04
680.148	637.99
680.342	622.49
680.537	633.73
680.731	599.24
680.926	641.29
681.12	623.46
681.314	571.34
681.509	596.73
681.703	600.99
681.897	615.71
682.092	588.39
682.286	580.64
682.48	676.36
682.674	649.62
682.869	608.54
683.063	600.02
683.257	653.11
683.451	565.34
683.645	597.31
683.839	595.56
684.034	575.8
684.228	611.84
684.422	553.71
684.616	564.18
684.81	613.97
685.004	589.36
685.198	556.62
685.392	642.26
685.586	559.14
685.78	579.29
685.974	610.29
686.168	619.39
686.362	634.12
686.556	558.56
686.75	536.47
686.944	506.05
687.138	565.73
687.331	456.84
687.525	503.73
687.719	436.88
687.913	497.91
688.107	450.83
688.301	447.15
688.494	481.83
688.688	495.2
688.882	438.24
689.076	436.88
689.269	509.15
689.463	565.53
689.657	496.75
689.85	487.84
690.044	501.21
690.238	513.22
690.431	487.26
690.625	490.36
690.818	505.47
691.012	497.53
691.205	526.4
691.399	498.88
691.593	539.96
691.786	590.91
691.98	596.14
692.173	588.59
692.366	556.62
692.56	596.53
692.753	626.37
692.947	548.48
693.14	600.21
693.333	616.88
693.527	525.81
693.72	581.42
693.914	555.07
694.107	575.03
694.3	580.84
694.493	565.92
694.687	596.53
694.88	583.55
695.073	616.49
695.266	627.92
695.46	597.89
695.653	645.55
695.846	626.76
696.039	557.01
696.232	616.1
696.425	637.99
696.618	632.96
696.812	637.8
697.005	684.11
697.198	738.55
697.391	671.71
697.584	708.13
697.777	729.44
697.97	710.84
698.163	717.43
698.356	683.91
698.549	767.8
698.742	738.16
698.935	730.99
699.127	737.39
699.32	689.53
699.513	706.77
699.706	719.17
699.899	762.19
700.092	717.62
700.285	724.4
700.477	675.77
700.67	732.35
700.863	766.06
701.056	844.33
701.248	784.27
701.441	791.83
701.634	765.87
701.826	893.93
702.019	744.94
702.212	821.08
702.404	755.99
702.597	745.72
702.79	743.59
702.982	820.12
703.175	831.35
703.367	828.64
703.56	822.83
703.752	912.34
703.945	829.22
704.137	879.79
704.33	861.38
704.522	898.78
704.715	895.87
704.907	907.88
705.1	936.75
705.292	939.27
705.484	886.18
705.677	953.8
705.869	935.59
706.061	965.62
706.254	954
706.446	912.34
706.638	915.25
706.831	1027.23
707.023	964.85
707.215	1046.8
707.407	990.03
707.599	993.33
707.792	1036.14
707.984	1011.73
708.176	1009.21
708.368	1040.02
708.56	1044.86
708.752	1062.3
708.944	1017.74
709.136	1063.66
709.329	1047.38
709.521	1142.32
709.713	1099.69
709.905	1094.66
710.097	1114.22
710.289	1094.27
710.481	1096.4
710.672	1110.16
710.864	1116.74
711.056	1190.75
711.248	1127.79
711.44	1182.42
711.632	1159.37
711.824	1183.59
712.016	1218.85
712.207	1215.94
712.399	1200.05
712.591	1266.32
712.783	1232.02
712.975	1220.59
713.166	1202.96
713.358	1235.12
713.55	1284.72
713.741	1274.65
713.933	1257.4
714.125	1265.54
714.316	1260.7
714.508	1305.07
714.7	1305.65
714.891	1303.32
715.083	1336.84
715.274	1296.73
715.466	1285.11
715.657	1321.15
715.849	1250.04
716.04	1344.59
716.232	1229.12
716.423	1353.89
716.615	1250.23
716.806	1230.86
716.998	1223.89
717.189	1185.72
717.381	1118.87
717.572	1102.79
717.763	1137.09
717.955	1088.46
718.146	1104.92
718.337	1074.7
718.528	1072.18
718.72	1005.14
718.911	1048.35
719.102	1002.43
719.293	1068.31
719.485	1053.19
719.676	1046.61
719.867	1009.6
720.058	1021.23
720.249	1007.66
720.44	1033.63
720.632	1090.01
720.823	1123.14
721.014	1202.96
721.205	1167.7
721.396	1251.01
721.587	1305.84
721.778	1336.26
721.969	1326.57
722.16	1366.1
722.351	1352.15
722.542	1469.75
722.733	1472.08
722.924	1378.88
723.115	1440.69
723.305	1456.96
723.496	1480.99
723.687	1344.4
723.878	1358.15
724.069	1375.4
724.26	1385.47
724.45	1341.68
724.641	1362.41
724.832	1375.01
725.023	1360.48
725.213	1341.49
725.404	1306.42
725.595	1384.11
725.785	1351.76
725.976	1388.38
726.167	1356.99
726.357	1390.12
726.548	1436.81
726.739	1399.42
726.929	1431.97
727.12	1468.98
727.31	1483.31
727.501	1443.79
727.691	1451.34
727.882	1468.01
728.072	1479.83
728.263	1481.57
728.453	1504.24
728.644	1498.23
728.834	1511.02
729.024	1493.39
729.215	1480.02
729.405	1553.84
729.596	1580.96
729.786	1559.65
729.976	1579.22
730.167	1599.75
730.357	1535.62
730.547	1567.79
730.737	1626.3
730.928	1673.77
731.118	1652.26
731.308	1611.57
731.498	1633.08
731.688	1701.28
731.879	1667.57
732.069	1757.85
732.259	1789.43
732.449	1779.36
732.639	1845.04
732.829	1858.6
733.019	1880.11
733.209	1923.51
733.399	1932.03
733.589	1987.25
733.779	2004.11
733.969	1984.54
734.159	2010.5
734.349	2018.25
734.539	2066.49
734.729	2074.82
734.919	2118.22
735.109	2141.47
735.299	2091.68
735.488	2129.27
735.678	2112.99
735.868	2105.43
736.058	2099.24
736.248	2080.05
736.437	2086.84
736.627	2075.21
736.817	2175.38
737.007	2120.55
737.196	2167.24
737.386	2159.3
737.576	2145.73
737.765	2193.01
737.955	2169.18
738.144	2271.28
738.334	2217.61
738.524	2186.81
738.713	2256.95
738.903	2218.39
739.092	2257.53
739.282	2268.57
739.471	2281.36
739.661	2231.76
739.85	2314.29
740.04	2317.01
740.229	2279.81
740.419	2329.21
740.608	2336.96
740.797	2357.89
740.987	2391.6
741.176	2396.25
741.365	2332.51
741.555	2300.34
741.744	2389.27
741.933	2371.26
742.123	2382.88
742.312	2433.45
742.501	2399.93
742.69	2437.52
742.88	2347.81
743.069	2492.35
743.258	2414.66
743.447	2467.94
743.636	2498.35
743.825	2469.68
744.014	2451.66
744.204	2493.12
744.393	2402.06
744.582	2501.45
744.771	2521.6
744.96	2459.22
745.149	2531.1
745.338	2432.67
745.527	2545.24
745.716	2508.04
745.905	2427.64
746.094	2514.82
746.283	2523.35
746.471	2538.46
746.66	2555.51
746.849	2524.51
747.038	2568.68
747.227	2494.48
747.416	2561.71
747.604	2497.77
747.793	2495.25
747.982	2526.84
748.171	2546.98
748.359	2542.53
748.548	2553.77
748.737	2540.59
748.926	2535.17
749.114	2453.02
749.303	2530.52
749.491	2535.55
749.68	2450.89
749.869	2588.64
750.057	2516.76
750.246	2504.17
750.434	2498.35
750.623	2546.6
750.811	2507.85
751	2535.75
751.188	2503.2
751.377	2501.84
751.565	2490.8
751.754	2487.31
751.942	2461.74
752.131	2519.47
752.319	2473.36
752.507	2468.32
752.696	2508.43
752.884	2512.69
753.072	2492.74
753.261	2507.07
753.449	2495.06
753.637	2477.24
753.825	2560.74
754.014	2474.91
754.202	2480.92
754.39	2520.83
754.578	2517.92
754.766	2477.24
754.955	2457.28
755.143	2549.12
755.331	2449.72
755.519	2449.92
755.707	2503.2
755.895	2429.57
756.083	2499.9
756.271	2416.79
756.459	2431.12
756.647	2502.04
756.835	2441.39
757.023	2448.76
757.211	2420.27
757.399	2380.94
757.587	2442.17
757.775	2403.22
757.963	2392.18
758.151	2378.81
758.339	2354.98
758.526	2358.28
758.714	2359.05
758.902	2300.73
759.09	2249.78
759.278	2090.71
759.465	1912.27
759.653	1670.86
759.841	1542.02
760.028	1304.29
760.216	1152.78
760.404	1067.92
760.591	886.96
760.779	762.77
760.967	660.86
761.154	546.16
761.342	594.01
761.529	579.29
761.717	639.35
761.905	584.71
762.092	646.71
762.28	570.18
762.467	564.76
762.655	541.12
762.842	561.46
763.029	605.25
763.217	575.41
763.404	581.81
763.592	586.46
763.779	549.84
763.966	598.28
764.154	631.6
764.341	663.37
764.528	672.48
764.716	707.16
764.903	753.85
765.09	822.05
765.277	832.13
765.465	959.23
765.652	981.7
765.839	1051.45
766.026	1177.58
766.213	1164.79
766.4	1220.01
766.588	1402.91
766.775	1354.86
766.962	1450.57
767.149	1504.04
767.336	1639.28
767.523	1579.61
767.71	1705.54
767.897	1775.87
768.084	1822.95
768.271	1869.84
768.458	1869.26
768.645	1940.75
768.832	1910.72
769.019	1942.3
769.206	1961.87
769.392	2052.74
769.579	2126.17
769.766	2057.58
769.953	2040.92
770.14	2132.17
770.327	2115.12
770.513	2170.73
770.7	2190.3
770.887	2101.56
771.073	2142.83
771.26	2121.13
771.447	2107.95
771.634	2135.47
771.82	2226.53
772.007	2127.13
772.193	2164.53
772.38	2228.08
772.567	2164.53
772.753	2170.34
772.94	2218.97
773.126	2144.96
773.313	2198.43
773.499	2183.71
773.686	2188.75
773.872	2134.69
774.059	2162.4
774.245	2120.55
774.432	2147.28
774.618	2073.85
774.804	2143.6
774.991	2083.15
775.177	2113.38
775.363	2133.72
775.55	2184.87
775.736	2069.2
775.922	2107.57
776.109	2129.07
776.295	2099.43
776.481	2159.88
776.667	2143.02
776.853	2087.42
777.04	2086.84
777.226	2088.77
777.412	2171.31
777.598	2072.3
777.784	2087.8
777.97	2084.12
778.156	2135.85
778.342	2114.93
778.528	2053.12
778.715	2005.46
778.901	2063.2
779.087	2056.61
779.272	2015.73
779.458	2038.4
779.644	2033.75
779.83	2008.37
780.016	2127.13
780.202	2048.67
780.388	2030.45
780.574	1952.96
780.76	1988.99
780.946	2036.27
781.131	2031.04
781.317	2013.79
781.503	1979.11
781.689	1962.06
781.874	2102.34
782.06	1994.42
782.246	2055.25
782.432	2006.43
782.617	2009.92
782.803	2013.99
782.989	1943.85
783.174	1944.43
783.36	1920.21
783.545	1936.29
783.731	1948.31
783.916	1873.52
784.102	1970.78
784.288	1913.63
784.473	1928.54
784.659	1888.83
784.844	1911.88
785.029	1898.71
785.215	1877.2
785.4	1868.87
785.586	1943.46
785.771	1847.17
785.956	1928.35
786.142	1889.21
786.327	1858.6
786.512	1878.36
786.698	1899.87
786.883	1812.49
787.068	1869.84
787.254	1837.1
787.439	1829.73
787.624	1829.93
787.809	1830.51
787.994	1843.88
788.18	1892.89
788.365	1775.29
788.55	1816.17
788.735	1792.34
788.92	1817.53
789.105	1792.92
789.29	1765.8
789.475	1784.78
789.66	1736.15
789.845	1719.49
790.03	1689.27
790.215	1788.27
790.4	1779.16
790.585	1795.63
790.77	1740.03
790.955	1708.45
791.14	1726.66
791.325	1793.7
791.51	1653.23
791.695	1739.83
791.879	1720.85
792.064	1663.69
792.249	1780.33
792.434	1728.02
792.618	1695.47
792.803	1793.89
792.988	1718.52
793.173	1691.4
793.357	1762.5
793.542	1682.68
793.727	1724.53
793.911	1749.33
794.096	1703.22
794.281	1745.45
794.465	1784.01
794.65	1734.99
794.834	1747.78
795.019	1791.95
795.203	1773.16
795.388	1785.75
795.572	1801.25
795.757	1806.48
795.941	1784.4
796.126	1766.57
796.31	1722.59
796.494	1734.22
796.679	1730.15
796.863	1702.25
797.048	1778
797.232	1752.04
797.416	1737.51
797.601	1764.83
797.785	1825.28
797.969	1759.21
798.153	1717.75
798.338	1775.48
798.522	1769.09
798.706	1778.97
798.89	1755.33
799.074	1872.55
799.258	1821.79
799.443	1746.42
799.627	1767.73
799.811	1783.62
799.995	1768.7
800.179	1771.41
800.363	1761.73
800.547	1766.76
800.731	1780.13
800.915	1719.49
801.099	1783.62
801.283	1729.18
801.467	1801.06
801.651	1711.55
801.835	1780.52
802.019	1754.95
802.202	1727.63
802.386	1693.14
802.57	1709.03
802.754	1734.02
802.938	1722.78
803.121	1696.82
803.305	1752.04
803.489	1733.63
803.673	1727.63
803.856	1755.91
804.04	1740.8
804.224	1764.05
804.407	1717.94
804.591	1739.06
804.775	1735.77
804.958	1761.92
805.142	1798.15
805.326	1777.61
805.509	1756.3
805.693	1815.78
805.876	1797.76
806.06	1722.4
806.243	1780.33
806.427	1804.74
806.61	1809.39
806.794	1743.13
806.977	1773.35
807.16	1750.49
807.344	1774.9
807.527	1774.32
807.71	1737.32
807.894	1737.12
808.077	1802.03
808.26	1722.78
808.444	1757.27
808.627	1798.93
808.81	1718.91
808.993	1715.23
809.177	1681.9
809.36	1689.46
809.543	1712.13
809.726	1651.68
809.909	1657.69
810.092	1657.88
810.276	1645.09
810.459	1672.02
810.642	1667.57
810.825	1614.67
811.008	1623.2
811.191	1577.47
811.374	1537.17
811.557	1578.83
811.74	1683.65
811.923	1521.48
812.106	1544.34
812.289	1498.62
812.472	1519.74
812.654	1547.25
812.837	1460.84
813.02	1442.04
813.203	1428.29
813.386	1334.51
813.569	1384.89
813.751	1335.29
813.934	1362.41
814.117	1335.29
814.3	1309.33
814.482	1248.1
814.665	1256.24
814.848	1240.93
815.03	1205.87
815.213	1195.99
815.396	1189.2
815.578	1188.62
815.761	1142.71
815.943	1202.96
816.126	1106.67
816.309	1112.67
816.491	1058.42
816.674	1012.31
816.856	1079.74
817.039	1067.72
817.221	1114.42
817.403	1055.52
817.586	1084
817.768	1104.34
817.951	1031.49
818.133	1047.38
818.315	1052.81
818.498	1076.06
818.68	1135.34
818.862	1109.57
819.045	1087.29
819.227	1105.31
819.409	1092.52
819.591	1095.24
819.774	1111.9
819.956	1076.64
820.138	1125.46
820.32	1146
820.502	1169.83
820.684	1224.66
820.866	1194.63
821.048	1219.82
821.231	1268.06
821.413	1257.6
821.595	1234.15
821.777	1214
821.959	1234.54
822.141	1287.43
822.323	1153.17
822.505	1114.03
822.686	1143.09
822.868	1074.31
823.05	984.61
823.232	983.25
823.414	934.62
823.596	951.48
823.778	969.11
823.96	986.16
824.141	950.12
824.323	983.06
824.505	1071.21
824.687	1117.91
824.868	1104.15
825.05	1179.13
825.232	1201.99
825.413	1245.97
825.595	1235.7
825.777	1130.89
825.958	1188.62
826.14	1190.56
826.321	1217.49
826.503	1179.9
826.685	1204.9
826.866	1232.8
827.048	1244.62
827.229	1170.41
827.411	1141.74
827.592	1113.06
827.773	1113.84
827.955	1103.57
828.136	1082.45
828.318	1065.59
828.499	1104.92
828.68	1060.56
828.862	1104.15
829.043	1118.1
829.224	1071.41
829.406	1057.07
829.587	1060.94
829.768	1071.21
829.949	1081.09
830.131	1066.17
830.312	1131.27
830.493	1093.69
830.674	1110.93
830.855	1068.11
831.036	1068.31
831.218	1159.37
831.399	1135.34
831.58	1082.84
831.761	1082.26
831.942	1099.89
832.123	1102.41
832.304	1030.53
832.485	1084.39
832.666	1097.56
832.847	1109.19
833.028	1052.81
833.209	1092.33
833.389	1081.67
833.57	1030.14
833.751	1036.34
833.932	1102.79
834.113	1111.9
834.294	1059.39
834.475	1102.21
834.655	1146
834.836	1104.73
835.017	1098.34
835.198	1079.54
835.378	1115
835.559	1136.31
835.74	1112.48
835.92	1099.5
836.101	1078.19
836.281	1116.16
836.462	1104.34
836.643	1170.41
836.823	1170.6
837.004	1187.07
837.184	1180.49
837.365	1148.13
837.545	1151.81
837.726	1100.27
837.906	1165.37
838.087	1131.08
838.267	1146.39
838.448	1081.29
838.628	1135.73
838.808	1134.96
838.989	1184.17
839.169	1107.25
839.349	1154.91
839.53	1162.47
839.71	1124.88
839.89	1127.21
840.07	1177.58
840.251	1128.95
840.431	1180.49
840.611	1150.07
840.791	1127.79
840.971	1123.14
841.151	1115.58
841.332	1077.22
841.512	1176.42
841.692	1084.19
841.872	1148.32
842.052	1109.96
842.232	1129.92
842.412	1094.66
842.592	1097.37
842.772	1121.2
842.952	1123.14
843.132	1128.56
843.312	1094.46
843.492	1065.21
843.672	1154.52
843.851	1066.17
844.031	1096.21
844.211	1120.42
844.391	1070.44
844.571	1133.79
844.751	1120.62
844.93	1122.17
845.11	1089.62
845.29	1087.87
845.47	1112.29
845.649	1118.68
845.829	1121.2
846.009	1073.54
846.188	1095.43
846.368	1106.86
846.547	1119.26
846.727	1146.77
846.907	1053
847.086	1103.76
847.266	1111.32
847.445	1090.97
847.625	1082.64
847.804	1062.88
847.984	1121.39
848.163	1049.32
848.343	1073.73
848.522	1065.21
848.701	1093.69
848.881	1051.45
849.06	1070.24
849.239	1108.02
849.419	1099.11
849.598	1009.02
849.777	1021.81
849.957	1008.24
850.136	982.28
850.315	991.97
850.494	973.37
850.674	970.46
850.853	1014.83
851.032	1014.44
851.211	1056.87
851.39	1024.13
851.569	986.74
851.748	975.69
851.927	1030.53
852.107	1025.68
852.286	960.97
852.465	990.81
852.644	1003.79
852.823	1030.91
853.002	997.01
853.181	1014.83
853.359	970.66
853.538	930.36
853.717	1042.54
853.896	937.53
854.075	901.3
854.254	880.76
854.433	850.15
854.611	912.34
854.79	831.93
854.969	882.31
855.148	904.78
855.327	875.33
855.505	878.24
855.684	918.15
855.863	900.71
856.041	903.04
856.22	932.3
856.399	879.4
856.577	983.25
856.756	967.75
856.934	1044.67
857.113	1075.47
857.291	963.88
857.47	933.85
857.648	941.4
857.827	938.69
858.005	1006.69
858.184	972.4
858.362	1028.98
858.541	958.84
858.719	967.56
858.898	943.15
859.076	943.73
859.254	982.28
859.433	927.06
859.611	943.73
859.789	873.2
859.967	981.12
860.146	992.94
860.324	915.63
860.502	933.07
860.68	898.39
860.859	937.91
861.037	936.56
861.215	931.13
861.393	908.66
861.571	926.1
861.749	923
861.927	960.97
862.105	932.68
862.283	912.15
862.461	900.71
862.639	880.18
862.817	877.08
862.995	887.73
863.173	869.13
863.351	910.01
863.529	910.98
863.707	944.89
863.885	911.95
864.063	862.93
864.241	858.87
864.418	931.52
864.596	869.13
864.774	837.55
864.952	876.11
865.129	894.9
865.307	849.95
865.485	814.88
865.663	908.27
865.84	814.11
866.018	876.11
866.196	754.44
866.373	747.27
866.551	749.59
866.728	730.6
866.906	782.14
867.084	761.22
867.261	798.61
867.439	813.33
867.616	809.65
867.794	815.27
867.971	794.73
868.149	815.66
868.326	873.98
868.503	828.83
868.681	835.81
868.858	829.61
869.035	762.77
869.213	859.83
869.39	819.92
869.567	870.1
869.745	794.93
869.922	833.87
870.099	848.98
870.276	848.79
870.454	824.77
870.631	828.25
870.808	808.3
870.985	838.52
871.162	863.13
871.339	856.54
871.517	788.15
871.694	780.79
871.871	805.2
872.048	817.02
872.225	792.6
872.402	812.17
872.579	748.62
872.756	817.79
872.933	791.05
873.11	771.87
873.287	772.65
873.463	809.07
873.64	777.88
873.817	813.72
873.994	804.23
874.171	768
874.348	795.32
874.524	755.4
874.701	769.35
874.878	700.38
875.055	776.52
875.231	782.92
875.408	792.8
875.585	699.22
875.762	786.4
875.938	722.85
876.115	728.28
876.291	753.27
876.468	775.55
876.645	713.75
876.821	761.22
876.998	749.01
877.174	744.94
877.351	734.87
877.527	699.99
877.704	742.42
877.88	753.08
878.057	720.53
878.233	730.99
878.409	724.21
878.586	763.54
878.762	728.86
878.938	729.05
879.115	668.8
879.291	731.38
879.467	679.84
879.644	669.19
879.82	730.6
879.996	668.41
880.172	646.13
880.349	692.44
880.525	718.98
880.701	648.07
880.877	684.11
881.053	736.42
881.229	672.29
881.405	701.93
881.581	641.87
881.757	664.54
881.933	709.1
882.109	701.93
882.285	714.33
882.461	641.29
882.637	693.79
882.813	669.38
882.989	652.33
883.165	737.19
883.341	640.12
883.517	710.26
883.693	714.52
883.869	689.92
884.044	632.57
884.22	680.23
884.396	743
884.572	707.55
884.747	728.67
884.923	692.82
885.099	744.55
885.275	711.04
885.45	650.59
885.626	688.17
885.801	681.78
885.977	660.27
886.153	657.37
886.328	711.81
886.504	658.34
886.679	675.77
886.855	660.47
887.03	714.52
887.206	730.6
887.381	686.04
887.557	701.54
887.732	700.77
887.908	722.08
888.083	707.35
888.258	671.9
888.434	681.39
888.609	662.6
888.784	704.26
888.96	645.36
889.135	655.04
889.31	628.5
889.485	685.27
889.661	654.66
889.836	707.55
890.011	690.69
890.186	653.49
890.361	667.25
890.537	679.84
890.712	712.39
890.887	679.65
891.062	685.27
891.237	702.12
891.412	667.44
891.587	682.36
891.762	716.07
891.937	713.36
892.112	626.76
892.287	680.42
892.462	634.89
892.637	616.68
892.812	607.58
892.987	595.37
893.161	632.96
893.336	627.72
893.511	614.94
893.686	645.55
893.861	620.36
894.035	636.25
894.21	625.01
894.385	570.38
894.56	612.23
894.734	563.4
894.909	545.58
895.084	562.04
895.258	575.22
895.433	575.22
895.608	564.56
895.782	541.51
895.957	512.45
896.131	533.56
896.306	451.61
896.48	478.54
896.655	516.51
896.829	455.29
897.004	463.04
897.178	454.51
897.353	427.58
897.527	472.92
897.701	454.51
897.876	420.42
898.05	507.21
898.224	455.68
898.399	486.68
898.573	472.73
898.747	368.49
898.921	442.7
899.096	372.17
899.27	355.9
899.444	349.31
899.618	403.37
899.792	396.39
899.967	412.67
900.141	447.15
900.315	371.4
900.489	398.72
900.663	410.53
900.837	382.83
901.011	354.15
901.185	469.43
901.359	392.71
901.533	370.82
901.707	407.82
901.881	405.88
902.055	351.44
902.229	361.52
902.403	425.45
902.576	391.35
902.75	386.51
902.924	500.82
903.098	434.95
903.272	472.34
903.446	495.4
903.619	463.23
903.793	501.21
903.967	497.14
904.14	532.59
904.314	513.41
904.488	483
904.661	531.05
904.835	491.33
905.009	508.76
905.182	570.18
905.356	515.74
905.529	528.14
905.703	450.64
905.876	487.84
906.05	431.07
906.223	453.16
906.397	404.92
906.57	376.43
906.744	406.66
906.917	374.11
907.09	403.17
907.264	408.4
907.437	369.27
907.61	357.06
907.784	369.07
907.957	377.79
908.13	349.7
908.304	407.43
908.477	339.43
908.65	375.85
908.823	331.87
908.996	411.89
909.17	380.12
909.343	336.72
909.516	368.3
909.689	366.94
909.862	330.71
910.035	354.35
910.208	339.43
910.381	327.8
910.554	406.47
910.727	364.81
910.9	318.5
911.073	343.11
911.246	414.41
911.419	387.48
911.592	380.31
911.765	319.67
911.938	351.44
912.11	356.48
912.283	324.7
912.456	396.58
912.629	355.32
912.802	349.12
912.974	299.9
913.147	277.62
913.32	250.11
913.493	277.04
913.665	304.36
913.838	302.23
914.01	282.85
914.183	301.26
914.356	276.07
914.528	332.65
914.701	360.35
914.873	344.66
915.046	299.9
915.218	262.32
915.391	213.88
915.563	247.79
915.736	275.88
915.908	316.76
916.081	329.35
916.253	295.84
916.425	315.4
916.598	307.65
916.77	284.99
916.942	284.21
917.115	246.62
917.287	308.43
917.459	277.82
917.632	259.41
917.804	211.56
917.976	288.67
918.148	282.66
918.32	284.99
918.493	317.15
918.665	337.88
918.837	303.59
919.009	371.59
919.181	364.42
919.353	324.12
919.525	321.6
919.697	319.86
919.869	319.86
920.041	360.55
920.213	402.78
920.385	342.53
920.557	330.13
920.729	321.8
920.901	335.75
921.073	327.22
921.244	309.01
921.416	349.5
921.588	321.22
921.76	289.05
921.932	382.44
922.103	300.1
922.275	331.49
922.447	318.31
922.619	264.26
922.79	312.89
922.962	319.86
923.134	327.03
923.305	301.07
923.477	273.17
923.648	260.38
923.82	293.12
923.991	219.31
924.163	229.57
924.335	262.12
924.506	265.42
924.677	340.79
924.849	257.09
925.02	268.91
925.192	278.01
925.363	288.09
925.535	267.94
925.706	253.41
925.877	331.1
926.049	271.04
926.22	295.84
926.391	279.56
926.562	325.09
926.734	220.86
926.905	293.7
927.076	212.52
927.247	245.46
927.419	211.94
927.59	204.39
927.761	223.57
927.932	216.79
928.103	221.63
928.274	207.29
928.445	194.12
928.616	192.57
928.787	211.94
928.958	233.26
929.129	216.59
929.3	201.29
929.471	164.86
929.642	138.71
929.813	95.69
929.984	163.7
930.155	104.61
930.326	171.06
930.496	140.45
930.667	69.93
930.838	120.3
931.009	80.78
931.18	123.21
931.35	90.27
931.521	95.5
931.692	37.38
931.863	30.4
932.033	83.68
932.204	64.5
932.374	99.18
932.545	59.66
932.716	77.87
932.886	108.09
933.057	17.61
933.227	38.15
933.398	107.32
933.568	50.16
933.739	-8.15
933.909	32.92
934.08	47.84
934.25	-12.8
934.421	-2.15
934.591	46.48
934.761	36.41
934.932	-11.06
935.102	33.5
935.272	18.58
935.443	19.16
935.613	-5.63
935.783	44.35
935.953	-12.8
936.123	143.94
936.294	-5.44
936.464	-2.53
936.634	7.35
936.804	-0.6
936.974	-14.93
937.144	37.57
937.314	52.3
937.484	-3.7
937.655	-8.54
937.825	70.9
937.995	-38.38
938.165	26.14
938.334	13.74
938.504	46.48
938.674	6.96
938.844	57.14
939.014	75.93
939.184	60.82
939.354	108.87
939.524	85.04
939.694	44.35
939.863	45.71
940.033	109.45
940.203	120.3
940.373	65.28
940.542	76.9
940.712	64.31
940.882	72.83
941.051	119.91
941.221	83.68
941.391	100.34
941.56	64.7
941.73	21.49
941.899	171.06
942.069	57.91
942.238	89.88
942.408	59.85
942.577	74.77
942.747	60.43
942.916	17.03
943.086	30.79
943.255	104.03
943.425	69.93
943.594	45.32
943.763	-8.54
943.933	8.9
944.102	10.25
944.271	31.76
944.441	40.48
944.61	37.38
944.779	31.37
944.948	109.64
945.117	6.96
945.287	50.94
945.456	-14.55
945.625	15.29
945.794	53.26
945.963	12.58
946.132	57.33
946.301	15.29
946.47	72.06
946.639	-6.41
946.808	18.78
946.977	50.16
947.146	79.61
947.315	12.96
947.484	50.16
947.653	41.25
947.822	36.6
947.991	15.48
948.16	81.55
948.329	75.55
948.498	49.2
948.666	61.4
948.835	72.64
949.004	-5.25
949.173	5.22
949.341	19.94
949.51	47.65
949.679	71.67
949.847	66.44
950.016	115.46
950.185	72.25
950.353	33.5
950.522	36.8
950.69	92.79
950.859	21.68
951.028	57.33
951.196	60.05
951.365	17.81
951.533	28.27
951.701	41.64
951.87	45.71
952.038	2.12
952.207	32.53
952.375	113.52
952.543	26.91
952.712	11.41
952.88	24.01
953.048	95.31
953.217	51.71
953.385	17.61
953.553	75.55
953.721	23.23
953.89	43.58
954.058	5.02
954.226	0.37
954.394	37.57
954.562	18.39
954.73	24.4
954.898	22.65
955.067	65.08
955.235	43
955.403	67.21
955.571	94.92
955.739	77.68
955.907	18.78
956.075	17.42
956.243	-8.93
956.41	38.54
956.578	3.08
956.746	-22.68
956.914	32.15
957.082	64.11
957.25	72.45
957.418	30.4
957.585	30.21
957.753	83.68
957.921	12.38
958.089	26.53
958.256	82.33
958.424	56.17
958.592	64.89
958.759	5.99
958.927	79.03
959.095	-0.02
959.262	47.26
959.43	40.09
959.597	7.73
959.765	32.53
959.932	20.33
960.1	50.36
960.267	58.5
960.435	36.6
960.602	77.29
960.77	35.44
960.937	-20.36
961.104	45.13
961.272	0.57
961.439	3.08
961.606	46.29
961.774	64.11
961.941	38.54
962.108	60.82
962.275	51.52
962.443	75.55
962.61	57.72
962.777	123.79
962.944	69.93
963.111	73.8
963.278	63.53
963.446	53.85
963.613	70.51
963.78	56.17
963.947	69.35
964.114	64.31
964.281	104.03
964.448	79.23
964.615	49.97
964.782	47.26
964.949	78.65
965.116	96.28
965.282	95.31
965.449	55.01
965.616	23.04
965.783	70.31
965.95	63.34
966.117	15.29
966.283	54.62
966.45	42.41
966.617	51.71
966.784	95.5
966.95	66.83
967.117	102.09
967.284	40.48
967.45	51.13
967.617	101.51
967.784	77.87
967.95	98.6
968.117	74.58
968.283	88.72
968.45	146.26
968.616	83.1
968.783	112.55
968.949	93.37
969.116	109.26
969.282	59.27
969.449	88.14
969.615	98.99
969.781	43.38
969.948	48.23
970.114	51.91
970.28	124.37
970.447	68.76
970.613	108.09
970.779	87.17
970.945	82.91
971.112	87.75
971.278	75.35
971.444	68.76
971.61	92.01
971.776	65.28
971.942	90.66
972.108	89.11
972.275	53.07
972.441	88.91
972.607	131.54
972.773	54.43
972.939	94.73
973.105	66.44
973.271	28.85
973.437	51.91
973.602	21.3
973.768	90.85
973.934	73.22
974.1	93.76
974.266	13.93
974.432	95.31
974.598	59.08
974.763	102.86
974.929	49
975.095	127.28
975.261	20.91
975.426	37.96
975.592	38.54
975.758	114.1
975.923	4.83
976.089	52.88
976.255	76.9
976.42	85.43
976.586	78.65
976.751	89.5
976.917	111.97
977.082	95.89
977.248	30.4
977.413	18.58
977.579	31.76
977.744	71.67
977.91	24.2
978.075	27.88
978.24	83.1
978.406	54.81
978.571	49
978.736	17.81
978.902	85.81
979.067	27.3
979.232	19.36
979.397	64.89
979.563	119.14
979.728	49.2
979.893	34.08
980.058	40.28
980.223	89.3
980.388	61.4
980.554	83.49
980.719	28.46
980.884	53.26
981.049	100.73
981.214	28.46
981.379	68.76
981.544	39.7
981.709	74
981.874	67.99
982.039	44.55
982.204	96.28
982.368	50.16
982.533	46.87
982.698	78.65
982.863	101.51
983.028	46.48
983.193	79.81
983.357	55.01
983.522	55.59
983.687	42.8
983.852	45.51
984.016	47.84
984.181	61.79
984.346	69.73
984.51	97.24
984.675	55.2
984.839	60.82
985.004	89.88
985.168	100.15
985.333	82.33
985.498	57.72
985.662	74.19
985.827	79.61
985.991	67.02
986.155	50.36
986.32	101.31
986.484	107.51
986.649	76.32
986.813	23.23
986.977	86.01
987.142	74.96
987.306	33.11
987.47	29.24
987.634	41.06
987.799	70.51
987.963	67.6
988.127	86.2
988.291	119.33
988.455	48.42
988.62	39.12
988.784	96.86
988.948	88.14
989.112	35.25
989.276	87.17
989.44	56.56
989.604	38.35
989.768	51.71
989.932	116.62
990.096	34.28
990.26	6.57
990.424	10.64
990.588	54.43
990.752	106.74
990.915	85.43
991.079	42.03
991.243	47.45
991.407	102.09
991.571	40.67
991.734	86.98
991.898	70.9
992.062	134.64
992.226	46.29
992.389	32.53
992.553	13.74
992.717	29.82
992.88	40.28
993.044	57.91
993.207	41.45
993.371	82.71
993.535	72.45
993.698	58.3
993.862	64.5
994.025	58.69
994.189	68.96
994.352	81.16
994.515	59.66
994.679	99.96
994.842	43.38
995.006	75.93
995.169	21.49
995.332	46.87
995.496	63.34
995.659	15.68
995.822	23.62
995.985	76.32
996.149	72.06
996.312	49
996.475	105.77
996.638	35.63
996.801	80.58
996.964	108.29
997.128	46.68
997.291	50.94
997.454	61.21
997.617	9.48
997.78	96.66
997.943	13.16
998.106	98.21
998.269	44.55
998.432	72.64
998.595	59.66
998.758	28.85
998.92	14.32
999.083	10.25
999.246	17.42
999.409	13.55
999.572	-8.35
999.735	33.11
999.897	55.98
1000.06	53.85
1000.223	26.72
1000.386	59.08
1000.548	68.38
1000.711	54.81
1000.874	59.08
1001.036	-12.61
1001.199	78.26
1001.361	24.78
1001.524	30.98
1001.687	63.92
1001.849	16.84
1002.012	43.19
1002.174	33.89
1002.337	73.8
1002.499	46.29
1002.661	68.76
1002.824	14.9
1002.986	6.18
1003.149	31.37
1003.311	8.7
1003.473	71.86
1003.636	7.15
1003.798	57.53
1003.96	66.63
1004.123	34.28
1004.285	31.95
1004.447	16.65
1004.609	75.93
1004.771	68.76
1004.933	18.39
1005.096	11.41
1005.258	-12.8
1005.42	46.29
1005.582	90.46
1005.744	45.9
1005.906	28.27
1006.068	39.12
1006.23	-10.87
1006.392	-24.82
1006.554	3.28
1006.716	76.13
1006.878	60.82
1007.04	11.8
1007.202	11.03
1007.363	42.61
1007.525	49.78
1007.687	29.43
1007.849	57.33
1008.011	-8.15
1008.172	-2.53
1008.334	21.3
1008.496	26.53
1008.658	-34.31
1008.819	15.29
1008.981	-0.79
1009.143	29.05
1009.304	0.18
1009.466	50.94
1009.627	72.25
1009.789	104.41
1009.95	27.5
1010.112	11.03
1010.273	39.31
1010.435	-11.64
1010.596	15.48
1010.758	4.25
1010.919	-4.28
1011.081	-27.14
1011.242	23.81
1011.403	32.53
1011.565	4.83
1011.726	27.3
1011.887	-4.28
1012.049	-2.15
1012.21	49.58
1012.371	62.95
1012.532	-57.17
1012.693	24.98
1012.855	22.07
1013.016	31.18
1013.177	48.61
1013.338	3.08
1013.499	68.76
1013.66	22.46
1013.821	56.17
1013.982	30.21
1014.143	9.48
1014.304	-7.96
1014.465	46.48
1014.626	65.08
1014.787	23.81
1014.948	73.22
1015.109	-42.83
1015.27	61.98
1015.431	-2.73
1015.592	-7.77
1015.752	60.63
1015.913	18
1016.074	41.06
1016.235	32.73
1016.395	20.33
1016.556	14.32
1016.717	6.57
1016.877	59.66
1017.038	-17.84
1017.199	23.81
1017.359	29.82
1017.52	26.53
1017.681	-1.37
1017.841	2.89
1018.002	-7.38
1018.162	-9.12
1018.323	60.05
1018.483	5.02
1018.644	-18.42
1018.804	-9.9
1018.964	-15.9
1019.125	8.7
1019.285	-3.7
1019.446	-12.61
1019.606	-30.24
1019.766	-17.45
1019.926	43.77
1020.087	49.58
1020.247	-25.4
1020.407	25.75
1020.567	56.56
1020.728	1.73
1020.888	-1.95
1021.048	-2.92
1021.208	-15.9
1021.368	8.7
1021.528	55.2
1021.688	51.13
1021.848	31.18
1022.008	12.38
1022.168	-7.77
1022.328	29.63
1022.488	20.91
1022.648	-6.6
1022.808	6.96
1022.968	36.99
1023.128	-8.35
1023.288	-23.46
1023.448	24.59
1023.608	12.38
1023.767	41.25
1023.927	-8.35
1024.087	-13.58
1024.247	-10.87
1024.406	-4.47
1024.566	-29.66
1024.726	0.57
1024.885	11.41
1025.045	47.65
1025.205	6.96
1025.364	-8.93
1025.524	5.99
1025.683	-2.73
1025.843	5.02
1026.003	2.31
1026.162	59.66
1026.321	38.93
1026.481	17.61
1026.64	-6.02
1026.8	24.98
1026.959	5.8
1027.119	19.55
1027.278	3.86
1027.437	-21.33
1027.597	-3.12
1027.756	12.96
1027.915	13.16
1028.074	25.75
1028.234	-15.32
1028.393	27.88
1028.552	-12.61
1028.711	-31.21
1028.87	28.85
1029.03	-21.13
1029.189	10.83
1029.348	-26.75
1029.507	-11.83
1029.666	8.9
1029.825	-7.96
1029.984	-4.47
1030.143	-9.9
1030.302	-13.19
1030.461	-52.52
1030.62	0.37
1030.779	35.44
1030.938	-3.12
1031.097	-25.01
1031.255	17.23
1031.414	33.7
1031.573	42.03
1031.732	-63.18
1031.891	-1.95
1032.049	46.48
1032.208	12.38
1032.367	-13.77
1032.525	5.41
1032.684	-7.18
1032.843	28.85
1033.001	-66.67
1033.16	137.16
1033.319	37.76
1033.477	17.81
1033.636	-4.47
1033.794	-53.3
1033.953	34.86
1034.111	52.88
1034.27	16.84
1034.428	4.44
1034.587	-19.58
1034.745	-6.6
1034.903	29.05
1035.062	51.52
1035.22	-13.77
1035.378	31.37
1035.537	-29.27
1035.695	41.06
1035.853	24.2
1036.011	48.42
1036.17	4.44
1036.328	-43.42
1036.486	5.8
1036.644	12.19
1036.802	-73.25
1036.96	-25.2
1037.119	31.18
1037.277	-15.9
1037.435	-48.07
1037.593	1.92
1037.751	-4.28
1037.909	24.98
1038.067	24.98
