Data from oakcork_FLMT105791__14__17-26-49-067.txt Node

Date: Mon Mar 20 17:26:49 GMT 2023
User: antho
Spectrometer: FLMT10579
Trigger mode: 0
Integration Time (sec): 1.000000E-1
Scans to average: 10
Electric dark correction enabled: true
Nonlinearity correction enabled: false
Boxcar width: 0
XAxis mode: Wavelengths
Number of Pixels in Spectrum: 3648
>>>>>Begin Spectral Data<<<<<
345.248	-147.96
345.464	-147.96
345.681	-147.96
345.898	-140.79
346.114	-161.33
346.331	-42.37
346.548	20.99
346.764	-3.04
346.981	4.13
347.197	-3.04
347.414	26.41
347.631	-29.97
347.847	66.71
348.064	1.61
348.28	31.84
348.497	-46.82
348.713	-26.48
348.93	47.15
349.146	25.25
349.363	14.01
349.579	31.45
349.796	-4.59
350.012	-7.49
350.229	36.1
350.445	-2.45
350.661	-13.69
350.878	21.96
351.094	41.14
351.311	34.16
351.527	30.29
351.743	-7.1
351.96	35.52
352.176	42.5
352.392	22.35
352.609	29.71
352.825	25.45
353.041	4.33
353.257	15.76
353.474	48.11
353.69	24.48
353.906	14.98
354.122	-1.87
354.339	77.18
354.555	3.75
354.771	3.16
354.987	82.41
355.203	96.55
355.42	15.76
355.636	-12.34
355.852	-17.76
356.068	33
356.284	-25.51
356.5	64.39
356.716	46.95
356.932	29.51
357.148	47.92
357.364	24.67
357.58	67.68
357.796	78.73
358.012	39.4
358.228	46.18
358.444	-46.63
358.66	58
358.876	40.95
359.092	1.81
359.308	56.45
359.524	30.1
359.74	14.01
359.956	22.54
360.172	16.73
360.388	38.81
360.604	11.11
360.819	81.05
361.035	28.55
361.251	49.47
361.467	-21.44
361.683	48.7
361.898	18.28
362.114	33
362.33	32.61
362.546	37.65
362.762	27.77
362.977	28.35
363.193	5.88
363.409	58
363.624	-4.2
363.84	-4
364.056	5.3
364.271	64.19
364.487	25.64
364.703	3.94
364.918	-6.52
365.134	8.4
365.35	23.7
365.565	132.78
365.781	21.38
365.996	25.06
366.212	95
366.427	68.07
366.643	2
366.858	12.08
367.074	10.53
367.289	62.26
367.505	120.96
367.72	-15.24
367.936	17.7
368.151	36.3
368.367	61.87
368.582	40.36
368.798	38.62
369.013	70.59
369.228	33.39
369.444	35.33
369.659	67.49
369.874	37.26
370.09	62.26
370.305	-25.12
370.52	21.76
370.736	98.88
370.951	30.29
371.166	67.1
371.381	96.94
371.597	73.88
371.812	1.61
372.027	8.2
372.242	28.93
372.458	102.75
372.673	17.7
372.888	17.89
373.103	47.15
373.318	110.5
373.533	68.07
373.749	60.51
373.964	10.33
374.179	65.94
374.394	6.85
374.609	84.34
374.824	15.95
375.039	79.69
375.254	3.36
375.469	95.39
375.684	75.43
375.899	84.34
376.114	26.61
376.329	29.9
376.544	47.53
376.759	89.38
376.974	2.2
377.189	42.5
377.404	48.89
377.619	51.6
377.834	-19.31
378.049	-0.71
378.264	4.33
378.478	39.2
378.693	6.26
378.908	67.1
379.123	14.79
379.338	73.88
379.553	48.31
379.767	40.95
379.982	51.02
380.197	73.11
380.412	59.93
380.626	45.98
380.841	118.64
381.056	47.34
381.271	98.29
381.485	26.61
381.7	0.45
381.915	56.45
382.129	35.71
382.344	72.91
382.559	41.14
382.773	70.39
382.988	-15.63
383.202	53.73
383.417	10.72
383.632	130.07
383.846	61.48
384.061	57.03
384.275	24.48
384.49	57.03
384.704	74.27
384.919	73.49
385.133	20.41
385.348	65.36
385.562	-8.07
385.777	112.44
385.991	44.05
386.206	27.19
386.42	35.91
386.634	111.08
386.849	69.43
387.063	69.62
387.277	-6.91
387.492	28.74
387.706	19.44
387.92	39.2
388.135	93.64
388.349	60.32
388.563	51.8
388.778	58.96
388.992	67.1
389.206	82.99
389.42	130.26
389.635	57.03
389.849	68.26
390.063	68.84
390.277	53.15
390.491	135.3
390.706	48.7
390.92	102.56
391.134	60.13
391.348	93.26
391.562	4.13
391.776	74.27
391.99	40.36
392.205	95.97
392.419	43.85
392.633	31.65
392.847	106.24
393.061	42.3
393.275	112.05
393.489	49.66
393.703	48.89
393.917	93.45
394.131	38.62
394.345	66.13
394.559	78.53
394.773	49.66
394.986	73.11
395.2	48.31
395.414	107.98
395.628	40.36
395.842	60.71
396.056	79.31
396.27	19.63
396.484	107.79
396.697	67.88
396.911	109.14
397.125	79.5
397.339	101.59
397.553	73.69
397.766	132.01
397.98	106.24
398.194	126.58
398.408	75.04
398.621	109.14
398.835	109.73
399.049	92.29
399.262	141.11
399.476	120.96
399.69	125.42
399.903	178.12
400.117	102.36
400.331	123.29
400.544	84.34
400.758	179.67
400.971	124.84
401.185	134.53
401.398	82.21
401.612	143.24
401.826	127.74
402.039	125.42
402.253	89.96
402.466	134.91
402.68	123.87
402.893	122.9
403.106	132.78
403.32	106.24
403.533	126
403.747	146.54
403.96	129.88
404.174	132.01
404.387	72.91
404.6	122.9
404.814	148.28
405.027	111.28
405.24	109.92
405.454	114.38
405.667	154.48
405.88	76.79
406.094	120.19
406.307	128.33
406.52	126
406.733	88.8
406.947	109.73
407.16	160.87
407.373	166.88
407.586	116.12
407.799	99.26
408.012	149.25
408.226	133.94
408.439	163.97
408.652	75.82
408.865	161.26
409.078	180.83
409.291	164.94
409.504	100.62
409.717	144.02
409.93	150.41
410.143	135.69
410.357	86.09
410.57	79.11
410.783	101.78
410.996	122.51
411.209	134.72
411.421	179.67
411.634	136.66
411.847	121.54
412.06	137.24
412.273	113.99
412.486	145.18
412.699	241.47
412.912	138.98
413.125	165.72
413.338	146.15
413.55	165.14
413.763	163.2
413.976	151.77
414.189	104.3
414.402	116.51
414.615	175.99
414.827	109.34
415.04	187.61
415.253	187.03
415.466	193.42
415.678	235.08
415.891	148.09
416.104	133.56
416.316	150.8
416.529	118.06
416.742	184.9
416.954	178.7
417.167	165.33
417.38	177.34
417.592	193.81
417.805	134.33
418.017	91.71
418.23	172.89
418.442	159.32
418.655	119.8
418.868	159.91
419.08	197.3
419.293	203.11
419.505	153.71
419.718	167.85
419.93	175.99
420.142	140.53
420.355	200.79
420.567	201.56
420.78	197.69
420.992	127.55
421.205	251.16
421.417	115.54
421.629	168.43
421.842	131.23
422.054	130.26
422.266	192.07
422.479	205.24
422.691	139.76
422.903	190.91
423.115	143.83
423.328	142.66
423.54	168.62
423.752	166.88
423.964	163.39
424.177	188.58
424.389	164.56
424.601	274.22
424.813	185.48
425.025	196.72
425.238	194.39
425.45	172.11
425.662	136.66
425.874	459.83
426.086	174.24
426.298	207.76
426.51	187.22
426.722	164.17
426.934	163.39
427.146	207.18
427.358	143.44
427.57	212.99
427.782	162.04
427.994	198.07
428.206	165.91
428.418	142.66
428.63	212.02
428.842	235.66
429.054	197.49
429.266	200.21
429.478	160.29
429.69	175.41
429.902	158.36
430.114	193.81
430.325	188.97
430.537	134.33
430.749	174.05
430.961	93.84
431.173	156.61
431.384	185.87
431.596	108.56
431.808	158.55
432.02	207.37
432.231	225.39
432.443	253.87
432.655	179.67
432.867	159.32
433.078	196.33
433.29	267.63
433.502	237.79
433.713	253.1
433.925	205.82
434.136	239.15
434.348	179.28
434.56	183.93
434.771	286.42
434.983	161.84
435.194	205.63
435.406	214.16
435.617	225.2
435.829	269.76
436.04	266.66
436.252	250.19
436.463	272.28
436.675	290.3
436.886	257.36
437.098	242.44
437.309	271.31
437.521	237.99
437.732	279.06
437.943	243.99
438.155	232.56
438.366	199.62
438.578	282.55
438.789	237.21
439	246.51
439.211	239.92
439.423	238.57
439.634	265.69
439.845	267.24
440.057	259.3
440.268	272.47
440.479	229.46
440.69	251.94
440.902	225.97
441.113	260.07
441.324	217.64
441.535	270.92
441.746	326.92
441.957	221.91
442.168	253.68
442.38	289.52
442.591	310.84
442.802	239.34
443.013	268.4
443.224	279.45
443.435	269.18
443.646	261.43
443.857	275.38
444.068	237.99
444.279	266.27
444.49	356.56
444.701	280.22
444.912	366.25
445.123	301.92
445.334	309.09
445.545	267.63
445.756	289.33
445.967	251.55
446.178	284.68
446.388	304.64
446.599	311.42
446.81	319.75
447.021	284.49
447.232	312.77
447.443	342.8
447.653	281.77
447.864	345.52
448.075	307.15
448.286	290.49
448.496	315.49
448.707	361.21
448.918	286.04
449.129	375.93
449.339	302.12
449.55	327.69
449.761	290.88
449.971	370.12
450.182	305.41
450.393	334.47
450.603	309.29
450.814	336.6
451.024	354.23
451.235	365.47
451.446	383.3
451.656	370.7
451.867	330.6
452.077	315.87
452.288	376.52
452.498	390.27
452.709	340.87
452.919	349.2
453.13	308.9
453.34	365.08
453.55	259.3
453.761	330.4
453.971	336.41
454.182	351.52
454.392	349.97
454.602	392.6
454.813	347.65
455.023	370.12
455.233	312.97
455.444	365.86
455.654	265.69
455.864	308.32
456.075	318.97
456.285	320.14
456.495	320.72
456.705	353.27
456.916	383.49
457.126	405.58
457.336	349.97
457.546	288.75
457.756	308.7
457.967	406.16
458.177	332.34
458.387	361.6
458.597	319.55
458.807	328.08
459.017	330.98
459.227	373.42
459.437	351.72
459.647	380
459.857	368.57
460.068	341.64
460.278	344.55
460.488	373.42
460.698	412.55
460.908	358.88
461.117	299.79
461.327	337.18
461.537	401.12
461.747	371.09
461.957	386.4
462.167	460.02
462.377	404.42
462.587	342.8
462.797	392.6
463.007	399.96
463.216	377.87
463.426	431.54
463.636	400.93
463.846	321.1
464.056	371.48
464.265	399.57
464.475	332.15
464.685	361.02
464.895	396.08
465.104	372.83
465.314	431.15
465.524	371.87
465.733	335.05
465.943	466.22
466.153	457.11
466.362	445.49
466.572	384.27
466.782	391.24
466.991	390.47
467.201	453.43
467.41	348.62
467.62	412.75
467.829	388.33
468.039	397.63
468.249	403.06
468.458	395.31
468.668	402.48
468.877	427.86
469.086	508.07
469.296	468.74
469.505	403.64
469.715	489.66
469.924	429.6
470.134	476.3
470.343	471.65
470.552	409.26
470.762	434.25
470.971	418.75
471.18	444.91
471.39	435.8
471.599	426.5
471.808	448.78
472.018	418.75
472.227	482.11
472.436	481.14
472.645	432.12
472.855	434.64
473.064	515.63
473.273	493.35
473.482	459.44
473.691	529.19
473.901	477.26
474.11	493.35
474.319	552.24
474.528	493.93
474.737	566.19
474.946	521.24
475.155	472.03
475.364	547.21
475.573	500.71
475.783	537.71
475.992	526.48
476.201	538.1
476.41	509.43
476.619	479.59
476.828	522.02
477.037	500.32
477.245	470.48
477.454	525.51
477.663	532.68
477.872	502.45
478.081	586.15
478.29	537.33
478.499	600.29
478.708	540.62
478.917	611.14
479.125	552.05
479.334	569.88
479.543	547.79
479.752	565.42
479.961	593.12
480.169	621.8
480.378	543.72
480.587	726.23
480.796	608.82
481.004	572.98
481.213	595.84
481.422	598.36
481.63	578.59
481.839	623.93
482.048	657.84
482.256	599.91
482.465	650.28
482.674	643.31
482.882	658.61
483.091	696.78
483.299	627.03
483.508	683.6
483.716	630.52
483.925	658.81
484.134	633.62
484.342	653.77
484.551	696.59
484.759	672.17
484.967	669.46
485.176	699.49
485.384	645.24
485.593	702.98
485.801	659.97
486.01	651.64
486.218	629.74
486.426	550.69
486.635	626.64
486.843	600.1
487.051	622.19
487.26	638.66
487.468	678.18
487.676	669.07
487.885	629.55
488.093	657.64
488.301	683.41
488.509	681.09
488.717	734.17
488.926	686.12
489.134	651.06
489.342	682.44
489.55	670.43
489.758	679.34
489.967	689.03
490.175	799.85
490.383	687.29
490.591	767.3
490.799	691.55
491.007	758.2
491.215	769.24
491.423	711.89
491.631	718.48
491.839	753.55
492.047	746.77
492.255	693.49
492.463	672.37
492.671	744.64
492.879	781.83
493.087	733.01
493.295	752.97
493.503	781.45
493.711	783.19
493.919	785.13
494.127	798.3
494.334	817.1
494.542	753.55
494.75	770.21
494.958	779.32
495.166	843.83
495.374	787.84
495.581	796.56
495.789	796.17
495.997	857.98
496.205	788.62
496.412	775.83
496.62	796.95
496.828	805.28
497.035	785.13
497.243	812.25
497.451	829.11
497.658	820
497.866	798.3
498.074	864.37
498.281	816.13
498.489	885.68
498.696	800.63
498.904	802.95
499.112	809.15
499.319	884.71
499.527	822.72
499.734	863.6
499.942	780.09
500.149	836.28
500.357	830.27
500.564	793.46
500.771	837.05
500.979	793.27
501.186	789
501.394	847.32
501.601	800.05
501.808	838.99
502.016	809.93
502.223	839.57
502.43	812.45
502.638	802.76
502.845	799.27
503.052	867.28
503.26	821.55
503.467	901.18
503.674	821.17
503.881	852.36
504.089	901.18
504.296	827.75
504.503	779.51
504.71	836.08
504.917	774.08
505.125	846.74
505.332	815.55
505.539	860.69
505.746	927.34
505.953	909.13
506.16	871.54
506.367	900.8
506.574	945.94
506.781	919.01
506.988	871.93
507.195	915.71
507.402	876.38
507.609	936.64
507.816	902.93
508.023	882.2
508.23	875.61
508.437	857.2
508.644	905.45
508.851	922.11
509.058	934.12
509.265	904.28
509.472	931.99
509.679	1009.88
509.885	900.02
510.092	935.48
510.299	911.65
510.506	902.93
510.713	925.6
510.92	910.29
511.126	951.94
511.333	973.06
511.54	940.51
511.746	969.77
511.953	993.79
512.16	1001.16
512.367	913.97
512.573	922.5
512.78	976.16
512.987	956.21
513.193	975.97
513.4	885.68
513.606	902.93
513.813	930.25
514.02	945.16
514.226	1025.76
514.433	988.37
514.639	919.01
514.846	977.33
515.052	934.7
515.259	950.59
515.465	936.64
515.672	938.96
515.878	1031.19
516.085	958.53
516.291	1027.89
516.497	945.16
516.704	975.39
516.91	917.85
517.117	899.63
517.323	827.37
517.529	903.51
517.736	873.67
517.942	890.91
518.148	889.36
518.354	900.02
518.561	924.24
518.767	912.42
518.973	943.81
519.179	979.26
519.386	926.76
519.592	979.65
519.798	959.89
520.004	1054.24
520.21	980.62
520.417	1037.58
520.623	1030.41
520.829	1073.04
521.035	1025.96
521.241	1031.57
521.447	1023.63
521.653	1135.42
521.859	1025.96
522.065	1049.59
522.271	1137.94
522.477	1096.48
522.683	1122.64
522.889	1104.62
523.095	1093.38
523.301	1061.02
523.507	1070.91
523.713	1095.32
523.919	1058.51
524.125	1140.07
524.331	1106.17
524.537	1181.34
524.742	1126.51
524.948	1169.91
525.154	1141.62
525.36	1232.3
525.566	1158.48
525.772	1201.1
525.977	1114.11
526.183	1209.05
526.389	1181.92
526.595	1121.28
526.8	1117.21
527.006	1056.18
527.212	1045.14
527.417	1049.21
527.623	1045.33
527.829	1105.78
528.034	1121.28
528.24	1136
528.446	1102.49
528.651	1223.38
528.857	1210.02
529.062	1260.39
529.268	1167
529.473	1185.41
529.679	1189.29
529.884	1259.23
530.09	1203.62
530.295	1265.23
530.501	1272.4
530.706	1224.55
530.912	1226.48
531.117	1240.05
531.323	1249.93
531.528	1270.27
531.733	1255.55
531.939	1248.96
532.144	1266.59
532.35	1244.7
532.555	1282.09
532.76	1275.89
532.966	1269.11
533.171	1248.57
533.376	1194.9
533.581	1207.11
533.787	1257.48
533.992	1232.68
534.197	1285.38
534.402	1237.92
534.607	1260
534.813	1323.55
535.018	1258.84
535.223	1245.67
535.428	1275.5
535.633	1328.01
535.838	1329.17
536.043	1326.65
536.249	1394.08
536.454	1317.93
536.659	1342.73
536.864	1313.09
537.069	1283.06
537.274	1316.96
537.479	1323.16
537.684	1317.93
537.889	1284.8
538.094	1409.96
538.299	1305.73
538.504	1303.21
538.708	1336.34
538.913	1352.03
539.118	1303.6
539.323	1341.18
539.528	1290.61
539.733	1296.04
539.938	1342.15
540.142	1360.56
540.347	1316
540.552	1330.14
540.757	1272.98
540.962	1287.9
541.166	1260.2
541.371	1268.53
541.576	1329.36
541.781	1209.82
541.985	1348.35
542.19	1320.45
542.395	1371.21
542.599	1428.18
542.804	1348.55
543.008	1429.53
543.213	1330.14
543.418	1313.67
543.622	1345.25
543.827	1274.92
544.031	1389.62
544.236	1415.97
544.44	1372.96
544.645	1437.28
544.849	1362.11
545.054	1398.34
545.258	1452.59
545.463	1421.39
545.667	1346.22
545.872	1407.44
546.076	1346.41
546.281	1392.53
546.485	1336.34
546.689	1415
546.894	1452.01
547.098	1376.25
547.302	1334.6
547.507	1381.09
547.711	1385.55
547.915	1430.5
548.119	1365.21
548.324	1375.67
548.528	1451.81
548.732	1379.54
548.936	1456.08
549.141	1416.55
549.345	1366.56
549.549	1407.83
549.753	1394.27
549.957	1487.85
550.161	1478.74
550.366	1400.47
550.57	1361.72
550.774	1424.88
550.978	1370.63
551.182	1441.74
551.386	1383.81
551.59	1389.81
551.794	1391.94
551.998	1411.9
552.202	1389.04
552.406	1365.98
552.61	1392.53
552.814	1460.53
553.018	1459.17
553.222	1388.65
553.426	1379.93
553.63	1474.29
553.833	1399.31
554.037	1351.65
554.241	1443.48
554.445	1433.21
554.649	1370.05
554.853	1412.29
555.056	1445.81
555.26	1438.64
555.464	1420.81
555.668	1414.81
555.871	1420.04
556.075	1446.19
556.279	1387.68
556.483	1383.42
556.686	1415.78
556.89	1378.96
557.094	1405.7
557.297	1352.42
557.501	1436.12
557.704	1324.33
557.908	1428.56
558.112	1332.08
558.315	1438.44
558.519	1339.44
558.722	1357.46
558.926	1365.21
559.129	1305.92
559.333	1280.73
559.536	1309.8
559.74	1296.43
559.943	1284.8
560.147	1285.96
560.35	1321.23
560.553	1324.52
560.757	1253.8
560.96	1400.08
561.164	1325.68
561.367	1401.24
561.57	1291.58
561.774	1351.65
561.977	1298.56
562.18	1298.36
562.384	1352.81
562.587	1344.28
562.79	1274.15
562.993	1290.61
563.197	1330.33
563.4	1358.04
563.603	1372.18
563.806	1385.94
564.009	1289.84
564.212	1330.33
564.416	1238.11
564.619	1311.73
564.822	1210.02
565.025	1371.79
565.228	1285.96
565.431	1288.1
565.634	1222.8
565.837	1267.56
566.04	1201.1
566.243	1253.8
566.446	1187.15
566.649	1241.6
566.852	1188.32
567.055	1221.25
567.258	1283.45
567.461	1289.65
567.664	1293.33
567.867	1189.67
568.07	1248.57
568.273	1247.8
568.475	1273.18
568.678	1208.47
568.881	1206.72
569.084	1221.06
569.287	1118.37
569.489	1144.92
569.692	1204.78
569.895	1207.88
570.098	1161.77
570.3	1156.74
570.503	1120.7
570.706	1125.15
570.909	1133.87
571.111	1055.99
571.314	1107.72
571.516	1140.65
571.719	1148.02
571.922	1106.75
572.124	1151.89
572.327	1108.49
572.529	1103.07
572.732	1093.19
572.935	1117.99
573.137	1178.44
573.34	1100.36
573.542	1159.84
573.745	1148.21
573.947	1131.16
574.15	1075.56
574.352	1083.31
574.554	1164.87
574.757	1099.58
574.959	1075.94
575.162	1055.99
575.364	1102.68
575.566	1136
575.769	1027.12
575.971	1045.91
576.173	1028.86
576.376	1071.1
576.578	1088.73
576.78	1130.58
576.982	979.65
577.185	1061.41
577.387	1017.24
577.589	1028.86
577.791	1080.01
577.993	1082.14
578.196	1041.84
578.398	1040.1
578.6	1079.24
578.802	993.99
579.004	993.79
579.206	999.22
579.408	1039.52
579.61	1005.03
579.812	1073.62
580.014	1049.98
580.216	1014.14
580.418	1032.74
580.62	996.31
580.822	1013.36
581.024	1014.14
581.226	1047.07
581.428	1003.87
581.63	1110.62
581.832	1040.87
582.034	1091.06
582.236	1025.57
582.438	1117.6
582.64	1077.69
582.841	1113.14
583.043	1146.27
583.245	1053.66
583.447	1088.15
583.649	1069.16
583.85	1081.17
584.052	1111.59
584.254	987.21
584.456	1072.84
584.657	1007.94
584.859	1058.7
585.061	1032.35
585.262	1039.52
585.464	1015.11
585.666	1059.67
585.867	1038.94
586.069	1091.06
586.27	1039.91
586.472	1038.74
586.674	1013.36
586.875	1032.93
587.077	989.73
587.278	1046.88
587.48	1034.48
587.681	1121.67
587.883	1032.74
588.084	955.04
588.285	981.01
588.487	978.49
588.688	1017.63
588.89	943.23
589.091	937.8
589.292	948.65
589.494	899.44
589.695	891.69
589.896	821.17
590.098	852.16
590.299	872.7
590.5	855.46
590.702	886.07
590.903	914.55
591.104	955.63
591.305	915.13
591.507	958.73
591.708	959.11
591.909	920.17
592.11	999.41
592.311	986.63
592.512	922.5
592.714	913.97
592.915	872.51
593.116	892.85
593.317	942.06
593.518	889.56
593.719	920.17
593.92	963.57
594.121	1006.58
594.322	958.53
594.523	920.56
594.724	894.6
594.925	904.09
595.126	947.88
595.327	929.86
595.528	928.89
595.729	910.48
595.929	920.56
596.13	924.43
596.331	915.13
596.532	928.7
596.733	1017.04
596.934	951.17
597.135	986.63
597.335	950.59
597.536	912.23
597.737	926.18
597.938	914.36
598.138	961.83
598.339	931.99
598.54	953.49
598.74	938.38
598.941	925.98
599.142	988.76
599.342	930.05
599.543	898.28
599.744	941.48
599.944	907.38
600.145	911.06
600.345	934.89
600.546	977.71
600.746	974.03
600.947	1008.13
601.147	920.95
601.348	943.03
601.548	888.2
601.749	907.96
601.949	883.94
602.15	879.1
602.35	897.5
602.551	982.17
602.751	861.66
602.951	892.66
603.152	833.95
603.352	972.29
603.552	888.01
603.753	936.64
603.953	958.73
604.153	915.52
604.354	909.51
604.554	910.1
604.754	901.96
604.954	878.51
605.155	923.08
605.355	877.93
605.555	964.15
605.755	955.82
605.955	909.13
606.155	932.38
606.356	904.86
606.556	921.14
606.756	931.41
606.956	882
607.156	970.54
607.356	878.13
607.556	907.19
607.756	930.44
607.956	954.27
608.156	911.26
608.356	908.93
608.556	963.18
608.756	919.78
608.956	871.93
609.156	890.33
609.356	883.36
609.556	862.24
609.755	889.95
609.955	868.25
610.155	885.88
610.355	912.23
610.555	857.01
610.755	899.44
610.954	828.33
611.154	871.93
611.354	932.57
611.554	837.83
611.753	854.49
611.953	850.81
612.153	887.81
612.352	907.19
612.552	828.92
612.752	792.1
612.951	892.27
613.151	859.33
613.351	832.02
613.55	851.97
613.75	853.91
613.949	891.88
614.149	865.92
614.348	862.43
614.548	818.65
614.747	806.83
614.947	809.35
615.146	783
615.346	865.34
615.545	818.07
615.745	866.5
615.944	856.04
616.144	792.3
616.343	866.7
616.542	813.22
616.742	812.45
616.941	821.55
617.14	788.03
617.34	826.59
617.539	809.54
617.738	791.91
617.938	869.41
618.137	807.8
618.336	751.8
618.535	822.13
618.734	825.62
618.934	820.2
619.133	811.48
619.332	833.37
619.531	790.75
619.73	812.06
619.929	816.9
620.128	835.5
620.328	863.21
620.527	778.54
620.726	809.15
620.925	846.35
621.124	803.53
621.323	796.37
621.522	779.51
621.721	730.1
621.92	746.96
622.119	816.71
622.318	789
622.517	808.77
622.715	785.13
622.914	721
623.113	822.13
623.312	738.63
623.511	837.05
623.71	732.62
623.909	763.62
624.107	844.03
624.306	745.99
624.505	742.89
624.704	741.92
624.902	758.97
625.101	812.45
625.3	768.85
625.499	756.84
625.697	732.62
625.896	730.49
626.095	740.57
626.293	702.2
626.492	710.15
626.69	776.8
626.889	692.52
627.088	778.93
627.286	740.57
627.485	719.25
627.683	720.22
627.882	739.79
628.08	673.72
628.279	697.55
628.477	762.07
628.676	682.83
628.874	733.59
629.073	705.69
629.271	670.43
629.469	713.83
629.668	713.44
629.866	727.78
630.065	693.1
630.263	754.71
630.461	720.22
630.66	743.67
630.858	750.25
631.056	759.17
631.254	753.16
631.453	696
631.651	756.07
631.849	722.55
632.047	733.98
632.245	710.92
632.444	731.65
632.642	722.35
632.84	750.64
633.038	702.98
633.236	676.44
633.434	715.38
633.632	663.65
633.83	698.52
634.028	736.89
634.227	692.71
634.425	768.47
634.623	712.28
634.821	729.72
635.019	753.74
635.216	683.22
635.414	713.44
635.612	731.27
635.81	717.12
636.008	737.66
636.206	713.64
636.404	723.32
636.602	651.83
636.8	717.7
636.997	708.6
637.195	749.09
637.393	712.47
637.591	759.17
637.789	729.14
637.986	711.89
638.184	722.94
638.382	748.7
638.58	746.57
638.777	792.88
638.975	727
639.173	691.35
639.37	699.69
639.568	720.22
639.765	756.26
639.963	719.84
640.161	754.9
640.358	732.04
640.556	692.52
640.753	688.06
640.951	659.58
641.148	726.62
641.346	680.7
641.543	685.74
641.741	700.27
641.938	683.22
642.136	662.29
642.333	669.27
642.531	766.92
642.728	740.18
642.925	734.75
643.123	674.3
643.32	695.81
643.517	692.13
643.715	658.42
643.912	663.46
644.109	721.19
644.306	695.42
644.504	634.78
644.701	711.89
644.898	697.55
645.095	637.49
645.293	684.19
645.49	718.29
645.687	697.36
645.884	704.14
646.081	662.1
646.278	622.38
646.475	663.46
646.672	636.14
646.87	688.45
647.067	631.87
647.264	696.2
647.461	612.5
647.658	607.66
647.855	642.72
648.052	636.14
648.249	557.28
648.446	641.56
648.642	622.77
648.839	626.06
649.036	612.5
649.233	565.81
649.43	597.39
649.627	598.74
649.824	609.98
650.021	584.02
650.217	590.61
650.414	592.74
650.611	635.94
650.808	647.76
651.004	609.4
651.201	627.81
651.398	688.25
651.595	625.67
651.791	590.41
651.988	629.74
652.185	599.71
652.381	613.27
652.578	571.81
652.775	602.81
652.971	572.39
653.168	623.93
653.364	636.14
653.561	590.41
653.757	596.22
653.954	671.59
654.15	584.99
654.347	665.01
654.543	619.86
654.74	560.38
654.936	574.14
655.133	629.74
655.329	610.17
655.525	599.71
655.722	631.68
655.918	573.36
656.115	599.13
656.311	529.19
656.507	528.8
656.704	484.63
656.9	541.78
657.096	520.66
657.292	495.67
657.489	590.99
657.685	572.59
657.881	551.08
658.077	563.87
658.273	570.84
658.47	627.61
658.666	565.03
658.862	587.89
659.058	555.34
659.254	594.09
659.45	550.31
659.646	586.73
659.842	592.74
660.038	632.26
660.234	565.61
660.43	563.48
660.626	644.08
660.822	603.2
661.018	606.49
661.214	565.81
661.41	547.79
661.606	606.49
661.802	602.04
661.998	587.31
662.194	586.54
662.39	589.64
662.586	604.94
662.781	642.92
662.977	609.79
663.173	634.97
663.369	559.61
663.564	591.19
663.76	617.15
663.956	555.54
664.152	630.13
664.347	559.99
664.543	543.72
664.739	587.89
664.934	528.61
665.13	507.49
665.326	625.29
665.521	582.28
665.717	546.63
665.912	548.95
666.108	469.71
666.304	542.36
666.499	555.73
666.695	502.84
666.89	551.08
667.086	578.59
667.281	586.54
667.477	618.51
667.672	564.06
667.867	543.91
668.063	578.79
668.258	531.32
668.454	561.93
668.649	616.57
668.844	560.38
669.04	602.04
669.235	557.48
669.43	544.88
669.626	525.12
669.821	527.44
670.016	498.96
670.211	546.24
670.407	521.63
670.602	543.14
670.797	551.47
670.992	634.01
671.187	541.78
671.382	591.96
671.578	543.14
671.773	578.79
671.968	511.94
672.163	553.21
672.358	581.69
672.553	531.71
672.748	539.07
672.943	601.07
673.138	566.78
673.333	565.42
673.528	495.28
673.723	534.23
673.918	535.58
674.113	512.33
674.308	589.06
674.503	572.39
674.698	585.37
674.892	554.38
675.087	580.14
675.282	566.78
675.477	525.12
675.672	582.47
675.867	525.12
676.061	500.32
676.256	492.57
676.451	506.71
676.646	523.18
676.84	500.51
677.035	473.97
677.23	476.88
677.424	541.78
677.619	576.08
677.814	571.04
678.008	578.01
678.203	486.56
678.397	499.74
678.592	515.43
678.787	582.66
678.981	503.03
679.176	530.93
679.37	510.98
679.565	484.24
679.759	477.85
679.954	560.58
680.148	550.31
680.342	559.8
680.537	554.76
680.731	497.22
680.926	523.76
681.12	539.07
681.314	476.68
681.509	529.77
681.703	498.38
681.897	551.08
682.092	513.69
682.286	507.68
682.48	565.61
682.674	560.96
682.869	503.03
683.063	516.4
683.257	584.79
683.451	487.34
683.645	510.59
683.839	523.18
684.034	510.59
684.228	538.1
684.422	468.55
684.616	472.81
684.81	514.85
685.004	526.86
685.198	514.46
685.392	540.62
685.586	494.7
685.78	541.78
685.974	529.96
686.168	529.96
686.362	561.54
686.556	471.06
686.75	456.15
686.944	448.59
687.138	451.3
687.331	400.54
687.525	415.46
687.719	348.81
687.913	382.72
688.107	414.88
688.301	388.14
688.494	428.05
688.688	434.64
688.882	375.16
689.076	356.75
689.269	392.6
689.463	458.08
689.657	407.71
689.85	398.6
690.044	423.6
690.238	425.92
690.431	391.24
690.625	419.14
690.818	435.41
691.012	444.52
691.205	455.76
691.399	411.39
691.593	455.76
691.786	504.97
691.98	512.33
692.173	507.1
692.366	485.98
692.56	522.41
692.753	565.61
692.947	443.55
693.14	530.93
693.333	505.94
693.527	458.08
693.72	492.38
693.914	469.71
694.107	471.65
694.3	493.15
694.493	495.86
694.687	541.98
694.88	479.4
695.073	540.62
695.266	549.92
695.46	528.99
695.653	555.93
695.846	572.59
696.039	457.11
696.232	521.63
696.425	553.41
696.618	542.36
696.812	565.61
697.005	585.37
697.198	664.23
697.391	574.14
697.584	604.75
697.777	650.28
697.97	595.26
698.163	638.66
698.356	595.45
698.549	679.92
698.742	677.02
698.935	618.51
699.127	649.89
699.32	624.71
699.513	618.89
699.706	667.14
699.899	657.64
700.092	599.52
700.285	649.51
700.477	611.92
700.67	658.03
700.863	693.1
701.056	740.18
701.248	724.29
701.441	713.05
701.634	676.82
701.826	796.95
702.019	659.77
702.212	740.57
702.404	697.17
702.597	692.52
702.79	724.68
702.982	747.74
703.175	761.1
703.367	752.97
703.56	770.6
703.752	849.26
703.945	795.59
704.137	832.98
704.33	835.7
704.522	804.12
704.715	815.55
704.907	870.96
705.1	866.5
705.292	877.93
705.484	848.87
705.677	895.95
705.869	882.78
706.061	922.3
706.254	957.56
706.446	898.28
706.638	899.44
706.831	962.6
707.023	930.25
707.215	1013.75
707.407	985.27
707.599	975.19
707.792	1017.04
707.984	1006.39
708.176	1046.49
708.368	1011.62
708.56	1024.41
708.752	996.12
708.944	1032.16
709.136	1051.14
709.329	1043.39
709.521	1176.69
709.713	1151.5
709.905	1151.89
710.097	1169.52
710.289	1080.01
710.481	1102.68
710.672	1126.32
710.864	1148.4
711.056	1194.13
711.248	1205.56
711.44	1145.3
711.632	1210.98
711.824	1183.67
712.016	1268.72
712.207	1221.83
712.399	1223.58
712.591	1312.31
712.783	1263.68
712.975	1285.96
713.166	1243.34
713.358	1278.99
713.55	1355.71
713.741	1340.6
713.933	1334.79
714.125	1326.65
714.316	1334.6
714.508	1369.47
714.7	1367.73
714.891	1382.26
715.083	1410.16
715.274	1379.74
715.466	1357.07
715.657	1427.79
715.849	1327.23
716.04	1396.21
716.232	1349.71
716.423	1401.83
716.615	1353
716.806	1319.48
716.998	1275.89
717.189	1247.22
717.381	1202.27
717.572	1182.31
717.763	1211.57
717.955	1213.5
718.146	1191.42
718.337	1138.72
718.528	1078.85
718.72	1071.1
718.911	1159.64
719.102	1091.44
719.293	1162.35
719.485	1135.62
719.676	1115.47
719.867	1097.45
720.058	1131.94
720.249	1125.15
720.44	1128.06
720.632	1171.46
720.823	1233.85
721.014	1291.78
721.205	1273.95
721.396	1384.39
721.587	1443.48
721.778	1441.93
721.969	1462.27
722.16	1557.99
722.351	1519.82
722.542	1611.46
722.733	1634.9
722.924	1557.02
723.115	1607.59
723.305	1596.93
723.496	1614.75
723.687	1540.16
723.878	1518.07
724.069	1540.36
724.26	1549.27
724.45	1478.94
724.641	1511.1
724.832	1533.19
725.023	1560.5
725.213	1519.82
725.404	1543.07
725.595	1485.72
725.785	1515.17
725.976	1567.48
726.167	1553.34
726.357	1591.12
726.548	1649.82
726.739	1603.32
726.929	1641.1
727.12	1652.92
727.31	1683.53
727.501	1641.3
727.691	1659.51
727.882	1664.93
728.072	1720.54
728.263	1714.15
728.453	1742.24
728.644	1763.75
728.834	1751.15
729.024	1722.86
729.215	1707.75
729.405	1758.51
729.596	1820.51
729.786	1817.61
729.976	1834.66
730.167	1877.28
730.357	1828.65
730.547	1854.03
730.737	1851.51
730.928	1910.22
731.118	1961.76
731.308	1878.44
731.498	1871.47
731.688	1995.27
731.879	1956.33
732.069	2045.84
732.259	2072
732.449	2069.48
732.639	2169.65
732.829	2151.43
733.019	2168.87
733.209	2260.13
733.399	2197.55
733.589	2307.79
733.779	2332.97
733.969	2305.27
734.159	2349.44
734.349	2437.4
734.539	2447.48
734.729	2446.9
734.919	2486.62
735.109	2534.67
735.299	2443.02
735.488	2493.59
735.678	2457.75
735.868	2512.97
736.058	2513.16
736.248	2512
736.437	2420.16
736.627	2458.52
736.817	2541.25
737.007	2536.02
737.196	2535.83
737.386	2521.49
737.576	2550.36
737.765	2617.98
737.955	2550.36
738.144	2679.4
738.334	2637.74
738.524	2612.16
738.713	2655.76
738.903	2621.85
739.092	2688.31
739.282	2689.47
739.471	2713.88
739.661	2668.55
739.85	2732.29
740.04	2714.08
740.229	2742.75
740.419	2763.48
740.608	2821.41
740.797	2798.74
740.987	2849.7
741.176	2826.26
741.365	2805.14
741.555	2806.88
741.744	2856.09
741.933	2830.52
742.123	2838.07
742.312	2901.43
742.501	2894.07
742.69	2893.87
742.88	2864.62
743.069	2946.38
743.258	2879.15
743.447	2943.28
743.636	2959.75
743.825	2934.37
744.014	2927.2
744.204	2969.05
744.393	2906.66
744.582	2988.81
744.771	3052.16
744.96	2992.3
745.149	3021.36
745.338	2964.4
745.527	2995.78
745.716	2943.47
745.905	2950.25
746.094	3059.33
746.283	3041.9
746.471	3009.54
746.66	3073.86
746.849	3050.61
747.038	3098.66
747.227	3022.72
747.416	3071.93
747.604	3006.05
747.793	2966.72
747.982	3031.05
748.171	3034.53
748.359	3052.94
748.548	3093.05
748.737	3029.3
748.926	3001.6
749.114	2945.22
749.303	3053.71
749.491	3022.13
749.68	2944.05
749.869	3039.76
750.057	3016.32
750.246	3018.07
750.434	3006.05
750.623	3006.83
750.811	2984.93
751	3032.6
751.188	2983.97
751.377	3012.25
751.565	2993.65
751.754	2993.65
751.942	2998.11
752.131	3057.78
752.319	3010.12
752.507	2948.51
752.696	3024.65
752.884	3063.21
753.072	3022.13
753.261	3004.31
753.449	3003.73
753.637	2993.65
753.825	3070.76
754.014	3030.85
754.202	2987.07
754.39	3085.88
754.578	3018.84
754.766	2997.33
754.955	2947.73
755.143	3051.97
755.331	2995.59
755.519	2941.54
755.707	2957.03
755.895	2964.98
756.083	2947.35
756.271	2939.6
756.459	2997.33
756.647	3034.73
756.835	2960.13
757.023	2951.42
757.211	2955.29
757.399	2928.75
757.587	2926.04
757.775	2916.74
757.963	2915.19
758.151	2906.47
758.339	2899.1
758.526	2850.28
758.714	2893.68
758.902	2803.59
759.09	2726.86
759.278	2523.04
759.465	2368.43
759.653	2047.39
759.841	1873.41
760.028	1567.29
760.216	1408.41
760.404	1281.7
760.591	1072.26
760.779	904.86
760.967	776.02
761.154	624.71
761.342	691.55
761.529	699.69
761.717	754.13
761.905	732.43
762.092	801.6
762.28	738.24
762.467	711.89
762.655	680.5
762.842	708.21
763.029	709.57
763.217	737.47
763.404	712.67
763.592	767.88
763.779	678.95
763.966	740.18
764.154	779.7
764.341	856.23
764.528	835.31
764.716	902.93
764.903	949.43
765.09	1027.89
765.277	1067.81
765.465	1158.29
765.652	1222.03
765.839	1308.83
766.026	1394.27
766.213	1455.3
766.4	1521.56
766.588	1710.66
766.775	1715.5
766.962	1803.85
767.149	1837.76
767.336	1983.07
767.523	1942.96
767.71	2084.4
767.897	2185.73
768.084	2244.63
768.271	2221.96
768.458	2301.01
768.645	2387.42
768.832	2351.19
769.019	2393.23
769.206	2437.99
769.392	2485.07
769.579	2575.93
769.766	2548.03
769.953	2498.44
770.14	2560.43
770.327	2541.06
770.513	2626.31
770.7	2703.23
770.887	2561.79
771.073	2647.81
771.26	2630.57
771.447	2541.25
771.634	2556.95
771.82	2704.78
772.007	2589.88
772.193	2609.06
772.38	2620.5
772.567	2625.34
772.753	2603.25
772.94	2661.76
773.126	2662.73
773.313	2669.9
773.499	2646.65
773.686	2659.83
773.872	2610.03
774.059	2631.15
774.245	2577.87
774.432	2591.05
774.618	2524.78
774.804	2608.29
774.991	2524.98
775.177	2612.94
775.363	2606.35
775.55	2596.08
775.736	2511.03
775.922	2570.32
776.109	2561.4
776.295	2574.97
776.481	2591.63
776.667	2567.22
776.853	2546.48
777.04	2588.14
777.226	2555.59
777.412	2600.35
777.598	2540.28
777.784	2519.17
777.97	2519.17
778.156	2572.83
778.342	2504.05
778.528	2510.45
778.715	2477.32
778.901	2497.08
779.087	2492.82
779.272	2447.87
779.458	2466.27
779.644	2480.8
779.83	2494.56
780.016	2539.51
780.202	2448.64
780.388	2433.34
780.574	2408.15
780.76	2419.77
780.946	2508.32
781.131	2452.32
781.317	2438.76
781.503	2408.54
781.689	2422.29
781.874	2532.53
782.06	2397.11
782.246	2453.1
782.432	2429.46
782.617	2454.84
782.803	2502.89
782.989	2375.6
783.174	2395.17
783.36	2345.37
783.545	2345.57
783.731	2387.22
783.916	2313.02
784.102	2404.66
784.288	2347.7
784.473	2372.5
784.659	2308.95
784.844	2358.36
785.029	2326.58
785.215	2319.41
785.4	2276.79
785.586	2371.14
785.771	2280.08
785.956	2322.13
786.142	2289.77
786.327	2254.51
786.512	2305.08
786.698	2280.66
786.883	2201.42
787.068	2237.65
787.254	2288.41
787.439	2230.87
787.624	2227.38
787.809	2190.57
787.994	2194.83
788.18	2304.49
788.365	2160.93
788.55	2204.52
788.735	2190.38
788.92	2198.71
789.105	2174.68
789.29	2201.23
789.475	2151.43
789.66	2129.93
789.845	2096.02
790.03	2126.05
790.215	2171.78
790.4	2165.96
790.585	2154.34
790.77	2117.33
790.955	2062.89
791.14	2134.58
791.325	2177.98
791.51	2027.63
791.695	2113.07
791.879	2071.61
792.064	2036.93
792.249	2170.61
792.434	2112.3
792.618	2110.55
792.803	2118.11
792.988	2093.31
793.173	2069.09
793.357	2088.85
793.542	2062.12
793.727	2075.48
793.911	2123.53
794.096	2099.51
794.281	2102.42
794.465	2206.07
794.65	2132.25
794.834	2108.81
795.019	2208.98
795.203	2160.54
795.388	2169.26
795.572	2178.36
795.757	2140.2
795.941	2197.55
796.126	2137.29
796.31	2050.3
796.494	2134.58
796.679	2136.52
796.863	2062.31
797.048	2176.81
797.232	2159.38
797.416	2155.7
797.601	2113.85
797.785	2197.55
797.969	2197.55
798.153	2130.12
798.338	2129.35
798.522	2186.11
798.706	2158.8
798.89	2182.43
799.074	2268.84
799.258	2206.65
799.443	2125.67
799.627	2165.19
799.811	2183.6
799.995	2157.44
800.179	2150.85
800.363	2136.13
800.547	2164.61
800.731	2169.06
800.915	2071.8
801.099	2108.62
801.283	2140.78
801.467	2143.1
801.651	2093.31
801.835	2185.15
802.019	2164.03
802.202	2163.64
802.386	2090.79
802.57	2106.1
802.754	2109.39
802.938	2095.44
803.121	2111.13
803.305	2159.96
803.489	2113.07
803.673	2182.43
803.856	2136.71
804.04	2114.43
804.224	2144.27
804.407	2141.36
804.591	2131.28
804.775	2143.88
804.958	2148.14
805.142	2245.59
805.326	2141.55
805.509	2151.63
805.693	2146.01
805.876	2154.92
806.06	2147.75
806.243	2183.21
806.427	2156.47
806.61	2214.21
806.794	2112.88
806.977	2215.95
807.16	2131.09
807.344	2170.81
807.527	2139.81
807.71	2145.04
807.894	2150.85
808.077	2197.93
808.26	2092.53
808.444	2086.14
808.627	2140.97
808.81	2099.32
808.993	2054.17
809.177	2057.47
809.36	2053.59
809.543	2098.93
809.726	2002.05
809.909	2020.07
810.092	2002.44
810.276	2006.32
810.459	2001.67
810.642	1984.42
810.825	1942.57
811.008	1966.21
811.191	1902.27
811.374	1939.47
811.557	1907.7
811.74	1988.1
811.923	1857.33
812.106	1870.31
812.289	1869.73
812.472	1831.17
812.654	1859.07
812.837	1851.9
813.02	1786.03
813.203	1756.58
813.386	1681.6
813.569	1708.14
813.751	1618.05
813.934	1655.83
814.117	1635.87
814.3	1602.16
814.482	1546.17
814.665	1529.12
814.848	1487.66
815.03	1469.83
815.213	1444.45
815.396	1460.72
815.578	1459.95
815.761	1390.39
815.943	1466.54
816.126	1387.68
816.309	1350.1
816.491	1296.62
816.674	1238.69
816.856	1309.21
817.039	1251.28
817.221	1348.16
817.403	1296.23
817.586	1316.58
817.768	1319.87
817.951	1254
818.133	1246.63
818.315	1260.39
818.498	1319.29
818.68	1365.6
818.862	1358.62
819.045	1380.51
819.227	1346.61
819.409	1319.1
819.591	1372.57
819.774	1333.05
819.956	1302.24
820.138	1417.91
820.32	1387.88
820.502	1422.56
820.684	1505.48
820.866	1453.56
821.048	1505.67
821.231	1529.89
821.413	1485.33
821.595	1508.97
821.777	1514.97
821.959	1454.53
822.141	1594.99
822.323	1432.63
822.505	1386.91
822.686	1321.61
822.868	1294.68
823.05	1205.37
823.232	1178.24
823.414	1147.24
823.596	1238.5
823.778	1215.05
823.96	1214.08
824.141	1171.65
824.323	1235.4
824.505	1300.88
824.687	1321.61
824.868	1365.6
825.05	1461.31
825.232	1472.35
825.413	1524.66
825.595	1480.68
825.777	1429.92
825.958	1465.96
826.14	1458.01
826.321	1496.96
826.503	1455.88
826.685	1487.66
826.866	1503.74
827.048	1475.64
827.229	1408.03
827.411	1401.63
827.592	1376.83
827.773	1394.08
827.955	1355.13
828.136	1345.06
828.318	1303.98
828.499	1336.34
828.68	1290.23
828.862	1318.9
829.043	1343.7
829.224	1312.7
829.406	1271.05
829.587	1298.75
829.768	1278.8
829.949	1367.53
830.131	1331.5
830.312	1365.79
830.493	1311.93
830.674	1340.02
830.855	1343.9
831.036	1316.96
831.218	1396.59
831.399	1373.34
831.58	1316.58
831.761	1296.04
831.942	1353.39
832.123	1325.49
832.304	1282.28
832.485	1269.88
832.666	1321.42
832.847	1341.96
833.028	1336.73
833.209	1325.88
833.389	1322.2
833.57	1257.29
833.751	1271.82
833.932	1336.73
834.113	1317.16
834.294	1318.71
834.475	1366.76
834.655	1355.71
834.836	1365.6
835.017	1390.2
835.198	1349.13
835.378	1364.63
835.559	1391.75
835.74	1323.36
835.92	1317.16
836.101	1321.61
836.281	1391.56
836.462	1372.57
836.643	1373.34
836.823	1383.61
837.004	1371.41
837.184	1435.73
837.365	1421.59
837.545	1436.7
837.726	1387.29
837.906	1449.29
838.087	1386.91
838.267	1415.78
838.448	1355.13
838.628	1394.27
838.808	1413.45
838.989	1398.14
839.169	1356.49
839.349	1388.84
839.53	1437.09
839.71	1400.47
839.89	1373.34
840.07	1421.2
840.251	1353.78
840.431	1421.2
840.611	1379.93
840.791	1331.11
840.971	1385.94
841.151	1366.95
841.332	1340.21
841.512	1426.04
841.692	1328.98
841.872	1382.26
842.052	1381.48
842.232	1385.36
842.412	1318.9
842.592	1342.54
842.772	1371.6
842.952	1404.93
843.132	1336.53
843.312	1334.21
843.492	1307.08
843.672	1408.99
843.851	1293.71
844.031	1325.1
844.211	1317.16
844.391	1309.41
844.571	1365.21
844.751	1354.36
844.93	1383.61
845.11	1317.55
845.29	1342.73
845.47	1353.97
845.649	1336.34
845.829	1365.21
846.009	1287.9
846.188	1376.83
846.368	1342.35
846.547	1317.93
846.727	1374.12
846.907	1289.84
847.086	1299.33
847.266	1350.48
847.445	1358.62
847.625	1331.69
847.804	1315.61
847.984	1295.46
848.163	1273.57
848.343	1291.58
848.522	1344.28
848.701	1316.58
848.881	1265.23
849.06	1317.74
849.239	1303.79
849.419	1314.45
849.598	1209.05
849.777	1258.45
849.957	1246.63
850.136	1198.97
850.315	1193.74
850.494	1204.78
850.674	1166.23
850.853	1245.47
851.032	1222.03
851.211	1249.93
851.39	1239.66
851.569	1194.71
851.748	1201.88
851.927	1246.83
852.107	1213.12
852.286	1160.42
852.465	1162.74
852.644	1247.6
852.823	1226.29
853.002	1209.05
853.181	1224.74
853.359	1250.7
853.538	1173.01
853.717	1224.74
853.896	1120.89
854.075	1083.31
854.254	1075.94
854.433	1032.54
854.611	1112.56
854.79	1024.6
854.969	1068.39
855.148	1108.88
855.327	1035.64
855.505	1061.41
855.684	1077.88
855.863	1071.49
856.041	1075.36
856.22	1096.09
856.399	1087.57
856.577	1189.09
856.756	1138.72
856.934	1240.82
857.113	1276.67
857.291	1167
857.47	1128.25
857.648	1160.8
857.827	1171.65
858.005	1188.12
858.184	1139.88
858.362	1217.38
858.541	1170.3
858.719	1138.52
858.898	1173.01
859.076	1157.12
859.254	1233.85
859.433	1127.09
859.611	1105.39
859.789	1090.47
859.967	1179.79
860.146	1181.34
860.324	1116.82
860.502	1112.56
860.68	1070.13
860.859	1073.81
861.037	1148.02
861.215	1158.48
861.393	1134.65
861.571	1113.53
861.749	1070.91
861.927	1157.9
862.105	1073.23
862.283	1120.89
862.461	1067.81
862.639	1092.41
862.817	1081.95
862.995	1088.34
863.173	1063.93
863.351	1081.56
863.529	1104.04
863.707	1111.98
863.885	1105.78
864.063	1006.19
864.241	1073.62
864.418	1116.05
864.596	1062.38
864.774	1030.61
864.952	1041.26
865.129	1082.53
865.307	1046.49
865.485	1004.64
865.663	1048.82
865.84	984.49
866.018	1011.62
866.196	901.57
866.373	945.94
866.551	893.63
866.728	866.11
866.906	910.87
867.084	948.65
867.261	940.32
867.439	977.71
867.616	966.67
867.794	959.89
867.971	1002.13
868.149	1010.84
868.326	1019.56
868.503	1049.98
868.681	995.34
868.858	965.12
869.035	964.34
869.213	992.63
869.39	950.59
869.567	1038.74
869.745	967.06
869.922	1005.03
870.099	1016.27
870.276	1007.94
870.454	986.24
870.631	990.5
870.808	995.93
870.985	1012.39
871.162	1057.15
871.339	981.98
871.517	940.9
871.694	933.54
871.871	1004.26
872.048	946.52
872.225	935.28
872.402	957.56
872.579	919.01
872.756	957.56
872.933	931.02
873.11	918.62
873.287	950.2
873.463	955.43
873.64	909.32
873.817	975.39
873.994	934.51
874.171	889.75
874.348	944
874.524	868.05
874.701	953.11
874.878	831.63
875.055	956.59
875.231	900.8
875.408	931.99
875.585	864.76
875.762	937.41
875.938	893.63
876.115	909.13
876.291	919.98
876.468	910.48
876.645	821.94
876.821	853.71
876.998	898.86
877.174	920.95
877.351	882.2
877.527	885.68
877.704	889.17
877.88	877.16
878.057	885.1
878.233	894.6
878.409	863.01
878.586	903.31
878.762	883.75
878.938	861.85
879.115	819.42
879.291	844.61
879.467	828.72
879.644	830.85
879.82	898.47
879.996	856.43
880.172	790.75
880.349	840.54
880.525	875.22
880.701	801.21
880.877	823.68
881.053	815.74
881.229	824.65
881.405	875.22
881.581	800.43
881.757	821.75
881.933	845.96
882.109	884.13
882.285	842.87
882.461	774.08
882.637	823.3
882.813	780.28
882.989	816.13
883.165	879.87
883.341	779.7
883.517	880.84
883.693	836.08
883.869	873.09
884.044	808.77
884.22	847.51
884.396	887.43
884.572	831.43
884.747	860.3
884.923	824.65
885.099	836.28
885.275	858.56
885.45	792.1
885.626	790.55
885.801	778.54
885.977	829.5
886.153	770.02
886.328	829.69
886.504	829.88
886.679	860.3
886.855	801.4
887.03	818.65
887.206	853.33
887.381	803.92
887.557	841.51
887.732	820.97
887.908	820.2
888.083	866.5
888.258	784.93
888.434	802.95
888.609	818.65
888.784	883.75
888.96	771.57
889.135	825.43
889.31	802.76
889.485	805.86
889.661	813.42
889.836	861.46
890.011	860.11
890.186	789.58
890.361	769.05
890.537	835.31
890.712	825.23
890.887	814.77
891.062	818.65
891.237	880.45
891.412	784.93
891.587	839.77
891.762	844.22
891.937	844.42
892.112	791.91
892.287	828.14
892.462	750.64
892.637	747.74
892.812	727.59
892.987	749.87
893.161	748.51
893.336	741.73
893.511	732.24
893.686	776.22
893.861	729.14
894.035	761.88
894.21	758
894.385	697.36
894.56	726.42
894.734	659.77
894.909	702.79
895.084	682.44
895.258	663.26
895.433	697.94
895.608	670.82
895.782	626.26
895.957	660.36
896.131	647.96
896.306	551.66
896.48	584.6
896.655	590.99
896.829	524.15
897.004	529.19
897.178	528.61
897.353	513.11
897.527	579.37
897.701	559.99
897.876	508.84
898.05	604.36
898.224	577.63
898.399	634.39
898.573	572.78
898.747	478.43
898.921	519.31
899.096	435.8
899.27	444.13
899.444	463.7
899.618	443.75
899.792	495.09
899.967	505.94
900.141	492.96
900.315	449.56
900.489	466.8
900.663	479.98
900.837	478.43
901.011	463.31
901.185	555.34
901.359	484.05
901.533	482.69
901.707	493.93
901.881	461.57
902.055	445.68
902.229	464.86
902.403	527.83
902.576	490.05
902.75	481.91
902.924	588.28
903.098	520.47
903.272	592.93
903.446	597.19
903.619	558.83
903.793	591.19
903.967	585.76
904.14	613.47
904.314	606.3
904.488	582.47
904.661	636.33
904.835	603.2
905.009	609.98
905.182	678.95
905.356	611.34
905.529	609.59
905.703	575.69
905.876	584.02
906.05	549.73
906.223	551.66
906.397	490.25
906.57	494.31
906.744	461.76
906.917	485.6
907.09	495.67
907.264	492.38
907.437	448.59
907.61	451.11
907.784	463.51
907.957	448.98
908.13	438.13
908.304	487.53
908.477	436.58
908.65	445.88
908.823	388.92
908.996	498.58
909.17	418.75
909.343	406.74
909.516	419.72
909.689	414.68
909.862	434.45
910.035	428.83
910.208	386.2
910.381	404.8
910.554	498.58
910.727	409.45
910.9	406.93
911.073	386.59
911.246	494.12
911.419	452.08
911.592	443.36
911.765	409.45
911.938	443.36
912.11	429.21
912.283	423.4
912.456	446.26
912.629	415.85
912.802	403.64
912.974	377.29
913.147	341.25
913.32	306.96
913.493	335.63
913.665	355.4
913.838	362.37
914.01	365.08
914.183	387.56
914.356	357.14
914.528	393.57
914.701	461.18
914.873	409.45
915.046	387.56
915.218	333.7
915.391	305.41
915.563	298.82
915.736	338.35
915.908	379.03
916.081	396.28
916.253	326.33
916.425	348.81
916.598	386.98
916.77	365.67
916.942	351.13
917.115	268.6
917.287	366.63
917.459	327.88
917.632	314.52
917.804	267.24
917.976	331.95
918.148	352.3
918.32	362.37
918.493	386.59
918.665	394.34
918.837	352.3
919.009	423.4
919.181	415.85
919.353	400.15
919.525	374.58
919.697	383.1
919.869	416.23
920.041	437.74
920.213	480.75
920.385	428.05
920.557	388.33
920.729	395.12
920.901	411.58
921.073	390.27
921.244	360.24
921.416	432.12
921.588	411.2
921.76	355.4
921.932	430.18
922.103	389.5
922.275	376.9
922.447	408.87
922.619	337.77
922.79	380.78
922.962	344.16
923.134	397.25
923.305	320.72
923.477	332.53
923.648	334.08
923.82	363.73
923.991	305.6
924.163	295.72
924.335	328.66
924.506	340.87
924.677	378.26
924.849	310.64
925.02	323.04
925.192	345.13
925.363	321.88
925.535	339.51
925.706	319.94
925.877	378.84
926.049	324.4
926.22	327.3
926.391	353.85
926.562	335.05
926.734	301.73
926.905	365.08
927.076	268.02
927.247	288.94
927.419	254.07
927.59	261.04
927.761	284.49
927.932	250.97
928.103	273.64
928.274	227.72
928.445	226.17
928.616	243.8
928.787	251.74
928.958	252.71
929.129	244.38
929.3	226.36
929.471	177.73
929.642	145.96
929.813	105.66
929.984	225.78
930.155	99.65
930.326	210.47
930.496	138.21
930.667	93.64
930.838	174.63
931.009	126.97
931.18	133.36
931.35	110.31
931.521	144.99
931.692	83.57
931.863	62.06
932.033	118.64
932.204	112.24
932.374	115.73
932.545	65.74
932.716	107.01
932.886	111.66
933.057	35.71
933.227	64.78
933.398	147.89
933.568	67.1
933.739	20.8
933.909	39.2
934.08	95
934.25	19.63
934.421	31.84
934.591	71.36
934.761	6.46
934.932	-18.54
935.102	40.17
935.272	24.09
935.443	42.69
935.613	22.15
935.783	44.05
935.953	1.42
936.123	179.47
936.294	8.59
936.464	29.9
936.634	42.3
936.804	7.04
936.974	-19.5
937.144	47.34
937.314	38.23
937.484	8.2
937.655	6.65
937.825	73.49
937.995	13.82
938.165	55.28
938.334	35.13
938.504	78.14
938.674	43.27
938.844	49.28
939.014	92.68
939.184	110.69
939.354	125.23
939.524	116.31
939.694	67.1
939.863	57.22
940.033	135.69
940.203	133.75
940.373	99.46
940.542	83.96
940.712	74.08
940.882	92.48
941.051	94.23
941.221	93.45
941.391	130.84
941.56	57.61
941.73	35.71
941.899	163.59
942.069	39.4
942.238	105.66
942.408	77.76
942.577	121.74
942.747	93.84
942.916	28.55
943.086	68.07
943.255	104.11
943.425	82.6
943.594	25.25
943.763	8.01
943.933	30.1
944.102	11.11
944.271	54.7
944.441	53.73
944.61	44.05
944.779	49.66
944.948	173.47
945.117	27.38
945.287	33
945.456	11.5
945.625	39.98
945.794	54.9
945.963	33.39
946.132	60.13
946.301	37.65
946.47	89.58
946.639	11.88
946.808	55.09
946.977	81.83
947.146	96.55
947.315	41.91
947.484	85.89
947.653	56.25
947.822	51.21
947.991	29.51
948.16	115.34
948.329	98.68
948.498	55.28
948.666	73.88
948.835	70.39
949.004	25.83
949.173	25.83
949.341	48.5
949.51	61.29
949.679	106.24
949.847	80.86
950.016	154.67
950.185	104.11
950.353	52.76
950.522	66.13
950.69	100.23
950.859	19.83
951.028	123.48
951.196	82.99
951.365	47.53
951.533	68.46
951.701	93.06
951.87	95.78
952.038	25.25
952.207	53.54
952.375	104.11
952.543	41.72
952.712	48.31
952.88	24.67
953.048	128.71
953.217	77.18
953.385	81.05
953.553	113.6
953.721	40.56
953.89	74.08
954.058	23.7
954.226	37.26
954.394	73.49
954.562	34.36
954.73	52.96
954.898	55.09
955.067	97.33
955.235	44.43
955.403	91.32
955.571	134.91
955.739	80.28
955.907	49.86
956.075	41.53
956.243	43.85
956.41	67.88
956.578	16.53
956.746	26.03
956.914	39.59
957.082	100.43
957.25	66.91
957.418	35.33
957.585	73.11
957.753	111.86
957.921	40.75
958.089	53.93
958.256	79.5
958.424	104.3
958.592	78.73
958.759	34.94
958.927	67.29
959.095	32.61
959.262	64.58
959.43	82.6
959.597	28.93
959.765	83.57
959.932	36.3
960.1	93.06
960.267	93.84
960.435	64.19
960.602	66.52
960.77	82.99
960.937	17.89
961.104	70.01
961.272	34.55
961.439	54.12
961.606	79.31
961.774	112.83
961.941	73.69
962.108	73.11
962.275	78.53
962.443	110.69
962.61	102.75
962.777	137.04
962.944	88.41
963.111	100.43
963.278	81.05
963.446	78.14
963.613	79.11
963.78	115.54
963.947	92.29
964.114	81.24
964.281	145.76
964.448	81.24
964.615	51.99
964.782	85.89
964.949	96.74
965.116	105.85
965.282	129.68
965.449	66.91
965.616	25.25
965.783	95.97
965.95	81.44
966.117	31.84
966.283	71.75
966.45	95.97
966.617	79.89
966.784	121.16
966.95	117.86
967.117	107.01
967.284	71.56
967.45	74.27
967.617	127.94
967.784	96.55
967.95	141.31
968.117	69.04
968.283	117.09
968.45	224.04
968.616	106.82
968.783	135.11
968.949	101.39
969.116	118.06
969.282	117.28
969.449	138.21
969.615	113.6
969.781	33.2
969.948	93.06
970.114	59.74
970.28	121.54
970.447	103.91
970.613	151.96
970.779	89.77
970.945	115.73
971.112	111.28
971.278	81.24
971.444	103.91
971.61	126.58
971.776	76.59
971.942	116.89
972.108	113.6
972.275	95.39
972.441	138.4
972.607	158.55
972.773	49.86
972.939	105.66
973.105	89.77
973.271	68.65
973.437	68.84
973.602	84.54
973.768	102.56
973.934	87.44
974.1	107.21
974.266	15.37
974.432	94.42
974.598	60.51
974.763	127.36
974.929	65.36
975.095	139.18
975.261	53.93
975.426	52.96
975.592	77.18
975.758	144.6
975.923	32.23
976.089	61.68
976.255	102.94
976.42	91.51
976.586	111.28
976.751	101.2
976.917	152.35
977.082	116.89
977.248	52.38
977.413	29.51
977.579	71.56
977.744	76.4
977.91	59.93
978.075	46.37
978.24	91.9
978.406	82.41
978.571	63.03
978.736	55.67
978.902	95.78
979.067	48.31
979.232	19.25
979.397	78.53
979.563	119.8
979.728	51.02
979.893	73.3
980.058	49.08
980.223	131.62
980.388	74.85
980.554	81.63
980.719	65.16
980.884	96.36
981.049	125.42
981.214	80.47
981.379	84.34
981.544	57.03
981.709	63.81
981.874	71.56
982.039	105.27
982.204	112.63
982.368	97.33
982.533	52.38
982.698	106.82
982.863	115.73
983.028	73.69
983.193	89.19
983.357	87.44
983.522	104.3
983.687	60.13
983.852	62.64
984.016	62.26
984.181	87.06
984.346	84.93
984.51	107.79
984.675	68.07
984.839	97.71
985.004	74.27
985.168	131.81
985.333	92.48
985.498	93.64
985.662	116.7
985.827	106.43
985.991	80.28
986.155	68.26
986.32	74.27
986.484	115.93
986.649	105.66
986.813	42.69
986.977	78.92
987.142	112.24
987.306	42.11
987.47	52.57
987.634	78.73
987.799	99.26
987.963	87.25
988.127	111.66
988.291	143.24
988.455	95.58
988.62	70.98
988.784	103.14
988.948	126
989.112	66.52
989.276	85.12
989.44	86.28
989.604	66.71
989.768	44.43
989.932	142.86
990.096	53.73
990.26	33
990.424	40.36
990.588	69.04
990.752	133.56
990.915	107.01
991.079	35.91
991.243	68.26
991.407	93.45
991.571	43.85
991.734	107.98
991.898	101.59
992.062	154.29
992.226	80.08
992.389	54.7
992.553	19.05
992.717	46.95
992.88	69.81
993.044	68.26
993.207	75.63
993.371	67.29
993.535	68.84
993.698	76.4
993.862	97.33
994.025	112.44
994.189	118.64
994.352	71.75
994.515	105.66
994.679	108.95
994.842	34.94
995.006	70.39
995.169	50.05
995.332	57.03
995.496	94.81
995.659	13.43
995.822	59.54
995.985	48.31
996.149	116.51
996.312	62.45
996.475	126.19
996.638	28.93
996.801	120.38
996.964	112.05
997.128	66.71
997.291	65.74
997.454	60.9
997.617	30.29
997.78	94.42
997.943	29.32
998.106	98.1
998.269	66.13
998.432	58.77
998.595	71.56
998.758	47.53
998.92	29.71
999.083	15.37
999.246	47.73
999.409	24.86
999.572	-4
999.735	40.56
999.897	77.18
1000.06	38.62
1000.223	30.48
1000.386	91.51
1000.548	80.66
1000.711	64
1000.874	67.29
1001.036	9.56
1001.199	68.46
1001.361	55.28
1001.524	57.03
1001.687	83.18
1001.849	29.32
1002.012	57.22
1002.174	72.14
1002.337	66.91
1002.499	36.68
1002.661	79.69
1002.824	23.31
1002.986	21.76
1003.149	54.9
1003.311	25.64
1003.473	123.87
1003.636	23.9
1003.798	54.51
1003.96	74.27
1004.123	50.83
1004.285	26.8
1004.447	25.64
1004.609	54.7
1004.771	105.08
1004.933	3.75
1005.096	12.85
1005.258	-0.52
1005.42	24.67
1005.582	80.28
1005.744	77.56
1005.906	48.31
1006.068	47.15
1006.23	16.73
1006.392	-9.62
1006.554	12.08
1006.716	64.97
1006.878	41.33
1007.04	32.23
1007.202	22.35
1007.363	62.45
1007.525	50.25
1007.687	58.96
1007.849	98.88
1008.011	27.96
1008.172	11.11
1008.334	13.82
1008.496	46.95
1008.658	-22.99
1008.819	2.78
1008.981	4.52
1009.143	13.05
1009.304	16.34
1009.466	70.01
1009.627	70.98
1009.789	125.42
1009.95	41.14
1010.112	20.21
1010.273	51.99
1010.435	48.5
1010.596	29.71
1010.758	13.05
1010.919	7.43
1011.081	1.61
1011.242	17.5
1011.403	72.72
1011.565	43.85
1011.726	53.54
1011.887	-4.97
1012.049	41.33
1012.21	69.62
1012.371	105.46
1012.532	-29.77
1012.693	34.75
1012.855	16.15
1013.016	60.71
1013.177	103.53
1013.338	30.29
1013.499	104.69
1013.66	62.26
1013.821	50.44
1013.982	51.41
1014.143	53.54
1014.304	37.26
1014.465	28.55
1014.626	66.71
1014.787	0.06
1014.948	122.51
1015.109	-35.39
1015.27	80.47
1015.431	12.08
1015.592	0.06
1015.752	74.85
1015.913	37.07
1016.074	44.63
1016.235	33.58
1016.395	42.69
1016.556	39.59
1016.717	12.85
1016.877	65.16
1017.038	28.35
1017.199	19.05
1017.359	29.32
1017.52	34.55
1017.681	20.21
1017.841	43.27
1018.002	24.67
1018.162	7.62
1018.323	85.51
1018.483	35.71
1018.644	9.36
1018.804	-20.86
1018.964	-7.88
1019.125	-6.91
1019.285	19.44
1019.446	24.09
1019.606	16.92
1019.766	-41.4
1019.926	29.13
1020.087	34.36
1020.247	18.28
1020.407	47.15
1020.567	80.86
1020.728	21.18
1020.888	-29.77
1021.048	26.22
1021.208	-4.39
1021.368	-6.72
1021.528	80.66
1021.688	50.05
1021.848	80.08
1022.008	30.29
1022.168	27.96
1022.328	58.58
1022.488	35.71
1022.648	14.98
1022.808	44.43
1022.968	29.51
1023.128	15.18
1023.288	-7.1
1023.448	22.35
1023.608	29.71
1023.767	38.23
1023.927	24.09
1024.087	-11.37
1024.247	-3.81
1024.406	6.26
1024.566	7.62
1024.726	-29.58
1024.885	25.64
1025.045	39.2
1025.205	-11.95
1025.364	9.17
1025.524	47.53
1025.683	19.63
1025.843	24.48
1026.003	18.47
1026.162	67.1
1026.321	75.63
1026.481	36.68
1026.64	14.79
1026.8	16.15
1026.959	35.33
1027.119	27.19
1027.278	-6.33
1027.437	-8.07
1027.597	48.7
1027.756	21.38
1027.915	32.03
1028.074	42.11
1028.234	5.1
1028.393	18.08
1028.552	21.38
1028.711	-61.16
1028.87	68.65
1029.03	-34.42
1029.189	36.1
1029.348	-56.9
1029.507	29.71
1029.666	-7.69
1029.825	4.13
1029.984	6.07
1030.143	15.76
1030.302	20.6
1030.461	-49.15
1030.62	18.47
1030.779	24.67
1030.938	-25.7
1031.097	-11.95
1031.255	51.99
1031.414	54.31
1031.573	64.58
1031.732	-45.08
1031.891	27.77
1032.049	32.61
1032.208	29.71
1032.367	-14.66
1032.525	4.13
1032.684	-0.13
1032.843	36.68
1033.001	-34.42
1033.16	130.84
1033.319	54.31
1033.477	14.21
1033.636	-18.15
1033.794	10.14
1033.953	50.05
1034.111	40.56
1034.27	1.23
1034.428	44.24
1034.587	-11.56
1034.745	8.2
1034.903	14.79
1035.062	40.36
1035.22	-33.65
1035.378	57.41
1035.537	9.75
1035.695	17.31
1035.853	29.13
1036.011	63.23
1036.17	12.66
1036.328	-22.41
1036.486	7.04
1036.644	31.65
1036.802	-57.67
1036.96	1.61
1037.119	41.14
1037.277	5.3
1037.435	-27.84
1037.593	-28.22
1037.751	22.35
1037.909	54.51
1038.067	54.51
