Data from oakcork_FLMT105791__250__17-33-21-054.txt Node

Date: Mon Mar 20 17:33:21 GMT 2023
User: antho
Spectrometer: FLMT10579
Trigger mode: 0
Integration Time (sec): 1.000000E-1
Scans to average: 10
Electric dark correction enabled: true
Nonlinearity correction enabled: false
Boxcar width: 0
XAxis mode: Wavelengths
Number of Pixels in Spectrum: 3648
>>>>>Begin Spectral Data<<<<<
345.248	-137.58
345.464	-137.58
345.681	-137.58
345.898	-169.74
346.114	-143.78
346.331	-47.1
346.548	49.58
346.764	-25.59
346.981	7.15
347.197	5.8
347.414	8.12
347.631	-27.33
347.847	51.91
348.064	-0.4
348.28	32.53
348.497	-47.48
348.713	-7.18
348.93	20.33
349.146	10.83
349.363	13.74
349.579	23.62
349.796	15.1
350.012	-25.4
350.229	10.83
350.445	1.15
350.661	-20.94
350.878	3.08
351.094	19.94
351.311	33.31
351.527	27.11
351.743	2.7
351.96	63.15
352.176	48.42
352.392	16.26
352.609	26.33
352.825	-0.02
353.041	0.57
353.257	-3.31
353.474	35.44
353.69	4.44
353.906	18.39
354.122	-25.2
354.339	64.89
354.555	13.93
354.771	13.16
354.987	51.13
355.203	77.87
355.42	-0.6
355.636	6.18
355.852	-13.38
356.068	22.07
356.284	-29.47
356.5	42.03
356.716	29.82
356.932	-18.62
357.148	46.1
357.364	13.55
357.58	76.32
357.796	64.5
358.012	62.95
358.228	22.65
358.444	-55.04
358.66	54.62
358.876	50.16
359.092	-21.33
359.308	43.96
359.524	9.67
359.74	-5.25
359.956	-1.95
360.172	20.71
360.388	68.18
360.604	20.71
360.819	103.64
361.035	6.18
361.251	29.82
361.467	12
361.683	55.4
361.898	28.85
362.114	51.13
362.33	11.22
362.546	53.65
362.762	19.55
362.977	19.55
363.193	6.77
363.409	55.59
363.624	14.32
363.84	5.41
364.056	7.93
364.271	29.63
364.487	31.56
364.703	17.23
364.918	7.54
365.134	7.15
365.35	26.53
365.565	116.62
365.781	22.07
365.996	46.29
366.212	84.65
366.427	47.26
366.643	20.33
366.858	31.76
367.074	17.42
367.289	87.17
367.505	113.71
367.72	-18.81
367.936	27.5
368.151	36.41
368.367	70.31
368.582	15.68
368.798	13.55
369.013	42.41
369.228	42.03
369.444	51.52
369.659	75.93
369.874	39.51
370.09	72.83
370.305	-25.78
370.52	12.58
370.736	65.86
370.951	24.2
371.166	71.28
371.381	101.51
371.597	74.19
371.812	11.61
372.027	8.31
372.242	22.26
372.458	118.36
372.673	35.63
372.888	23.81
373.103	72.45
373.318	117.98
373.533	52.68
373.749	51.52
373.964	-31.02
374.179	81.36
374.394	14.9
374.609	105.96
374.824	-7.38
375.039	71.86
375.254	5.6
375.469	77.48
375.684	57.72
375.899	95.5
376.114	35.63
376.329	56.17
376.544	95.69
376.759	59.08
376.974	8.51
377.189	45.51
377.404	21.1
377.619	93.37
377.834	0.57
378.049	34.66
378.264	2.5
378.478	51.91
378.693	42.03
378.908	72.06
379.123	36.99
379.338	70.31
379.553	45.32
379.767	52.68
379.982	65.86
380.197	79.03
380.412	52.1
380.626	44.16
380.841	116.23
381.056	59.66
381.271	106.74
381.485	54.81
381.7	-3.5
381.915	59.08
382.129	46.48
382.344	72.83
382.559	53.46
382.773	103.44
382.988	0.18
383.202	56.36
383.417	10.83
383.632	114.1
383.846	47.84
384.061	46.1
384.275	41.83
384.49	72.25
384.704	66.83
384.919	44.55
385.133	47.45
385.348	66.63
385.562	30.21
385.777	84.65
385.991	60.24
386.206	57.53
386.42	39.9
386.634	81.75
386.849	71.86
387.063	70.51
387.277	49
387.492	46.87
387.706	47.06
387.92	43.96
388.135	81.75
388.349	64.7
388.563	71.28
388.778	67.41
388.992	96.28
389.206	84.07
389.42	144.71
389.635	69.73
389.849	89.88
390.063	104.03
390.277	64.31
390.491	144.13
390.706	100.15
390.92	81.16
391.134	88.14
391.348	115.26
391.562	31.76
391.776	98.02
391.99	66.83
392.205	96.28
392.419	63.34
392.633	71.67
392.847	114.68
393.061	61.4
393.275	112.55
393.489	53.85
393.703	78.45
393.917	73.22
394.131	51.33
394.345	72.64
394.559	100.34
394.773	75.16
394.986	79.42
395.2	89.11
395.414	128.24
395.628	47.45
395.842	100.15
396.056	67.41
396.27	62.56
396.484	93.56
396.697	94.53
396.911	107.13
397.125	75.74
397.339	87.36
397.553	95.11
397.766	126.69
397.98	97.44
398.194	113.13
398.408	85.23
398.621	112.94
398.835	138.51
399.049	137.93
399.262	190.63
399.476	117.2
399.69	147.81
399.903	192.57
400.117	131.73
400.331	145.1
400.544	123.4
400.758	203.42
400.971	122.82
401.185	162.73
401.398	111.58
401.612	195.67
401.826	160.02
402.039	162.15
402.253	143.36
402.466	176.88
402.68	153.43
402.893	143.94
403.106	154.21
403.32	149.56
403.533	158.28
403.747	142.58
403.96	162.54
404.174	152.27
404.387	112.94
404.6	150.72
404.814	194.7
405.027	150.72
405.24	160.99
405.454	174.36
405.667	200.12
405.88	121.46
406.094	159.24
406.307	220.47
406.52	175.13
406.733	126.89
406.947	100.73
407.16	260.96
407.373	199.74
407.586	141.23
407.799	129.6
408.012	179.01
408.226	190.24
408.439	244.88
408.652	138.13
408.865	188.89
409.078	226.86
409.291	205.55
409.504	131.15
409.717	177.65
409.93	190.82
410.143	186.17
410.357	140.45
410.57	161.57
410.783	166.61
410.996	201.67
411.209	176.49
411.421	200.9
411.634	199.54
411.847	159.83
412.06	189.47
412.273	199.35
412.486	220.86
412.699	269.49
412.912	207.87
413.125	227.64
413.338	213.69
413.55	176.49
413.763	200.51
413.976	215.43
414.189	190.63
414.402	186.76
414.615	249.92
414.827	201.09
415.04	223.57
415.253	217.17
415.466	231.9
415.678	282.08
415.891	219.11
416.104	207.87
416.316	220.27
416.529	207.68
416.742	222.6
416.954	255.92
417.167	199.74
417.38	205.16
417.592	254.57
417.805	186.17
418.017	193.73
418.23	234.03
418.442	203.42
418.655	189.27
418.868	248.95
419.08	241.59
419.293	284.4
419.505	235.19
419.718	244.49
419.93	266
420.142	223.37
420.355	276.65
420.567	260.77
420.78	256.12
420.992	222.6
421.205	264.06
421.417	202.26
421.629	216.59
421.842	183.85
422.054	201.87
422.266	278.79
422.479	275.49
422.691	222.99
422.903	276.27
423.115	237.71
423.328	226.09
423.54	249.72
423.752	243.14
423.964	236.94
424.177	254.76
424.389	238.87
424.601	320.64
424.813	250.5
425.025	281.69
425.238	265.61
425.45	264.06
425.662	230.74
425.874	497.72
426.086	265.81
426.298	272.97
426.51	286.34
426.722	248.37
426.934	243.91
427.146	293.12
427.358	227.25
427.57	293.12
427.782	263.29
427.994	268.13
428.206	257.86
428.418	236.36
428.63	305.72
428.842	313.85
429.054	280.53
429.266	307.65
429.478	244.88
429.69	267.94
429.902	223.57
430.114	267.36
430.325	261.35
430.537	237.13
430.749	220.27
430.961	175.91
431.173	224.92
431.384	235.97
431.596	180.56
431.808	260.96
432.02	303.2
432.231	311.53
432.443	345.24
432.655	303.97
432.867	258.83
433.078	329.94
433.29	349.12
433.502	339.62
433.713	358.8
433.925	332.84
434.136	352.99
434.348	267.94
434.56	252.24
434.771	378.57
434.983	280.92
435.194	317.73
435.406	323.35
435.617	339.62
435.829	379.15
436.04	394.65
436.252	363.45
436.463	382.44
436.675	403.17
436.886	346.02
437.098	365.58
437.309	420.8
437.521	377.79
437.732	326.06
437.943	372.17
438.155	376.82
438.366	311.34
438.578	394.84
438.789	351.25
439	379.15
439.211	316.95
439.423	364.23
439.634	379.53
439.845	365.39
440.057	367.91
440.268	437.27
440.479	373.72
440.69	387.09
440.902	406.27
441.113	376.43
441.324	358.42
441.535	400.27
441.746	418.28
441.957	362.1
442.168	418.09
442.38	449.09
442.591	427.97
442.802	357.45
443.013	428.55
443.224	434.17
443.435	411.5
443.646	412.67
443.857	414.99
444.068	391.16
444.279	415.38
444.49	496.75
444.701	434.17
444.912	551.39
445.123	479.12
445.334	455.48
445.545	468.85
445.756	439.79
445.967	391.74
446.178	429.91
446.388	453.35
446.599	462.46
446.81	446.76
447.021	427.97
447.232	507.99
447.443	505.47
447.653	433.59
447.864	516.9
448.075	453.16
448.286	475.05
448.496	464.4
448.707	514
448.918	455.29
449.129	528.91
449.339	485.9
449.55	501.4
449.761	465.17
449.971	531.24
450.182	481.64
450.393	526.78
450.603	502.37
450.814	543.44
451.024	501.01
451.235	557.39
451.446	578.32
451.656	540.73
451.867	500.05
452.077	539.96
452.288	546.54
452.498	573.48
452.709	516.9
452.919	518.45
453.13	495.78
453.34	543.64
453.55	449.86
453.761	499.27
453.971	557.78
454.182	531.63
454.392	537.63
454.602	605.64
454.813	525.04
455.023	554.49
455.233	465.56
455.444	519.03
455.654	467.5
455.864	525.43
456.075	525.81
456.285	500.05
456.495	516.13
456.705	563.79
456.916	568.44
457.126	586.46
457.336	563.59
457.546	464.01
457.756	519.03
457.967	597.89
458.177	540.93
458.387	549.45
458.597	507.02
458.807	559.91
459.017	545.58
459.227	512.45
459.437	536.28
459.647	569.79
459.857	562.43
460.068	526.78
460.278	596.14
460.488	596.92
460.698	616.68
460.908	571.15
461.117	563.01
461.327	521.94
461.537	613.97
461.747	580.64
461.957	561.27
462.167	706.19
462.377	623.07
462.587	584.52
462.797	620.94
463.007	607.77
463.216	623.27
463.426	645.16
463.636	638.19
463.846	557.98
464.056	580.45
464.265	626.76
464.475	556.81
464.685	616.29
464.895	617.65
465.104	592.08
465.314	611.06
465.524	584.52
465.733	575.61
465.943	666.28
466.153	660.08
466.362	648.07
466.572	669.77
466.782	631.99
466.991	608.54
467.201	659.89
467.41	568.83
467.62	651.94
467.829	637.02
468.039	687.21
468.249	634.12
468.458	681.39
468.668	690.89
468.877	685.66
469.086	747.85
469.296	712.78
469.505	679.84
469.715	714.91
469.924	689.14
470.134	755.4
470.343	728.28
470.552	698.06
470.762	710.65
470.971	667.25
471.18	715.3
471.39	705.03
471.599	649.81
471.808	741.84
472.018	708.71
472.227	760.64
472.436	779.62
472.645	752.3
472.855	738.94
473.064	790.67
473.273	744.55
473.482	778.46
473.691	809.65
473.901	786.79
474.11	754.44
474.319	889.67
474.528	792.41
474.737	875.33
474.946	811.2
475.155	778.46
475.364	831.35
475.573	822.83
475.783	851.12
475.992	818.95
476.201	875.72
476.41	845.3
476.619	807.33
476.828	840.85
477.037	816.24
477.245	816.24
477.454	897.81
477.663	857.32
477.872	871.07
478.081	925.32
478.29	858.67
478.499	966.4
478.708	924.93
478.917	987.51
479.125	891.8
479.334	917.18
479.543	894.13
479.752	968.72
479.961	977.05
480.169	976.86
480.378	948.38
480.587	1065.98
480.796	995.65
481.004	976.86
481.213	1004.76
481.422	1001.27
481.63	1013.28
481.839	1026.46
482.048	1091.56
482.256	1045.06
482.465	1041.76
482.674	1048.54
482.882	1043.7
483.091	1105.12
483.299	1081.09
483.508	1095.24
483.716	1074.31
483.925	1087.29
484.134	1063.27
484.342	1070.44
484.551	1118.1
484.759	1092.14
484.967	1136.7
485.176	1149.1
485.384	1113.84
485.593	1140.19
485.801	1114.03
486.01	1073.54
486.218	1021.81
486.426	943.53
486.635	1000.88
486.843	963.68
487.051	1039.83
487.26	1014.06
487.468	1047.96
487.676	1104.54
487.885	1097.37
488.093	1117.91
488.301	1173.51
488.509	1177.97
488.717	1205.67
488.926	1172.15
489.134	1150.65
489.342	1208.39
489.55	1149.29
489.758	1188.43
489.967	1220.98
490.175	1316.3
490.383	1235.12
490.591	1322.11
490.799	1196.37
491.007	1286.47
491.215	1279.68
491.423	1273.29
491.631	1270.38
491.839	1231.05
492.047	1297.12
492.255	1217.88
492.463	1195.02
492.671	1229.31
492.879	1281.82
493.087	1238.42
493.295	1270
493.503	1332
493.711	1309.52
493.919	1348.08
494.127	1361.25
494.334	1321.92
494.542	1304.1
494.75	1355.05
494.958	1349.82
495.166	1406.59
495.374	1364.16
495.581	1367.65
495.789	1423.83
495.997	1426.16
496.205	1351.37
496.412	1372.68
496.62	1412.59
496.828	1424.99
497.035	1392.64
497.243	1447.66
497.451	1395.35
497.658	1438.36
497.866	1389.15
498.074	1475.76
498.281	1363.38
498.489	1449.41
498.696	1401.75
498.904	1379.85
499.112	1380.43
499.319	1489.51
499.527	1412.79
499.734	1457.54
499.942	1398.65
500.149	1384.5
500.357	1411.43
500.564	1392.25
500.771	1422.09
500.979	1351.18
501.186	1348.08
501.394	1409.3
501.601	1386.25
501.808	1379.66
502.016	1380.43
502.223	1361.25
502.43	1400.39
502.638	1391.67
502.845	1390.9
503.052	1491.64
503.26	1435.65
503.467	1483.12
503.674	1428.68
503.881	1448.63
504.089	1498.81
504.296	1421.31
504.503	1389.35
504.71	1440.3
504.917	1374.81
505.125	1472.27
505.332	1453.48
505.539	1481.18
505.746	1569.72
505.953	1525.16
506.16	1497.07
506.367	1587.74
506.574	1605.57
506.781	1578.44
506.988	1521.87
507.195	1530.97
507.402	1540.86
507.609	1573.02
507.816	1483.89
508.023	1512.37
508.23	1520.32
508.437	1484.67
508.644	1553.26
508.851	1587.94
509.058	1580.57
509.265	1588.71
509.472	1594.14
509.679	1670.47
509.885	1585.22
510.092	1549.38
510.299	1573.41
510.506	1575.15
510.713	1568.56
510.92	1588.13
511.126	1616.42
511.333	1663.5
511.54	1622.42
511.746	1667.95
511.953	1666.99
512.16	1685.58
512.367	1617.19
512.573	1626.88
512.78	1628.24
512.987	1636.37
513.193	1601.69
513.4	1518.77
513.606	1609.83
513.813	1623.78
514.02	1612.35
514.226	1683.65
514.433	1639.47
514.639	1567.21
514.846	1610.6
515.052	1587.94
515.259	1626.49
515.465	1673.18
515.672	1627.65
515.878	1739.83
516.085	1705.15
516.291	1688.68
516.497	1656.52
516.704	1605.76
516.91	1557.32
517.117	1480.79
517.323	1474.01
517.529	1494.36
517.736	1480.99
517.942	1514.12
518.148	1530.78
518.354	1570.5
518.561	1570.31
518.767	1562.17
518.973	1598.98
519.179	1621.07
519.386	1608.28
519.592	1600.72
519.798	1603.05
520.004	1697.4
520.21	1647.8
520.417	1739.25
520.623	1751.27
520.829	1757.46
521.035	1741.77
521.241	1748.55
521.447	1773.55
521.653	1859.38
521.859	1742.55
522.065	1797.76
522.271	1865.58
522.477	1828.76
522.683	1885.53
522.889	1786.33
523.095	1786.33
523.301	1812.68
523.507	1752.04
523.713	1856.08
523.919	1782.85
524.125	1914.79
524.331	1828.76
524.537	1923.51
524.742	1928.35
524.948	1934.94
525.154	1943.66
525.36	2012.63
525.566	1951.99
525.772	1990.16
525.977	1903.16
526.183	1944.24
526.389	1957.8
526.595	1902.78
526.8	1900.64
527.006	1820.24
527.212	1790.01
527.417	1755.91
527.623	1771.8
527.829	1852.98
528.034	1879.91
528.24	1878.56
528.446	1890.57
528.651	2000.23
528.857	1982.21
529.062	2094.39
529.268	2013.79
529.473	1995.58
529.679	2008.76
529.884	2101.56
530.09	2055.25
530.295	2075.02
530.501	2086.06
530.706	2038.2
530.912	2036.85
531.117	2088.58
531.323	2099.62
531.528	2150.97
531.733	2114.15
531.939	2104.27
532.144	2097.49
532.35	2095.75
532.555	2159.49
532.76	2127.52
532.966	2048.67
533.171	2045.37
533.376	1997.32
533.581	2015.34
533.787	2027.35
533.992	2111.63
534.197	2076.95
534.402	2081.41
534.607	2103.69
534.813	2166.08
535.018	2121.52
535.223	2151.74
535.428	2128.3
535.633	2215.48
535.838	2203.86
536.043	2182.55
536.249	2276.9
536.454	2202.89
536.659	2222.26
536.864	2176.73
537.069	2198.43
537.274	2177.9
537.479	2171.7
537.684	2196.5
537.889	2137.02
538.094	2299.76
538.299	2199.98
538.504	2250.94
538.708	2209.09
538.913	2249.2
539.118	2203.08
539.323	2257.91
539.528	2218.97
539.733	2241.64
539.938	2223.62
540.142	2205.41
540.347	2168.6
540.552	2171.5
540.757	2149.22
540.962	2183.71
541.166	2127.91
541.371	2170.53
541.576	2163.95
541.781	2141.08
541.985	2266.44
542.19	2176.15
542.395	2299.96
542.599	2310.03
542.804	2280
543.008	2316.81
543.213	2255.2
543.418	2230.4
543.622	2300.34
543.827	2257.53
544.031	2312.94
544.236	2327.86
544.44	2329.79
544.645	2348.2
544.849	2289.11
545.054	2334.44
545.258	2393.15
545.463	2396.64
545.667	2285.62
545.872	2284.65
546.076	2326.89
546.281	2328.83
546.485	2324.37
546.689	2373.19
546.894	2366.8
547.098	2370.48
547.302	2293.18
547.507	2342.58
547.711	2340.26
547.915	2382.3
548.119	2344.52
548.324	2270.31
548.528	2424.15
548.732	2306.35
548.936	2432.48
549.141	2385.4
549.345	2352.08
549.549	2385.79
549.753	2373.77
549.957	2426.67
550.161	2452.05
550.366	2428.8
550.57	2345.1
550.774	2386.37
550.978	2408.84
551.182	2431.71
551.386	2380.75
551.59	2378.81
551.794	2382.11
551.998	2397.99
552.202	2356.34
552.406	2353.24
552.61	2429.19
552.814	2387.14
553.018	2447.4
553.222	2356.92
553.426	2373.97
553.63	2474.91
553.833	2411.75
554.037	2354.21
554.241	2387.34
554.445	2433.64
554.649	2377.26
554.853	2378.81
555.056	2471.62
555.26	2460.38
555.464	2408.84
555.668	2447.98
555.871	2433.64
556.075	2499.52
556.279	2388.5
556.483	2375.13
556.686	2390.82
556.89	2395.67
557.094	2363.51
557.297	2298.41
557.501	2401.67
557.704	2280.97
557.908	2379.97
558.112	2312.16
558.315	2389.86
558.519	2375.71
558.722	2328.44
558.926	2325.92
559.129	2228.66
559.333	2240.09
559.536	2271.48
559.74	2221.3
559.943	2238.35
560.147	2223.04
560.35	2248.23
560.553	2247.84
560.757	2202.31
560.96	2334.25
561.164	2271.67
561.367	2333.28
561.57	2300.15
561.774	2297.63
561.977	2229.43
562.18	2268.76
562.384	2346.84
562.587	2209.09
562.79	2270.31
562.993	2235.83
563.197	2281.16
563.4	2324.18
563.603	2318.17
563.806	2357.5
564.009	2251.52
564.212	2262.18
564.416	2175.18
564.619	2249.39
564.822	2193.01
565.025	2277.1
565.228	2160.46
565.431	2212.96
565.634	2160.07
565.837	2184.68
566.04	2146.32
566.243	2126.17
566.446	2077.73
566.649	2188.94
566.852	2116.87
567.055	2160.07
567.258	2154.84
567.461	2202.7
567.664	2202.89
567.867	2116.09
568.07	2130.62
568.273	2100.59
568.475	2178.28
568.678	2108.53
568.881	2127.52
569.084	2097.69
569.287	1984.54
569.489	2004.88
569.692	2098.85
569.895	2085.67
570.098	2023.48
570.3	2035.69
570.503	1978.14
570.706	1969.04
570.909	2005.27
571.111	1918.08
571.314	1920.79
571.516	1962.45
571.719	1990.54
571.922	1941.52
572.124	1946.95
572.327	2004.49
572.529	1942.49
572.732	1957.22
572.935	1975.24
573.137	2058.35
573.34	1989.57
573.542	2010.69
573.745	2010.69
573.947	2018.64
574.15	1977.76
574.352	1945.59
574.554	2043.63
574.757	1950.63
574.959	1902.78
575.162	1944.24
575.364	1921.38
575.566	1999.46
575.769	1900.45
575.971	1935.71
576.173	1806.87
576.376	1893.09
576.578	1935.52
576.78	1952.96
576.982	1855.5
577.185	1879.14
577.387	1845.81
577.589	1878.17
577.791	1927.19
577.993	1907.43
578.196	1876.62
578.398	1888.24
578.6	1879.33
578.802	1814.23
579.004	1795.83
579.206	1809.58
579.408	1874.49
579.61	1831.09
579.812	1895.41
580.014	1829.93
580.216	1835.93
580.418	1879.72
580.62	1861.89
580.822	1782.46
581.024	1870.61
581.226	1902.97
581.428	1846.39
581.63	1939.97
581.832	1860.54
582.034	1926.41
582.236	1909.56
582.438	1897.93
582.64	1960.32
582.841	1972.91
583.043	2014.37
583.245	1930.48
583.447	1974.07
583.649	1926.99
583.85	1943.85
584.052	1937.84
584.254	1866.74
584.456	1968.84
584.657	1847.75
584.859	1914.01
585.061	1909.36
585.262	1872.36
585.464	1861.7
585.666	1892.12
585.867	1842.52
586.069	1923.89
586.27	1898.51
586.472	1866.74
586.674	1820.63
586.875	1854.73
587.077	1863.25
587.278	1883.01
587.48	1891.15
587.681	1956.44
587.883	1867.32
588.084	1812.88
588.285	1824.5
588.487	1808.61
588.688	1780.71
588.89	1710.58
589.091	1659.04
589.292	1661.95
589.494	1662.53
589.695	1598.98
589.896	1572.44
590.098	1573.02
590.299	1628.62
590.5	1595.49
590.702	1686.17
590.903	1700.5
591.104	1713.29
591.305	1703.8
591.507	1766.18
591.708	1718.52
591.909	1731.7
592.11	1783.04
592.311	1753.2
592.512	1707.28
592.714	1663.3
592.915	1698.18
593.116	1707.28
593.317	1722.4
593.518	1672.02
593.719	1730.34
593.92	1755.72
594.121	1762.7
594.322	1758.82
594.523	1720.85
594.724	1672.99
594.925	1728.4
595.126	1712.32
595.327	1738.09
595.528	1730.53
595.729	1731.89
595.929	1726.08
596.13	1732.67
596.331	1775.48
596.532	1727.24
596.733	1805.51
596.934	1765.8
597.135	1799.12
597.335	1756.11
597.536	1706.9
597.737	1760.95
597.938	1750.1
598.138	1758.24
598.339	1723.17
598.54	1774.32
598.74	1710.97
598.941	1765.41
599.142	1782.26
599.342	1736.93
599.543	1711.16
599.744	1761.53
599.944	1748.94
600.145	1724.92
600.345	1758.82
600.546	1775.29
600.746	1752.43
600.947	1816.56
601.147	1730.53
601.348	1785.17
601.548	1732.67
601.749	1750.1
601.949	1696.05
602.15	1699.34
602.35	1739.25
602.551	1787.3
602.751	1714.84
602.951	1736.15
603.152	1665.44
603.352	1768.12
603.552	1761.34
603.753	1773.55
603.953	1773.55
604.153	1745.84
604.354	1748.75
604.554	1747.78
604.754	1797.18
604.954	1740.22
605.155	1792.53
605.355	1716.2
605.555	1783.81
605.755	1789.63
605.955	1724.53
606.155	1797.76
606.356	1762.7
606.556	1777.03
606.756	1763.47
606.956	1701.67
607.156	1763.47
607.356	1739.45
607.556	1716
607.756	1740.03
607.956	1776.26
608.156	1755.33
608.356	1692.95
608.556	1727.82
608.756	1736.73
608.956	1692.75
609.156	1735.77
609.356	1668.53
609.556	1688.1
609.755	1711.16
609.955	1666.79
610.155	1709.03
610.355	1693.92
610.555	1694.5
610.755	1685
610.954	1650.9
611.154	1679.97
611.354	1711.74
611.554	1657.3
611.753	1692.95
611.953	1629.79
612.153	1700.12
612.352	1671.63
612.552	1621.84
612.752	1604.02
612.951	1651.87
613.151	1651.1
613.351	1599.37
613.55	1633.85
613.75	1682.1
613.949	1623.2
614.149	1648.19
614.348	1595.1
614.548	1595.69
614.747	1579.99
614.947	1638.5
615.146	1550.35
615.346	1640.64
615.545	1619.9
615.745	1638.31
615.944	1622.23
616.144	1613.32
616.343	1604.02
616.542	1586.97
616.742	1589.1
616.941	1545.89
617.14	1529.42
617.34	1591.04
617.539	1563.72
617.738	1539.89
617.938	1629.2
618.137	1573.99
618.336	1548.61
618.535	1605.37
618.734	1609.83
618.934	1593.75
619.133	1597.62
619.332	1598.79
619.531	1546.09
619.73	1606.73
619.929	1618.16
620.128	1593.75
620.328	1632.69
620.527	1542.99
620.726	1573.02
620.925	1605.76
621.124	1614.87
621.323	1590.65
621.522	1552.87
621.721	1566.62
621.92	1545.7
622.119	1588.32
622.318	1532.33
622.517	1543.57
622.715	1579.99
622.914	1508.69
623.113	1583.09
623.312	1468.39
623.511	1538.34
623.71	1531.17
623.909	1544.54
624.107	1575.34
624.306	1493.39
624.505	1516.25
624.704	1515.09
624.902	1495.71
625.101	1542.41
625.3	1518.38
625.499	1461.03
625.697	1463.36
625.896	1471.11
626.095	1505.59
626.293	1428.29
626.492	1457.93
626.69	1471.88
626.889	1486.61
627.088	1504.82
627.286	1453.86
627.485	1468.98
627.683	1431.39
627.882	1475.37
628.08	1332.58
628.279	1371.52
628.477	1423.06
628.676	1361.45
628.874	1404.26
629.073	1354.47
629.271	1363.96
629.469	1406.78
629.668	1385.08
629.866	1385.47
630.065	1377.14
630.263	1426.35
630.461	1378.3
630.66	1404.07
630.858	1410.46
631.056	1443.79
631.254	1426.16
631.453	1376.36
631.651	1410.66
631.849	1375.4
632.047	1360.28
632.245	1392.06
632.444	1420.54
632.642	1426.93
632.84	1451.15
633.038	1402.13
633.236	1383.53
633.434	1422.09
633.632	1414.14
633.83	1366.1
634.028	1478.66
634.227	1403.68
634.425	1520.71
634.623	1387.8
634.821	1423.44
635.019	1422.67
635.216	1408.91
635.414	1469.75
635.612	1425.96
635.81	1451.15
636.008	1518.77
636.206	1449.21
636.404	1428.87
636.602	1387.21
636.8	1423.83
636.997	1484.86
637.195	1468.78
637.393	1452.89
637.591	1506.95
637.789	1471.3
637.986	1463.94
638.184	1435.26
638.382	1481.38
638.58	1454.64
638.777	1490.29
638.975	1431.58
639.173	1452.31
639.37	1458.13
639.568	1447.08
639.765	1452.12
639.963	1416.86
640.161	1472.08
640.358	1457.16
640.556	1403.1
640.753	1403.3
640.951	1394.77
641.148	1445.14
641.346	1418.02
641.543	1416.47
641.741	1425.96
641.938	1416.66
642.136	1411.82
642.333	1393.61
642.531	1452.7
642.728	1467.04
642.925	1440.3
643.123	1429.84
643.32	1428.09
643.517	1430.23
643.715	1437.59
643.912	1437.2
644.109	1405.23
644.306	1417.63
644.504	1404.07
644.701	1411.24
644.898	1430.42
645.095	1421.51
645.293	1433.71
645.49	1405.62
645.687	1416.66
645.884	1445.73
646.081	1335.1
646.278	1378.11
646.475	1362.41
646.672	1381.98
646.87	1377.14
647.067	1322.7
647.264	1332.77
647.461	1278.33
647.658	1297.51
647.855	1353.5
648.052	1300.42
648.249	1215.36
648.446	1263.8
648.642	1284.33
648.839	1273.1
649.036	1264.96
649.233	1265.15
649.43	1261.67
649.627	1247.33
649.824	1263.6
650.021	1235.12
650.217	1246.94
650.414	1274.45
650.611	1333.55
650.808	1322.11
651.004	1287.24
651.201	1332.38
651.398	1381.98
651.595	1303.52
651.791	1286.85
651.988	1324.44
652.185	1258.37
652.381	1296.93
652.578	1253.14
652.775	1263.8
652.971	1297.12
653.168	1299.64
653.364	1331.03
653.561	1259.92
653.757	1273.1
653.954	1317.27
654.15	1272.52
654.347	1343.62
654.543	1283.75
654.74	1222.92
654.936	1224.08
655.133	1279.49
655.329	1268.25
655.525	1248.88
655.722	1261.08
655.918	1187.27
656.115	1208.39
656.311	1138.64
656.507	1066.17
656.704	1061.72
656.9	1117.91
657.096	1131.86
657.292	1109.96
657.489	1170.22
657.685	1185.52
657.881	1155.49
658.077	1210.71
658.273	1206.45
658.47	1285.11
658.666	1222.92
658.862	1307.58
659.058	1226.79
659.254	1300.61
659.45	1229.12
659.646	1289.95
659.842	1266.7
660.038	1288.21
660.234	1222.92
660.43	1278.91
660.626	1332.19
660.822	1276.97
661.018	1309.52
661.214	1292.47
661.41	1246.36
661.606	1304.48
661.802	1303.9
661.998	1256.82
662.194	1228.15
662.39	1319.98
662.586	1301.97
662.781	1297.51
662.977	1325.41
663.173	1298.48
663.369	1260.31
663.564	1271.16
663.76	1311.46
663.956	1251.59
664.152	1264.57
664.347	1231.63
664.543	1259.73
664.739	1242.48
664.934	1220.79
665.13	1226.99
665.326	1294.6
665.521	1284.72
665.717	1225.24
665.912	1226.4
666.108	1174.67
666.304	1216.72
666.499	1225.63
666.695	1185.52
666.89	1255.66
667.086	1254.3
667.281	1232.22
667.477	1308.94
667.672	1209.35
667.867	1246.17
668.063	1263.41
668.258	1192.5
668.454	1218.27
668.649	1280.27
668.844	1208.97
669.04	1223.69
669.235	1217.88
669.43	1217.3
669.626	1199.09
669.821	1203.15
670.016	1207.61
670.211	1215.55
670.407	1205.48
670.602	1219.43
670.797	1210.52
670.992	1246.17
671.187	1196.37
671.382	1239.58
671.578	1184.75
671.773	1218.46
671.968	1127.98
672.163	1212.45
672.358	1221.17
672.553	1189.4
672.748	1177.97
672.943	1251.78
673.138	1195.6
673.333	1231.83
673.528	1159.75
673.723	1211.87
673.918	1183.97
674.113	1163.24
674.308	1294.6
674.503	1214.2
674.698	1211.29
674.892	1176.61
675.087	1220.2
675.282	1212.84
675.477	1161.11
675.672	1230.28
675.867	1212.26
676.061	1152.39
676.256	1141.93
676.451	1172.35
676.646	1213.23
676.84	1178.94
677.035	1149.29
677.23	1169.05
677.424	1187.27
677.619	1205.48
677.814	1197.15
678.008	1220.2
678.203	1137.47
678.397	1164.79
678.592	1182.04
678.787	1234.54
678.981	1143.87
679.176	1201.02
679.37	1152.97
679.565	1167.5
679.759	1161.69
679.954	1208.19
680.148	1203.74
680.342	1222.72
680.537	1197.73
680.731	1147.74
680.926	1179.13
681.12	1196.76
681.314	1147.16
681.509	1152.78
681.703	1192.11
681.897	1166.73
682.092	1145.22
682.286	1122.17
682.48	1218.07
682.674	1180.1
682.869	1155.69
683.063	1185.14
683.257	1214.39
683.451	1133.79
683.645	1154.14
683.839	1175.25
684.034	1153.36
684.228	1148.71
684.422	1117.32
684.616	1115.39
684.81	1164.02
685.004	1154.14
685.198	1146
685.392	1144.06
685.586	1096.4
685.78	1138.44
685.974	1158.2
686.168	1124.69
686.362	1133.6
686.556	1057.26
686.75	975.89
686.944	961.36
687.138	938.69
687.331	828.06
687.525	850.73
687.719	757.73
687.913	844.72
688.107	818.76
688.301	815.47
688.494	861.77
688.688	811.98
688.882	815.27
689.076	796.09
689.269	800.55
689.463	909.43
689.657	832.52
689.85	844.72
690.044	869.72
690.238	850.34
690.431	853.25
690.625	877.85
690.818	924.74
691.012	913.31
691.205	961.16
691.399	928.81
691.593	952.25
691.786	1014.64
691.98	1023.74
692.173	1030.72
692.366	1016.19
692.56	1062.88
692.753	1043.12
692.947	1013.48
693.14	1091.36
693.333	1063.46
693.527	982.86
693.72	1057.46
693.914	1037.31
694.107	1034.59
694.3	1063.85
694.493	1022.19
694.687	1119.46
694.88	1003.98
695.073	1102.41
695.266	1107.44
695.46	1072.96
695.653	1114.22
695.846	1136.7
696.039	1055.52
696.232	1103.96
696.425	1137.47
696.618	1169.05
696.812	1170.6
697.005	1201.6
697.198	1282.2
697.391	1240.16
697.584	1228.92
697.777	1291.5
697.97	1253.33
698.163	1246.75
698.356	1229.31
698.549	1335.87
698.742	1292.67
698.935	1254.69
699.127	1263.41
699.32	1262.05
699.513	1251.59
699.706	1267.09
699.899	1341.68
700.092	1297.51
700.285	1284.53
700.477	1254.11
700.67	1321.73
700.863	1338.39
701.056	1445.34
701.248	1376.95
701.441	1362.03
701.634	1328.12
701.826	1424.22
702.019	1334.9
702.212	1380.63
702.404	1367.45
702.597	1351.76
702.79	1413.56
702.982	1468.01
703.175	1491.64
703.367	1504.62
703.56	1488.74
703.752	1579.41
703.945	1537.76
704.137	1533.11
704.33	1583.48
704.522	1564.3
704.715	1567.79
704.907	1621.84
705.1	1640.64
705.292	1611.77
705.484	1623.39
705.677	1673.18
705.869	1712.52
706.061	1707.28
706.254	1751.07
706.446	1676.48
706.638	1741.97
706.831	1810.55
707.023	1759.6
707.215	1868.29
707.407	1857.63
707.599	1773.93
707.792	1896.58
707.984	1881.46
708.176	1869.84
708.368	1862.86
708.56	1941.91
708.752	1916.73
708.944	1893.86
709.136	1927.38
709.329	1889.79
709.521	2013.6
709.713	2017.67
709.905	2009.92
710.097	2066.88
710.289	2013.6
710.481	2047.5
710.672	2084.7
710.864	2092.65
711.056	2135.66
711.248	2097.3
711.44	2131.59
711.632	2164.33
711.824	2176.93
712.016	2222.65
712.207	2209.28
712.399	2234.08
712.591	2265.66
712.783	2264.11
712.975	2228.46
713.166	2228.08
713.358	2236.02
713.55	2363.12
713.741	2295.5
713.933	2347.81
714.125	2359.05
714.316	2282.13
714.508	2395.67
714.7	2397.41
714.891	2363.7
715.083	2437.71
715.274	2344.13
715.466	2448.37
715.657	2450.31
715.849	2339.68
716.04	2413.49
716.232	2359.44
716.423	2373.39
716.615	2311.19
716.806	2268.76
716.998	2208.51
717.189	2167.43
717.381	2084.7
717.572	2040.34
717.763	2030.26
717.955	1979.31
718.146	1995.77
718.337	1935.71
718.528	1898.9
718.72	1823.73
718.911	1875.07
719.102	1858.21
719.293	1898.51
719.485	1884.18
719.676	1844.65
719.867	1838.45
720.058	1832.25
720.249	1864.99
720.44	1892.31
720.632	1966.52
720.823	2049.83
721.014	2157.17
721.205	2180.61
721.396	2257.14
721.587	2363.31
721.778	2386.56
721.969	2435
722.16	2541.95
722.351	2554.73
722.542	2687.65
722.733	2686.68
722.924	2611.31
723.115	2643.28
723.305	2580.7
723.496	2626.03
723.687	2533.23
723.878	2531.49
724.069	2517.54
724.26	2507.85
724.45	2454.95
724.641	2439.26
724.832	2477.43
725.023	2421.82
725.213	2442.56
725.404	2441.39
725.595	2434.22
725.785	2460.96
725.976	2507.27
726.167	2509.79
726.357	2512.5
726.548	2640.37
726.739	2550.47
726.929	2643.28
727.12	2681.06
727.31	2696.36
727.501	2594.45
727.691	2627.2
727.882	2621
728.072	2692.3
728.263	2689.58
728.453	2780.84
728.644	2732.4
728.834	2769.02
729.024	2723.49
729.215	2719.61
729.405	2782
729.596	2835.67
729.786	2817.07
729.976	2855.62
730.167	2851.94
730.357	2865.12
730.547	2867.44
730.737	2893.6
730.928	2951.14
731.118	2982.33
731.308	2945.33
731.498	2955.6
731.688	3048.79
731.879	3069.33
732.069	3126.48
732.259	3198.17
732.449	3197.98
732.639	3315.19
732.829	3333.02
733.019	3356.46
733.209	3452.17
733.399	3425.05
733.589	3548.08
733.779	3569
733.969	3610.46
734.159	3717.22
734.349	3693.19
734.539	3791.62
734.729	3758.1
734.919	3752.67
735.109	3831.53
735.299	3729.04
735.488	3805.76
735.678	3754.22
735.868	3811.57
736.058	3806.34
736.248	3825.72
736.437	3711.6
736.627	3787.74
736.817	3910.58
737.007	3828.82
737.196	3884.62
737.386	3903.41
737.576	3882.48
737.765	3928.6
737.955	3915.42
738.144	4054.92
738.334	3991.76
738.524	3987.11
738.713	3991.76
738.903	4043.68
739.092	4031.67
739.282	4011.71
739.471	4071.78
739.661	4081.46
739.85	4127.38
740.04	4094.64
740.229	4126.22
740.419	4186.28
740.608	4181.44
740.797	4220.57
740.987	4258.16
741.176	4243.63
741.365	4207.01
741.555	4170.39
741.744	4275.4
741.933	4218.83
742.123	4251.57
742.312	4313.18
742.501	4352.71
742.69	4348.45
742.88	4217.47
743.069	4368.98
743.258	4331.4
743.447	4420.71
743.636	4345.93
743.825	4361.82
744.014	4392.04
744.204	4432.92
744.393	4384.29
744.582	4425.95
744.771	4475.93
744.96	4397.85
745.149	4424.59
745.338	4364.53
745.527	4421.68
745.716	4423.81
745.905	4377.9
746.094	4483.1
746.283	4491.63
746.471	4452.49
746.66	4532.7
746.849	4481.36
747.038	4522.82
747.227	4443.77
747.416	4472.83
747.604	4435.05
747.793	4427.69
747.982	4482.71
748.171	4496.08
748.359	4509.45
748.548	4498.41
748.737	4502.09
748.926	4482.52
749.114	4363.56
749.303	4483.49
749.491	4438.15
749.68	4387.39
749.869	4445.71
750.057	4414.51
750.246	4396.69
750.434	4385.65
750.623	4399.79
750.811	4352.32
751	4511.39
751.188	4374.22
751.377	4387
751.565	4362.78
751.754	4336.63
751.942	4352.52
752.131	4403.28
752.319	4381.58
752.507	4344.96
752.696	4395.91
752.884	4379.64
753.072	4364.53
753.261	4376.35
753.449	4363.95
753.637	4356.78
753.825	4435.83
754.014	4350.97
754.202	4371.31
754.39	4419.36
754.578	4387.97
754.766	4307.76
754.955	4309.12
755.143	4471.48
755.331	4332.17
755.519	4329.27
755.707	4327.33
755.895	4333.33
756.083	4356.97
756.271	4294.78
756.459	4300.78
756.647	4326.17
756.835	4273.66
757.023	4285.29
757.211	4276.18
757.399	4222.32
757.587	4224.25
757.775	4187.25
757.963	4221.93
758.151	4188.99
758.339	4162.26
758.526	4163.81
758.714	4191.71
758.902	4042.33
759.09	3904.18
759.278	3648.05
759.465	3344.45
759.653	2887.59
759.841	2618.67
760.028	2242.8
760.216	1943.07
760.404	1821.21
760.591	1463.16
760.779	1252.56
760.967	1099.11
761.154	914.08
761.342	959.03
761.529	954.96
761.717	995.26
761.905	1009.21
762.092	1092.72
762.28	1044.67
762.467	1020.06
762.655	905.56
762.842	954.38
763.029	948.38
763.217	947.02
763.404	952.45
763.592	967.95
763.779	967.75
763.966	1008.44
764.154	1071.02
764.341	1109.19
764.528	1156.27
764.716	1223.69
764.903	1297.32
765.09	1368.42
765.277	1424.8
765.465	1614.87
765.652	1722.4
765.839	1791.18
766.026	1944.62
766.213	2026
766.4	2168.21
766.588	2361.38
766.775	2390.05
766.962	2548.92
767.149	2664.4
767.336	2767.86
767.523	2811.64
767.71	2950.95
767.897	3080.76
768.084	3167.94
768.271	3205.34
768.458	3333.21
768.645	3378.35
768.832	3399.47
769.019	3402.77
769.206	3503.51
769.392	3563
769.579	3618.99
769.766	3572.49
769.953	3581.01
770.14	3693.97
770.327	3647.28
770.513	3687.77
770.7	3782.9
770.887	3728.65
771.073	3735.62
771.26	3746.67
771.447	3717.61
771.634	3650.57
771.82	3805.37
772.007	3691.06
772.193	3796.85
772.38	3729.04
772.567	3728.65
772.753	3700.56
772.94	3835.4
773.126	3753.84
773.313	3815.64
773.499	3784.25
773.686	3835.02
773.872	3709.08
774.059	3776.31
774.245	3717.8
774.432	3787.74
774.618	3666.65
774.804	3732.91
774.991	3676.14
775.177	3748.02
775.363	3694.16
775.55	3755
775.736	3660.84
775.922	3683.31
776.109	3695.71
776.295	3693.77
776.481	3754.81
776.667	3730.39
776.853	3680.99
777.04	3628.68
777.226	3685.06
777.412	3744.34
777.598	3623.83
777.784	3612.4
777.97	3588.18
778.156	3658.51
778.342	3679.44
778.528	3614.53
778.715	3582.37
778.901	3574.62
779.087	3579.66
779.272	3554.86
779.458	3539.75
779.644	3558.54
779.83	3518.05
780.016	3635.84
780.202	3554.08
780.388	3506.03
780.574	3465.15
780.76	3475.62
780.946	3540.91
781.131	3508.16
781.317	3449.46
781.503	3451.2
781.689	3474.45
781.874	3575.2
782.06	3477.75
782.246	3501.97
782.432	3474.65
782.617	3474.26
782.803	3492.67
782.989	3375.64
783.174	3420.78
783.36	3336.7
783.545	3412.65
783.731	3408.19
783.916	3301.05
784.102	3363.82
784.288	3335.73
784.473	3321.97
784.659	3312.87
784.844	3377.97
785.029	3305.31
785.215	3287.1
785.4	3277.22
785.586	3374.09
785.771	3232.46
785.956	3324.49
786.142	3244.28
786.327	3269.66
786.512	3257.46
786.698	3266.17
786.883	3179.76
787.068	3257.84
787.254	3231.69
787.439	3208.63
787.624	3193.91
787.809	3165.62
787.994	3138.69
788.18	3232.46
788.365	3137.14
788.55	3112.73
788.735	3120.67
788.92	3087.54
789.105	3125.51
789.29	3122.22
789.475	3072.43
789.66	3053.63
789.845	3055.77
790.03	3023.99
790.215	3076.69
790.4	3042.59
790.585	3079.01
790.77	3033.48
790.955	2985.63
791.14	3051.12
791.325	3059.25
791.51	2962.19
791.695	3039.1
791.879	2975.75
792.064	2952.89
792.249	3038.13
792.434	2978.46
792.618	2966.64
792.803	3033.1
792.988	2994.93
793.173	3005.78
793.357	3046.85
793.542	3005.78
793.727	3021.47
793.911	3012.95
794.096	3020.89
794.281	3045.11
794.465	3061.19
794.65	3017.02
794.834	3090.83
795.019	3113.5
795.203	3092.58
795.388	3086.57
795.572	3132.68
795.757	3082.89
795.941	3067.2
796.126	3009.27
796.31	2988.53
796.494	3034.45
796.679	3023.02
796.863	3024.77
797.048	3097.42
797.232	3093.74
797.416	3057.12
797.601	3102.65
797.785	3116.8
797.969	3123.38
798.153	3034.45
798.338	3112.34
798.522	3117.96
798.706	3109.24
798.89	3102.26
799.074	3183.64
799.258	3189.06
799.443	3118.54
799.627	3100.52
799.811	3182.86
799.995	3063.9
800.179	3084.63
800.363	3030
800.547	3083.47
800.731	3091.22
800.915	3028.83
801.099	3021.47
801.283	3036.58
801.467	3049.76
801.651	3061.38
801.835	3086.96
802.019	3039.1
802.202	3092.96
802.386	3027.67
802.57	2984.85
802.754	3014.69
802.938	3006.17
803.121	3016.43
803.305	3084.83
803.489	3044.53
803.673	3077.66
803.856	3029.8
804.04	3065.07
804.224	3087.54
804.407	3007.52
804.591	3026.12
804.775	3041.04
804.958	3049.95
805.142	3131.33
805.326	3060.8
805.509	3063.52
805.693	3118.54
805.876	3095.68
806.06	3074.95
806.243	3088.9
806.427	3106.91
806.61	3165.81
806.794	3059.25
806.977	3149.73
807.16	3088.9
807.344	3098.78
807.527	3063.52
807.71	3079.4
807.894	3018.57
808.077	3096.84
808.26	3064.48
808.444	3031.93
808.627	3090.45
808.81	2975.55
808.993	2974.59
809.177	2964.51
809.36	2981.37
809.543	2999.19
809.726	2909.68
809.909	2884.11
810.092	2873.84
810.276	2858.72
810.459	2884.49
810.642	2869.57
810.825	2806.8
811.008	2844.39
811.191	2730.08
811.374	2741.89
811.557	2786.26
811.74	2790.53
811.923	2682.22
812.106	2663.62
812.289	2655.68
812.472	2641.73
812.654	2629.71
812.837	2577.02
813.02	2525.29
813.203	2524.51
813.386	2397.41
813.569	2366.99
813.751	2293.76
813.934	2372.22
814.117	2325.53
814.3	2255.4
814.482	2205.6
814.665	2149.8
814.848	2128.49
815.03	2052.35
815.213	2024.25
815.396	2048.86
815.578	2051.38
815.761	1963.03
815.943	2056.03
816.126	1888.05
816.309	1890.18
816.491	1842.71
816.674	1781.49
816.856	1832.83
817.039	1851.63
817.221	1913.63
817.403	1882.24
817.586	1877.59
817.768	1881.85
817.951	1802.22
818.133	1795.63
818.315	1836.32
818.498	1869.26
818.68	1917.11
818.862	1908.98
819.045	1925.25
819.227	1936.29
819.409	1873.71
819.591	1921.76
819.774	1902.58
819.956	1874.1
820.138	1959.74
820.32	1959.93
820.502	2033.75
820.684	2133.14
820.866	2131.98
821.048	2168.02
821.231	2182.35
821.413	2144.96
821.595	2143.99
821.777	2173.83
821.959	2129.85
822.141	2166.66
822.323	2029.49
822.505	1954.12
822.686	1913.24
822.868	1777.23
823.05	1702.05
823.232	1623.78
823.414	1606.54
823.596	1670.86
823.778	1671.63
823.96	1718.91
824.141	1710.38
824.323	1771.61
824.505	1811.52
824.687	1869.45
824.868	1971.94
825.05	2069.4
825.232	2074.24
825.413	2149.61
825.595	2071.92
825.777	2067.27
825.958	2061.07
826.14	2097.69
826.321	2122.48
826.503	2098.85
826.685	2145.54
826.866	2138.18
827.048	2123.65
827.229	2063
827.411	2007.79
827.592	1960.9
827.773	1969.04
827.955	1899.87
828.136	1904.52
828.318	1895.61
828.499	1918.08
828.68	1859.38
828.862	1904.52
829.043	1903.55
829.224	1877.2
829.406	1849.3
829.587	1878.36
829.768	1855.31
829.949	1876.43
830.131	1882.63
830.312	1946.56
830.493	1895.8
830.674	1934.55
830.855	1865.19
831.036	1928.93
831.218	1954.12
831.399	1987.25
831.58	1933.19
831.761	1906.65
831.942	1918.66
832.123	1884.18
832.304	1860.93
832.485	1851.82
832.666	1893.09
832.847	1904.52
833.028	1885.34
833.209	1904.52
833.389	1879.91
833.57	1832.83
833.751	1859.38
833.932	1887.08
834.113	1885.53
834.294	1889.21
834.475	1875.84
834.655	1975.43
834.836	1962.64
835.017	1964
835.198	1897.74
835.378	1964.19
835.559	1974.66
835.74	1936.87
835.92	1923.89
836.101	1892.31
836.281	1971.56
836.462	1973.3
836.643	1940.56
836.823	1986.86
837.004	2018.64
837.184	2001.59
837.365	1996.55
837.545	2026.77
837.726	1951.21
837.906	2041.11
838.087	2007.98
838.267	1986.67
838.448	1920.41
838.628	1978.92
838.808	1971.36
838.989	2019.02
839.169	2000.04
839.349	2012.63
839.53	2038.79
839.71	2025.03
839.89	1978.53
840.07	2050.41
840.251	1968.26
840.431	2029.49
840.611	1996.94
840.791	1976.79
840.971	2008.37
841.151	1948.89
841.332	1945.59
841.512	2043.24
841.692	1910.72
841.872	1983.57
842.052	1951.21
842.232	2025.22
842.412	1931.45
842.592	1965.36
842.772	1961.29
842.952	1941.52
843.132	1942.3
843.312	1931.06
843.492	1945.59
843.672	1972.52
843.851	1844.84
844.031	1912.27
844.211	1925.64
844.391	1894.25
844.571	1944.82
844.751	1926.22
844.93	1906.65
845.11	1940.94
845.29	1955.47
845.47	1924.28
845.649	1913.24
845.829	1940.17
846.009	1906.65
846.188	1933
846.368	1943.46
846.547	1954.7
846.727	1936.68
846.907	1894.44
847.086	1915.56
847.266	1958.77
847.445	1901.23
847.625	1902.19
847.804	1873.33
847.984	1881.66
848.163	1871.19
848.343	1873.71
848.522	1894.06
848.701	1883.01
848.881	1892.51
849.06	1880.49
849.239	1858.21
849.419	1883.4
849.598	1808.23
849.777	1759.79
849.957	1762.89
850.136	1727.05
850.315	1688.1
850.494	1713.1
850.674	1724.53
850.853	1787.3
851.032	1735.18
851.211	1799.9
851.39	1725.3
851.569	1725.69
851.748	1697.4
851.927	1750.88
852.107	1749.91
852.286	1699.15
852.465	1726.27
852.644	1757.08
852.823	1742.74
853.002	1704.18
853.181	1728.21
853.359	1756.69
853.538	1657.49
853.717	1727.82
853.896	1660.4
854.075	1543.57
854.254	1522.45
854.433	1478.47
854.611	1514.12
854.79	1452.7
854.969	1554.61
855.148	1547.83
855.327	1488.74
855.505	1561.39
855.684	1534.66
855.863	1587.94
856.041	1578.06
856.22	1635.4
856.399	1583.87
856.577	1672.22
856.756	1669.12
856.934	1770.06
857.113	1764.83
857.291	1677.45
857.47	1636.57
857.648	1679.38
857.827	1687.33
858.005	1705.73
858.184	1670.86
858.362	1747.78
858.541	1641.41
858.719	1651.49
858.898	1624.17
859.076	1662.72
859.254	1684.81
859.433	1639.67
859.611	1643.35
859.789	1593.75
859.967	1675.12
860.146	1713.1
860.324	1609.05
860.502	1607.7
860.68	1617.39
860.859	1583.87
861.037	1576.7
861.215	1598.98
861.393	1633.47
861.571	1588.52
861.749	1607.89
861.927	1611.38
862.105	1596.07
862.283	1575.54
862.461	1563.91
862.639	1567.01
862.817	1554.22
862.995	1587.16
863.173	1570.11
863.351	1556.55
863.529	1622.04
863.707	1627.46
863.885	1588.9
864.063	1539.89
864.241	1503.27
864.418	1575.92
864.596	1524.77
864.774	1529.04
864.952	1523.22
865.129	1533.11
865.307	1480.99
865.485	1464.91
865.663	1530.2
865.84	1459.29
866.018	1469.17
866.196	1303.32
866.373	1322.7
866.551	1302.74
866.728	1256.63
866.906	1300.42
867.084	1347.3
867.261	1372.49
867.439	1398.45
867.616	1403.1
867.794	1394.38
867.971	1419.38
868.149	1420.34
868.326	1448.63
868.503	1495.71
868.681	1432.36
868.858	1424.41
869.035	1383.53
869.213	1457.74
869.39	1407.94
869.567	1465.68
869.745	1394.19
869.922	1472.46
870.099	1411.04
870.276	1404.85
870.454	1454.44
870.631	1428.87
870.808	1389.35
870.985	1448.05
871.162	1460.06
871.339	1421.7
871.517	1374.04
871.694	1359.9
871.871	1389.93
872.048	1388.18
872.225	1376.36
872.402	1380.24
872.579	1375.2
872.756	1407.17
872.933	1347.88
873.11	1378.11
873.287	1392.45
873.463	1332.96
873.64	1324.05
873.817	1378.88
873.994	1354.66
874.171	1309.52
874.348	1345.95
874.524	1301.97
874.701	1346.14
874.878	1271.93
875.055	1321.53
875.231	1330.06
875.408	1326.76
875.585	1247.91
875.762	1319.01
875.938	1273.1
876.115	1274.65
876.291	1257.4
876.468	1258.76
876.645	1240.93
876.821	1275.81
876.998	1259.15
877.174	1294.6
877.351	1260.31
877.527	1256.05
877.704	1250.43
877.88	1274.84
878.057	1233.18
878.233	1314.75
878.409	1259.73
878.586	1225.82
878.762	1242.29
878.938	1242.48
879.115	1186.3
879.291	1248.3
879.467	1146.19
879.644	1226.21
879.82	1269.22
879.996	1215.94
880.172	1187.65
880.349	1236.09
880.525	1231.83
880.701	1157.62
880.877	1164.4
881.053	1195.99
881.229	1170.6
881.405	1243.07
881.581	1187.27
881.757	1196.76
881.933	1216.33
882.109	1210.52
882.285	1179.13
882.461	1164.4
882.637	1140.77
882.813	1164.99
882.989	1184.55
883.165	1234.35
883.341	1199.09
883.517	1203.93
883.693	1205.87
883.869	1218.27
884.044	1172.74
884.22	1218.07
884.396	1252.75
884.572	1209.55
884.747	1252.37
884.923	1215.75
885.099	1234.35
885.275	1255.85
885.45	1191.72
885.626	1149.49
885.801	1170.22
885.977	1187.27
886.153	1130.89
886.328	1188.82
886.504	1132.63
886.679	1179.71
886.855	1147.74
887.03	1150.65
887.206	1223.69
887.381	1151.23
887.557	1196.37
887.732	1213.81
887.908	1186.3
888.083	1214.97
888.258	1180.68
888.434	1133.79
888.609	1169.64
888.784	1244.81
888.96	1181.84
889.135	1190.75
889.31	1169.44
889.485	1188.82
889.661	1174.87
889.836	1234.35
890.011	1194.63
890.186	1164.02
890.361	1130.31
890.537	1199.67
890.712	1198.5
890.887	1194.05
891.062	1193.27
891.237	1210.13
891.412	1150.45
891.587	1182.81
891.762	1232.02
891.937	1210.9
892.112	1135.15
892.287	1159.56
892.462	1106.67
892.637	1060.36
892.812	1052.03
892.987	1059.97
893.161	1089.81
893.336	1076.06
893.511	1053.58
893.686	1084.77
893.861	1057.46
894.035	1043.12
894.21	1076.25
894.385	1024.13
894.56	1045.06
894.734	969.69
894.909	977.05
895.084	972.21
895.258	944.5
895.433	941.6
895.608	929
895.782	876.88
895.957	904.78
896.131	915.25
896.306	825.73
896.48	811.4
896.655	833.68
896.829	753.85
897.004	792.8
897.178	769.94
897.353	760.83
897.527	792.8
897.701	800.55
897.876	749.4
898.05	838.13
898.224	817.21
898.399	814.5
898.573	772.65
898.747	655.04
898.921	702.9
899.096	625.01
899.27	605.83
899.444	629.86
899.618	684.88
899.792	683.91
899.967	685.66
900.141	743.97
900.315	659.5
900.489	667.83
900.663	702.32
900.837	671.9
901.011	619.78
901.185	723.05
901.359	694.76
901.533	661.44
901.707	675.19
901.881	664.15
902.055	648.65
902.229	673.06
902.403	717.24
902.576	652.72
902.75	667.64
902.924	789.31
903.098	757.92
903.272	786.4
903.446	842.59
903.619	818.18
903.793	865.26
903.967	838.72
904.14	867.58
904.314	868.36
904.488	867
904.661	888.12
904.835	854.41
905.009	912.34
905.182	909.43
905.356	855.77
905.529	843.37
905.703	829.22
905.876	804.03
906.05	787.57
906.223	778.85
906.397	700.77
906.57	701.74
906.744	681.59
906.917	654.66
907.09	675.19
907.264	679.07
907.437	619.39
907.61	596.53
907.784	637.41
907.957	661.24
908.13	602.54
908.304	643.22
908.477	568.83
908.65	637.8
908.823	598.28
908.996	667.64
909.17	584.91
909.343	590.53
909.516	602.93
909.689	592.66
909.862	566.11
910.035	585.49
910.208	538.41
910.381	529.88
910.554	652.52
910.727	575.41
910.9	590.72
911.073	597.31
911.246	630.05
911.419	660.27
911.592	618.23
911.765	583.55
911.938	568.24
912.11	592.85
912.283	608.93
912.456	638.57
912.629	616.1
912.802	551
912.974	477.57
913.147	482.8
913.32	432.04
913.493	461.88
913.665	485.9
913.838	528.53
914.01	500.24
914.183	508.18
914.356	538.6
914.528	581.42
914.701	609.13
914.873	528.33
915.046	525.43
915.218	476.8
915.391	427.39
915.563	418.09
915.736	470.21
915.908	494.62
916.081	509.73
916.253	491.13
916.425	520
916.598	551.97
916.77	507.02
916.942	485.13
917.115	395.23
917.287	486.87
917.459	452.58
917.632	430.88
917.804	430.88
917.976	464.01
918.148	478.54
918.32	461.3
918.493	526.4
918.665	567.86
918.837	514
919.009	590.33
919.181	575.22
919.353	518.06
919.525	525.81
919.697	548.09
919.869	570.18
920.041	592.08
920.213	634.12
920.385	613.39
920.557	561.08
920.729	588.2
920.901	565.53
921.073	559.14
921.244	523.1
921.416	587.43
921.588	545.38
921.76	556.62
921.932	564.95
922.103	557.39
922.275	559.14
922.447	550.42
922.619	518.84
922.79	553.71
922.962	518.84
923.134	546.54
923.305	489.97
923.477	471.18
923.648	473.7
923.82	470.01
923.991	445.99
924.163	427.97
924.335	443.67
924.506	457.81
924.677	520.97
924.849	452.19
925.02	462.65
925.192	495.4
925.363	495.4
925.535	462.46
925.706	426.62
925.877	523.1
926.049	445.41
926.22	467.88
926.391	474.08
926.562	478.54
926.734	434.95
926.905	475.63
927.076	431.07
927.247	428.17
927.419	390.58
927.59	391.55
927.761	364.23
927.932	376.63
928.103	353.38
928.274	334.59
928.445	321.99
928.616	328.97
928.787	313.66
928.958	359.58
929.129	347.76
929.3	293.12
929.471	253.6
929.642	267.16
929.813	194.51
929.984	296.61
930.155	166.41
930.326	198.57
930.496	206.52
930.667	136.38
930.838	193.54
931.009	162.93
931.18	183.07
931.35	177.46
931.521	185.98
931.692	142.19
931.863	70.31
932.033	148.2
932.204	134.06
932.374	131.34
932.545	65.86
932.716	154.21
932.886	135.8
933.057	80.97
933.227	72.25
933.398	149.56
933.568	66.83
933.739	30.6
933.909	61.98
934.08	98.6
934.25	31.56
934.421	26.14
934.591	44.55
934.761	44.35
934.932	22.26
935.102	65.28
935.272	47.06
935.443	50.16
935.613	57.14
935.783	69.54
935.953	28.27
936.123	178.43
936.294	14.51
936.464	44.55
936.634	56.75
936.804	27.88
936.974	4.83
937.144	54.81
937.314	33.5
937.484	54.81
937.655	12.38
937.825	77.48
937.995	46.68
938.165	66.83
938.334	41.25
938.504	76.32
938.674	48.81
938.844	92.4
939.014	125.53
939.184	108.09
939.354	173.58
939.524	134.06
939.694	106.35
939.863	112.36
940.033	158.86
940.203	129.41
940.373	139.09
940.542	118.75
940.712	111
940.882	127.47
941.051	140.84
941.221	140.64
941.391	162.93
941.56	97.44
941.73	99.96
941.899	199.74
942.069	109.84
942.238	104.8
942.408	85.04
942.577	130.57
942.747	120.88
942.916	42.22
943.086	56.36
943.255	134.83
943.425	93.95
943.594	82.52
943.763	28.66
943.933	63.34
944.102	-0.79
944.271	88.53
944.441	90.08
944.61	51.91
944.779	67.02
944.948	154.01
945.117	44.35
945.287	72.06
945.456	14.32
945.625	29.82
945.794	87.17
945.963	50.16
946.132	80.58
946.301	66.83
946.47	112.94
946.639	20.71
946.808	55.59
946.977	100.73
947.146	113.33
947.315	63.73
947.484	103.44
947.653	87.95
947.822	60.43
947.991	55.59
948.16	156.53
948.329	112.36
948.498	84.26
948.666	87.95
948.835	121.46
949.004	72.45
949.173	52.1
949.341	75.74
949.51	83.68
949.679	123.4
949.847	105.38
950.016	149.36
950.185	152.66
950.353	70.31
950.522	66.25
950.69	115.65
950.859	79.42
951.028	97.63
951.196	93.76
951.365	37.38
951.533	78.45
951.701	87.36
951.87	96.08
952.038	56.17
952.207	57.33
952.375	152.27
952.543	71.86
952.712	107.9
952.88	62.95
953.048	129.41
953.217	78.65
953.385	84.07
953.553	129.99
953.721	76.9
953.89	54.43
954.058	27.69
954.226	61.4
954.394	65.66
954.562	44.74
954.73	69.35
954.898	60.24
955.067	106.74
955.235	73.41
955.403	111.39
955.571	154.4
955.739	98.21
955.907	48.61
956.075	58.11
956.243	70.31
956.41	126.89
956.578	42.41
956.746	60.63
956.914	58.3
957.082	124.18
957.25	105.96
957.418	65.66
957.585	87.36
957.753	143.74
957.921	75.16
958.089	92.21
958.256	107.32
958.424	80.78
958.592	111.58
958.759	72.83
958.927	100.54
959.095	27.88
959.262	113.13
959.43	104.22
959.597	67.41
959.765	80.39
959.932	59.66
960.1	106.93
960.267	98.6
960.435	76.32
960.602	135.61
960.77	77.1
960.937	64.7
961.104	102.67
961.272	43.38
961.439	88.14
961.606	102.48
961.774	128.05
961.941	63.53
962.108	121.85
962.275	96.08
962.443	122.04
962.61	131.34
962.777	143.74
962.944	136.77
963.111	124.95
963.278	129.02
963.446	112.94
963.613	114.68
963.78	132.89
963.947	135.61
964.114	92.6
964.281	170.87
964.448	98.21
964.615	88.33
964.782	100.73
964.949	128.24
965.116	124.56
965.282	134.64
965.449	118.36
965.616	86.59
965.783	148.78
965.95	123.01
966.117	66.63
966.283	85.04
966.45	118.94
966.617	115.07
966.784	160.99
966.95	147.62
967.117	170.29
967.284	79.23
967.45	128.24
967.617	185.79
967.784	149.94
967.95	179.78
968.117	105.19
968.283	157.31
968.45	216.21
968.616	124.95
968.783	143.55
968.949	156.73
969.116	161.38
969.282	137.54
969.449	139.29
969.615	152.27
969.781	100.15
969.948	113.71
970.114	72.64
970.28	190.63
970.447	130.57
970.613	163.12
970.779	120.69
970.945	149.94
971.112	160.02
971.278	130.18
971.444	146.26
971.61	180.17
971.776	117.78
971.942	153.82
972.108	152.66
972.275	117.01
972.441	150.91
972.607	195.86
972.773	116.62
972.939	162.15
973.105	126.69
973.271	114.49
973.437	127.28
973.602	99.18
973.768	118.36
973.934	124.95
974.1	147.81
974.266	62.95
974.432	134.64
974.598	110.81
974.763	146.84
974.929	85.81
975.095	176.88
975.261	87.17
975.426	99.18
975.592	105.58
975.758	154.59
975.923	65.08
976.089	93.95
976.255	124.18
976.42	125.53
976.586	140.26
976.751	125.73
976.917	176.88
977.082	124.37
977.248	66.25
977.413	65.47
977.579	94.92
977.744	114.49
977.91	83.3
978.075	83.68
978.24	120.69
978.406	98.6
978.571	89.11
978.736	79.23
978.902	146.46
979.067	100.93
979.232	80.97
979.397	132.89
979.563	157.69
979.728	78.26
979.893	102.48
980.058	74.38
980.223	140.84
980.388	124.37
980.554	145.88
980.719	105.38
980.884	109.84
981.049	119.91
981.214	92.98
981.379	126.5
981.544	107.32
981.709	99.18
981.874	122.43
982.039	110.61
982.204	136.77
982.368	111.19
982.533	77.29
982.698	126.5
982.863	157.11
983.028	82.52
983.193	141.23
983.357	127.47
983.522	99.76
983.687	103.44
983.852	110.61
984.016	114.49
984.181	116.81
984.346	123.01
984.51	117.59
984.675	136.77
984.839	118.17
985.004	128.24
985.168	164.09
985.333	144.91
985.498	114.49
985.662	158.66
985.827	139.48
985.991	117.01
986.155	104.22
986.32	124.18
986.484	167.19
986.649	128.05
986.813	89.88
986.977	98.99
987.142	139.68
987.306	78.06
987.47	92.4
987.634	101.51
987.799	113.33
987.963	125.14
988.127	139.48
988.291	171.84
988.455	110.61
988.62	93.18
988.784	148.98
988.948	131.73
989.112	77.29
989.276	104.99
989.44	103.44
989.604	100.54
989.768	88.91
989.932	165.64
990.096	81.94
990.26	81.55
990.424	77.29
990.588	109.26
990.752	154.21
990.915	131.93
991.079	87.17
991.243	86.2
991.407	120.49
991.571	93.95
991.734	109.64
991.898	137.54
992.062	179.59
992.226	100.54
992.389	67.02
992.553	55.2
992.717	73.22
992.88	81.16
993.044	129.02
993.207	63.92
993.371	123.01
993.535	120.3
993.698	101.12
993.862	142.58
994.025	141.81
994.189	99.38
994.352	123.01
994.515	106.54
994.679	111.97
994.842	91.24
995.006	109.45
995.169	86.98
995.332	66.83
995.496	106.93
995.659	71.28
995.822	76.9
995.985	78.26
996.149	138.71
996.312	100.54
996.475	147.81
996.638	72.25
996.801	152.66
996.964	140.26
997.128	79.61
997.291	79.81
997.454	88.14
997.617	40.09
997.78	117.2
997.943	54.43
998.106	106.93
998.269	72.64
998.432	65.86
998.595	96.28
998.758	58.69
998.92	61.98
999.083	24.59
999.246	70.7
999.409	51.91
999.572	38.73
999.735	49.2
999.897	104.99
1000.06	47.06
1000.223	77.68
1000.386	133.48
1000.548	94.73
1000.711	102.28
1000.874	112.74
1001.036	38.54
1001.199	111.19
1001.361	63.73
1001.524	62.37
1001.687	133.86
1001.849	77.48
1002.012	82.71
1002.174	71.09
1002.337	88.33
1002.499	71.28
1002.661	124.37
1002.824	51.91
1002.986	44.16
1003.149	78.45
1003.311	34.28
1003.473	127.08
1003.636	60.63
1003.798	80.39
1003.96	90.08
1004.123	43
1004.285	45.13
1004.447	47.84
1004.609	67.8
1004.771	120.49
1004.933	4.44
1005.096	29.63
1005.258	10.25
1005.42	49
1005.582	98.21
1005.744	51.13
1005.906	33.7
1006.068	81.16
1006.23	38.54
1006.392	7.35
1006.554	40.67
1006.716	123.4
1006.878	83.88
1007.04	-0.4
1007.202	53.07
1007.363	89.88
1007.525	87.75
1007.687	67.99
1007.849	96.86
1008.011	18.58
1008.172	28.66
1008.334	47.06
1008.496	91.05
1008.658	5.22
1008.819	49.39
1008.981	-4.67
1009.143	24.78
1009.304	59.08
1009.466	58.3
1009.627	101.12
1009.789	155.18
1009.95	70.9
1010.112	49.78
1010.273	57.72
1010.435	7.93
1010.596	51.52
1010.758	38.93
1010.919	51.71
1011.081	33.11
1011.242	61.4
1011.403	85.62
1011.565	16.84
1011.726	73.8
1011.887	19.94
1012.049	31.37
1012.21	67.99
1012.371	95.69
1012.532	-13.58
1012.693	59.08
1012.855	18.97
1013.016	63.34
1013.177	90.66
1013.338	40.28
1013.499	100.93
1013.66	60.63
1013.821	98.6
1013.982	63.73
1014.143	62.56
1014.304	52.1
1014.465	77.48
1014.626	57.14
1014.787	24.01
1014.948	119.14
1015.109	-3.5
1015.27	82.13
1015.431	33.89
1015.592	11.8
1015.752	70.9
1015.913	42.41
1016.074	76.71
1016.235	36.41
1016.395	45.71
1016.556	33.5
1016.717	40.09
1016.877	81.75
1017.038	6.18
1017.199	71.48
1017.359	57.91
1017.52	30.21
1017.681	27.88
1017.841	26.72
1018.002	33.11
1018.162	31.76
1018.323	88.14
1018.483	53.26
1018.644	0.95
1018.804	43.77
1018.964	16.26
1019.125	27.3
1019.285	41.45
1019.446	12.38
1019.606	11.41
1019.766	1.53
1019.926	39.31
1020.087	44.35
1020.247	24.2
1020.407	51.91
1020.567	77.29
1020.728	27.88
1020.888	-9.12
1021.048	21.3
1021.208	21.1
1021.368	-3.7
1021.528	83.88
1021.688	66.25
1021.848	20.71
1022.008	51.13
1022.168	31.18
1022.328	42.41
1022.488	46.68
1022.648	-8.54
1022.808	36.02
1022.968	52.3
1023.128	-2.34
1023.288	32.15
1023.448	12.19
1023.608	55.78
1023.767	59.08
1023.927	9.86
1024.087	18.2
1024.247	2.89
1024.406	11.8
1024.566	5.6
1024.726	-14.93
1024.885	34.86
1025.045	37.76
1025.205	14.51
1025.364	25.56
1025.524	34.66
1025.683	7.54
1025.843	27.5
1026.003	28.85
1026.162	73.03
1026.321	42.41
1026.481	42.8
1026.64	-7.77
1026.8	34.08
1026.959	5.99
1027.119	32.92
1027.278	25.36
1027.437	8.12
1027.597	18.97
1027.756	56.56
1027.915	42.61
1028.074	31.18
1028.234	12.77
1028.393	14.13
1028.552	-1.95
1028.711	-36.05
1028.87	44.16
1029.03	-6.99
1029.189	24.4
1029.348	-25.2
1029.507	1.53
1029.666	4.25
1029.825	-18.42
1029.984	3.86
1030.143	20.33
1030.302	-4.47
1030.461	-13.58
1030.62	33.7
1030.779	39.31
1030.938	-4.47
1031.097	-39.15
1031.255	58.69
1031.414	71.67
1031.573	49.39
1031.732	-25.59
1031.891	32.34
1032.049	49.39
1032.208	40.67
1032.367	-3.7
1032.525	23.62
1032.684	29.43
1032.843	14.32
1033.001	-14.35
1033.16	131.34
1033.319	60.63
1033.477	67.02
1033.636	-8.35
1033.794	-8.54
1033.953	74.77
1034.111	45.13
1034.27	-4.28
1034.428	44.35
1034.587	-29.85
1034.745	39.12
1034.903	15.29
1035.062	55.2
1035.22	-30.05
1035.378	53.65
1035.537	-4.28
1035.695	25.95
1035.853	29.82
1036.011	27.3
1036.17	22.07
1036.328	-52.13
1036.486	15.1
1036.644	27.11
1036.802	-56.01
1036.96	-20.94
1037.119	6.77
1037.277	-23.85
1037.435	-13.58
1037.593	-7.77
1037.751	25.95
1037.909	49
1038.067	49
