Data from oakcork_FLMT105791__263__17-34-09-053.txt Node

Date: Mon Mar 20 17:34:09 GMT 2023
User: antho
Spectrometer: FLMT10579
Trigger mode: 0
Integration Time (sec): 1.000000E-1
Scans to average: 10
Electric dark correction enabled: true
Nonlinearity correction enabled: false
Boxcar width: 0
XAxis mode: Wavelengths
Number of Pixels in Spectrum: 3648
>>>>>Begin Spectral Data<<<<<
345.248	-155.63
345.464	-155.63
345.681	-155.63
345.898	-179.65
346.114	-150.98
346.331	-15.74
346.548	26.11
346.764	-34.15
346.981	-11.87
347.197	-24.07
347.414	43.35
347.631	-23.88
347.847	38.7
348.064	6.15
348.28	22.43
348.497	-27.56
348.713	0.53
348.93	32.89
349.146	26.49
349.363	-2.57
349.579	10.41
349.796	-1.99
350.012	-0.44
350.229	35.41
350.445	16.42
350.661	-4.5
350.878	-10.51
351.094	20.88
351.311	-5.47
351.527	12.93
351.743	-15.94
351.96	19.52
352.176	25.91
352.392	13.9
352.609	53.81
352.825	-16.32
353.041	7.51
353.257	17
353.474	-7.99
353.69	19.71
353.906	16.81
354.122	-19.81
354.339	50.33
354.555	13.32
354.771	-2.18
354.987	39.67
355.203	80.36
355.42	-6.44
355.636	20.3
355.852	-16.13
356.068	-6.44
356.284	-5.67
356.5	49.16
356.716	20.3
356.932	11.77
357.148	46.06
357.364	-1.4
357.58	34.83
357.796	67.18
358.012	49.16
358.228	16.42
358.444	-42.09
358.66	52.07
358.876	29.98
359.092	-18.65
359.308	10.8
359.524	35.79
359.74	3.63
359.956	-17.87
360.172	4.6
360.388	50.33
360.604	4.21
360.819	87.14
361.035	15.45
361.251	28.04
361.467	-14.39
361.683	45.68
361.898	11.19
362.114	39.48
362.33	20.68
362.546	44.71
362.762	22.62
362.977	24.94
363.193	-8.96
363.409	68.34
363.624	-5.47
363.84	6.73
364.056	-16.13
364.271	25.91
364.487	26.49
364.703	-7.02
364.918	-7.99
365.134	13.71
365.35	3.83
365.565	83.26
365.781	23.98
365.996	29.59
366.212	61.95
366.427	8.48
366.643	-11.87
366.858	14.68
367.074	-31.24
367.289	47.03
367.505	83.84
367.72	-30.66
367.936	10.22
368.151	36.76
368.367	41.99
368.582	-0.24
368.798	9.25
369.013	82.49
369.228	11.96
369.444	-4.5
369.659	87.33
369.874	13.13
370.09	35.21
370.305	-55.27
370.52	11.38
370.736	71.06
370.951	11.58
371.166	61.18
371.381	62.73
371.597	62.34
371.812	-19.62
372.027	10.03
372.242	8.28
372.458	91.59
372.673	14.68
372.888	14.87
373.103	28.82
373.318	87.91
373.533	44.13
373.749	32.31
373.964	-16.13
374.179	65.24
374.394	17.2
374.609	56.53
374.824	2.86
375.039	74.35
375.254	25.33
375.469	72.99
375.684	32.31
375.899	50.52
376.114	3.25
376.329	28.63
376.544	49.36
376.759	29.01
376.974	6.35
377.189	18.16
377.404	3.44
377.619	48.78
377.834	-26.4
378.049	-27.95
378.264	-28.14
378.478	46.06
378.693	-6.44
378.908	49.36
379.123	25.14
379.338	47.03
379.553	30.18
379.767	44.71
379.982	45.87
380.197	35.6
380.412	43.16
380.626	27.08
380.841	87.91
381.056	54.78
381.271	74.74
381.485	-7.6
381.7	9.45
381.915	37.34
382.129	1.5
382.344	27.66
382.559	12.74
382.773	36.38
382.988	-0.63
383.202	46.06
383.417	14.87
383.632	115.81
383.846	-0.44
384.061	24.36
384.275	6.73
384.49	21.07
384.704	23.59
384.919	51.88
385.133	17.39
385.348	63.69
385.562	-3.54
385.777	34.83
385.991	16.23
386.206	20.3
386.42	20.49
386.634	84.23
386.849	57.11
387.063	43.35
387.277	-13.42
387.492	-1.21
387.706	2.66
387.92	4.21
388.135	50.91
388.349	66.02
388.563	39.86
388.778	27.27
388.992	18.75
389.206	52.07
389.42	89.46
389.635	42.77
389.849	49.36
390.063	54.01
390.277	1.89
390.491	93.73
390.706	59.04
390.92	55.56
391.134	31.34
391.348	84.62
391.562	-6.64
391.776	39.09
391.99	4.99
392.205	51.68
392.419	16.23
392.633	37.73
392.847	66.02
393.061	35.41
393.275	81.71
393.489	54.98
393.703	45.68
393.917	55.94
394.131	8.28
394.345	35.99
394.559	56.91
394.773	22.23
394.986	32.31
395.2	3.25
395.414	70.09
395.628	12.93
395.842	26.69
396.056	22.43
396.27	5.57
396.484	46.45
396.697	44.32
396.911	92.76
397.125	48.78
397.339	76.09
397.553	21.26
397.766	115.62
397.98	73.38
398.194	66.41
398.408	29.21
398.621	35.79
398.835	64.47
399.049	62.34
399.262	76.48
399.476	69.31
399.69	54.39
399.903	134.22
400.117	52.07
400.331	65.44
400.544	18.36
400.758	132.86
400.971	79
401.185	101.09
401.398	38.12
401.612	110.77
401.826	78.23
402.039	94.11
402.253	59.82
402.466	86.56
402.68	43.35
402.893	43.16
403.106	65.05
403.32	51.49
403.533	70.48
403.747	40.83
403.96	60.79
404.174	57.49
404.387	38.12
404.6	62.73
404.814	86.56
405.027	65.24
405.24	60.4
405.454	58.27
405.667	94.5
405.88	27.66
406.094	65.24
406.307	108.45
406.52	68.93
406.733	30.37
406.947	26.88
407.16	117.94
407.373	103.03
407.586	34.44
407.799	58.27
408.012	106.9
408.226	81.91
408.439	98.57
408.652	38.7
408.865	65.63
409.078	87.14
409.291	92.18
409.504	52.26
409.717	82.1
409.93	66.99
410.143	53.81
410.357	6.35
410.57	42.77
410.783	66.6
410.996	94.11
411.209	82.68
411.421	82.1
411.634	75.71
411.847	40.83
412.06	83.46
412.273	60.21
412.486	75.9
412.699	120.46
412.912	65.63
413.125	76.68
413.338	61.18
413.55	124.34
413.763	66.02
413.976	88.69
414.189	75.32
414.402	46.06
414.615	91.79
414.827	35.6
415.04	97.02
415.253	95.86
415.466	99.15
415.678	138.87
415.891	72.41
416.104	68.93
416.316	48.97
416.529	32.11
416.742	106.71
416.954	101.86
417.167	73.38
417.38	39.67
417.592	104.96
417.805	62.73
418.017	48.78
418.23	107.87
418.442	48.19
418.655	48.78
418.868	94.69
419.08	97.41
419.293	107.68
419.505	93.92
419.718	95.86
419.93	106.71
420.142	71.25
420.355	137.9
420.567	154.37
420.78	109.61
420.992	93.34
421.205	154.95
421.417	26.11
421.629	47.81
421.842	66.79
422.054	58.85
422.266	111.55
422.479	114.46
422.691	66.02
422.903	118.33
423.115	55.94
423.328	73.19
423.54	99.93
423.752	103.03
423.964	63.11
424.177	72.41
424.389	63.5
424.601	184.98
424.813	105.93
425.025	124.53
425.238	115.04
425.45	101.86
425.662	84.81
425.874	338.82
426.086	92.76
426.298	113.29
426.51	86.94
426.722	85.78
426.934	77.64
427.146	122.4
427.358	50.91
427.57	129.96
427.782	99.15
427.994	86.56
428.206	93.92
428.418	70.28
428.63	113.87
428.842	126.66
429.054	96.44
429.266	114.07
429.478	48.19
429.69	90.82
429.902	67.57
430.114	103.61
430.325	110.97
430.537	112.13
430.749	65.63
430.961	26.88
431.173	82.88
431.384	96.05
431.596	18.94
431.808	66.41
432.02	96.05
432.231	129.76
432.443	99.93
432.655	108.06
432.867	48.39
433.078	105.93
433.29	146.62
433.502	117.56
433.713	131.12
433.925	90.04
434.136	127.24
434.348	71.83
434.56	48
434.771	182.46
434.983	50.33
435.194	90.24
435.406	71.64
435.617	144.49
435.829	138.09
436.04	128.79
436.252	135.38
436.463	148.17
436.675	130.54
436.886	109.23
437.098	122.98
437.309	165.41
437.521	134.8
437.732	128.41
437.943	109.03
438.155	101.67
438.366	79
438.578	145.65
438.789	127.05
439	143.32
439.211	101.28
439.423	132.28
439.634	121.43
439.845	133.64
440.057	118.52
440.268	144.1
440.479	95.08
440.69	115.23
440.902	116.78
441.113	113.49
441.324	129.57
441.535	119.88
441.746	180.91
441.957	116.2
442.168	90.63
442.38	151.85
442.591	174.52
442.802	122.59
443.013	134.61
443.224	117.17
443.435	117.56
443.646	118.52
443.857	104.38
444.068	81.91
444.279	92.76
444.49	171.42
444.701	138.48
444.912	178.01
445.123	153.98
445.334	149.72
445.545	127.24
445.756	131.51
445.967	111.16
446.178	163.09
446.388	184.79
446.599	160.57
446.81	142.36
447.021	117.36
447.232	159.02
447.443	156.69
447.653	119.11
447.864	181.69
448.075	122.4
448.286	151.66
448.496	158.82
448.707	147.2
448.918	121.43
449.129	219.66
449.339	111.16
449.55	150.69
449.761	148.75
449.971	185.17
450.182	116.97
450.393	157.66
450.603	148.94
450.814	147.78
451.024	161.73
451.235	179.56
451.446	188.47
451.656	184.4
451.867	131.7
452.077	159.6
452.288	202.42
452.498	205.13
452.709	147.39
452.919	163.86
453.13	121.62
453.34	196.41
453.55	99.54
453.761	206.49
453.971	167.74
454.182	217.53
454.392	160.37
454.602	232.06
454.813	172
455.023	197.19
455.233	123.76
455.444	176.84
455.654	110.97
455.864	161.92
456.075	121.24
456.285	137.32
456.495	156.31
456.705	182.27
456.916	208.62
457.126	187.31
457.336	167.93
457.546	97.41
457.756	127.63
457.967	195.06
458.177	142.16
458.387	142.94
458.597	127.82
458.807	143.13
459.017	136.35
459.227	173.94
459.437	149.72
459.647	215.01
459.857	184.21
460.068	152.04
460.278	221.4
460.488	198.54
460.698	215.2
460.908	146.42
461.117	138.09
461.327	145.07
461.537	161.54
461.747	181.69
461.957	165.02
462.167	257.25
462.377	221.6
462.587	179.36
462.797	191.18
463.007	157.86
463.216	196.61
463.426	207.07
463.636	229.35
463.846	137.51
464.056	153.4
464.265	236.32
464.475	138.87
464.685	169.67
464.895	209
465.104	156.5
465.314	216.56
465.524	153.59
465.733	145.65
465.943	248.34
466.153	237.1
466.362	212.88
466.572	179.17
466.782	177.81
466.991	168.9
467.201	228.57
467.41	149.72
467.62	194.67
467.829	178.39
468.039	171.61
468.249	151.27
468.458	209
468.668	199.32
468.877	197.19
469.086	226.83
469.296	232.84
469.505	158.24
469.715	237.29
469.924	202.22
470.134	202.22
470.343	237.87
470.552	190.21
470.762	205.13
470.971	148.17
471.18	200.48
471.39	165.02
471.599	189.24
471.808	189.24
472.018	165.61
472.227	230.32
472.436	252.02
472.645	190.79
472.855	174.32
473.064	240.59
473.273	227.99
473.482	204.74
473.691	252.6
473.901	251.24
474.11	219.08
474.319	298.71
474.528	211.14
474.737	246.59
474.946	247.75
475.155	225.86
475.364	248.92
475.573	214.43
475.783	222.95
475.992	244.65
476.201	261.12
476.41	213.85
476.619	206.29
476.828	202.61
477.037	199.51
477.245	219.66
477.454	263.25
477.663	181.88
477.872	201.45
478.081	294.25
478.29	220.82
478.499	291.35
478.708	247.17
478.917	292.12
479.125	231.87
479.334	243.69
479.543	220.24
479.752	262.29
479.961	261.12
480.169	238.65
480.378	229.15
480.587	327
480.796	259.77
481.004	270.23
481.213	264.22
481.422	272.75
481.63	229.74
481.839	256.28
482.048	270.23
482.256	277.59
482.465	245.62
482.674	273.14
482.882	284.95
483.091	317.31
483.299	276.04
483.508	278.17
483.716	252.02
483.925	289.8
484.134	254.34
484.342	275.27
484.551	310.72
484.759	308.59
484.967	265.97
485.176	309.17
485.384	308.59
485.593	318.47
485.801	289.8
486.01	276.04
486.218	273.72
486.426	241.17
486.635	255.89
486.843	281.08
487.051	300.45
487.26	267.52
487.468	299.1
487.676	296.77
487.885	263.25
488.093	290.77
488.301	291.54
488.509	300.07
488.717	302.78
488.926	278.17
489.134	279.34
489.342	267.32
489.55	284.76
489.758	284.76
489.967	263.06
490.175	372.53
490.383	260.35
490.591	322.35
490.799	239.62
491.007	354.7
491.215	318.08
491.423	302.2
491.631	292.51
491.839	306.07
492.047	334.94
492.255	262.87
492.463	252.21
492.671	295.8
492.879	350.83
493.087	316.92
493.295	315.37
493.503	333
493.711	323.7
493.919	358.97
494.127	347.53
494.334	347.15
494.542	273.52
494.75	321.38
494.958	323.12
495.166	345.21
495.374	327.38
495.581	318.67
495.789	333.2
495.997	348.12
496.205	323.7
496.412	314.98
496.62	334.94
496.828	364.39
497.035	315.76
497.243	350.63
497.451	343.27
497.658	326.22
497.866	319.83
498.074	388.61
498.281	331.45
498.489	378.73
498.696	340.75
498.904	317.5
499.112	338.82
499.319	409.73
499.527	328.55
499.734	380.47
499.942	295.8
500.149	312.08
500.357	339.78
500.564	308.98
500.771	355.28
500.979	320.02
501.186	309.95
501.394	346.37
501.601	346.76
501.808	377.95
502.016	339.98
502.223	305.3
502.43	335.33
502.638	364.58
502.845	333
503.052	413.02
503.26	315.18
503.467	383.57
503.674	325.83
503.881	362.65
504.089	420.19
504.296	374.85
504.503	318.47
504.71	379.5
504.917	311.11
505.125	372.33
505.332	341.92
505.539	373.11
505.746	432.2
505.953	383.96
506.16	386.67
506.367	412.83
506.574	410.11
506.781	390.93
506.988	336.3
507.195	357.03
507.402	329.9
507.609	440.34
507.816	362.84
508.023	383.38
508.23	383.96
508.437	340.75
508.644	403.53
508.851	448.09
509.058	433.17
509.265	367.68
509.472	410.5
509.679	450.61
509.885	330.1
510.092	368.07
510.299	371.75
510.506	391.13
510.713	395.97
510.92	376.98
511.126	396.94
511.333	430.07
511.54	407.4
511.746	452.16
511.953	429.88
512.16	438.79
512.367	366.52
512.573	381.25
512.78	423.29
512.987	405.27
513.193	392.1
513.4	344.63
513.606	379.89
513.813	438.01
514.02	397.91
514.226	473.86
514.433	449.45
514.639	375.24
514.846	417.09
515.052	398.49
515.259	404.88
515.465	413.21
515.672	421.55
515.878	495.56
516.085	389.19
516.291	418.25
516.497	382.99
516.704	398.3
516.91	387.06
517.117	349.67
517.323	355.67
517.529	410.7
517.736	384.35
517.942	423.48
518.148	386.48
518.354	438.79
518.561	415.93
518.767	407.79
518.973	434.14
519.179	447.31
519.386	385.7
519.592	376.01
519.798	397.71
520.004	447.9
520.21	402.36
520.417	435.5
520.623	453.32
520.829	441.11
521.035	458.94
521.241	445.38
521.447	469.01
521.653	552.91
521.859	443.63
522.065	464.17
522.271	526.75
522.477	488.19
522.683	487.61
522.889	486.84
523.095	486.45
523.301	464.56
523.507	459.52
523.713	483.54
523.919	438.21
524.125	511.06
524.331	463.39
524.537	528.3
524.742	523.84
524.948	514.35
525.154	495.56
525.36	581.97
525.566	532.18
525.772	570.92
525.977	468.43
526.183	514.74
526.389	523.26
526.595	486.84
526.8	500.79
527.006	450.22
527.212	497.3
527.417	452.55
527.623	451.19
527.829	506.99
528.034	522.1
528.24	509.31
528.446	469.59
528.651	524.62
528.857	553.68
529.062	562.4
529.268	515.71
529.473	526.75
529.679	489.94
529.884	594.37
530.09	541.67
530.295	593.4
530.501	571.51
530.706	543.99
530.912	537.02
531.117	544.96
531.323	517.26
531.528	559.3
531.733	567.24
531.939	544.96
532.144	571.31
532.35	542.83
532.555	612.39
532.76	582.74
532.966	588.36
533.171	557.75
533.376	540.31
533.581	539.54
533.787	566.08
533.992	552.71
534.197	656.75
534.402	553.68
534.607	594.95
534.813	664.12
535.018	542.83
535.223	540.89
535.428	569.76
535.633	608.12
535.838	595.92
536.043	585.65
536.249	656.17
536.454	596.5
536.659	597.47
536.864	540.89
537.069	593.59
537.274	589.91
537.479	606.96
537.684	605.22
537.889	586.42
538.094	664.12
538.299	610.84
538.504	624.21
538.708	597.66
538.913	617.23
539.118	586.62
539.323	591.66
539.528	596.69
539.733	602.31
539.938	627.5
540.142	634.86
540.347	592.04
540.552	592.43
540.757	593.59
540.962	584.1
541.166	587.97
541.371	558.91
541.576	624.79
541.781	534.11
541.985	599.6
542.19	609.48
542.395	636.99
542.599	638.35
542.804	603.09
543.008	680.2
543.213	582.94
543.418	537.21
543.622	613.36
543.827	587.2
544.031	638.93
544.236	625.56
544.44	598.44
544.645	669.74
544.849	586.04
545.054	655.79
545.258	720.11
545.463	656.56
545.667	620.91
545.872	638.74
546.076	670.32
546.281	638.54
546.485	604.06
546.689	618.97
546.894	674
547.098	645.52
547.302	592.62
547.507	604.25
547.711	644.74
547.915	657.92
548.119	614.71
548.324	637.77
548.528	676.32
548.732	671.29
548.936	625.76
549.141	687.17
549.345	620.33
549.549	626.14
549.753	630.02
549.957	735.03
550.161	696.28
550.366	624.98
550.57	632.92
550.774	636.8
550.978	646.1
551.182	656.56
551.386	625.17
551.59	632.34
551.794	634.28
551.998	617.62
552.202	618.78
552.406	594.17
552.61	616.07
552.814	640.09
553.018	694.54
553.222	667.99
553.426	628.08
553.63	697.44
553.833	622.07
554.037	587.01
554.241	667.8
554.445	632.73
554.649	621.49
554.853	633.51
555.056	667.41
555.26	667.02
555.464	657.72
555.668	666.05
555.871	671.87
556.075	646.87
556.279	641.06
556.483	618.2
556.686	643.19
556.89	643.39
557.094	624.98
557.297	588.94
557.501	698.22
557.704	614.13
557.908	683.49
558.112	623.24
558.315	665.86
558.519	622.66
558.722	620.91
558.926	656.17
559.129	600.96
559.333	573.64
559.536	587.59
559.74	598.82
559.943	580.61
560.147	577.12
560.35	580.22
560.553	569.57
560.757	535.66
560.96	667.41
561.164	566.66
561.367	664.12
561.57	603.47
561.774	598.24
561.977	606.19
562.18	585.46
562.384	659.85
562.587	571.7
562.79	581.77
562.993	589.72
563.197	659.85
563.4	627.69
563.603	661.79
563.806	702.87
564.009	549.03
564.212	605.8
564.416	537.02
564.619	606.38
564.822	567.63
565.025	638.74
565.228	573.06
565.431	590.88
565.634	488.78
565.837	570.15
566.04	537.41
566.243	583.32
566.446	503.11
566.649	601.92
566.852	515.71
567.055	550.19
567.258	612
567.461	620.33
567.664	608.51
567.867	528.3
568.07	593.21
568.273	570.73
568.475	614.13
568.678	537.6
568.881	556.78
569.084	596.31
569.287	494.59
569.489	508.15
569.692	583.91
569.895	553.68
570.098	514.93
570.3	515.9
570.503	488.58
570.706	487.81
570.909	521.52
571.111	486.06
571.314	500.79
571.516	481.8
571.719	497.88
571.922	514.93
572.124	515.9
572.327	508.73
572.529	467.66
572.732	493.81
572.935	501.95
573.137	532.95
573.34	473.08
573.542	534.69
573.745	527.33
573.947	517.84
574.15	489.74
574.352	486.84
574.554	517.45
574.757	463.98
574.959	488.19
575.162	442.86
575.364	497.3
575.566	554.65
575.769	447.7
575.971	482.96
576.173	425.23
576.376	489.94
576.578	498.66
576.78	548.26
576.982	406.05
577.185	478.51
577.387	459.71
577.589	439.95
577.791	500.79
577.993	488.78
578.196	459.33
578.398	511.25
578.6	501.76
578.802	428.33
579.004	466.11
579.206	434.53
579.408	485.29
579.61	470.95
579.812	485.09
580.014	468.24
580.216	436.46
580.418	428.91
580.62	432.4
580.822	414.18
581.024	458.94
581.226	478.31
581.428	462.04
581.63	500.21
581.832	424.84
582.034	513.19
582.236	484.13
582.438	498.27
582.64	510.67
582.841	515.32
583.043	526.36
583.245	462.23
583.447	487.61
583.649	479.86
583.85	478.12
584.052	499.24
584.254	458.94
584.456	487.03
584.657	414.96
584.859	471.53
585.061	458.94
585.262	426
585.464	422.13
585.666	461.65
585.867	447.7
586.069	531.79
586.27	463.78
586.472	481.22
586.674	445.38
586.875	458.55
587.077	437.24
587.278	460.88
587.48	434.14
587.681	542.44
587.883	471.73
588.084	402.56
588.285	429.68
588.487	430.85
588.688	440.92
588.89	415.73
589.091	408.56
589.292	429.49
589.494	423.29
589.695	408.95
589.896	375.24
590.098	363.81
590.299	434.33
590.5	378.15
590.702	381.05
590.903	408.18
591.104	469.59
591.305	426.78
591.507	455.06
591.708	442.86
591.909	432.78
592.11	490.71
592.311	432.78
592.512	446.15
592.714	386.28
592.915	391.51
593.116	415.73
593.317	413.8
593.518	429.1
593.719	396.16
593.92	441.11
594.121	449.45
594.322	391.32
594.523	450.8
594.724	379.89
594.925	398.88
595.126	424.45
595.327	423.68
595.528	413.8
595.729	432.78
595.929	427.36
596.13	434.72
596.331	392.68
596.532	421.55
596.733	445.57
596.934	434.53
597.135	451.19
597.335	423.29
597.536	371.37
597.737	414.18
597.938	395.2
598.138	448.09
598.339	417.09
598.54	448.86
598.74	424.45
598.941	438.21
599.142	479.09
599.342	411.66
599.543	397.52
599.744	421.16
599.944	421.35
600.145	395.78
600.345	419.03
600.546	479.67
600.746	463.98
600.947	494.39
601.147	473.47
601.348	448.28
601.548	410.11
601.749	433.36
601.949	393.26
602.15	399.65
602.35	418.25
602.551	443.25
602.751	382.21
602.951	382.6
603.152	370.4
603.352	429.88
603.552	413.8
603.753	430.85
603.953	426.97
604.153	396.94
604.354	430.46
604.554	415.54
604.754	407.4
604.954	401.2
605.155	390.16
605.355	399.65
605.555	456.81
605.755	458.55
605.955	407.4
606.155	424.06
606.356	421.55
606.556	455.65
606.756	439.76
606.956	377.76
607.156	433.56
607.356	369.62
607.556	429.3
607.756	400.62
607.956	444.6
608.156	423.87
608.356	377.95
608.556	413.6
608.756	407.21
608.956	372.14
609.156	447.9
609.356	405.46
609.556	362.84
609.755	423.87
609.955	378.73
610.155	423.29
610.355	397.91
610.555	396.16
610.755	443.44
610.954	354.7
611.154	393.45
611.354	440.15
611.554	382.8
611.753	394.42
611.953	344.05
612.153	416.12
612.352	404.69
612.552	366.91
612.752	325.25
612.951	384.73
613.151	407.98
613.351	350.63
613.55	387.25
613.75	384.93
613.949	396.36
614.149	413.02
614.348	378.15
614.548	373.11
614.747	349.86
614.947	374.27
615.146	330.1
615.346	391.13
615.545	369.23
615.745	366.72
615.944	394.61
616.144	372.91
616.343	406.82
616.542	358.77
616.742	360.52
616.941	369.62
617.14	348.12
617.34	382.6
617.539	363.03
617.738	337.65
617.938	433.36
618.137	347.73
618.336	336.68
618.535	381.83
618.734	377.56
618.934	389.38
619.133	376.6
619.332	377.37
619.531	356.45
619.73	367.88
619.929	428.91
620.128	400.04
620.328	410.7
620.527	343.85
620.726	349.67
620.925	374.46
621.124	375.05
621.323	369.23
621.522	353.54
621.721	321.57
621.92	342.88
622.119	398.3
622.318	342.11
622.517	333
622.715	351.99
622.914	294.06
623.113	366.91
623.312	269.26
623.511	345.02
623.71	346.18
623.909	337.07
624.107	413.6
624.306	323.51
624.505	324.48
624.704	327.97
624.902	335.72
625.101	387.06
625.3	358.58
625.499	325.25
625.697	326.8
625.896	325.45
626.095	366.91
626.293	306.46
626.492	300.45
626.69	360.32
626.889	304.33
627.088	376.01
627.286	323.12
627.485	326.03
627.683	317.89
627.882	358.97
628.08	293.48
628.279	306.85
628.477	386.28
628.676	305.1
628.874	355.48
629.073	335.13
629.271	288.05
629.469	350.05
629.668	302.97
629.866	342.11
630.065	304.33
630.263	339.59
630.461	288.44
630.66	323.32
630.858	338.04
631.056	354.51
631.254	365.55
631.453	296.77
631.651	350.63
631.849	321.57
632.047	342.11
632.245	326.8
632.444	339.78
632.642	319.83
632.84	339.59
633.038	330.1
633.236	323.32
633.434	293.28
633.632	289.8
633.83	316.15
634.028	339.01
634.227	336.88
634.425	372.72
634.623	338.04
634.821	310.53
635.019	316.53
635.216	293.67
635.414	338.04
635.612	328.55
635.81	314.79
636.008	375.43
636.206	319.05
636.404	361.1
636.602	295.03
636.8	310.33
636.997	333.39
637.195	352.96
637.393	330.1
637.591	362.26
637.789	321.38
637.986	316.15
638.184	324.87
638.382	353.35
638.58	358.19
638.777	384.35
638.975	361.68
639.173	317.7
639.37	324.67
639.568	330.29
639.765	343.66
639.963	291.35
640.161	377.95
640.358	331.45
640.556	332.62
640.753	298.13
640.951	304.33
641.148	338.04
641.346	292.7
641.543	302.39
641.741	332.03
641.938	285.34
642.136	317.89
642.333	291.35
642.531	313.63
642.728	351.99
642.925	339.98
643.123	271.78
643.32	322.93
643.517	317.5
643.715	306.85
643.912	308.01
644.109	324.28
644.306	320.8
644.504	299.1
644.701	308.2
644.898	339.59
645.095	299.87
645.293	312.66
645.49	343.66
645.687	353.35
645.884	336.3
646.081	271.78
646.278	298.32
646.475	311.88
646.672	285.53
646.87	345.21
647.067	286.7
647.264	310.53
647.461	278.17
647.658	263.06
647.855	351.8
648.052	305.49
648.249	251.63
648.446	284.95
648.642	271.59
648.839	275.85
649.036	255.89
649.233	242.72
649.43	256.47
649.627	258.22
649.824	267.9
650.021	255.7
650.217	249.89
650.414	261.7
650.611	278.17
650.808	271.59
651.004	293.48
651.201	310.33
651.398	348.31
651.595	275.27
651.791	273.14
651.988	309.95
652.185	281.85
652.381	290.77
652.578	237.29
652.775	320.22
652.971	241.55
653.168	287.28
653.364	308.01
653.561	228.38
653.757	240.2
653.954	270.04
654.15	259.57
654.347	299.1
654.543	268.29
654.74	221.6
654.936	244.07
655.133	282.44
655.329	295.22
655.525	289.41
655.722	301.03
655.918	249.5
656.115	299.87
656.311	214.24
656.507	242.91
656.704	214.43
656.9	249.3
657.096	219.27
657.292	220.05
657.489	284.37
657.685	255.12
657.881	228.19
658.077	242.72
658.273	247.17
658.47	311.3
658.666	260.74
658.862	254.34
659.058	240.2
659.254	292.9
659.45	255.89
659.646	269.65
659.842	266.55
660.038	292.12
660.234	254.54
660.43	247.56
660.626	304.52
660.822	282.44
661.018	269.45
661.214	258.6
661.41	233.22
661.606	292.7
661.802	298.9
661.998	269.07
662.194	235.16
662.39	280.3
662.586	282.24
662.781	293.09
662.977	279.53
663.173	278.75
663.369	279.53
663.564	280.89
663.76	287.47
663.956	258.02
664.152	305.68
664.347	217.53
664.543	252.99
664.739	263.45
664.934	230.12
665.13	226.25
665.326	315.95
665.521	276.04
665.717	250.27
665.912	218.89
666.108	211.91
666.304	250.08
666.499	217.92
666.695	210.36
666.89	247.56
667.086	289.22
667.281	280.11
667.477	303.75
667.672	261.51
667.867	254.34
668.063	277.59
668.258	231.48
668.454	274.3
668.649	307.43
668.844	253.37
669.04	275.46
669.235	220.24
669.43	217.34
669.626	218.3
669.821	229.93
670.016	221.99
670.211	233.03
670.407	230.7
670.602	262.48
670.797	239.23
670.992	263.45
671.187	221.02
671.382	282.44
671.578	249.5
671.773	243.69
671.968	193.12
672.163	245.04
672.358	260.93
672.553	230.7
672.748	205.13
672.943	290.18
673.138	227.22
673.333	280.11
673.528	244.85
673.723	243.69
673.918	233.42
674.113	195.25
674.308	299.1
674.503	270.81
674.698	264.22
674.892	257.44
675.087	269.26
675.282	244.27
675.477	227.02
675.672	245.04
675.867	239.81
676.061	225.67
676.256	208.23
676.451	224.12
676.646	253.57
676.84	221.6
677.035	209.2
677.23	191.96
677.424	262.29
677.619	292.7
677.814	278.95
678.008	277.98
678.203	173.36
678.397	194.47
678.592	232.06
678.787	284.57
678.981	242.52
679.176	272.17
679.37	251.05
679.565	180.72
679.759	257.83
679.954	241.94
680.148	289.99
680.342	269.07
680.537	249.11
680.731	219.85
680.926	242.52
681.12	237.68
681.314	232.25
681.509	244.07
681.703	232.84
681.897	258.99
682.092	229.15
682.286	212.1
682.48	274.3
682.674	261.9
682.869	222.95
683.063	237.49
683.257	304.52
683.451	211.72
683.645	269.84
683.839	258.99
684.034	233.61
684.228	279.92
684.422	192.92
684.616	182.07
684.81	254.34
685.004	230.12
685.198	207.07
685.392	272.17
685.586	220.82
685.78	255.7
685.974	268.29
686.168	255.7
686.362	289.99
686.556	218.3
686.75	190.02
686.944	240.39
687.138	265.39
687.331	184.79
687.525	236.32
687.719	168.12
687.913	240.78
688.107	191.18
688.301	185.76
688.494	241.75
688.688	191.18
688.882	170.45
689.076	150.69
689.269	194.47
689.463	249.69
689.657	197.57
689.85	180.52
690.044	193.12
690.238	216.95
690.431	199.51
690.625	187.69
690.818	228.57
691.012	204.74
691.205	220.82
691.399	165.61
691.593	190.41
691.786	267.9
691.98	246.01
692.173	268.29
692.366	255.5
692.56	251.24
692.753	272.94
692.947	213.07
693.14	280.3
693.333	275.46
693.527	219.85
693.72	244.65
693.914	218.5
694.107	251.44
694.3	241.75
694.493	241.36
694.687	262.29
694.88	222.37
695.073	289.41
695.266	274.49
695.46	267.13
695.653	306.27
695.846	289.8
696.039	204.35
696.232	243.49
696.425	289.02
696.618	291.73
696.812	286.89
697.005	325.83
697.198	359.74
697.391	284.37
697.584	305.49
697.777	336.88
697.97	323.12
698.163	322.73
698.356	310.92
698.549	394.61
698.742	338.62
698.935	305.68
699.127	347.53
699.32	298.32
699.513	310.53
699.706	327.58
699.899	348.89
700.092	298.9
700.285	337.07
700.477	298.71
700.67	370.4
700.863	375.24
701.056	437.82
701.248	397.52
701.441	388.8
701.634	351.6
701.826	456.23
702.019	339.78
702.212	385.51
702.404	333.39
702.597	352.96
702.79	389.96
702.982	381.25
703.175	393.84
703.367	411.66
703.56	385.9
703.752	452.74
703.945	425.61
704.137	427.55
704.33	449.06
704.522	443.05
704.715	453.13
704.907	447.31
705.1	463.2
705.292	442.47
705.484	477.34
705.677	498.27
705.869	484.51
706.061	497.3
706.254	514.74
706.446	497.3
706.638	468.04
706.831	509.89
707.023	478.7
707.215	572.09
707.407	527.91
707.599	533.53
707.792	550.58
707.984	551.74
708.176	585.84
708.368	537.21
708.56	550.77
708.752	560.66
708.944	558.72
709.136	570.54
709.329	553.68
709.521	654.62
709.713	621.69
709.905	608.12
710.097	627.5
710.289	595.72
710.481	598.05
710.672	624.21
710.864	606.96
711.056	665.09
711.248	630.02
711.44	665.47
711.632	655.01
711.824	664.7
712.016	720.5
712.207	668.57
712.399	680.78
712.591	759.63
712.783	720.5
712.975	731.15
713.166	682.91
713.358	701.7
713.55	753.63
713.741	749.95
713.933	745.88
714.125	739.48
714.316	728.05
714.508	810.2
714.7	799.74
714.891	771.26
715.083	816.79
715.274	791.6
715.466	790.83
715.657	812.53
715.849	764.48
716.04	780.95
716.232	719.53
716.423	804.39
716.615	743.36
716.806	755.18
716.998	760.6
717.189	754.02
717.381	674.97
717.572	650.36
717.763	731.15
717.955	719.53
718.146	668.38
718.337	649.2
718.528	628.27
718.72	604.44
718.911	663.92
719.102	647.26
719.293	656.75
719.485	673.03
719.676	645.32
719.867	626.14
720.058	627.69
720.249	643
720.44	659.47
720.632	663.34
720.823	723.4
721.014	795.48
721.205	746.65
721.396	809.23
721.587	863.29
721.778	866.58
721.969	832.68
722.16	890.03
722.351	883.63
722.542	991.74
722.733	985.93
722.924	922.58
723.115	943.11
723.305	944.66
723.496	957.06
723.687	884.02
723.878	890.03
724.069	895.84
724.26	921.41
724.45	889.25
724.641	867.94
724.832	939.63
725.023	910.37
725.213	886.93
725.404	837.71
725.595	894.87
725.785	899.33
725.976	949.89
726.167	932.46
726.357	927.23
726.548	991.16
726.739	932.84
726.929	982.83
727.12	995.62
727.31	1014.61
727.501	979.34
727.691	1005.5
727.882	998.33
728.072	1056.65
728.263	1019.06
728.453	1085.52
728.644	1007.05
728.834	1031.85
729.024	1011.31
729.215	1028.94
729.405	1024.87
729.596	1107.41
729.786	1108.96
729.976	1108.19
730.167	1145.58
730.357	1078.74
730.547	1106.25
730.737	1138.22
730.928	1135.31
731.118	1188.98
731.308	1125.04
731.498	1158.17
731.688	1219.01
731.879	1182.39
732.069	1219.4
732.259	1214.55
732.449	1262.8
732.639	1308.52
732.829	1331.77
733.019	1303.87
733.209	1376.14
733.399	1373.81
733.589	1431.36
733.779	1417.02
733.969	1406.75
734.159	1456.54
734.349	1454.8
734.539	1515.05
734.729	1491.42
734.919	1516.22
735.109	1529.39
735.299	1483.09
735.488	1518.15
735.678	1527.45
735.868	1537.72
736.058	1549.93
736.248	1494.91
736.437	1501.3
736.627	1483.86
736.817	1609.6
737.007	1538.11
737.196	1571.24
737.386	1538.5
737.576	1516.41
737.765	1581.32
737.955	1571.44
738.144	1648.35
738.334	1620.45
738.524	1584.22
738.713	1618.71
738.903	1631.3
739.092	1697.76
739.282	1628.98
739.471	1657.46
739.661	1619.68
739.85	1679.74
740.04	1691.75
740.229	1714.61
740.419	1709.96
740.608	1742.13
740.797	1704.35
740.987	1746.78
741.176	1735.93
741.365	1695.05
741.555	1710.93
741.744	1748.33
741.933	1725.08
742.123	1770.41
742.312	1789.98
742.501	1792.5
742.69	1793.28
742.88	1751.23
743.069	1846.75
743.258	1770.41
743.447	1862.83
743.636	1834.93
743.825	1801.99
744.014	1825.05
744.204	1869.03
744.393	1826.6
744.582	1867.29
744.771	1874.65
744.96	1824.86
745.149	1852.56
745.338	1812.65
745.527	1868.45
745.716	1828.73
745.905	1826.99
746.094	1857.41
746.283	1859.73
746.471	1877.56
746.66	1943.24
746.849	1883.95
747.038	1973.07
747.227	1895.19
747.416	1921.15
747.604	1898.29
747.793	1883.76
747.982	1888.79
748.171	1909.72
748.359	1915.34
748.548	1926.38
748.737	1882.79
748.926	1851.59
749.114	1838.81
749.303	1885.5
749.491	1877.36
749.68	1878.33
749.869	1907.39
750.057	1887.44
750.246	1841.13
750.434	1916.5
750.623	1892.28
750.811	1876.78
751	1914.37
751.188	1910.11
751.377	1882.79
751.565	1895.96
751.754	1826.6
751.942	1848.11
752.131	1876.78
752.319	1847.33
752.507	1818.66
752.696	1877.75
752.884	1890.34
753.072	1848.11
753.261	1839.39
753.449	1861.09
753.637	1838.42
753.825	1926.96
754.014	1882.59
754.202	1866.12
754.39	1906.42
754.578	1920.57
754.766	1861.28
754.955	1867.29
755.143	1934.13
755.331	1855.28
755.519	1869.81
755.707	1831.44
755.895	1815.17
756.083	1881.04
756.271	1844.23
756.459	1828.73
756.647	1873.87
756.835	1872.91
757.023	1814.98
757.211	1831.64
757.399	1810.33
757.587	1818.27
757.775	1785.14
757.963	1787.46
758.151	1826.79
758.339	1774.09
758.526	1798.7
758.714	1812.26
758.902	1735.35
759.09	1709.96
759.278	1560
759.465	1480.37
759.653	1300.96
759.841	1147.32
760.028	975.47
760.216	852.83
760.404	840.04
760.591	655.98
760.779	587.59
760.967	500.98
761.154	400.43
761.342	464.94
761.529	413.99
761.717	432.59
761.905	454.48
762.092	495.17
762.28	460.68
762.467	441.11
762.655	419.61
762.842	421.74
763.029	439.76
763.217	414.57
763.404	429.68
763.592	464.56
763.779	403.53
763.966	455.26
764.154	485.87
764.341	514.74
764.528	495.94
764.716	565.11
764.903	580.61
765.09	584.68
765.277	620.91
765.465	726.7
765.652	726.31
765.839	783.85
766.026	890.03
766.213	867.36
766.4	936.72
766.588	1087.07
766.775	1034.95
766.962	1132.79
767.149	1158.37
767.336	1244.2
767.523	1193.24
767.71	1276.75
767.897	1357.93
768.084	1408.49
768.271	1401.52
768.458	1417.79
768.645	1472.43
768.832	1433.1
769.019	1475.53
769.206	1502.66
769.392	1542.57
769.579	1614.25
769.766	1573.37
769.953	1567.17
770.14	1616.38
770.327	1560.78
770.513	1639.63
770.7	1696.21
770.887	1595.85
771.073	1658.82
771.26	1608.05
771.447	1599.14
771.634	1628.2
771.82	1681.87
772.007	1596.23
772.193	1628.78
772.38	1674.7
772.567	1622.97
772.753	1639.05
772.94	1683.03
773.126	1673.15
773.313	1636.73
773.499	1669.86
773.686	1687.49
773.872	1644.67
774.059	1660.56
774.245	1607.08
774.432	1626.85
774.618	1571.63
774.804	1642.54
774.991	1599.72
775.177	1649.32
775.363	1621.42
775.55	1648.93
775.736	1582.48
775.922	1591.59
776.109	1578.41
776.295	1619.87
776.481	1610.57
776.667	1667.34
776.853	1583.45
777.04	1586.94
777.226	1586.94
777.412	1649.9
777.598	1575.5
777.784	1587.52
777.97	1572.6
778.156	1588.68
778.342	1561.36
778.528	1577.83
778.715	1538.89
778.901	1593.52
779.087	1580.93
779.272	1570.27
779.458	1545.86
779.644	1547.99
779.83	1517.57
780.016	1639.83
780.202	1534.43
780.388	1500.14
780.574	1491.03
780.76	1507.5
780.946	1569.69
781.131	1513.12
781.317	1524.55
781.503	1499.75
781.689	1502.46
781.874	1599.72
782.06	1505.17
782.246	1556.52
782.432	1529.2
782.617	1515.64
782.803	1570.27
782.989	1470.11
783.174	1466.62
783.36	1443.76
783.545	1482.12
783.731	1475.53
783.916	1455.38
784.102	1470.69
784.288	1460.03
784.473	1446.86
784.659	1465.46
784.844	1492.77
785.029	1440.46
785.215	1439.49
785.4	1406.56
785.586	1512.15
785.771	1419.15
785.956	1447.63
786.142	1442.98
786.327	1429.22
786.512	1423.22
786.698	1413.53
786.883	1371.49
787.068	1417.21
787.254	1416.05
787.439	1382.34
787.624	1403.84
787.809	1395.32
787.994	1376.72
788.18	1447.05
788.365	1372.84
788.55	1364.32
788.735	1387.38
788.92	1381.95
789.105	1366.06
789.29	1383.69
789.475	1324.6
789.66	1345.72
789.845	1295.93
790.03	1322.08
790.215	1399
790.4	1354.24
790.585	1359.67
790.77	1325.57
790.955	1252.33
791.14	1325.38
791.325	1376.53
791.51	1259.31
791.695	1324.99
791.879	1268.03
792.064	1268.8
792.249	1374.2
792.434	1274.42
792.618	1257.76
792.803	1344.17
792.988	1290.5
793.173	1333.13
793.357	1333.13
793.542	1260.08
793.727	1302.13
793.911	1334.68
794.096	1310.65
794.281	1320.73
794.465	1386.21
794.65	1313.56
794.834	1331.58
795.019	1344.56
795.203	1341.65
795.388	1361.41
795.572	1361.61
795.757	1351.53
795.941	1345.72
796.126	1325.76
796.31	1282.17
796.494	1300.58
796.679	1311.04
796.863	1293.21
797.048	1341.65
797.232	1331.96
797.416	1306
797.601	1287.4
797.785	1389.12
797.969	1372.84
798.153	1309.1
798.338	1350.76
798.522	1374.39
798.706	1343.98
798.89	1338.74
799.074	1430.77
799.258	1352.89
799.443	1328.67
799.627	1345.33
799.811	1397.06
799.995	1327.7
800.179	1326.93
800.363	1309.68
800.547	1345.91
800.731	1359.67
800.915	1280.43
801.099	1327.51
801.283	1306.58
801.467	1339.13
801.651	1305.81
801.835	1355.99
802.019	1318.79
802.202	1346.49
802.386	1296.51
802.57	1306.2
802.754	1311.62
802.938	1286.43
803.121	1306.39
803.305	1379.82
803.489	1324.41
803.673	1295.54
803.856	1321.31
804.04	1326.54
804.224	1334.68
804.407	1306
804.591	1277.52
804.775	1295.54
804.958	1342.04
805.142	1412.95
805.326	1314.33
805.509	1366.84
805.693	1371.29
805.876	1390.09
806.06	1349.4
806.243	1353.08
806.427	1397.06
806.61	1379.24
806.794	1321.7
806.977	1407.72
807.16	1309.49
807.344	1368.58
807.527	1324.41
807.71	1324.8
807.894	1342.62
808.077	1372.65
808.26	1321.7
808.444	1335.06
808.627	1366.45
808.81	1315.5
808.993	1296.9
809.177	1273.45
809.36	1308.33
809.543	1310.07
809.726	1229.28
809.909	1272.29
810.092	1235.67
810.276	1234.12
810.459	1242.65
810.642	1240.32
810.825	1237.22
811.008	1218.82
811.191	1176
811.374	1170.18
811.557	1191.88
811.74	1245.94
811.923	1172.9
812.106	1175.03
812.289	1123.69
812.472	1143.25
812.654	1207.38
812.837	1144.61
813.02	1075.44
813.203	1093.07
813.386	1016.16
813.569	1020.61
813.751	1010.15
813.934	1033.4
814.117	1016.35
814.3	1020.81
814.482	947.57
814.665	946.99
814.848	968.69
815.03	897.58
815.213	902.43
815.396	882.28
815.578	914.24
815.761	866.97
815.943	922.58
816.126	847.6
816.309	853.02
816.491	803.81
816.674	766.22
816.856	826.86
817.039	794.7
817.221	888.48
817.403	815.43
817.586	825.51
817.768	855.93
817.951	807.3
818.133	764.09
818.315	782.11
818.498	808.46
818.68	876.08
818.862	844.88
819.045	832.29
819.227	871.43
819.409	812.91
819.591	877.63
819.774	818.53
819.956	790.05
820.138	881.11
820.32	858.64
820.502	869.3
820.684	918.7
820.866	911.14
821.048	946.02
821.231	931.29
821.413	924.71
821.595	923.93
821.777	935.75
821.959	933.43
822.141	982.44
822.323	883.63
822.505	861.35
822.686	836.55
822.868	821.05
823.05	720.5
823.232	731.15
823.414	716.24
823.596	744.33
823.778	718.17
823.96	753.63
824.141	762.15
824.323	746.85
824.505	769.71
824.687	813.69
824.868	825.51
825.05	892.35
825.232	924.71
825.413	1003.95
825.595	941.18
825.777	868.91
825.958	942.53
826.14	898.55
826.321	954.16
826.503	888.09
826.685	931.29
826.866	920.44
827.048	927.42
827.229	883.05
827.411	833.26
827.592	824.73
827.773	828.22
827.955	814.27
828.136	858.64
828.318	794.7
828.499	824.73
828.68	795.48
828.862	802.07
829.043	867.36
829.224	842.17
829.406	803.81
829.587	827.64
829.768	786.18
829.949	822.02
830.131	817.18
830.312	866.39
830.493	815.82
830.674	814.66
830.855	828.8
831.036	789.47
831.218	829.77
831.399	869.49
831.58	810.98
831.761	832.48
831.942	843.91
832.123	834.81
832.304	802.26
832.485	770.68
832.666	844.69
832.847	834.61
833.028	830.35
833.209	810.78
833.389	827.83
833.57	776.68
833.751	787.15
833.932	831.13
834.113	810.59
834.294	783.85
834.475	828.03
834.655	868.13
834.836	885.38
835.017	841.59
835.198	774.17
835.378	830.35
835.559	860.77
835.74	843.53
835.92	826.09
836.101	808.46
836.281	830.74
836.462	854.38
836.643	884.41
836.823	875.5
837.004	855.54
837.184	918.51
837.365	884.41
837.545	880.92
837.726	861.74
837.906	900.29
838.087	852.25
838.267	872.4
838.448	828.8
838.628	863.48
838.808	830.35
838.989	942.34
839.169	837.52
839.349	876.85
839.53	880.15
839.71	876.08
839.89	845.85
840.07	902.81
840.251	800.9
840.431	882.28
840.611	854.38
840.791	810.01
840.971	880.34
841.151	846.24
841.332	832.29
841.512	896.81
841.692	836.75
841.872	857.86
842.052	855.15
842.232	865.42
842.412	806.13
842.592	830.35
842.772	839.85
842.952	831.13
843.132	819.5
843.312	848.18
843.492	805.75
843.672	847.6
843.851	794.32
844.031	830.93
844.211	836.94
844.391	830.35
844.571	844.69
844.751	846.43
844.93	841.2
845.11	826.09
845.29	861.16
845.47	866.2
845.649	828.61
845.829	843.53
846.009	780.56
846.188	827.64
846.368	837.52
846.547	824.15
846.727	854.38
846.907	798.77
847.086	866.78
847.266	839.07
847.445	815.82
847.625	796.06
847.804	805.55
847.984	816.4
848.163	790.63
848.343	807.49
848.522	817.76
848.701	831.71
848.881	765.64
849.06	803.23
849.239	832.68
849.419	813.88
849.598	758.86
849.777	794.51
849.957	785.02
850.136	735.22
850.315	739.1
850.494	704.61
850.674	714.88
850.853	804
851.032	750.14
851.211	793.35
851.39	771.07
851.569	739.87
851.748	714.3
851.927	770.87
852.107	757.5
852.286	728.83
852.465	687.56
852.644	745.49
852.823	766.03
853.002	767
853.181	758.86
853.359	761.96
853.538	713.52
853.717	761.96
853.896	717.01
854.075	638.15
854.254	673.03
854.433	626.72
854.611	701.51
854.79	627.89
854.969	664.7
855.148	694.54
855.327	624.59
855.505	701.9
855.684	669.54
855.863	675.55
856.041	676.32
856.22	698.41
856.399	641.25
856.577	752.08
856.756	708.68
856.934	797.03
857.113	807.3
857.291	712.75
857.47	693.57
857.648	730.77
857.827	760.99
858.005	747.23
858.184	698.41
858.362	752.85
858.541	730.96
858.719	679.42
858.898	728.83
859.076	693.57
859.254	787.92
859.433	694.34
859.611	703.06
859.789	661.99
859.967	731.93
860.146	757.31
860.324	698.8
860.502	692.99
860.68	657.72
860.859	673.03
861.037	675.55
861.215	682.91
861.393	721.47
861.571	677.1
861.749	661.6
861.927	704.22
862.105	704.61
862.283	685.43
862.461	659.47
862.639	658.69
862.817	660.24
862.995	700.35
863.173	648.62
863.351	694.34
863.529	696.47
863.707	703.25
863.885	667.99
864.063	608.71
864.241	653.65
864.418	717.79
864.596	663.73
864.774	601.92
864.952	681.17
865.129	682.72
865.307	645.52
865.485	624.98
865.663	696.67
865.84	639.51
866.018	674.58
866.196	554.26
866.373	605.02
866.551	561.24
866.728	512.22
866.906	551.55
867.084	569.96
867.261	595.53
867.439	591.66
867.616	642.03
867.794	617.23
867.971	610.84
868.149	581.97
868.326	663.54
868.503	634.28
868.681	655.01
868.858	585.65
869.035	597.86
869.213	608.12
869.39	595.92
869.567	682.33
869.745	570.92
869.922	633.89
870.099	667.02
870.276	638.93
870.454	619.75
870.631	632.54
870.808	586.23
870.985	654.24
871.162	675.74
871.339	632.54
871.517	575.38
871.694	581.19
871.871	593.4
872.048	627.31
872.225	574.41
872.402	643
872.579	586.04
872.756	596.31
872.933	553.68
873.11	583.13
873.287	606.96
873.463	562.59
873.64	548.26
873.817	609.87
873.994	555.42
874.171	584.87
874.348	565.11
874.524	540.89
874.701	588.56
874.878	523.84
875.055	578.29
875.231	581
875.408	574.02
875.585	545.93
875.762	600.18
875.938	582.36
876.115	560.46
876.291	568.79
876.468	571.7
876.645	524.81
876.821	554.26
876.998	545.74
877.174	555.42
877.351	546.32
877.527	553.68
877.704	577.51
877.88	562.4
878.057	539.54
878.233	595.34
878.409	574.02
878.586	536.05
878.762	538.76
878.938	543.8
879.115	495.75
879.291	551.16
879.467	494.2
879.644	500.01
879.82	550
879.996	496.14
880.172	457.2
880.349	550.39
880.525	540.51
880.701	499.24
880.877	521.13
881.053	517.64
881.229	532.18
881.405	569.76
881.581	496.33
881.757	520.94
881.933	543.8
882.109	537.02
882.285	530.04
882.461	475.02
882.637	524.23
882.813	489.36
882.989	499.82
883.165	536.24
883.341	485.87
883.517	559.11
883.693	531.21
883.869	546.32
884.044	490.71
884.22	538.18
884.396	551.16
884.572	531.4
884.747	533.73
884.923	514.16
885.099	573.06
885.275	552.32
885.45	518.42
885.626	498.66
885.801	498.27
885.977	483.93
886.153	467.85
886.328	547.29
886.504	497.88
886.679	528.49
886.855	480.06
887.03	509.89
887.206	558.72
887.381	512.61
887.557	511.06
887.732	533.53
887.908	536.05
888.083	564.14
888.258	498.46
888.434	498.27
888.609	506.21
888.784	544.19
888.96	480.64
889.135	491.68
889.31	471.92
889.485	508.73
889.661	485.29
889.836	532.76
890.011	546.13
890.186	501.95
890.361	485.09
890.537	506.6
890.712	518.23
890.887	518.42
891.062	519.19
891.237	562.98
891.412	506.02
891.587	503.31
891.762	536.44
891.937	538.96
892.112	493.04
892.287	482.19
892.462	488
892.637	474.63
892.812	443.44
892.987	483.35
893.161	424.45
893.336	462.43
893.511	490.33
893.686	469.59
893.861	465.91
894.035	447.9
894.21	460.68
894.385	416.12
894.56	449.06
894.734	440.53
894.909	445.38
895.084	439.18
895.258	419.61
895.433	434.72
895.608	403.91
895.782	381.63
895.957	404.3
896.131	386.28
896.306	339.98
896.48	372.53
896.655	340.95
896.829	313.05
897.004	312.47
897.178	361.1
897.353	316.92
897.527	373.69
897.701	361.48
897.876	290.38
898.05	387.83
898.224	341.92
898.399	400.23
898.573	350.63
898.747	246.2
898.921	336.88
899.096	273.14
899.27	279.92
899.444	276.62
899.618	307.62
899.792	285.34
899.967	293.09
900.141	327.97
900.315	278.95
900.489	313.43
900.663	318.67
900.837	295.61
901.011	264.22
901.185	349.86
901.359	317.31
901.533	314.21
901.707	292.7
901.881	317.89
902.055	272.55
902.229	293.87
902.403	351.8
902.576	329.32
902.75	297.35
902.924	385.9
903.098	328.16
903.272	363.62
903.446	380.47
903.619	339.01
903.793	404.69
903.967	332.23
904.14	379.11
904.314	391.13
904.488	362.65
904.661	394.42
904.835	380.08
905.009	410.89
905.182	426.97
905.356	406.43
905.529	401.59
905.703	368.27
905.876	336.49
906.05	337.85
906.223	337.27
906.397	280.3
906.57	282.44
906.744	284.76
906.917	309.56
907.09	302.2
907.264	303.36
907.437	280.89
907.61	259.19
907.784	291.15
907.957	281.08
908.13	264.61
908.304	338.04
908.477	261.7
908.65	271.78
908.823	249.69
908.996	346.76
909.17	262.67
909.343	272.36
909.516	288.05
909.689	258.22
909.862	243.88
910.035	268.87
910.208	249.5
910.381	236.32
910.554	338.82
910.727	251.24
910.9	240.97
911.073	232.84
911.246	296
911.419	290.96
911.592	288.83
911.765	241.55
911.938	224.31
912.11	266.16
912.283	288.25
912.456	293.87
912.629	285.92
912.802	249.69
912.974	234.19
913.147	224.89
913.32	179.94
913.493	217.14
913.665	243.88
913.838	223.34
914.01	217.92
914.183	238.45
914.356	185.76
914.528	250.85
914.701	288.63
914.873	270.23
915.046	218.69
915.218	203
915.391	190.79
915.563	185.76
915.736	240.59
915.908	255.12
916.081	231.48
916.253	196.22
916.425	206.87
916.598	204.74
916.77	225.09
916.942	211.33
917.115	136.74
917.287	220.82
917.459	218.5
917.632	173.94
917.804	141.77
917.976	211.91
918.148	215.4
918.32	213.46
918.493	272.55
918.665	266.94
918.837	221.99
919.009	263.84
919.181	267.71
919.353	232.45
919.525	227.41
919.697	231.29
919.869	231.29
920.041	272.94
920.213	322.15
920.385	254.54
920.557	217.53
920.729	241.17
920.901	253.18
921.073	249.89
921.244	231.87
921.416	245.24
921.588	240.59
921.76	211.91
921.932	309.56
922.103	252.99
922.275	255.5
922.447	246.4
922.619	166.57
922.79	242.72
922.962	222.76
923.134	261.12
923.305	206.1
923.477	187.5
923.648	190.99
923.82	215.98
923.991	177.23
924.163	183.24
924.335	187.11
924.506	203
924.677	235.74
924.849	172.58
925.02	204.16
925.192	254.34
925.363	219.27
925.535	223.73
925.706	182.46
925.877	236.32
926.049	188.86
926.22	200.67
926.391	227.41
926.562	204.94
926.734	179.36
926.905	213.46
927.076	161.73
927.247	180.52
927.419	143.32
927.59	160.18
927.761	186.92
927.932	135.96
928.103	217.53
928.274	140.03
928.445	114.07
928.616	165.61
928.787	156.5
928.958	180.52
929.129	162.12
929.3	141.97
929.471	107.09
929.642	77.84
929.813	48.39
929.984	148.75
930.155	71.25
930.326	128.41
930.496	79.39
930.667	30.95
930.838	113.68
931.009	53.81
931.18	71.25
931.35	88.3
931.521	107.87
931.692	54.59
931.863	16.61
932.033	35.99
932.204	67.57
932.374	71.64
932.545	36.18
932.716	98.96
932.886	82.49
933.057	-11.48
933.227	14.1
933.398	106.32
933.568	43.16
933.739	-25.82
933.909	11.19
934.08	48.58
934.25	-15.16
934.421	31.34
934.591	61.18
934.761	-20.97
934.932	0.73
935.102	6.35
935.272	-9.15
935.443	19.33
935.613	9.64
935.783	15.26
935.953	-6.05
936.123	123.95
936.294	0.15
936.464	-14
936.634	-23.69
936.804	-15.16
936.974	-6.25
937.144	23.39
937.314	30.95
937.484	1.5
937.655	-4.12
937.825	56.53
937.995	-1.4
938.165	51.88
938.334	-3.34
938.504	43.74
938.674	6.54
938.844	-18.45
939.014	45.09
939.184	36.76
939.354	83.46
939.524	78.23
939.694	2.47
939.863	7.7
940.033	99.54
940.203	81.91
940.373	76.29
940.542	66.02
940.712	28.63
940.882	80.74
941.051	74.74
941.221	68.15
941.391	68.15
941.56	26.3
941.73	36.18
941.899	103.99
942.069	33.86
942.238	67.18
942.408	48
942.577	73.58
942.747	27.27
942.916	10.03
943.086	21.26
943.255	61.37
943.425	63.31
943.594	19.13
943.763	-28.34
943.933	20.1
944.102	-34.54
944.271	36.96
944.441	31.14
944.61	-3.34
944.779	18.36
944.948	100.31
945.117	9.83
945.287	10.41
945.456	-64.95
945.625	5.96
945.794	52.84
945.963	35.21
946.132	34.24
946.301	2.08
946.47	90.63
946.639	-34.92
946.808	11.96
946.977	60.01
947.146	69.89
947.315	0.53
947.484	64.47
947.653	6.35
947.822	11.77
947.991	-26.2
948.16	86.94
948.329	58.27
948.498	44.51
948.666	16.42
948.835	46.84
949.004	-7.6
949.173	-5.67
949.341	49.94
949.51	34.63
949.679	55.94
949.847	48
950.016	101.48
950.185	94.89
950.353	3.63
950.522	12.55
950.69	78.23
950.859	-12.25
951.028	61.76
951.196	60.21
951.365	3.05
951.533	39.86
951.701	36.38
951.87	48
952.038	-2.37
952.207	36.96
952.375	94.89
952.543	16.81
952.712	30.76
952.88	26.3
953.048	68.54
953.217	19.71
953.385	34.83
953.553	69.31
953.721	13.71
953.89	11.38
954.058	17.2
954.226	16.42
954.394	46.84
954.562	7.7
954.73	42.58
954.898	28.82
955.067	72.22
955.235	4.8
955.403	68.73
955.571	93.34
955.739	49.16
955.907	39.28
956.075	30.56
956.243	-1.4
956.41	60.79
956.578	-7.02
956.746	-4.12
956.914	21.46
957.082	46.84
957.25	41.41
957.418	1.7
957.585	30.76
957.753	57.88
957.921	-11.29
958.089	35.41
958.256	27.27
958.424	61.76
958.592	55.94
958.759	-9.54
958.927	35.79
959.095	24.75
959.262	36.18
959.43	54.01
959.597	2.28
959.765	8.86
959.932	4.02
960.1	42.38
960.267	7.7
960.435	39.09
960.602	76.48
960.77	23.2
960.937	-9.54
961.104	31.34
961.272	9.83
961.439	4.8
961.606	21.07
961.774	80.94
961.941	29.4
962.108	23.01
962.275	41.8
962.443	56.91
962.61	48
962.777	98.96
962.944	77.45
963.111	36.76
963.278	70.48
963.446	46.64
963.613	57.69
963.78	56.72
963.947	65.44
964.114	53.62
964.281	120.07
964.448	58.85
964.615	29.21
964.782	62.92
964.949	67.96
965.116	48.78
965.282	77.64
965.449	22.23
965.616	24.17
965.783	51.49
965.95	46.84
966.117	16.61
966.283	56.33
966.45	40.06
966.617	41.41
966.784	69.31
966.95	71.44
967.117	98.96
967.284	-3.92
967.45	6.35
967.617	83.07
967.784	57.11
967.95	78.03
968.117	65.05
968.283	88.3
968.45	131.89
968.616	52.07
968.783	91.59
968.949	64.66
969.116	86.36
969.282	54.78
969.449	60.98
969.615	57.88
969.781	16.81
969.948	50.91
970.114	9.06
970.28	90.63
970.447	40.06
970.613	98.76
970.779	48.58
970.945	46.06
971.112	44.9
971.278	43.35
971.444	56.72
971.61	84.04
971.776	31.53
971.942	60.98
972.108	51.1
972.275	43.54
972.441	61.76
972.607	104.38
972.773	25.33
972.939	71.25
973.105	53.62
973.271	26.11
973.437	36.76
973.602	14.29
973.768	76.68
973.934	51.29
974.1	69.31
974.266	-23.88
974.432	65.63
974.598	32.69
974.763	83.26
974.929	38.89
975.095	74.54
975.261	34.05
975.426	25.72
975.592	39.48
975.758	81.71
975.923	5.76
976.089	53.04
976.255	76.48
976.42	53.81
976.586	50.52
976.751	47.61
976.917	133.25
977.082	74.35
977.248	16.03
977.413	9.45
977.579	43.54
977.744	50.71
977.91	57.88
978.075	31.34
978.24	48.58
978.406	40.06
978.571	32.11
978.736	54.59
978.902	62.73
979.067	16.61
979.232	-9.54
979.397	39.48
979.563	106.71
979.728	6.54
979.893	52.07
980.058	46.84
980.223	76.87
980.388	64.08
980.554	42.58
980.719	13.71
980.884	28.04
981.049	80.36
981.214	26.11
981.379	71.06
981.544	35.21
981.709	42.77
981.874	46.64
982.039	39.09
982.204	59.63
982.368	41.22
982.533	33.08
982.698	96.44
982.863	57.11
983.028	22.81
983.193	71.44
983.357	29.21
983.522	43.93
983.687	38.51
983.852	21.07
984.016	27.85
984.181	55.36
984.346	41.8
984.51	87.14
984.675	42.77
984.839	66.99
985.004	51.88
985.168	92.37
985.333	53.81
985.498	18.55
985.662	58.85
985.827	64.47
985.991	35.6
986.155	21.85
986.32	60.01
986.484	96.44
986.649	52.07
986.813	-2.95
986.977	46.45
987.142	60.59
987.306	11.58
987.47	4.6
987.634	35.79
987.799	66.02
987.963	58.27
988.127	61.56
988.291	111.36
988.455	40.64
988.62	20.88
988.784	43.35
988.948	55.75
989.112	44.9
989.276	38.89
989.44	29.21
989.604	16.61
989.768	35.41
989.932	112.91
990.096	29.79
990.26	13.9
990.424	-23.1
990.588	32.5
990.752	81.33
990.915	66.02
991.079	35.6
991.243	32.89
991.407	50.91
991.571	17.97
991.734	46.64
991.898	57.3
992.062	122.21
992.226	42.19
992.389	10.22
992.553	-8.96
992.717	-2.37
992.88	22.62
993.044	37.34
993.207	35.99
993.371	54.98
993.535	41.8
993.698	34.05
993.862	67.18
994.025	81.33
994.189	64.28
994.352	56.91
994.515	51.49
994.679	64.66
994.842	27.85
995.006	67.76
995.169	10.22
995.332	6.73
995.496	64.47
995.659	-3.54
995.822	28.82
995.985	43.16
996.149	72.22
996.312	23.98
996.475	90.63
996.638	48.58
996.801	68.93
996.964	73.77
997.128	29.98
997.291	30.95
997.454	47.81
997.617	0.34
997.78	75.51
997.943	5.18
998.106	63.11
998.269	32.89
998.432	45.68
998.595	42.58
998.758	9.06
998.92	12.16
999.083	-14.97
999.246	20.3
999.409	12.35
999.572	-31.44
999.735	12.55
999.897	43.93
1000.06	14.48
1000.223	15.45
1000.386	78.23
1000.548	44.71
1000.711	61.56
1000.874	44.51
1001.036	-12.84
1001.199	50.91
1001.361	1.5
1001.524	32.89
1001.687	75.51
1001.849	23.59
1002.012	46.26
1002.174	48.39
1002.337	41.22
1002.499	23.39
1002.661	69.12
1002.824	13.13
1002.986	23.01
1003.149	20.3
1003.311	-0.44
1003.473	110.97
1003.636	2.08
1003.798	50.91
1003.96	39.67
1004.123	40.64
1004.285	41.41
1004.447	13.13
1004.609	30.37
1004.771	87.72
1004.933	-20.59
1005.096	-9.35
1005.258	-13.42
1005.42	34.44
1005.582	71.83
1005.744	23.98
1005.906	-23.1
1006.068	41.41
1006.23	11
1006.392	-11.48
1006.554	10.8
1006.716	59.24
1006.878	45.29
1007.04	-3.15
1007.202	12.74
1007.363	53.62
1007.525	54.2
1007.687	24.56
1007.849	71.06
1008.011	-2.95
1008.172	3.63
1008.334	26.88
1008.496	26.3
1008.658	-10.7
1008.819	12.35
1008.981	-22.91
1009.143	10.22
1009.304	-13.03
1009.466	27.66
1009.627	66.79
1009.789	137.32
1009.95	46.84
1010.112	-5.09
1010.273	18.75
1010.435	9.83
1010.596	1.89
1010.758	19.71
1010.919	26.11
1011.081	-1.21
1011.242	27.66
1011.403	39.48
1011.565	21.46
1011.726	16.61
1011.887	12.35
1012.049	-6.83
1012.21	46.06
1012.371	35.79
1012.532	-41.51
1012.693	10.41
1012.855	-16.9
1013.016	38.51
1013.177	48
1013.338	10.8
1013.499	64.47
1013.66	66.79
1013.821	33.66
1013.982	36.57
1014.143	4.21
1014.304	5.96
1014.465	41.03
1014.626	29.79
1014.787	13.71
1014.948	102.44
1015.109	-76.58
1015.27	66.79
1015.431	6.15
1015.592	1.89
1015.752	37.93
1015.913	10.22
1016.074	28.82
1016.235	9.64
1016.395	15.06
1016.556	22.62
1016.717	8.48
1016.877	57.49
1017.038	10.03
1017.199	29.98
1017.359	-1.21
1017.52	37.15
1017.681	13.32
1017.841	8.28
1018.002	11.77
1018.162	3.44
1018.323	70.09
1018.483	2.08
1018.644	2.08
1018.804	-35.31
1018.964	-27.75
1019.125	-24.65
1019.285	38.51
1019.446	14.87
1019.606	-30.08
1019.766	-69.02
1019.926	18.75
1020.087	53.43
1020.247	-7.41
1020.407	33.08
1020.567	31.53
1020.728	-6.05
1020.888	-11.48
1021.048	-10.51
1021.208	-16.71
1021.368	-6.44
1021.528	41.61
1021.688	26.49
1021.848	24.56
1022.008	15.84
1022.168	-10.32
1022.328	-2.76
1022.488	28.63
1022.648	-0.82
1022.808	51.68
1022.968	25.53
1023.128	-31.05
1023.288	-20
1023.448	-1.6
1023.608	-0.24
1023.767	57.69
1023.927	-10.9
1024.087	-16.13
1024.247	-18.84
1024.406	-24.46
1024.566	-0.24
1024.726	-26.2
1024.885	24.36
1025.045	7.9
1025.205	-8.38
1025.364	-5.47
1025.524	40.83
1025.683	16.23
1025.843	26.11
1026.003	13.51
1026.162	41.61
1026.321	33.47
1026.481	18.94
1026.64	-4.31
1026.8	0.34
1026.959	-5.86
1027.119	7.9
1027.278	0.92
1027.437	-27.56
1027.597	4.6
1027.756	13.71
1027.915	12.35
1028.074	10.03
1028.234	-11.29
1028.393	-0.82
1028.552	-4.31
1028.711	-49.26
1028.87	7.7
1029.03	-22.91
1029.189	0.15
1029.348	-54.49
1029.507	-24.27
1029.666	8.28
1029.825	-47.32
1029.984	-12.84
1030.143	39.67
1030.302	-7.6
1030.461	-17.87
1030.62	4.41
1030.779	32.31
1030.938	-27.95
1031.097	-28.92
1031.255	26.69
1031.414	33.28
1031.573	52.65
1031.732	-32.02
1031.891	-1.99
1032.049	35.99
1032.208	8.09
1032.367	-14.39
1032.525	-10.12
1032.684	-26.98
1032.843	8.28
1033.001	-41.7
1033.16	143.71
1033.319	23.78
1033.477	25.33
1033.636	8.09
1033.794	-61.08
1033.953	27.08
1034.111	16.61
1034.27	-31.05
1034.428	15.84
1034.587	-8.19
1034.745	24.17
1034.903	20.88
1035.062	13.71
1035.22	-28.92
1035.378	25.91
1035.537	-32.99
1035.695	14.87
1035.853	-26.01
1036.011	30.56
1036.17	43.16
1036.328	-28.14
1036.486	35.41
1036.644	22.23
1036.802	-66.31
1036.96	-12.06
1037.119	-12.84
1037.277	-11.29
1037.435	-65.34
1037.593	-18.65
1037.751	-9.93
1037.909	29.79
1038.067	29.79
