Data from oakcork_FLMT105791__179__17-31-52-057.txt Node

Date: Mon Mar 20 17:31:52 GMT 2023
User: antho
Spectrometer: FLMT10579
Trigger mode: 0
Integration Time (sec): 1.000000E-1
Scans to average: 10
Electric dark correction enabled: true
Nonlinearity correction enabled: false
Boxcar width: 0
XAxis mode: Wavelengths
Number of Pixels in Spectrum: 3648
>>>>>Begin Spectral Data<<<<<
345.248	-122.22
345.464	-122.22
345.681	-122.22
345.898	-153.03
346.114	-152.06
346.331	-20.5
346.548	28.71
346.764	21.54
346.981	-16.63
347.197	-6.36
347.414	32.19
347.631	-37.55
347.847	48.28
348.064	-12.95
348.28	4.49
348.497	-39.1
348.713	-2.1
348.93	45.76
349.146	29.48
349.363	1.78
349.579	38.2
349.796	-18.37
350.012	25.8
350.229	14.37
350.445	27.16
350.661	-12.56
350.878	8.36
351.094	29.48
351.311	9.53
351.527	29.68
351.743	1.78
351.96	33.74
352.176	24.06
352.392	44.01
352.609	33.94
352.825	4.68
353.041	5.84
353.257	-11.21
353.474	2.16
353.69	25.22
353.906	-3.65
354.122	-9.46
354.339	43.43
354.555	-10.04
354.771	-1.71
354.987	71.72
355.203	70.94
355.42	1
355.636	3.52
355.852	1
356.068	-0.16
356.284	-7.52
356.5	78.69
356.716	35.68
356.932	44.98
357.148	17.66
357.364	23.67
357.58	50.21
357.796	40.33
358.012	81.79
358.228	31.81
358.444	-35.42
358.66	74.04
358.876	4.1
359.092	22.31
359.308	31.81
359.524	48.28
359.74	17.66
359.956	13.01
360.172	16.11
360.388	32
360.604	-7.33
360.819	88.19
361.035	9.33
361.251	35.29
361.467	-9.66
361.683	49.24
361.898	16.69
362.114	58.74
362.33	42.66
362.546	68.62
362.762	6.04
362.977	27.54
363.193	7.01
363.409	39.36
363.624	-9.66
363.84	-9.46
364.056	-4.81
364.271	17.66
364.487	51.76
364.703	-9.66
364.918	8.75
365.134	-8.3
365.35	15.92
365.565	118.41
365.781	15.53
365.996	76.56
366.212	56.61
366.427	34.33
366.643	-2.49
366.858	-10.82
367.074	-0.55
367.289	54.48
367.505	101.75
367.72	2.55
367.936	8.36
368.151	56.8
368.367	46.34
368.582	20.57
368.798	0.61
369.013	62.42
369.228	29.68
369.444	29.48
369.659	63.78
369.874	57.58
370.09	67.65
370.305	-19.54
370.52	-15.47
370.736	74.82
370.951	13.98
371.166	70.17
371.381	63.78
371.597	44.79
371.812	-2.49
372.027	15.73
372.242	25.61
372.458	75.79
372.673	46.73
372.888	26.58
373.103	56.03
373.318	97.29
373.533	33.16
373.749	45.37
373.964	-16.24
374.179	79.08
374.394	0.81
374.609	62.61
374.824	-1.91
375.039	79.66
375.254	18.63
375.469	81.79
375.684	44.21
375.899	40.14
376.114	34.91
376.329	31.03
376.544	87.61
376.759	53.31
376.974	20.18
377.189	46.73
377.404	22.31
377.619	50.02
377.834	-39.69
378.049	-14.69
378.264	-20.31
378.478	10.88
378.693	-14.11
378.908	53.12
379.123	32.39
379.338	71.72
379.553	46.73
379.767	15.14
379.982	33.74
380.197	63.39
380.412	22.12
380.626	43.04
380.841	116.09
381.056	51.76
381.271	97.68
381.485	3.13
381.7	-2.49
381.915	33.36
382.129	24.64
382.344	44.4
382.559	28.9
382.773	44.59
382.988	-19.73
383.202	26.38
383.417	12.04
383.632	114.34
383.846	42.27
384.061	39.17
384.275	0.03
384.49	58.54
384.704	44.79
384.919	49.05
385.133	43.63
385.348	61.45
385.562	0.23
385.777	43.43
385.991	40.53
386.206	32.58
386.42	-12.56
386.634	84.31
386.849	66.68
387.063	65.33
387.277	9.33
387.492	19.02
387.706	6.62
387.92	17.86
388.135	78.89
388.349	38.59
388.563	30.06
388.778	31.61
388.992	44.79
389.206	58.35
389.42	81.02
389.635	37.62
389.849	60.09
390.063	78.89
390.277	45.56
390.491	98.84
390.706	59.51
390.92	59.32
391.134	41.49
391.348	57.58
391.562	18.44
391.776	35.49
391.99	16.31
392.205	85.47
392.419	17.47
392.633	34.71
392.847	91.87
393.061	10.88
393.275	93.03
393.489	59.13
393.703	47.5
393.917	76.17
394.131	23.28
394.345	57.38
394.559	81.02
394.773	51.18
394.986	56.61
395.2	46.73
395.414	58.74
395.628	22.51
395.842	28.13
396.056	43.24
396.27	-5.78
396.484	77.53
396.697	53.12
396.911	68.04
397.125	61.64
397.339	56.61
397.553	56.22
397.766	106.4
397.98	50.79
398.194	90.71
398.408	31.03
398.621	58.54
398.835	66.68
399.049	41.11
399.262	88.38
399.476	99.81
399.69	90.9
399.903	115.89
400.117	65.91
400.331	113.37
400.544	21.93
400.758	151.35
400.971	74.62
401.185	93.42
401.398	36.46
401.612	91.09
401.826	90.51
402.039	98.26
402.253	66.29
402.466	71.33
402.68	58.35
402.893	85.47
403.106	91.09
403.32	55.64
403.533	91.29
403.747	52.15
403.96	62.61
404.174	87.99
404.387	44.59
404.6	59.51
404.814	105.43
405.027	61.84
405.24	56.99
405.454	53.51
405.667	110.66
405.88	20.57
406.094	68.62
406.307	74.43
406.52	48.47
406.733	39.94
406.947	23.09
407.16	127.52
407.373	114.92
407.586	55.83
407.799	54.09
408.012	99.81
408.226	77.72
408.439	121.71
408.652	60.68
408.865	80.24
409.078	98.07
409.291	110.27
409.504	40.91
409.717	86.44
409.93	101.94
410.143	97.87
410.357	11.46
410.57	24.25
410.783	97.87
410.996	107.37
411.209	57.58
411.421	114.54
411.634	93.42
411.847	62.61
412.06	71.72
412.273	72.88
412.486	88.77
412.699	159.49
412.912	56.61
413.125	118.99
413.338	82.37
413.55	93.03
413.763	78.5
413.976	68.43
414.189	47.31
414.402	68.81
414.615	126.74
414.827	43.63
415.04	95.74
415.253	93.81
415.466	130.04
415.678	137.98
415.891	88.19
416.104	95.16
416.316	83.92
416.529	61.45
416.742	74.04
416.954	114.54
417.167	87.61
417.38	94.97
417.592	121.12
417.805	61.84
418.017	26.96
418.23	109.89
418.442	76.37
418.655	63
418.868	91.29
419.08	138.17
419.293	121.32
419.505	110.08
419.718	60.48
419.93	135.46
420.142	100.59
420.355	146.31
420.567	145.73
420.78	115.31
420.992	84.12
421.205	139.72
421.417	41.88
421.629	92.06
421.842	64.36
422.054	49.83
422.266	117.25
422.479	132.56
422.691	76.37
422.903	120.35
423.115	85.67
423.328	84.31
423.54	88.19
423.752	81.41
423.964	51.18
424.177	106.98
424.389	76.37
424.601	170.53
424.813	109.69
425.025	124.03
425.238	106.59
425.45	100.59
425.662	89.93
425.874	395.28
426.086	101.17
426.298	143.41
426.51	116.67
426.722	113.57
426.934	79.27
427.146	154.84
427.358	47.69
427.57	134.3
427.782	84.31
427.994	100.01
428.206	70.36
428.418	81.6
428.63	112.41
428.842	122.09
429.054	111.05
429.266	123.84
429.478	69.98
429.69	103.3
429.902	65.71
430.114	106.21
430.325	106.01
430.537	90.51
430.749	93.03
430.961	47.5
431.173	92.84
431.384	104.07
431.596	35.68
431.808	77.14
432.02	95.94
432.231	124.22
432.443	143.6
432.655	125.77
432.867	118.8
433.078	131.2
433.29	167.62
433.502	111.24
433.713	141.66
433.925	112.79
434.136	122.09
434.348	83.92
434.56	49.05
434.771	202.3
434.983	78.89
435.194	70.75
435.406	95.94
435.617	150.19
435.829	165.3
436.04	145.34
436.252	135.27
436.463	160.45
436.675	130.04
436.886	144.18
437.098	96.13
437.309	165.69
437.521	121.9
437.732	137.79
437.943	118.41
438.155	107.37
438.366	65.71
438.578	172.08
438.789	140.5
439	157.94
439.211	141.86
439.423	147.09
439.634	146.31
439.845	141.27
440.057	146.89
440.268	153.67
440.479	91.29
440.69	132.17
440.902	119.77
441.113	126.74
441.324	103.11
441.535	139.34
441.746	184.67
441.957	140.11
442.168	101.17
442.38	145.34
442.591	166.85
442.802	118.99
443.013	120.35
443.224	151.93
443.435	111.63
443.646	143.21
443.857	126.55
444.068	130.81
444.279	102.52
444.49	182.15
444.701	131.39
444.912	219.55
445.123	182.74
445.334	185.45
445.545	170.14
445.756	137.21
445.967	104.46
446.178	161.62
446.388	180.99
446.599	186.8
446.81	174.79
447.021	144.18
447.232	180.41
447.443	195.52
447.653	96.91
447.864	168.2
448.075	148.64
448.286	180.8
448.496	158.13
448.707	193.39
448.918	147.09
449.129	246.87
449.339	114.73
449.55	169.17
449.761	160.07
449.971	212.38
450.182	155.81
450.393	170.92
450.603	166.46
450.814	181.96
451.024	207.15
451.235	222.84
451.446	210.64
451.656	223.42
451.867	145.34
452.077	177.89
452.288	222.65
452.498	264.3
452.709	169.56
452.919	195.72
453.13	128.1
453.34	210.44
453.55	120.35
453.761	185.06
453.971	212.96
454.182	219.55
454.392	188.55
454.602	250.93
454.813	184.87
455.023	203.27
455.233	138.76
455.444	189.52
455.654	125.97
455.864	180.99
456.075	178.47
456.285	181.96
456.495	183.9
456.705	190.29
456.916	228.85
457.126	235.44
457.336	182.54
457.546	134.11
457.756	197.65
457.967	239.89
458.177	164.72
458.387	194.75
458.597	160.07
458.807	176.92
459.017	198.24
459.227	180.8
459.437	193.39
459.647	230.4
459.857	207.73
460.068	177.7
460.278	241.44
460.488	209.86
460.698	248.03
460.908	193
461.117	166.27
461.327	188.74
461.537	208.31
461.747	201.34
461.957	202.5
462.167	298.4
462.377	243.77
462.587	204.44
462.797	233.5
463.007	200.75
463.216	200.95
463.426	241.05
463.636	243.19
463.846	150.77
464.056	202.3
464.265	259.46
464.475	169.75
464.685	240.28
464.895	224.39
465.104	206.57
465.314	231.75
465.524	216.06
465.733	191.07
465.943	271.08
466.153	262.75
466.362	268.95
466.572	247.64
466.782	211.6
466.991	218.97
467.201	259.46
467.41	166.65
467.62	240.47
467.829	162.59
468.039	224.78
468.249	222.07
468.458	201.53
468.668	249.38
468.877	214.9
469.086	255.58
469.296	250.55
469.505	195.33
469.715	314.1
469.924	247.83
470.134	266.24
470.343	291.23
470.552	213.93
470.762	250.35
470.971	226.52
471.18	240.28
471.39	200.17
471.599	188.94
471.808	244.54
472.018	211.41
472.227	262.37
472.436	270.7
472.645	235.82
472.855	213.54
473.064	299.18
473.273	240.28
473.482	272.44
473.691	274.77
473.901	278.06
474.11	248.03
474.319	334.63
474.528	255.58
474.737	304.8
474.946	274.96
475.155	273.22
475.364	284.26
475.573	295.11
475.783	254.81
475.992	287.94
476.201	305.96
476.41	269.15
476.619	251.71
476.828	284.45
477.037	238.34
477.245	302.86
477.454	323.01
477.663	289.1
477.872	259.65
478.081	363.31
478.29	279.22
478.499	344.9
478.708	312.16
478.917	347.61
479.125	282.32
479.334	322.43
479.543	285.42
479.752	309.25
479.961	297.82
480.169	352.85
480.378	310.03
480.587	405.35
480.796	338.12
481.004	319.13
481.213	347.23
481.422	342.19
481.63	311.97
481.839	352.07
482.048	382.88
482.256	308.28
482.465	328.24
482.674	348.2
482.882	365.83
483.091	426.86
483.299	338.12
483.508	365.44
483.716	349.55
483.925	365.83
484.134	342.96
484.342	330.57
484.551	384.04
484.759	379.2
484.967	373.38
485.176	385.2
485.384	399.35
485.593	434.8
485.801	373.38
486.01	341.8
486.218	366.99
486.426	311.97
486.635	340.83
486.843	322.82
487.051	346.06
487.26	341.03
487.468	367.76
487.676	380.94
487.885	330.37
488.093	367.18
488.301	372.41
488.509	370.86
488.717	405.16
488.926	397.8
489.134	373.77
489.342	378.23
489.55	375.51
489.758	369.9
489.967	353.23
490.175	487.89
490.383	351.1
490.591	442.94
490.799	354.01
491.007	417.36
491.215	394.5
491.423	358.66
491.631	387.72
491.839	404.58
492.047	426.86
492.255	379.58
492.463	373.96
492.671	363.11
492.879	448.56
493.087	406.9
493.295	468.71
493.503	432.09
493.711	411.55
493.919	449.91
494.127	474.71
494.334	481.49
494.542	386.36
494.75	432.28
494.958	421.63
495.166	465.03
495.374	427.83
495.581	463.67
495.789	462.12
495.997	485.37
496.205	439.84
496.412	418.33
496.62	443.52
496.828	465.22
497.035	436.54
497.243	459.99
497.451	417.56
497.658	447.01
497.866	434.41
498.074	490.99
498.281	415.23
498.489	546.4
498.696	446.23
498.904	453.4
499.112	422.21
499.319	508.04
499.527	427.05
499.734	510.94
499.942	407.68
500.149	455.73
500.357	497.58
500.564	435.19
500.771	464.64
500.979	422.21
501.186	423.37
501.394	462.7
501.601	475.68
501.808	469.68
502.016	459.79
502.223	472.19
502.43	461.73
502.638	446.81
502.845	427.24
503.052	529.16
503.26	457.66
503.467	559.19
503.674	486.34
503.881	482.46
504.089	556.28
504.296	499.71
504.503	460.57
504.71	506.29
504.917	451.85
505.125	499.71
505.332	495.83
505.539	509.59
505.746	553.76
505.953	521.41
506.16	518.69
506.367	566.55
506.574	586.7
506.781	556.28
506.988	525.47
507.195	527.02
507.402	537.29
507.609	564.42
507.816	519.86
508.023	506.1
508.23	528.19
508.437	495.44
508.644	558.41
508.851	583.99
509.058	575.85
509.265	563.26
509.472	556.47
509.679	635.72
509.885	537.29
510.092	557.06
510.299	566.55
510.506	554.73
510.713	568.1
510.92	554.73
511.126	584.76
511.333	614.02
511.54	618.28
511.746	622.93
511.953	600.07
512.16	617.31
512.367	592.12
512.573	549.5
512.78	585.92
512.987	598.52
513.193	598.9
513.4	527.61
513.606	591.35
513.813	609.95
514.02	608.98
514.226	677.37
514.433	624.87
514.639	581.66
514.846	604.91
515.052	575.27
515.259	605.3
515.465	604.91
515.672	630.1
515.878	716.9
516.085	641.14
516.291	667.3
516.497	587.28
516.704	598.32
516.91	594.84
517.117	581.27
517.323	560.54
517.529	600.65
517.736	567.71
517.942	632.04
518.148	604.14
518.354	642.11
518.561	631.45
518.767	621.77
518.973	630.87
519.179	636.3
519.386	618.67
519.592	617.5
519.798	615.18
520.004	700.82
520.21	649.09
520.417	708.95
520.623	693.26
520.829	721.35
521.035	738.21
521.241	698.3
521.447	747.7
521.653	831.98
521.859	732.78
522.065	724.45
522.271	826.36
522.477	762.62
522.683	817.84
522.889	795.36
523.095	767.66
523.301	771.92
523.507	732.59
523.713	778.12
523.919	729.49
524.125	804.47
524.331	785.48
524.537	868.21
524.742	809.12
524.948	844.58
525.154	824.62
525.36	914.52
525.566	838.57
525.772	889.91
525.977	804.66
526.183	874.8
526.389	868.21
526.595	834.5
526.8	818.81
527.006	794.2
527.212	760.49
527.417	781.8
527.623	755.45
527.829	815.32
528.034	821.71
528.24	842.64
528.446	812.61
528.651	857.95
528.857	887.2
529.062	937.19
529.268	884.49
529.473	898.24
529.679	883.52
529.884	939.9
530.09	925.76
530.295	969.16
530.501	937.38
530.706	936.22
530.912	887.2
531.117	920.14
531.323	929.63
531.528	991.44
531.733	993.37
531.939	934.67
532.144	980.2
532.35	955.59
532.555	1034.84
532.76	966.25
532.966	980.97
533.171	954.04
533.376	923.63
533.581	915.29
533.787	942.03
533.992	990.86
534.197	1014.88
534.402	946.49
534.607	951.52
534.813	1055.37
535.018	937.77
535.223	952.69
535.428	993.96
535.633	1036.19
535.838	990.66
536.043	1015.07
536.249	1095.67
536.454	1011.2
536.659	1029.02
536.864	1017.21
537.069	995.12
537.274	1037.94
537.479	1009.46
537.684	1032.71
537.889	994.92
538.094	1084.24
538.299	1051.5
538.504	1094.7
538.708	1038.71
538.913	1054.02
539.118	1071.84
539.323	1064.09
539.528	1036.97
539.733	1043.75
539.938	1062.15
540.142	1077.46
540.347	1030.96
540.552	1040.84
540.757	1045.88
540.962	1028.64
541.166	1031.35
541.371	1039.68
541.576	1039.29
541.781	958.11
541.985	1037.16
542.19	1044.91
542.395	1136.75
542.599	1125.51
542.804	1090.44
543.008	1137.72
543.213	1059.83
543.418	1022.63
543.622	1104.59
543.827	1014.11
544.031	1118.15
544.236	1111.37
544.44	1089.09
544.645	1167.17
544.849	1071.26
545.054	1114.66
545.258	1190.03
545.463	1157.67
545.667	1080.37
545.872	1122.8
546.076	1129.58
546.281	1092.96
546.485	1104.78
546.689	1150.12
546.894	1172.78
547.098	1123.18
547.302	1066.8
547.507	1122.6
547.711	1126.87
547.915	1161.16
548.119	1098.58
548.324	1119.31
548.528	1166.78
548.732	1143.92
548.936	1119.89
549.141	1185.77
549.345	1126.09
549.549	1141.78
549.753	1153.02
549.957	1182.86
550.161	1174.53
550.366	1160.58
550.57	1140.04
550.774	1154.38
550.978	1131.9
551.182	1117.76
551.386	1120.09
551.59	1112.14
551.794	1151.08
551.998	1143.92
552.202	1126.09
552.406	1108.65
552.61	1153.8
552.814	1128.42
553.018	1183.44
553.222	1112.72
553.426	1122.6
553.63	1200.68
553.833	1158.06
554.037	1128.42
554.241	1161.74
554.445	1136.94
554.649	1116.4
554.853	1129.19
555.056	1162.52
555.26	1170.85
555.464	1167.36
555.668	1156.32
555.871	1198.17
556.075	1172.4
556.279	1152.25
556.483	1090.83
556.686	1127.06
556.89	1114.47
557.094	1135
557.297	1091.02
557.501	1183.25
557.704	1046.85
557.908	1127.83
558.112	1093.93
558.315	1154.57
558.519	1092.19
558.722	1119.12
558.926	1104
559.129	1029.8
559.333	1053.44
559.536	1038.71
559.74	1042.78
559.943	1037.74
560.147	1036
560.35	1089.28
560.553	1046.46
560.757	1019.92
560.96	1121.63
561.164	1040.26
561.367	1104.39
561.57	1027.09
561.774	1059.64
561.977	1042
562.18	1040.07
562.384	1117.37
562.587	1076.49
562.79	1049.56
562.993	1038.32
563.197	1074.36
563.4	1099.35
563.603	1096.45
563.806	1141.98
564.009	1030.38
564.212	1081.92
564.416	1006.74
564.619	1092.57
564.822	990.66
565.025	1053.24
565.228	1005.97
565.431	1028.06
565.634	982.52
565.837	1010.42
566.04	974.39
566.243	978.65
566.446	886.43
566.649	999.77
566.852	962.37
567.055	983.69
567.258	990.86
567.461	1028.64
567.664	1038.52
567.867	932.34
568.07	988.72
568.273	965.67
568.475	984.85
568.678	939.32
568.881	954.62
569.084	971.48
569.287	882.74
569.489	951.91
569.692	969.93
569.895	962.18
570.098	866.47
570.3	897.86
570.503	841.67
570.706	863.95
570.909	863.18
571.111	840.9
571.314	839.15
571.516	853.1
571.719	866.28
571.922	837.6
572.124	855.62
572.327	891.08
572.529	796.14
572.732	856.59
572.935	847.48
573.137	894.76
573.34	837.41
573.542	878.09
573.745	863.56
573.947	841.09
574.15	830.24
574.352	801.18
574.554	897.47
574.757	821.71
574.959	803.89
575.162	820.36
575.364	820.75
575.566	905.03
575.769	803.89
575.971	825.59
576.173	745.57
576.376	788.39
576.578	830.43
576.78	856.59
576.982	755.84
577.185	791.3
577.387	735.11
577.589	757.2
577.791	794.78
577.993	830.24
578.196	781.22
578.398	771.15
578.6	809.9
578.802	726.78
579.004	764.95
579.206	753.9
579.408	805.83
579.61	774.05
579.812	809.51
580.014	761.65
580.216	737.05
580.418	759.52
580.62	773.86
580.822	732.59
581.024	756.03
581.226	782.77
581.428	770.18
581.63	806.6
581.832	758.36
582.034	825.01
582.236	736.85
582.438	794.01
582.64	807.76
582.841	789.94
583.043	841.67
583.245	766.11
583.447	772.11
583.649	754.87
583.85	800.4
584.052	818.42
584.254	723.87
584.456	833.73
584.657	752.16
584.859	762.04
585.061	769.6
585.262	752.93
585.464	736.08
585.666	782.58
585.867	756.62
586.069	814.55
586.27	771.73
586.472	755.65
586.674	751.97
586.875	732.98
587.077	728.91
587.278	753.52
587.48	740.34
587.681	799.05
587.883	765.92
588.084	681.44
588.285	713.8
588.487	696.75
588.688	744.6
588.89	669.82
589.091	660.9
589.292	685.9
589.494	661.49
589.695	675.24
589.896	608.59
590.098	594.84
590.299	620.41
590.5	622.35
590.702	650.44
590.903	659.16
591.104	712.63
591.305	652.77
591.507	736.08
591.708	680.67
591.909	641.53
592.11	761.27
592.311	679.12
592.512	662.84
592.714	615.57
592.915	632.04
593.116	683.38
593.317	660.71
593.518	656.45
593.719	682.02
593.92	692.1
594.121	716.7
594.322	676.6
594.523	670.2
594.724	644.44
594.925	664.97
595.126	711.08
595.327	694.62
595.528	679.12
595.729	666.72
595.929	670.79
596.13	650.64
596.331	679.12
596.532	683.38
596.733	732.59
596.934	702.75
597.135	702.37
597.335	715.35
597.536	641.53
597.737	654.51
597.938	667.88
598.138	712.63
598.339	696.55
598.54	670.4
598.74	646.95
598.941	663.42
599.142	695.97
599.342	665.94
599.543	650.25
599.744	644.05
599.944	640.56
600.145	645.99
600.345	683.96
600.546	742.08
600.746	714.77
600.947	743.25
601.147	682.41
601.348	684.54
601.548	625.64
601.749	655.29
601.949	613.63
602.15	663.42
602.35	629.71
602.551	687.83
602.751	617.7
602.951	654.51
603.152	567.32
603.352	668.07
603.552	637.27
603.753	684.15
603.953	678.34
604.153	659.35
604.354	637.07
604.554	653.15
604.754	665.94
604.954	601.62
605.155	656.84
605.355	651.22
605.555	667.49
605.755	703.53
605.955	659.55
606.155	673.69
606.356	682.6
606.556	684.73
606.756	661.68
606.956	589.02
607.156	689.58
607.356	627.19
607.556	655.87
607.756	651.6
607.956	670.79
608.156	651.41
608.356	638.24
608.556	652.38
608.756	639.79
608.956	603.55
609.156	643.85
609.356	616.92
609.556	632.04
609.755	628.35
609.955	588.83
610.155	625.84
610.355	635.14
610.555	609.37
610.755	640.37
610.954	560.16
611.154	617.12
611.354	666.14
611.554	580.5
611.753	583.02
611.953	575.46
612.153	621.77
612.352	621.57
612.552	576.62
612.752	535.94
612.951	597.16
613.151	617.89
613.351	571.59
613.55	597.74
613.75	624.87
613.949	599.49
614.149	606.65
614.348	573.91
614.548	560.16
614.747	535.55
614.947	582.24
615.146	513.46
615.346	591.74
615.545	594.64
615.745	547.17
615.944	587.47
616.144	573.72
616.343	594.64
616.542	555.31
616.742	582.82
616.941	571.01
617.14	515.01
617.34	577.59
617.539	578.95
617.738	533.81
617.938	629.32
618.137	565.97
618.336	522.96
618.535	580.69
618.734	562.29
618.934	549.5
619.133	546.79
619.332	583.99
619.531	537.49
619.73	540.78
619.929	582.63
620.128	584.96
620.328	647.73
620.527	499.71
620.726	532.84
620.925	565.97
621.124	549.89
621.323	555.89
621.522	522.57
621.721	528.96
621.92	539.81
622.119	557.64
622.318	507.26
622.517	519.27
622.715	528.77
622.914	477.04
623.113	540.59
623.312	488.28
623.511	549.11
623.71	513.27
623.909	500.87
624.107	575.85
624.306	477.43
624.505	518.5
624.704	519.47
624.902	530.71
625.101	572.36
625.3	522.57
625.499	498.74
625.697	502.23
625.896	488.86
626.095	539.23
626.293	444.49
626.492	467.35
626.69	540.39
626.889	478.78
627.088	529.35
627.286	494.28
627.485	490.79
627.683	480.14
627.882	496.61
628.08	430.15
628.279	482.08
628.477	550.47
628.676	453.79
628.874	500.68
629.073	464.25
629.271	456.5
629.469	489.63
629.668	472.58
629.866	484.01
630.065	480.33
630.263	521.41
630.461	461.93
630.66	490.02
630.858	491.38
631.056	524.12
631.254	526.64
631.453	462.51
631.651	514.82
631.849	485.37
632.047	503.97
632.245	440.03
632.444	494.48
632.642	481.88
632.84	507.07
633.038	464.06
633.236	441.97
633.434	459.99
633.632	463.28
633.83	434.03
634.028	511.52
634.227	487.69
634.425	533.81
634.623	470.64
634.821	492.73
635.019	488.08
635.216	481.3
635.414	516.56
635.612	495.25
635.81	465.8
636.008	545.04
636.206	469.68
636.404	495.83
636.602	464.06
636.8	458.83
636.997	514.43
637.195	505.91
637.393	480.14
637.591	530.32
637.789	489.05
637.986	501.26
638.184	478.98
638.382	512.49
638.58	515.98
638.777	525.47
638.975	477.43
639.173	484.98
639.37	506.29
639.568	467.74
639.765	532.06
639.963	489.44
640.161	520.24
640.358	511.14
640.556	447.39
640.753	439.84
640.951	423.76
641.148	496.99
641.346	445.46
641.543	460.57
641.741	479.17
641.938	478.78
642.136	471.23
642.333	443.33
642.531	494.48
642.728	544.07
642.925	456.69
643.123	470.64
643.32	478.59
643.517	434.22
643.715	475.1
643.912	448.17
644.109	479.75
644.306	447.98
644.504	447.2
644.701	457.47
644.898	472
645.095	452.24
645.293	448.36
645.49	485.37
645.687	439.84
645.884	499.71
646.081	390.82
646.278	440.03
646.475	427.83
646.672	411.55
646.87	465.8
647.067	431.12
647.264	448.36
647.461	393.73
647.658	374.16
647.855	452.43
648.052	394.89
648.249	351.1
648.446	410.78
648.642	400.9
648.839	399.15
649.036	385.59
649.233	345.48
649.43	373.77
649.627	368.54
649.824	399.15
650.021	414.85
650.217	355.75
650.414	355.95
650.611	399.54
650.808	395.66
651.004	423.56
651.201	425.89
651.398	447.2
651.595	387.72
651.791	395.08
651.988	416.78
652.185	404.58
652.381	399.35
652.578	403.8
652.775	354.59
652.971	386.36
653.168	378.42
653.364	409.03
653.561	321.85
653.757	380.94
653.954	391.6
654.15	407.29
654.347	452.82
654.543	378.81
654.74	368.54
654.936	330.95
655.133	390.82
655.329	387.53
655.525	381.91
655.722	407.87
655.918	371.25
656.115	394.89
656.311	346.45
656.507	323.2
656.704	280.77
656.9	346.84
657.096	325.72
657.292	313.9
657.489	363.5
657.685	335.99
657.881	351.1
658.077	340.25
658.273	354.01
658.47	414.65
658.666	366.99
658.862	372.22
659.058	342.77
659.254	410.39
659.45	338.51
659.646	364.47
659.842	327.85
660.038	369.9
660.234	332.31
660.43	331.73
660.626	410.78
660.822	408.26
661.018	401.86
661.214	361.76
661.41	322.04
661.606	393.34
661.802	395.86
661.998	356.53
662.194	312.55
662.39	379.2
662.586	354.2
662.781	389.27
662.977	383.46
663.173	395.86
663.369	362.73
663.564	365.25
663.76	369.12
663.956	331.15
664.152	411.36
664.347	332.7
664.543	344.71
664.739	346.65
664.934	312.35
665.13	295.11
665.326	386.17
665.521	346.06
665.717	320.88
665.912	300.92
666.108	251.32
666.304	349.36
666.499	319.72
666.695	272.63
666.89	330.76
667.086	364.47
667.281	325.72
667.477	371.25
667.672	363.89
667.867	333.86
668.063	323.01
668.258	308.48
668.454	292.4
668.649	407.1
668.844	334.63
669.04	355.95
669.235	324.75
669.43	280
669.626	294.72
669.821	321.85
670.016	287.94
670.211	314.48
670.407	286.39
670.602	294.53
670.797	293.37
670.992	349.75
671.187	296.27
671.382	358.08
671.578	298.6
671.773	362.73
671.968	296.47
672.163	305.96
672.358	352.65
672.553	284.65
672.748	297.05
672.943	376.87
673.138	305.38
673.333	324.56
673.528	289.88
673.723	326.11
673.918	305.96
674.113	266.24
674.308	382.88
674.503	336.57
674.698	366.99
674.892	318.36
675.087	351.88
675.282	358.85
675.477	270.89
675.672	336.57
675.867	307.51
676.061	261.2
676.256	282.32
676.451	276.12
676.646	307.9
676.84	260.82
677.035	262.95
677.23	252.29
677.424	293.75
677.619	358.66
677.814	358.85
678.008	360.4
678.203	250.55
678.397	269.53
678.592	316.62
678.787	382.3
678.981	294.33
679.176	312.35
679.37	323.98
679.565	262.56
679.759	292.59
679.954	304.6
680.148	366.6
680.342	355.95
680.537	322.23
680.731	285.81
680.926	333.28
681.12	337.54
681.314	276.12
681.509	313.52
681.703	306.73
681.897	336.18
682.092	297.43
682.286	298.6
682.48	385.78
682.674	360.01
682.869	315.65
683.063	309.45
683.257	359.43
683.451	271.47
683.645	307.32
683.839	317.97
684.034	292.01
684.228	343.16
684.422	295.3
684.616	260.43
684.81	335.99
685.004	303.44
685.198	296.08
685.392	358.46
685.586	295.5
685.78	339.67
685.974	350.33
686.168	323.4
686.362	383.26
686.556	297.82
686.75	272.63
686.944	309.64
687.138	336.18
687.331	249
687.525	312.35
687.719	214.9
687.913	263.92
688.107	279.22
688.301	238.54
688.494	295.3
688.688	268.18
688.882	239.12
689.076	236.02
689.269	268.37
689.463	339.67
689.657	276.12
689.85	258.1
690.044	294.14
690.238	287.75
690.431	284.65
690.625	258.88
690.818	292.59
691.012	286.2
691.205	325.72
691.399	250.55
691.593	305.18
691.786	349.75
691.98	365.63
692.173	355.75
692.366	333.67
692.56	357.11
692.753	392.76
692.947	316.23
693.14	388.3
693.333	375.32
693.527	315.45
693.72	334.83
693.914	371.25
694.107	314.68
694.3	376.68
694.493	337.73
694.687	394.11
694.88	332.31
695.073	415.81
695.266	412.13
695.46	380.94
695.653	424.73
695.846	429.96
696.039	339.67
696.232	394.31
696.425	447.98
696.618	416.59
696.812	434.61
697.005	482.85
697.198	518.31
697.391	483.24
697.584	470.64
697.777	512.88
697.97	535.74
698.163	512.69
698.356	506.68
698.549	581.86
698.742	563.84
698.935	525.28
699.127	536.71
699.32	524.7
699.513	502.61
699.706	552.99
699.899	569.07
700.092	547.76
700.285	561.9
700.477	522.76
700.67	597.94
700.863	595.22
701.056	652.38
701.248	627.58
701.441	626.61
701.634	586.31
701.826	683.96
702.019	599.68
702.212	703.33
702.404	633.97
702.597	659.74
702.79	667.88
702.982	694.23
703.175	695.78
703.367	718.45
703.56	720.58
703.752	780.06
703.945	759.72
704.137	762.62
704.33	764.17
704.522	778.7
704.715	782.77
704.907	799.43
705.1	811.25
705.292	833.15
705.484	835.47
705.677	877.13
705.869	844.38
706.061	875.38
706.254	903.67
706.446	875.96
706.638	872.09
706.831	930.21
707.023	921.11
707.215	993.57
707.407	1004.61
707.599	967.61
707.792	1006.55
707.984	1007.91
708.176	1019.92
708.368	988.14
708.56	1070.49
708.752	998.41
708.944	1010.42
709.136	1061.19
709.329	1040.65
709.521	1146.43
709.713	1123.18
709.905	1137.91
710.097	1175.5
710.289	1106.91
710.481	1133.07
710.672	1125.7
710.864	1150.12
711.056	1229.94
711.248	1209.4
711.44	1197
711.632	1204.56
711.824	1213.86
712.016	1291.55
712.207	1314.8
712.399	1289.81
712.591	1362.46
712.783	1272.56
712.975	1366.34
713.166	1302.4
713.358	1336.69
713.55	1392.11
713.741	1393.66
713.933	1392.11
714.125	1375.44
714.316	1360.72
714.508	1442.48
714.7	1433.37
714.891	1450.04
715.083	1491.5
715.274	1438.61
715.466	1460.69
715.657	1530.83
715.849	1427.56
716.04	1473.29
716.232	1425.04
716.423	1500.8
716.615	1433.18
716.806	1428.53
716.998	1408.77
717.189	1358.98
717.381	1311.12
717.572	1259
717.763	1324.49
717.955	1302.79
718.146	1282.06
718.337	1221.61
718.528	1211.15
718.72	1160
718.911	1233.43
719.102	1204.75
719.293	1287.68
719.485	1264.43
719.676	1212.89
719.867	1229.16
720.058	1228.39
720.249	1224.9
720.44	1230.91
720.632	1273.92
720.823	1359.36
721.014	1428.53
721.205	1427.95
721.396	1486.85
721.587	1611.04
721.778	1603.1
721.969	1617.63
722.16	1697.26
722.351	1720.51
722.542	1773.21
722.733	1816.61
722.924	1732.71
723.115	1819.32
723.305	1780.18
723.496	1799.56
723.687	1711.4
723.878	1693.19
724.069	1723.8
724.26	1724.96
724.45	1695.51
724.641	1693.77
724.832	1719.73
725.023	1696.68
725.213	1678.46
725.404	1692.22
725.595	1732.33
725.785	1718.76
725.976	1748.21
726.167	1729.81
726.357	1752.28
726.548	1916.77
726.739	1773.59
726.929	1851.29
727.12	1911.93
727.31	1907.86
727.501	1848.57
727.691	1885.58
727.882	1912.32
728.072	1983.23
728.263	1942.54
728.453	1981.49
728.644	2035.73
728.834	1984.39
729.024	1996.02
729.215	2001.25
729.405	2013.07
729.596	2099.28
729.786	2098.12
729.976	2129.9
730.167	2137.45
730.357	2082.81
730.547	2090.95
730.737	2129.51
730.928	2212.43
731.118	2216.89
731.308	2161.09
731.498	2220.38
731.688	2279.86
731.879	2310.47
732.069	2356.77
732.259	2418.77
732.449	2426.33
732.639	2481.93
732.829	2517.58
733.019	2547.61
733.209	2587.72
733.399	2597.21
733.589	2682.08
733.779	2711.33
733.969	2702.22
734.159	2763.26
734.349	2834.55
734.539	2866.33
734.729	2833.39
734.919	2894.23
735.109	2893.07
735.299	2890.93
735.488	2901.98
735.678	2924.07
735.868	2937.24
736.058	2936.47
736.248	2943.63
736.437	2906.63
736.627	2885.12
736.817	3014.93
737.007	2996.72
737.196	3041.67
737.386	2989.36
737.576	3008.15
737.765	3057.17
737.955	3081.19
738.144	3161.79
738.334	3148.42
738.524	3063.37
738.713	3124.79
738.903	3160.63
739.092	3182.72
739.282	3203.26
739.471	3184.46
739.661	3193.18
739.85	3232.7
740.04	3273.2
740.229	3254.02
740.419	3323.18
740.608	3309.82
740.797	3298
740.987	3400.1
741.176	3357.67
741.365	3330.74
741.555	3293.93
741.744	3407.27
741.933	3343.14
742.123	3411.34
742.312	3402.23
742.501	3436.33
742.69	3508.21
742.88	3378.6
743.069	3524.29
743.258	3432.26
743.447	3518.87
743.636	3537.08
743.825	3482.25
744.014	3541.15
744.204	3597.72
744.393	3524.88
744.582	3621.17
744.771	3605.67
744.96	3535.92
745.149	3608.77
745.338	3541.34
745.527	3604.89
745.716	3576.02
745.905	3571.37
746.094	3614
746.283	3592.69
746.471	3655.85
746.66	3695.95
746.849	3706.61
747.038	3710.49
747.227	3659.34
747.416	3707.77
747.604	3664.37
747.793	3608.96
747.982	3698.09
748.171	3733.93
748.359	3687.43
748.548	3706.22
748.737	3716.1
748.926	3687.43
749.114	3606.06
749.303	3685.3
749.491	3686.46
749.68	3606.25
749.869	3711.45
750.057	3628.14
750.246	3666.89
750.434	3657.79
750.623	3648.1
750.811	3637.44
751	3695.76
751.188	3616.71
751.377	3658.75
751.565	3652.75
751.754	3619.42
751.942	3626.4
752.131	3700.02
752.319	3650.62
752.507	3611.87
752.696	3649.65
752.884	3699.25
753.072	3629.5
753.261	3666.5
753.449	3684.72
753.637	3642.09
753.825	3728.12
754.014	3631.24
754.202	3652.56
754.39	3702.93
754.578	3707.19
754.766	3620.01
754.955	3658.56
755.143	3690.72
755.331	3616.32
755.519	3644.61
755.707	3567.5
755.895	3609.35
756.083	3616.91
756.271	3593.07
756.459	3623.88
756.647	3635.89
756.835	3618.65
757.023	3576.99
757.211	3589.78
757.399	3575.06
757.587	3611.87
757.775	3552.58
757.963	3533.79
758.151	3591.14
758.339	3536.11
758.526	3507.83
758.714	3553.55
758.902	3405.53
759.09	3303.04
759.278	3088.36
759.465	2837.27
759.653	2503.44
759.841	2239.94
760.028	1928.01
760.216	1672.07
760.404	1578.1
760.591	1315.58
760.779	1110.01
760.967	941.06
761.154	815.9
761.342	836.44
761.529	830.82
761.717	871.31
761.905	868.99
762.092	905.22
762.28	862.98
762.467	854.07
762.655	767.85
762.842	849.61
763.029	843.03
763.217	841.28
763.404	826.95
763.592	864.14
763.779	833.53
763.966	865.69
764.154	897.47
764.341	980.01
764.528	993.37
764.716	1060.99
764.903	1093.54
765.09	1197.58
765.277	1215.21
765.465	1379.32
765.652	1441.51
765.839	1514.55
766.026	1671.1
766.213	1760.23
766.4	1839.47
766.588	2039.8
766.775	2072.74
766.962	2177.36
767.149	2271.14
767.336	2424.97
767.523	2371.5
767.71	2510.22
767.897	2647.98
768.084	2723.92
768.271	2769.65
768.458	2830.1
768.645	2881.44
768.832	2899.07
769.019	2927.75
769.206	2933.17
769.392	3047.09
769.579	3129.83
769.766	3096.5
769.953	3106.19
770.14	3149.78
770.327	3070.54
770.513	3186.01
770.7	3256.92
770.887	3198.8
771.073	3237.74
771.26	3204.03
771.447	3167.22
771.634	3174.19
771.82	3253.63
772.007	3128.28
772.193	3261.57
772.38	3236.39
772.567	3238.13
772.753	3179.04
772.94	3276.49
773.126	3247.04
773.313	3301.49
773.499	3224.18
773.686	3241.42
773.872	3224.76
774.059	3216.62
774.245	3165.09
774.432	3183.49
774.618	3128.86
774.804	3195.31
774.991	3166.44
775.177	3220.11
775.363	3164.31
775.55	3192.21
775.736	3122.66
775.922	3157.92
776.109	3194.92
776.295	3172.84
776.481	3139.12
776.667	3224.37
776.853	3128.86
777.04	3105.8
777.226	3168.38
777.412	3228.05
777.598	3096.31
777.784	3107.35
777.97	3117.23
778.156	3146.87
778.342	3105.99
778.528	3113.94
778.715	3081.39
778.901	3070.34
779.087	3101.34
779.272	3043.03
779.458	3023.46
779.644	3064.73
779.83	3038.38
780.016	3161.99
780.202	3064.53
780.388	3055.04
780.574	2948.87
780.76	2997.88
780.946	3061.24
781.131	3002.92
781.317	3003.11
781.503	2999.43
781.689	2981.41
781.874	3101.54
782.06	2938.6
782.246	2981.41
782.432	2972.5
782.617	3007.76
782.803	3035.08
782.989	2923.1
783.174	2945.38
783.36	2869.62
783.545	2962.62
783.731	2922.13
783.916	2820.8
784.102	2927.55
784.288	2858.19
784.473	2871.17
784.659	2890.55
784.844	2945.18
785.029	2833.97
785.215	2860.52
785.4	2795.8
785.586	2913.22
785.771	2813.24
785.956	2835.52
786.142	2805.69
786.327	2791.35
786.512	2787.86
786.698	2793.09
786.883	2752.41
787.068	2780.69
787.254	2794.84
787.439	2766.55
787.624	2703.39
787.809	2706.87
787.994	2695.64
788.18	2752.02
788.365	2684.01
788.55	2695.25
788.735	2693.89
788.92	2699.32
789.105	2673.16
789.29	2682.66
789.475	2655.92
789.66	2612.13
789.845	2644.88
790.03	2612.91
790.215	2639.26
790.4	2690.41
790.585	2659.6
790.77	2614.84
790.955	2512.16
791.14	2607.48
791.325	2685.37
791.51	2550.52
791.695	2619.88
791.879	2553.04
792.064	2526.69
792.249	2648.56
792.434	2568.54
792.618	2567.76
792.803	2619.69
792.988	2566.41
793.173	2608.45
793.357	2616.2
793.542	2548
793.727	2590.43
793.911	2647.39
794.096	2591.4
794.281	2644.1
794.465	2743.11
794.65	2617.94
794.834	2660.38
795.019	2689.44
795.203	2643.13
795.388	2684.01
795.572	2663.48
795.757	2650.3
795.941	2633.83
796.126	2621.82
796.31	2585.98
796.494	2640.61
796.679	2643.71
796.863	2603.61
797.048	2703.19
797.232	2620.46
797.416	2660.76
797.601	2604
797.785	2709.39
797.969	2669.09
798.153	2638.29
798.338	2644.68
798.522	2719.66
798.706	2725.28
798.89	2720.05
799.074	2778.76
799.258	2739.81
799.443	2696.8
799.627	2702.22
799.811	2745.04
799.995	2655.53
800.179	2643.91
800.363	2624.34
800.547	2717.14
800.731	2669.48
800.915	2583.85
801.099	2629.57
801.283	2663.09
801.467	2653.21
801.651	2629.76
801.835	2661.73
802.019	2610.19
802.202	2661.34
802.386	2590.63
802.57	2580.75
802.754	2606.71
802.938	2604.38
803.121	2624.14
803.305	2683.04
803.489	2651.46
803.673	2660.57
803.856	2654.76
804.04	2617.94
804.224	2643.13
804.407	2654.37
804.591	2594.11
804.775	2626.28
804.958	2613.29
805.142	2725.47
805.326	2626.47
805.509	2670.45
805.693	2695.06
805.876	2652.04
806.06	2677.81
806.243	2683.04
806.427	2737.29
806.61	2718.89
806.794	2668.13
806.977	2686.53
807.16	2645.65
807.344	2679.36
807.527	2700.87
807.71	2659.21
807.894	2652.63
808.077	2704.74
808.26	2678.2
808.444	2634.8
808.627	2687.69
808.81	2600.12
808.993	2573.58
809.177	2568.93
809.36	2608.26
809.543	2597.8
809.726	2501.7
809.909	2495.3
810.092	2480.97
810.276	2486.39
810.459	2509.64
810.642	2490.65
810.825	2421.1
811.008	2466.24
811.191	2386.03
811.374	2325.58
811.557	2399.59
811.74	2453.07
811.923	2334.11
812.106	2320.93
812.289	2289.93
812.472	2319.77
812.654	2294.97
812.837	2267.65
813.02	2166.71
813.203	2161.86
813.386	2077.2
813.569	2074.29
813.751	2025.85
813.934	2050.65
814.117	1981.29
814.3	1947.19
814.482	1915.22
814.665	1903.6
814.848	1842.57
815.03	1824.16
815.213	1790.84
815.396	1785.99
815.578	1730.78
815.761	1721.48
815.943	1779.21
816.126	1666.45
816.309	1655.99
816.491	1595.54
816.674	1576.17
816.856	1601.55
817.039	1595.93
817.221	1683.31
817.403	1670.52
817.586	1634.87
817.768	1653.28
817.951	1564.73
818.133	1528.12
818.315	1588.95
818.498	1617.82
818.68	1694.93
818.862	1647.85
819.045	1680.79
819.227	1657.54
819.409	1654.83
819.591	1660.64
819.774	1648.63
819.956	1633.71
820.138	1686.21
820.32	1692.41
820.502	1776.5
820.684	1814.09
820.866	1815.83
821.048	1855.16
821.231	1887.13
821.413	1851.67
821.595	1868.14
821.777	1872.41
821.959	1836.56
822.141	1909.6
822.323	1746.28
822.505	1715.28
822.686	1651.53
822.868	1570.74
823.05	1524.44
823.232	1467.09
823.414	1379.71
823.596	1495.57
823.778	1469.99
823.96	1475.61
824.141	1475.42
824.323	1495.57
824.505	1583.33
824.687	1655.6
824.868	1732.91
825.05	1798.59
825.232	1806.53
825.413	1845.28
825.595	1825.52
825.777	1745.11
825.958	1804.4
826.14	1790.45
826.321	1836.76
826.503	1790.84
826.685	1806.73
826.866	1879.96
827.048	1841.41
827.229	1786.96
827.411	1776.89
827.592	1706.17
827.773	1739.11
827.955	1695.32
828.136	1653.66
828.318	1639.72
828.499	1657.15
828.68	1622.67
828.862	1605.03
829.043	1668.97
829.224	1636.81
829.406	1568.8
829.587	1622.08
829.768	1625.96
829.949	1652.7
830.131	1637.58
830.312	1701.13
830.493	1650.18
830.674	1661.8
830.855	1628.67
831.036	1640.3
831.218	1662.19
831.399	1700.16
831.58	1655.6
831.761	1626.35
831.942	1631
832.123	1653.86
832.304	1613.56
832.485	1613.95
832.666	1621.12
832.847	1655.41
833.028	1646.88
833.209	1632.93
833.389	1638.75
833.57	1570.74
833.751	1604.84
833.932	1640.68
834.113	1671.49
834.294	1605.23
834.475	1663.55
834.655	1702.68
834.836	1706.75
835.017	1670.91
835.198	1605.23
835.378	1692.61
835.559	1703.46
835.74	1669.75
835.92	1672.85
836.101	1639.13
836.281	1694.35
836.462	1664.9
836.643	1751.12
836.823	1752.48
837.004	1716.05
837.184	1751.51
837.365	1759.45
837.545	1763.91
837.726	1713.15
837.906	1778.83
838.087	1716.83
838.267	1717.6
838.448	1709.85
838.628	1712.76
838.808	1742.01
838.989	1779.99
839.169	1672.85
839.349	1744.53
839.53	1762.94
839.71	1760.81
839.89	1743.18
840.07	1784.25
840.251	1724
840.431	1769.72
840.611	1742.79
840.791	1702.49
840.971	1728.84
841.151	1704.43
841.332	1657.15
841.512	1790.26
841.692	1669.94
841.872	1742.01
842.052	1710.82
842.232	1720.51
842.412	1693.19
842.592	1721.28
842.772	1709.85
842.952	1742.4
843.132	1658.31
843.312	1674.78
843.492	1652.89
843.672	1728.06
843.851	1646.88
844.031	1675.36
844.211	1659.86
844.391	1668.97
844.571	1701.71
844.751	1673.62
844.93	1713.92
845.11	1644.37
845.29	1674.2
845.47	1705.4
845.649	1678.46
845.829	1719.54
846.009	1677.3
846.188	1720.9
846.368	1726.51
846.547	1688.54
846.727	1737.94
846.907	1624.99
847.086	1678.27
847.266	1709.27
847.445	1654.05
847.625	1635.45
847.804	1621.12
847.984	1659.86
848.163	1637
848.343	1593.6
848.522	1663.35
848.701	1642.62
848.881	1637
849.06	1632.74
849.239	1647.66
849.419	1607.94
849.598	1585.47
849.777	1567.64
849.957	1532.57
850.136	1499.25
850.315	1513.78
850.494	1464.57
850.674	1511.07
850.853	1552.92
851.032	1528.31
851.211	1531.22
851.39	1536.25
851.569	1489.56
851.748	1491.5
851.927	1566.48
852.107	1542.84
852.286	1469.61
852.465	1503.32
852.644	1561.25
852.823	1526.18
853.002	1474.25
853.181	1507.19
853.359	1548.65
853.538	1472.32
853.717	1509.71
853.896	1410.51
854.075	1370.21
854.254	1327.78
854.433	1275.66
854.611	1303.95
854.79	1280.51
854.969	1304.34
855.148	1362.66
855.327	1320.81
855.505	1360.72
855.684	1364.01
855.863	1380.09
856.041	1354.33
856.22	1418.26
856.399	1385.91
856.577	1445
856.756	1439.77
856.934	1568.03
857.113	1551.56
857.291	1468.06
857.47	1420.01
857.648	1476.39
857.827	1464.76
858.005	1474.84
858.184	1459.72
858.362	1553.69
858.541	1454.88
858.719	1463.41
858.898	1440.54
859.076	1456.24
859.254	1502.93
859.433	1436.09
859.611	1408.19
859.789	1382.81
859.967	1462.82
860.146	1485.88
860.324	1396.76
860.502	1442.87
860.68	1377.96
860.859	1407.61
861.037	1423.88
861.215	1407.99
861.393	1400.24
861.571	1404.12
861.749	1374.09
861.927	1388.81
862.105	1406.83
862.283	1364.4
862.461	1357.81
862.639	1350.06
862.817	1392.11
862.995	1409.74
863.173	1352.58
863.351	1370.99
863.529	1349.09
863.707	1432.02
863.885	1375.44
864.063	1292.71
864.241	1314.99
864.418	1402.37
864.596	1350.45
864.774	1298.72
864.952	1349.48
865.129	1332.63
865.307	1306.08
865.485	1287.48
865.663	1319.45
865.84	1241.56
866.018	1298.72
866.196	1148.76
866.373	1180.92
866.551	1147.02
866.728	1102.84
866.906	1115.05
867.084	1176.47
867.261	1193.9
867.439	1206.69
867.616	1234.78
867.794	1271.79
867.971	1223.74
868.149	1222
868.326	1284.58
868.503	1268.11
868.681	1288.26
868.858	1207.85
869.035	1224.71
869.213	1272.76
869.39	1225.1
869.567	1308.79
869.745	1255.9
869.922	1248.73
870.099	1254.74
870.276	1274.5
870.454	1216.76
870.631	1256.68
870.808	1236.33
870.985	1275.86
871.162	1313.83
871.339	1271.01
871.517	1181.89
871.694	1170.07
871.871	1232.07
872.048	1220.83
872.225	1199.13
872.402	1237.3
872.579	1177.43
872.756	1216.18
872.933	1165.42
873.11	1211.15
873.287	1217.54
873.463	1183.63
873.64	1167.17
873.817	1199.52
873.994	1184.6
874.171	1162.71
874.348	1184.6
874.524	1143.33
874.701	1212.11
874.878	1112.53
875.055	1163.29
875.231	1167.94
875.408	1175.69
875.585	1114.27
875.762	1138.88
875.938	1145.85
876.115	1117.76
876.291	1146.63
876.468	1110.79
876.645	1073.2
876.821	1115.24
876.998	1120.86
877.174	1130.35
877.351	1111.56
877.527	1052.08
877.704	1123.77
877.88	1126.87
878.057	1087.34
878.233	1145.08
878.409	1092.38
878.586	1114.47
878.762	1105.75
878.938	1105.94
879.115	1037.94
879.291	1102.26
879.467	1047.43
879.644	1063.12
879.82	1095.29
879.996	1065.45
880.172	1014.69
880.349	1060.6
880.525	1097.22
880.701	1003.45
880.877	1019.34
881.053	1072.62
881.229	1043.17
881.405	1086.57
881.581	1040.65
881.757	1011.39
881.933	1063.51
882.109	1053.05
882.285	1045.69
882.461	1008.87
882.637	1048.98
882.813	996.86
882.989	1042.78
883.165	1089.47
883.341	1027.86
883.517	1055.37
883.693	1046.07
883.869	1071.84
884.044	1011.97
884.22	1061.38
884.396	1081.34
884.572	1068.16
884.747	1088.89
884.923	1088.12
885.099	1091.22
885.275	1095.48
885.45	1015.27
885.626	1006.55
885.801	1014.88
885.977	1037.94
886.153	999.77
886.328	1030.57
886.504	1009.07
886.679	1057.7
886.855	1005.19
887.03	1033.09
887.206	1062.74
887.381	1025.34
887.557	1069.32
887.732	1030.77
887.908	1053.82
888.083	1060.99
888.258	1007.91
888.434	1003.84
888.609	1027.47
888.784	1082.3
888.96	1026.89
889.135	1017.79
889.31	961.6
889.485	1025.34
889.661	1034.45
889.836	1062.15
890.011	1070.68
890.186	1032.71
890.361	1018.76
890.537	1040.84
890.712	1046.27
890.887	1026.31
891.062	1059.64
891.237	1072.81
891.412	998.22
891.587	1038.52
891.762	1053.63
891.937	1076.88
892.112	981.75
892.287	1017.4
892.462	971.87
892.637	958.89
892.812	916.84
892.987	942.23
893.161	948.23
893.336	924.01
893.511	949.2
893.686	950.94
893.861	972.84
894.035	946.29
894.21	940.29
894.385	883.33
894.56	919.36
894.734	853.68
894.909	884.29
895.084	824.23
895.258	835.47
895.433	840.12
895.608	801.76
895.782	778.7
895.957	802.53
896.131	778.12
896.306	752.35
896.48	726
896.655	708.76
896.829	676.21
897.004	673.89
897.178	686.67
897.353	666.72
897.527	728.33
897.701	720.19
897.876	650.25
898.05	703.33
898.224	703.92
898.399	701.4
898.573	701.4
898.747	581.27
898.921	619.64
899.096	532.64
899.27	546.59
899.444	564.42
899.618	594.06
899.792	605.88
899.967	617.89
900.141	661.68
900.315	588.64
900.489	592.32
900.663	611.5
900.837	581.27
901.011	571.01
901.185	654.51
901.359	609.95
901.533	594.84
901.707	585.15
901.881	615.76
902.055	564.81
902.229	616.34
902.403	637.27
902.576	564.22
902.75	643.08
902.924	703.33
903.098	670.79
903.272	698.68
903.446	760.3
903.619	715.54
903.793	751.58
903.967	745.57
904.14	777.35
904.314	769.02
904.488	745.96
904.661	761.65
904.835	760.49
905.009	781.41
905.182	815.9
905.356	764.95
905.529	756.23
905.703	733.75
905.876	734.72
906.05	691.71
906.223	675.44
906.397	635.14
906.57	627.58
906.744	580.5
906.917	601.62
907.09	587.86
907.264	609.37
907.437	582.82
907.61	547.95
907.784	607.82
907.957	596
908.13	518.69
908.304	570.23
908.477	496.41
908.65	518.69
908.823	502.61
908.996	588.83
909.17	496.8
909.343	537.68
909.516	529.16
909.689	532.26
909.862	524.31
910.035	510.75
910.208	488.86
910.381	478.59
910.554	584.18
910.727	513.46
910.9	523.54
911.073	515.01
911.246	571.2
911.419	596.58
911.592	568.68
911.765	538.46
911.938	501.06
912.11	536.91
912.283	542.33
912.456	564.03
912.629	532.06
912.802	483.63
912.974	416.2
913.147	436.35
913.32	397.02
913.493	422.01
913.665	432.48
913.838	479.36
914.01	427.24
914.183	462.12
914.356	458.83
914.528	504.55
914.701	525.28
914.873	504.16
915.046	457.47
915.218	408.84
915.391	372.8
915.563	399.15
915.736	440.23
915.908	474.13
916.081	454.76
916.253	466.58
916.425	445.26
916.598	454.56
916.77	426.66
916.942	429.57
917.115	344.9
917.287	430.73
917.459	395.08
917.632	379.39
917.804	348.39
917.976	417.36
918.148	448.17
918.32	414.26
918.493	463.28
918.665	483.04
918.837	445.26
919.009	504.94
919.181	509.01
919.353	499.51
919.525	490.41
919.697	477.04
919.869	469.68
920.041	538.07
920.213	589.02
920.385	541.75
920.557	515.98
920.729	525.47
920.901	509.39
921.073	501.06
921.244	484.98
921.416	514.04
921.588	482.08
921.76	474.71
921.932	530.12
922.103	507.07
922.275	499.9
922.447	468.32
922.619	438.09
922.79	479.75
922.962	468.71
923.134	464.06
923.305	427.05
923.477	413.88
923.648	400.51
923.82	453.59
923.991	386.95
924.163	378.81
924.335	428.79
924.506	402.06
924.677	473.16
924.849	378.23
925.02	419.3
925.192	454.37
925.363	398.18
925.535	436.35
925.706	392.18
925.877	433.64
926.049	376.1
926.22	416.59
926.391	416.01
926.562	472.19
926.734	409.42
926.905	454.76
927.076	382.3
927.247	379.39
927.419	322.23
927.59	337.93
927.761	328.63
927.932	318.36
928.103	354.01
928.274	273.02
928.445	283.29
928.616	306.93
928.787	281.35
928.958	313.52
929.129	297.24
929.3	273.8
929.471	249.58
929.642	221.29
929.813	198.82
929.984	249
930.155	161.23
930.326	231.17
930.496	177.5
930.667	143.21
930.838	202.5
931.009	178.67
931.18	143.21
931.35	175.57
931.521	154.06
931.692	106.4
931.863	51.57
932.033	118.22
932.204	139.92
932.374	134.11
932.545	96.52
932.716	139.72
932.886	152.12
933.057	67.46
933.227	75.01
933.398	152.9
933.568	60.48
933.739	32.19
933.909	35.1
934.08	79.08
934.25	32.19
934.421	36.46
934.591	81.6
934.761	53.31
934.932	16.11
935.102	60.48
935.272	42.27
935.443	47.11
935.613	47.5
935.783	56.61
935.953	22.89
936.123	171.5
936.294	19.99
936.464	44.59
936.634	53.12
936.804	28.9
936.974	6.04
937.144	68.81
937.314	47.89
937.484	43.04
937.655	27.74
937.825	82.76
937.995	23.09
938.165	83.34
938.334	36.07
938.504	64.74
938.674	60.09
938.844	75.59
939.014	109.69
939.184	112.6
939.354	118.99
939.524	165.69
939.694	109.31
939.863	88.96
940.033	175.95
940.203	148.25
940.373	116.67
940.542	110.27
940.712	111.24
940.882	130.23
941.051	142.82
941.221	127.91
941.391	143.21
941.56	90.9
941.73	93.03
941.899	183.32
942.069	73.66
942.238	120.54
942.408	77.72
942.577	126.94
942.747	87.41
942.916	71.72
943.086	57.58
943.255	111.24
943.425	114.73
943.594	78.31
943.763	27.16
943.933	46.14
944.102	43.04
944.271	89.16
944.441	67.07
944.61	66.1
944.779	70.75
944.948	130.81
945.117	41.49
945.287	50.6
945.456	38.2
945.625	32.19
945.794	78.31
945.963	33.94
946.132	110.47
946.301	61.26
946.47	104.27
946.639	16.31
946.808	68.04
946.977	100.39
947.146	112.21
947.315	60.09
947.484	98.26
947.653	65.33
947.822	79.66
947.991	41.69
948.16	156.77
948.329	103.11
948.498	58.54
948.666	63.58
948.835	81.02
949.004	50.99
949.173	45.18
949.341	69.98
949.51	90.71
949.679	104.07
949.847	86.64
950.016	135.07
950.185	101.17
950.353	69.2
950.522	94.58
950.69	114.15
950.859	70.56
951.028	94.97
951.196	79.47
951.365	52.93
951.533	89.93
951.701	102.14
951.87	94.39
952.038	59.71
952.207	75.21
952.375	157.36
952.543	56.03
952.712	63.97
952.88	69.01
953.048	114.73
953.217	66.29
953.385	92.84
953.553	111.05
953.721	55.83
953.89	94.97
954.058	27.35
954.226	60.09
954.394	99.23
954.562	34.52
954.73	82.37
954.898	66.29
955.067	107.37
955.235	51.38
955.403	94.97
955.571	115.31
955.739	108.34
955.907	70.56
956.075	75.21
956.243	63.97
956.41	126.55
956.578	32.78
956.746	77.53
956.914	55.25
957.082	98.46
957.25	99.23
957.418	67.65
957.585	80.24
957.753	140.11
957.921	56.41
958.089	71.91
958.256	94.97
958.424	93.42
958.592	88.57
958.759	60.68
958.927	110.66
959.095	59.13
959.262	64.74
959.43	68.43
959.597	45.18
959.765	74.43
959.932	34.91
960.1	87.99
960.267	87.61
960.435	84.31
960.602	91.67
960.77	84.12
960.937	35.49
961.104	79.27
961.272	42.85
961.439	64.36
961.606	100.2
961.774	107.37
961.941	69.39
962.108	85.67
962.275	97.1
962.443	124.81
962.61	106.98
962.777	131.2
962.944	125.58
963.111	106.79
963.278	87.02
963.446	104.85
963.613	109.31
963.78	96.13
963.947	152.12
964.114	62.81
964.281	153.87
964.448	146.7
964.615	76.56
964.782	102.91
964.949	126.74
965.116	110.86
965.282	154.45
965.449	112.41
965.616	65.33
965.783	132.94
965.95	109.31
966.117	87.41
966.283	125
966.45	100.97
966.617	119.19
966.784	136.43
966.95	122.67
967.117	153.09
967.284	99.23
967.45	79.47
967.617	166.07
967.784	133.52
967.95	162.2
968.117	116.86
968.283	139.92
968.45	190.29
968.616	144.18
968.783	172.85
968.949	130.42
969.116	139.72
969.282	139.92
969.449	129.07
969.615	116.09
969.781	69.98
969.948	100.01
970.114	52.73
970.28	164.14
970.447	118.61
970.613	185.45
970.779	97.68
970.945	133.91
971.112	150.77
971.278	116.28
971.444	124.42
971.61	171.3
971.776	109.11
971.942	127.13
972.108	157.74
972.275	111.63
972.441	149.02
972.607	184.09
972.773	101.94
972.939	134.69
973.105	113.96
973.271	94
973.437	98.84
973.602	79.27
973.768	124.42
973.934	123.06
974.1	147.86
974.266	32.97
974.432	118.61
974.598	101.17
974.763	131.01
974.929	93.61
975.095	156.19
975.261	77.34
975.426	69.39
975.592	107.17
975.758	149.02
975.923	62.81
976.089	73.27
976.255	138.17
976.42	143.21
976.586	117.64
976.751	120.74
976.917	179.83
977.082	146.89
977.248	60.09
977.413	48.86
977.579	103.11
977.744	138.17
977.91	84.7
978.075	96.52
978.24	143.02
978.406	107.95
978.571	96.91
978.736	79.27
978.902	140.31
979.067	75.98
979.232	50.41
979.397	89.74
979.563	144.37
979.728	94.58
979.893	94.39
980.058	82.57
980.223	118.61
980.388	91.67
980.554	85.28
980.719	62.81
980.884	105.43
981.049	138.17
981.214	94
981.379	112.79
981.544	84.51
981.709	99.81
981.874	98.84
982.039	104.85
982.204	110.66
982.368	86.06
982.533	75.21
982.698	159.1
982.863	152.32
983.028	96.13
983.193	119.77
983.357	113.76
983.522	118.41
983.687	106.21
983.852	94
984.016	95.55
984.181	115.31
984.346	115.7
984.51	129.84
984.675	95.74
984.839	124.81
985.004	122.29
985.168	134.11
985.333	92.06
985.498	104.46
985.662	154.26
985.827	135.85
985.991	108.34
986.155	87.61
986.32	169.56
986.484	158.32
986.649	123.06
986.813	39.94
986.977	74.82
987.142	118.22
987.306	53.7
987.47	63.39
987.634	102.52
987.799	95.36
987.963	106.79
988.127	100.39
988.291	182.54
988.455	109.31
988.62	88.77
988.784	105.62
988.948	108.14
989.112	79.66
989.276	130.04
989.44	116.09
989.604	103.3
989.768	102.52
989.932	156.77
990.096	52.93
990.26	48.47
990.424	54.28
990.588	105.43
990.752	144.18
990.915	124.81
991.079	59.32
991.243	80.63
991.407	134.11
991.571	103.69
991.734	102.72
991.898	112.99
992.062	180.99
992.226	107.56
992.389	96.52
992.553	44.01
992.717	66.68
992.88	104.46
993.044	101.94
993.207	100.2
993.371	106.79
993.535	120.35
993.698	97.49
993.862	146.51
994.025	120.54
994.189	113.57
994.352	122.67
994.515	94
994.679	119.96
994.842	61.06
995.006	140.11
995.169	63.19
995.332	56.8
995.496	118.99
995.659	62.03
995.822	73.66
995.985	73.27
996.149	126.74
996.312	94.58
996.475	138.76
996.638	81.02
996.801	138.37
996.964	146.31
997.128	77.14
997.291	91.67
997.454	105.82
997.617	40.33
997.78	121.32
997.943	66.68
998.106	103.11
998.269	79.08
998.432	69.59
998.595	71.53
998.758	27.54
998.92	39.75
999.083	35.68
999.246	61.45
999.409	36.07
999.572	34.71
999.735	67.65
999.897	105.24
1000.06	95.94
1000.223	84.7
1000.386	116.47
1000.548	82.96
1000.711	95.94
1000.874	91.48
1001.036	49.63
1001.199	80.44
1001.361	38.78
1001.524	68.43
1001.687	98.26
1001.849	39.36
1002.012	71.72
1002.174	75.98
1002.337	104.46
1002.499	63.39
1002.661	105.82
1002.824	39.94
1002.986	56.99
1003.149	67.84
1003.311	55.64
1003.473	113.57
1003.636	18.83
1003.798	78.5
1003.96	80.05
1004.123	81.79
1004.285	35.1
1004.447	93.42
1004.609	73.07
1004.771	129.26
1004.933	16.89
1005.096	54.28
1005.258	21.93
1005.42	36.07
1005.582	84.12
1005.744	88.38
1005.906	18.05
1006.068	77.53
1006.23	7.98
1006.392	22.89
1006.554	58.16
1006.716	98.65
1006.878	96.13
1007.04	32.78
1007.202	67.07
1007.363	41.69
1007.525	58.16
1007.687	72.49
1007.849	122.67
1008.011	19.41
1008.172	41.88
1008.334	73.85
1008.496	70.94
1008.658	9.72
1008.819	18.05
1008.981	24.83
1009.143	29.29
1009.304	48.08
1009.466	90.32
1009.627	111.05
1009.789	149.61
1009.95	77.14
1010.112	29.68
1010.273	36.65
1010.435	55.25
1010.596	37.62
1010.758	44.98
1010.919	30.64
1011.081	-1.91
1011.242	37.81
1011.403	56.41
1011.565	48.28
1011.726	87.8
1011.887	-1.32
1012.049	32.39
1012.21	69.98
1012.371	118.02
1012.532	-13.72
1012.693	47.31
1012.855	25.99
1013.016	67.26
1013.177	68.04
1013.338	47.11
1013.499	117.64
1013.66	54.09
1013.821	59.71
1013.982	56.99
1014.143	43.04
1014.304	34.13
1014.465	50.41
1014.626	73.46
1014.787	45.76
1014.948	133.33
1015.109	-18.95
1015.27	83.92
1015.431	42.46
1015.592	33.55
1015.752	62.23
1015.913	56.03
1016.074	54.86
1016.235	32.19
1016.395	18.63
1016.556	20.76
1016.717	29.87
1016.877	106.98
1017.038	18.05
1017.199	34.33
1017.359	21.34
1017.52	38.01
1017.681	5.84
1017.841	44.4
1018.002	18.83
1018.162	31.42
1018.323	52.93
1018.483	20.76
1018.644	44.59
1018.804	6.23
1018.964	29.87
1019.125	35.29
1019.285	52.54
1019.446	16.5
1019.606	23.09
1019.766	-18.57
1019.926	44.21
1020.087	67.65
1020.247	0.61
1020.407	42.85
1020.567	76.56
1020.728	38.01
1020.888	38.59
1021.048	11.27
1021.208	5.07
1021.368	12.04
1021.528	72.88
1021.688	64.94
1021.848	57.58
1022.008	30.45
1022.168	26.96
1022.328	24.83
1022.488	59.32
1022.648	29.68
1022.808	35.68
1022.968	44.59
1023.128	7.01
1023.288	16.31
1023.448	39.56
1023.608	46.73
1023.767	11.27
1023.927	20.96
1024.087	8.75
1024.247	-36.39
1024.406	6.43
1024.566	-13.14
1024.726	-21.47
1024.885	49.24
1025.045	43.24
1025.205	7.01
1025.364	31.42
1025.524	44.59
1025.683	10.3
1025.843	25.22
1026.003	27.16
1026.162	87.8
1026.321	70.36
1026.481	38.59
1026.64	6.62
1026.8	43.24
1026.959	60.29
1027.119	10.88
1027.278	35.49
1027.437	14.18
1027.597	30.84
1027.756	32.39
1027.915	31.81
1028.074	56.61
1028.234	-7.33
1028.393	30.26
1028.552	-12.76
1028.711	-32.13
1028.87	55.64
1029.03	-11.98
1029.189	14.76
1029.348	-33.87
1029.507	-0.55
1029.666	24.25
1029.825	0.81
1029.984	-2.68
1030.143	10.11
1030.302	14.18
1030.461	-24.57
1030.62	28.9
1030.779	47.5
1030.938	0.23
1031.097	-7.72
1031.255	52.93
1031.414	57.38
1031.573	60.87
1031.732	-27.48
1031.891	33.16
1032.049	79.27
1032.208	34.71
1032.367	5.84
1032.525	17.66
1032.684	14.18
1032.843	38.98
1033.001	-14.31
1033.16	139.53
1033.319	58.93
1033.477	60.87
1033.636	13.21
1033.794	1.58
1033.953	51.18
1034.111	46.14
1034.27	1
1034.428	34.33
1034.587	-13.14
1034.745	37.04
1034.903	54.67
1035.062	37.81
1035.22	-18.57
1035.378	57.77
1035.537	-23.99
1035.695	32.58
1035.853	-0.74
1036.011	50.99
1036.17	18.05
1036.328	-39.1
1036.486	26.38
1036.644	42.66
1036.802	-39.1
1036.96	-5.59
1037.119	14.95
1037.277	5.26
1037.435	-28.45
1037.593	16.89
1037.751	15.53
1037.909	44.98
1038.067	44.98
