Data from oakcork_FLMT105791__243__17-33-14-055.txt Node

Date: Mon Mar 20 17:33:14 GMT 2023
User: antho
Spectrometer: FLMT10579
Trigger mode: 0
Integration Time (sec): 1.000000E-1
Scans to average: 10
Electric dark correction enabled: true
Nonlinearity correction enabled: false
Boxcar width: 0
XAxis mode: Wavelengths
Number of Pixels in Spectrum: 3648
>>>>>Begin Spectral Data<<<<<
345.248	-144.71
345.464	-144.71
345.681	-144.71
345.898	-159.63
346.114	-158.66
346.331	-27.11
346.548	23.46
346.764	-20.71
346.981	10.28
347.197	-13.55
347.414	14.35
347.631	-6.96
347.847	56.98
348.064	-16.06
348.28	11.45
348.497	-35.44
348.713	3.31
348.93	18.23
349.146	30.43
349.363	5.05
349.579	9.12
349.796	-11.41
350.012	11.45
350.229	33.73
350.445	-9.86
350.661	-11.41
350.878	16.1
351.094	25.4
351.311	25.01
351.527	22.88
351.743	-9.09
351.96	28.5
352.176	48.26
352.392	28.88
352.609	37.99
352.825	-11.8
353.041	11.83
353.257	15.71
353.474	11.25
353.69	12.61
353.906	3.5
354.122	-4.05
354.339	57.56
354.555	-1.92
354.771	-42.03
354.987	42.83
355.203	57.75
355.42	4.28
355.636	-6.77
355.852	-12.38
356.068	19.39
356.284	-32.34
356.5	62.79
356.716	28.3
356.932	13.77
357.148	23.27
357.364	3.7
357.58	39.93
357.796	20.17
358.012	40.51
358.228	34.7
358.444	-48.42
358.66	57.17
358.876	19.97
359.092	-3.08
359.308	18.62
359.524	48.07
359.74	-18.58
359.956	-0.37
360.172	34.7
360.388	57.37
360.604	-9.28
360.819	63.95
361.035	22.88
361.251	31.02
361.467	-18.97
361.683	35.28
361.898	31.79
362.114	41.67
362.33	1.76
362.546	41.48
362.762	34.89
362.977	11.45
363.193	14.35
363.409	43.03
363.624	-1.15
363.84	22.88
364.056	4.86
364.271	22.3
364.487	42.64
364.703	24.43
364.918	4.86
365.134	32.57
365.35	27.14
365.565	85.85
365.781	32.18
365.996	35.67
366.212	66.67
366.427	18.23
366.643	17.84
366.858	28.11
367.074	-5.99
367.289	76.35
367.505	92.82
367.72	-25.17
367.936	29.47
368.151	54.65
368.367	37.02
368.582	9.7
368.798	30.05
369.013	85.85
369.228	37.22
369.444	45.55
369.659	75.19
369.874	18.62
370.09	81
370.305	-36.41
370.52	6.6
370.736	40.32
370.951	21.91
371.166	82.94
371.381	93.4
371.597	64.92
371.812	36.63
372.027	28.3
372.242	35.28
372.458	107.16
372.673	16.29
372.888	10.67
373.103	28.11
373.318	91.08
373.533	40.9
373.749	46.52
373.964	-20.91
374.179	66.28
374.394	-3.28
374.609	79.07
374.824	19.97
375.039	69.77
375.254	32.57
375.469	76.35
375.684	30.82
375.899	66.28
376.114	43.03
376.329	13.19
376.544	42.83
376.759	67.83
376.974	20.36
377.189	23.27
377.404	24.04
377.619	78.87
377.834	-9.28
378.049	-21.68
378.264	7.77
378.478	66.47
378.693	11.64
378.908	78.48
379.123	26.56
379.338	96.11
379.553	37.41
379.767	52.52
379.982	42.25
380.197	26.56
380.412	21.91
380.626	45.74
380.841	105.8
381.056	59.11
381.271	112.2
381.485	31.79
381.7	9.9
381.915	80.03
382.129	10.09
382.344	62.02
382.559	36.44
382.773	88.75
382.988	-11.41
383.202	51.36
383.417	10.48
383.632	117.23
383.846	21.72
384.061	32.95
384.275	29.08
384.49	50
384.704	89.91
384.919	58.14
385.133	33.73
385.348	64.34
385.562	-11.03
385.777	72.48
385.991	21.91
386.206	51.94
386.42	43.8
386.634	79.45
386.849	85.26
387.063	59.88
387.277	25.4
387.492	48.84
387.706	30.05
387.92	30.82
388.135	79.07
388.349	57.37
388.563	55.62
388.778	59.69
388.992	84.3
389.206	85.26
389.42	116.65
389.635	38.77
389.849	98.44
390.063	61.24
390.277	63.37
390.491	113.16
390.706	86.23
390.92	78.48
391.134	59.69
391.348	106.38
391.562	41.09
391.776	38.57
391.99	31.98
392.205	99.21
392.419	43.42
392.633	59.3
392.847	83.33
393.061	55.23
393.275	119.75
393.489	39.54
393.703	73.06
393.917	68.8
394.131	35.28
394.345	56.01
394.559	100.76
394.773	62.02
394.986	83.52
395.2	53.88
395.414	97.86
395.628	57.37
395.842	81.39
396.056	78.29
396.27	6.02
396.484	90.11
396.697	74.8
396.911	129.05
397.125	87.4
397.339	76.55
397.553	65.5
397.766	125.76
397.98	110.84
398.194	104.25
398.408	79.07
398.621	103.67
398.835	110.06
399.049	103.09
399.262	135.83
399.476	118.2
399.69	152.3
399.903	182.14
400.117	78.48
400.331	143.58
400.544	84.49
400.758	204.81
400.971	131.96
401.185	149.4
401.398	72.87
401.612	144.75
401.826	132.54
402.039	149.4
402.253	81.78
402.466	127.89
402.68	95.92
402.893	128.28
403.106	98.25
403.32	125.76
403.533	143.39
403.747	108.51
403.96	130.99
404.174	153.08
404.387	89.53
404.6	112.2
404.814	162.18
405.027	127.31
405.24	118.2
405.454	111.61
405.667	174.39
405.88	83.13
406.094	127.31
406.307	127.5
406.52	134.67
406.733	72.28
406.947	63.37
407.16	202.29
407.373	167.03
407.586	125.95
407.799	99.8
408.012	168.96
408.226	153.46
408.439	152.11
408.652	102.9
408.865	155.01
409.078	189.89
409.291	165.67
409.504	99.41
409.717	172.64
409.93	162.96
410.143	154.82
410.357	75.77
410.57	107.16
410.783	118.01
410.996	160.05
411.209	170.51
411.421	211.59
411.634	150.95
411.847	118.78
412.06	147.46
412.273	175.74
412.486	145.91
412.699	224.76
412.912	161.21
413.125	192.6
413.338	142.42
413.55	159.66
413.763	170.71
413.976	186.4
414.189	146.3
414.402	160.25
414.615	191.05
414.827	125.56
415.04	174.78
415.253	205.39
415.466	187.95
415.678	218.76
415.891	186.98
416.104	193.18
416.316	169.93
416.529	143.2
416.742	162.96
416.954	188.73
417.167	156.18
417.38	160.25
417.592	209.84
417.805	139.32
418.017	150.56
418.23	211.59
418.442	155.6
418.655	170.71
418.868	167.99
419.08	204.61
419.293	211.98
419.505	177.29
419.718	180.78
419.93	221.28
420.142	157.73
420.355	205.19
420.567	224.57
420.78	206.74
420.992	193.76
421.205	261.96
421.417	145.33
421.629	157.53
421.842	189.31
422.054	156.56
422.266	204.81
422.479	245.49
422.691	164.31
422.903	216.04
423.115	175.16
423.328	187.95
423.54	191.63
423.752	186.98
423.964	167.99
424.177	215.46
424.389	196.28
424.601	288.7
424.813	226.12
425.025	211.98
425.238	218.76
425.45	181.17
425.662	154.43
425.874	465.98
426.086	198.61
426.298	205.19
426.51	205.97
426.722	213.91
426.934	192.6
427.146	217.4
427.358	158.89
427.57	235.23
427.782	180.01
427.994	192.99
428.206	191.44
428.418	183.49
428.63	242.39
428.842	249.37
429.054	209.65
429.266	222.24
429.478	186.98
429.69	197.83
429.902	169.54
430.114	211.2
430.325	200.93
430.537	197.64
430.749	186.01
430.961	113.16
431.173	153.46
431.384	189.31
431.596	119.95
431.808	202.09
432.02	236
432.231	226.31
432.443	246.27
432.655	239.1
432.867	208.1
433.078	252.66
433.29	287.34
433.502	267.97
433.713	242.01
433.925	276.3
434.136	288.7
434.348	163.35
434.56	191.44
434.771	310.98
434.983	192.6
435.194	221.86
435.406	232.13
435.617	279.59
435.829	302.26
436.04	281.92
436.252	293.54
436.463	304.01
436.675	320.67
436.886	295.48
437.098	281.72
437.309	336.36
437.521	265.06
437.732	297.03
437.943	270.29
438.155	260.61
438.366	219.92
438.578	321.44
438.789	263.32
439	291.41
439.211	234.06
439.423	273.01
439.634	297.81
439.845	304.39
440.057	269.13
440.268	339.27
440.479	261.77
440.69	314.86
440.902	283.66
441.113	284.63
441.324	279.4
441.535	308.85
441.746	335.39
441.957	274.94
442.168	298.58
442.38	330.74
442.591	356.32
442.802	304.01
443.013	302.65
443.224	337.52
443.435	315.44
443.646	315.63
443.857	323.77
444.068	298.77
444.279	305.56
444.49	416.77
444.701	333.65
444.912	468.5
445.123	345.27
445.334	358.84
445.545	318.73
445.756	337.14
445.967	333.07
446.178	337.91
446.388	360
446.599	348.57
446.81	372.2
447.021	322.02
447.232	382.09
447.443	405.34
447.653	303.23
447.864	407.47
448.075	355.93
448.286	414.44
448.496	364.45
448.707	411.54
448.918	345.66
449.129	436.72
449.339	337.14
449.55	397.39
449.761	383.44
449.971	445.63
450.182	385.38
450.393	408.05
450.603	365.23
450.814	410.95
451.024	397.97
451.235	426.26
451.446	444.28
451.656	480.9
451.867	364.07
452.077	407.08
452.288	425.29
452.498	448.93
452.709	373.37
452.919	386.74
453.13	376.27
453.34	432.27
453.55	329.19
453.761	423.74
453.971	400.69
454.182	422.97
454.392	399.72
454.602	465.01
454.813	425.1
455.023	434.2
455.233	363.29
455.444	401.46
455.654	350.31
455.864	381.5
456.075	382.47
456.285	374.34
456.495	422.58
456.705	423.16
456.916	426.45
457.126	465.4
457.336	412.31
457.546	372.2
457.756	401.65
457.967	461.91
458.177	429.94
458.387	417.54
458.597	388.87
458.807	432.46
459.017	392.55
459.227	412.7
459.437	446.6
459.647	453.38
459.857	450.48
460.068	414.64
460.278	459
460.488	430.91
460.698	461.13
460.908	409.99
461.117	406.89
461.327	413.47
461.537	440.4
461.747	436.53
461.957	485.93
462.167	549.48
462.377	465.98
462.587	431.68
462.797	458.81
463.007	461.13
463.216	484.19
463.426	515.97
463.636	506.28
463.846	398.94
464.056	436.53
464.265	496.4
464.475	408.24
464.685	483.42
464.895	479.93
465.104	462.49
465.314	472.76
465.524	482.25
465.733	477.41
465.943	547.93
466.153	504.34
466.362	518.29
466.572	501.82
466.782	430.72
466.991	483.22
467.201	525.46
467.41	426.26
467.62	508.6
467.829	484.97
468.039	501.63
468.249	513.64
468.458	507.25
468.668	499.5
468.877	502.79
469.086	560.33
469.296	569.63
469.505	476.83
469.715	551.03
469.924	522.94
470.134	572.73
470.343	584.16
470.552	536.7
470.762	530.11
470.971	517.51
471.18	525.07
471.39	514.61
471.599	503.57
471.808	559.17
472.018	517.13
472.227	576.41
472.436	587.65
472.645	600.05
472.855	545.61
473.064	620.59
473.273	573.31
473.482	600.25
473.691	638.22
473.901	629.69
474.11	573.9
474.319	651.39
474.528	612.06
474.737	660.5
474.946	627.56
475.155	629.11
475.364	647.13
475.573	615.36
475.783	630.86
475.992	656.04
476.201	651.78
476.41	628.14
476.619	616.71
476.828	646.36
477.037	611.29
477.245	644.81
477.454	695.76
477.663	652.94
477.872	673.48
478.081	727.73
478.29	646.55
478.499	744.59
478.708	685.11
478.917	737.03
479.125	698.09
479.334	700.8
479.543	717.07
479.752	709.91
479.961	708.16
480.169	733.35
480.378	715.14
480.587	838.55
480.796	747.88
481.004	751.37
481.213	758.54
481.422	757.96
481.63	732.57
481.839	782.95
482.048	841.07
482.256	777.52
482.465	792.83
482.674	833.71
482.882	818.6
483.091	858.12
483.299	808.33
483.508	838.75
483.716	811.43
483.925	821.31
484.134	806.2
484.342	805.42
484.551	849.02
484.759	871.1
484.967	840.3
485.176	862
485.384	849.99
485.593	873.23
485.801	839.14
486.01	814.14
486.218	786.82
486.426	728.51
486.635	729.09
486.843	750.98
487.051	750.79
487.26	759.12
487.468	809.88
487.676	836.42
487.885	807.75
488.093	854.83
488.301	846.89
488.509	867.42
488.717	897.45
488.926	899.2
489.134	880.21
489.342	924
489.55	839.33
489.758	892.61
489.967	885.25
490.175	1013.7
490.383	910.63
490.591	1029.78
490.799	906.37
491.007	970.88
491.215	948.8
491.423	945.31
491.631	939.11
491.839	932.91
492.047	938.92
492.255	910.63
492.463	890.67
492.671	916.05
492.879	961.39
493.087	891.25
493.295	961
493.503	962.55
493.711	972.24
493.919	1019.32
494.127	1044.12
494.334	1017.96
494.542	929.23
494.75	1043.15
494.958	991.42
495.166	1036.18
495.374	1051.29
495.581	1003.82
495.789	1036.18
495.997	1066.98
496.205	1010.21
496.412	1010.21
496.62	1034.43
496.828	1057.68
497.035	1053.61
497.243	1058.26
497.451	1050.13
497.658	1059.23
497.866	1056.33
498.074	1111.74
498.281	1013.31
498.489	1093.33
498.696	1042.18
498.904	1040.44
499.112	1005.76
499.319	1101.86
499.527	1056.91
499.734	1072.99
499.942	1052.06
500.149	1046.25
500.357	1056.33
500.564	1019.71
500.771	1021.65
500.979	1058.26
501.186	1007.11
501.394	1059.62
501.601	999.75
501.808	1063.88
502.016	1035.6
502.223	1056.52
502.43	1028.04
502.638	1055.94
502.845	1026.68
503.052	1159.21
503.26	1039.08
503.467	1151.65
503.674	1071.05
503.881	1100.5
504.089	1165.02
504.296	1106.12
504.503	1033.66
504.71	1060.78
504.917	1018.35
505.125	1092.56
505.332	1091.78
505.539	1136.92
505.746	1181.68
505.953	1153.2
506.16	1143.9
506.367	1197.18
506.574	1190.01
506.781	1206.87
506.988	1123.17
507.195	1134.79
507.402	1131.89
507.609	1179.36
507.816	1120.46
508.023	1129.37
508.23	1135.57
508.437	1085.97
508.644	1165.02
508.851	1176.26
509.058	1176.64
509.265	1180.71
509.472	1209.58
509.679	1278.36
509.885	1156.3
510.092	1186.14
510.299	1193.5
510.506	1215.39
510.713	1209.77
510.92	1193.89
511.126	1228.37
511.333	1225.85
511.54	1230.31
511.746	1262.67
511.953	1252.2
512.16	1277.59
512.367	1202.41
512.573	1217.33
512.78	1221.01
512.987	1212.49
513.193	1193.5
513.4	1130.34
513.606	1175.67
513.813	1222.37
514.02	1236.51
514.226	1288.63
514.433	1268.67
514.639	1178.19
514.846	1240
515.052	1219.65
515.259	1221.01
515.465	1246.2
515.672	1236.7
515.878	1308
516.085	1265.19
516.291	1253.37
516.497	1261.7
516.704	1241.94
516.91	1206.48
517.117	1118.33
517.323	1083.45
517.529	1110.96
517.736	1153.78
517.942	1153.97
518.148	1149.32
518.354	1157.66
518.561	1203.19
518.767	1198.34
518.973	1206.09
519.179	1231.28
519.386	1227.4
519.592	1225.85
519.798	1232.83
520.004	1304.32
520.21	1258.21
520.417	1328.54
520.623	1332.61
520.829	1353.15
521.035	1356.83
521.241	1340.36
521.447	1383.37
521.653	1455.06
521.859	1331.06
522.065	1411.46
522.271	1441.69
522.477	1391.9
522.683	1411.27
522.889	1398.48
523.095	1398.1
523.301	1405.26
523.507	1380.27
523.713	1387.44
523.919	1358.57
524.125	1417.47
524.331	1432.2
524.537	1530.81
524.742	1483.93
524.948	1490.71
525.154	1503.11
525.36	1586.81
525.566	1489.16
525.772	1535.27
525.977	1442.66
526.183	1533.53
526.389	1510.47
526.595	1447.89
526.8	1422.31
527.006	1387.63
527.212	1357.6
527.417	1325.05
527.623	1334.16
527.829	1453.31
528.034	1457.77
528.24	1409.91
528.446	1442.85
528.651	1531.78
528.857	1506.4
529.062	1570.34
529.268	1551.74
529.473	1547.28
529.679	1582.74
529.884	1630.4
530.09	1611.99
530.295	1627.11
530.501	1633.69
530.706	1586.61
530.912	1578.67
531.117	1588.16
531.323	1590.29
531.528	1639.12
531.733	1646.48
531.939	1619.36
532.144	1607.34
532.35	1635.63
532.555	1676.9
532.76	1659.07
532.966	1623.23
533.171	1599.98
533.376	1593.78
533.581	1560.46
533.787	1600.56
533.992	1613.74
534.197	1655.39
534.402	1617.81
534.607	1606.57
534.813	1725.72
535.018	1648.22
535.223	1647.84
535.428	1629.43
535.633	1685.42
535.838	1733.09
536.043	1698.4
536.249	1789.27
536.454	1705.38
536.659	1724.75
536.864	1705.38
537.069	1662.95
537.274	1716.81
537.479	1699.57
537.684	1705.57
537.889	1655.97
538.094	1802.25
538.299	1729.6
538.504	1742.77
538.708	1750.33
538.913	1797.02
539.118	1734.64
539.323	1731.92
539.528	1717.2
539.733	1743.16
539.938	1727.66
540.142	1748.39
540.347	1702.28
540.552	1680.58
540.757	1661.98
540.962	1686.59
541.166	1631.37
541.371	1649.39
541.576	1680.77
541.781	1617.22
541.985	1729.4
542.19	1696.08
542.395	1811.55
542.599	1806.13
542.804	1737.54
543.008	1785.59
543.213	1727.47
543.418	1717
543.622	1766.22
543.827	1724.95
544.031	1812.33
544.236	1782.49
544.44	1809.62
544.645	1867.55
544.849	1794.31
545.054	1805.55
545.258	1839.06
545.463	1859.8
545.667	1773.97
545.872	1818.72
546.076	1805.35
546.281	1835.77
546.485	1777.26
546.689	1808.26
546.894	1841.2
547.098	1836.74
547.302	1811.17
547.507	1842.16
547.711	1815.04
547.915	1875.49
548.119	1782.1
548.324	1764.47
548.528	1842.55
548.732	1794.89
548.936	1833.06
549.141	1851.66
549.345	1840.03
549.549	1846.62
549.753	1882.27
549.957	1927.03
550.161	1906.68
550.366	1837.71
550.57	1840.81
550.774	1853.21
550.978	1834.8
551.182	1889.25
551.386	1824.73
551.59	1841.58
551.794	1823.76
551.998	1839.26
552.202	1826.28
552.406	1777.07
552.61	1831.31
552.814	1864.83
553.018	1895.25
553.222	1868.13
553.426	1847.59
553.63	1926.44
553.833	1836.93
554.037	1826.28
554.241	1849.91
554.445	1850.88
554.649	1844.88
554.853	1825.89
555.056	1860.57
555.26	1882.46
555.464	1862.12
555.668	1911.91
555.871	1902.03
556.075	1890.8
556.279	1847.2
556.483	1810.58
556.686	1833.83
556.89	1832.67
557.094	1852.82
557.297	1766.02
557.501	1863.09
557.704	1739.48
557.908	1846.62
558.112	1794.7
558.315	1853.98
558.519	1784.82
558.722	1791.21
558.926	1746.84
559.129	1718.17
559.333	1680.19
559.536	1756.53
559.74	1712.74
559.943	1709.84
560.147	1717.59
560.35	1709.45
560.553	1767.38
560.757	1674.38
560.96	1773.97
561.164	1760.4
561.367	1806.71
561.57	1759.24
561.774	1758.47
561.977	1748.97
562.18	1726.11
562.384	1792.95
562.587	1708.67
562.79	1727.27
562.993	1723.4
563.197	1752.27
563.4	1789.66
563.603	1773.58
563.806	1814.85
564.009	1707.7
564.212	1731.73
564.416	1692.01
564.619	1748.58
564.822	1627.3
565.025	1740.83
565.228	1683.49
565.431	1681.94
565.634	1615.48
565.837	1640.09
566.04	1607.73
566.243	1634.47
566.446	1561.62
566.649	1663.34
566.852	1590.68
567.055	1625.17
567.258	1643.77
567.461	1688.14
567.664	1671.09
567.867	1601.92
568.07	1622.65
568.273	1659.07
568.475	1671.86
568.678	1605.41
568.881	1604.63
569.084	1596.69
569.287	1504.08
569.489	1523.26
569.692	1577.51
569.895	1586.42
570.098	1538.56
570.3	1535.27
570.503	1480.83
570.706	1484.51
570.909	1476.95
571.111	1471.14
571.314	1437.62
571.516	1487.99
571.719	1465.33
571.922	1482.76
572.124	1485.09
572.327	1528.29
572.529	1464.36
572.732	1469.01
572.935	1500.59
573.137	1566.07
573.34	1494.39
573.542	1527.91
573.745	1513.76
573.947	1494.58
574.15	1474.24
574.352	1471.14
574.554	1525.39
574.757	1431.03
574.959	1470.36
575.162	1447.11
575.364	1441.69
575.566	1541.86
575.769	1392.67
575.971	1426.58
576.173	1341.13
576.376	1427.74
576.578	1451.76
576.78	1501.36
576.982	1392.86
577.185	1447.89
577.387	1378.92
577.589	1414.18
577.791	1433.16
577.993	1447.11
578.196	1390.73
578.398	1414.95
578.6	1451.76
578.802	1357.8
579.004	1369.23
579.206	1364.19
579.408	1436.07
579.61	1358.96
579.812	1427.74
580.014	1381.24
580.216	1379.69
580.418	1384.53
580.62	1404.3
580.822	1347.53
581.024	1397.32
581.226	1418.05
581.428	1398.1
581.63	1468.23
581.832	1396.16
582.034	1458.55
582.236	1381.05
582.438	1440.33
582.64	1486.64
582.841	1495.36
583.043	1522.48
583.245	1450.41
583.447	1460.48
583.649	1445.76
583.85	1477.92
584.052	1509.5
584.254	1427.55
584.456	1482.76
584.657	1378.14
584.859	1463
585.061	1413.79
585.262	1379.5
585.464	1404.68
585.666	1459.13
585.867	1384.73
586.069	1450.8
586.27	1396.74
586.472	1401.2
586.674	1388.41
586.875	1362.83
587.077	1371.55
587.278	1405.46
587.48	1377.95
587.681	1488.58
587.883	1435.68
588.084	1322.15
588.285	1365.16
588.487	1361.87
588.688	1340.36
588.89	1302.19
589.091	1243.87
589.292	1236.7
589.494	1241.55
589.695	1217.33
589.896	1160.37
590.098	1152.42
590.299	1236.32
590.5	1185.36
590.702	1245.42
590.903	1261.12
591.104	1307.03
591.305	1304.13
591.507	1378.14
591.708	1299.29
591.909	1274.87
592.11	1348.5
592.311	1288.05
592.512	1269.45
592.714	1258.79
592.915	1248.33
593.116	1250.07
593.317	1283.2
593.518	1275.45
593.719	1265.38
593.92	1306.84
594.121	1328.15
594.322	1248.14
594.523	1276.81
594.724	1224.11
594.925	1290.57
595.126	1273.32
595.327	1297.74
595.528	1298.51
595.729	1304.52
595.929	1248.14
596.13	1273.71
596.331	1293.28
596.532	1258.4
596.733	1326.02
596.934	1346.17
597.135	1329.32
597.335	1288.24
597.536	1248.52
597.737	1265.96
597.938	1267.51
598.138	1303.74
598.339	1281.85
598.54	1292.7
598.74	1252.98
598.941	1294.83
599.142	1349.08
599.342	1280.49
599.543	1252.01
599.744	1281.46
599.944	1271.97
600.145	1255.3
600.345	1267.51
600.546	1388.8
600.746	1322.92
600.947	1359.15
601.147	1300.84
601.348	1349.08
601.548	1260.15
601.749	1299.09
601.949	1244.65
602.15	1259.18
602.35	1286.69
602.551	1304.9
602.751	1275.26
602.951	1264.02
603.152	1185.36
603.352	1292.5
603.552	1288.24
603.753	1314.78
603.953	1315.37
604.153	1304.9
604.354	1293.47
604.554	1273.13
604.754	1303.16
604.954	1282.82
605.155	1294.05
605.355	1278.55
605.555	1320.6
605.755	1345.59
605.955	1297.54
606.155	1291.73
606.356	1258.02
606.556	1309.17
606.756	1314.4
606.956	1255.3
607.156	1334.74
607.356	1263.83
607.556	1267.32
607.756	1268.87
607.956	1327.77
608.156	1296.19
608.356	1271
608.556	1299.67
608.756	1269.84
608.956	1244.26
609.156	1257.63
609.356	1214.23
609.556	1220.62
609.755	1263.83
609.955	1246.78
610.155	1248.14
610.355	1255.5
610.555	1201.06
610.755	1208.61
610.954	1207.45
611.154	1228.18
611.354	1267.12
611.554	1244.26
611.753	1233.22
611.953	1193.89
612.153	1234.96
612.352	1271
612.552	1222.37
612.752	1148.74
612.951	1189.43
613.151	1253.95
613.351	1183.81
613.55	1196.02
613.75	1228.95
613.949	1195.44
614.149	1219.46
614.348	1164.44
614.548	1141.19
614.747	1149.91
614.947	1172.57
615.146	1127.63
615.346	1197.37
615.545	1201.25
615.745	1186.14
615.944	1176.45
616.144	1183.42
616.343	1210.94
616.542	1203.19
616.742	1180.52
616.941	1136.73
617.14	1080.16
617.34	1150.68
617.539	1155.33
617.738	1134.02
617.938	1220.62
618.137	1155.33
618.336	1116.39
618.535	1182.07
618.734	1170.06
618.934	1195.05
619.133	1161.14
619.332	1196.6
619.531	1173.35
619.73	1188.27
619.929	1198.54
620.128	1188.46
620.328	1200.09
620.527	1151.65
620.726	1151.65
620.925	1202.41
621.124	1151.07
621.323	1182.46
621.522	1111.93
621.721	1134.99
621.92	1105.54
622.119	1157.46
622.318	1132.47
622.517	1125.69
622.715	1102.24
622.914	1085.58
623.113	1097.01
623.312	1082.68
623.511	1139.64
623.71	1108.83
623.909	1129.17
624.107	1181.49
624.306	1073.76
624.505	1081.51
624.704	1091.78
624.902	1095.85
625.101	1150.49
625.3	1135.76
625.499	1083.26
625.697	1068.92
625.896	1063.11
626.095	1095.27
626.293	1023.2
626.492	1052.64
626.69	1079.38
626.889	1076.86
627.088	1108.06
627.286	1053.61
627.485	1045.48
627.683	1013.9
627.882	1048.77
628.08	974.37
628.279	1000.91
628.477	1091.98
628.676	1008.47
628.874	1036.18
629.073	1028.62
629.271	943.18
629.469	1029.59
629.668	1011.57
629.866	1003.43
630.065	1019.32
630.263	1034.82
630.461	978.05
630.66	1017.96
630.858	1031.14
631.056	1070.28
631.254	1075.51
631.453	997.81
631.651	1056.52
631.849	1021.45
632.047	1017.96
632.245	1024.36
632.444	1034.43
632.642	1041.79
632.84	1072.79
633.038	1048.58
633.236	989.68
633.434	1027.07
633.632	1015.06
633.83	990.06
634.028	1077.64
634.227	1015.06
634.425	1099.92
634.623	1033.08
634.821	1049.16
635.019	1054.58
635.216	1029.01
635.414	1074.54
635.612	1029.78
635.81	1046.64
636.008	1084.42
636.206	1040.25
636.404	1074.15
636.602	1016.8
636.8	1041.79
636.997	1065.82
637.195	1071.44
637.393	1027.07
637.591	1113.87
637.789	1066.79
637.986	1040.25
638.184	1050.9
638.382	1111.54
638.58	1072.6
638.777	1121.23
638.975	1038.89
639.173	1074.93
639.37	1062.14
639.568	1064.27
639.765	1069.31
639.963	1036.18
640.161	1043.73
640.358	1075.12
640.556	1046.25
640.753	1014.48
640.951	1019.71
641.148	1022.61
641.346	1025.13
641.543	979.21
641.741	1057.88
641.938	996.65
642.136	1012.93
642.333	1024.16
642.531	1060.01
642.728	1067.37
642.925	1027.07
643.123	1001.11
643.32	1051.09
643.517	1010.21
643.715	1033.27
643.912	1017
644.109	1002.27
644.306	1014.86
644.504	970.3
644.701	1000.91
644.898	1059.04
645.095	993.75
645.293	1012.93
645.49	1028.43
645.687	1008.47
645.884	1034.82
646.081	951.32
646.278	964.68
646.475	948.99
646.672	964.1
646.87	970.88
647.067	974.76
647.264	949.18
647.461	947.83
647.658	914.5
647.855	976.7
648.052	909.47
648.249	891.25
648.446	952.28
648.642	928.26
648.839	875.95
649.036	912.76
649.233	871.88
649.43	874.01
649.627	855.99
649.824	902.1
650.021	883.12
650.217	919.35
650.414	907.53
650.611	913.34
650.808	936.4
651.004	924.58
651.201	906.75
651.398	981.35
651.595	902.68
651.791	910.82
651.988	944.53
652.185	899
652.381	928.07
652.578	880.02
652.775	891.64
652.971	887.18
653.168	925.16
653.364	971.08
653.561	862.77
653.757	919.15
653.954	959.65
654.15	873.43
654.347	963.52
654.543	920.9
654.74	856.38
654.936	876.92
655.133	878.47
655.329	884.28
655.525	884.28
655.722	901.33
655.918	836.04
656.115	858.12
656.311	783.92
656.507	756.99
656.704	720.17
656.9	794.96
657.096	747.49
657.292	787.99
657.489	829.06
657.685	853.67
657.881	834.29
658.077	814.72
658.273	809.69
658.47	909.27
658.666	845.72
658.862	878.85
659.058	845.53
659.254	901.52
659.45	855.8
659.646	897.45
659.842	851.34
660.038	902.88
660.234	831
660.43	852.31
660.626	952.87
660.822	899.78
661.018	892.03
661.214	850.76
661.41	839.14
661.606	897.07
661.802	879.24
661.998	893.19
662.194	865.87
662.39	900.55
662.586	879.05
662.781	897.26
662.977	912.18
663.173	911.21
663.369	881.37
663.564	905.98
663.76	917.8
663.956	864.9
664.152	890.67
664.347	826.35
664.543	873.23
664.739	868.97
664.934	816.47
665.13	827.51
665.326	893
665.521	857.74
665.717	832.55
665.912	838.55
666.108	765.12
666.304	827.12
666.499	872.46
666.695	774.23
666.89	825.96
667.086	876.14
667.281	875.37
667.477	889.32
667.672	870.72
667.867	875.37
668.063	890.48
668.258	816.27
668.454	873.23
668.649	894.74
668.844	864.32
669.04	866.45
669.235	834.87
669.43	835.07
669.626	786.63
669.821	845.72
670.016	816.47
670.211	807.75
670.407	811.04
670.602	828.09
670.797	827.9
670.992	863.55
671.187	823.44
671.382	860.45
671.578	829.25
671.773	862
671.968	806.39
672.163	853.67
672.358	846.69
672.553	806.2
672.748	817.82
672.943	878.85
673.138	824.99
673.333	880.21
673.528	782.56
673.723	830.61
673.918	812.98
674.113	773.84
674.308	891.25
674.503	814.72
674.698	858.9
674.892	829.25
675.087	845.92
675.282	848.82
675.477	793.22
675.672	839.72
675.867	800.77
676.061	792.64
676.256	763.19
676.451	810.65
676.646	806.2
676.84	779.85
677.035	775.97
677.23	795.93
677.424	835.65
677.619	857.93
677.814	827.9
678.008	839.14
678.203	782.17
678.397	791.86
678.592	814.34
678.787	828.67
678.981	778.69
679.176	818.4
679.37	821.31
679.565	757.57
679.759	771.13
679.954	829.64
680.148	861.42
680.342	866.65
680.537	811.62
680.731	779.85
680.926	829.25
681.12	826.93
681.314	781.79
681.509	796.9
681.703	762.99
681.897	832.16
682.092	771.32
682.286	804.45
682.48	868.97
682.674	820.73
682.869	783.53
683.063	803.68
683.257	833.13
683.451	780.24
683.645	808.72
683.839	769.39
684.034	792.83
684.228	803.49
684.422	709.91
684.616	772.49
684.81	791.86
685.004	769
685.198	761.25
685.392	810.46
685.586	764.93
685.78	766.29
685.974	769.58
686.168	783.53
686.362	796.32
686.556	713.01
686.75	667.67
686.944	655.85
687.138	659.14
687.331	571.38
687.525	565.37
687.719	523.71
687.913	595.21
688.107	609.35
688.301	543.86
688.494	582.23
688.688	564.01
688.882	569.44
689.076	530.88
689.269	597.73
689.463	663.02
689.657	592.5
689.85	595.01
690.044	621.17
690.238	582.23
690.431	626.21
690.625	598.5
690.818	646.36
691.012	644.42
691.205	670.19
691.399	615.36
691.593	644.61
691.786	700.02
691.98	726.37
692.173	744.59
692.366	723.66
692.56	753.69
692.753	802.71
692.947	729.28
693.14	744.39
693.333	717.46
693.527	690.53
693.72	761.25
693.914	737.03
694.107	700.61
694.3	741.68
694.493	756.21
694.687	793.02
694.88	720.17
695.073	793.8
695.266	768.81
695.46	756.79
695.653	794.77
695.846	818.21
696.039	717.66
696.232	773.65
696.425	804.07
696.618	835.84
696.812	818.6
697.005	872.65
697.198	931.36
697.391	886.22
697.584	886.99
697.777	924.97
697.97	907.33
698.163	930.97
698.356	899
698.549	1014.28
698.742	966.62
698.935	930.58
699.127	962.36
699.32	927.29
699.513	906.95
699.706	963.91
699.899	972.05
700.092	922.06
700.285	958.29
700.477	926.32
700.67	954.22
700.863	972.63
701.056	1055.16
701.248	1057.1
701.441	1033.27
701.634	1007.7
701.826	1088.1
702.019	995.68
702.212	1080.54
702.404	1008.47
702.597	1019.9
702.79	1041.6
702.982	1067.95
703.175	1085.19
703.367	1107.86
703.56	1115.81
703.752	1183.81
703.945	1152.42
704.137	1172.38
704.33	1222.56
704.522	1181.29
704.715	1172.96
704.907	1227.99
705.1	1257.44
705.292	1257.63
705.484	1228.18
705.677	1271.97
705.869	1290.18
706.061	1300.06
706.254	1322.53
706.446	1297.74
706.638	1301.8
706.831	1389.77
707.023	1332.03
707.215	1460.68
707.407	1422.7
707.599	1412.82
707.792	1445.18
707.984	1444.01
708.176	1473.66
708.368	1444.21
708.56	1452.35
708.752	1478.89
708.944	1443.24
709.136	1517.44
709.329	1499.81
709.521	1620.32
709.713	1554.84
709.905	1571.89
710.097	1608.89
710.289	1550.58
710.481	1619.55
710.672	1616.84
710.864	1633.11
711.056	1665.66
711.248	1690.07
711.44	1649.97
711.632	1653.84
711.824	1663.72
712.016	1723.59
712.207	1718.55
712.399	1743.74
712.591	1821.82
712.783	1767.57
712.975	1826.08
713.166	1756.72
713.358	1787.14
713.55	1845.65
713.741	1869.29
713.933	1859.02
714.125	1853.4
714.316	1828.8
714.508	1917.34
714.7	1877.81
714.891	1893.51
715.083	1926.25
715.274	1882.85
715.466	1952.99
715.657	1930.32
715.849	1857.47
716.04	1913.85
716.232	1872
716.423	1902.61
716.615	1871.03
716.806	1822.21
716.998	1781.91
717.189	1731.54
717.381	1653.07
717.572	1626.91
717.763	1645.12
717.955	1633.5
718.146	1623.04
718.337	1552.71
718.528	1534.3
718.72	1466.1
718.911	1554.64
719.102	1443.05
719.293	1579.83
719.485	1504.66
719.676	1527.33
719.867	1512.21
720.058	1490.51
720.249	1531.39
720.44	1533.53
720.632	1585.06
720.823	1635.82
721.014	1735.8
721.205	1764.47
721.396	1817.75
721.587	1909.78
721.778	1983.6
721.969	2037.46
722.16	2088.42
722.351	2070.01
722.542	2171.34
722.733	2178.51
722.924	2099.85
723.115	2161.46
723.305	2155.84
723.496	2158.17
723.687	2036.3
723.878	2072.53
724.069	2076.79
724.26	2086.87
724.45	1982.24
724.641	2017.31
724.832	2059.94
725.023	2041.92
725.213	2045.21
725.404	1992.13
725.595	2066.72
725.785	2052.96
725.976	2120.97
726.167	2087.84
726.357	2081.25
726.548	2208.73
726.739	2064.78
726.929	2176.38
727.12	2223.85
727.31	2227.92
727.501	2167.08
727.691	2202.34
727.882	2182
728.072	2226.56
728.263	2262.21
728.453	2292.24
728.644	2295.53
728.834	2268.21
729.024	2268.21
729.215	2260.66
729.405	2312.2
729.596	2342.81
729.786	2414.11
729.976	2408.68
730.167	2445.3
730.357	2373.23
730.547	2388.14
730.737	2441.42
730.928	2465.84
731.118	2523.19
731.308	2469.91
731.498	2460.99
731.688	2572.2
731.879	2604.95
732.069	2634.4
732.259	2650.67
732.449	2697.17
732.639	2783.97
732.829	2803.93
733.019	2848.29
733.209	2921.34
733.399	2913.97
733.589	3024.22
733.779	3005.23
733.969	3048.44
734.159	3124.38
734.349	3162.16
734.539	3186.96
734.729	3159.26
734.919	3184.45
735.109	3244.51
735.299	3225.71
735.488	3250.13
735.678	3285.39
735.868	3262.91
736.058	3245.86
736.248	3241.99
736.437	3200.14
736.627	3234.43
736.817	3294.49
737.007	3309.8
737.196	3351.46
737.386	3329.17
737.576	3298.37
737.765	3335.57
737.955	3338.47
738.144	3468.09
738.334	3375.29
738.524	3383.23
738.713	3422.17
738.903	3410.74
739.092	3446.2
739.282	3451.24
739.471	3479.14
739.661	3471.39
739.85	3526.41
740.04	3515.75
740.229	3544.43
740.419	3576.59
740.608	3597.13
740.797	3558.18
740.987	3583.76
741.176	3651.38
741.365	3590.54
741.555	3555.86
741.744	3656.22
741.933	3596.35
742.123	3633.55
742.312	3660.68
742.501	3711.24
742.69	3685.67
742.88	3617.86
743.069	3753.87
743.258	3704.66
743.447	3777.7
743.636	3764.33
743.825	3700.98
744.014	3756.39
744.204	3779.06
744.393	3748.44
744.582	3816.64
744.771	3855.97
744.96	3741.86
745.149	3841.05
745.338	3748.64
745.527	3855
745.716	3828.07
745.905	3770.14
746.094	3838.15
746.283	3815.87
746.471	3815.48
746.66	3943.74
746.849	3858.1
747.038	3878.25
747.227	3820.32
747.416	3884.65
747.604	3845.7
747.793	3833.11
747.982	3875.15
748.171	3900.15
748.359	3912.16
748.548	3898.4
748.737	3867.79
748.926	3880.58
749.114	3756
749.303	3872.25
749.491	3859.85
749.68	3768.79
749.869	3856.17
750.057	3817.03
750.246	3830.21
750.434	3794.17
750.623	3833.89
750.811	3808.51
751	3816.45
751.188	3805.99
751.377	3805.02
751.565	3807.73
751.754	3771.5
751.942	3770.72
752.131	3830.98
752.319	3796.11
752.507	3777.7
752.696	3778.09
752.884	3819.36
753.072	3805.41
753.261	3772.47
753.449	3780.61
753.637	3763.56
753.825	3821.49
754.014	3803.08
754.202	3750.77
754.39	3831.76
754.578	3764.14
754.766	3779.06
754.955	3735.85
755.143	3839.5
755.331	3755.61
755.519	3751.35
755.707	3746.51
755.895	3729.26
756.083	3741.47
756.271	3694.39
756.459	3741.47
756.647	3751.35
756.835	3676.76
757.023	3627.74
757.211	3717.44
757.399	3634.52
757.587	3721.51
757.775	3677.73
757.963	3667.84
758.151	3664.16
758.339	3611.85
758.526	3631.03
758.714	3598.48
758.902	3543.65
759.09	3383.04
759.278	3163.71
759.465	2922.69
759.653	2507.88
759.841	2294.76
760.028	1947.56
760.216	1698.99
760.404	1601.34
760.591	1311.88
760.779	1077.06
760.967	957.32
761.154	787.21
761.342	856.57
761.529	835.84
761.717	885.05
761.905	866.65
762.092	924.97
762.28	877.3
762.467	876.92
762.655	808.33
762.842	825.96
763.029	847.08
763.217	857.15
763.404	855.22
763.592	876.72
763.779	822.47
763.966	887.18
764.154	936.78
764.341	975.92
764.528	991.03
764.716	1066.21
764.903	1125.69
765.09	1208.22
765.277	1272.55
765.465	1388.8
765.652	1488.96
765.839	1560.65
766.026	1697.63
766.213	1717.39
766.4	1875.88
766.588	2040.37
766.775	2086.67
766.962	2234.5
767.149	2269.96
767.336	2485.41
767.523	2414.69
767.71	2580.54
767.897	2694.85
768.084	2735.15
768.271	2786.88
768.458	2884.52
768.645	2908.16
768.832	2925.99
769.019	2955.63
769.206	3016.85
769.392	3074.59
769.579	3174.37
769.766	3122.25
769.953	3108.69
770.14	3183.67
770.327	3168.75
770.513	3245.48
770.7	3303.21
770.887	3223.58
771.073	3253.23
771.26	3269.5
771.447	3231.33
771.634	3227.46
771.82	3330.34
772.007	3186.96
772.193	3286.36
772.38	3292.36
772.567	3251.29
772.753	3259.81
772.94	3301.47
773.126	3288.1
773.313	3303.99
773.499	3271.05
773.686	3324.91
773.872	3249.16
774.059	3303.79
774.245	3241.79
774.432	3265.43
774.618	3176.31
774.804	3257.88
774.991	3218.35
775.177	3213.9
775.363	3202.66
775.55	3259.62
775.736	3168.36
775.922	3222.03
776.109	3196.26
776.295	3209.63
776.481	3232.11
776.667	3231.72
776.853	3177.28
777.04	3174.95
777.226	3188.32
777.412	3234.82
777.598	3123.03
777.784	3161.97
777.97	3122.64
778.156	3184.25
778.342	3160.61
778.528	3131.36
778.715	3041.85
778.901	3109.85
779.087	3129.62
779.272	3106.56
779.458	3064.9
779.644	3076.14
779.83	3066.45
780.016	3179.02
780.202	3061.8
780.388	3099.78
780.574	3031.77
780.76	3033.13
780.946	3073.43
781.131	3045.14
781.317	3036.42
781.503	2985.47
781.689	3008.91
781.874	3118.96
782.06	3023.83
782.246	2980.24
782.432	3025.38
782.617	3013.37
782.803	3027.7
782.989	2974.04
783.174	2951.76
783.36	2917.46
783.545	2974.04
783.731	2917.46
783.916	2869.22
784.102	2962.61
784.288	2873.29
784.473	2900.8
784.659	2859.73
784.844	2941.1
785.029	2925.99
785.215	2885.11
785.4	2862.63
785.586	2925.6
785.771	2810.32
785.956	2911.26
786.142	2861.28
786.327	2843.45
786.512	2849.07
786.698	2821.36
786.883	2760.33
787.068	2778.55
787.254	2817.1
787.439	2788.23
787.624	2753.94
787.809	2743.28
787.994	2785.13
788.18	2810.71
788.365	2691.94
788.55	2736.7
788.735	2724.68
788.92	2679.93
789.105	2702.4
789.29	2752.2
789.475	2625.87
789.66	2635.37
789.845	2658.23
790.03	2600.69
790.215	2674.5
790.4	2698.72
790.585	2670.05
790.77	2655.13
790.955	2572.79
791.14	2605.53
791.325	2702.79
791.51	2562.13
791.695	2620.45
791.879	2584.41
792.064	2560.58
792.249	2652.22
792.434	2589.45
792.618	2609.4
792.803	2602.04
792.988	2576.47
793.173	2639.43
793.357	2624.13
793.542	2625.48
793.727	2653.97
793.911	2663.07
794.096	2627.62
794.281	2681.87
794.465	2721.2
794.65	2659
794.834	2677.6
795.019	2697.37
795.203	2677.8
795.388	2673.73
795.572	2692.52
795.757	2692.91
795.941	2669.66
796.126	2617.54
796.31	2577.24
796.494	2641.57
796.679	2613.28
796.863	2584.41
797.048	2682.45
797.232	2648.35
797.416	2717.13
797.601	2661.52
797.785	2706.86
797.969	2711.12
798.153	2658.81
798.338	2702.79
798.522	2734.95
798.706	2719.06
798.89	2690.78
799.074	2799.86
799.258	2734.37
799.443	2730.3
799.627	2694.07
799.811	2712.48
799.995	2675.08
800.179	2647.57
800.363	2677.02
800.547	2681.67
800.731	2730.69
800.915	2598.75
801.099	2623.55
801.283	2618.12
801.467	2682.06
801.651	2640.4
801.835	2670.63
802.019	2661.13
802.202	2665.98
802.386	2610.37
802.57	2597.97
802.754	2656.87
802.938	2600.88
803.121	2637.88
803.305	2632.07
803.489	2666.75
803.673	2628.39
803.856	2695.23
804.04	2625.87
804.224	2697.75
804.407	2619.28
804.591	2587.32
804.775	2655.71
804.958	2622.58
805.142	2708.21
805.326	2668.11
805.509	2689.23
805.693	2692.52
805.876	2697.56
806.06	2673.34
806.243	2726.81
806.427	2714.61
806.61	2727.98
806.794	2666.56
806.977	2691.36
807.16	2703.18
807.344	2708.6
807.527	2663.65
807.71	2622.77
807.894	2679.54
808.077	2675.86
808.26	2639.63
808.444	2632.27
808.627	2707.25
808.81	2614.25
808.993	2568.52
809.177	2568.33
809.36	2588.09
809.543	2610.57
809.726	2500.71
809.909	2472.23
810.092	2474.56
810.276	2466.22
810.459	2444.33
810.642	2469.91
810.825	2407.71
811.008	2441.23
811.191	2376.13
811.374	2372.45
811.557	2393.76
811.74	2422.05
811.923	2313.36
812.106	2322.46
812.289	2299.99
812.472	2343.97
812.654	2308.71
812.837	2234.5
813.02	2214.74
813.203	2165.14
813.386	2042.69
813.569	2072.53
813.751	2043.86
813.934	2038.24
814.117	2020.02
814.3	1952.99
814.482	1910.36
814.665	1851.46
814.848	1882.85
815.03	1789.47
815.213	1795.67
815.396	1759.24
815.578	1754.78
815.761	1698.99
815.943	1790.82
816.126	1686
816.309	1668.95
816.491	1558.52
816.674	1515.7
816.856	1621.68
817.039	1573.82
817.221	1654.42
817.403	1609.67
817.586	1643.38
817.768	1622.84
817.951	1563.75
818.133	1542.44
818.315	1590.1
818.498	1639.12
818.68	1676.7
818.862	1639.51
819.045	1692.2
819.227	1641.83
819.409	1611.99
819.591	1660.24
819.774	1612.19
819.956	1614.9
820.138	1718.36
820.32	1690.85
820.502	1726.89
820.684	1828.02
820.866	1824.73
821.048	1860.57
821.231	1898.35
821.413	1856.89
821.595	1865.61
821.777	1871.81
821.959	1848.56
822.141	1891.18
822.323	1756.72
822.505	1720.3
822.686	1676.9
822.868	1582.74
823.05	1483.73
823.232	1444.6
823.414	1399.26
823.596	1462.23
823.778	1433.16
823.96	1477.34
824.141	1482.96
824.323	1507.37
824.505	1579.83
824.687	1664.69
824.868	1690.85
825.05	1784.82
825.232	1810.58
825.413	1865.8
825.595	1825.89
825.777	1767.96
825.958	1806.32
826.14	1810.78
826.321	1847.2
826.503	1831.7
826.685	1849.14
826.866	1903
827.048	1819.5
827.229	1781.91
827.411	1740.45
827.592	1710.22
827.773	1698.21
827.955	1623.81
828.136	1663.72
828.318	1596.69
828.499	1648.61
828.68	1615.09
828.862	1642.41
829.043	1628.27
829.224	1621.49
829.406	1626.14
829.587	1627.49
829.768	1614.32
829.949	1645.9
830.131	1622.07
830.312	1691.24
830.493	1658.69
830.674	1653.84
830.855	1617.03
831.036	1640.09
831.218	1674.57
831.399	1706.74
831.58	1649.97
831.761	1625.94
831.942	1656.17
832.123	1628.66
832.304	1591.46
832.485	1599.21
832.666	1609.47
832.847	1657.33
833.028	1641.64
833.209	1635.05
833.389	1633.31
833.57	1571.31
833.751	1572.66
833.932	1679.42
834.113	1637.57
834.294	1599.01
834.475	1673.6
834.655	1708.09
834.836	1718.36
835.017	1685.62
835.198	1643.19
835.378	1662.17
835.559	1686.97
835.74	1667.21
835.92	1657.14
836.101	1643.77
836.281	1718.94
836.462	1706.54
836.643	1735.02
836.823	1706.15
837.004	1706.35
837.184	1759.24
837.365	1712.74
837.545	1756.33
837.726	1684.84
837.906	1748.78
838.087	1718.17
838.267	1742.97
838.448	1670.89
838.628	1707.7
838.808	1706.54
838.989	1749.55
839.169	1705.57
839.349	1737.54
839.53	1765.63
839.71	1748.78
839.89	1690.65
840.07	1749.36
840.251	1709.84
840.431	1731.92
840.611	1706.35
840.791	1699.18
840.971	1729.99
841.151	1695.11
841.332	1693.75
841.512	1715.84
841.692	1670.5
841.872	1706.93
842.052	1710.61
842.232	1730.18
842.412	1640.67
842.592	1711.19
842.772	1712.35
842.952	1748.39
843.132	1699.37
843.312	1658.49
843.492	1683.49
843.672	1738.51
843.851	1609.67
844.031	1679.8
844.211	1652.87
844.391	1642.41
844.571	1670.89
844.751	1677.29
844.93	1670.5
845.11	1664.69
845.29	1655.39
845.47	1697.82
845.649	1680.77
845.829	1679.03
846.009	1624.97
846.188	1665.47
846.368	1639.12
846.547	1658.3
846.727	1683.68
846.907	1622.46
847.086	1680.39
847.266	1685.62
847.445	1656.75
847.625	1641.83
847.804	1620.52
847.984	1624.2
848.163	1582.93
848.343	1603.66
848.522	1646.09
848.701	1648.42
848.881	1607.15
849.06	1621.29
849.239	1615.67
849.419	1576.92
849.598	1534.3
849.777	1580.99
849.957	1525.97
850.136	1490.13
850.315	1501.17
850.494	1481.79
850.674	1475.21
850.853	1522.87
851.032	1493.42
851.211	1565.49
851.39	1511.05
851.569	1469.59
851.748	1472.11
851.927	1533.33
852.107	1491.48
852.286	1478.5
852.465	1475.01
852.644	1501.17
852.823	1501.17
853.002	1484.89
853.181	1539.73
853.359	1517.83
853.538	1442.08
853.717	1530.04
853.896	1388.22
854.075	1353.92
854.254	1331.45
854.433	1284.56
854.611	1325.05
854.79	1268.67
854.969	1312.85
855.148	1336.87
855.327	1280.49
855.505	1367.68
855.684	1357.41
855.863	1363.8
856.041	1315.37
856.22	1398.68
856.399	1364.19
856.577	1458.93
856.756	1442.46
856.934	1519.58
857.113	1515.31
857.291	1457.38
857.47	1421.54
857.648	1439.17
857.827	1428.51
858.005	1487.41
858.184	1426.58
858.362	1475.01
858.541	1451.38
858.719	1407.78
858.898	1433.75
859.076	1409.53
859.254	1487.8
859.433	1435.49
859.611	1413.6
859.789	1366.71
859.967	1458.93
860.146	1465.71
860.324	1374.85
860.502	1367.68
860.68	1343.07
860.859	1362.45
861.037	1344.82
861.215	1376.59
861.393	1370.58
861.571	1392.48
861.749	1383.18
861.927	1376.01
862.105	1394.41
862.283	1361.67
862.461	1350.82
862.639	1334.74
862.817	1326.22
862.995	1381.43
863.173	1340.17
863.351	1379.69
863.529	1359.93
863.707	1381.63
863.885	1346.75
864.063	1298.32
864.241	1353.15
864.418	1394.8
864.596	1355.67
864.774	1264.41
864.952	1339.2
865.129	1333.58
865.307	1274.1
865.485	1238.45
865.663	1333.77
865.84	1243.87
866.018	1249.3
866.196	1126.66
866.373	1169.47
866.551	1154.36
866.728	1075.89
866.906	1143.51
867.084	1140.02
867.261	1157.85
867.439	1198.73
867.616	1223.34
867.794	1210.94
867.971	1203.96
868.149	1222.75
868.326	1277.59
868.503	1256.27
868.681	1229.15
868.858	1215.01
869.035	1180.71
869.213	1270.61
869.39	1230.31
869.567	1299.09
869.745	1223.34
869.922	1231.47
870.099	1230.89
870.276	1249.69
870.454	1243.49
870.631	1251.62
870.808	1228.37
870.985	1219.46
871.162	1259.18
871.339	1233.6
871.517	1159.01
871.694	1193.89
871.871	1215.39
872.048	1169.28
872.225	1215.2
872.402	1189.62
872.579	1113.09
872.756	1197.57
872.933	1164.44
873.11	1196.99
873.287	1167.34
873.463	1158.82
873.64	1171.8
873.817	1200.09
873.994	1137.31
874.171	1148.55
874.348	1160.17
874.524	1099.92
874.701	1170.64
874.878	1108.25
875.055	1148.36
875.231	1134.79
875.408	1142.35
875.585	1086.36
875.762	1101.66
875.938	1117.74
876.115	1111.35
876.291	1112.71
876.468	1102.83
876.645	1075.51
876.821	1087.33
876.998	1086.74
877.174	1117.16
877.351	1104.18
877.527	1096.63
877.704	1083.26
877.88	1106.12
878.057	1091.59
878.233	1128.01
878.409	1077.06
878.586	1097.79
878.762	1038.11
878.938	1069.11
879.115	987.55
879.291	1061.75
879.467	1009.05
879.644	1022.42
879.82	1077.83
879.996	1025.91
880.172	992.97
880.349	1035.6
880.525	1067.37
880.701	1022.03
880.877	995.68
881.053	1030.56
881.229	1026.3
881.405	1053.81
881.581	991.03
881.757	1024.94
881.933	1038.89
882.109	1046.83
882.285	1000.53
882.461	970.3
882.637	1007.5
882.813	984.83
882.989	1005.37
883.165	1074.54
883.341	991.23
883.517	1058.26
883.693	1047.99
883.869	1062.72
884.044	1000.53
884.22	1034.24
884.396	1065.63
884.572	1007.5
884.747	1053.23
884.923	1038.89
885.099	1071.44
885.275	1063.69
885.45	1013.31
885.626	975.15
885.801	973.98
885.977	1007.5
886.153	948.6
886.328	1021.84
886.504	979.02
886.679	1024.75
886.855	990.26
887.03	1007.89
887.206	1056.52
887.381	1022.03
887.557	1027.85
887.732	1007.31
887.908	1056.71
888.083	1075.51
888.258	1001.88
888.434	966.81
888.609	1007.11
888.784	1072.6
888.96	1003.63
889.135	1017.19
889.31	983.48
889.485	1013.51
889.661	1003.82
889.836	1052.84
890.011	1022.03
890.186	1001.88
890.361	998.4
890.537	1019.32
890.712	1006.92
890.887	1012.73
891.062	1002.46
891.237	1079.96
891.412	1001.88
891.587	998.2
891.762	1027.46
891.937	1103.99
892.112	955.96
892.287	1001.3
892.462	964.68
892.637	955.38
892.812	915.28
892.987	948.99
893.161	898.23
893.336	916.63
893.511	927.1
893.686	913.73
893.861	924.58
894.035	901.33
894.21	953.83
894.385	885.05
894.56	930.78
894.734	843.59
894.909	848.44
895.084	840.3
895.258	801.35
895.433	840.1
895.608	805.81
895.782	767.45
895.957	778.11
896.131	769.39
896.306	717.85
896.48	712.42
896.655	708.74
896.829	624.46
897.004	664.38
897.178	669.03
897.353	646.94
897.527	691.31
897.701	674.06
897.876	603.54
898.05	734.12
898.224	673.09
898.399	704.87
898.573	667.86
898.747	564.4
898.921	619.81
899.096	539.02
899.27	536.5
899.444	539.02
899.618	574.09
899.792	622.33
899.967	586.3
900.141	623.11
900.315	548.51
900.489	562.46
900.663	628.53
900.837	590.56
901.011	529.91
901.185	631.63
901.359	568.28
901.533	576.22
901.707	585.91
901.881	584.55
902.055	530.69
902.229	552.39
902.403	606.83
902.576	588.43
902.75	604.7
902.924	700.41
903.098	661.08
903.272	662.44
903.446	712.42
903.619	672.9
903.793	731.22
903.967	715.14
904.14	757.76
904.314	760.09
904.488	733.54
904.661	769.77
904.835	747.49
905.009	774.62
905.182	801.94
905.356	777.14
905.529	735.48
905.703	717.27
905.876	711.26
906.05	681.81
906.223	663.6
906.397	616.13
906.57	582.03
906.744	586.88
906.917	586.1
907.09	584.75
907.264	566.15
907.437	536.5
907.61	522.16
907.784	535.15
907.957	560.72
908.13	513.64
908.304	562.85
908.477	493.68
908.65	536.11
908.823	487.48
908.996	550.65
909.17	492.72
909.343	518.48
909.516	529.53
909.689	501.82
909.862	466.75
910.035	508.22
910.208	456.68
910.381	447.38
910.554	590.17
910.727	526.81
910.9	487.48
911.073	470.63
911.246	551.81
911.419	569.83
911.592	526.23
911.765	503.95
911.938	486.71
912.11	482.25
912.283	506.86
912.456	545.22
912.629	512.87
912.802	475.47
912.974	411.92
913.147	413.86
913.32	375.69
913.493	390.42
913.665	430.72
913.838	423.94
914.01	415.22
914.183	434.01
914.356	433.04
914.528	493.68
914.701	508.6
914.873	480.32
915.046	431.88
915.218	396.23
915.391	343.53
915.563	364.45
915.736	425.68
915.908	440.02
916.081	428.78
916.253	420.45
916.425	420.06
916.598	469.66
916.77	431.3
916.942	440.79
917.115	333.84
917.287	421.03
917.459	401.27
917.632	365.23
917.804	305.36
917.976	386.54
918.148	414.05
918.32	427.62
918.493	459
918.665	466.95
918.837	443.89
919.009	515
919.181	504.92
919.353	465.4
919.525	457.65
919.697	454.16
919.869	474.31
920.041	517.13
920.213	571.38
920.385	510.15
920.557	489.03
920.729	494.27
920.901	486.52
921.073	461.33
921.244	452.61
921.416	494.85
921.588	481.87
921.76	482.45
921.932	531.66
922.103	463.65
922.275	462.68
922.447	470.24
922.619	379.76
922.79	424.13
922.962	454.55
923.134	497.37
923.305	406.89
923.477	411.92
923.648	407.66
923.82	436.53
923.991	341.59
924.163	383.05
924.335	431.88
924.506	347.6
924.677	428.59
924.849	374.53
925.02	393.52
925.192	436.53
925.363	417.35
925.535	423.55
925.706	389.06
925.877	446.8
926.049	406.89
926.22	419.09
926.391	393.13
926.562	420.25
926.734	380.73
926.905	443.12
927.076	341.59
927.247	372.79
927.419	329.58
927.59	307.11
927.761	331.52
927.932	314.08
928.103	344.5
928.274	264.48
928.445	279.98
928.616	287.15
928.787	285.02
928.958	278.04
929.129	251.69
929.3	257.12
929.471	249.76
929.642	195.7
929.813	143.78
929.984	243.17
930.155	169.54
930.326	214.49
930.496	184.46
930.667	136.03
930.838	170.9
931.009	145.13
931.18	144.55
931.35	151.53
931.521	149.01
931.692	104.64
931.863	73.45
932.033	116.65
932.204	134.86
932.374	112
932.545	107.74
932.716	143.39
932.886	128.86
933.057	29.47
933.227	53.1
933.398	130.41
933.568	47.87
933.739	17.84
933.909	40.51
934.08	77.32
934.25	10.67
934.421	31.6
934.591	40.9
934.761	32.76
934.932	-4.63
935.102	29.08
935.272	53.1
935.443	51.94
935.613	50.2
935.783	45.16
935.953	-17.81
936.123	173.42
936.294	12.42
936.464	26.37
936.634	37.02
936.804	2.34
936.974	16.29
937.144	49.23
937.314	55.62
937.484	29.85
937.655	3.5
937.825	74.8
937.995	13.38
938.165	85.65
938.334	57.75
938.504	68.99
938.674	33.53
938.844	29.66
939.014	105.22
939.184	115.1
939.354	147.46
939.524	113.75
939.694	71.32
939.863	88.75
940.033	141.26
940.203	110.84
940.373	103.86
940.542	127.11
940.712	90.3
940.882	132.73
941.051	118.4
941.221	130.6
941.391	101.54
941.56	69.96
941.73	69.57
941.899	169.74
942.069	95.34
942.238	85.85
942.408	67.63
942.577	91.27
942.747	78.1
942.916	23.46
943.086	42.25
943.255	100.38
943.425	88.75
943.594	60.27
943.763	15.13
943.933	24.04
944.102	0.79
944.271	36.63
944.441	77.52
944.61	69.57
944.779	61.05
944.948	137.58
945.117	20.36
945.287	35.67
945.456	-19.16
945.625	27.92
945.794	68.41
945.963	24.82
946.132	52.91
946.301	49.81
946.47	86.81
946.639	4.67
946.808	42.45
946.977	92.82
947.146	105.61
947.315	52.91
947.484	74.42
947.653	71.7
947.822	69.57
947.991	28.5
948.16	127.11
948.329	132.73
948.498	71.7
948.666	79.07
948.835	99.6
949.004	49.81
949.173	39.35
949.341	82.36
949.51	68.8
949.679	102.12
949.847	83.52
950.016	123.63
950.185	133.31
950.353	72.67
950.522	51.55
950.69	118.78
950.859	53.3
951.028	99.21
951.196	75.77
951.365	34.7
951.533	48.84
951.701	99.8
951.87	108.13
952.038	20.55
952.207	83.13
952.375	104.64
952.543	39.35
952.712	73.83
952.88	44.77
953.048	109.1
953.217	53.1
953.385	65.5
953.553	112
953.721	19.2
953.89	60.66
954.058	31.79
954.226	34.5
954.394	72.67
954.562	11.25
954.73	69.38
954.898	51.94
955.067	74.42
955.235	70.54
955.403	96.5
955.571	126.15
955.739	101.54
955.907	53.88
956.075	78.68
956.243	23.07
956.41	98.44
956.578	18.81
956.746	11.64
956.914	35.47
957.082	92.82
957.25	96.7
957.418	40.9
957.585	71.9
957.753	93.4
957.921	44.77
958.089	73.25
958.256	95.34
958.424	102.7
958.592	86.62
958.759	34.12
958.927	56.59
959.095	35.67
959.262	44.77
959.43	57.75
959.597	49.62
959.765	62.6
959.932	32.76
960.1	122.85
960.267	66.08
960.435	72.28
960.602	105.22
960.77	68.6
960.937	48.65
961.104	86.81
961.272	40.7
961.439	49.03
961.606	85.26
961.774	98.63
961.941	58.53
962.108	97.86
962.275	92.05
962.443	115.1
962.61	95.34
962.777	125.76
962.944	104.06
963.111	128.28
963.278	77.52
963.446	96.5
963.613	88.56
963.78	106.19
963.947	115.88
964.114	103.09
964.281	159.86
964.448	87.78
964.615	67.05
964.782	93.6
964.949	121.69
965.116	115.1
965.282	126.73
965.449	85.85
965.616	37.8
965.783	99.8
965.95	125.95
966.117	72.87
966.283	117.62
966.45	81.78
966.617	100.18
966.784	115.1
966.95	117.23
967.117	117.23
967.284	76.93
967.45	104.64
967.617	121.69
967.784	130.8
967.95	178.84
968.117	94.76
968.283	122.85
968.45	189.89
968.616	106.38
968.783	134.48
968.949	95.53
969.116	153.66
969.282	108.32
969.449	113.36
969.615	93.6
969.781	62.98
969.948	87.98
970.114	104.25
970.28	162.18
970.447	107.16
970.613	164.9
970.779	114.33
970.945	119.17
971.112	113.75
971.278	106
971.444	89.53
971.61	173.42
971.776	92.82
971.942	138.55
972.108	141.65
972.275	115.49
972.441	103.86
972.607	167.61
972.773	108.9
972.939	119.95
973.105	94.56
973.271	72.87
973.437	69.38
973.602	90.5
973.768	123.43
973.934	85.26
974.1	111.42
974.266	36.63
974.432	96.31
974.598	71.7
974.763	130.99
974.929	91.66
975.095	131.57
975.261	73.64
975.426	75.97
975.592	119.56
975.758	142.61
975.923	50.97
976.089	79.26
976.255	115.1
976.42	75.19
976.586	101.35
976.751	123.82
976.917	179.81
977.082	117.23
977.248	60.66
977.413	20.75
977.579	103.86
977.744	113.55
977.91	52.72
978.075	54.85
978.24	124.98
978.406	72.28
978.571	81.39
978.736	59.88
978.902	129.44
979.067	47.48
979.232	41.48
979.397	96.89
979.563	134.28
979.728	58.14
979.893	105.41
980.058	75.38
980.223	115.49
980.388	86.62
980.554	103.09
980.719	70.15
980.884	96.11
981.049	116.85
981.214	75.77
981.379	113.75
981.544	91.27
981.709	114.52
981.874	95.92
982.039	97.08
982.204	124.98
982.368	88.36
982.533	66.86
982.698	150.95
982.863	122.27
983.028	72.09
983.193	103.48
983.357	112
983.522	96.5
983.687	79.45
983.852	102.31
984.016	90.5
984.181	72.67
984.346	103.48
984.51	102.12
984.675	85.07
984.839	94.37
985.004	115.3
985.168	139.13
985.333	110.45
985.498	89.91
985.662	126.73
985.827	128.28
985.991	104.83
986.155	93.79
986.32	119.75
986.484	145.91
986.649	105.22
986.813	40.51
986.977	116.07
987.142	75.58
987.306	53.1
987.47	62.02
987.634	79.26
987.799	95.53
987.963	100.76
988.127	119.75
988.291	149.59
988.455	98.25
988.62	84.1
988.784	112.2
988.948	143.58
989.112	46.32
989.276	105.8
989.44	82.94
989.604	69.57
989.768	67.83
989.932	161.6
990.096	73.64
990.26	65.31
990.424	64.15
990.588	94.18
990.752	138.55
990.915	110.26
991.079	74.22
991.243	74.61
991.407	120.72
991.571	53.1
991.734	120.33
991.898	112.97
992.062	172.26
992.226	84.1
992.389	61.43
992.553	40.32
992.717	57.17
992.88	62.21
993.044	92.05
993.207	78.68
993.371	117.04
993.535	85.65
993.698	69.96
993.862	96.31
994.025	92.43
994.189	95.34
994.352	81.78
994.515	72.87
994.679	113.36
994.842	71.32
995.006	110.06
995.169	36.25
995.332	66.28
995.496	96.5
995.659	41.28
995.822	64.15
995.985	52.72
996.149	110.65
996.312	78.48
996.475	135.25
996.638	66.86
996.801	95.92
996.964	151.72
997.128	64.92
997.291	73.45
997.454	71.12
997.617	36.63
997.78	109.1
997.943	65.31
998.106	116.85
998.269	31.98
998.432	70.15
998.595	72.48
998.758	25.98
998.92	37.6
999.083	24.82
999.246	58.92
999.409	52.91
999.572	10.48
999.735	74.42
999.897	90.69
1000.06	41.48
1000.223	68.99
1000.386	108.51
1000.548	64.92
1000.711	69.38
1000.874	75.19
1001.036	38.77
1001.199	78.68
1001.361	56.98
1001.524	81.78
1001.687	81.78
1001.849	35.67
1002.012	84.3
1002.174	72.28
1002.337	86.62
1002.499	44.58
1002.661	98.83
1002.824	32.18
1002.986	19.58
1003.149	73.25
1003.311	39.15
1003.473	114.91
1003.636	53.1
1003.798	96.89
1003.96	83.71
1004.123	47.87
1004.285	35.67
1004.447	36.83
1004.609	49.03
1004.771	125.18
1004.933	24.43
1005.096	27.14
1005.258	13.97
1005.42	29.08
1005.582	97.86
1005.744	65.31
1005.906	3.7
1006.068	54.07
1006.23	2.15
1006.392	-3.67
1006.554	18.81
1006.716	111.61
1006.878	74.8
1007.04	-1.53
1007.202	20.55
1007.363	36.05
1007.525	62.21
1007.687	71.51
1007.849	99.99
1008.011	17.07
1008.172	32.18
1008.334	25.2
1008.496	67.05
1008.658	14.55
1008.819	36.83
1008.981	12.03
1009.143	40.12
1009.304	23.07
1009.466	63.76
1009.627	86.04
1009.789	157.73
1009.95	46.52
1010.112	23.65
1010.273	60.66
1010.435	49.81
1010.596	40.9
1010.758	30.63
1010.919	29.47
1011.081	11.06
1011.242	6.8
1011.403	72.48
1011.565	38.96
1011.726	43.22
1011.887	-11.61
1012.049	36.83
1012.21	50.97
1012.371	94.18
1012.532	-33.7
1012.693	34.89
1012.855	25.78
1013.016	49.81
1013.177	69.18
1013.338	33.53
1013.499	66.47
1013.66	57.75
1013.821	84.3
1013.982	59.88
1014.143	28.11
1014.304	0.98
1014.465	37.02
1014.626	56.98
1014.787	23.07
1014.948	112.39
1015.109	-19.75
1015.27	82.55
1015.431	17.45
1015.592	4.47
1015.752	79.07
1015.913	47.29
1016.074	62.4
1016.235	10.28
1016.395	41.67
1016.556	38.57
1016.717	17.26
1016.877	47.29
1017.038	-13.16
1017.199	42.83
1017.359	45.35
1017.52	42.64
1017.681	29.66
1017.841	42.25
1018.002	18.62
1018.162	11.06
1018.323	77.13
1018.483	31.6
1018.644	12.03
1018.804	-12.58
1018.964	-9.28
1019.125	14.16
1019.285	49.62
1019.446	13.97
1019.606	17.26
1019.766	-18
1019.926	53.3
1020.087	28.5
1020.247	-22.46
1020.407	23.46
1020.567	56.4
1020.728	29.08
1020.888	-24.01
1021.048	-8.9
1021.208	-20.91
1021.368	7.77
1021.528	73.25
1021.688	35.28
1021.848	30.24
1022.008	15.32
1022.168	40.51
1022.328	25.01
1022.488	40.51
1022.648	6.02
1022.808	21.13
1022.968	55.04
1023.128	18.62
1023.288	5.25
1023.448	25.01
1023.608	55.04
1023.767	40.51
1023.927	-21.3
1024.087	-26.72
1024.247	-5.41
1024.406	-0.57
1024.566	-8.31
1024.726	-0.37
1024.885	35.67
1025.045	55.82
1025.205	31.4
1025.364	6.99
1025.524	14.16
1025.683	19.58
1025.843	22.68
1026.003	20.17
1026.162	61.63
1026.321	46.13
1026.481	21.13
1026.64	0.98
1026.8	25.2
1026.959	13.77
1027.119	27.53
1027.278	26.75
1027.437	13.38
1027.597	18.23
1027.756	45.16
1027.915	11.06
1028.074	51.75
1028.234	-5.8
1028.393	28.5
1028.552	28.5
1028.711	-56.95
1028.87	62.02
1029.03	-21.49
1029.189	3.31
1029.348	-16.84
1029.507	-11.8
1029.666	4.86
1029.825	-2.89
1029.984	18.42
1030.143	12.22
1030.302	-6.18
1030.461	-37.57
1030.62	0.6
1030.779	30.63
1030.938	3.5
1031.097	-14.71
1031.255	18.81
1031.414	55.82
1031.573	52.52
1031.732	-45.51
1031.891	-0.76
1032.049	61.24
1032.208	24.82
1032.367	-28.46
1032.525	5.83
1032.684	17.26
1032.843	31.6
1033.001	-55.01
1033.16	172.45
1033.319	46.13
1033.477	38.77
1033.636	-13.16
1033.794	-33.11
1033.953	28.11
1034.111	38.77
1034.27	-1.15
1034.428	14.35
1034.587	3.7
1034.745	5.25
1034.903	3.5
1035.062	37.02
1035.22	-34.47
1035.378	52.33
1035.537	-7.15
1035.695	32.37
1035.853	-9.48
1036.011	37.6
1036.17	7.96
1036.328	-23.62
1036.486	15.9
1036.644	13
1036.802	-69.54
1036.96	-19.36
1037.119	-12.77
1037.277	-25.36
1037.435	-35.05
1037.593	-27.11
1037.751	-6.38
1037.909	35.86
1038.067	35.86
