Data from oakcork_FLMT105791__219__17-32-50-055.txt Node

Date: Mon Mar 20 17:32:50 GMT 2023
User: antho
Spectrometer: FLMT10579
Trigger mode: 0
Integration Time (sec): 1.000000E-1
Scans to average: 10
Electric dark correction enabled: true
Nonlinearity correction enabled: false
Boxcar width: 0
XAxis mode: Wavelengths
Number of Pixels in Spectrum: 3648
>>>>>Begin Spectral Data<<<<<
345.248	-139.37
345.464	-139.37
345.681	-139.37
345.898	-154.87
346.114	-123.87
346.331	-24.28
346.548	19.7
346.764	12.14
346.981	-24.86
347.197	-6.07
347.414	17.18
347.631	-16.15
347.847	46.82
348.064	7.88
348.28	12.92
348.497	-26.61
348.713	-18.66
348.93	31.52
349.146	25.9
349.363	13.69
349.579	26.67
349.796	22.02
350.012	3.23
350.229	33.26
350.445	-11.11
350.661	11.56
350.878	2.26
351.094	5.36
351.311	18.73
351.527	-0.45
351.743	0.9
351.96	19.12
352.176	44.11
352.392	15.24
352.609	27.64
352.825	-8.98
353.041	2.26
353.257	-0.65
353.474	17.95
353.69	13.89
353.906	31.13
354.122	-24.28
354.339	47.79
354.555	3.81
354.771	-17.11
354.987	76.27
355.203	59.8
355.42	-12.66
355.636	4.2
355.852	-18.47
356.068	43.92
356.284	-6.65
356.5	57.09
356.716	15.82
356.932	22.41
357.148	69.68
357.364	23.19
357.58	29.38
357.796	73.37
358.012	53.8
358.228	16.4
358.444	-62.06
358.66	80.53
358.876	19.31
359.092	-1.42
359.308	11.75
359.524	26.48
359.74	-7.23
359.956	12.53
360.172	5.17
360.388	42.17
360.604	-14.79
360.819	93.32
361.035	8.46
361.251	29.38
361.467	-18.47
361.683	60
361.898	29.97
362.114	37.91
362.33	47.21
362.546	48.95
362.762	19.7
362.977	32.68
363.193	-4.52
363.409	33.26
363.624	3.23
363.84	13.3
364.056	-3.36
364.271	31.9
364.487	31.71
364.703	-2
364.918	3.04
365.134	10.2
365.35	2.84
365.565	98.94
365.781	38.68
365.996	71.62
366.212	72.98
366.427	31.32
366.643	-4.52
366.858	11.37
367.074	-15.56
367.289	61.93
367.505	104.17
367.72	-17.7
367.936	-1.61
368.151	71.23
368.367	45.66
368.582	29.38
368.798	1.29
369.013	72.01
369.228	27.25
369.444	12.92
369.659	52.83
369.874	47.4
370.09	43.14
370.305	-17.7
370.52	19.12
370.736	61.35
370.951	-3.94
371.166	56.51
371.381	73.75
371.597	70.46
371.812	20.09
372.027	-16.92
372.242	3.23
372.458	94.29
372.673	6.14
372.888	39.85
373.103	32.29
373.318	113.86
373.533	45.47
373.749	40.62
373.964	-17.7
374.179	47.98
374.394	-2.2
374.609	77.43
374.824	-16.34
375.039	86.73
375.254	13.5
375.469	84.8
375.684	45.47
375.899	84.22
376.114	36.75
376.329	42.17
376.544	31.71
376.759	38.3
376.974	11.75
377.189	40.43
377.404	0.13
377.619	61.35
377.834	-18.28
378.049	22.8
378.264	-16.92
378.478	22.6
378.693	18.73
378.908	66.39
379.123	30.35
379.338	55.93
379.553	58.45
379.767	20.28
379.982	49.92
380.197	34.03
380.412	30.74
380.626	42.37
380.841	85.18
381.056	31.9
381.271	81.5
381.485	12.72
381.7	0.9
381.915	64.45
382.129	17.95
382.344	47.21
382.559	15.24
382.773	78.4
382.988	-4.33
383.202	51.28
383.417	-16.53
383.632	106.88
383.846	25.12
384.061	36.36
384.275	19.89
384.49	60.38
384.704	66
384.919	48.76
385.133	17.37
385.348	53.22
385.562	-11.3
385.777	67.75
385.991	36.75
386.206	11.17
386.42	16.6
386.634	62.71
386.849	40.82
387.063	31.13
387.277	-0.45
387.492	1.87
387.706	1.1
387.92	10.01
388.135	58.45
388.349	63.87
388.563	42.37
388.778	59.03
388.992	67.94
389.206	89.83
389.42	108.24
389.635	24.93
389.849	70.46
390.063	74.33
390.277	32.1
390.491	104.56
390.706	42.37
390.92	66.2
391.134	29.38
391.348	80.15
391.562	3.62
391.776	56.32
391.99	29.38
392.205	84.6
392.419	29.58
392.633	35.97
392.847	73.17
393.061	18.54
393.275	104.75
393.489	36.55
393.703	50.89
393.917	66.39
394.131	30.16
394.345	75.5
394.559	84.8
394.773	34.23
394.986	56.7
395.2	40.62
395.414	73.37
395.628	18.15
395.842	59.61
396.056	42.75
396.27	-6.85
396.484	54.77
396.697	59.22
396.911	70.07
397.125	40.23
397.339	66.2
397.553	67.17
397.766	124.51
397.98	67.94
398.194	86.93
398.408	61.35
398.621	66.97
398.835	81.89
399.049	60.58
399.262	98.55
399.476	87.7
399.69	79.18
399.903	106.11
400.117	62.32
400.331	84.6
400.544	42.95
400.758	142.15
400.971	67.55
401.185	101.27
401.398	38.88
401.612	118.7
401.826	76.85
402.039	101.07
402.253	51.28
402.466	112.5
402.68	80.73
402.893	80.53
403.106	103.01
403.32	89.64
403.533	106.5
403.747	80.15
403.96	81.12
404.174	93.32
404.387	30.93
404.6	67.55
404.814	109.79
405.027	89.45
405.24	71.62
405.454	87.51
405.667	105.72
405.88	43.14
406.094	67.17
406.307	109.6
406.52	78.98
406.733	72.2
406.947	32.48
407.16	118.12
407.373	137.3
407.586	38.49
407.799	48.95
408.012	124.71
408.226	108.43
408.439	113.47
408.652	49.92
408.865	82.47
409.078	133.62
409.291	111.53
409.504	46.63
409.717	114.63
409.93	98.94
410.143	103.2
410.357	46.43
410.57	63.68
410.783	66.39
410.996	99.91
411.209	101.65
411.421	159.58
411.634	97.2
411.847	59.61
412.06	86.73
412.273	68.72
412.486	102.43
412.699	177.21
412.912	79.57
413.125	116.76
413.338	110.37
413.55	107.27
413.763	100.3
413.976	106.88
414.189	74.53
414.402	101.46
414.615	169.08
414.827	62.71
415.04	108.82
415.253	107.66
415.466	154.55
415.678	158.03
415.891	109.21
416.104	108.63
416.316	108.05
416.529	105.92
416.742	126.26
416.954	146.99
417.167	119.09
417.38	76.08
417.592	124.32
417.805	75.5
418.017	72.2
418.23	121.8
418.442	97.39
418.655	84.41
418.868	139.63
419.08	133.23
419.293	147.38
419.505	99.33
419.718	131.3
419.93	169.46
420.142	103.4
420.355	149.9
420.567	158.42
420.78	130.71
420.992	120.83
421.205	178.38
421.417	95.07
421.629	121.41
421.842	101.07
422.054	75.69
422.266	108.63
422.479	153.58
422.691	85.18
422.903	146.6
423.115	107.08
423.328	98.55
423.54	126.65
423.752	118.31
423.964	91.97
424.177	111.15
424.389	121.61
424.601	222.36
424.813	138.46
425.025	150.28
425.238	168.3
425.45	149.7
425.662	98.75
425.874	398.09
426.086	100.3
426.298	144.66
426.51	137.69
426.722	116.18
426.934	141.37
427.146	167.14
427.358	109.4
427.57	160.75
427.782	127.42
427.994	128.78
428.206	117.54
428.418	78.6
428.63	152.22
428.842	119.67
429.054	152.41
429.266	149.7
429.478	121.41
429.69	116.18
429.902	67.17
430.114	171.21
430.325	134.78
430.537	108.82
430.749	105.14
430.961	71.04
431.173	134.78
431.384	147.57
431.596	62.9
431.808	101.07
432.02	122.96
432.231	203.37
432.443	178.38
432.655	131.68
432.867	129.55
433.078	147.57
433.29	203.18
433.502	169.85
433.713	186.13
433.925	172.56
434.136	196.98
434.348	128.39
434.56	100.3
434.771	229.14
434.983	113.08
435.194	141.56
435.406	171.79
435.617	166.36
435.829	214.61
436.04	194.65
436.252	181.67
436.463	202.6
436.675	188.45
436.886	181.09
437.098	172.18
437.309	253.94
437.521	191.55
437.732	188.06
437.943	176.83
438.155	186.71
438.366	138.85
438.578	211.12
438.789	161.52
439	209.18
439.211	151.25
439.423	194.07
439.634	198.91
439.845	208.21
440.057	179.35
440.268	218.68
440.479	163.65
440.69	184
440.902	181.86
441.113	199.11
441.324	197.95
441.535	199.3
441.746	260.91
441.957	160.36
442.168	170.05
442.38	214.61
442.591	223.91
442.802	191.94
443.013	168.88
443.224	219.45
443.435	185.16
443.646	207.83
443.857	174.11
444.068	204.14
444.279	177.21
444.49	234.76
444.701	228.56
444.912	297.53
445.123	244.44
445.334	229.72
445.545	204.53
445.756	201.63
445.967	216.93
446.178	241.73
446.388	222.94
446.599	246.38
446.81	238.44
447.021	193.1
447.232	272.73
447.443	254.33
447.653	219.26
447.864	236.89
448.075	227.98
448.286	242.31
448.496	239.02
448.707	272.73
448.918	229.33
449.129	319.04
449.339	214.61
449.55	255.49
449.761	225.46
449.971	284.36
450.182	220.81
450.393	284.55
450.603	206.47
450.814	289.39
451.024	265.37
451.235	284.36
451.446	298.5
451.656	300.63
451.867	226.23
452.077	271.57
452.288	300.82
452.498	298.11
452.709	236.31
452.919	253.94
453.13	218.68
453.34	289.59
453.55	183.41
453.761	292.3
453.971	240.96
454.182	302.37
454.392	275.64
454.602	307.61
454.813	266.34
455.023	305.47
455.233	214.99
455.444	252.19
455.654	208.6
455.864	263.82
456.075	252.78
456.285	260.33
456.495	285.52
456.705	288.81
456.916	288.81
457.126	337.25
457.336	253.36
457.546	224.29
457.756	244.44
457.967	292.3
458.177	288.23
458.387	274.67
458.597	241.15
458.807	285.91
459.017	285.13
459.227	273.51
459.437	241.34
459.647	296.76
459.857	309.93
460.068	257.04
460.278	314.19
460.488	306.44
460.698	327.56
460.908	267.89
461.117	255.29
461.327	261.88
461.537	283.39
461.747	304.7
461.957	300.82
462.167	401.96
462.377	306.25
462.587	272.93
462.797	326.21
463.007	301.79
463.216	327.76
463.426	339.38
463.636	330.47
463.846	267.89
464.056	270.41
464.265	368.44
464.475	303.73
464.685	300.44
464.895	303.73
465.104	294.82
465.314	327.76
465.524	305.86
465.733	264.21
465.943	350.81
466.153	371.54
466.362	358.56
466.572	331.44
466.782	306.83
466.991	308.38
467.201	363.79
467.41	281.84
467.62	333.76
467.829	300.44
468.039	348.29
468.249	307.22
468.458	319.04
468.668	348.68
468.877	364.57
469.086	371.35
469.296	363.99
469.505	325.43
469.715	403.7
469.924	385.3
470.134	384.91
470.343	369.99
470.552	315.55
470.762	337.64
470.971	310.51
471.18	352.17
471.39	345.19
471.599	343.06
471.808	383.75
472.018	357.01
472.227	385.3
472.436	408.16
472.645	365.54
472.855	344.22
473.064	390.92
473.273	392.08
473.482	394.4
473.691	409.52
473.901	418.24
474.11	367.28
474.319	482.17
474.528	393.63
474.737	427.15
474.946	415.33
475.155	397.89
475.364	436.25
475.573	400.02
475.783	424.44
475.992	424.44
476.201	417.65
476.41	413.59
476.619	356.62
476.828	448.27
477.037	372.71
477.245	420.37
477.454	452.53
477.663	425.21
477.872	411.65
478.081	479.85
478.29	371.93
478.499	493.02
478.708	466.87
478.917	483.33
479.125	434.51
479.334	482.17
479.543	428.7
479.752	454.47
479.961	500.77
480.169	485.66
480.378	489.15
480.587	568.97
480.796	484.5
481.004	459.5
481.213	498.25
481.422	475
481.63	463.57
481.839	517.82
482.048	534.29
482.256	501.16
482.465	516.66
482.674	532.93
482.882	545.33
483.091	581.56
483.299	501.55
483.508	562.38
483.716	519.95
483.925	540.3
484.134	501.35
484.342	523.25
484.551	552.89
484.759	557.15
484.967	558.9
485.176	593.19
485.384	563.74
485.593	583.31
485.801	549.6
486.01	525.96
486.218	499.22
486.426	470.55
486.635	463.77
486.843	483.53
487.051	520.34
487.26	522.86
487.468	549.02
487.676	544.56
487.885	505.23
488.093	561.41
488.301	569.55
488.509	558.7
488.717	575.17
488.926	563.93
489.134	587.96
489.342	592.03
489.55	562.19
489.758	603.65
489.967	566.84
490.175	655.58
490.383	588.35
490.591	663.91
490.799	602.49
491.007	684.25
491.215	621.28
491.423	610.05
491.631	614.7
491.839	645.31
492.047	645.89
492.255	550.37
492.463	570.13
492.671	605.2
492.879	630.58
493.087	638.53
493.295	651.51
493.503	649.18
493.711	672.43
493.919	684.06
494.127	667.78
494.334	672.04
494.542	605.59
494.75	656.35
494.958	652.67
495.166	687.54
495.374	656.35
495.581	667.39
495.789	705.56
495.997	715.83
496.205	696.46
496.412	679.99
496.62	668.17
496.828	688.51
497.035	689.68
497.243	707.11
497.451	669.91
497.658	719.71
497.866	691.42
498.074	748.57
498.281	650.73
498.489	752.06
498.696	697.81
498.904	667.2
499.112	711.57
499.319	720.48
499.527	716.41
499.734	770.86
499.942	665.65
500.149	665.26
500.357	734.82
500.564	649.57
500.771	711.38
500.979	680.38
501.186	689.29
501.394	700.72
501.601	688.51
501.808	722.03
502.016	708.66
502.223	704.21
502.43	687.93
502.638	693.94
502.845	677.66
503.052	754.97
503.26	682.7
503.467	759.62
503.674	703.43
503.881	735.59
504.089	798.95
504.296	758.65
504.503	675.92
504.71	701.3
504.917	692.39
505.125	752.64
505.332	726.49
505.539	749.16
505.746	799.92
505.953	797.21
506.16	794.69
506.367	837.5
506.574	824.33
506.781	834.79
506.988	748.57
507.195	785.77
507.402	751.48
507.609	832.27
507.816	760.2
508.023	760.01
508.23	781.12
508.437	760.78
508.644	791.78
508.851	829.75
509.058	829.95
509.265	814.06
509.472	834.99
509.679	902.41
509.885	824.91
510.092	822
510.299	803.99
510.506	821.23
510.713	827.82
510.92	809.8
511.126	828.01
511.333	883.23
511.54	835.57
511.746	892.92
511.953	891.95
512.16	902.8
512.367	834.99
512.573	853.2
512.78	825.69
512.987	863.08
513.193	866.76
513.4	800.69
513.606	851.84
513.813	864.63
514.02	872.77
514.226	929.92
514.433	920.23
514.639	861.14
514.846	891.95
515.052	859.98
515.259	852.81
515.465	869.86
515.672	905.32
515.878	951.23
516.085	892.92
516.291	927.02
516.497	885.94
516.704	834.4
516.91	840.6
517.117	823.36
517.323	767.56
517.529	812.71
517.736	820.65
517.942	838.28
518.148	823.75
518.354	875.09
518.561	878
518.767	857.27
518.973	868.12
519.179	934.18
519.386	860.56
519.592	900.28
519.798	882.45
520.004	966.73
520.21	892.72
520.417	952.01
520.623	947.94
520.829	989.21
521.035	985.92
521.241	950.85
521.447	993.08
521.653	1108.75
521.859	999.86
522.065	1049.27
522.271	1106.62
522.477	1044.81
522.683	1060.31
522.889	1047.53
523.095	1057.99
523.301	1045.59
523.507	1015.56
523.713	1032.61
523.919	1000.64
524.125	1093.83
524.331	1073.88
524.537	1144.21
524.742	1121.93
524.948	1111.46
525.154	1117.66
525.36	1228.68
525.566	1150.21
525.772	1171.14
525.977	1110.49
526.183	1181.41
526.389	1200.59
526.595	1097.32
526.8	1104.88
527.006	1059.73
527.212	1043.65
527.417	1027.76
527.623	1038.42
527.829	1109.33
528.034	1142.46
528.24	1107.2
528.446	1094.22
528.651	1189.93
528.857	1171.52
529.062	1251.35
529.268	1195.55
529.473	1222.87
529.679	1185.86
529.884	1275.37
530.09	1248.06
530.295	1279.44
530.501	1249.22
530.706	1253.67
530.912	1201.94
531.117	1260.07
531.323	1274.99
531.528	1265.69
531.733	1238.56
531.939	1222.09
532.144	1281.77
532.35	1258.71
532.555	1305.4
532.76	1288.94
532.966	1263.55
533.171	1276.54
533.376	1235.27
533.581	1216.86
533.787	1276.92
533.992	1299.01
534.197	1293.39
534.402	1274.02
534.607	1282.15
534.813	1351.71
535.018	1296.3
535.223	1268.01
535.428	1315.87
535.633	1358.49
535.838	1374.77
536.043	1342.8
536.249	1417.2
536.454	1378.06
536.659	1370.7
536.864	1332.92
537.069	1354.62
537.274	1357.13
537.479	1364.11
537.684	1391.23
537.889	1332.72
538.094	1432.7
538.299	1392.59
538.504	1412.16
538.708	1380.38
538.913	1384.26
539.118	1394.72
539.323	1413.71
539.528	1346.28
539.733	1379.22
539.938	1374.57
540.142	1423.01
540.347	1380
540.552	1331.56
540.757	1365.27
540.962	1333.5
541.166	1322.07
541.371	1339.7
541.576	1340.08
541.781	1289.52
541.985	1385.42
542.19	1402.08
542.395	1477.84
542.599	1454.98
542.804	1434.63
543.008	1462.34
543.213	1402.67
543.418	1365.66
543.622	1419.72
543.827	1393.75
544.031	1455.36
544.236	1454.59
544.44	1447.61
544.645	1486.36
544.849	1415.07
545.054	1469.31
545.258	1522.4
545.463	1500.31
545.667	1451.3
545.872	1467.38
546.076	1449.16
546.281	1463.89
546.485	1463.11
546.689	1464.28
546.894	1464.66
547.098	1448.2
547.302	1424.37
547.507	1441.8
547.711	1505.35
547.915	1498.38
548.119	1422.82
548.324	1436.38
548.528	1512.52
548.732	1466.99
548.936	1513.88
549.141	1519.3
549.345	1468.15
549.549	1457.3
549.753	1464.28
549.957	1558.83
550.161	1564.06
550.366	1493.34
550.57	1465.44
550.774	1488.5
550.978	1510.78
551.182	1519.69
551.386	1482.1
551.59	1488.5
551.794	1463.11
551.998	1496.05
552.202	1481.52
552.406	1469.7
552.61	1503.41
552.814	1456.91
553.018	1527.63
553.222	1495.66
553.426	1482.88
553.63	1569.09
553.833	1487.14
554.037	1442.19
554.241	1549.14
554.445	1537.51
554.649	1516.78
554.853	1494.89
555.056	1532.48
555.26	1534.03
555.464	1526.28
555.668	1505.74
555.871	1521.43
556.075	1521.04
556.279	1447.23
556.483	1464.66
556.686	1479.78
556.89	1485.59
557.094	1511.94
557.297	1435.8
557.501	1516.01
557.704	1425.92
557.908	1511.55
558.112	1441.03
558.315	1522.4
558.519	1434.83
558.722	1453.23
558.926	1439.86
559.129	1389.3
559.333	1341.05
559.536	1437.15
559.74	1386.97
559.943	1397.24
560.147	1390.65
560.35	1395.5
560.553	1386.58
560.757	1363.92
560.96	1435.41
561.164	1389.3
561.367	1486.75
561.57	1375.93
561.774	1420.68
561.977	1369.53
562.18	1411.19
562.384	1510.97
562.587	1380.77
562.79	1403.83
562.993	1386.39
563.197	1422.62
563.4	1438.31
563.603	1445.1
563.806	1495.08
564.009	1359.27
564.212	1410.03
564.416	1338.34
564.619	1422.04
564.822	1334.47
565.025	1409.83
565.228	1373.6
565.431	1375.15
565.634	1287.97
565.837	1339.5
566.04	1279.64
566.243	1345.7
566.446	1251.74
566.649	1361.59
566.852	1283.32
567.055	1318.19
567.258	1324.39
567.461	1373.02
567.664	1356.94
567.867	1241.86
568.07	1331.95
568.273	1302.3
568.475	1340.67
568.678	1289.32
568.881	1306.37
569.084	1297.65
569.287	1189.54
569.489	1219.19
569.692	1290.29
569.895	1286.03
570.098	1224.61
570.3	1214.34
570.503	1146.34
570.706	1236.82
570.909	1201.75
571.111	1147.11
571.314	1167.84
571.516	1217.64
571.719	1181.41
571.922	1173.85
572.124	1175.21
572.327	1203.49
572.529	1133.74
572.732	1138.78
572.935	1196.52
573.137	1253.87
573.34	1178.5
573.542	1207.76
573.745	1197.1
573.947	1198.07
574.15	1173.66
574.352	1170.56
574.554	1224.81
574.757	1139.56
574.959	1135.1
575.162	1141.3
575.364	1118.05
575.566	1203.88
575.769	1086.86
575.971	1132.19
576.173	1044.43
576.376	1120.76
576.578	1172.69
576.78	1169.39
576.982	1040.94
577.185	1112.82
577.387	1069.42
577.589	1096.93
577.791	1134.71
577.993	1110.49
578.196	1074.65
578.398	1101.39
578.6	1098.87
578.802	1039
579.004	1051.98
579.206	1035.71
579.408	1085.11
579.61	1079.3
579.812	1140.53
580.014	1078.14
580.216	1066.9
580.418	1114.56
580.62	1046.75
580.822	1044.43
581.024	1090.93
581.226	1107.59
581.428	1079.11
581.63	1142.46
581.832	1058.57
582.034	1111.08
582.236	1077.36
582.438	1134.13
582.64	1123.48
582.841	1153.12
583.043	1168.62
583.245	1091.89
583.447	1139.75
583.649	1104.29
583.85	1100.03
584.052	1101.78
584.254	1093.64
584.456	1149.63
584.657	1077.94
584.859	1079.11
585.061	1064.77
585.262	1069.42
585.464	1043.85
585.666	1107.01
585.867	1042.49
586.069	1122.89
586.27	1083.56
586.472	1059.15
586.674	1023.31
586.875	1033.38
587.077	1014.01
587.278	1069.61
587.48	1061.28
587.681	1166.87
587.883	1076.98
588.084	998.12
588.285	1007.42
588.487	1027.18
588.688	1037.45
588.89	944.65
589.091	959.18
589.292	951.04
589.494	947.75
589.695	935.35
589.896	857.07
590.098	853.97
590.299	916.55
590.5	893.11
590.702	946
590.903	913.65
591.104	1013.23
591.305	934.38
591.507	984.37
591.708	980.1
591.909	968.67
592.11	1054.89
592.311	1016.72
592.512	952.01
592.714	948.72
592.915	954.14
593.116	941.74
593.317	984.56
593.518	1008
593.719	966.35
593.92	1000.45
594.121	1023.89
594.322	950.27
594.523	978.36
594.724	913.84
594.925	956.27
595.126	970.8
595.327	968.48
595.528	963.25
595.729	992.31
595.929	973.13
596.13	944.45
596.331	975.07
596.532	1005.1
596.733	1048.3
596.934	1005.48
597.135	999.28
597.335	1031.64
597.536	939.42
597.737	984.37
597.938	993.86
598.138	969.25
598.339	970.61
598.54	995.41
598.74	956.85
598.941	979.13
599.142	1008.97
599.342	995.6
599.543	951.04
599.744	952.4
599.944	956.66
600.145	976.23
600.345	970.22
600.546	1045.59
600.746	993.66
600.947	1025.05
601.147	965.96
601.348	1030.09
601.548	936.12
601.749	983.01
601.949	918.49
602.15	947.17
602.35	975.84
602.551	1033
602.751	923.92
602.951	945.81
603.152	900.09
603.352	983.01
603.552	961.31
603.753	984.17
603.953	960.34
604.153	952.78
604.354	966.15
604.554	952.01
604.754	956.66
604.954	933.22
605.155	999.28
605.355	959.57
605.555	1000.64
605.755	1034.93
605.955	970.42
606.155	1002
606.356	1000.06
606.556	989.4
606.756	977.78
606.956	920.43
607.156	1018.27
607.356	947.55
607.556	974.87
607.756	945.23
607.956	983.78
608.156	969.06
608.356	903.38
608.556	969.83
608.756	944.07
608.956	913.84
609.156	988.43
609.356	923.72
609.556	907.45
609.755	949.88
609.955	913.65
610.155	964.41
610.355	926.05
610.555	894.47
610.755	943.1
610.954	859.79
611.154	926.24
611.354	989.02
611.554	895.24
611.753	910.55
611.953	870.83
612.153	941.35
612.352	899.89
612.552	885.36
612.752	862.5
612.951	875.29
613.151	929.34
613.351	864.82
613.55	892.72
613.75	925.85
613.949	882.84
614.149	910.74
614.348	882.26
614.548	841.96
614.747	817.35
614.947	846.03
615.146	805.92
615.346	884.2
615.545	896.21
615.745	892.92
615.944	892.14
616.144	866.18
616.343	919.46
616.542	843.51
616.742	870.44
616.941	846.8
617.14	803.02
617.34	857.27
617.539	873.15
617.738	807.47
617.938	896.6
618.137	850.87
618.336	813.48
618.535	865.02
618.734	849.9
618.934	860.37
619.133	879.55
619.332	868.89
619.531	830.72
619.73	815.03
619.929	911.9
620.128	864.24
620.328	888.65
620.527	815.03
620.726	844.09
620.925	844.87
621.124	818.71
621.323	830.92
621.522	809.99
621.721	803.6
621.92	779.19
622.119	853
622.318	821.23
622.517	823.17
622.715	828.59
622.914	737.53
623.113	808.06
623.312	752.06
623.511	817.35
623.71	820.65
623.909	786.74
624.107	837.12
624.306	744.31
624.505	790.62
624.704	778.41
624.902	768.34
625.101	849.71
625.3	783.84
625.499	782.09
625.697	773.37
625.896	764.46
626.095	798.56
626.293	722.03
626.492	750.12
626.69	806.89
626.889	754.19
627.088	807.09
627.286	779.96
627.485	747.8
627.683	756.91
627.882	786.16
628.08	685.99
628.279	713.51
628.477	794.69
628.676	689.29
628.874	736.95
629.073	702.27
629.271	723.39
629.469	760.39
629.668	719.51
629.866	715.83
630.065	699.75
630.263	763.3
630.461	710.02
630.66	696.84
630.858	780.35
631.056	761.94
631.254	762.52
631.453	716.41
631.651	758.07
631.849	733.27
632.047	773.57
632.245	716.41
632.444	722.42
632.642	712.93
632.84	759.04
633.038	727.84
633.236	682.51
633.434	702.27
633.632	716.03
633.83	729.39
634.028	758.46
634.227	765.43
634.425	788.68
634.623	747.8
634.821	774.92
635.019	747.22
635.216	715.25
635.414	790.81
635.612	762.33
635.81	724.16
636.008	797.79
636.206	724.74
636.404	767.37
636.602	697.23
636.8	764.07
636.997	778.22
637.195	816.39
637.393	783.06
637.591	773.96
637.789	745.67
637.986	749.93
638.184	766.01
638.382	793.14
638.58	790.23
638.777	790.81
638.975	744.12
639.173	768.14
639.37	782.67
639.568	766.4
639.765	788.87
639.963	738.89
640.161	805.15
640.358	791.97
640.556	728.42
640.753	701.11
640.951	701.49
641.148	747.61
641.346	692.39
641.543	735.98
641.741	749.74
641.938	682.31
642.136	708.47
642.333	690.26
642.531	754.19
642.728	780.93
642.925	748.96
643.123	705.95
643.32	764.66
643.517	725.33
643.715	748.19
643.912	713.51
644.109	734.82
644.306	712.15
644.504	687.74
644.701	714.09
644.898	713.7
645.095	703.04
645.293	709.24
645.49	741.02
645.687	715.44
645.884	739.66
646.081	643.76
646.278	682.7
646.475	683.09
646.672	687.16
646.87	730.94
647.067	684.25
647.264	704.21
647.461	665.07
647.658	650.15
647.855	706.73
648.052	674.95
648.249	595.51
648.446	668.17
648.642	632.33
648.839	620.9
649.036	649.18
649.233	606.75
649.43	624.38
649.627	594.93
649.824	626.32
650.021	597.84
650.217	620.12
650.414	638.14
650.611	658.09
650.808	659.45
651.004	637.75
651.201	677.08
651.398	710.21
651.595	640.46
651.791	601.33
651.988	647.44
652.185	617.02
652.381	670.49
652.578	577.3
652.775	622.45
652.971	637.36
653.168	596.1
653.364	642.4
653.561	566.06
653.757	630.78
653.954	664.88
654.15	586.02
654.347	715.44
654.543	604.81
654.74	578.27
654.936	564.71
655.133	597.26
655.329	626.51
655.525	591.64
655.722	636.59
655.918	539.33
656.115	592.61
656.311	575.36
656.507	520.92
656.704	508.13
656.9	545.92
657.096	518.4
657.292	517.05
657.489	603.07
657.685	565.87
657.881	543.59
658.077	567.03
658.273	581.18
658.47	633.3
658.666	589.12
658.862	619.54
659.058	573.04
659.254	655.19
659.45	575.95
659.646	587.96
659.842	578.66
660.038	641.82
660.234	574.2
660.43	575.17
660.626	648.99
660.822	622.83
661.018	642.01
661.214	600.16
661.41	542.62
661.606	628.45
661.802	594.55
661.998	551.53
662.194	579.43
662.39	608.3
662.586	617.02
662.781	588.35
662.977	591.25
663.173	620.7
663.369	592.22
663.564	587.96
663.76	615.86
663.956	577.11
664.152	589.9
664.347	545.92
664.543	586.41
664.739	562.58
664.934	529.45
665.13	537.58
665.326	584.08
665.521	597.06
665.717	552.12
665.912	556.76
666.108	503.1
666.304	525.38
666.499	556.57
666.695	500
666.89	538.17
667.086	574.98
667.281	576.53
667.477	609.27
667.672	551.73
667.867	572.07
668.063	593.77
668.258	529.25
668.454	583.11
668.649	615.08
668.844	540.88
669.04	579.82
669.235	550.76
669.43	535.45
669.626	515.88
669.821	542.62
670.016	508.13
670.211	552.7
670.407	512.4
670.602	540.1
670.797	540.68
670.992	537.39
671.187	500.19
671.382	563.16
671.578	489.92
671.773	552.31
671.968	499.03
672.163	546.5
672.358	514.14
672.553	494.38
672.748	489.92
672.943	573.04
673.138	490.89
673.333	547.66
673.528	476.17
673.723	524.6
673.918	509.49
674.113	497.48
674.308	611.6
674.503	525.38
674.698	530.8
674.892	517.05
675.087	559.48
675.282	532.16
675.477	510.27
675.672	545.53
675.867	495.35
676.061	463.96
676.256	474.81
676.451	495.93
676.646	503.87
676.84	493.22
677.035	461.83
677.23	450.2
677.424	502.9
677.619	529.64
677.814	534.29
678.008	557.15
678.203	448.85
678.397	496.7
678.592	498.45
678.787	563.74
678.981	501.74
679.176	510.27
679.37	516.85
679.565	481.01
679.759	479.07
679.954	491.67
680.148	579.24
680.342	549.21
680.537	541.85
680.731	501.93
680.926	511.43
681.12	539.91
681.314	480.82
681.509	507.36
681.703	511.04
681.897	517.63
682.092	479.65
682.286	473.07
682.48	551.92
682.674	502.52
682.869	493.02
683.063	493.02
683.257	552.12
683.451	466.28
683.645	487.4
683.839	491.08
684.034	494.18
684.228	534.29
684.422	448.85
684.616	503.29
684.81	539.13
685.004	514.72
685.198	501.93
685.392	499.8
685.586	496.51
685.78	526.35
685.974	520.53
686.168	516.47
686.362	559.67
686.556	451.37
686.75	447.3
686.944	411.45
687.138	467.83
687.331	390.53
687.525	388.2
687.719	351.39
687.913	409.71
688.107	412.42
688.301	379.68
688.494	404.87
688.688	383.17
688.882	343.06
689.076	389.56
689.269	391.69
689.463	477.91
689.657	415.14
689.85	420.75
690.044	422.3
690.238	425.6
690.431	432.57
690.625	430.05
690.818	444.97
691.012	455.05
691.205	484.11
691.399	435.29
691.593	470.93
691.786	545.14
691.98	524.41
692.173	555.41
692.366	512.78
692.56	530.03
692.753	566.65
692.947	474.42
693.14	562.38
693.333	524.02
693.527	494.77
693.72	547.47
693.914	530.42
694.107	524.99
694.3	536.03
694.493	548.24
694.687	567.03
694.88	535.07
695.073	601.71
695.266	574.2
695.46	569.36
695.653	584.66
695.846	624.19
696.039	523.63
696.232	563.74
696.425	613.34
696.618	620.51
696.812	625.16
697.005	688.13
697.198	707.5
697.391	636.4
697.584	700.91
697.777	763.11
697.97	699.56
698.163	714.67
698.356	692.39
698.549	790.23
698.742	764.46
698.935	720.09
699.127	727.46
699.32	699.36
699.513	732.11
699.706	785.97
699.899	749.35
700.092	751.67
700.285	780.35
700.477	713.31
700.67	773.76
700.863	799.72
701.056	854.17
701.248	817.94
701.441	844.87
701.634	816.39
701.826	919.46
702.019	830.53
702.212	882.26
702.404	842.15
702.597	815.42
702.79	826.85
702.982	897.57
703.175	893.3
703.367	905.51
703.56	956.27
703.752	989.98
703.945	976.03
704.137	992.7
704.33	1012.65
704.522	1029.31
704.715	1048.11
704.907	1023.31
705.1	1078.72
705.292	1078.14
705.484	1060.51
705.677	1083.18
705.869	1064.96
706.061	1107.01
706.254	1138.39
706.446	1099.26
706.638	1126.19
706.831	1189.54
707.023	1154.28
707.215	1243.41
707.407	1223.64
707.599	1198.84
707.792	1226.55
707.984	1218.02
708.176	1270.92
708.368	1220.93
708.56	1253.67
708.752	1307.54
708.944	1258.9
709.136	1292.42
709.329	1292.42
709.521	1376.51
709.713	1339.89
709.905	1356.75
710.097	1369.34
710.289	1323.23
710.481	1380.77
710.672	1399.37
710.864	1418.36
711.056	1463.11
711.248	1427.08
711.44	1457.11
711.632	1436.76
711.824	1485.59
712.016	1532.28
712.207	1512.91
712.399	1524.34
712.591	1569.09
712.783	1545.26
712.975	1597.38
713.166	1537.9
713.358	1586.34
713.55	1624.7
713.741	1636.13
713.933	1615.98
714.125	1620.05
714.316	1615.21
714.508	1721.96
714.7	1691.35
714.891	1671.78
715.083	1729.52
715.274	1646.21
715.466	1695.42
715.657	1751.02
715.849	1636.32
716.04	1677.4
716.232	1624.31
716.423	1658.99
716.615	1580.91
716.806	1593.7
716.998	1566.77
717.189	1529.96
717.381	1445.1
717.572	1438.31
717.763	1448.97
717.955	1435.02
718.146	1402.08
718.337	1351.52
718.528	1361.59
718.72	1276.92
718.911	1341.83
719.102	1336.4
719.293	1385.03
719.485	1359.07
719.676	1332.14
719.867	1274.99
720.058	1300.17
720.249	1321.87
720.44	1354.23
720.632	1386.58
720.823	1464.66
721.014	1557.28
721.205	1533.25
721.396	1608.23
721.587	1730.68
721.778	1771.37
721.969	1773.5
722.16	1806.05
722.351	1806.63
722.542	1924.04
722.733	1946.51
722.924	1864.17
723.115	1923.07
723.305	1899.05
723.496	1918.42
723.687	1843.05
723.878	1821.93
724.069	1828.91
724.26	1820.77
724.45	1791.52
724.641	1736.1
724.832	1831.62
725.023	1784.15
725.213	1756.84
725.404	1736.1
725.595	1776.4
725.785	1737.65
725.976	1850.8
726.167	1846.93
726.357	1851.97
726.548	1949.42
726.739	1853.13
726.929	1921.33
727.12	1935.66
727.31	1975.19
727.501	1901.95
727.691	1938.18
727.882	1945.35
728.072	2005.22
728.263	2005.22
728.453	2066.64
728.644	2028.66
728.834	2030.21
729.024	1995.53
729.215	1968.41
729.405	2029.44
729.596	2106.94
729.786	2125.73
729.976	2130.19
730.167	2141.23
730.357	2126.12
730.547	2123.79
730.737	2168.94
730.928	2190.05
731.118	2239.65
731.308	2163.51
731.498	2136.58
731.688	2273.37
731.879	2271.62
732.069	2305.91
732.259	2349.51
732.449	2403.18
732.639	2426.43
732.829	2432.82
733.019	2480.87
733.209	2580.45
733.399	2588.59
733.589	2655.43
733.779	2669.19
733.969	2660.86
734.159	2761.61
734.349	2771.88
734.539	2810.43
734.729	2805.98
734.919	2805.2
735.109	2888.32
735.299	2816.63
735.488	2828.64
735.678	2858.87
735.868	2867.78
736.058	2844.53
736.248	2834.84
736.437	2869.53
736.627	2822.25
736.817	2958.07
737.007	2851.89
737.196	2953.22
737.386	2915.25
737.576	2925.91
737.765	2972.21
737.955	2917.77
738.144	3110.16
738.334	2990.62
738.524	2951.09
738.713	2977.44
738.903	2998.17
739.092	3034.4
739.282	3033.63
739.471	3055.91
739.661	3028.4
739.85	3077.03
740.04	3090.2
740.229	3090.59
740.419	3150.65
740.608	3145.03
740.797	3145.42
740.987	3163.44
741.176	3171.38
741.365	3128.95
741.555	3134.96
741.744	3228.15
741.933	3149.88
742.123	3205.1
742.312	3238.42
742.501	3260.12
742.69	3241.71
742.88	3164.02
743.069	3322.12
743.258	3283.18
743.447	3313.01
743.636	3280.46
743.825	3270.19
744.014	3342.46
744.204	3362.03
744.393	3232.22
744.582	3352.15
744.771	3382.96
744.96	3322.51
745.149	3345.56
745.338	3313.01
745.527	3382.57
745.716	3354.67
745.905	3308.94
746.094	3408.34
746.283	3380.82
746.471	3380.63
746.66	3458.9
746.849	3435.66
747.038	3475.76
747.227	3387.41
747.416	3441.27
747.604	3358.16
747.793	3397.68
747.982	3425.58
748.171	3395.55
748.359	3466.65
748.548	3403.3
748.737	3385.86
748.926	3396.32
749.114	3336.26
749.303	3411.82
749.491	3409.69
749.68	3302.16
749.869	3396.91
750.057	3350.79
750.246	3327.16
750.434	3381.02
750.623	3362.61
750.811	3343.43
751	3402.33
751.188	3309.33
751.377	3356.22
751.565	3338.01
751.754	3320.96
751.942	3289.57
752.131	3415.51
752.319	3291.51
752.507	3316.89
752.696	3390.71
752.884	3402.91
753.072	3338.78
753.261	3318.44
753.449	3347.89
753.637	3333.74
753.825	3406.4
754.014	3340.72
754.202	3363
754.39	3375.98
754.578	3365.71
754.766	3304.68
754.955	3299.06
755.143	3375.4
755.331	3287.63
755.519	3316.11
755.707	3317.28
755.895	3306.04
756.083	3273.88
756.271	3245.59
756.459	3281.63
756.647	3284.53
756.835	3278.91
757.023	3257.41
757.211	3236.48
757.399	3287.63
757.587	3195.21
757.775	3214.98
757.963	3210.33
758.151	3207.81
758.339	3202.38
758.526	3185.72
758.714	3165.18
758.902	3109
759.09	2964.85
759.278	2805.78
759.465	2549.65
759.653	2240.43
759.841	2035.06
760.028	1748.89
760.216	1511.94
760.404	1413.52
760.591	1147.69
760.779	979.72
760.967	847.39
761.154	730.56
761.342	742.37
761.529	743.34
761.717	765.04
761.905	770.86
762.092	844.48
762.28	760.01
762.467	796.04
762.655	696.46
762.842	725.33
763.029	734.62
763.217	778.8
763.404	722.42
763.592	804.18
763.779	744.51
763.966	806.31
764.154	802.63
764.341	882.26
764.528	890.01
764.716	952.59
764.903	998.7
765.09	1064.77
765.277	1093.64
765.465	1254.45
765.652	1309.86
765.839	1402.28
766.026	1512.13
766.213	1554.56
766.4	1654.54
766.588	1859.52
766.775	1863.01
766.962	1976.35
767.149	1998.05
767.336	2171.26
767.523	2134.45
767.71	2264.65
767.897	2382.45
768.084	2428.56
768.271	2441.93
768.458	2564.18
768.645	2639.94
768.832	2603.12
769.019	2596.34
769.206	2658.92
769.392	2720.92
769.579	2798.81
769.766	2769.94
769.953	2742.81
770.14	2812.76
770.327	2770.71
770.513	2861.19
770.7	2900.53
770.887	2825.16
771.073	2914.86
771.26	2912.92
771.447	2833.1
771.634	2819.73
771.82	2965.43
772.007	2821.28
772.193	2922.42
772.38	2914.09
772.567	2918.54
772.753	2863.33
772.94	2958.84
773.126	2934.43
773.313	2928.62
773.499	2942.96
773.686	2931.52
773.872	2924.16
774.059	2877.66
774.245	2822.45
774.432	2869.72
774.618	2781.95
774.804	2882.7
774.991	2828.06
775.177	2859.84
775.363	2843.37
775.55	2848.99
775.736	2785.05
775.922	2841.63
776.109	2829.23
776.295	2864.29
776.481	2879.21
776.667	2840.66
776.853	2815.28
777.04	2806.75
777.226	2792.61
777.412	2876.11
777.598	2799.58
777.784	2795.9
777.97	2759.48
778.156	2809.85
778.342	2769.94
778.528	2816.83
778.715	2739.91
778.901	2715.69
779.087	2759.86
779.272	2724.8
779.458	2743.2
779.644	2735.65
779.83	2717.43
780.016	2805.59
780.202	2706.58
780.388	2694.38
780.574	2626.37
780.76	2693.99
780.946	2730.03
781.131	2725.18
781.317	2710.46
781.503	2679.85
781.689	2704.07
781.874	2736.62
782.06	2675.2
782.246	2675
782.432	2635.29
782.617	2665.51
782.803	2707.17
782.989	2600.8
783.174	2621.72
783.36	2591.89
783.545	2630.25
783.731	2621.53
783.916	2508.96
784.102	2632.19
784.288	2559.72
784.473	2593.63
784.659	2569.22
784.844	2619.2
785.029	2531.05
785.215	2578.71
785.4	2521.56
785.586	2595.18
785.771	2483.58
785.956	2529.69
786.142	2519.04
786.327	2520.59
786.512	2468.47
786.698	2502.76
786.883	2458.2
787.068	2501.21
787.254	2489.59
787.439	2408.02
787.624	2458.98
787.809	2430.11
787.994	2457.43
788.18	2514.77
788.365	2353
788.55	2423.91
788.735	2408.41
788.92	2423.52
789.105	2386.71
789.29	2418.87
789.475	2293.52
789.66	2357.65
789.845	2338.66
790.03	2332.26
790.215	2410.34
790.4	2355.32
790.585	2407.44
790.77	2324.51
790.955	2292.35
791.14	2333.62
791.325	2400.08
791.51	2231.71
791.695	2350.48
791.879	2310.37
792.064	2272.4
792.249	2367.14
792.434	2266.39
792.618	2307.66
792.803	2299.13
792.988	2322.96
793.173	2335.36
793.357	2327.61
793.542	2280.53
793.727	2303.2
793.911	2344.66
794.096	2346.99
794.281	2336.91
794.465	2372.56
794.65	2288.09
794.834	2361.91
795.019	2418.09
795.203	2396.78
795.388	2369.08
795.572	2407.24
795.757	2385.55
795.941	2384.38
796.126	2352.8
796.31	2286.93
796.494	2345.63
796.679	2291.58
796.863	2290.61
797.048	2375.66
797.232	2354.93
797.416	2365.4
797.601	2366.17
797.785	2390.78
797.969	2390.78
798.153	2343.7
798.338	2386.9
798.522	2413.64
798.706	2381.86
798.89	2398.33
799.074	2487.46
799.258	2435.14
799.443	2384
799.627	2359.78
799.811	2417.13
799.995	2370.43
800.179	2353
800.363	2345.63
800.547	2400.08
800.731	2432.24
800.915	2324.71
801.099	2324.32
801.283	2332.07
801.467	2346.99
801.651	2334.01
801.835	2406.08
802.019	2355.32
802.202	2396.59
802.386	2330.33
802.57	2303.98
802.754	2316.57
802.938	2291.38
803.121	2322.38
803.305	2356.1
803.489	2302.04
803.673	2378.96
803.856	2394.84
804.04	2335.36
804.224	2343.7
804.407	2297.2
804.591	2324.32
804.775	2325.87
804.958	2340.01
805.142	2410.34
805.326	2355.71
805.509	2373.92
805.693	2358.61
805.876	2398.53
806.06	2380.9
806.243	2408.02
806.427	2405.69
806.61	2434.76
806.794	2353.77
806.977	2403.37
807.16	2335.56
807.344	2385.74
807.527	2383.22
807.71	2342.73
807.894	2356.29
808.077	2370.24
808.26	2340.79
808.444	2328.39
808.627	2376.25
808.81	2329.55
808.993	2280.53
809.177	2308.63
809.36	2342.73
809.543	2333.23
809.726	2181.72
809.909	2227.06
810.092	2194.7
810.276	2192.57
810.459	2221.25
810.642	2197.42
810.825	2183.08
811.008	2210.98
811.191	2088.14
811.374	2091.44
811.557	2068.38
811.74	2204.59
811.923	2062.96
812.106	2049.97
812.289	2012.58
812.472	2040.09
812.654	2003.09
812.837	2017.62
813.02	1969.38
813.203	1917.06
813.386	1857.97
813.569	1852.16
813.751	1760.13
813.934	1798.1
814.117	1772.53
814.3	1750.25
814.482	1692.12
814.665	1692.9
814.848	1619.47
815.03	1569.48
815.213	1576.65
815.396	1568.32
815.578	1577.43
815.761	1524.53
815.943	1593.12
816.126	1491.98
816.309	1468.73
816.491	1420.88
816.674	1341.83
816.856	1428.63
817.039	1410.22
817.221	1465.44
817.403	1390.27
817.586	1428.05
817.768	1440.25
817.951	1388.52
818.133	1371.08
818.315	1407.12
818.498	1459.82
818.68	1479.97
818.862	1448.2
819.045	1499.73
819.227	1484.43
819.409	1448
819.591	1499.35
819.774	1455.56
819.956	1425.14
820.138	1521.82
820.32	1510.39
820.502	1571.42
820.684	1598.54
820.866	1634.19
821.048	1630.71
821.231	1666.55
821.413	1651.05
821.595	1653.76
821.777	1643.3
821.959	1649.31
822.141	1672.75
822.323	1545.84
822.505	1497.21
822.686	1481.33
822.868	1383.68
823.05	1315.09
823.232	1281.96
823.414	1232.36
823.596	1267.04
823.778	1285.84
823.96	1305.79
824.141	1286.03
824.323	1323.04
824.505	1370.7
824.687	1440.25
824.868	1517.17
825.05	1604.16
825.232	1614.04
825.413	1671.39
825.595	1635.74
825.777	1585.95
825.958	1602.81
826.14	1558.44
826.321	1636.91
826.503	1545.46
826.685	1637.49
826.866	1619.47
827.048	1627.41
827.229	1576.84
827.411	1526.47
827.592	1488.69
827.773	1485.98
827.955	1462.53
828.136	1460.4
828.318	1458.46
828.499	1477.65
828.68	1446.84
828.862	1448.78
829.043	1471.06
829.224	1460.21
829.406	1397.63
829.587	1426.11
829.768	1423.4
829.949	1444.51
830.131	1424.17
830.312	1483.07
830.493	1451.1
830.674	1444.9
830.855	1434.83
831.036	1452.46
831.218	1515.62
831.399	1501.86
831.58	1459.24
831.761	1465.25
831.942	1502.25
832.123	1429.4
832.304	1418.17
832.485	1419.72
832.666	1446.45
832.847	1461.18
833.028	1452.26
833.209	1435.8
833.389	1437.93
833.57	1391.43
833.751	1433.28
833.932	1472.03
834.113	1486.75
834.294	1410.42
834.475	1467.38
834.655	1506.32
834.836	1519.49
835.017	1504.38
835.198	1424.56
835.378	1472.8
835.559	1517.56
835.74	1489.08
835.92	1480.16
836.101	1456.53
836.281	1506.32
836.462	1528.6
836.643	1497.99
836.823	1530.54
837.004	1520.85
837.184	1590.79
837.365	1522.79
837.545	1546.43
837.726	1496.25
837.906	1596.41
838.087	1545.65
838.267	1489.46
838.448	1497.99
838.628	1532.67
838.808	1522.21
838.989	1553.21
839.169	1486.75
839.349	1526.08
839.53	1525.11
839.71	1561.73
839.89	1525.5
840.07	1575.68
840.251	1505.93
840.431	1546.81
840.611	1523.95
840.791	1508.26
840.971	1536.74
841.151	1485.4
841.332	1501.48
841.512	1547.98
841.692	1460.01
841.872	1516.98
842.052	1500.31
842.232	1546.23
842.412	1444.13
842.592	1480.36
842.772	1483.07
842.952	1515.23
843.132	1474.93
843.312	1453.43
843.492	1462.15
843.672	1534.61
843.851	1402.47
844.031	1487.72
844.211	1434.83
844.391	1452.26
844.571	1450.13
844.751	1466.21
844.93	1477.45
845.11	1452.46
845.29	1471.45
845.47	1501.48
845.649	1453.23
845.829	1500.31
846.009	1457.69
846.188	1502.45
846.368	1479.78
846.547	1465.63
846.727	1489.46
846.907	1452.46
847.086	1462.34
847.266	1498.18
847.445	1462.73
847.625	1431.73
847.804	1449.75
847.984	1474.74
848.163	1428.05
848.343	1430.76
848.522	1442.58
848.701	1441.8
848.881	1376.32
849.06	1423.59
849.239	1404.41
849.419	1430.18
849.598	1374.77
849.777	1353.26
849.957	1382.9
850.136	1267.43
850.315	1306.95
850.494	1300.17
850.674	1286.22
850.853	1380.77
851.032	1323.42
851.211	1371.86
851.39	1326.14
851.569	1310.44
851.748	1325.55
851.927	1330.2
852.107	1314.9
852.286	1303.85
852.465	1302.3
852.644	1359.85
852.823	1359.07
853.002	1348.8
853.181	1312.96
853.359	1348.42
853.538	1273.63
853.717	1343.38
853.896	1253.87
854.075	1198.84
854.254	1163.78
854.433	1106.04
854.611	1169.97
854.79	1119.99
854.969	1176.37
855.148	1178.69
855.327	1165.91
855.505	1192.84
855.684	1175.01
855.863	1216.86
856.041	1184.31
856.22	1217.44
856.399	1208.53
856.577	1259.29
856.756	1277.7
856.934	1361.2
857.113	1357.33
857.291	1308.31
857.47	1256.97
857.648	1282.35
857.827	1301.53
858.005	1321.29
858.184	1249.41
858.362	1378.45
858.541	1268.4
858.719	1262.39
858.898	1260.65
859.076	1255.22
859.254	1331.56
859.433	1257.94
859.611	1232.75
859.789	1206.79
859.967	1299.2
860.146	1313.35
860.324	1209.5
860.502	1208.34
860.68	1188.19
860.859	1219.77
861.037	1239.53
861.215	1237.21
861.393	1217.06
861.571	1209.11
861.749	1218.41
861.927	1261.62
862.105	1234.11
862.283	1213.37
862.461	1179.27
862.639	1166.87
862.817	1206.59
862.995	1227.13
863.173	1202.52
863.351	1189.16
863.529	1196.13
863.707	1249.99
863.885	1188.57
864.063	1165.91
864.241	1173.66
864.418	1231.97
864.596	1175.98
864.774	1121.15
864.952	1170.75
865.129	1159.51
865.307	1138.01
865.485	1085.11
865.663	1156.03
865.84	1093.44
866.018	1106.43
866.196	1036.1
866.373	1017.69
866.551	998.31
866.728	973.52
866.906	997.93
867.084	1021.37
867.261	1067.87
867.439	1059.73
867.616	1092.09
867.794	1076.2
867.971	1083.37
868.149	1034.55
868.326	1095.77
868.503	1131.03
868.681	1116.11
868.858	1080.27
869.035	1045.59
869.213	1103.71
869.39	1060.51
869.567	1131.03
869.745	1042.3
869.922	1106.23
870.099	1092.48
870.276	1114.95
870.454	1115.14
870.631	1094.41
870.808	1081.43
870.985	1124.64
871.162	1132
871.339	1060.31
871.517	996.38
871.694	1046.75
871.871	1073.3
872.048	1028.93
872.225	1040.16
872.402	1080.66
872.579	1008.78
872.756	1042.3
872.933	1020.01
873.11	1013.23
873.287	1036.87
873.463	1010.33
873.64	1010.33
873.817	1054.7
873.994	1037.45
874.171	1013.81
874.348	1041.91
874.524	969.45
874.701	1015.75
874.878	983.2
875.055	1019.43
875.231	994.83
875.408	1049.66
875.585	978.36
875.762	1006.84
875.938	994.63
876.115	980.3
876.291	976.81
876.468	979.13
876.645	942.52
876.821	983.2
876.998	994.83
877.174	987.27
877.351	943.87
877.527	939.8
877.704	978.75
877.88	1001.22
878.057	955.5
878.233	974.87
878.409	930.12
878.586	989.21
878.762	936.32
878.938	938.06
879.115	885.36
879.291	956.85
879.467	877.22
879.644	916.36
879.82	964.41
879.996	902.8
880.172	890.59
880.349	919.07
880.525	937.09
880.701	863.85
880.877	912.29
881.053	932.44
881.229	915
881.405	977.2
881.581	881.87
881.757	915.2
881.933	907.64
882.109	942.32
882.285	918.49
882.461	836.15
882.637	911.13
882.813	893.69
882.989	898.92
883.165	946.58
883.341	895.82
883.517	915.2
883.693	881.29
883.869	929.92
884.044	890.2
884.22	937.28
884.396	922.75
884.572	920.23
884.747	921.98
884.923	921.78
885.099	930.31
885.275	923.53
885.45	880.9
885.626	904.15
885.801	872.77
885.977	891.95
886.153	856.88
886.328	891.75
886.504	871.6
886.679	881.49
886.855	868.31
887.03	883.23
887.206	925.85
887.381	910.16
887.557	916.17
887.732	901.25
887.908	899.89
888.083	933.99
888.258	887.49
888.434	857.27
888.609	904.15
888.784	953.37
888.96	886.14
889.135	926.82
889.31	876.25
889.485	935.93
889.661	876.06
889.836	923.14
890.011	900.86
890.186	902.02
890.361	840.22
890.537	907.64
890.712	914.62
890.887	926.05
891.062	910.35
891.237	944.26
891.412	856.69
891.587	899.89
891.762	933.6
891.937	949.3
892.112	860.75
892.287	879.94
892.462	810.57
892.637	845.45
892.812	791.39
892.987	814.26
893.161	811.74
893.336	818.13
893.511	816
893.686	829.56
893.861	806.51
894.035	815.61
894.21	805.15
894.385	773.96
894.56	768.92
894.734	751.87
894.909	736.95
895.084	744.51
895.258	735.4
895.433	735.4
895.608	706.53
895.782	645.11
895.957	696.26
896.131	682.89
896.306	625.74
896.48	610.43
896.655	631.75
896.829	565.1
897.004	588.15
897.178	594.74
897.353	544.17
897.527	619.54
897.701	626.13
897.876	554.44
898.05	638.53
898.224	595.9
898.399	634.07
898.573	601.13
898.747	514.33
898.921	568.39
899.096	433.35
899.27	464.15
899.444	471.9
899.618	515.3
899.792	510.27
899.967	517.63
900.141	561.41
900.315	478.68
900.489	531.97
900.663	518.6
900.837	526.73
901.011	514.72
901.185	577.69
901.359	510.65
901.533	519.95
901.707	506.58
901.881	510.65
902.055	476.94
902.229	511.62
902.403	560.06
902.576	498.83
902.75	528.67
902.924	633.49
903.098	560.45
903.272	615.28
903.446	650.73
903.619	628.84
903.793	645.11
903.967	625.35
904.14	688.32
904.314	652.09
904.488	615.08
904.661	664.49
904.835	671.66
905.009	694.13
905.182	699.94
905.356	643.37
905.529	645.31
905.703	639.3
905.876	634.26
906.05	590.86
906.223	572.07
906.397	506.58
906.57	523.83
906.744	500.38
906.917	495.54
907.09	497.67
907.264	507.75
907.437	481.4
907.61	465.7
907.784	484.88
907.957	499.61
908.13	464.15
908.304	497.67
908.477	462.41
908.65	458.15
908.823	439.74
908.996	488.37
909.17	459.5
909.343	478.1
909.516	457.76
909.689	473.26
909.862	437.22
910.035	463.57
910.208	401.19
910.381	419.59
910.554	504.45
910.727	440.71
910.9	429.86
911.073	452.14
911.246	489.53
911.419	487.98
911.592	452.53
911.765	440.52
911.938	430.83
912.11	457.57
912.283	416.88
912.456	484.88
912.629	424.82
912.802	438.19
912.974	391.89
913.147	385.88
913.32	307.61
913.493	351.2
913.665	371.35
913.838	392.47
914.01	380.45
914.183	394.99
914.356	375.22
914.528	444
914.701	473.65
914.873	410.29
915.046	385.49
915.218	370.38
915.391	297.53
915.563	350.04
915.736	377.16
915.908	397.89
916.081	367.67
916.253	376
916.425	401.96
916.598	384.72
916.77	382
916.942	351.97
917.115	290.56
917.287	367.67
917.459	337.64
917.632	338.61
917.804	291.52
917.976	359.92
918.148	377.16
918.32	385.49
918.493	399.44
918.665	415.91
918.837	386.65
919.009	440.32
919.181	432.38
919.353	413.2
919.525	393.82
919.697	404.87
919.869	410.49
920.041	439.35
920.213	511.62
920.385	447.88
920.557	433.35
920.729	459.12
920.901	453.3
921.073	413
921.244	400.22
921.416	441.68
921.588	412.81
921.76	382.59
921.932	444.97
922.103	407
922.275	377.74
922.447	416.1
922.619	366.51
922.79	400.41
922.962	398.47
923.134	420.95
923.305	348.68
923.477	358.76
923.648	313.81
923.82	351.59
923.991	322.52
924.163	301.99
924.335	344.61
924.506	305.47
924.677	389.75
924.849	315.94
925.02	360.69
925.192	366.12
925.363	358.95
925.535	357.79
925.706	330.66
925.877	380.84
926.049	319.04
926.22	355.07
926.391	350.81
926.562	369.8
926.734	318.65
926.905	370.57
927.076	306.25
927.247	310.9
927.419	293.46
927.59	305.47
927.761	289.59
927.932	283
928.103	291.72
928.274	244.44
928.445	237.28
928.616	254.13
928.787	234.56
928.958	259.17
929.129	286.29
929.3	227.59
929.471	212.48
929.642	171.79
929.813	141.76
929.984	212.67
930.155	136.53
930.326	213.06
930.496	143.31
930.667	94.48
930.838	143.7
931.009	128.97
931.18	128.2
931.35	119.28
931.521	155.71
931.692	85.57
931.863	52.05
932.033	122.58
932.204	100.68
932.374	122.38
932.545	54.77
932.716	133.81
932.886	113.86
933.057	23.96
933.227	58.25
933.398	141.95
933.568	32.68
933.739	22.99
933.909	30.16
934.08	91.38
934.25	-16.34
934.421	2.07
934.591	72.78
934.761	34.03
934.932	11.95
935.102	57.67
935.272	32.48
935.443	33.26
935.613	37.33
935.783	46.63
935.953	-0.45
936.123	131.1
936.294	10.01
936.464	23.77
936.634	44.11
936.804	-2.58
936.974	0.32
937.144	32.29
937.314	34.23
937.484	19.7
937.655	7.49
937.825	84.22
937.995	12.53
938.165	64.07
938.334	42.17
938.504	69.68
938.674	26.48
938.844	45.27
939.014	76.27
939.184	69.68
939.354	134.98
939.524	102.82
939.694	56.12
939.863	65.42
940.033	134.59
940.203	129.16
940.373	91.97
940.542	113.67
940.712	74.92
940.882	101.65
941.051	108.05
941.221	123.16
941.391	120.45
941.56	60.77
941.73	66
941.899	162.3
942.069	86.15
942.238	96.23
942.408	50.7
942.577	114.25
942.747	58.83
942.916	21.44
943.086	67.55
943.255	102.82
943.425	70.07
943.594	29.97
943.763	-2.39
943.933	12.14
944.102	-3.36
944.271	46.82
944.441	62.32
944.61	51.47
944.779	63.29
944.948	143.89
945.117	41.98
945.287	55.73
945.456	16.02
945.625	9.62
945.794	65.23
945.963	20.09
946.132	75.5
946.301	58.25
946.47	76.08
946.639	19.89
946.808	26.87
946.977	82.67
947.146	100.1
947.315	62.71
947.484	63.68
947.653	40.82
947.822	20.86
947.991	38.3
948.16	118.7
948.329	98.94
948.498	64.45
948.666	69.1
948.835	107.85
949.004	18.34
949.173	21.64
949.341	66.78
949.51	48.57
949.679	98.94
949.847	83.63
950.016	121.22
950.185	97.78
950.353	35.78
950.522	46.43
950.69	114.25
950.859	23.57
951.028	89.25
951.196	70.46
951.365	38.3
951.533	65.42
951.701	55.15
951.87	74.33
952.038	28.8
952.207	52.05
952.375	141.76
952.543	30.16
952.712	57.28
952.88	50.5
953.048	106.11
953.217	42.56
953.385	49.73
953.553	93.52
953.721	34.23
953.89	66.58
954.058	2.84
954.226	47.21
954.394	52.05
954.562	5.55
954.73	76.08
954.898	38.3
955.067	88.67
955.235	28.8
955.403	90.8
955.571	113.08
955.739	80.73
955.907	35.97
956.075	51.86
956.243	38.49
956.41	62.13
956.578	29.97
956.746	27.84
956.914	46.05
957.082	84.8
957.25	74.14
957.418	32.29
957.585	93.9
957.753	108.43
957.921	35.78
958.089	56.7
958.256	73.56
958.424	72.2
958.592	76.08
958.759	44.3
958.927	89.83
959.095	16.79
959.262	41.01
959.43	83.25
959.597	19.89
959.765	47.21
959.932	16.6
960.1	80.34
960.267	59.42
960.435	82.67
960.602	107.08
960.77	65.62
960.937	35
961.104	70.27
961.272	-20.8
961.439	35.39
961.606	91
961.774	74.33
961.941	51.08
962.108	77.43
962.275	76.27
962.443	100.88
962.61	82.67
962.777	147.18
962.944	88.48
963.111	70.46
963.278	82.08
963.446	85.57
963.613	106.11
963.78	84.41
963.947	97.78
964.114	62.52
964.281	154.16
964.448	92.55
964.615	72.78
964.782	85.96
964.949	103.01
965.116	103.4
965.282	115.6
965.449	76.85
965.616	55.54
965.783	108.43
965.95	70.07
966.117	43.14
966.283	61.74
966.45	75.88
966.617	72.4
966.784	131.1
966.95	100.68
967.117	86.54
967.284	66.2
967.45	80.92
967.617	112.5
967.784	106.69
967.95	118.51
968.117	81.89
968.283	134.98
968.45	163.85
968.616	108.43
968.783	102.62
968.949	110.95
969.116	128.78
969.282	87.32
969.449	142.34
969.615	105.53
969.781	65.81
969.948	94.68
970.114	53.8
970.28	158.61
970.447	92.93
970.613	120.83
970.779	81.5
970.945	106.3
971.112	99.13
971.278	100.68
971.444	86.15
971.61	135.95
971.776	101.85
971.942	130.13
972.108	122.38
972.275	73.37
972.441	124.51
972.607	174.11
972.773	72.2
972.939	102.04
973.105	122.38
973.271	59.22
973.437	78.02
973.602	54.96
973.768	124.13
973.934	87.32
974.1	126.45
974.266	42.17
974.432	92.93
974.598	51.67
974.763	119.28
974.929	68.72
975.095	148.73
975.261	80.53
975.426	66.2
975.592	83.05
975.758	137.5
975.923	47.4
976.089	83.44
976.255	108.63
976.42	111.92
976.586	92.93
976.751	86.54
976.917	164.04
977.082	111.53
977.248	63.48
977.413	33.07
977.579	60.38
977.744	94.68
977.91	79.95
978.075	97.39
978.24	98.75
978.406	86.35
978.571	82.28
978.736	53.99
978.902	91.77
979.067	39.27
979.232	31.13
979.397	87.51
979.563	146.99
979.728	71.62
979.893	71.82
980.058	64.45
980.223	122.96
980.388	96.03
980.554	84.6
980.719	48.37
980.884	90.8
981.049	107.66
981.214	71.62
981.379	104.37
981.544	51.47
981.709	54.77
981.874	67.17
982.039	88.48
982.204	82.47
982.368	52.44
982.533	72.4
982.698	107.66
982.863	108.43
983.028	68.52
983.193	73.95
983.357	87.32
983.522	78.02
983.687	82.86
983.852	71.82
984.016	53.6
984.181	68.13
984.346	103.59
984.51	142.73
984.675	71.04
984.839	109.21
985.004	91.38
985.168	92.55
985.333	83.44
985.498	81.31
985.662	91.97
985.827	91.58
985.991	70.07
986.155	83.44
986.32	94.1
986.484	125.29
986.649	87.9
986.813	27.45
986.977	88.09
987.142	104.75
987.306	49.53
987.47	51.86
987.634	78.21
987.799	92.55
987.963	88.67
988.127	103.01
988.291	144.28
988.455	69.88
988.62	72.2
988.784	79.57
988.948	93.9
989.112	46.05
989.276	91.58
989.44	76.27
989.604	69.3
989.768	47.6
989.932	158.23
990.096	60.97
990.26	79.18
990.424	32.1
990.588	70.46
990.752	124.51
990.915	110.76
991.079	41.59
991.243	63.29
991.407	88.28
991.571	69.3
991.734	107.66
991.898	107.85
992.062	155.13
992.226	78.4
992.389	60
992.553	34.42
992.717	53.22
992.88	70.07
993.044	74.53
993.207	53.02
993.371	88.09
993.535	89.64
993.698	95.07
993.862	103.2
994.025	118.31
994.189	91.58
994.352	93.32
994.515	84.8
994.679	107.08
994.842	56.12
995.006	102.23
995.169	48.18
995.332	47.02
995.496	101.65
995.659	32.68
995.822	60.97
995.985	62.52
996.149	134.98
996.312	36.36
996.475	124.71
996.638	71.82
996.801	102.82
996.964	119.86
997.128	54.96
997.291	53.22
997.454	71.62
997.617	54.57
997.78	102.62
997.943	49.34
998.106	93.13
998.269	56.51
998.432	63.1
998.595	69.3
998.758	29.38
998.92	13.69
999.083	5.17
999.246	57.28
999.409	22.02
999.572	-14.01
999.735	45.66
999.897	62.13
1000.06	65.23
1000.223	64.65
1000.386	78.4
1000.548	71.43
1000.711	89.25
1000.874	76.66
1001.036	18.34
1001.199	76.66
1001.361	59.8
1001.524	52.05
1001.687	107.85
1001.849	32.1
1002.012	60.58
1002.174	84.6
1002.337	59.22
1002.499	60.19
1002.661	73.37
1002.824	44.5
1002.986	-0.65
1003.149	57.87
1003.311	28.22
1003.473	119.86
1003.636	15.24
1003.798	71.23
1003.96	58.06
1004.123	59.61
1004.285	26.48
1004.447	43.14
1004.609	54.96
1004.771	103.59
1004.933	14.47
1005.096	29
1005.258	24.15
1005.42	34.62
1005.582	77.05
1005.744	54.18
1005.906	17.76
1006.068	57.28
1006.23	4.97
1006.392	-15.18
1006.554	20.86
1006.716	82.86
1006.878	95.26
1007.04	25.9
1007.202	37.13
1007.363	76.66
1007.525	68.33
1007.687	84.6
1007.849	78.79
1008.011	-8.01
1008.172	21.64
1008.334	29.77
1008.496	70.85
1008.658	-22.15
1008.819	25.51
1008.981	19.31
1009.143	-4.33
1009.304	24.93
1009.466	43.92
1009.627	87.12
1009.789	127.81
1009.95	38.3
1010.112	-7.43
1010.273	49.15
1010.435	14.27
1010.596	41.4
1010.758	21.64
1010.919	40.62
1011.081	28.03
1011.242	30.74
1011.403	33.45
1011.565	15.82
1011.726	66
1011.887	4
1012.049	23.38
1012.21	39.46
1012.371	113.86
1012.532	-18.66
1012.693	49.53
1012.855	26.48
1013.016	38.88
1013.177	46.05
1013.338	9.04
1013.499	92.35
1013.66	77.43
1013.821	57.28
1013.982	52.25
1014.143	53.02
1014.304	-2.39
1014.465	45.66
1014.626	31.9
1014.787	41.2
1014.948	91.58
1015.109	-49.47
1015.27	70.46
1015.431	33.26
1015.592	17.18
1015.752	71.04
1015.913	35
1016.074	44.3
1016.235	26.67
1016.395	3.62
1016.556	32.29
1016.717	31.71
1016.877	74.33
1017.038	3.42
1017.199	49.15
1017.359	35
1017.52	54.77
1017.681	1.49
1017.841	20.09
1018.002	26.29
1018.162	-2.58
1018.323	60.58
1018.483	12.14
1018.644	35.2
1018.804	-1.03
1018.964	7.1
1019.125	-2
1019.285	42.75
1019.446	13.69
1019.606	-18.66
1019.766	-23.9
1019.926	51.86
1020.087	21.25
1020.247	16.21
1020.407	50.12
1020.567	83.83
1020.728	11.95
1020.888	-23.9
1021.048	13.69
1021.208	-17.11
1021.368	17.95
1021.528	48.18
1021.688	84.22
1021.848	34.23
1022.008	59.42
1022.168	11.75
1022.328	34.03
1022.488	32.87
1022.648	25.51
1022.808	7.69
1022.968	65.81
1023.128	-3.16
1023.288	-0.84
1023.448	12.53
1023.608	47.6
1023.767	58.25
1023.927	7.88
1024.087	-2.58
1024.247	-27.58
1024.406	25.9
1024.566	-5.49
1024.726	6.14
1024.885	23.19
1025.045	10.4
1025.205	18.34
1025.364	4.59
1025.524	23.96
1025.683	6.14
1025.843	39.27
1026.003	25.32
1026.162	69.1
1026.321	40.23
1026.481	27.84
1026.64	-6.26
1026.8	6.14
1026.959	28.03
1027.119	41.01
1027.278	7.88
1027.437	-5.88
1027.597	24.15
1027.756	18.34
1027.915	39.65
1028.074	43.53
1028.234	-5.49
1028.393	21.64
1028.552	15.82
1028.711	-31.26
1028.87	32.1
1029.03	-8.98
1029.189	21.44
1029.348	-49.47
1029.507	-13.43
1029.666	16.02
1029.825	-17.31
1029.984	-18.47
1030.143	22.99
1030.302	-2
1030.461	-32.81
1030.62	20.47
1030.779	47.79
1030.938	10.98
1031.097	-16.92
1031.255	20.86
1031.414	58.64
1031.573	27.06
1031.732	-11.88
1031.891	21.05
1032.049	76.08
1032.208	6.33
1032.367	4.97
1032.525	1.1
1032.684	23.19
1032.843	9.04
1033.001	-61.09
1033.16	151.06
1033.319	34.03
1033.477	44.88
1033.636	0.32
1033.794	-40.56
1033.953	35.2
1034.111	55.15
1034.27	9.82
1034.428	41.01
1034.587	7.49
1034.745	-2.97
1034.903	17.76
1035.062	38.88
1035.22	-32.42
1035.378	44.88
1035.537	-42.5
1035.695	50.31
1035.853	10.2
1036.011	29.58
1036.17	13.3
1036.328	-52.96
1036.486	31.9
1036.644	13.11
1036.802	-73.11
1036.96	-21.57
1037.119	3.04
1037.277	-10.72
1037.435	-40.75
1037.593	-19.25
1037.751	3.04
1037.909	55.35
1038.067	55.35
