Data from oakcork_FLMT105791__285__17-34-31-052.txt Node

Date: Mon Mar 20 17:34:31 GMT 2023
User: antho
Spectrometer: FLMT10579
Trigger mode: 0
Integration Time (sec): 1.000000E-1
Scans to average: 10
Electric dark correction enabled: true
Nonlinearity correction enabled: false
Boxcar width: 0
XAxis mode: Wavelengths
Number of Pixels in Spectrum: 3648
>>>>>Begin Spectral Data<<<<<
345.248	-166.86
345.464	-166.86
345.681	-166.86
345.898	-150.01
346.114	-151.95
346.331	-45.97
346.548	38.31
346.764	-29.3
346.981	-23.49
347.197	14.1
347.414	2.28
347.631	-20
347.847	41.8
348.064	20.3
348.28	18.36
348.497	-17.1
348.713	0.73
348.93	34.44
349.146	11.77
349.363	-12.06
349.579	3.05
349.796	-7.02
350.012	2.47
350.229	19.71
350.445	7.12
350.661	-9.15
350.878	15.45
351.094	-24.27
351.311	12.93
351.527	-21.36
351.743	-13.03
351.96	20.49
352.176	35.99
352.392	31.92
352.609	41.03
352.825	-25.24
353.041	-5.67
353.257	3.25
353.474	-20.2
353.69	-4.7
353.906	-8.19
354.122	-22.33
354.339	65.63
354.555	-0.05
354.771	6.93
354.987	45.87
355.203	40.64
355.42	-22.33
355.636	0.15
355.852	-4.89
356.068	-5.67
356.284	-11.48
356.5	62.53
356.716	29.01
356.932	2.86
357.148	24.17
357.364	3.25
357.58	47.03
357.796	48.97
358.012	51.49
358.228	24.94
358.444	-37.25
358.66	62.34
358.876	17
359.092	-30.66
359.308	22.23
359.524	30.18
359.74	3.63
359.956	2.47
360.172	2.66
360.388	34.24
360.604	-1.99
360.819	100.89
361.035	14.1
361.251	24.56
361.467	-6.64
361.683	36.18
361.898	19.13
362.114	27.08
362.33	-13.03
362.546	46.64
362.762	16.61
362.977	12.16
363.193	-20.59
363.409	20.3
363.624	-6.64
363.84	-14.19
364.056	-23.69
364.271	18.75
364.487	16.23
364.703	-13.03
364.918	-20.78
365.134	-18.07
365.35	3.05
365.565	97.21
365.781	11
365.996	13.9
366.212	55.75
366.427	21.46
366.643	-15.74
366.858	-2.18
367.074	-21.55
367.289	55.56
367.505	94.31
367.72	-31.24
367.936	3.05
368.151	30.95
368.367	39.09
368.582	25.91
368.798	-10.12
369.013	37.54
369.228	1.89
369.444	-12.45
369.659	47.42
369.874	-1.21
370.09	40.64
370.305	-12.45
370.52	-9.15
370.736	52.46
370.951	-14.58
371.166	38.89
371.381	74.35
371.597	64.66
371.812	-12.25
372.027	14.1
372.242	9.06
372.458	59.04
372.673	-4.31
372.888	17
373.103	27.85
373.318	107.87
373.533	29.21
373.749	21.84
373.964	-27.75
374.179	38.51
374.394	-29.89
374.609	61.37
374.824	-37.44
375.039	53.81
375.254	8.09
375.469	49.94
375.684	19.33
375.899	45.09
376.114	-2.76
376.329	10.41
376.544	38.89
376.759	40.64
376.974	-16.71
377.189	-27.75
377.404	-11.29
377.619	50.33
377.834	-8.19
378.049	-22.91
378.264	-13.61
378.478	23.59
378.693	-9.54
378.908	32.31
379.123	13.13
379.338	92.37
379.553	16.42
379.767	24.94
379.982	45.68
380.197	32.89
380.412	23.78
380.626	31.73
380.841	83.84
381.056	30.76
381.271	76.09
381.485	-14.19
381.7	-3.73
381.915	14.87
382.129	17.2
382.344	9.83
382.559	11.19
382.773	40.06
382.988	-35.12
383.202	40.06
383.417	8.09
383.632	120.85
383.846	19.91
384.061	37.34
384.275	14.1
384.49	35.6
384.704	75.9
384.919	17.39
385.133	9.06
385.348	50.13
385.562	-5.86
385.777	62.92
385.991	20.1
386.206	16.42
386.42	12.16
386.634	50.13
386.849	27.27
387.063	27.66
387.277	-17.87
387.492	5.57
387.706	-10.7
387.92	-24.85
388.135	48.39
388.349	33.28
388.563	9.45
388.778	41.8
388.992	36.38
389.206	33.28
389.42	87.14
389.635	34.05
389.849	48.78
390.063	35.21
390.277	28.43
390.491	78.42
390.706	38.7
390.92	46.84
391.134	38.51
391.348	40.64
391.562	-6.83
391.776	17.58
391.99	-1.21
392.205	61.76
392.419	3.63
392.633	26.49
392.847	61.95
393.061	4.99
393.275	70.09
393.489	34.24
393.703	37.73
393.917	75.13
394.131	-2.57
394.345	50.52
394.559	20.3
394.773	23.78
394.986	54.98
395.2	35.21
395.414	83.46
395.628	23.59
395.842	35.41
396.056	2.47
396.27	-15.94
396.484	36.57
396.697	34.24
396.911	69.12
397.125	54.39
397.339	52.26
397.553	30.18
397.766	79.78
397.98	54.98
398.194	62.34
398.408	25.14
398.621	46.64
398.835	43.16
399.049	34.24
399.262	69.31
399.476	52.84
399.69	56.53
399.903	77.06
400.117	36.57
400.331	45.09
400.544	20.88
400.758	127.63
400.971	57.11
401.185	88.49
401.398	4.41
401.612	80.16
401.826	77.64
402.039	33.66
402.253	37.15
402.466	68.15
402.68	41.99
402.893	44.71
403.106	65.63
403.32	75.13
403.533	59.63
403.747	62.73
403.96	41.41
404.174	89.27
404.387	30.95
404.6	32.69
404.814	68.73
405.027	30.18
405.24	23.78
405.454	39.67
405.667	102.83
405.88	-18.26
406.094	47.03
406.307	80.55
406.52	40.44
406.733	59.24
406.947	20.3
407.16	122.01
407.373	61.18
407.586	25.14
407.799	-7.41
408.012	85.98
408.226	39.86
408.439	98.38
408.652	14.1
408.865	73.19
409.078	114.46
409.291	72.8
409.504	29.59
409.717	70.28
409.93	79.19
410.143	69.89
410.357	28.24
410.57	8.86
410.783	65.63
410.996	62.34
411.209	70.48
411.421	79.39
411.634	64.28
411.847	30.56
412.06	60.21
412.273	25.53
412.486	34.63
412.699	144.29
412.912	65.24
413.125	87.72
413.338	82.88
413.55	76.87
413.763	52.65
413.976	78.23
414.189	54.59
414.402	36.18
414.615	102.64
414.827	26.11
415.04	73.19
415.253	94.11
415.466	75.32
415.678	103.99
415.891	56.72
416.104	73.58
416.316	66.41
416.529	38.51
416.742	68.15
416.954	79.58
417.167	55.75
417.38	25.72
417.592	122.4
417.805	38.89
418.017	8.86
418.23	95.47
418.442	46.84
418.655	48.97
418.868	34.05
419.08	79
419.293	104.38
419.505	59.63
419.718	70.86
419.93	107.87
420.142	35.79
420.355	110.77
420.567	87.14
420.78	58.08
420.992	37.34
421.205	137.71
421.417	23.78
421.629	42.77
421.842	29.4
422.054	13.13
422.266	92.18
422.479	82.49
422.691	39.86
422.903	84.81
423.115	53.81
423.328	40.64
423.54	69.31
423.752	74.16
423.964	54.39
424.177	70.28
424.389	71.44
424.601	166.77
424.813	84.43
425.025	84.62
425.238	98.38
425.45	70.09
425.662	40.64
425.874	314.98
426.086	54.98
426.298	86.94
426.51	72.8
426.722	78.23
426.934	45.68
427.146	87.72
427.358	62.92
427.57	96.63
427.782	74.93
427.994	76.48
428.206	38.89
428.418	42.19
428.63	84.81
428.842	105.35
429.054	87.72
429.266	119.88
429.478	35.6
429.69	69.89
429.902	54.59
430.114	86.56
430.325	81.33
430.537	48.97
430.749	59.04
430.961	25.53
431.173	60.98
431.384	85.78
431.596	3.83
431.808	67.38
432.02	83.26
432.231	101.48
432.443	112.52
432.655	71.83
432.867	30.37
433.078	73.96
433.29	143.32
433.502	92.18
433.713	116.97
433.925	106.51
434.136	118.33
434.348	32.31
434.56	40.25
434.771	187.11
434.983	41.03
435.194	58.46
435.406	93.53
435.617	134.61
435.829	138.48
436.04	90.82
436.252	100.89
436.463	117.36
436.675	111.94
436.886	100.12
437.098	77.84
437.309	101.09
437.521	95.66
437.732	94.5
437.943	91.01
438.155	93.73
438.366	62.92
438.578	138.87
438.789	110.39
439	119.69
439.211	121.43
439.423	98.76
439.634	110
439.845	110.58
440.057	118.52
440.268	122.79
440.479	51.88
440.69	79.19
440.902	89.27
441.113	88.3
441.324	99.93
441.535	117.94
441.746	145.46
441.957	66.41
442.168	74.35
442.38	97.02
442.591	124.53
442.802	75.71
443.013	71.64
443.224	113.87
443.435	62.14
443.646	113.1
443.857	79.19
444.068	80.36
444.279	81.13
444.49	162.51
444.701	93.14
444.912	183.43
445.123	131.31
445.334	100.31
445.545	117.75
445.756	116.78
445.967	91.4
446.178	113.68
446.388	135.57
446.599	145.26
446.81	125.89
447.021	103.22
447.232	145.46
447.443	149.91
447.653	70.86
447.864	123.17
448.075	109.42
448.286	141.97
448.496	106.9
448.707	135.77
448.918	100.7
449.129	188.86
449.339	88.88
449.55	130.73
449.761	100.31
449.971	142.55
450.182	116.2
450.393	134.02
450.603	90.43
450.814	134.8
451.024	147.2
451.235	140.81
451.446	153.4
451.656	150.69
451.867	94.89
452.077	148.17
452.288	156.89
452.498	189.05
452.709	111.16
452.919	124.72
453.13	87.72
453.34	172.58
453.55	89.46
453.761	135.19
453.971	147.01
454.182	153.01
454.392	104.19
454.602	166.96
454.813	116.97
455.023	172.97
455.233	96.83
455.444	143.52
455.654	81.91
455.864	101.28
456.075	111.74
456.285	118.33
456.495	122.79
456.705	123.95
456.916	176.46
457.126	197.77
457.336	147.97
457.546	66.79
457.756	137.9
457.967	193.7
458.177	117.56
458.387	127.44
458.597	112.91
458.807	112.52
459.017	144.29
459.227	137.9
459.437	125.31
459.647	141.77
459.857	165.99
460.068	161.15
460.278	171.42
460.488	178.59
460.698	193.51
460.908	141.58
461.117	64.28
461.327	100.31
461.537	157.08
461.747	146.04
461.957	139.64
462.167	240
462.377	164.64
462.587	144.29
462.797	181.11
463.007	162.51
463.216	170.06
463.426	176.46
463.636	194.86
463.846	110.77
464.056	117.56
464.265	178.2
464.475	127.05
464.685	139.45
464.895	178.2
465.104	136.74
465.314	157.66
465.524	121.04
465.733	135.38
465.943	203.39
466.153	193.12
466.362	167.93
466.572	137.12
466.782	142.74
466.991	135.38
467.201	198.54
467.41	122.98
467.62	173.55
467.829	130.15
468.039	156.31
468.249	154.56
468.458	147.01
468.668	153.59
468.877	182.66
469.086	207.45
469.296	173.16
469.505	121.82
469.715	204.74
469.924	183.82
470.134	165.8
470.343	218.5
470.552	166.38
470.762	152.82
470.971	121.04
471.18	163.28
471.39	163.28
471.599	144.68
471.808	177.81
472.018	131.51
472.227	183.24
472.436	196.8
472.645	178.01
472.855	137.32
473.064	199.9
473.273	171.81
473.482	200.29
473.691	222.18
473.901	190.99
474.11	172.97
474.319	257.05
474.528	173.94
474.737	196.02
474.946	196.8
475.155	184.21
475.364	209.2
475.573	182.46
475.783	182.27
475.992	181.88
476.201	225.67
476.41	196.8
476.619	145.84
476.828	186.72
477.037	167.93
477.245	190.79
477.454	237.1
477.663	171.03
477.872	198.93
478.081	266.16
478.29	169.67
478.499	263.06
478.708	197.96
478.917	232.25
479.125	203.19
479.334	217.72
479.543	187.5
479.752	199.51
479.961	203.58
480.169	225.28
480.378	200.09
480.587	331.65
480.796	226.25
481.004	198.74
481.213	236.13
481.422	231.67
481.63	234.39
481.839	237.68
482.048	270.62
482.256	226.83
482.465	222.95
482.674	249.3
482.882	261.51
483.091	288.63
483.299	236.13
483.508	280.89
483.716	240.59
483.925	269.45
484.134	227.02
484.342	240.97
484.551	263.45
484.759	261.51
484.967	260.74
485.176	251.44
485.384	273.91
485.593	289.02
485.801	246.79
486.01	258.99
486.218	258.6
486.426	214.04
486.635	227.02
486.843	233.61
487.051	265.19
487.26	238.84
487.468	265
487.676	257.64
487.885	210.94
488.093	233.8
488.301	256.67
488.509	252.79
488.717	264.8
488.926	290.38
489.134	266.94
489.342	284.57
489.55	240.39
489.758	254.73
489.967	225.28
490.175	359.74
490.383	262.48
490.591	344.82
490.799	216.95
491.007	299.87
491.215	270.81
491.423	250.27
491.631	272.17
491.839	285.15
492.047	327.58
492.255	256.09
492.463	221.4
492.671	275.85
492.879	297.93
493.087	291.93
493.295	277.2
493.503	291.54
493.711	297.93
493.919	307.43
494.127	344.24
494.334	309.56
494.542	271.78
494.75	271.39
494.958	277.2
495.166	316.15
495.374	295.22
495.581	303.75
495.789	295.8
495.997	344.24
496.205	299.87
496.412	299.68
496.62	303.75
496.828	297.16
497.035	298.71
497.243	341.72
497.451	315.95
497.658	293.87
497.866	291.73
498.074	374.66
498.281	263.06
498.489	375.24
498.696	325.25
498.904	307.43
499.112	306.65
499.319	361.68
499.527	320.8
499.734	370.78
499.942	269.26
500.149	294.83
500.357	312.66
500.564	292.51
500.771	315.95
500.979	305.1
501.186	306.07
501.394	304.72
501.601	331.26
501.808	317.5
502.016	302.97
502.223	301.81
502.43	312.08
502.638	309.56
502.845	301.81
503.052	366.91
503.26	321.18
503.467	362.26
503.674	294.64
503.881	314.79
504.089	410.7
504.296	360.32
504.503	308.4
504.71	314.79
504.917	272.55
505.125	331.07
505.332	347.53
505.539	347.15
505.746	370.2
505.953	370.2
506.16	340.56
506.367	377.37
506.574	405.66
506.781	386.09
506.988	302.78
507.195	336.49
507.402	337.27
507.609	384.35
507.816	312.47
508.023	331.07
508.23	345.6
508.437	305.68
508.644	368.65
508.851	395.58
509.058	361.87
509.265	373.88
509.472	363.42
509.679	432.01
509.885	361.87
510.092	366.91
510.299	361.29
510.506	378.53
510.713	359.74
510.92	358.77
511.126	387.06
511.333	371.17
511.54	413.41
511.746	401.78
511.953	395.39
512.16	418.45
512.367	387.25
512.573	378.73
512.78	405.08
512.987	385.51
513.193	399.26
513.4	334.55
513.606	372.14
513.813	430.46
514.02	400.43
514.226	445.38
514.433	443.05
514.639	358.97
514.846	403.72
515.052	365.55
515.259	363.81
515.465	406.43
515.672	390.35
515.878	476.18
516.085	392.68
516.291	410.5
516.497	354.12
516.704	402.75
516.91	384.73
517.117	336.1
517.323	318.86
517.529	366.13
517.736	354.32
517.942	369.82
518.148	386.28
518.354	392.48
518.561	383.76
518.767	384.54
518.973	394.03
519.179	425.61
519.386	354.51
519.592	352.38
519.798	370.01
520.004	422.51
520.21	386.09
520.417	421.35
520.623	437.82
520.829	459.33
521.035	445.76
521.241	453.51
521.447	460.68
521.653	548.64
521.859	445.96
522.065	466.3
522.271	513.96
522.477	479.67
522.683	506.21
522.889	461.07
523.095	484.51
523.301	468.82
523.507	439.56
523.713	469.79
523.919	444.41
524.125	488.58
524.331	449.45
524.537	506.02
524.742	494.59
524.948	502.53
525.154	493.23
525.36	582.16
525.566	535.28
525.772	519.97
525.977	476.57
526.183	533.14
526.389	531.98
526.595	509.51
526.8	476.96
527.006	472.5
527.212	451.96
527.417	483.93
527.623	474.63
527.829	512.99
528.034	510.28
528.24	475.21
528.446	456.61
528.651	552.13
528.857	523.07
529.062	564.72
529.268	516.48
529.473	540.7
529.679	510.86
529.884	577.51
530.09	547.48
530.295	584.87
530.501	562.21
530.706	528.49
530.912	491.88
531.117	537.99
531.323	530.63
531.528	559.49
531.733	575.77
531.939	517.06
532.144	590.11
532.35	546.32
532.555	594.17
532.76	592.04
532.966	590.49
533.171	559.3
533.376	523.84
533.581	540.31
533.787	536.83
533.992	575.38
534.197	604.64
534.402	555.23
534.607	561.43
534.813	680.97
535.018	566.86
535.223	562.4
535.428	565.89
535.633	622.66
535.838	624.59
536.043	573.83
536.249	651.72
536.454	566.27
536.659	581
536.864	546.12
537.069	578.29
537.274	598.44
537.479	606.57
537.684	604.64
537.889	566.27
538.094	669.54
538.299	583.32
538.504	601.54
538.708	625.17
538.913	630.79
539.118	606.96
539.323	620.91
539.528	578.29
539.733	590.11
539.938	604.25
540.142	636.41
540.347	606.77
540.552	557.17
540.757	601.15
540.962	582.36
541.166	556.78
541.371	562.98
541.576	590.69
541.781	513.19
541.985	600.76
542.19	602.31
542.395	660.05
542.599	669.15
542.804	613.55
543.008	655.79
543.213	579.26
543.418	568.79
543.622	628.27
543.827	592.62
544.031	642.42
544.236	667.6
544.44	607.74
544.645	689.11
544.849	602.31
545.054	647.07
545.258	703.84
545.463	668.19
545.667	620.91
545.872	604.06
546.076	636.22
546.281	618.78
546.485	611.81
546.689	639.9
546.894	631.76
547.098	621.88
547.302	612.39
547.507	618.2
547.711	644.16
547.915	674.58
548.119	601.92
548.324	626.53
548.528	649.97
548.732	616.84
548.936	636.8
549.141	656.37
549.345	608.32
549.549	648.23
549.753	599.6
549.957	711.2
550.161	695.12
550.366	631.57
550.57	628.08
550.774	651.72
550.978	635.64
551.182	671.87
551.386	613.36
551.59	613.55
551.794	619.75
551.998	670.51
552.202	635.44
552.406	595.14
552.61	640.29
552.814	650.94
553.018	697.44
553.222	645.13
553.426	631.57
553.63	705.58
553.833	641.45
554.037	602.12
554.241	676.9
554.445	655.59
554.649	643
554.853	632.34
555.056	673.03
555.26	655.79
555.464	644.35
555.668	643.39
555.871	702.67
556.075	632.54
556.279	633.12
556.483	610.64
556.686	663.34
556.89	640.48
557.094	634.47
557.297	583.71
557.501	649.59
557.704	591.27
557.908	660.05
558.112	611.61
558.315	702.48
558.519	615.49
558.722	616.26
558.926	601.73
559.129	596.69
559.333	558.91
559.536	562.4
559.74	599.21
559.943	568.6
560.147	570.73
560.35	595.72
560.553	598.24
560.757	529.27
560.96	658.69
561.164	577.32
561.367	648.42
561.57	575.38
561.774	604.44
561.977	577.32
562.18	612.58
562.384	625.95
562.587	600.37
562.79	606.96
562.993	589.91
563.197	613.94
563.4	668.57
563.603	640.48
563.806	659.66
564.009	579.26
564.212	581.97
564.416	542.25
564.619	609.48
564.822	561.62
565.025	642.03
565.228	581.39
565.431	574.61
565.634	513.96
565.837	564.14
566.04	536.83
566.243	562.01
566.446	512.22
566.649	606.57
566.852	530.43
567.055	557.17
567.258	574.22
567.461	608.12
567.664	636.41
567.867	521.71
568.07	563.37
568.273	573.25
568.475	602.89
568.678	554.26
568.881	544.58
569.084	541.48
569.287	466.88
569.489	514.93
569.692	554.84
569.895	570.73
570.098	499.04
570.3	497.88
570.503	457.58
570.706	507.76
570.909	500.01
571.111	447.31
571.314	483.16
571.516	524.81
571.719	508.34
571.922	493.62
572.124	512.61
572.327	495.56
572.529	452.55
572.732	482.19
572.935	479.28
573.137	535.08
573.34	488.78
573.542	487.03
573.745	488.58
573.947	528.49
574.15	487.81
574.352	466.3
574.554	522.49
574.757	477.93
574.959	468.63
575.162	459.13
575.364	453.32
575.566	546.32
575.769	466.11
575.971	499.24
576.173	405.66
576.376	487.23
576.578	501.37
576.78	524.81
576.982	405.46
577.185	425.03
577.387	414.38
577.589	429.49
577.791	464.36
577.993	448.86
578.196	438.01
578.398	468.82
578.6	517.06
578.802	416.9
579.004	421.55
579.206	432.78
579.408	476.76
579.61	435.5
579.812	492.84
580.014	435.88
580.216	426
580.418	470.37
580.62	429.49
580.822	395.97
581.024	452.16
581.226	474.63
581.428	428.71
581.63	488.39
581.832	430.26
582.034	508.15
582.236	453.71
582.438	482.96
582.64	489.55
582.841	505.63
583.043	507.38
583.245	447.9
583.447	461.65
583.649	437.82
583.85	466.49
584.052	520.55
584.254	427.55
584.456	485.09
584.657	423.87
584.859	455.45
585.061	430.07
585.262	419.22
585.464	403.91
585.666	471.53
585.867	414.57
586.069	515.71
586.27	475.79
586.472	442.66
586.674	437.05
586.875	437.63
587.077	419.03
587.278	452.35
587.48	426.39
587.681	506.79
587.883	449.83
588.084	366.91
588.285	407.79
588.487	437.24
588.688	420
588.89	408.18
589.091	386.28
589.292	412.44
589.494	419.03
589.695	353.93
589.896	353.54
590.098	349.67
590.299	389.19
590.5	368.07
590.702	376.4
590.903	410.31
591.104	451.19
591.305	402.56
591.507	457.78
591.708	408.76
591.909	372.14
592.11	461.84
592.311	448.67
592.512	382.02
592.714	366.52
592.915	389.77
593.116	381.05
593.317	401.2
593.518	376.98
593.719	390.55
593.92	398.88
594.121	440.53
594.322	382.6
594.523	401.98
594.724	355.87
594.925	369.23
595.126	423.68
595.327	421.16
595.528	407.98
595.729	423.1
595.929	379.31
596.13	419.61
596.331	389.38
596.532	411.47
596.733	422.51
596.934	407.98
597.135	412.83
597.335	395.39
597.536	375.43
597.737	395.58
597.938	386.48
598.138	409.92
598.339	363.23
598.54	423.68
598.74	373.88
598.941	421.35
599.142	425.03
599.342	402.56
599.543	364.39
599.744	378.53
599.944	378.73
600.145	373.11
600.345	419.8
600.546	473.66
600.746	472.11
600.947	434.91
601.147	408.37
601.348	422.13
601.548	386.67
601.749	385.7
601.949	368.65
602.15	375.82
602.35	396.94
602.551	431.81
602.751	354.51
602.951	369.82
603.152	367.88
603.352	403.91
603.552	383.57
603.753	425.23
603.953	412.05
604.153	390.35
604.354	386.67
604.554	385.12
604.754	385.51
604.954	359.74
605.155	386.67
605.355	382.6
605.555	432.01
605.755	429.1
605.955	342.88
606.155	420
606.356	401.98
606.556	446.54
606.756	401.59
606.956	336.1
607.156	447.7
607.356	357.03
607.556	445.76
607.756	404.11
607.956	397.13
608.156	408.95
608.356	396.16
608.556	416.12
608.756	387.45
608.956	373.88
609.156	402.17
609.356	366.91
609.556	364
609.755	398.3
609.955	368.46
610.155	366.52
610.355	369.62
610.555	357.42
610.755	382.99
610.954	349.08
611.154	364.97
611.354	420.96
611.554	365.94
611.753	360.52
611.953	312.08
612.153	406.82
612.352	398.3
612.552	324.09
612.752	298.71
612.951	371.36
613.151	351.41
613.351	342.88
613.55	361.29
613.75	373.3
613.949	351.8
614.149	373.69
614.348	360.13
614.548	335.13
614.747	284.57
614.947	352.18
615.146	305.3
615.346	384.54
615.545	374.27
615.745	367.1
615.944	359.55
616.144	367.3
616.343	366.33
616.542	341.72
616.742	363.03
616.941	333.78
617.14	309.75
617.34	359.55
617.539	337.07
617.738	339.2
617.938	400.43
618.137	348.7
618.336	306.65
618.535	350.83
618.734	350.44
618.934	366.33
619.133	348.12
619.332	362.26
619.531	332.62
619.73	323.32
619.929	381.44
620.128	379.31
620.328	374.27
620.527	339.2
620.726	319.05
620.925	353.54
621.124	333.78
621.323	341.14
621.522	306.46
621.721	296.19
621.92	310.72
622.119	360.13
622.318	324.67
622.517	344.24
622.715	331.07
622.914	294.64
623.113	310.72
623.312	282.24
623.511	332.23
623.71	333.2
623.909	308.59
624.107	372.14
624.306	307.62
624.505	289.8
624.704	295.22
624.902	322.54
625.101	353.73
625.3	305.3
625.499	300.45
625.697	308.59
625.896	277.79
626.095	320.6
626.293	297.55
626.492	276.62
626.69	337.46
626.889	290.18
627.088	358.97
627.286	280.89
627.485	285.15
627.683	284.95
627.882	333.78
628.08	252.4
628.279	275.65
628.477	347.73
628.676	243.88
628.874	345.6
629.073	271.59
629.271	254.92
629.469	320.6
629.668	280.69
629.866	316.73
630.065	294.83
630.263	333.39
630.461	257.44
630.66	302.97
630.858	334.55
631.056	310.33
631.254	328.74
631.453	259.19
631.651	313.63
631.849	276.82
632.047	302
632.245	288.25
632.444	308.01
632.642	315.18
632.84	314.4
633.038	293.48
633.236	256.47
633.434	277.79
633.632	258.41
633.83	270.42
634.028	296
634.227	302.58
634.425	358.77
634.623	293.09
634.821	302
635.019	293.87
635.216	247.37
635.414	320.02
635.612	295.22
635.81	269.65
636.008	350.63
636.206	286.89
636.404	306.85
636.602	249.11
636.8	308.01
636.997	312.08
637.195	339.4
637.393	272.36
637.591	342.88
637.789	296.77
637.986	292.51
638.184	302.78
638.382	302.39
638.58	312.85
638.777	338.04
638.975	320.41
639.173	293.28
639.37	297.16
639.568	297.35
639.765	337.46
639.963	279.72
640.161	344.43
640.358	322.15
640.556	282.82
640.753	248.14
640.951	257.83
641.148	320.02
641.346	265.77
641.543	275.65
641.741	309.75
641.938	254.92
642.136	298.52
642.333	253.57
642.531	328.93
642.728	320.41
642.925	267.71
643.123	237.68
643.32	290.96
643.517	292.9
643.715	276.24
643.912	260.35
644.109	319.44
644.306	285.34
644.504	269.26
644.701	291.35
644.898	318.67
645.095	259.57
645.293	274.1
645.49	310.53
645.687	292.12
645.884	313.63
646.081	237.49
646.278	269.84
646.475	272.17
646.672	258.99
646.87	288.83
647.067	300.65
647.264	261.51
647.461	223.54
647.658	225.28
647.855	289.6
648.052	252.99
648.249	210.17
648.446	257.25
648.642	233.22
648.839	226.44
649.036	250.66
649.233	242.72
649.43	220.63
649.627	193.7
649.824	233.42
650.021	218.69
650.217	230.7
650.414	233.22
650.611	282.44
650.808	265.97
651.004	248.34
651.201	262.87
651.398	308.78
651.595	266.94
651.791	232.45
651.988	278.56
652.185	232.06
652.381	272.94
652.578	226.05
652.775	247.56
652.971	227.22
653.168	251.63
653.364	255.89
653.561	158.44
653.757	231.48
653.954	269.84
654.15	220.24
654.347	291.15
654.543	251.05
654.74	187.89
654.936	194.47
655.133	218.3
655.329	231.09
655.525	238.65
655.722	270.42
655.918	237.68
656.115	250.27
656.311	183.43
656.507	187.31
656.704	184.4
656.9	194.86
657.096	186.92
657.292	176.46
657.489	234.19
657.685	215.4
657.881	208.04
658.077	209.39
658.273	232.25
658.47	266.16
658.666	200.48
658.862	235.16
659.058	211.91
659.254	249.89
659.45	177.42
659.646	229.74
659.842	207.07
660.038	250.66
660.234	218.3
660.43	210.94
660.626	298.71
660.822	240.78
661.018	264.03
661.214	251.05
661.41	193.51
661.606	234.39
661.802	249.11
661.998	237.1
662.194	190.99
662.39	248.92
662.586	261.51
662.781	233.42
662.977	203.97
663.173	261.51
663.369	213.65
663.564	220.44
663.76	270.23
663.956	229.93
664.152	266.55
664.347	155.92
664.543	239.04
664.739	201.25
664.934	186.53
665.13	158.63
665.326	240.78
665.521	226.83
665.717	207.84
665.912	182.46
666.108	153.21
666.304	176.26
666.499	219.08
666.695	153.79
666.89	185.37
667.086	243.3
667.281	205.13
667.477	273.33
667.672	199.32
667.867	217.34
668.063	215.4
668.258	198.54
668.454	183.04
668.649	243.1
668.844	225.09
669.04	236.32
669.235	219.85
669.43	208.81
669.626	179.17
669.821	195.83
670.016	160.18
670.211	211.14
670.407	193.89
670.602	210.36
670.797	188.27
670.992	239.04
671.187	183.24
671.382	229.74
671.578	200.29
671.773	198.93
671.968	190.21
672.163	225.47
672.358	220.82
672.553	178.01
672.748	202.22
672.943	252.6
673.138	205.71
673.333	241.75
673.528	191.18
673.723	206.29
673.918	192.92
674.113	171.03
674.308	266.55
674.503	223.15
674.698	237.29
674.892	225.47
675.087	237.29
675.282	223.92
675.477	200.09
675.672	219.08
675.867	198.15
676.061	163.09
676.256	155.92
676.451	172.58
676.646	205.71
676.84	169.29
677.035	146.23
677.23	182.66
677.424	215.79
677.619	241.17
677.814	209.2
678.008	227.02
678.203	149.72
678.397	163.67
678.592	191.37
678.787	239.23
678.981	182.66
679.176	193.89
679.37	199.12
679.565	189.05
679.759	188.27
679.954	212.49
680.148	241.36
680.342	233.61
680.537	223.34
680.731	199.32
680.926	212.1
681.12	228.19
681.314	191.18
681.509	180.52
681.703	199.7
681.897	218.3
682.092	187.89
682.286	186.92
682.48	256.67
682.674	237.1
682.869	170.26
683.063	166.77
683.257	239.23
683.451	189.82
683.645	206.1
683.839	193.31
684.034	184.01
684.228	254.15
684.422	161.73
684.616	161.34
684.81	198.54
685.004	190.6
685.198	184.01
685.392	227.02
685.586	191.96
685.78	218.89
685.974	210.75
686.168	197.77
686.362	242.33
686.556	190.02
686.75	172.19
686.944	186.92
687.138	202.8
687.331	145.84
687.525	173.16
687.719	124.72
687.913	174.32
688.107	194.86
688.301	149.33
688.494	200.09
688.688	146.42
688.882	136.74
689.076	120.85
689.269	159.21
689.463	233.22
689.657	156.5
689.85	166.19
690.044	178.78
690.238	144.29
690.431	157.47
690.625	159.21
690.818	180.91
691.012	180.72
691.205	204.74
691.399	155.14
691.593	178.78
691.786	218.11
691.98	206.87
692.173	236.32
692.366	205.9
692.56	228.96
692.753	247.56
692.947	197.38
693.14	237.49
693.333	223.15
693.527	160.57
693.72	217.14
693.914	214.43
694.107	200.87
694.3	216.95
694.493	218.89
694.687	235.55
694.88	199.51
695.073	266.16
695.266	229.15
695.46	209.97
695.653	237.87
695.846	262.09
696.039	172
696.232	229.35
696.425	257.64
696.618	275.85
696.812	251.24
697.005	267.9
697.198	351.6
697.391	248.92
697.584	282.63
697.777	326.8
697.97	309.56
698.163	310.33
698.356	257.83
698.549	362.26
698.742	297.55
698.935	265
699.127	327.97
699.32	277.59
699.513	271.97
699.706	328.35
699.899	309.37
700.092	289.99
700.285	318.28
700.477	265.19
700.67	318.47
700.863	338.43
701.056	407.98
701.248	385.9
701.441	370.01
701.634	335.33
701.826	439.95
702.019	362.84
702.212	383.18
702.404	334.36
702.597	314.79
702.79	355.09
702.982	372.14
703.175	406.43
703.367	374.27
703.56	392.1
703.752	446.15
703.945	440.34
704.137	416.31
704.33	446.73
704.522	442.28
704.715	419.03
704.907	457.97
705.1	455.45
705.292	447.9
705.484	452.35
705.677	469.21
705.869	458.36
706.061	485.48
706.254	523.84
706.446	476.57
706.638	488.19
706.831	540.31
707.023	479.67
707.215	559.49
707.407	542.83
707.599	514.93
707.792	556.01
707.984	547.48
708.176	561.04
708.368	539.34
708.56	555.23
708.752	532.95
708.944	532.56
709.136	578.29
709.329	576.35
709.521	657.92
709.713	622.27
709.905	595.92
710.097	644.55
710.289	603.67
710.481	625.56
710.672	608.9
710.864	609.29
711.056	704.03
711.248	665.86
711.44	651.52
711.632	633.51
711.824	683.69
712.016	760.41
712.207	705.77
712.399	713.14
712.591	775.13
712.783	724.37
712.975	726.12
713.166	685.43
713.358	700.15
713.55	765.45
713.741	770.29
713.933	757.89
714.125	755.95
714.316	757.12
714.508	793.35
714.7	813.3
714.891	808.07
715.083	822.6
715.274	827.25
715.466	796.06
715.657	825.51
715.849	724.37
716.04	808.46
716.232	733.28
716.423	828.03
716.615	768.16
716.806	763.51
716.998	772.42
717.189	728.05
717.381	698.22
717.572	677.68
717.763	741.23
717.955	696.86
718.146	688.34
718.337	678.45
718.528	630.6
718.72	624.98
718.911	718.56
719.102	655.2
719.293	683.88
719.485	658.89
719.676	653.46
719.867	658.3
720.058	674.97
720.249	652.3
720.44	681.36
720.632	685.43
720.823	713.52
721.014	766.22
721.205	774.17
721.396	810.98
721.587	879.56
721.778	858.25
721.969	882.08
722.16	933.81
722.351	885.76
722.542	969.66
722.733	1013.83
722.924	895.45
723.115	960.16
723.305	978.38
723.496	975.86
723.687	893.71
723.878	935.75
724.069	946.02
724.26	934.2
724.45	886.73
724.641	934.59
724.832	928.97
725.023	918.89
725.213	915.41
725.404	873.95
725.595	907.08
725.785	883.83
725.976	964.62
726.167	954.35
726.357	913.47
726.548	1002.21
726.739	947.18
726.929	1017.9
727.12	1001.43
727.31	1032.24
727.501	993.1
727.691	1019.84
727.882	1039.99
728.072	1047.54
728.263	1020.03
728.453	1070.21
728.644	1081.84
728.834	1076.41
729.024	1055.1
729.215	1039.02
729.405	1051.22
729.596	1149.07
729.786	1131.82
729.976	1122.91
730.167	1140.54
730.357	1089
730.547	1122.91
730.737	1147.52
730.928	1177.16
731.118	1207.77
731.308	1170.77
731.498	1176
731.688	1218.43
731.879	1215.13
732.069	1273.84
732.259	1254.66
732.449	1301.93
732.639	1319.95
732.829	1360.83
733.019	1369.36
733.209	1406.75
733.399	1371.29
733.589	1419.15
733.779	1430.19
733.969	1460.42
734.159	1454.41
734.349	1517.57
734.539	1494.91
734.729	1500.52
734.919	1565.62
735.109	1575.12
735.299	1518.35
735.488	1572.99
735.678	1580.35
735.868	1579.77
736.058	1575.12
736.248	1523.58
736.437	1544.89
736.627	1534.62
736.817	1624.13
737.007	1583.45
737.196	1605.53
737.386	1598.17
737.576	1580.74
737.765	1644.48
737.955	1639.44
738.144	1708.22
738.334	1669.08
738.524	1591.39
738.713	1662.11
738.903	1631.5
739.092	1692.72
739.282	1661.33
739.471	1690.01
739.661	1712.48
739.85	1733.6
740.04	1710.74
740.229	1770.8
740.419	1735.15
740.608	1761.7
740.797	1764.99
740.987	1838.23
741.176	1804.51
741.365	1730.7
741.555	1726.43
741.744	1781.07
741.933	1809.94
742.123	1809.94
742.312	1808.19
742.501	1852.18
742.69	1879.11
742.88	1761.31
743.069	1871.36
743.258	1805.29
743.447	1876.78
743.636	1887.63
743.825	1876.78
744.014	1847.53
744.204	1887.05
744.393	1878.14
744.582	1898.09
744.771	1892.86
744.96	1865.16
745.149	1892.67
745.338	1885.5
745.527	1907.97
745.716	1898.67
745.905	1887.44
746.094	1858.76
746.283	1942.85
746.471	1935.29
746.66	1951.95
746.849	1954.86
747.038	1993.03
747.227	1905.26
747.416	1951.76
747.604	1928.32
747.793	1925.22
747.982	1963.39
748.171	1918.82
748.359	1973.85
748.548	1926.96
748.737	1914.56
748.926	1949.24
749.114	1875.81
749.303	1915.14
749.491	1919.41
749.68	1876.97
749.869	1955.25
750.057	1931.81
750.246	1881.04
750.434	1914.76
750.623	1924.25
750.811	1892.09
751	1953.89
751.188	1909.33
751.377	1943.24
751.565	1888.79
751.754	1865.93
751.942	1880.46
752.131	1944.2
752.319	1872.32
752.507	1823.5
752.696	1946.14
752.884	1955.83
753.072	1874.65
753.261	1925.61
753.449	1898.67
753.637	1912.43
753.825	1971.72
754.014	1897.51
754.202	1906.23
754.39	1961.06
754.578	1926.19
754.766	1892.47
754.955	1860.7
755.143	1938.39
755.331	1879.3
755.519	1892.28
755.707	1928.32
755.895	1882.21
756.083	1882.21
756.271	1869.81
756.459	1881.24
756.647	1930.26
756.835	1856.24
757.023	1857.99
757.211	1852.37
757.399	1879.49
757.587	1849.46
757.775	1842.49
757.963	1811.68
758.151	1868.26
758.339	1824.08
758.526	1826.6
758.714	1851.21
758.902	1771.19
759.09	1725.27
759.278	1602.24
759.465	1495.87
759.653	1262.41
759.841	1166.5
760.028	991.16
760.216	836.36
760.404	834.81
760.591	660.63
760.779	550
760.967	473.28
761.154	379.11
761.342	451.58
761.529	436.85
761.717	458.94
761.905	422.71
762.092	473.28
762.28	405.66
762.467	456.03
762.655	381.25
762.842	397.33
763.029	425.03
763.217	426.58
763.404	414.96
763.592	446.35
763.779	405.27
763.966	438.6
764.154	464.17
764.341	506.41
764.528	493.04
764.716	534.11
764.903	557.75
765.09	602.7
765.277	629.63
765.465	722.05
765.652	715.46
765.839	811.95
766.026	871.43
766.213	870.07
766.4	933.43
766.588	1070.4
766.775	1061.69
766.962	1129.11
767.149	1131.24
767.336	1295.54
767.523	1229.08
767.71	1309.88
767.897	1386.21
768.084	1409.85
768.271	1435.04
768.458	1452.09
768.645	1511.57
768.832	1437.56
769.019	1526.68
769.206	1527.26
769.392	1578.99
769.579	1655.52
769.766	1632.27
769.953	1601.85
770.14	1638.67
770.327	1609.41
770.513	1634.4
770.7	1718.49
770.887	1605.73
771.073	1681.87
771.26	1630.72
771.447	1642.54
771.634	1628.01
771.82	1705.9
772.007	1624.91
772.193	1618.13
772.38	1698.15
772.567	1688.85
772.753	1661.53
772.94	1709.58
773.126	1721.98
773.313	1671.6
773.499	1705.9
773.686	1701.44
773.872	1647.77
774.059	1671.02
774.245	1640.6
774.432	1674.51
774.618	1589.65
774.804	1676.45
774.991	1603.79
775.177	1652.62
775.363	1600.3
775.55	1690.4
775.736	1604.76
775.922	1636.15
776.109	1623.55
776.295	1633.63
776.481	1663.27
776.667	1695.43
776.853	1621.81
777.04	1614.25
777.226	1584.42
777.412	1691.17
777.598	1595.65
777.784	1586.55
777.97	1566.2
778.156	1636.53
778.342	1621.42
778.528	1599.72
778.715	1544.31
778.901	1582.48
779.087	1620.45
779.272	1543.34
779.458	1528.23
779.644	1578.99
779.83	1537.53
780.016	1648.35
780.202	1590.23
780.388	1562.72
780.574	1491.61
780.76	1549.93
780.946	1572.4
781.131	1554.19
781.317	1553.03
781.503	1520.29
781.689	1523.77
781.874	1636.34
782.06	1559.23
782.246	1514.67
782.432	1537.72
782.617	1562.33
782.803	1583.84
782.989	1500.33
783.174	1517.77
783.36	1456.54
783.545	1491.22
783.731	1487.35
783.916	1463.71
784.102	1495.1
784.288	1460.61
784.473	1474.95
784.659	1472.04
784.844	1532.69
785.029	1484.25
785.215	1490.64
785.4	1431.16
785.586	1552.25
785.771	1413.53
785.956	1451.31
786.142	1469.72
786.327	1430.19
786.512	1465.84
786.698	1454.8
786.883	1382.53
787.068	1417.79
787.254	1468.75
787.439	1429.42
787.624	1390.28
787.809	1408.88
787.994	1431.36
788.18	1424.96
788.365	1350.56
788.55	1396.68
788.735	1375.56
788.92	1392.41
789.105	1383.5
789.29	1412.95
789.475	1355.6
789.66	1382.53
789.845	1342.81
790.03	1329.25
790.215	1392.03
790.4	1363.74
790.585	1429.03
790.77	1371.68
790.955	1280.43
791.14	1354.05
791.325	1394.35
791.51	1260.66
791.695	1319.56
791.879	1329.45
792.064	1291.66
792.249	1383.69
792.434	1316.27
792.618	1313.56
792.803	1341.07
792.988	1294.76
793.173	1331.19
793.357	1372.46
793.542	1254.46
793.727	1347.66
793.911	1365.29
794.096	1309.88
794.281	1358.12
794.465	1410.24
794.65	1347.27
794.834	1352.69
795.019	1369.55
795.203	1356.18
795.388	1358.89
795.572	1417.99
795.757	1363.74
795.941	1389.51
796.126	1336.23
796.31	1317.82
796.494	1338.16
796.679	1296.9
796.863	1321.11
797.048	1386.79
797.232	1342.62
797.416	1328.09
797.601	1343.2
797.785	1392.22
797.969	1367.03
798.153	1326.15
798.338	1342.04
798.522	1354.83
798.706	1364.32
798.89	1383.5
799.074	1475.72
799.258	1404.04
799.443	1344.36
799.627	1370.71
799.811	1395.32
799.995	1337.78
800.179	1352.89
800.363	1361.61
800.547	1372.07
800.731	1378.66
800.915	1327.12
801.099	1353.47
801.283	1350.56
801.467	1354.05
801.651	1337.58
801.835	1433.1
802.019	1325.18
802.202	1362.19
802.386	1293.8
802.57	1320.15
802.754	1320.15
802.938	1330.03
803.121	1325.38
803.305	1380.59
803.489	1342.81
803.673	1374.59
803.856	1356.57
804.04	1349.79
804.224	1365.68
804.407	1358.7
804.591	1327.51
804.775	1339.13
804.958	1345.53
805.142	1443.95
805.326	1336.03
805.509	1367.81
805.693	1361.03
805.876	1418.38
806.06	1367.03
806.243	1384.47
806.427	1415.86
806.61	1381.56
806.794	1349.98
806.977	1361.99
807.16	1333.32
807.344	1352.89
807.527	1375.36
807.71	1340.88
807.894	1366.45
808.077	1349.79
808.26	1359.48
808.444	1319.76
808.627	1408.88
808.81	1346.11
808.993	1298.64
809.177	1311.23
809.36	1325.76
809.543	1344.56
809.726	1258.73
809.909	1284.88
810.092	1236.64
810.276	1300.38
810.459	1284.11
810.642	1274.81
810.825	1252.14
811.008	1228.89
811.191	1185.3
811.374	1196.53
811.557	1213.58
811.74	1270.16
811.923	1173.09
812.106	1159.92
812.289	1138.99
812.472	1172.51
812.654	1203.51
812.837	1143.84
813.02	1116.71
813.203	1118.07
813.386	1029.14
813.569	1013.25
813.751	984.57
813.934	1042.7
814.117	1026.04
814.3	992.71
814.482	965.78
814.665	975.28
814.848	951.64
815.03	924.13
815.213	941.76
815.396	922.96
815.578	903.59
815.761	865.81
815.943	947.76
816.126	865.61
816.309	828.8
816.491	817.56
816.674	755.95
816.856	831.9
817.039	790.25
817.221	869.49
817.403	847.6
817.586	831.32
817.768	838.88
817.951	766.61
818.133	749.17
818.315	798.38
818.498	820.66
818.68	889.83
818.862	858.83
819.045	884.21
819.227	854.76
819.409	849.92
819.591	885.96
819.774	836.75
819.956	827.45
820.138	891.38
820.32	829.96
820.502	895.64
820.684	946.41
820.866	919.28
821.048	944.66
821.231	977.79
821.413	935.75
821.595	914.63
821.777	963.84
821.959	924.71
822.141	968.49
822.323	886.54
822.505	859.8
822.686	865.03
822.868	811.56
823.05	755.37
823.232	732.7
823.414	712.75
823.596	741.62
823.778	740.45
823.96	758.08
824.141	731.73
824.323	729.99
824.505	803.81
824.687	837.13
824.868	867.55
825.05	934.59
825.232	939.43
825.413	972.56
825.595	927.61
825.777	872.01
825.958	946.99
826.14	909.21
826.321	948.15
826.503	894.68
826.685	944.08
826.866	948.15
827.048	915.99
827.229	896.23
827.411	864.65
827.592	838.88
827.773	847.21
827.955	832.1
828.136	831.13
828.318	799.55
828.499	835.2
828.68	819.31
828.862	863.87
829.043	830.74
829.224	834.81
829.406	792.96
829.587	827.06
829.768	811.17
829.949	829.77
830.131	813.3
830.312	879.95
830.493	805.75
830.674	833.26
830.855	811.56
831.036	815.43
831.218	879.18
831.399	881.5
831.58	832.48
831.761	832.68
831.942	836.36
832.123	815.43
832.304	795.28
832.485	797.22
832.666	816.79
832.847	838.3
833.028	821.83
833.209	854.18
833.389	799.93
833.57	777.27
833.751	801.48
833.932	858.83
834.113	836.16
834.294	804.39
834.475	845.27
834.655	883.44
834.836	876.08
835.017	823.57
835.198	786.57
835.378	841.98
835.559	876.66
835.74	837.52
835.92	810.98
836.101	804.58
836.281	868.71
836.462	855.73
836.643	878.4
836.823	889.83
837.004	889.25
837.184	923.74
837.365	882.86
837.545	897.58
837.726	864.65
837.906	920.06
838.087	851.47
838.267	851.28
838.448	829.77
838.628	870.07
838.808	846.43
838.989	899.91
839.169	821.25
839.349	897.19
839.53	881.31
839.71	880.73
839.89	848.37
840.07	929.74
840.251	868.71
840.431	893.51
840.611	879.95
840.791	840.43
840.971	870.65
841.151	853.8
841.332	822.02
841.512	870.26
841.692	824.93
841.872	917.73
842.052	875.11
842.232	871.43
842.412	814.66
842.592	841.01
842.772	888.48
842.952	825.12
843.132	820.08
843.312	839.46
843.492	811.56
843.672	889.64
843.851	806.52
844.031	851.08
844.211	863.48
844.391	847.01
844.571	844.69
844.751	858.45
844.93	864.65
845.11	833.06
845.29	845.46
845.47	865.03
845.649	835
845.829	885.96
846.009	847.01
846.188	818.15
846.368	835.58
846.547	850.7
846.727	852.63
846.907	813.5
847.086	817.76
847.266	877.63
847.445	809.23
847.625	828.41
847.804	806.91
847.984	827.83
848.163	810.2
848.343	793.15
848.522	821.05
848.701	841.01
848.881	806.33
849.06	793.73
849.239	820.28
849.419	823.57
849.598	781.33
849.777	748.2
849.957	765.64
850.136	747.82
850.315	718.56
850.494	733.87
850.674	728.25
850.853	756.92
851.032	769.32
851.211	804.39
851.39	767.77
851.569	731.15
851.748	724.18
851.927	780.56
852.107	780.17
852.286	705.97
852.465	707.9
852.644	786.57
852.823	751.11
853.002	736.58
853.181	759.05
853.359	774.94
853.538	714.3
853.717	781.33
853.896	676.52
854.075	692.02
854.254	673.8
854.433	597.27
854.611	672.64
854.79	626.72
854.969	644.74
855.148	685.43
855.327	652.3
855.505	692.4
855.684	644.16
855.863	667.8
856.041	653.65
856.22	710.42
856.399	678.84
856.577	758.28
856.756	723.79
856.934	813.5
857.113	831.71
857.291	750.53
857.47	722.63
857.648	726.5
857.827	722.82
858.005	750.14
858.184	683.88
858.362	786.95
858.541	739.1
858.719	708.68
858.898	750.14
859.076	691.05
859.254	767
859.433	708.49
859.611	685.04
859.789	665.47
859.967	750.33
860.146	789.08
860.324	654.82
860.502	699.57
860.68	643.97
860.859	686.59
861.037	683.49
861.215	695.31
861.393	706.35
861.571	695.89
861.749	671.87
861.927	719.72
862.105	739.87
862.283	655.98
862.461	671.09
862.639	664.31
862.817	663.92
862.995	678.65
863.173	680.78
863.351	667.99
863.529	687.75
863.707	756.92
863.885	682.14
864.063	631.96
864.241	649.39
864.418	734.83
864.596	659.08
864.774	624.01
864.952	644.74
865.129	675.74
865.307	630.21
865.485	603.86
865.663	699.77
865.84	614.52
866.018	659.47
866.196	565.89
866.373	598.24
866.551	564.34
866.728	540.51
866.906	589.72
867.084	573.83
867.261	636.22
867.439	600.18
867.616	634.28
867.794	566.08
867.971	610.06
868.149	616.84
868.326	658.11
868.503	644.16
868.681	607.16
868.858	604.83
869.035	555.42
869.213	638.74
869.39	619.56
869.567	678.65
869.745	604.83
869.922	625.76
870.099	654.82
870.276	616.26
870.454	636.22
870.631	614.52
870.808	614.71
870.985	620.33
871.162	656.17
871.339	653.07
871.517	572.86
871.694	591.85
871.871	605.22
872.048	573.25
872.225	602.12
872.402	598.82
872.579	554.26
872.756	628.08
872.933	584.87
873.11	559.88
873.287	614.32
873.463	589.14
873.64	570.34
873.817	622.07
873.994	606.38
874.171	579.26
874.348	600.37
874.524	546.12
874.701	575.19
874.878	524.81
875.055	590.88
875.231	581.39
875.408	614.13
875.585	527.14
875.762	591.66
875.938	568.99
876.115	545.54
876.291	549.03
876.468	560.46
876.645	523.26
876.821	556.59
876.998	547.48
877.174	584.68
877.351	552.32
877.527	539.54
877.704	568.6
877.88	557.17
878.057	539.54
878.233	575.96
878.409	529.66
878.586	583.52
878.762	516.29
878.938	528.88
879.115	513.58
879.291	538.57
879.467	490.91
879.644	510.67
879.82	566.86
879.996	507.96
880.172	465.14
880.349	501.56
880.525	531.21
880.701	492.84
880.877	502.14
881.053	526.94
881.229	536.83
881.405	538.57
881.581	490.91
881.757	499.82
881.933	545.74
882.109	540.7
882.285	531.01
882.461	454.48
882.637	499.24
882.813	515.51
882.989	466.11
883.165	541.67
883.341	501.95
883.517	532.76
883.693	519
883.869	559.3
884.044	494.01
884.22	543.61
884.396	545.74
884.572	536.63
884.747	557.94
884.923	521.33
885.099	551.74
885.275	535.28
885.45	491.1
885.626	497.11
885.801	488.19
885.977	513.38
886.153	446.35
886.328	541.67
886.504	470.18
886.679	530.63
886.855	491.88
887.03	526.56
887.206	526.75
887.381	503.11
887.557	545.54
887.732	526.36
887.908	521.33
888.083	525.01
888.258	479.86
888.434	500.01
888.609	491.88
888.784	563.17
888.96	499.24
889.135	504.47
889.31	478.31
889.485	488
889.661	488.97
889.836	520.36
890.011	491.49
890.186	506.6
890.361	470.37
890.537	495.94
890.712	509.89
890.887	525.39
891.062	525.2
891.237	548.45
891.412	486.06
891.587	503.11
891.762	534.5
891.937	544.19
892.112	468.24
892.287	497.69
892.462	480.44
892.637	448.86
892.812	448.09
892.987	475.79
893.161	427.94
893.336	474.05
893.511	463.98
893.686	483.54
893.861	439.56
894.035	461.07
894.21	477.93
894.385	426.58
894.56	453.71
894.734	417.86
894.909	424.65
895.084	413.02
895.258	403.72
895.433	416.31
895.608	405.08
895.782	340.75
895.957	384.15
896.131	395.78
896.306	343.27
896.48	362.45
896.655	360.52
896.829	360.52
897.004	291.54
897.178	342.3
897.353	315.37
897.527	350.63
897.701	362.07
897.876	291.73
898.05	364.58
898.224	353.73
898.399	362.45
898.573	334.94
898.747	229.15
898.921	314.4
899.096	232.84
899.27	268.87
899.444	251.05
899.618	288.25
899.792	282.24
899.967	282.63
900.141	307.23
900.315	218.69
900.489	266.35
900.663	284.37
900.837	319.44
901.011	261.7
901.185	348.7
901.359	310.72
901.533	293.09
901.707	277.59
901.881	272.94
902.055	235.94
902.229	288.63
902.403	328.16
902.576	287.86
902.75	289.22
902.924	381.63
903.098	325.06
903.272	350.25
903.446	379.5
903.619	331.26
903.793	361.1
903.967	354.32
904.14	389.96
904.314	364.39
904.488	355.09
904.661	377.56
904.835	365.17
905.009	388.8
905.182	425.81
905.356	394.23
905.529	385.9
905.703	309.56
905.876	349.47
906.05	306.85
906.223	351.8
906.397	260.15
906.57	278.95
906.744	258.99
906.917	272.17
907.09	280.89
907.264	311.88
907.437	261.7
907.61	243.88
907.784	266.74
907.957	277.4
908.13	224.31
908.304	294.25
908.477	258.22
908.65	272.94
908.823	231.09
908.996	269.65
909.17	262.09
909.343	243.3
909.516	279.14
909.689	271.59
909.862	231.87
910.035	263.25
910.208	235.94
910.381	236.9
910.554	326.22
910.727	246.98
910.9	228.77
911.073	249.89
911.246	287.67
911.419	273.91
911.592	274.69
911.765	239.81
911.938	238.26
912.11	262.48
912.283	263.84
912.456	275.46
912.629	289.99
912.802	233.61
912.974	229.93
913.147	196.02
913.32	171.61
913.493	182.46
913.665	211.14
913.838	211.33
914.01	190.41
914.183	216.37
914.356	180.52
914.528	247.95
914.701	276.82
914.873	248.53
915.046	209.78
915.218	200.29
915.391	142.36
915.563	155.72
915.736	212.88
915.908	242.91
916.081	229.15
916.253	212.49
916.425	183.04
916.598	241.94
916.77	205.71
916.942	192.92
917.115	150.49
917.287	235.55
917.459	200.48
917.632	188.66
917.804	137.9
917.976	209.59
918.148	200.29
918.32	205.71
918.493	242.33
918.665	269.65
918.837	211.52
919.009	272.36
919.181	265.19
919.353	238.65
919.525	234.77
919.697	217.72
919.869	208.42
920.041	261.32
920.213	325.83
920.385	226.83
920.557	235.55
920.729	234.77
920.901	248.92
921.073	215.59
921.244	199.9
921.416	281.66
921.588	217.14
921.76	224.7
921.932	286.12
922.103	241.94
922.275	223.92
922.447	212.88
922.619	170.26
922.79	230.9
922.962	213.46
923.134	222.18
923.305	188.86
923.477	212.3
923.648	157.47
923.82	208.42
923.991	157.08
924.163	186.34
924.335	209.97
924.506	162.51
924.677	238.07
924.849	177.04
925.02	173.74
925.192	206.49
925.363	174.52
925.535	210.55
925.706	140.22
925.877	234.19
926.049	147.78
926.22	183.43
926.391	194.67
926.562	219.47
926.734	175.1
926.905	239.62
927.076	146.04
927.247	172.19
927.419	145.46
927.59	152.24
927.761	175.1
927.932	156.89
928.103	162.89
928.274	133.83
928.445	118.91
928.616	142.74
928.787	145.46
928.958	158.82
929.129	133.25
929.3	135.77
929.471	103.99
929.642	77.26
929.813	33.47
929.984	137.51
930.155	52.07
930.326	119.49
930.496	75.13
930.667	52.84
930.838	99.15
931.009	50.33
931.18	75.32
931.35	55.94
931.521	77.45
931.692	33.66
931.863	11.96
932.033	46.45
932.204	60.98
932.374	71.44
932.545	48.97
932.716	70.67
932.886	63.89
933.057	11.77
933.227	22.81
933.398	97.99
933.568	38.89
933.739	-7.41
933.909	-10.7
934.08	80.74
934.25	-7.6
934.421	-12.64
934.591	54.98
934.761	4.8
934.932	-42.48
935.102	11.96
935.272	-15.35
935.443	22.04
935.613	27.46
935.783	13.71
935.953	-15.94
936.123	116.97
936.294	-33.76
936.464	12.93
936.634	-1.99
936.804	-42.48
936.974	4.21
937.144	11.38
937.314	21.84
937.484	-11.09
937.655	-19.42
937.825	31.53
937.995	-14.39
938.165	14.87
938.334	-19.04
938.504	12.93
938.674	14.1
938.844	12.16
939.014	38.51
939.184	23.2
939.354	98.18
939.524	39.28
939.694	25.33
939.863	27.27
940.033	85.59
940.203	61.18
940.373	51.29
940.542	66.99
940.712	36.38
940.882	61.18
941.051	64.86
941.221	47.61
941.391	68.15
941.56	26.88
941.73	28.63
941.899	123.95
942.069	36.76
942.238	38.7
942.408	31.14
942.577	60.4
942.747	31.14
942.916	-5.47
943.086	11
943.255	45.09
943.425	72.03
943.594	19.13
943.763	-24.46
943.933	-1.99
944.102	-9.15
944.271	27.66
944.441	18.75
944.61	6.93
944.779	20.49
944.948	91.98
945.117	-6.05
945.287	21.84
945.456	-13.8
945.625	12.55
945.794	56.53
945.963	-0.63
946.132	39.48
946.301	3.25
946.47	43.35
946.639	-30.66
946.808	6.54
946.977	27.66
947.146	64.08
947.315	9.45
947.484	44.51
947.653	9.45
947.822	8.67
947.991	-7.8
948.16	95.66
948.329	74.35
948.498	15.06
948.666	25.72
948.835	37.15
949.004	-23.3
949.173	18.36
949.341	43.54
949.51	46.45
949.679	63.69
949.847	71.64
950.016	83.26
950.185	94.89
950.353	-7.6
950.522	3.44
950.69	68.93
950.859	-0.82
951.028	62.73
951.196	11.19
951.365	17.2
951.533	30.76
951.701	47.81
951.87	65.83
952.038	-14.39
952.207	35.02
952.375	77.84
952.543	-0.24
952.712	12.55
952.88	2.08
953.048	79.39
953.217	27.27
953.385	5.18
953.553	85.59
953.721	2.47
953.89	48.78
954.058	-19.42
954.226	17.58
954.394	16.42
954.562	-19.81
954.73	65.24
954.898	-4.12
955.067	63.89
955.235	24.36
955.403	79.78
955.571	77.06
955.739	44.9
955.907	25.72
956.075	2.86
956.243	8.09
956.41	50.91
956.578	-20.59
956.746	13.9
956.914	-5.28
957.082	43.93
957.25	27.66
957.418	17.2
957.585	1.89
957.753	56.33
957.921	-15.35
958.089	46.84
958.256	60.21
958.424	52.84
958.592	9.06
958.759	-6.44
958.927	23.59
959.095	31.73
959.262	28.04
959.43	26.11
959.597	-25.24
959.765	36.76
959.932	-30.47
960.1	39.67
960.267	36.76
960.435	28.82
960.602	57.49
960.77	23.59
960.937	10.03
961.104	56.72
961.272	-24.07
961.439	2.08
961.606	49.74
961.774	45.87
961.941	15.26
962.108	45.87
962.275	32.5
962.443	54.39
962.61	32.5
962.777	60.01
962.944	52.84
963.111	23.59
963.278	53.62
963.446	11.96
963.613	5.96
963.78	54.98
963.947	34.63
964.114	23.39
964.281	116.78
964.448	67.96
964.615	23.98
964.782	23.01
964.949	48.97
965.116	51.88
965.282	62.92
965.449	37.15
965.616	-0.63
965.783	50.52
965.95	53.81
966.117	-4.89
966.283	10.8
966.45	47.03
966.617	67.18
966.784	55.94
966.95	58.46
967.117	89.85
967.284	32.89
967.45	16.23
967.617	65.44
967.784	45.09
967.95	79
968.117	31.92
968.283	72.03
968.45	128.79
968.616	43.93
968.783	91.98
968.949	58.66
969.116	81.33
969.282	37.93
969.449	63.69
969.615	26.49
969.781	21.07
969.948	5.38
970.114	-11.67
970.28	82.68
970.447	35.6
970.613	61.95
970.779	25.14
970.945	48.78
971.112	56.33
971.278	49.36
971.444	41.03
971.61	90.43
971.776	16.23
971.942	44.13
972.108	62.73
972.275	41.22
972.441	56.53
972.607	110.97
972.773	6.54
972.939	57.3
973.105	45.09
973.271	26.3
973.437	11.96
973.602	20.1
973.768	49.16
973.934	54.39
974.1	41.61
974.266	-19.23
974.432	58.85
974.598	41.22
974.763	96.05
974.929	26.3
975.095	96.24
975.261	36.96
975.426	0.73
975.592	29.21
975.758	101.48
975.923	-13.61
976.089	-2.57
976.255	60.01
976.42	58.08
976.586	57.88
976.751	54.01
976.917	105.54
977.082	64.08
977.248	29.79
977.413	-30.47
977.579	22.04
977.744	53.43
977.91	-2.76
978.075	16.61
978.24	49.36
978.406	37.54
978.571	26.88
978.736	14.87
978.902	55.75
979.067	13.32
979.232	-7.6
979.397	52.26
979.563	81.13
979.728	3.63
979.893	22.23
980.058	13.71
980.223	74.16
980.388	55.36
980.554	18.94
980.719	20.68
980.884	52.26
981.049	88.49
981.214	13.51
981.379	70.67
981.544	31.73
981.709	31.53
981.874	34.05
982.039	19.52
982.204	59.63
982.368	30.76
982.533	5.96
982.698	74.16
982.863	94.69
983.028	6.73
983.193	45.09
983.357	62.14
983.522	48
983.687	11.77
983.852	15.26
984.016	16.61
984.181	41.03
984.346	48.97
984.51	72.22
984.675	41.41
984.839	39.48
985.004	44.51
985.168	75.13
985.333	51.49
985.498	14.68
985.662	52.65
985.827	32.89
985.991	33.28
986.155	26.88
986.32	49.16
986.484	70.67
986.649	56.33
986.813	-28.92
986.977	36.96
987.142	39.09
987.306	0.53
987.47	28.43
987.634	36.96
987.799	36.76
987.963	24.56
988.127	84.81
988.291	93.14
988.455	41.41
988.62	25.14
988.784	38.12
988.948	66.79
989.112	14.87
989.276	54.01
989.44	37.73
989.604	14.87
989.768	33.66
989.932	101.28
990.096	19.33
990.26	29.21
990.424	-32.21
990.588	10.22
990.752	82.49
990.915	81.91
991.079	46.26
991.243	-8.19
991.407	43.74
991.571	29.59
991.734	76.29
991.898	36.76
992.062	122.01
992.226	23.78
992.389	25.33
992.553	-8.19
992.717	5.38
992.88	20.3
993.044	35.02
993.207	33.08
993.371	53.81
993.535	51.68
993.698	29.79
993.862	71.25
994.025	56.53
994.189	48
994.352	48.78
994.515	52.65
994.679	73.77
994.842	35.41
995.006	57.3
995.169	-4.5
995.332	9.45
995.496	55.94
995.659	1.89
995.822	44.9
995.985	30.56
996.149	88.11
996.312	11.96
996.475	81.52
996.638	28.63
996.801	60.4
996.964	97.6
997.128	2.08
997.291	32.89
997.454	25.33
997.617	-14
997.78	81.13
997.943	38.12
998.106	81.52
998.269	-4.31
998.432	43.35
998.595	17.97
998.758	3.63
998.92	18.75
999.083	-48.87
999.246	6.15
999.409	-37.25
999.572	-40.74
999.735	-0.05
999.897	46.26
1000.06	6.54
1000.223	21.26
1000.386	60.21
1000.548	51.1
1000.711	34.05
1000.874	27.27
1001.036	-24.07
1001.199	76.29
1001.361	1.11
1001.524	28.82
1001.687	68.93
1001.849	29.79
1002.012	6.54
1002.174	38.51
1002.337	52.26
1002.499	9.64
1002.661	27.46
1002.824	-9.74
1002.986	-13.22
1003.149	18.75
1003.311	4.8
1003.473	78.23
1003.636	-13.03
1003.798	28.04
1003.96	25.72
1004.123	20.68
1004.285	-5.28
1004.447	17.58
1004.609	21.84
1004.771	57.49
1004.933	-7.41
1005.096	2.66
1005.258	-11.09
1005.42	14.48
1005.582	70.09
1005.744	18.94
1005.906	-40.54
1006.068	15.26
1006.23	-3.15
1006.392	-14.19
1006.554	-2.95
1006.716	51.1
1006.878	25.53
1007.04	-26.59
1007.202	11.77
1007.363	40.83
1007.525	37.54
1007.687	9.06
1007.849	52.07
1008.011	6.73
1008.172	-24.27
1008.334	-6.05
1008.496	33.28
1008.658	-20.2
1008.819	-11.87
1008.981	1.5
1009.143	-39.77
1009.304	21.26
1009.466	21.07
1009.627	61.18
1009.789	95.86
1009.95	23.39
1010.112	15.26
1010.273	24.17
1010.435	-7.41
1010.596	-9.15
1010.758	-2.37
1010.919	-9.74
1011.081	-8.19
1011.242	-3.34
1011.403	19.13
1011.565	20.88
1011.726	21.84
1011.887	-24.65
1012.049	-7.8
1012.21	25.53
1012.371	64.86
1012.532	-49.07
1012.693	14.29
1012.855	3.83
1013.016	25.91
1013.177	41.41
1013.338	12.35
1013.499	76.09
1013.66	55.36
1013.821	26.88
1013.982	28.63
1014.143	2.08
1014.304	-8.57
1014.465	20.3
1014.626	48.39
1014.787	6.54
1014.948	95.66
1015.109	-33.95
1015.27	32.31
1015.431	-16.52
1015.592	-7.6
1015.752	43.74
1015.913	28.82
1016.074	22.81
1016.235	7.51
1016.395	14.68
1016.556	10.03
1016.717	-2.18
1016.877	42.38
1017.038	-21.36
1017.199	33.86
1017.359	32.89
1017.52	27.85
1017.681	13.51
1017.841	-6.25
1018.002	30.95
1018.162	4.6
1018.323	69.89
1018.483	-19.42
1018.644	5.76
1018.804	-17.87
1018.964	6.54
1019.125	-15.35
1019.285	17.78
1019.446	-17.29
1019.606	-13.22
1019.766	-32.6
1019.926	11.58
1020.087	27.27
1020.247	-12.64
1020.407	35.99
1020.567	41.61
1020.728	16.03
1020.888	-18.26
1021.048	7.51
1021.208	-33.76
1021.368	-7.6
1021.528	38.51
1021.688	30.76
1021.848	27.85
1022.008	23.39
1022.168	-21.94
1022.328	8.09
1022.488	6.73
1022.648	-1.6
1022.808	32.31
1022.968	26.3
1023.128	11.19
1023.288	-21.94
1023.448	-8.96
1023.608	27.08
1023.767	41.8
1023.927	-21.55
1024.087	-31.63
1024.247	-3.73
1024.406	-1.79
1024.566	-28.14
1024.726	-7.8
1024.885	3.83
1025.045	37.34
1025.205	-12.45
1025.364	13.9
1025.524	17.58
1025.683	10.22
1025.843	23.01
1026.003	22.23
1026.162	52.65
1026.321	22.04
1026.481	12.35
1026.64	5.18
1026.8	24.17
1026.959	32.31
1027.119	7.12
1027.278	-24.85
1027.437	-17.1
1027.597	10.41
1027.756	13.51
1027.915	0.15
1028.074	31.14
1028.234	-13.61
1028.393	-3.92
1028.552	-0.24
1028.711	-71.15
1028.87	44.32
1029.03	-34.34
1029.189	13.13
1029.348	-55.46
1029.507	-13.8
1029.666	-8.57
1029.825	-26.79
1029.984	-3.15
1030.143	0.34
1030.302	3.83
1030.461	-38.8
1030.62	-8.77
1030.779	2.28
1030.938	-3.15
1031.097	-28.34
1031.255	19.91
1031.414	39.09
1031.573	86.36
1031.732	-49.45
1031.891	-1.99
1032.049	24.17
1032.208	21.65
1032.367	-38.02
1032.525	-25.04
1032.684	-0.44
1032.843	13.13
1033.001	-56.04
1033.16	114.46
1033.319	23.01
1033.477	-5.86
1033.636	3.25
1033.794	-52.17
1033.953	7.9
1034.111	34.83
1034.27	-36.67
1034.428	13.32
1034.587	-23.69
1034.745	48
1034.903	6.35
1035.062	15.26
1035.22	-15.74
1035.378	52.84
1035.537	-23.3
1035.695	18.55
1035.853	8.67
1036.011	14.1
1036.17	14.48
1036.328	-39.38
1036.486	8.28
1036.644	7.31
1036.802	-56.24
1036.96	-1.99
1037.119	9.45
1037.277	-16.13
1037.435	-28.72
1037.593	-33.37
1037.751	4.02
1037.909	9.06
1038.067	9.06
