Data from oakcork_FLMT105791__205__17-32-18-047.txt Node

Date: Mon Mar 20 17:32:18 GMT 2023
User: antho
Spectrometer: FLMT10579
Trigger mode: 0
Integration Time (sec): 1.000000E-1
Scans to average: 10
Electric dark correction enabled: true
Nonlinearity correction enabled: false
Boxcar width: 0
XAxis mode: Wavelengths
Number of Pixels in Spectrum: 3648
>>>>>Begin Spectral Data<<<<<
345.248	-143.58
345.464	-143.58
345.681	-143.58
345.898	-149.59
346.114	-149.4
346.331	-30.82
346.548	35.05
346.764	-0.4
346.981	-23.65
347.197	-8.35
347.414	24.2
347.631	-32.37
347.847	44.35
348.064	10.64
348.28	18.39
348.497	-37.22
348.713	0.18
348.93	16.65
349.146	16.65
349.363	-9.9
349.579	18.39
349.796	3.28
350.012	-18.42
350.229	25.17
350.445	37.38
350.661	-24.62
350.878	3.08
351.094	8.7
351.311	-0.02
351.527	13.55
351.743	6.18
351.96	41.64
352.176	39.9
352.392	23.62
352.609	16.84
352.825	-6.8
353.041	-2.92
353.257	6.96
353.474	3.67
353.69	6.18
353.906	5.6
354.122	-40.51
354.339	38.35
354.555	12
354.771	0.18
354.987	43.77
355.203	43.19
355.42	5.22
355.636	0.18
355.852	-6.8
356.068	-5.44
356.284	-38.18
356.5	44.16
356.716	31.76
356.932	15.68
357.148	26.14
357.364	8.7
357.58	55.01
357.796	41.45
358.012	33.7
358.228	50.55
358.444	-29.85
358.66	49.97
358.876	6.77
359.092	-9.9
359.308	19.36
359.524	4.05
359.74	-6.41
359.956	-19
360.172	14.51
360.388	55.4
360.604	-8.73
360.819	74.38
361.035	24.98
361.251	43.77
361.467	-5.63
361.683	61.4
361.898	43
362.114	15.48
362.33	24.4
362.546	38.35
362.762	22.46
362.977	29.05
363.193	-25.01
363.409	33.89
363.624	-14.16
363.84	-18.23
364.056	-8.35
364.271	36.6
364.487	5.6
364.703	10.64
364.918	-19.97
365.134	11.61
365.35	-14.35
365.565	92.6
365.781	27.5
365.996	37.96
366.212	76.32
366.427	24.59
366.643	-0.21
366.858	23.23
367.074	-30.63
367.289	43.96
367.505	125.34
367.72	-19.58
367.936	14.32
368.151	42.61
368.367	30.21
368.582	37.57
368.798	-14.93
369.013	57.91
369.228	14.32
369.444	35.83
369.659	62.56
369.874	21.3
370.09	79.81
370.305	-26.75
370.52	7.54
370.736	50.94
370.951	30.79
371.166	60.82
371.381	53.46
371.597	62.95
371.812	-15.9
372.027	-30.05
372.242	-0.4
372.458	79.03
372.673	-9.32
372.888	29.43
373.103	19.75
373.318	104.41
373.533	43
373.749	26.72
373.964	-36.25
374.179	24.2
374.394	5.22
374.609	64.5
374.824	-4.28
375.039	55.78
375.254	5.02
375.469	42.22
375.684	24.4
375.899	67.02
376.114	33.7
376.329	21.88
376.544	41.64
376.759	53.85
376.974	3.86
377.189	12.96
377.404	-16.68
377.619	50.55
377.834	-7.18
378.049	-40.32
378.264	-21.91
378.478	-2.92
378.693	-30.82
378.908	48.42
379.123	27.88
379.338	72.25
379.553	43.38
379.767	35.63
379.982	28.66
380.197	45.13
380.412	11.8
380.626	36.99
380.841	105.96
381.056	46.87
381.271	75.55
381.485	-12.61
381.7	-19.39
381.915	34.28
382.129	-6.02
382.344	19.36
382.559	2.12
382.773	49.39
382.988	-36.63
383.202	28.46
383.417	6.57
383.632	104.99
383.846	5.02
384.061	51.71
384.275	13.74
384.49	40.09
384.704	49.2
384.919	33.31
385.133	36.41
385.348	46.1
385.562	-6.41
385.777	48.81
385.991	20.91
386.206	10.25
386.42	3.28
386.634	47.26
386.849	34.66
387.063	18.39
387.277	-7.57
387.492	35.83
387.706	-29.47
387.92	0.95
388.135	45.71
388.349	37.57
388.563	43
388.778	34.08
388.992	27.88
389.206	64.7
389.42	98.79
389.635	20.13
389.849	56.56
390.063	73.03
390.277	27.5
390.491	68.38
390.706	51.33
390.92	42.8
391.134	30.98
391.348	34.28
391.562	-20.75
391.776	17.23
391.99	20.52
392.205	62.18
392.419	-1.57
392.633	45.9
392.847	62.76
393.061	0.57
393.275	92.6
393.489	35.05
393.703	33.89
393.917	69.54
394.131	18.78
394.345	36.6
394.559	36.99
394.773	8.12
394.986	27.69
395.2	13.55
395.414	37.76
395.628	-16.68
395.842	38.35
396.056	17.23
396.27	-23.46
396.484	27.5
396.697	35.63
396.911	76.13
397.125	33.7
397.339	52.3
397.553	47.26
397.766	98.02
397.98	63.92
398.194	59.66
398.408	21.49
398.621	49.58
398.835	57.91
399.049	30.01
399.262	81.55
399.476	78.26
399.69	66.83
399.903	91.05
400.117	17.42
400.331	30.21
400.544	14.9
400.758	138.9
400.971	27.88
401.185	51.33
401.398	22.85
401.612	62.18
401.826	43.96
402.039	36.99
402.253	8.51
402.466	48.23
402.68	24.2
402.893	42.41
403.106	25.95
403.32	47.84
403.533	50.36
403.747	26.91
403.96	50.75
404.174	67.02
404.387	6.38
404.6	29.05
404.814	90.46
405.027	38.35
405.24	34.47
405.454	13.55
405.667	52.49
405.88	-11.83
406.094	47.65
406.307	66.25
406.52	59.46
406.733	12.38
406.947	-17.45
407.16	93.95
407.373	92.01
407.586	6.57
407.799	5.02
408.012	71.86
408.226	31.76
408.439	80.2
408.652	4.63
408.865	48.61
409.078	81.16
409.291	62.56
409.504	15.48
409.717	39.12
409.93	58.69
410.143	46.1
410.357	17.81
410.57	20.91
410.783	19.16
410.996	49.58
411.209	40.48
411.421	75.35
411.634	40.86
411.847	43.58
412.06	31.76
412.273	49.78
412.486	43.38
412.699	117.59
412.912	24.2
413.125	72.25
413.338	48.81
413.55	58.5
413.763	53.85
413.976	65.47
414.189	12.38
414.402	25.56
414.615	86.2
414.827	18.78
415.04	78.06
415.253	54.62
415.466	51.52
415.678	93.18
415.891	43
416.104	20.71
416.316	61.98
416.529	32.73
416.742	24.78
416.954	59.08
417.167	28.66
417.38	48.81
417.592	102.86
417.805	18.2
418.017	5.8
418.23	58.11
418.442	39.51
418.655	28.46
418.868	68.38
419.08	85.43
419.293	96.47
419.505	54.62
419.718	59.66
419.93	53.85
420.142	28.27
420.355	94.34
420.567	109.45
420.78	76.32
420.992	35.63
421.205	107.71
421.417	25.56
421.629	24.01
421.842	-12.8
422.054	-4.08
422.266	62.18
422.479	80.39
422.691	36.21
422.903	74
423.115	23.04
423.328	61.98
423.54	61.21
423.752	63.15
423.964	24.4
424.177	39.12
424.389	34.47
424.601	141.61
424.813	50.55
425.025	73.61
425.238	85.23
425.45	40.86
425.662	24.4
425.874	306.88
426.086	32.34
426.298	43.19
426.51	53.26
426.722	45.71
426.934	29.43
427.146	51.91
427.358	9.48
427.57	96.08
427.782	43.58
427.994	38.73
428.206	34.66
428.418	-1.57
428.63	65.66
428.842	99.76
429.054	67.21
429.266	77.87
429.478	45.71
429.69	47.84
429.902	-10.87
430.114	65.28
430.325	81.94
430.537	35.05
430.749	80
430.961	-3.12
431.173	21.68
431.384	62.37
431.596	-24.82
431.808	32.92
432.02	61.98
432.231	63.73
432.443	85.62
432.655	68.18
432.867	34.47
433.078	41.45
433.29	79.81
433.502	102.09
433.713	82.91
433.925	55.4
434.136	84.85
434.348	16.45
434.56	-6.41
434.771	109.26
434.983	-0.98
435.194	35.25
435.406	20.33
435.617	98.79
435.829	108.09
436.04	97.24
436.252	83.88
436.463	93.56
436.675	77.29
436.886	49.58
437.098	61.01
437.309	119.91
437.521	46.1
437.732	49.78
437.943	49.78
438.155	53.46
438.366	3.67
438.578	90.85
438.789	81.36
439	85.62
439.211	59.66
439.423	69.54
439.634	74.58
439.845	70.12
440.057	57.33
440.268	72.83
440.479	18.78
440.69	66.25
440.902	35.63
441.113	63.53
441.324	21.68
441.535	61.21
441.746	135.41
441.957	54.81
442.168	8.31
442.38	83.88
442.591	63.73
442.802	41.64
443.013	21.1
443.224	60.24
443.435	36.6
443.646	60.05
443.857	38.35
444.068	30.6
444.279	76.32
444.49	119.53
444.701	73.61
444.912	148.39
445.123	89.88
445.334	66.83
445.545	71.09
445.756	77.87
445.967	20.71
446.178	104.03
446.388	82.13
446.599	89.88
446.81	91.82
447.021	37.38
447.232	119.14
447.443	114.88
447.653	17.61
447.864	80.39
448.075	74.19
448.286	75.55
448.496	62.37
448.707	98.79
448.918	57.14
449.129	150.33
449.339	56.75
449.55	68.38
449.761	61.21
449.971	92.21
450.182	74.38
450.393	95.11
450.603	42.8
450.814	105.96
451.024	85.43
451.235	101.12
451.446	130.18
451.656	117.01
451.867	49.58
452.077	76.71
452.288	115.26
452.498	156.34
452.709	54.04
452.919	93.76
453.13	61.21
453.34	115.07
453.55	51.13
453.761	114.88
453.971	104.99
454.182	101.31
454.392	106.74
454.602	122.82
454.813	77.1
455.023	115.46
455.233	47.26
455.444	81.36
455.654	21.88
455.864	65.08
456.075	69.73
456.285	62.37
456.495	52.88
456.705	85.81
456.916	126.69
457.126	160.41
457.336	89.5
457.546	23.62
457.756	51.52
457.967	104.99
458.177	61.01
458.387	88.72
458.597	81.94
458.807	83.68
459.017	64.89
459.227	85.04
459.437	77.1
459.647	127.47
459.857	108.29
460.068	64.11
460.278	122.43
460.488	92.79
460.698	147.81
460.908	86.78
461.117	65.86
461.327	61.98
461.537	77.68
461.747	101.12
461.957	80.2
462.167	191.6
462.377	128.44
462.587	76.9
462.797	113.91
463.007	104.03
463.216	115.07
463.426	153.04
463.636	117.78
463.846	52.88
464.056	75.35
464.265	139.87
464.475	63.34
464.685	89.11
464.895	106.35
465.104	104.41
465.314	109.06
465.524	95.5
465.733	83.3
465.943	148.39
466.153	152.27
466.362	131.93
466.572	119.14
466.782	75.74
466.991	101.89
467.201	157.31
467.41	80.2
467.62	92.79
467.829	94.15
468.039	125.34
468.249	87.56
468.458	107.32
468.668	111.58
468.877	106.74
469.086	136.96
469.296	140.26
469.505	70.51
469.715	178.43
469.924	106.54
470.134	135.03
470.343	132.89
470.552	118.17
470.762	118.17
470.971	71.28
471.18	111.58
471.39	111.19
471.599	75.55
471.808	136.38
472.018	70.9
472.227	129.02
472.436	121.08
472.645	98.79
472.855	89.11
473.064	138.9
473.273	116.23
473.482	152.66
473.691	131.73
473.901	101.31
474.11	103.83
474.319	167.96
474.528	134.64
474.737	133.28
474.946	114.29
475.155	112.16
475.364	157.69
475.573	109.45
475.783	92.4
475.992	136.19
476.201	167.58
476.41	115.65
476.619	105.96
476.828	142.78
477.037	117.01
477.245	130.76
477.454	155.18
477.663	114.49
477.872	110.23
478.081	147.81
478.29	90.66
478.499	184.43
478.708	117.2
478.917	186.37
479.125	139.29
479.334	167.96
479.543	87.17
479.752	144.33
479.961	141.61
480.169	146.84
480.378	100.15
480.587	224.34
480.796	141.23
481.004	140.84
481.213	137.35
481.422	131.54
481.63	140.64
481.839	177.65
482.048	192.76
482.256	133.67
482.465	138.13
482.674	188.11
482.882	182.88
483.091	185.21
483.299	158.66
483.508	145.1
483.716	151.49
483.925	163.31
484.134	158.66
484.342	148.59
484.551	171.84
484.759	161.38
484.967	159.05
485.176	191.41
485.384	182.49
485.593	176.49
485.801	170.09
486.01	173.39
486.218	138.71
486.426	126.89
486.635	138.51
486.843	144.71
487.051	154.79
487.26	140.45
487.468	174.94
487.676	175.13
487.885	156.73
488.093	153.04
488.301	167.19
488.509	145.1
488.717	169.9
488.926	181.33
489.134	121.08
489.342	194.7
489.55	125.34
489.758	157.69
489.967	129.02
490.175	252.44
490.383	155.56
490.591	202.26
490.799	110.03
491.007	180.17
491.215	148.98
491.423	172.03
491.631	173.39
491.839	167.58
492.047	207.87
492.255	139.09
492.463	131.93
492.671	168.54
492.879	229.38
493.087	159.44
493.295	184.43
493.503	203.81
493.711	188.11
493.919	211.75
494.127	208.84
494.334	203.03
494.542	154.21
494.75	185.79
494.958	191.02
495.166	216.01
495.374	185.98
495.581	189.08
495.789	185.59
495.997	230.74
496.205	187.92
496.412	160.21
496.62	166.99
496.828	191.02
497.035	190.82
497.243	213.11
497.451	176.88
497.658	205.16
497.866	204
498.074	244.3
498.281	163.31
498.489	251.08
498.696	215.62
498.904	202.26
499.112	218.14
499.319	260.77
499.527	224.54
499.734	203.03
499.942	151.11
500.149	166.8
500.357	200.32
500.564	177.84
500.771	223.76
500.979	180.56
501.186	180.17
501.394	213.3
501.601	207.1
501.808	253.21
502.016	199.93
502.223	186.17
502.43	212.72
502.638	211.75
502.845	160.6
503.052	251.86
503.26	190.44
503.467	260.77
503.674	215.62
503.881	231.32
504.089	264.64
504.296	274.91
504.503	186.95
504.71	216.4
504.917	164.86
505.125	203.22
505.332	206.71
505.539	231.12
505.746	266.77
505.953	253.99
506.16	223.96
506.367	265.42
506.574	249.92
506.781	262.9
506.988	187.92
507.195	228.22
507.402	242.36
507.609	282.27
507.816	219.5
508.023	218.14
508.23	228.99
508.437	205.36
508.644	248.17
508.851	273.75
509.058	270.07
509.265	218.14
509.472	239.26
509.679	315.6
509.885	248.17
510.092	246.24
510.299	245.07
510.506	243.91
510.713	251.08
510.92	233.64
511.126	242.94
511.333	266.97
511.54	269.1
511.746	287.7
511.953	302.42
512.16	278.59
512.367	258.44
512.573	249.14
512.78	265.81
512.987	256.89
513.193	247.21
513.4	201.87
513.606	244.3
513.813	292.15
514.02	260.96
514.226	318.12
514.433	313.85
514.639	236.16
514.846	258.64
515.052	259.41
515.259	241.01
515.465	259.61
515.672	279.37
515.878	320.64
516.085	275.49
516.291	314.63
516.497	259.22
516.704	270.45
516.91	252.24
517.117	256.51
517.323	209.42
517.529	282.27
517.736	275.69
517.942	257.47
518.148	255.34
518.354	278.79
518.561	276.27
518.767	289.44
518.973	324.12
519.179	328.39
519.386	241.39
519.592	258.44
519.798	273.94
520.004	313.47
520.21	284.02
520.417	326.25
520.623	338.07
520.829	341.95
521.035	320.05
521.241	346.6
521.447	343.89
521.653	408.21
521.859	299.9
522.065	337.1
522.271	416.54
522.477	345.44
522.683	353.77
522.889	359
523.095	371.98
523.301	362.1
523.507	326.06
523.713	358.03
523.919	326.84
524.125	380.89
524.331	321.6
524.537	377.21
524.742	375.66
524.948	390
525.154	365.78
525.36	484.35
525.566	359
525.772	418.67
525.977	334.2
526.183	413.05
526.389	412.28
526.595	369.27
526.8	366.94
527.006	336.72
527.212	364.81
527.417	352.6
527.623	346.02
527.829	394.84
528.034	421.77
528.24	388.45
528.446	349.7
528.651	416.93
528.857	408.21
529.062	444.63
529.268	386.7
529.473	420.42
529.679	390.97
529.884	452.58
530.09	436.5
530.295	447.15
530.501	440.57
530.706	425.84
530.912	389.03
531.117	417.32
531.323	441.92
531.528	449.67
531.733	426.62
531.939	408.6
532.144	463.62
532.35	439.02
532.555	480.48
532.76	484.74
532.966	480.86
533.171	482.8
533.376	475.25
533.581	414.8
533.787	474.08
533.992	465.36
534.197	499.46
534.402	433.4
534.607	430.88
534.813	555.46
535.018	470.6
535.223	458
535.428	458.2
535.633	518.65
535.838	480.48
536.043	446.38
536.249	535.69
536.454	439.98
536.659	483
536.864	438.05
537.069	450.64
537.274	477.38
537.479	469.05
537.684	513.22
537.889	452.96
538.094	555.26
538.299	501.01
538.504	499.46
538.708	523.88
538.913	510.51
539.118	465.56
539.323	501.01
539.528	469.43
539.733	465.17
539.938	507.41
540.142	515.16
540.347	510.51
540.552	496.36
540.757	531.82
540.962	481.25
541.166	476.6
541.371	450.83
541.576	515.74
541.781	404.14
541.985	475.63
542.19	490.94
542.395	532.59
542.599	549.84
542.804	521.94
543.008	513.61
543.213	470.6
543.418	447.54
543.622	514.58
543.827	451.22
544.031	550.42
544.236	555.46
544.44	480.48
544.645	576.38
544.849	510.9
545.054	555.65
545.258	585.29
545.463	553.71
545.667	483.77
545.872	534.92
546.076	517.87
546.281	522.13
546.485	471.76
546.689	548.09
546.894	542.09
547.098	506.44
547.302	492.68
547.507	487.26
547.711	468.08
547.915	574.44
548.119	506.44
548.324	516.71
548.528	606.8
548.732	532.4
548.936	533.18
549.141	539.18
549.345	506.25
549.549	544.61
549.753	510.9
549.957	586.26
550.161	569.99
550.366	543.83
550.57	520.39
550.774	520.97
550.978	503.53
551.182	539.18
551.386	526.98
551.59	514.96
551.794	508.57
551.998	568.83
552.202	507.8
552.406	513.22
552.61	538.21
552.814	523.1
553.018	578.51
553.222	543.06
553.426	529.3
553.63	611.06
553.833	530.46
554.037	481.25
554.241	563.21
554.445	559.14
554.649	512.64
554.853	521.36
555.056	580.64
555.26	553.33
555.464	557.01
555.668	550.23
555.871	576.96
556.075	574.25
556.279	508.57
556.483	527.95
556.686	541.7
556.89	549.26
557.094	557.78
557.297	507.99
557.501	590.14
557.704	504.5
557.908	548.09
558.112	509.73
558.315	595.56
558.519	517.48
558.722	549.06
558.926	526.01
559.129	496.56
559.333	461.3
559.536	458.39
559.74	499.27
559.943	483.38
560.147	517.29
560.35	510.51
560.553	510.31
560.757	450.25
560.96	540.54
561.164	484.93
561.367	549.26
561.57	491.52
561.774	537.63
561.977	471.95
562.18	469.63
562.384	588.59
562.587	499.85
562.79	491.91
562.993	514.38
563.197	534.34
563.4	575.41
563.603	545.77
563.806	582.39
564.009	478.15
564.212	512.06
564.416	443.47
564.619	502.37
564.822	469.43
565.025	539.38
565.228	482.61
565.431	523.1
565.634	425.45
565.837	439.79
566.04	462.26
566.243	450.06
566.446	427
566.649	463.04
566.852	449.86
567.055	446.96
567.258	459.55
567.461	532.4
567.664	521.36
567.867	398.33
568.07	465.95
568.273	461.3
568.475	488.81
568.678	463.62
568.881	440.18
569.084	461.88
569.287	392.32
569.489	400.65
569.692	462.85
569.895	483.96
570.098	405.5
570.3	403.75
570.503	368.68
570.706	390.97
570.909	377.98
571.111	385.73
571.314	406.47
571.516	410.73
571.719	406.66
571.922	400.07
572.124	400.85
572.327	409.76
572.529	346.4
572.732	366.75
572.935	408.02
573.137	453.93
573.34	338.65
573.542	393.68
573.745	412.08
573.947	410.15
574.15	387.48
574.352	365.39
574.554	410.34
574.757	361.9
574.959	377.79
575.162	352.99
575.364	380.12
575.566	480.28
575.769	348.54
575.971	372.37
576.173	303.97
576.376	368.1
576.578	430.1
576.78	435.72
576.982	311.92
577.185	370.62
577.387	315.79
577.589	339.43
577.791	393.29
577.993	370.62
578.196	352.41
578.398	375.08
578.6	416.35
578.802	350.28
579.004	322.38
579.206	304.75
579.408	378.76
579.61	322.57
579.812	371.4
580.014	355.7
580.216	324.32
580.418	325.67
580.62	328.39
580.822	280.14
581.024	328
581.226	357.45
581.428	328
581.63	416.15
581.832	322.77
582.034	407.05
582.236	355.7
582.438	351.44
582.64	390.97
582.841	403.17
583.043	406.27
583.245	364.62
583.447	379.53
583.649	347.37
583.85	340.98
584.052	379.34
584.254	326.45
584.456	386.32
584.657	299.9
584.859	336.14
585.061	332.84
585.262	346.6
585.464	295.84
585.666	402.4
585.867	326.25
586.069	393.68
586.27	341.75
586.472	340.4
586.674	319.09
586.875	340.01
587.077	322.77
587.278	348.73
587.48	335.17
587.681	415.96
587.883	352.41
588.084	321.02
588.285	326.45
588.487	315.79
588.688	335.36
588.89	317.15
589.091	287.7
589.292	347.76
589.494	297.77
589.695	312.69
589.896	240.81
590.098	242.17
590.299	282.47
590.5	251.47
590.702	284.4
590.903	307.65
591.104	341.37
591.305	299.52
591.507	367.33
591.708	327.8
591.909	306.49
592.11	364.62
592.311	346.79
592.512	316.57
592.714	287.7
592.915	278.98
593.116	277.62
593.317	291.57
593.518	287.5
593.719	264.45
593.92	326.84
594.121	373.53
594.322	309.01
594.523	314.24
594.724	292.74
594.925	307.65
595.126	340.4
595.327	347.76
595.528	311.72
595.729	307.85
595.929	311.34
596.13	321.02
596.331	314.82
596.532	293.9
596.733	364.03
596.934	334.97
597.135	311.92
597.335	342.34
597.536	257.67
597.737	309.01
597.938	264.45
598.138	324.12
598.339	276.07
598.54	323.74
598.74	279.56
598.941	306.88
599.142	332.07
599.342	327.03
599.543	277.82
599.744	302.42
599.944	301.45
600.145	299.32
600.345	307.07
600.546	375.66
600.746	343.89
600.947	339.24
601.147	342.34
601.348	362.87
601.548	292.15
601.749	321.8
601.949	277.43
602.15	263.87
602.35	305.52
602.551	361.13
602.751	258.25
602.951	277.24
603.152	241.2
603.352	332.45
603.552	292.15
603.753	333.23
603.953	337.69
604.153	297.19
604.354	288.47
604.554	304.55
604.754	309.4
604.954	256.89
605.155	301.26
605.355	282.27
605.555	337.69
605.755	362.1
605.955	294.09
606.155	339.62
606.356	309.2
606.556	298.16
606.756	310.56
606.956	262.9
607.156	343.3
607.356	246.62
607.556	321.22
607.756	296.42
607.956	342.14
608.156	293.7
608.356	285.18
608.556	327.22
608.756	303.78
608.956	258.06
609.156	323.54
609.356	262.32
609.556	261.16
609.755	271.04
609.955	273.55
610.155	285.37
610.355	299.9
610.555	277.62
610.755	318.89
610.954	220.86
611.154	286.54
611.354	319.28
611.554	277.04
611.753	274.14
611.953	235.97
612.153	303.59
612.352	314.24
612.552	242.36
612.752	217.17
612.951	258.44
613.151	300.1
613.351	247.79
613.55	254.18
613.75	287.7
613.949	297.77
614.149	301.07
614.348	298.55
614.548	246.04
614.747	206.13
614.947	255.34
615.146	197.99
615.346	276.46
615.545	244.3
615.745	282.66
615.944	279.95
616.144	286.54
616.343	295.06
616.542	259.99
616.742	265.03
616.941	265.81
617.14	248.95
617.34	239.65
617.539	269.1
617.738	232.29
617.938	334.59
618.137	247.4
618.336	209.04
618.535	261.74
618.734	251.27
618.934	283.24
619.133	252.44
619.332	284.79
619.531	228.02
619.73	248.76
619.929	297.19
620.128	280.53
620.328	309.79
620.527	218.34
620.726	246.62
620.925	253.02
621.124	229.77
621.323	259.99
621.522	237.13
621.721	219.69
621.92	199.93
622.119	278.4
622.318	223.76
622.517	241.59
622.715	242.36
622.914	188.11
623.113	244.3
623.312	193.34
623.511	272.59
623.71	229.38
623.909	239.84
624.107	291.38
624.306	204.39
624.505	194.51
624.704	220.47
624.902	217.37
625.101	297.58
625.3	253.41
625.499	210.39
625.697	220.86
625.896	221.44
626.095	243.91
626.293	207.87
626.492	220.08
626.69	273.55
626.889	213.11
627.088	257.86
627.286	232.67
627.485	198.57
627.683	186.76
627.882	229.96
628.08	197.99
628.279	229.57
628.477	309.2
628.676	185.59
628.874	238.87
629.073	223.76
629.271	188.31
629.469	228.02
629.668	207.49
629.866	211.75
630.065	205.94
630.263	232.87
630.461	232.09
630.66	244.88
630.858	258.06
631.056	239.46
631.254	253.79
631.453	188.69
631.651	246.43
631.849	231.71
632.047	242.94
632.245	230.35
632.444	227.44
632.642	222.79
632.84	222.02
633.038	179.59
633.236	159.83
633.434	184.43
633.632	197.8
633.83	181.91
634.028	228.41
634.227	191.02
634.425	261.35
634.623	203.42
634.821	213.11
635.019	198.77
635.216	183.07
635.414	228.8
635.612	228.8
635.81	185.4
636.008	260.57
636.206	202.45
636.404	249.72
636.602	157.31
636.8	217.17
636.997	235
637.195	236.36
637.393	221.63
637.591	264.64
637.789	224.54
637.986	207.1
638.184	237.71
638.382	255.34
638.58	248.37
638.777	260.96
638.975	196.44
639.173	228.02
639.37	236.74
639.568	234.42
639.765	233.64
639.963	229.77
640.161	240.42
640.358	248.17
640.556	191.21
640.753	200.9
640.951	175.52
641.148	216.79
641.346	206.32
641.543	213.3
641.741	229.38
641.938	187.14
642.136	211.17
642.333	177.84
642.531	244.88
642.728	249.92
642.925	194.51
643.123	190.44
643.32	240.04
643.517	220.86
643.715	213.49
643.912	200.9
644.109	230.16
644.306	213.3
644.504	203.42
644.701	216.59
644.898	234.42
645.095	179.59
645.293	206.52
645.49	226.86
645.687	202.84
645.884	266.19
646.081	172.03
646.278	177.07
646.475	167.77
646.672	197.41
646.87	224.92
647.067	231.12
647.264	222.6
647.461	173.97
647.658	160.41
647.855	228.8
648.052	184.43
648.249	133.86
648.446	189.66
648.642	193.34
648.839	180.17
649.036	161.76
649.233	123.59
649.43	140.64
649.627	134.25
649.824	185.21
650.021	169.9
650.217	163.31
650.414	152.27
650.611	192.18
650.808	181.53
651.004	192.18
651.201	187.53
651.398	230.16
651.595	198.19
651.791	174.36
651.988	211.17
652.185	148.2
652.381	188.11
652.578	174.74
652.775	188.89
652.971	174.16
653.168	163.89
653.364	193.54
653.561	131.15
653.757	170.68
653.954	193.54
654.15	147.43
654.347	239.84
654.543	170.68
654.74	127.28
654.936	146.07
655.133	155.56
655.329	157.5
655.525	174.55
655.722	217.37
655.918	132.89
656.115	233.06
656.311	135.41
656.507	161.38
656.704	126.69
656.9	174.16
657.096	110.61
657.292	139.29
657.489	177.26
657.685	187.34
657.881	153.24
658.077	141.42
658.273	163.7
658.47	207.1
658.666	139.87
658.862	208.26
659.058	128.83
659.254	188.89
659.45	153.24
659.646	157.11
659.842	150.72
660.038	197.61
660.234	122.82
660.43	132.31
660.626	216.98
660.822	213.49
661.018	180.94
661.214	191.6
661.41	143.94
661.606	179.78
661.802	186.56
661.998	135.41
662.194	129.21
662.39	158.47
662.586	160.21
662.781	167.19
662.977	176.88
663.173	177.65
663.369	149.75
663.564	184.43
663.76	193.54
663.956	135.41
664.152	210.01
664.347	129.02
664.543	192.57
664.739	157.69
664.934	125.34
665.13	105.96
665.326	186.37
665.521	182.49
665.717	141.81
665.912	122.63
666.108	102.86
666.304	122.24
666.499	173.97
666.695	86.4
666.89	162.15
667.086	173.78
667.281	158.86
667.477	216.01
667.672	167.19
667.867	150.33
668.063	156.73
668.258	112.94
668.454	152.85
668.649	228.99
668.844	168.93
669.04	182.3
669.235	156.53
669.43	123.98
669.626	129.6
669.821	136.38
670.016	122.82
670.211	139.09
670.407	132.89
670.602	147.62
670.797	144.52
670.992	157.31
671.187	119.53
671.382	200.71
671.578	128.83
671.773	128.44
671.968	112.94
672.163	136.19
672.358	175.71
672.553	121.85
672.748	136.38
672.943	181.33
673.138	153.04
673.333	162.54
673.528	143.16
673.723	159.44
673.918	126.89
674.113	101.31
674.308	220.27
674.503	175.52
674.698	186.95
674.892	150.53
675.087	175.33
675.282	178.81
675.477	127.47
675.672	158.28
675.867	141.81
676.061	105.19
676.256	124.76
676.451	129.6
676.646	164.86
676.84	135.41
677.035	95.69
677.23	86.4
677.424	168.93
677.619	180.17
677.814	158.08
678.008	201.09
678.203	82.71
678.397	103.25
678.592	148.2
678.787	171.64
678.981	136.19
679.176	160.6
679.37	142.58
679.565	113.33
679.759	125.14
679.954	163.7
680.148	184.43
680.342	197.99
680.537	183.66
680.731	147.62
680.926	162.54
681.12	168.93
681.314	131.73
681.509	131.34
681.703	159.24
681.897	181.53
682.092	151.69
682.286	144.33
682.48	194.89
682.674	178.62
682.869	173.19
683.063	145.68
683.257	232.67
683.451	114.88
683.645	156.34
683.839	142
684.034	145.68
684.228	178.62
684.422	120.88
684.616	107.9
684.81	153.43
685.004	137.74
685.198	163.51
685.392	160.6
685.586	122.24
685.78	160.02
685.974	183.07
686.168	185.59
686.362	176.68
686.556	101.12
686.75	132.12
686.944	158.08
687.138	174.36
687.331	101.31
687.525	151.49
687.719	86.78
687.913	144.91
688.107	124.95
688.301	124.37
688.494	158.08
688.688	101.12
688.882	94.92
689.076	66.83
689.269	162.34
689.463	175.91
689.657	111.97
689.85	108.29
690.044	110.23
690.238	158.66
690.431	108.87
690.625	119.53
690.818	157.31
691.012	148.59
691.205	155.18
691.399	116.81
691.593	137.54
691.786	162.93
691.98	188.5
692.173	197.61
692.366	165.83
692.56	159.83
692.753	208.26
692.947	135.22
693.14	196.64
693.333	169.32
693.527	141.61
693.72	193.54
693.914	156.92
694.107	163.12
694.3	173.58
694.493	161.96
694.687	219.69
694.88	150.53
695.073	204.19
695.266	197.22
695.46	168.35
695.653	228.22
695.846	234.42
696.039	136.19
696.232	195.47
696.425	203.61
696.618	199.54
696.812	213.3
697.005	239.07
697.198	297.39
697.391	211.36
697.584	201.48
697.777	265.81
697.97	240.81
698.163	243.14
698.356	245.27
698.549	313.47
698.742	250.11
698.935	234.61
699.127	271.62
699.32	240.81
699.513	253.6
699.706	264.06
699.899	263.29
700.092	265.22
700.285	317.54
700.477	206.13
700.67	303.39
700.863	260.77
701.056	343.11
701.248	359.58
701.441	319.67
701.634	281.5
701.826	406.66
702.019	304.17
702.212	357.83
702.404	296.42
702.597	286.54
702.79	284.4
702.982	341.56
703.175	368.49
703.367	365.2
703.56	390
703.752	439.21
703.945	383.6
704.137	405.88
704.33	429.13
704.522	397.75
704.715	422.35
704.907	438.63
705.1	445.99
705.292	446.38
705.484	394.65
705.677	449.67
705.869	446.96
706.061	468.08
706.254	493.85
706.446	458.2
706.638	456.06
706.831	533.18
707.023	477.76
707.215	547.51
707.407	522.71
707.599	529.69
707.792	556.62
707.984	538.6
708.176	575.8
708.368	542.28
708.56	565.92
708.752	545.96
708.944	552.94
709.136	560.69
709.329	585.88
709.521	666.67
709.713	626.56
709.905	628.89
710.097	672.67
710.289	620.75
710.481	632.57
710.672	652.33
710.864	632.18
711.056	697.86
711.248	676.94
711.44	698.06
711.632	672.87
711.824	698.83
712.016	752.5
712.207	733.7
712.399	727.12
712.591	800.74
712.783	732.74
712.975	775.17
713.166	722.66
713.358	749.01
713.55	828.25
713.741	824.57
713.933	833.68
714.125	817.4
714.316	771.49
714.508	866.23
714.7	881.53
714.891	866.42
715.083	915.25
715.274	874.95
715.466	862.16
715.657	941.01
715.849	833.48
716.04	878.43
716.232	828.83
716.423	916.21
716.615	824.77
716.806	866.81
716.998	866.81
717.189	825.93
717.381	783.89
717.572	752.3
717.763	810.82
717.955	787.95
718.146	794.73
718.337	752.3
718.528	747.27
718.72	712.78
718.911	759.86
719.102	724.79
719.293	799.77
719.485	751.14
719.676	761.6
719.867	757.15
720.058	738.74
720.249	755.79
720.44	783.11
720.632	816.43
720.823	824.96
721.014	918.54
721.205	888.12
721.396	948.76
721.587	991.39
721.778	972.98
721.969	1044.09
722.16	1093.11
722.351	1034.98
722.542	1148.32
722.733	1132.44
722.924	1076.06
723.115	1129.14
723.305	1159.56
723.496	1152
723.687	1045.83
723.878	1090.59
724.069	1114.22
724.26	1110.74
724.45	1066.95
724.641	1088.65
724.832	1137.67
725.023	1136.89
725.213	1102.02
725.404	1097.56
725.595	1112.48
725.785	1091.75
725.976	1121.59
726.167	1113.45
726.357	1156.27
726.548	1241.71
726.739	1149.1
726.929	1212.84
727.12	1235.9
727.31	1261.28
727.501	1225.44
727.691	1219.62
727.882	1250.23
728.072	1288.21
728.263	1271.74
728.453	1312.82
728.644	1278.13
728.834	1303.32
729.024	1273.68
729.215	1284.92
729.405	1317.85
729.596	1347.3
729.786	1364.55
729.976	1385.28
730.167	1394.38
730.357	1364.35
730.547	1394.96
730.737	1409.49
730.928	1458.71
731.118	1500.56
731.308	1433.91
731.498	1478.66
731.688	1525.94
731.879	1512.57
732.069	1541.82
732.259	1590.07
732.449	1591.42
732.639	1655.36
732.829	1665.63
733.019	1678.61
733.209	1752.82
733.399	1736.73
733.589	1839.42
733.779	1829.93
733.969	1802.22
734.159	1883.4
734.349	1910.72
734.539	1919.24
734.729	1931.45
734.919	1984.92
735.109	1995.97
735.299	1947.53
735.488	1980.27
735.678	1971.56
735.868	1981.24
736.058	1964.39
736.248	1988.41
736.437	1946.37
736.627	1966.13
736.817	2044.21
737.007	2042.27
737.196	2066.69
737.386	2016.89
737.576	2015.73
737.765	2109.31
737.955	2079.47
738.144	2148.45
738.334	2145.93
738.524	2080.44
738.713	2129.46
738.903	2111.63
739.092	2178.09
739.282	2208.51
739.471	2174.6
739.661	2167.05
739.85	2188.36
740.04	2235.25
740.229	2208.51
740.419	2268.76
740.608	2296.08
740.797	2252.88
740.987	2347.23
741.176	2308.29
741.365	2318.36
741.555	2229.63
741.744	2369.12
741.933	2332.89
742.123	2367.96
742.312	2371.06
742.501	2415.24
742.69	2419.89
742.88	2360.02
743.069	2435.39
743.258	2363.51
743.447	2447.98
743.636	2396.25
743.825	2441.2
744.014	2431.32
744.204	2469.87
744.393	2403.81
744.582	2485.76
744.771	2532.07
744.96	2453.99
745.149	2514.82
745.338	2443.91
745.527	2523.54
745.716	2483.44
745.905	2474.33
746.094	2536.91
746.283	2548.73
746.471	2490.6
746.66	2559.77
746.849	2545.63
747.038	2559
747.227	2552.6
747.416	2603.56
747.604	2541.75
747.793	2546.79
747.982	2573.72
748.171	2549.12
748.359	2589.8
748.548	2580.31
748.737	2586.51
748.926	2563.26
749.114	2485.76
749.303	2540.59
749.491	2582.25
749.68	2524.12
749.869	2612.67
750.057	2561.32
750.246	2532.65
750.434	2530.32
750.623	2545.24
750.811	2551.05
751	2573.14
751.188	2564.03
751.377	2605.11
751.565	2582.25
751.754	2538.07
751.942	2540.59
752.131	2569.65
752.319	2530.13
752.507	2488.28
752.696	2589.42
752.884	2629.52
753.072	2546.6
753.261	2588.25
753.449	2573.33
753.637	2564.62
753.825	2621.58
754.014	2538.27
754.202	2561.9
754.39	2599.1
754.578	2577.21
754.766	2534.2
754.955	2541.17
755.143	2641.15
755.331	2541.95
755.519	2553.18
755.707	2582.25
755.895	2541.37
756.083	2551.63
756.271	2504.36
756.459	2528
756.647	2566.94
756.835	2496.03
757.023	2504.75
757.211	2502.42
757.399	2498.74
757.587	2516.95
757.775	2478.79
757.963	2491.38
758.151	2514.44
758.339	2437.13
758.526	2441.39
758.714	2493.51
758.902	2393.15
759.09	2348.2
759.278	2180.61
759.465	2004.3
759.653	1734.99
759.841	1585.42
760.028	1326.76
760.216	1177.77
760.404	1094.85
760.591	903.23
760.779	746.69
760.967	669.57
761.154	546.16
761.342	569.6
761.529	579.87
761.717	640.12
761.905	588.39
762.092	653.88
762.28	603.7
762.467	599.44
762.655	544.61
762.842	572.51
763.029	571.54
763.217	579.68
763.404	594.4
763.592	594.01
763.779	559.53
763.966	617.46
764.154	618.43
764.341	690.69
764.528	681.39
764.716	756.95
764.903	778.07
765.09	810.62
765.277	841.62
765.465	1009.99
765.652	1031.88
765.839	1096.59
766.026	1201.22
766.213	1221.56
766.4	1308.75
766.588	1475.56
766.775	1461.03
766.962	1554.22
767.149	1604.4
767.336	1683.65
767.523	1676.67
767.71	1786.14
767.897	1860.93
768.084	1902.19
768.271	1945.79
768.458	2023.87
768.645	2046.92
768.832	2068.04
769.019	2038.98
769.206	2103.3
769.392	2132.75
769.579	2245.9
769.766	2190.3
769.953	2203.86
770.14	2238.93
770.327	2201.34
770.513	2266.83
770.7	2310.03
770.887	2219.75
771.073	2317.59
771.26	2302.09
771.447	2271.48
771.634	2263.53
771.82	2329.41
772.007	2242.03
772.193	2276.71
772.38	2301.51
772.567	2276.51
772.753	2257.53
772.94	2353.63
773.126	2328.24
773.313	2312.16
773.499	2337.93
773.686	2339.87
773.872	2270.31
774.059	2288.91
774.245	2220.91
774.432	2262.95
774.618	2188.17
774.804	2287.36
774.991	2265.66
775.177	2301.51
775.363	2229.24
775.55	2303.25
775.736	2190.1
775.922	2220.33
776.109	2265.08
776.295	2276.71
776.481	2280.97
776.667	2279.42
776.853	2232.73
777.04	2257.91
777.226	2230.4
777.412	2316.62
777.598	2206.38
777.784	2196.5
777.97	2217.03
778.156	2226.91
778.342	2224.78
778.528	2208.9
778.715	2177.9
778.901	2168.02
779.087	2194.95
779.272	2137.4
779.458	2185.65
779.644	2170.15
779.83	2168.79
780.016	2262.37
780.202	2187
780.388	2126.17
780.574	2102.14
780.76	2095.36
780.946	2174.6
781.131	2179.25
781.317	2118.42
781.503	2114.15
781.689	2108.15
781.874	2207.93
782.06	2089.94
782.246	2129.85
782.432	2132.17
782.617	2129.07
782.803	2195.14
782.989	2088.58
783.174	2062.42
783.36	2041.69
783.545	2046.73
783.731	2098.85
783.916	2004.69
784.102	2075.21
784.288	2006.43
784.473	2084.51
784.659	2026.19
784.844	2086.64
785.029	2017.86
785.215	2029.87
785.4	1984.73
785.586	2086.45
785.771	2001.78
785.956	1994.22
786.142	2009.92
786.327	1994.22
786.512	2003.33
786.698	1978.72
786.883	1931.64
787.068	1977.37
787.254	1976.4
787.439	1936.49
787.624	1991.51
787.809	1939.97
787.994	1935.13
788.18	1992.87
788.365	1892.12
788.55	1948.89
788.735	1938.62
788.92	1950.05
789.105	1893.09
789.29	1966.91
789.475	1850.85
789.66	1871
789.845	1868.09
790.03	1840.58
790.215	1892.51
790.4	1918.86
790.585	1895.61
790.77	1888.63
790.955	1822.76
791.14	1883.4
791.325	1914.01
791.51	1762.7
791.695	1839.03
791.879	1843.88
792.064	1783.23
792.249	1889.79
792.434	1846.78
792.618	1857.63
792.803	1842.71
792.988	1844.07
793.173	1849.69
793.357	1895.41
793.542	1805.9
793.727	1855.11
793.911	1871.39
794.096	1844.07
794.281	1866.16
794.465	1936.49
794.65	1895.03
794.834	1904.71
795.019	1915.18
795.203	1894.83
795.388	1934.36
795.572	1912.85
795.757	1915.37
795.941	1880.69
796.126	1889.6
796.31	1838.06
796.494	1848.33
796.679	1840
796.863	1836.32
797.048	1901.23
797.232	1889.79
797.416	1900.84
797.601	1882.43
797.785	1975.24
797.969	1916.73
798.153	1874.68
798.338	1892.12
798.522	1926.8
798.706	1910.33
798.89	1924.28
799.074	2015.15
799.258	1932.81
799.443	1934.36
799.627	1884.95
799.811	1960.9
799.995	1878.94
800.179	1876.04
800.363	1902.19
800.547	1911.88
800.731	1955.47
800.915	1857.63
801.099	1875.46
801.283	1870.81
801.467	1913.82
801.651	1874.29
801.835	1916.53
802.019	1907.81
802.202	1898.13
802.386	1833.61
802.57	1877.2
802.754	1821.4
802.938	1881.85
803.121	1838.45
803.305	1903.16
803.489	1876.04
803.673	1886.11
803.856	1924.67
804.04	1896.58
804.224	1864.8
804.407	1877.01
804.591	1868.29
804.775	1876.43
804.958	1870.61
805.142	1985.31
805.326	1884.37
805.509	1902.39
805.693	1922.54
805.876	1884.56
806.06	1911.88
806.243	1930.09
806.427	1947.72
806.61	1938.04
806.794	1902.78
806.977	1943.27
807.16	1943.46
807.344	1922.54
807.527	1906.65
807.71	1858.21
807.894	1896.77
808.077	1892.31
808.26	1850.85
808.444	1845.43
808.627	1933
808.81	1843.1
808.993	1812.3
809.177	1803.58
809.36	1832.83
809.543	1866.74
809.726	1756.3
809.909	1772.38
810.092	1775.1
810.276	1749.91
810.459	1789.24
810.642	1769.28
810.825	1728.6
811.008	1742.16
811.191	1705.15
811.374	1687.33
811.557	1695.66
811.74	1766.38
811.923	1678.61
812.106	1635.4
812.289	1615.25
812.472	1650.71
812.654	1657.88
812.837	1579.99
813.02	1553.06
813.203	1562.56
813.386	1442.63
813.569	1468.98
813.751	1419.57
813.934	1481.57
814.117	1413.56
814.3	1395.35
814.482	1343.81
814.665	1364.93
814.848	1320.37
815.03	1291.89
815.213	1297.7
815.396	1265.15
815.578	1263.02
815.761	1217.3
815.943	1315.92
816.126	1211.29
816.309	1181.65
816.491	1156.07
816.674	1106.86
816.856	1143.67
817.039	1107.64
817.221	1199.09
817.403	1150.45
817.586	1124.3
817.768	1167.31
817.951	1083.81
818.133	1129.72
818.315	1122.94
818.498	1168.28
818.68	1224.08
818.862	1184.94
819.045	1202.57
819.227	1166.34
819.409	1156.65
819.591	1191.92
819.774	1160.53
819.956	1177.77
820.138	1234.93
820.32	1234.73
820.502	1247.72
820.684	1296.15
820.866	1296.73
821.048	1339.36
821.231	1334.32
821.413	1350.01
821.595	1341.68
821.777	1356.8
821.959	1309.13
822.141	1362.22
822.323	1261.28
822.505	1229.7
822.686	1193.47
822.868	1148.32
823.05	1034.21
823.232	1051.84
823.414	981.31
823.596	1034.98
823.778	1061.52
823.96	1055.91
824.141	1040.21
824.323	1092.33
824.505	1164.02
824.687	1144.84
824.868	1214.59
825.05	1245
825.232	1291.89
825.413	1353.11
825.595	1313.01
825.777	1245.2
825.958	1299.64
826.14	1302.55
826.321	1344.2
826.503	1288.21
826.685	1320.95
826.866	1339.94
827.048	1320.56
827.229	1270.97
827.411	1232.41
827.592	1238.22
827.773	1212.65
827.955	1164.4
828.136	1180.29
828.318	1165.57
828.499	1194.82
828.68	1093.3
828.862	1207.03
829.043	1175.45
829.224	1187.65
829.406	1132.24
829.587	1141.54
829.768	1144.25
829.949	1202.57
830.131	1168.09
830.312	1230.28
830.493	1179.13
830.674	1186.1
830.855	1185.91
831.036	1196.18
831.218	1225.05
831.399	1191.14
831.58	1179.13
831.761	1182.62
831.942	1195.02
832.123	1165.95
832.304	1121.78
832.485	1136.89
832.666	1146.97
832.847	1195.99
833.028	1197.54
833.209	1196.95
833.389	1153.75
833.57	1139.61
833.751	1154.91
833.932	1184.94
834.113	1182.62
834.294	1178.94
834.475	1184.17
834.655	1211.29
834.836	1237.25
835.017	1217.3
835.198	1144.25
835.378	1202.77
835.559	1231.63
835.74	1201.22
835.92	1166.92
836.101	1155.3
836.281	1215.75
836.462	1221.95
836.643	1252.56
836.823	1245.39
837.004	1228.73
837.184	1223.89
837.365	1247.52
837.545	1219.43
837.726	1214.39
837.906	1263.22
838.087	1264.57
838.267	1254.5
838.448	1189.4
838.628	1266.12
838.808	1210.52
838.989	1297.7
839.169	1207.61
839.349	1250.62
839.53	1258.37
839.71	1255.27
839.89	1227.18
840.07	1285.11
840.251	1210.9
840.431	1253.33
840.611	1225.44
840.791	1218.65
840.971	1238.8
841.151	1244.03
841.332	1195.79
841.512	1261.08
841.692	1192.69
841.872	1252.37
842.052	1221.37
842.232	1259.73
842.412	1172.15
842.592	1206.84
842.772	1231.05
842.952	1222.14
843.132	1175.84
843.312	1196.57
843.492	1170.6
843.672	1225.44
843.851	1164.79
844.031	1214.97
844.211	1178.74
844.391	1156.65
844.571	1203.35
844.751	1223.89
844.93	1182.23
845.11	1203.74
845.29	1211.87
845.47	1211.68
845.649	1225.63
845.829	1215.36
846.009	1169.83
846.188	1208.77
846.368	1203.35
846.547	1184.55
846.727	1261.08
846.907	1147.94
847.086	1190.95
847.266	1210.32
847.445	1187.46
847.625	1175.06
847.804	1166.15
847.984	1185.33
848.163	1137.67
848.343	1163.82
848.522	1147.16
848.701	1176.8
848.881	1128.56
849.06	1193.66
849.239	1170.8
849.419	1178.94
849.598	1090.01
849.777	1161.5
849.957	1142.12
850.136	1067.14
850.315	1059.59
850.494	1050.29
850.674	1054.16
850.853	1127.79
851.032	1086.91
851.211	1126.62
851.39	1094.46
851.569	1054.94
851.748	1054.16
851.927	1113.64
852.107	1078.77
852.286	1051.45
852.465	1059.78
852.644	1085.16
852.823	1083.22
853.002	1095.62
853.181	1083.03
853.359	1080.12
853.538	1025.29
853.717	1070.05
853.896	1011.93
854.075	954.58
854.254	936.75
854.433	913.89
854.611	960.97
854.79	923.19
854.969	959.03
855.148	979.38
855.327	911.56
855.505	1009.79
855.684	981.7
855.863	984.61
856.041	992.36
856.22	1017.74
856.399	965.43
856.577	1042.34
856.756	1037.5
856.934	1148.52
857.113	1130.31
857.291	1064.24
857.47	994.68
857.648	1024.13
857.827	1042.54
858.005	1079.16
858.184	1003.4
858.362	1113.06
858.541	1025.68
858.719	1042.54
858.898	1036.53
859.076	1008.63
859.254	1055.71
859.433	1049.51
859.611	1025.88
859.789	966.01
859.967	1085.94
860.146	1080.12
860.324	961.75
860.502	1008.44
860.68	984.41
860.859	995.07
861.037	974.73
861.215	1021.23
861.393	1023.55
861.571	996.81
861.749	950.31
861.927	1028.59
862.105	990.81
862.283	991.78
862.461	961.94
862.639	946.05
862.817	990.42
862.995	994.49
863.173	957.29
863.351	938.5
863.529	948.57
863.707	986.54
863.885	971.63
864.063	926.68
864.241	928.23
864.418	995.65
864.596	963.49
864.774	901.88
864.952	933.26
865.129	961.16
865.307	936.56
865.485	906.53
865.663	977.83
865.84	868.55
866.018	929.97
866.196	791.83
866.373	848.02
866.551	812.56
866.728	785.05
866.906	809.65
867.084	827.87
867.261	863.13
867.439	851.31
867.616	875.33
867.794	872.62
867.971	895.48
868.149	879.6
868.326	922.03
868.503	919.31
868.681	894.9
868.858	875.53
869.035	863.13
869.213	904.4
869.39	868.17
869.567	936.36
869.745	885.8
869.922	907.88
870.099	879.02
870.276	916.6
870.454	918.93
870.631	916.8
870.808	861.97
870.985	923.38
871.162	974.53
871.339	852.47
871.517	843.17
871.694	853.25
871.871	871.65
872.048	833.68
872.225	866.03
872.402	900.13
872.579	824.96
872.756	877.85
872.933	817.02
873.11	847.82
873.287	870.1
873.463	857.32
873.64	817.4
873.817	856.73
873.994	857.32
874.171	826.51
874.348	840.85
874.524	797.06
874.701	849.18
874.878	796.28
875.055	837.55
875.231	826.12
875.408	817.79
875.585	768.97
875.762	848.21
875.938	783.5
876.115	789.5
876.291	800.93
876.468	819.92
876.645	772.65
876.821	809.85
876.998	830.97
877.174	790.67
877.351	792.99
877.527	761.41
877.704	785.05
877.88	778.27
878.057	777.3
878.233	840.65
878.409	756.37
878.586	790.09
878.762	736.42
878.938	807.13
879.115	743.97
879.291	767.22
879.467	741.45
879.644	738.74
879.82	785.05
879.996	735.64
880.172	732.54
880.349	722.47
880.525	771.87
880.701	730.99
880.877	745.52
881.053	768
881.229	739.32
881.405	770.71
881.581	695.92
881.757	731.77
881.933	775.55
882.109	765.29
882.285	749.79
882.461	705.03
882.637	760.83
882.813	713.17
882.989	734.87
883.165	788.54
883.341	711.04
883.517	781.95
883.693	740.29
883.869	761.22
884.044	696.51
884.22	753.27
884.396	801.32
884.572	773.62
884.747	780.01
884.923	743.39
885.099	780.4
885.275	791.83
885.45	708.9
885.626	712.59
885.801	714.14
885.977	733.32
886.153	678.49
886.328	725.57
886.504	729.25
886.679	742.81
886.855	702.32
887.03	769.94
887.206	763.74
887.381	733.9
887.557	767.61
887.732	751.34
887.908	771.49
888.083	737.77
888.258	730.02
888.434	710.07
888.609	729.05
888.784	788.54
888.96	734.29
889.135	727.7
889.31	725.95
889.485	775.55
889.661	738.55
889.836	776.72
890.011	729.83
890.186	738.16
890.361	707.16
890.537	759.67
890.712	740.29
890.887	752.69
891.062	722.85
891.237	778.07
891.412	691.86
891.587	755.4
891.762	746.1
891.937	764.7
892.112	701.93
892.287	721.89
892.462	683.52
892.637	660.86
892.812	626.17
892.987	678.87
893.161	643.61
893.336	680.42
893.511	685.27
893.686	668.22
893.861	645.74
894.035	641.09
894.21	671.9
894.385	620.56
894.56	676.16
894.734	612.61
894.909	627.53
895.084	572.7
895.258	576.38
895.433	634.51
895.608	599.83
895.782	563.98
895.957	543.83
896.131	572.31
896.306	507.6
896.48	517.87
896.655	508.18
896.829	471.76
897.004	458
897.178	486.48
897.353	469.63
897.527	537.83
897.701	494.43
897.876	441.53
898.05	490.16
898.224	471.37
898.399	513.41
898.573	496.17
898.747	377.21
898.921	462.85
899.096	361.9
899.27	356.29
899.444	388.45
899.618	442.7
899.792	437.66
899.967	397.75
900.141	440.95
900.315	379.53
900.489	417.32
900.663	434.37
900.837	422.35
901.011	381.86
901.185	500.63
901.359	408.6
901.533	437.08
901.707	439.02
901.881	420.22
902.055	371.2
902.229	410.34
902.403	451.8
902.576	424.87
902.75	433.2
902.924	528.14
903.098	465.56
903.272	500.43
903.446	536.66
903.619	488.42
903.793	549.64
903.967	504.89
904.14	562.04
904.314	567.28
904.488	507.02
904.661	526.59
904.835	502.95
905.009	557.01
905.182	587.04
905.356	568.83
905.529	546.93
905.703	520.58
905.876	499.66
906.05	497.72
906.223	468.85
906.397	439.4
906.57	456.65
906.744	433.4
906.917	425.26
907.09	432.43
907.264	415.96
907.437	380.31
907.61	364.03
907.784	383.41
907.957	385.35
908.13	394.07
908.304	405.69
908.477	342.92
908.65	389.22
908.823	314.82
908.996	434.95
909.17	390.77
909.343	359
909.516	388.64
909.689	363.84
909.862	325.29
910.035	378.95
910.208	383.99
910.381	352.8
910.554	437.85
910.727	370.04
910.9	385.93
911.073	347.37
911.246	416.35
911.419	424.68
911.592	400.46
911.765	364.03
911.938	342.14
912.11	360.35
912.283	380.5
912.456	420.03
912.629	391.35
912.802	354.15
912.974	346.21
913.147	300.49
913.32	254.18
913.493	277.04
913.665	325.67
913.838	339.24
914.01	318.31
914.183	320.64
914.356	300.87
914.528	343.11
914.701	383.99
914.873	366.17
915.046	302.23
915.218	275.3
915.391	259.8
915.563	281.11
915.736	287.31
915.908	324.32
916.081	320.05
916.253	305.14
916.425	312.89
916.598	330.32
916.77	322.38
916.942	296.8
917.115	228.8
917.287	291.38
917.459	303.97
917.632	259.22
917.804	246.43
917.976	292.35
918.148	317.54
918.32	284.99
918.493	323.15
918.665	373.14
918.837	310.75
919.009	380.12
919.181	374.69
919.353	345.63
919.525	335.75
919.697	333.62
919.869	343.3
920.041	385.35
920.213	444.05
920.385	365
920.557	325.48
920.729	368.1
920.901	394.65
921.073	366.36
921.244	338.65
921.416	368.88
921.588	343.89
921.76	322.96
921.932	405.3
922.103	350.67
922.275	339.82
922.447	347.18
922.619	306.49
922.79	302.42
922.962	312.5
923.134	329.16
923.305	320.05
923.477	297.77
923.648	275.3
923.82	340.01
923.991	255.92
924.163	260.96
924.335	297.97
924.506	271.42
924.677	330.52
924.849	266.97
925.02	286.92
925.192	331.68
925.363	278.4
925.535	303.78
925.706	279.95
925.877	322.38
926.049	291.38
926.22	290.02
926.391	286.54
926.562	337.1
926.734	261.54
926.905	311.14
927.076	266.97
927.247	266.39
927.419	237.32
927.59	245.27
927.761	233.06
927.932	258.25
928.103	244.88
928.274	197.41
928.445	195.28
928.616	188.89
928.787	204.39
928.958	257.86
929.129	212.33
929.3	199.54
929.471	185.21
929.642	115.84
929.813	90.46
929.984	176.1
930.155	125.92
930.326	154.4
930.496	124.37
930.667	80.2
930.838	107.51
931.009	111.97
931.18	118.17
931.35	108.68
931.521	124.95
931.692	67.6
931.863	58.69
932.033	81.94
932.204	88.33
932.374	71.28
932.545	33.89
932.716	117.01
932.886	105.38
933.057	35.63
933.227	47.65
933.398	116.04
933.568	47.26
933.739	17.03
933.909	15.29
934.08	67.6
934.25	-14.35
934.421	18.78
934.591	40.48
934.761	21.49
934.932	-16.48
935.102	43.96
935.272	42.61
935.443	39.12
935.613	39.31
935.783	50.55
935.953	8.12
936.123	140.26
936.294	2.89
936.464	3.28
936.634	24.98
936.804	17.42
936.974	4.83
937.144	32.92
937.314	30.4
937.484	16.45
937.655	17.61
937.825	68.57
937.995	-13.77
938.165	62.56
938.334	24.98
938.504	41.45
938.674	19.94
938.844	44.74
939.014	67.02
939.184	63.92
939.354	101.31
939.524	75.93
939.694	73.8
939.863	59.66
940.033	111.39
940.203	93.76
940.373	65.86
940.542	108.09
940.712	69.54
940.882	92.98
941.051	116.62
941.221	100.93
941.391	99.96
941.56	63.53
941.73	34.66
941.899	169.9
942.069	57.33
942.238	89.88
942.408	66.83
942.577	80.78
942.747	52.49
942.916	22.07
943.086	47.45
943.255	64.11
943.425	68.96
943.594	77.87
943.763	8.51
943.933	14.71
944.102	-16.87
944.271	65.08
944.441	68.57
944.61	52.49
944.779	46.29
944.948	123.4
945.117	0.57
945.287	42.41
945.456	-18.81
945.625	42.61
945.794	52.49
945.963	5.02
946.132	67.99
946.301	46.87
946.47	84.07
946.639	7.73
946.808	22.26
946.977	48.23
947.146	94.34
947.315	59.27
947.484	55.4
947.653	23.04
947.822	15.48
947.991	26.91
948.16	94.73
948.329	93.18
948.498	44.55
948.666	46.87
948.835	75.74
949.004	28.46
949.173	29.63
949.341	42.22
949.51	44.74
949.679	84.07
949.847	116.23
950.016	105.38
950.185	123.01
950.353	10.45
950.522	31.76
950.69	122.43
950.859	31.76
951.028	92.98
951.196	52.68
951.365	40.86
951.533	47.84
951.701	50.36
951.87	51.71
952.038	18.58
952.207	48.81
952.375	109.64
952.543	35.83
952.712	46.1
952.88	45.71
953.048	107.71
953.217	61.01
953.385	43
953.553	79.23
953.721	5.02
953.89	43.38
954.058	9.48
954.226	19.55
954.394	54.23
954.562	23.43
954.73	36.99
954.898	23.04
955.067	83.68
955.235	24.01
955.403	67.99
955.571	115.26
955.739	53.85
955.907	27.69
956.075	54.62
956.243	43.77
956.41	47.45
956.578	10.64
956.746	-4.28
956.914	31.76
957.082	77.29
957.25	68.57
957.418	32.53
957.585	55.98
957.753	80
957.921	41.06
958.089	54.81
958.256	67.21
958.424	62.95
958.592	61.6
958.759	6.18
958.927	80.97
959.095	19.55
959.262	40.28
959.43	72.64
959.597	9.48
959.765	49.58
959.932	14.13
960.1	92.01
960.267	41.06
960.435	58.3
960.602	56.17
960.77	35.05
960.937	33.5
961.104	73.8
961.272	5.99
961.439	60.43
961.606	62.18
961.774	67.21
961.941	33.89
962.108	70.12
962.275	70.51
962.443	90.66
962.61	63.15
962.777	126.31
962.944	76.51
963.111	72.45
963.278	48.61
963.446	69.54
963.613	72.64
963.78	69.93
963.947	88.14
964.114	56.36
964.281	120.49
964.448	82.52
964.615	35.44
964.782	82.13
964.949	95.5
965.116	83.68
965.282	88.91
965.449	52.88
965.616	45.71
965.783	103.44
965.95	41.45
966.117	21.68
966.283	60.24
966.45	88.91
966.617	58.88
966.784	104.03
966.95	83.3
967.117	94.73
967.284	47.65
967.45	52.1
967.617	107.13
967.784	79.61
967.95	112.36
968.117	35.25
968.283	122.24
968.45	171.84
968.616	107.71
968.783	111.19
968.949	91.05
969.116	126.89
969.282	76.13
969.449	121.27
969.615	60.05
969.781	29.63
969.948	66.25
970.114	28.27
970.28	138.9
970.447	58.3
970.613	120.88
970.779	94.15
970.945	92.21
971.112	80.97
971.278	77.68
971.444	66.63
971.61	112.36
971.776	41.45
971.942	109.84
972.108	111.19
972.275	90.08
972.441	106.16
972.607	143.36
972.773	50.75
972.939	95.69
973.105	82.71
973.271	40.28
973.437	67.6
973.602	45.13
973.768	91.63
973.934	57.53
974.1	86.01
974.266	0.18
974.432	91.43
974.598	59.27
974.763	95.5
974.929	66.63
975.095	105.58
975.261	45.13
975.426	48.42
975.592	65.08
975.758	119.14
975.923	34.08
976.089	43
976.255	94.34
976.42	100.73
976.586	88.91
976.751	87.17
976.917	127.66
977.082	93.76
977.248	34.28
977.413	20.52
977.579	47.84
977.744	75.16
977.91	23.04
978.075	54.23
978.24	95.11
978.406	79.23
978.571	56.36
978.736	61.21
978.902	71.09
979.067	35.05
979.232	16.65
979.397	83.49
979.563	105.96
979.728	40.86
979.893	60.24
980.058	39.31
980.223	96.47
980.388	53.85
980.554	55.4
980.719	56.17
980.884	77.87
981.049	80.58
981.214	53.85
981.379	89.11
981.544	39.9
981.709	89.11
981.874	43.38
982.039	64.89
982.204	75.16
982.368	68.18
982.533	30.01
982.698	104.41
982.863	112.55
983.028	51.71
983.193	69.15
983.357	60.05
983.522	86.2
983.687	66.83
983.852	65.47
984.016	44.55
984.181	67.41
984.346	77.29
984.51	81.55
984.675	62.18
984.839	102.09
985.004	72.25
985.168	111
985.333	77.68
985.498	67.21
985.662	87.17
985.827	99.76
985.991	54.43
986.155	77.68
986.32	118.17
986.484	118.94
986.649	88.14
986.813	19.94
986.977	98.02
987.142	87.36
987.306	22.26
987.47	59.46
987.634	67.8
987.799	90.66
987.963	65.86
988.127	82.52
988.291	132.12
988.455	89.69
988.62	45.13
988.784	95.11
988.948	80.78
989.112	29.24
989.276	55.4
989.44	67.21
989.604	39.31
989.768	76.32
989.932	149.94
990.096	51.91
990.26	42.8
990.424	17.42
990.588	39.31
990.752	121.46
990.915	86.98
991.079	78.26
991.243	24.4
991.407	86.4
991.571	58.88
991.734	64.11
991.898	86.98
992.062	132.12
992.226	59.27
992.389	34.86
992.553	2.5
992.717	34.66
992.88	50.75
993.044	68.38
993.207	49.39
993.371	88.14
993.535	69.35
993.698	62.37
993.862	86.78
994.025	84.65
994.189	61.21
994.352	62.56
994.515	68.57
994.679	130.18
994.842	37.57
995.006	99.57
995.169	35.83
995.332	24.4
995.496	80.2
995.659	15.29
995.822	44.16
995.985	41.06
996.149	131.73
996.312	60.43
996.475	133.86
996.638	38.93
996.801	107.51
996.964	123.59
997.128	49.2
997.291	49.58
997.454	55.4
997.617	8.12
997.78	73.8
997.943	34.86
998.106	83.68
998.269	24.98
998.432	56.56
998.595	49
998.758	22.46
998.92	41.64
999.083	17.23
999.246	46.68
999.409	19.16
999.572	0.95
999.735	30.21
999.897	76.51
1000.06	39.51
1000.223	34.08
1000.386	67.02
1000.548	51.13
1000.711	75.93
1000.874	47.26
1001.036	42.03
1001.199	75.35
1001.361	32.15
1001.524	55.59
1001.687	54.81
1001.849	4.83
1002.012	57.53
1002.174	69.73
1002.337	55.4
1002.499	44.93
1002.661	73.8
1002.824	12.38
1002.986	19.55
1003.149	53.65
1003.311	22.85
1003.473	105.58
1003.636	29.43
1003.798	59.08
1003.96	69.73
1004.123	24.59
1004.285	20.71
1004.447	50.16
1004.609	12.77
1004.771	99.18
1004.933	35.44
1005.096	3.67
1005.258	0.95
1005.42	23.62
1005.582	68.38
1005.744	58.11
1005.906	-1.95
1006.068	48.81
1006.23	-1.57
1006.392	1.73
1006.554	4.63
1006.716	84.26
1006.878	38.93
1007.04	16.45
1007.202	42.61
1007.363	58.88
1007.525	53.46
1007.687	65.47
1007.849	101.31
1008.011	-1.95
1008.172	6.57
1008.334	21.68
1008.496	42.8
1008.658	7.35
1008.819	-7.77
1008.981	-4.67
1009.143	-4.08
1009.304	22.07
1009.466	59.46
1009.627	86.01
1009.789	119.53
1009.95	54.62
1010.112	30.79
1010.273	71.67
1010.435	13.74
1010.596	38.35
1010.758	22.07
1010.919	26.72
1011.081	1.53
1011.242	19.94
1011.403	58.88
1011.565	47.84
1011.726	54.04
1011.887	3.08
1012.049	21.68
1012.21	78.45
1012.371	95.5
1012.532	-17.07
1012.693	3.08
1012.855	19.55
1013.016	24.78
1013.177	69.73
1013.338	13.55
1013.499	79.81
1013.66	41.45
1013.821	31.76
1013.982	48.81
1014.143	39.9
1014.304	7.93
1014.465	44.55
1014.626	44.35
1014.787	8.51
1014.948	125.73
1015.109	-15.9
1015.27	74.19
1015.431	5.22
1015.592	38.73
1015.752	69.93
1015.913	54.62
1016.074	58.3
1016.235	19.36
1016.395	46.29
1016.556	15.29
1016.717	11.8
1016.877	62.37
1017.038	8.7
1017.199	22.65
1017.359	40.86
1017.52	47.45
1017.681	25.36
1017.841	32.92
1018.002	19.16
1018.162	6.18
1018.323	65.47
1018.483	47.65
1018.644	-7.38
1018.804	-15.52
1018.964	2.12
1019.125	-7.18
1019.285	30.4
1019.446	9.67
1019.606	-0.02
1019.766	-19.78
1019.926	50.75
1020.087	47.06
1020.247	-14.74
1020.407	58.11
1020.567	48.23
1020.728	24.59
1020.888	-3.12
1021.048	2.5
1021.208	-13
1021.368	-3.89
1021.528	68.38
1021.688	25.17
1021.848	60.24
1022.008	51.52
1022.168	1.73
1022.328	43.19
1022.488	13.55
1022.648	6.18
1022.808	38.73
1022.968	34.08
1023.128	-16.29
1023.288	19.75
1023.448	-9.9
1023.608	43
1023.767	58.3
1023.927	24.2
1024.087	-14.55
1024.247	-3.5
1024.406	-5.63
1024.566	-11.06
1024.726	-13
1024.885	12.19
1025.045	48.61
1025.205	13.55
1025.364	26.72
1025.524	41.45
1025.683	-12.8
1025.843	30.4
1026.003	20.33
1026.162	66.25
1026.321	47.26
1026.481	35.05
1026.64	12.96
1026.8	47.45
1026.959	11.61
1027.119	17.61
1027.278	4.25
1027.437	-20.75
1027.597	0.37
1027.756	11.61
1027.915	15.68
1028.074	37.76
1028.234	-0.4
1028.393	27.3
1028.552	14.51
1028.711	-44.58
1028.87	39.51
1029.03	-39.54
1029.189	23.81
1029.348	-40.32
1029.507	-15.52
1029.666	24.98
1029.825	-11.25
1029.984	-8.35
1030.143	22.46
1030.302	0.76
1030.461	-31.02
1030.62	2.5
1030.779	42.22
1030.938	-6.6
1031.097	-20.17
1031.255	47.84
1031.414	62.56
1031.573	60.82
1031.732	-31.6
1031.891	9.09
1032.049	41.25
1032.208	17.61
1032.367	-7.38
1032.525	-13.19
1032.684	7.35
1032.843	35.05
1033.001	-23.07
1033.16	145.49
1033.319	59.85
1033.477	48.42
1033.636	22.85
1033.794	-65.7
1033.953	39.51
1034.111	30.98
1034.27	9.09
1034.428	42.03
1034.587	-50
1034.745	20.91
1034.903	14.32
1035.062	45.51
1035.22	-44
1035.378	34.28
1035.537	-32.18
1035.695	36.99
1035.853	-6.22
1036.011	37.57
1036.17	30.98
1036.328	-43.03
1036.486	17.81
1036.644	15.1
1036.802	-64.92
1036.96	-2.73
1037.119	18.58
1037.277	-9.51
1037.435	-32.37
1037.593	-18.81
1037.751	-0.21
1037.909	34.86
1038.067	34.86
