Data from oakcork_FLMT105791__182__17-31-55-057.txt Node

Date: Mon Mar 20 17:31:55 GMT 2023
User: antho
Spectrometer: FLMT10579
Trigger mode: 0
Integration Time (sec): 1.000000E-1
Scans to average: 10
Electric dark correction enabled: true
Nonlinearity correction enabled: false
Boxcar width: 0
XAxis mode: Wavelengths
Number of Pixels in Spectrum: 3648
>>>>>Begin Spectral Data<<<<<
345.248	-161.42
345.464	-161.42
345.681	-161.42
345.898	-185.25
346.114	-158.32
346.331	-26.58
346.548	21.47
346.764	-9.72
346.981	-3.52
347.197	-24.44
347.414	24.57
347.631	-8.56
347.847	55.57
348.064	-3.52
348.28	17.79
348.497	-43.43
348.713	0.36
348.93	19.92
349.146	21.67
349.363	9.66
349.579	2.68
349.796	-10.3
350.012	-5.07
350.229	11.4
350.445	-19.41
350.661	-38.78
350.878	-19.41
351.094	-21.73
351.311	28.06
351.527	16.82
351.743	-4.88
351.96	31.16
352.176	16.82
352.392	-2.74
352.609	30
352.825	-9.14
353.041	-10.11
353.257	-12.24
353.474	27.09
353.69	13.72
353.906	0.36
354.122	-33.36
354.339	38.14
354.555	2.87
354.771	10.82
354.987	52.09
355.203	33.87
355.42	-10.88
355.636	-21.15
355.852	-24.83
356.068	-16.5
356.284	-30.45
356.5	21.86
356.716	31.35
356.932	1.13
357.148	20.31
357.364	17.79
357.58	32.52
357.796	54.22
358.012	30.97
358.228	24.57
358.444	-57.58
358.66	74.56
358.876	23.22
359.092	-41.11
359.308	7.91
359.524	41.04
359.74	-4.68
359.956	-22.89
360.172	2.29
360.388	22.44
360.604	-30.45
360.819	77.66
361.035	-4.29
361.251	25.35
361.467	-33.55
361.683	39.69
361.898	9.27
362.114	33.29
362.33	8.88
362.546	25.35
362.762	-7.39
362.977	-0.61
363.193	-26.19
363.409	36.2
363.624	-26.58
363.84	-18.83
364.056	-5.84
364.271	3.84
364.487	22.44
364.703	-16.5
364.918	-19.02
365.134	-0.03
365.35	-16.5
365.565	85.8
365.781	22.44
365.996	21.28
366.212	63.52
366.427	36.2
366.643	-1
366.858	11.01
367.074	-17.28
367.289	52.47
367.505	77.08
367.72	-25.41
367.936	-5.84
368.151	37.75
368.367	54.22
368.582	18.95
368.798	-24.25
369.013	59.84
369.228	6.36
369.444	2.87
369.659	67
369.874	10.43
370.09	67
370.305	-33.94
370.52	16.24
370.736	72.24
370.951	12.95
371.166	44.72
371.381	76.5
371.597	40.85
371.812	-25.61
372.027	3.46
372.242	17.6
372.458	62.35
372.673	-28.13
372.888	17.6
373.103	61
373.318	84.83
373.533	36.78
373.749	0.16
373.964	-20.76
374.179	42.59
374.394	4.81
374.609	64.49
374.824	3.65
375.039	58.67
375.254	1.91
375.469	51.7
375.684	18.18
375.899	50.92
376.114	9.27
376.329	34.84
376.544	54.41
376.759	49.76
376.974	-7.78
377.189	-4.68
377.404	6.75
377.619	44.14
377.834	-19.99
378.049	-27.74
378.264	-44.01
378.478	25.93
378.693	-21.93
378.908	25.93
379.123	-5.07
379.338	50.34
379.553	38.14
379.767	-11.66
379.982	28.84
380.197	44.14
380.412	21.09
380.626	13.34
380.841	72.62
381.056	33.29
381.271	74.75
381.485	-19.99
381.7	-15.14
381.915	28.84
382.129	-20.18
382.344	35.62
382.559	31.16
382.773	41.04
382.988	-23.86
383.202	19.92
383.417	11.21
383.632	101.69
383.846	13.53
384.061	41.62
384.275	19.15
384.49	27.09
384.704	13.72
384.919	42.01
385.133	0.55
385.348	27.87
385.562	-4.88
385.777	61.77
385.991	3.26
386.206	11.59
386.42	18.57
386.634	60.61
386.849	15.66
387.063	23.99
387.277	-11.66
387.492	14.69
387.706	-20.76
387.92	-6.62
388.135	56.15
388.349	30.97
388.563	16.05
388.778	18.76
388.992	39.49
389.206	35.62
389.42	80.57
389.635	8.11
389.849	58.67
390.063	39.3
390.277	35.62
390.491	108.85
390.706	50.15
390.92	69.91
391.134	28.84
391.348	36.78
391.562	-25.03
391.776	19.73
391.99	9.85
392.205	50.15
392.419	3.26
392.633	29.03
392.847	59.64
393.061	5.2
393.275	64.87
393.489	11.4
393.703	20.5
393.917	45.11
394.131	-10.69
394.345	15.08
394.559	80.76
394.773	5.59
394.986	29.03
395.2	8.3
395.414	45.3
395.628	28.84
395.842	22.25
396.056	18.76
396.27	-22.51
396.484	30
396.697	43.95
396.911	57.32
397.125	54.02
397.339	70.3
397.553	52.86
397.766	110.02
397.98	57.51
398.194	69.91
398.408	-10.69
398.621	54.6
398.835	85.22
399.049	61.58
399.262	83.28
399.476	49.18
399.69	78.24
399.903	93.35
400.117	48.21
400.331	48.21
400.544	18.57
400.758	146.63
400.971	53.25
401.185	67
401.398	8.49
401.612	79.79
401.826	66.62
402.039	38.33
402.253	20.7
402.466	48.99
402.68	22.83
402.893	36.78
403.106	34.65
403.32	40.85
403.533	76.89
403.747	51.31
403.96	51.5
404.174	61.58
404.387	14.69
404.6	41.04
404.814	84.64
405.027	45.89
405.24	68.17
405.454	30.58
405.667	72.82
405.88	-16.31
406.094	67.2
406.307	73.4
406.52	48.4
406.733	29.8
406.947	7.14
407.16	117.57
407.373	95.29
407.586	30.77
407.799	1.52
408.012	78.05
408.226	66.81
408.439	111.57
408.652	16.05
408.865	32.32
409.078	82.7
409.291	66.62
409.504	26.12
409.717	60.22
409.93	71.27
410.143	69.52
410.357	0.16
410.57	29.8
410.783	43.56
410.996	56.35
411.209	46.47
411.421	84.64
411.634	53.44
411.847	27.67
412.06	47.63
412.273	58.48
412.486	42.79
412.699	157.48
412.912	57.7
413.125	60.8
413.338	50.34
413.55	93.35
413.763	70.69
413.976	74.95
414.189	51.12
414.402	54.99
414.615	93.74
414.827	39.1
415.04	78.63
415.253	72.43
415.466	82.5
415.678	145.67
415.891	42.98
416.104	68.17
416.316	48.6
416.529	46.27
416.742	68.75
416.954	125.9
417.167	49.18
417.38	40.07
417.592	112.34
417.805	36.97
418.017	18.76
418.23	72.82
418.442	54.02
418.655	50.92
418.868	73.2
419.08	84.25
419.293	85.8
419.505	70.1
419.718	93.35
419.93	88.32
420.142	50.73
420.355	115.83
420.567	134.04
420.78	77.85
420.992	72.62
421.205	107.88
421.417	15.66
421.629	65.65
421.842	48.99
422.054	36.39
422.266	86.77
422.479	93.94
422.691	18.95
422.903	92.97
423.115	26.32
423.328	53.83
423.54	71.65
423.752	75.14
423.964	33.68
424.177	102.27
424.389	45.89
424.601	154.77
424.813	89.87
425.025	125.13
425.238	86.38
425.45	72.43
425.662	44.72
425.874	348.52
426.086	79.21
426.298	96.45
426.51	96.84
426.722	71.07
426.934	70.3
427.146	99.55
427.358	57.7
427.57	85.99
427.782	74.17
427.994	92.58
428.206	61.19
428.418	25.54
428.63	89.48
428.842	118.15
429.054	62.94
429.266	92.39
429.478	32.9
429.69	70.3
429.902	49.37
430.114	96.07
430.325	85.41
430.537	71.46
430.749	69.52
430.961	20.31
431.173	69.52
431.384	89.87
431.596	11.01
431.808	67.39
432.02	86.57
432.231	112.15
432.443	117.96
432.655	99.55
432.867	56.15
433.078	88.9
433.29	156.9
433.502	106.92
433.713	138.11
433.925	115.63
434.136	134.82
434.348	42.2
434.56	40.27
434.771	170.47
434.983	52.28
435.194	58.48
435.406	56.35
435.617	126.29
435.829	130.94
436.04	121.45
436.252	101.88
436.463	149.35
436.675	118.73
436.886	114.67
437.098	119.12
437.309	146.63
437.521	97.04
437.732	125.13
437.943	90.25
438.155	114.28
438.366	46.47
438.578	151.28
438.789	108.85
439	98.59
439.211	82.31
439.423	122.03
439.634	132.88
439.845	144.89
440.057	107.11
440.268	130.94
440.479	75.14
440.69	90.64
440.902	97.23
441.113	92.77
441.324	87.93
441.535	137.14
441.746	172.79
441.957	87.93
442.168	98.97
442.38	113.7
442.591	138.88
442.802	61.39
443.013	87.15
443.224	107.88
443.435	114.28
443.646	117.96
443.857	101.49
444.068	78.63
444.279	121.83
444.49	164.46
444.701	134.62
444.912	188.68
445.123	122.03
445.334	136.56
445.545	137.92
445.756	123.77
445.967	99.55
446.178	141.79
446.388	143.92
446.599	166.2
446.81	138.88
447.021	101.3
447.232	154.38
447.443	181.32
447.653	102.46
447.864	141.79
448.075	106.72
448.286	149.73
448.496	110.98
448.707	160.39
448.918	94.9
449.129	207.47
449.339	124.55
449.55	151.67
449.761	113.31
449.971	185.97
450.182	125.13
450.393	145.86
450.603	118.35
450.814	173.57
451.024	134.43
451.235	161.17
451.446	202.82
451.656	154.58
451.867	97.81
452.077	170.27
452.288	206.5
452.498	203.6
452.709	152.45
452.919	172.79
453.13	136.95
453.34	184.61
453.55	116.8
453.761	165.43
453.971	172.98
454.182	181.51
454.392	182.48
454.602	232.66
454.813	186.16
455.023	183.64
455.233	128.42
455.444	153.42
455.654	74.56
455.864	153.22
456.075	153.22
456.285	135.2
456.495	159.42
456.705	157.68
456.916	166.2
457.126	220.45
457.336	147.6
457.546	88.32
457.756	144.89
457.967	215.8
458.177	161.75
458.387	155.16
458.597	152.25
458.807	173.57
459.017	146.05
459.227	160.78
459.437	146.44
459.647	176.28
459.857	175.5
460.068	143.53
460.278	186.55
460.488	169.3
460.698	248.93
460.908	167.95
461.117	104.59
461.327	139.27
461.537	186.74
461.747	186.16
461.957	177.05
462.167	270.05
462.377	197.59
462.587	169.69
462.797	193.13
463.007	169.11
463.216	163.49
463.426	205.92
463.636	205.92
463.846	130.55
464.056	158.07
464.265	230.53
464.475	129.78
464.685	191.97
464.895	192.75
465.104	191
465.314	188.68
465.524	163.88
465.733	163.1
465.943	249.13
466.153	221.81
466.362	221.42
466.572	174.92
466.782	165.82
466.991	193.13
467.201	216.96
467.41	160.97
467.62	194.68
467.829	154.58
468.039	213.86
468.249	198.36
468.458	178.99
468.668	232.27
468.877	240.8
469.086	210.38
469.296	202.43
469.505	168.72
469.715	283.23
469.924	211.35
470.134	258.23
470.343	198.75
470.552	183.25
470.762	176.08
470.971	164.85
471.18	213.28
471.39	197.4
471.599	152.25
471.808	214.06
472.018	174.53
472.227	218.51
472.436	231.3
472.645	202.05
472.855	181.51
473.064	246.41
473.273	209.41
473.482	233.05
473.691	227.04
473.901	242.54
474.11	229.36
474.319	281.29
474.528	201.85
474.737	253.78
474.946	217.74
475.155	219.87
475.364	242.15
475.573	220.65
475.783	240.41
475.992	265.4
476.201	256.3
476.41	218.51
476.619	188.29
476.828	258.04
477.037	222.58
477.245	248.74
477.454	247
477.663	200.3
477.872	235.95
478.081	309.19
478.29	203.79
478.499	301.63
478.708	254.75
478.917	292.53
479.125	243.31
479.334	260.36
479.543	237.11
479.752	262.11
479.961	266.95
480.169	253.2
480.378	243.31
480.587	362.66
480.796	296.79
481.004	249.32
481.213	275.48
481.422	287.68
481.63	257.85
481.839	300.28
482.048	310.16
482.256	293.49
482.465	296.79
482.674	307.44
482.882	333.6
483.091	340.77
483.299	297.76
483.508	303.38
483.716	303.57
483.925	294.66
484.134	258.04
484.342	285.36
484.551	314.23
484.759	324.49
484.967	319.07
485.176	324.69
485.384	333.41
485.593	335.73
485.801	323.91
486.01	305.89
486.218	297.56
486.426	223.94
486.635	282.45
486.843	277.03
487.051	305.7
487.26	293.3
487.468	307.83
487.676	326.82
487.885	304.15
488.093	312.29
488.301	315.78
488.509	313.45
488.717	337.86
488.926	294.46
489.134	288.84
489.342	323.72
489.55	307.64
489.758	306.48
489.967	315.78
490.175	400.25
490.383	320.43
490.591	378.16
490.799	286.91
491.007	371.19
491.215	336.89
491.423	324.69
491.631	330.11
491.839	332.83
492.047	373.32
492.255	284.58
492.463	307.64
492.671	331.86
492.879	376.42
493.087	332.05
493.295	368.09
493.503	368.86
493.711	355.11
493.919	415.17
494.127	367.7
494.334	407.81
494.542	358.59
494.75	357.63
494.958	359.95
495.166	425.44
495.374	379.91
495.581	377.39
495.789	367.51
495.997	436.87
496.205	387.85
496.412	369.44
496.62	379.91
496.828	397.73
497.035	371.96
497.243	398.31
497.451	383.59
497.658	391.72
497.866	403.16
498.074	451.59
498.281	366.34
498.489	471.74
498.696	393.27
498.904	367.7
499.112	392.11
499.319	446.75
499.527	367.51
499.734	432.61
499.942	342.71
500.149	383.59
500.357	391.53
500.564	361.5
500.771	405.29
500.979	405.29
501.186	356.08
501.394	403.54
501.601	382.62
501.808	427.57
502.016	391.14
502.223	406.06
502.43	426.41
502.638	402.38
502.845	360.14
503.052	451.4
503.26	395.79
503.467	453.53
503.674	394.24
503.881	398.31
504.089	499.25
504.296	442.29
504.503	370.22
504.71	427.57
504.917	383.2
505.125	458.95
505.332	445.2
505.539	451.21
505.746	484.72
505.953	486.85
506.16	428.73
506.367	510.1
506.574	490.54
506.781	472.13
506.988	464.19
507.195	486.66
507.402	442.68
507.609	485.3
507.816	431.64
508.023	451.79
508.23	439.19
508.437	420.59
508.644	499.06
508.851	531.22
509.058	511.27
509.265	496.35
509.472	476
509.679	567.65
509.885	465.15
510.092	495.77
510.299	477.55
510.506	523.28
510.713	484.34
510.92	456.24
511.126	512.04
511.333	556.41
511.54	547.69
511.746	537.04
511.953	551.37
512.16	553.89
512.367	488.21
512.573	513.98
512.78	518.82
512.987	511.27
513.193	514.56
513.4	483.37
513.606	511.46
513.813	544.4
514.02	507
514.226	580.63
514.433	561.64
514.639	511.85
514.846	527.54
515.052	519.21
515.259	512.82
515.465	546.72
515.672	542.46
515.878	597.87
516.085	534.71
516.291	575.2
516.497	508.75
516.704	550.21
516.91	480.85
517.117	508.17
517.323	474.84
517.529	526.38
517.736	522.12
517.942	543.82
518.148	527.15
518.354	552.92
518.561	548.66
518.767	563.58
518.973	573.27
519.179	613.18
519.386	546.72
519.592	548.85
519.798	560.87
520.004	602.33
520.21	569.97
520.417	609.3
520.623	631.97
520.829	633.33
521.035	636.62
521.241	662.2
521.447	638.75
521.653	712.76
521.859	637.59
522.065	682.54
522.271	743.18
522.477	681.18
522.683	695.91
522.889	706.95
523.095	677.5
523.301	671.5
523.507	657.74
523.713	688.74
523.919	678.28
524.125	730.01
524.331	717.22
524.537	756.55
524.742	727.1
524.948	736.21
525.154	754.61
525.36	815.06
525.566	777.86
525.772	804.41
525.977	707.53
526.183	773.21
526.389	808.09
526.595	741.24
526.8	733.69
527.006	705.79
527.212	700.75
527.417	702.3
527.623	700.36
527.829	753.26
528.034	753.26
528.24	796.66
528.446	730.2
528.651	795.3
528.857	802.66
529.062	845.48
529.268	820.1
529.473	802.86
529.679	788.91
529.884	878.81
530.09	849.55
530.295	889.46
530.501	841.8
530.706	848.58
530.912	824.75
531.117	831.53
531.323	842.38
531.528	879.58
531.733	875.51
531.939	875.71
532.144	878.03
532.35	842.57
532.555	870.47
532.76	888.69
532.966	879.39
533.171	903.41
533.376	826.69
533.581	814.29
533.787	855.94
533.992	872.8
534.197	941.58
534.402	884.81
534.607	875.12
534.813	958.05
535.018	868.92
535.223	872.41
535.428	882.29
535.633	961.15
535.838	916
536.043	922.79
536.249	992.53
536.454	926.08
536.659	931.5
536.864	938.09
537.069	930.15
537.274	968.9
537.479	929.57
537.684	945.45
537.889	894.69
538.094	1009.78
538.299	944.1
538.504	953.59
538.708	944.1
538.913	960.76
539.118	948.17
539.323	971.22
539.528	947.39
539.733	952.43
539.938	979.36
540.142	978
540.347	968.51
540.552	914.65
540.757	957.85
540.962	961.34
541.166	908.84
541.371	918.14
541.576	932.86
541.781	872.02
541.985	950.49
542.19	975.1
542.395	965.02
542.599	1012.88
542.804	989.05
543.008	1018.69
543.213	954.95
543.418	943.9
543.622	1000.87
543.827	960.57
544.031	1029.35
544.236	993.5
544.44	971.42
544.645	1047.37
544.849	989.82
545.054	1025.67
545.258	1062.87
545.463	1082.43
545.667	999.7
545.872	1001.45
546.076	1021.98
546.281	991.18
546.485	965.8
546.689	1053.57
546.894	1034.97
547.098	1041.55
547.302	977.62
547.507	1034
547.711	1026.25
547.915	1045.23
548.119	1013.65
548.324	993.7
548.528	1082.05
548.732	1024.5
548.936	1054.34
549.141	1047.56
549.345	1038.26
549.549	1007.45
549.753	1045.43
549.957	1063.25
550.161	1094.25
550.366	1016.56
550.57	1011.72
550.774	1033.03
550.978	1024.12
551.182	1080.11
551.386	1009.39
551.59	1056.47
551.794	1035.74
551.998	1068.1
552.202	1003.77
552.406	1000.67
552.61	1078.95
552.814	1042.72
553.018	1087.28
553.222	1054.73
553.426	1049.11
553.63	1122.54
553.833	1022.37
554.037	1005.13
554.241	1067.32
554.445	1073.13
554.649	1044.65
554.853	1033.22
555.056	1048.14
555.26	1075.26
555.464	1034
555.668	1056.86
555.871	1072.16
556.075	1081.66
556.279	1000.28
556.483	997.18
556.686	1032.25
556.89	1025.86
557.094	1028.38
557.297	997.18
557.501	1053.37
557.704	974.32
557.908	1043.3
558.112	983.43
558.315	1075.07
558.519	990.98
558.722	967.74
558.926	1010.55
559.129	960.57
559.333	955.53
559.536	928.21
559.74	957.08
559.943	943.13
560.147	950.69
560.35	959.4
560.553	948.17
560.757	931.89
560.96	1027.02
561.164	976.26
561.367	1016.37
561.57	969.67
561.774	970.06
561.977	949.33
562.18	986.72
562.384	1015.98
562.587	952.62
562.79	990.79
562.993	957.85
563.197	997.57
563.4	1016.56
563.603	990.21
563.806	1037.1
564.009	926.27
564.212	986.92
564.416	889.27
564.619	965.99
564.822	918.33
565.025	1007.07
565.228	886.75
565.431	940.22
565.634	856.52
565.837	904.77
566.04	884.23
566.243	916.78
566.446	807.89
566.649	909.03
566.852	849.16
567.055	851.1
567.258	939.45
567.461	940.03
567.664	930.73
567.867	824.36
568.07	908.84
568.273	890.82
568.475	940.42
568.678	877.84
568.881	870.47
569.084	872.8
569.287	784.64
569.489	840.44
569.692	897.6
569.895	906.51
570.098	818.55
570.3	773.21
570.503	770.5
570.706	801.89
570.909	780.77
571.111	736.59
571.314	768.95
571.516	804.21
571.719	803.05
571.922	785.61
572.124	770.11
572.327	811.38
572.529	733.3
572.732	728.84
572.935	819.32
573.137	810.61
573.34	758.1
573.542	804.99
573.745	772.44
573.947	795.69
574.15	747.44
574.352	739.11
574.554	798.01
574.757	751.32
574.959	717.99
575.162	734.66
575.364	742.6
575.566	828.24
575.769	691.26
575.971	733.3
576.173	651.93
576.376	732.33
576.578	750.54
576.78	806.54
576.982	646.7
577.185	696.88
577.387	697.26
577.589	682.93
577.791	750.35
577.993	721.48
578.196	705.01
578.398	723.42
578.6	741.83
578.802	691.26
579.004	676.53
579.206	678.08
579.408	730.98
579.61	668.98
579.812	739.11
580.014	683.7
580.216	704.82
580.418	681.57
580.62	650.18
580.822	640.5
581.024	652.7
581.226	731.17
581.428	688.16
581.63	756.16
581.832	667.23
582.034	740.28
582.236	712.96
582.438	708.11
582.64	755.97
582.841	766.63
583.043	781.74
583.245	715.48
583.447	737.76
583.649	670.14
583.85	683.7
584.052	754.61
584.254	672.08
584.456	714.12
584.657	684.86
584.859	668.59
585.061	684.09
585.262	680.8
585.464	649.21
585.666	712.57
585.867	659.1
586.069	716.44
586.27	699.01
586.472	697.26
586.674	660.45
586.875	688.74
587.077	680.6
587.278	684.09
587.48	659.87
587.681	766.24
587.883	657.35
588.084	612.6
588.285	631.58
588.487	643.4
588.688	649.41
588.89	593.42
589.091	607.56
589.292	608.33
589.494	589.15
589.695	567.07
589.896	518.44
590.098	537.23
590.299	569.58
590.5	555.05
590.702	583.92
590.903	592.25
591.104	608.14
591.305	598.45
591.507	658.32
591.708	618.8
591.909	622.87
592.11	690.87
592.311	594
592.512	615.31
592.714	531.42
592.915	585.08
593.116	575.4
593.317	608.14
593.518	608.53
593.719	596.32
593.92	593.22
594.121	635.65
594.322	602.52
594.523	594.38
594.724	558.54
594.925	579.08
595.126	624.03
595.327	606.2
595.528	619.57
595.729	610.85
595.929	601.94
596.13	615.12
596.331	592.83
596.532	602.52
596.733	621.9
596.934	629.84
597.135	632.94
597.335	630.03
597.536	565.71
597.737	590.51
597.938	554.67
598.138	597.1
598.339	594.97
598.54	590.12
598.74	588.18
598.941	594
599.142	657.55
599.342	606.2
599.543	580.24
599.744	586.63
599.944	566.68
600.145	566.48
600.345	638.56
600.546	676.73
600.746	622.48
600.947	691.06
601.147	609.69
601.348	650.76
601.548	563.58
601.749	616.86
601.949	554.28
602.15	584.5
602.35	560.48
602.551	622.67
602.751	545.75
602.951	574.43
603.152	521.54
603.352	591.09
603.552	569.2
603.753	600
603.953	603.1
604.153	636.23
604.354	579.27
604.554	545.37
604.754	587.41
604.954	547.5
605.155	615.89
605.355	582.57
605.555	604.46
605.755	622.67
605.955	611.43
606.155	601.17
606.356	575.01
606.556	601.75
606.756	600
606.956	520.18
607.156	635.85
607.356	545.17
607.556	589.35
607.756	584.7
607.956	617.44
608.156	591.48
608.356	545.17
608.556	576.56
608.756	598.45
608.956	559.9
609.156	553.31
609.356	547.5
609.556	534.32
609.755	582.95
609.955	547.88
610.155	584.5
610.355	564.74
610.555	545.75
610.755	564.16
610.954	491.31
611.154	562.22
611.354	583.73
611.554	508.36
611.753	566.68
611.953	519.4
612.153	580.82
612.352	575.59
612.552	496.93
612.752	478.52
612.951	538
613.151	522.7
613.351	506.04
613.55	542.46
613.75	546.92
613.949	528.9
614.149	539.94
614.348	515.72
614.548	509.72
614.747	499.06
614.947	484.14
615.146	460.12
615.346	531.8
615.545	525.22
615.745	518.63
615.944	564.16
616.144	527.15
616.343	541.3
616.542	483.95
616.742	519.21
616.941	513.4
617.14	439
617.34	513.4
617.539	489.57
617.738	490.54
617.938	563.97
618.137	475.23
618.336	468.45
618.535	506.23
618.734	466.7
618.934	515.53
619.133	480.65
619.332	486.08
619.531	463.02
619.73	479.49
619.929	520.37
620.128	510.69
620.328	562.42
620.527	481.24
620.726	452.37
620.925	543.62
621.124	481.04
621.323	518.05
621.522	428.15
621.721	482.01
621.92	477.94
622.119	511.07
622.318	437.26
622.517	459.92
622.715	465.74
622.914	410.71
623.113	453.72
623.312	460.12
623.511	466.51
623.71	454.89
623.909	440.36
624.107	518.44
624.306	434.93
624.505	421.17
624.704	456.44
624.902	464.57
625.101	505.45
625.3	452.75
625.499	432.99
625.697	430.67
625.896	412.26
626.095	483.37
626.293	400.06
626.492	421.17
626.69	474.07
626.889	420.59
627.088	475.04
627.286	400.83
627.485	411.87
627.683	419.04
627.882	456.82
628.08	374.67
628.279	398.31
628.477	482.4
628.676	400.83
628.874	430.67
629.073	436.67
629.271	403.16
629.469	425.24
629.668	398.89
629.866	416.72
630.065	390.56
630.263	413.23
630.461	397.92
630.66	441.32
630.858	449.46
631.056	438.22
631.254	470.77
631.453	387.85
631.651	452.95
631.849	410.52
632.047	474.07
632.245	427.18
632.444	459.92
632.642	456.63
632.84	441.32
633.038	420.98
633.236	396.57
633.434	381.26
633.632	379.71
633.83	386.3
634.028	453.92
634.227	436.29
634.425	478.33
634.623	421.95
634.821	434.54
635.019	402.57
635.216	411.29
635.414	436.29
635.612	450.62
635.81	417.69
636.008	483.56
636.206	388.04
636.404	448.11
636.602	378.74
636.8	419.82
636.997	425.05
637.195	441.13
637.393	399.67
637.591	498.67
637.789	420.79
637.986	409.74
638.184	421.37
638.382	457.4
638.58	448.69
638.777	470.19
638.975	410.91
639.173	438.81
639.37	437.64
639.568	460.89
639.765	445.39
639.963	414.2
640.161	460.5
640.358	438.61
640.556	393.08
640.753	372.16
640.951	402.77
641.148	437.06
641.346	390.76
641.543	408.77
641.741	423.89
641.938	404.51
642.136	407.03
642.333	401.41
642.531	458.57
642.728	470.97
642.925	441.13
643.123	384.75
643.32	414.2
643.517	403.16
643.715	406.45
643.912	381.26
644.109	406.84
644.306	393.08
644.504	357.24
644.701	410.91
644.898	438.42
645.095	378.55
645.293	388.04
645.49	415.56
645.687	412.65
645.884	408.97
646.081	344.45
646.278	374.48
646.475	351.62
646.672	356.85
646.87	391.14
647.067	383.59
647.264	401.61
647.461	349.29
647.658	328.76
647.855	391.72
648.052	359.56
648.249	294.85
648.446	359.37
648.642	352.39
648.839	341.74
649.036	323.33
649.233	315.78
649.43	287.1
649.627	352.98
649.824	354.53
650.021	337.86
650.217	337.48
650.414	316.36
650.611	381.46
650.808	359.95
651.004	359.95
651.201	375.84
651.398	370.22
651.595	357.43
651.791	359.18
651.988	396.57
652.185	314.81
652.381	361.31
652.578	299.69
652.775	353.94
652.971	354.33
653.168	355.3
653.364	363.05
653.561	287.29
653.757	321.98
653.954	350.84
654.15	309.96
654.347	382.04
654.543	354.53
654.74	299.31
654.936	312.09
655.133	358.01
655.329	340.38
655.525	353.94
655.722	363.63
655.918	303.18
656.115	342.51
656.311	287.49
656.507	262.3
656.704	264.43
656.9	289.04
657.096	268.89
657.292	275.86
657.489	298.14
657.685	324.11
657.881	301.05
658.077	303.76
658.273	326.43
658.47	354.33
658.666	308.03
658.862	312.09
659.058	292.33
659.254	347.74
659.45	295.24
659.646	319.65
659.842	308.41
660.038	339.99
660.234	253
660.43	269.08
660.626	336.89
660.822	329.14
661.018	316.74
661.214	317.71
661.41	271.99
661.606	300.47
661.802	326.04
661.998	310.54
662.194	290.59
662.39	339.22
662.586	320.81
662.781	322.56
662.977	311.51
663.173	324.3
663.369	296.79
663.564	300.08
663.76	366.73
663.956	310.54
664.152	353.56
664.347	285.74
664.543	299.89
664.739	288.46
664.934	251.84
665.13	246.61
665.326	324.3
665.521	319.46
665.717	274.12
665.912	252.61
666.108	226.85
666.304	287.29
666.499	284.58
666.695	237.89
666.89	252.03
667.086	310.16
667.281	319.46
667.477	321.2
667.672	278.77
667.867	288.84
668.063	299.31
668.258	234.6
668.454	275.86
668.649	309.58
668.844	291.94
669.04	295.63
669.235	261.33
669.43	255.91
669.626	212.51
669.821	270.63
670.016	227.04
670.211	242.15
670.407	222.78
670.602	297.95
670.797	290.01
670.992	267.92
671.187	233.63
671.382	301.05
671.578	284.58
671.773	301.63
671.968	211.15
672.163	240.6
672.358	276.06
672.553	228.2
672.748	254.36
672.943	318.29
673.138	258.04
673.333	288.26
673.528	238.86
673.723	280.9
673.918	243.12
674.113	211.54
674.308	334.57
674.503	293.49
674.698	281.48
674.892	290.59
675.087	273.73
675.282	281.87
675.477	248.74
675.672	257.46
675.867	256.88
676.061	232.27
676.256	239.44
676.451	226.46
676.646	269.66
676.84	228.2
677.035	224.52
677.23	241.38
677.424	280.51
677.619	294.27
677.814	300.66
678.008	268.11
678.203	216
678.397	231.88
678.592	254.75
678.787	300.28
678.981	260.95
679.176	259.4
679.37	275.86
679.565	242.15
679.759	243.31
679.954	270.05
680.148	314.81
680.342	300.08
680.537	285.74
680.731	238.47
680.926	284.19
681.12	277.8
681.314	232.85
681.509	253.78
681.703	261.14
681.897	283.23
682.092	244.86
682.286	219.68
682.48	321.98
682.674	279.54
682.869	251.26
683.063	264.05
683.257	339.03
683.451	250.29
683.645	258.43
683.839	238.86
684.034	268.31
684.228	307.25
684.422	234.6
684.616	229.17
684.81	248.55
685.004	294.08
685.198	255.33
685.392	310.16
685.586	243.9
685.78	297.76
685.974	268.89
686.168	300.66
686.362	308.41
686.556	240.99
686.75	241.38
686.944	226.85
687.138	287.29
687.331	192.75
687.525	269.47
687.719	191.97
687.913	245.83
688.107	243.12
688.301	218.32
688.494	242.93
688.688	182.09
688.882	189.07
689.076	198.17
689.269	216.38
689.463	303.96
689.657	230.91
689.85	250.1
690.044	235.76
690.238	214.06
690.431	231.11
690.625	248.93
690.818	250.68
691.012	239.44
691.205	267.53
691.399	207.47
691.593	256.68
691.786	290.59
691.98	307.25
692.173	324.3
692.366	268.89
692.56	317.71
692.753	343.48
692.947	255.91
693.14	318.68
693.333	304.73
693.527	271.02
693.72	321.01
693.914	277.61
694.107	302.21
694.3	333.6
694.493	322.94
694.687	345.61
694.88	324.3
695.073	351.23
695.266	352.39
695.46	315.78
695.653	372.93
695.846	382.23
696.039	309.77
696.232	323.33
696.425	363.63
696.618	376.22
696.812	404.12
697.005	446.17
697.198	478.72
697.391	414.01
697.584	460.7
697.777	473.87
697.97	466.9
698.163	469.61
698.356	429.51
698.549	575.98
698.742	464.57
698.935	474.26
699.127	513.01
699.32	457.6
699.513	456.24
699.706	499.06
699.899	496.35
700.092	468.84
700.285	519.4
700.477	479.69
700.67	512.62
700.863	546.92
701.056	591.09
701.248	550.98
701.441	578.3
701.634	546.14
701.826	663.94
702.019	541.1
702.212	616.28
702.404	564.93
702.597	553.89
702.79	594.97
702.982	628.87
703.175	642.24
703.367	651.93
703.56	643.21
703.752	720.9
703.945	690.87
704.137	700.56
704.33	734.08
704.522	739.5
704.715	706.37
704.907	763.72
705.1	776.51
705.292	787.94
705.484	754.81
705.677	785.03
705.869	781.93
706.061	809.64
706.254	868.73
706.446	817.97
706.638	836.37
706.831	869.12
707.023	818.36
707.215	943.13
707.407	916
707.599	893.92
707.792	946.62
707.984	916
708.176	951.46
708.368	926.47
708.56	977.62
708.752	939.45
708.944	949.33
709.136	994.47
709.329	961.15
709.521	1105.3
709.713	1044.65
709.905	1041.94
710.097	1057.25
710.289	1029.35
710.481	1079.14
710.672	1071.78
710.864	1106.65
711.056	1152.76
711.248	1150.44
711.44	1144.43
711.632	1123.31
711.824	1157.41
712.016	1191.9
712.207	1205.85
712.399	1208.76
712.591	1266.69
712.783	1238.79
712.975	1257
713.166	1228.71
713.358	1246.34
713.55	1298.07
713.741	1299.82
713.933	1308.73
714.125	1303.69
714.316	1297.3
714.508	1348.25
714.7	1384.49
714.891	1369.18
715.083	1421.88
715.274	1335.27
715.466	1391.46
715.657	1430.4
715.849	1335.66
716.04	1373.64
716.232	1352.52
716.423	1415.48
716.615	1329.27
716.806	1323.65
716.998	1329.85
717.189	1281.99
717.381	1205.85
717.572	1180.86
717.763	1224.06
717.955	1226.97
718.146	1191.9
718.337	1200.23
718.528	1138.23
718.72	1086.89
718.911	1143.66
719.102	1140.56
719.293	1186.48
719.485	1156.64
719.676	1149.08
719.867	1133
720.058	1149.66
720.249	1149.28
720.44	1174.85
720.632	1227.94
720.823	1228.13
721.014	1340.5
721.205	1372.86
721.396	1407.35
721.587	1471.67
721.778	1537.74
721.969	1532.31
722.16	1593.54
722.351	1599.35
722.542	1685.76
722.733	1699.52
722.924	1642.94
723.115	1669.68
723.305	1658.44
723.496	1678.98
723.687	1640.04
723.878	1613.49
724.069	1612.72
724.26	1622.79
724.45	1550.14
724.641	1584.43
724.832	1605.74
725.023	1616.01
725.213	1578.81
725.404	1615.82
725.595	1593.15
725.785	1606.33
725.976	1663.29
726.167	1659.41
726.357	1646.24
726.548	1723.93
726.739	1671.23
726.929	1807.82
727.12	1749.7
727.31	1803.95
727.501	1748.73
727.691	1781.67
727.882	1776.05
728.072	1822.74
728.263	1820.42
728.453	1860.52
728.644	1903.92
728.834	1850.64
729.024	1841.73
729.215	1832.82
729.405	1884.93
729.596	1980.84
729.786	1975.03
729.976	1992.08
730.167	1990.33
730.357	1967.66
730.547	1991.69
730.737	1997.7
730.928	2043.03
731.118	2110.26
731.308	2061.24
731.498	2070.93
731.688	2120.14
731.879	2132.54
732.069	2215.27
732.259	2221.09
732.449	2274.56
732.639	2352.06
732.829	2362.33
733.019	2390.42
733.209	2457.65
733.399	2459.98
733.589	2515.78
733.779	2546.19
733.969	2544.64
734.159	2606.84
734.349	2662.64
734.539	2700.03
734.729	2718.24
734.919	2695.38
735.109	2754.08
735.299	2711.65
735.488	2741.1
735.678	2806.98
735.868	2759.9
736.058	2749.24
736.248	2776.56
736.437	2733.93
736.627	2725.02
736.817	2859.29
737.007	2783.15
737.196	2847.28
737.386	2874.21
737.576	2822.09
737.765	2895.91
737.955	2902.11
738.144	2959.46
738.334	2940.66
738.524	2896.68
738.713	2973.6
738.903	2965.66
739.092	2995.49
739.282	2981.54
739.471	3003.05
739.661	2986.39
739.85	3064.47
740.04	3041.99
740.229	3085.97
740.419	3086.55
740.608	3117.75
740.797	3140.42
740.987	3190.02
741.176	3187.11
741.365	3113.29
741.555	3072.61
741.744	3217.92
741.933	3153.2
742.123	3218.5
742.312	3233.8
742.501	3227.99
742.69	3291.73
742.88	3185.37
743.069	3346.95
743.258	3259.57
743.447	3320.99
743.636	3313.24
743.825	3316.34
744.014	3326.61
744.204	3355.86
744.393	3264.61
744.582	3364.58
744.771	3400.04
744.96	3336.88
745.149	3393.64
745.338	3359.54
745.527	3445.57
745.716	3376.21
745.905	3333
746.094	3408.37
746.283	3425.22
746.471	3420.77
746.66	3449.06
746.849	3443.24
747.038	3492.46
747.227	3429.29
747.416	3443.24
747.604	3395.58
747.793	3413.41
747.982	3474.82
748.171	3465.91
748.359	3487.03
748.548	3427.16
748.737	3427.74
748.926	3440.53
749.114	3391.13
749.303	3474.63
749.491	3455.45
749.68	3372.91
749.869	3502.53
750.057	3450.8
750.246	3415.34
750.434	3444.21
750.623	3460.49
750.811	3431.62
751	3482.57
751.188	3445.18
751.377	3441.69
751.565	3443.24
751.754	3375.04
751.942	3382.79
752.131	3464.75
752.319	3376.4
752.507	3389.77
752.696	3487.03
752.884	3484.51
753.072	3423.48
753.261	3426.19
753.449	3433.56
753.637	3403.53
753.825	3553.29
754.014	3388.61
754.202	3433.17
754.39	3471.72
754.578	3462.04
754.766	3434.72
754.955	3419.61
755.143	3440.92
755.331	3406.63
755.519	3397.52
755.707	3418.64
755.895	3401.78
756.083	3425.81
756.271	3333.39
756.459	3369.04
756.647	3423.48
756.835	3404.69
757.023	3349.47
757.211	3339.01
757.399	3357.22
757.587	3308.2
757.775	3356.25
757.963	3301.03
758.151	3353.73
758.339	3330.29
758.526	3312.46
758.714	3336.88
758.902	3204.93
759.09	3129.95
759.278	2897.07
759.465	2695.19
759.653	2270.3
759.841	2113.94
760.028	1760.94
760.216	1568.16
760.404	1486.78
760.591	1195.97
760.779	1020.63
760.967	915.23
761.154	706.95
761.342	773.79
761.529	762.36
761.717	802.66
761.905	809.25
762.092	891.2
762.28	792.2
762.467	801.31
762.655	774.38
762.842	756.16
763.029	783.68
763.217	798.21
763.404	789.29
763.592	799.56
763.779	761.2
763.966	790.07
764.154	866.79
764.341	919.88
764.528	918.52
764.716	988.85
764.903	1015.2
765.09	1114.4
765.277	1160.13
765.465	1295.36
765.652	1362.59
765.839	1439.51
766.026	1579.2
766.213	1624.15
766.4	1725.09
766.588	1906.63
766.775	1929.11
766.962	2019.98
767.149	2093.79
767.336	2273.59
767.523	2222.83
767.71	2397.78
767.897	2490.59
768.084	2564.79
768.271	2583.59
768.458	2620.01
768.645	2685.11
768.832	2698.87
769.019	2746.53
769.206	2752.15
769.392	2876.73
769.579	2949.96
769.766	2912.18
769.953	2907.73
770.14	2962.94
770.327	2929.81
770.513	3024.36
770.7	3069.31
770.887	2971.28
771.073	2995.69
771.26	2997.62
771.447	2989.87
771.634	2964.88
771.82	3068.73
772.007	2984.06
772.193	3057.11
772.38	3085.39
772.567	3031.34
772.753	3011.38
772.94	3126.85
773.126	3047.42
773.313	3066.21
773.499	3066.99
773.686	3060.01
773.872	2979.03
774.059	3052.26
774.245	2986.19
774.432	2983.09
774.618	2925.55
774.804	3007.12
774.991	2963.14
775.177	2985.23
775.363	2958.49
775.55	3037.15
775.736	2947.44
775.922	2980.38
776.109	2984.84
776.295	2973.21
776.481	3006.92
776.667	3039.09
776.853	2978.25
777.04	2907.34
777.226	2982.32
777.412	3026.88
777.598	2942.79
777.784	2909.47
777.97	2890.68
778.156	2939.5
778.342	2933.49
778.528	2923.81
778.715	2839.14
778.901	2872.85
779.087	2925.74
779.272	2854.25
779.458	2856
779.644	2878.28
779.83	2890.48
780.016	2974.57
780.202	2855.03
780.388	2850.57
780.574	2812.21
780.76	2786.44
780.946	2835.65
781.131	2817.83
781.317	2832.36
781.503	2793.22
781.689	2782.37
781.874	2937.56
782.06	2789.35
782.246	2787.8
782.432	2832.16
782.617	2799.42
782.803	2851.93
782.989	2772.3
783.174	2771.33
783.36	2727.15
783.545	2711.85
783.731	2699.84
783.916	2660.31
784.102	2750.02
784.288	2695.38
784.473	2709.33
784.659	2694.22
784.844	2753.12
785.029	2688.99
785.215	2677.75
785.4	2633.19
785.586	2721.15
785.771	2600.64
785.956	2679.69
786.142	2620.21
786.327	2646.17
786.512	2653.92
786.698	2620.21
786.883	2563.05
787.068	2635.9
787.254	2628.15
787.439	2581.84
787.624	2588.43
787.809	2559.17
787.994	2605.67
788.18	2628.15
788.365	2502.21
788.55	2515.39
788.735	2532.24
788.92	2531.86
789.105	2523.53
789.29	2573.51
789.475	2425.88
789.66	2467.14
789.845	2411.73
790.03	2434.98
790.215	2470.05
790.4	2480.13
790.585	2518.1
790.77	2457.46
790.955	2396.04
791.14	2490.98
791.325	2530.11
791.51	2324.74
791.695	2458.43
791.879	2443.9
792.064	2376.28
792.249	2472.38
792.434	2399.33
792.618	2419.1
792.803	2455.71
792.988	2413.48
793.173	2388.48
793.357	2478.96
793.542	2374.73
793.727	2447.19
793.911	2455.33
794.096	2436.34
794.281	2492.14
794.465	2548.33
794.65	2451.45
794.834	2500.28
795.019	2503.18
795.203	2517.52
795.388	2520.81
795.572	2531.86
795.757	2469.08
795.941	2490.98
796.126	2484.19
796.31	2392.75
796.494	2470.24
796.679	2452.61
796.863	2397.01
797.048	2492.53
797.232	2451.26
797.416	2448.16
797.601	2459.78
797.785	2508.41
797.969	2527.59
798.153	2469.47
798.338	2515.58
798.522	2580.29
798.706	2522.17
798.89	2546.19
799.074	2637.84
799.258	2530.5
799.443	2515.19
799.627	2489.62
799.811	2566.73
799.995	2524.11
800.179	2526.82
800.363	2472.18
800.547	2482.06
800.731	2552.2
800.915	2419.48
801.099	2417.35
801.283	2479.74
801.467	2467.14
801.651	2468.89
801.835	2484.78
802.019	2493.88
802.202	2486.52
802.386	2441.76
802.57	2441.18
802.754	2410.57
802.938	2415.22
803.121	2464.24
803.305	2530.89
803.489	2473.34
803.673	2454.94
803.856	2482.84
804.04	2464.82
804.224	2483.42
804.407	2477.99
804.591	2476.64
804.775	2439.05
804.958	2505.12
805.142	2600.83
805.326	2478.38
805.509	2499.69
805.693	2526.04
805.876	2511.71
806.06	2498.14
806.243	2547.55
806.427	2569.83
806.61	2561.69
806.794	2479.93
806.977	2533.21
807.16	2516.55
807.344	2522.75
807.527	2485.36
807.71	2479.54
807.894	2524.49
808.077	2514.42
808.26	2470.44
808.444	2460.36
808.627	2529.34
808.81	2456.49
808.993	2422.97
809.177	2385.96
809.36	2387.13
809.543	2450.1
809.726	2325.71
809.909	2328.81
810.092	2303.23
810.276	2339.08
810.459	2357.48
810.642	2365.23
810.825	2282.89
811.008	2307.69
811.191	2221.28
811.374	2229.42
811.557	2248.79
811.74	2306.53
811.923	2151.92
812.106	2173.81
812.289	2132.93
812.472	2143.39
812.654	2164.71
812.837	2117.62
813.02	2053.88
813.203	2041.68
813.386	1967.66
813.569	1949.06
813.751	1883.38
813.934	1907.8
814.117	1892.1
814.3	1843.86
814.482	1796
814.665	1734.01
814.848	1752.99
815.03	1658.25
815.213	1672.2
815.396	1658.44
815.578	1654.57
815.761	1608.07
815.943	1668.52
816.126	1613.69
816.309	1553.82
816.491	1486.4
816.674	1449.39
816.856	1521.08
817.039	1510.81
817.221	1564.09
817.403	1529.41
817.586	1510.23
817.768	1556.73
817.951	1464.5
818.133	1440.67
818.315	1491.82
818.498	1520.69
818.68	1592.18
818.862	1538.51
819.045	1566.03
819.227	1562.93
819.409	1537.16
819.591	1573
819.774	1530.38
819.956	1526.31
820.138	1595.48
820.32	1592.57
820.502	1638.68
820.684	1705.33
820.866	1705.52
821.048	1718.89
821.231	1739.82
821.413	1763.65
821.595	1737.3
821.777	1780.89
821.959	1741.17
822.141	1810.92
822.323	1681.89
822.505	1605.74
822.686	1545.68
822.868	1471.87
823.05	1405.41
823.232	1352.52
823.414	1290.91
823.596	1384.49
823.778	1373.25
823.96	1383.32
824.141	1395.34
824.323	1415.29
824.505	1470.12
824.687	1549.75
824.868	1581.91
825.05	1666.58
825.232	1697.19
825.413	1772.75
825.595	1718.31
825.777	1638.68
825.958	1661.93
826.14	1678.21
826.321	1717.92
826.503	1687.7
826.685	1760.16
826.866	1739.82
827.048	1728.19
827.229	1706.69
827.411	1627.83
827.592	1579.4
827.773	1628.03
827.955	1568.35
828.136	1545.68
828.318	1511.78
828.499	1570.1
828.68	1504.03
828.862	1549.17
829.043	1550.72
829.224	1509.06
829.406	1472.64
829.587	1541.23
829.768	1503.83
829.949	1528.25
830.131	1521.46
830.312	1551.69
830.493	1576.1
830.674	1572.61
830.855	1536.19
831.036	1537.74
831.218	1612.72
831.399	1614.27
831.58	1551.11
831.761	1544.13
831.942	1560.99
832.123	1525.53
832.304	1480.58
832.485	1539.68
832.666	1529.21
832.847	1564.09
833.028	1532.12
833.209	1554.98
833.389	1502.48
833.57	1470.32
833.751	1516.81
833.932	1579.2
834.113	1551.88
834.294	1517.98
834.475	1569.9
834.655	1576.3
834.836	1592.96
835.017	1578.62
835.198	1541.61
835.378	1592.76
835.559	1616.79
835.74	1589.86
835.92	1549.75
836.101	1567.38
836.281	1570.48
836.462	1582.11
836.643	1621.83
836.823	1599.35
837.004	1592.76
837.184	1682.66
837.365	1623.18
837.545	1629.96
837.726	1623.76
837.906	1677.04
838.087	1628.41
838.267	1603.03
838.448	1573.97
838.628	1602.64
838.808	1599.35
838.989	1665.23
839.169	1583.46
839.349	1641.98
839.53	1648.56
839.71	1668.71
839.89	1624.73
840.07	1657.48
840.251	1580.56
840.431	1638.49
840.611	1662.51
840.791	1581.91
840.971	1660.58
841.151	1600.32
841.332	1613.3
841.512	1645.27
841.692	1567
841.872	1625.12
842.052	1613.11
842.232	1619.89
842.412	1556.53
842.592	1577.26
842.772	1585.79
842.952	1607.1
843.132	1576.1
843.312	1597.99
843.492	1542.58
843.672	1577.46
843.851	1508.68
844.031	1612.72
844.211	1593.15
844.391	1559.44
844.571	1618.92
844.751	1570.68
844.93	1568.55
845.11	1562.54
845.29	1581.72
845.47	1624.93
845.649	1573.58
845.829	1576.88
846.009	1561.96
846.188	1582.3
846.368	1567.77
846.547	1574.16
846.727	1600.71
846.907	1531.15
847.086	1564.67
847.266	1595.86
847.445	1549.36
847.625	1515.65
847.804	1498.99
847.984	1528.25
848.163	1514.1
848.343	1513.52
848.522	1544.52
848.701	1546.85
848.881	1486.59
849.06	1514.49
849.239	1540.06
849.419	1517.98
849.598	1479.62
849.777	1456.37
849.957	1436.6
850.136	1368.4
850.315	1406.77
850.494	1399.02
850.674	1412.19
850.853	1458.69
851.032	1442.8
851.211	1440.48
851.39	1417.42
851.569	1392.43
851.748	1372.09
851.927	1422.27
852.107	1426.33
852.286	1349.42
852.465	1384.1
852.644	1428.85
852.823	1423.43
853.002	1429.24
853.181	1403.28
853.359	1423.23
853.538	1359.3
853.717	1447.26
853.896	1338.76
854.075	1261.26
854.254	1246.92
854.433	1167.1
854.611	1233.36
854.79	1181.83
854.969	1252.35
855.148	1275.6
855.327	1230.84
855.505	1286.06
855.684	1264.17
855.863	1302.53
856.041	1257.19
856.22	1322.29
856.399	1258.74
856.577	1353.68
856.756	1331.01
856.934	1471.48
857.113	1463.53
857.291	1354.84
857.47	1309.12
857.648	1407.54
857.827	1341.86
858.005	1388.36
858.184	1361.24
858.362	1381.77
858.541	1337.99
858.719	1381.39
858.898	1317.84
859.076	1330.62
859.254	1402.12
859.433	1346.9
859.611	1327.72
859.789	1281.8
859.967	1368.4
860.146	1380.61
860.324	1299.62
860.502	1327.52
860.68	1276.57
860.859	1292.65
861.037	1281.99
861.215	1332.37
861.393	1311.64
861.571	1301.37
861.749	1278.89
861.927	1293.62
862.105	1310.28
862.283	1275.6
862.461	1263.59
862.639	1263.97
862.817	1257.77
862.995	1298.85
863.173	1263.39
863.351	1277.92
863.529	1264.94
863.707	1326.55
863.885	1287.03
864.063	1218.44
864.241	1228.71
864.418	1304.08
864.596	1227.36
864.774	1205.85
864.952	1244.41
865.129	1274.05
865.307	1220.58
865.485	1169.04
865.663	1243.05
865.84	1181.24
866.018	1187.25
866.196	1095.22
866.373	1109.56
866.551	1065.77
866.728	1015.2
866.906	1072.16
867.084	1087.08
867.261	1106.65
867.439	1113.05
867.616	1160.13
867.794	1146.37
867.971	1144.63
868.149	1139.4
868.326	1221.74
868.503	1166.71
868.681	1164
868.858	1164
869.035	1121.18
869.213	1189.58
869.39	1128.93
869.567	1220.58
869.745	1154.51
869.922	1157.41
870.099	1187.06
870.276	1192.68
870.454	1156.06
870.631	1170.39
870.808	1134.36
870.985	1165.16
871.162	1204.69
871.339	1133.97
871.517	1074.68
871.694	1129.71
871.871	1145.98
872.048	1112.66
872.225	1122.73
872.402	1172.91
872.579	1104.91
872.756	1146.18
872.933	1092.12
873.11	1108.2
873.287	1119.63
873.463	1096
873.64	1108.78
873.817	1101.42
873.994	1115.37
874.171	1077.78
874.348	1122.35
874.524	1050.85
874.701	1119.25
874.878	1032.45
875.055	1096.77
875.231	1071.78
875.408	1101.03
875.585	979.75
875.762	1085.34
875.938	1053.18
876.115	1044.27
876.291	1064.22
876.468	1060.54
876.645	1015.78
876.821	1037.87
876.998	1044.46
877.174	1048.72
877.351	1037.29
877.527	1035.93
877.704	1060.93
877.88	1042.72
878.057	1007.45
878.233	1061.7
878.409	1037.87
878.586	1079.53
878.762	1010.94
878.938	1008.03
879.115	946.04
879.291	981.49
879.467	975.68
879.644	956.69
879.82	1012.3
879.996	942.16
880.172	964.64
880.349	985.37
880.525	1029.35
880.701	931.12
880.877	981.3
881.053	995.83
881.229	977.42
881.405	1040
881.581	964.25
881.757	962.89
881.933	996.02
882.109	986.92
882.285	975.87
882.461	951.27
882.637	975.29
882.813	921.82
882.989	970.84
883.165	1007.84
883.341	912.32
883.517	1009.58
883.693	961.15
883.869	999.12
884.044	935.19
884.22	968.51
884.396	1017.14
884.572	996.8
884.747	1028.96
884.923	937.12
885.099	989.05
885.275	983.23
885.45	930.92
885.626	970.84
885.801	959.99
885.977	942.55
886.153	891.79
886.328	964.25
886.504	919.49
886.679	974.32
886.855	920.85
887.03	964.05
887.206	985.95
887.381	984.2
887.557	978.97
887.732	979.55
887.908	995.83
888.083	986.53
888.258	937.51
888.434	956.69
888.609	954.75
888.784	1006.87
888.96	952.82
889.135	944.29
889.31	919.88
889.485	961.34
889.661	968.32
889.836	1028.77
890.011	983.43
890.186	968.32
890.361	908.84
890.537	959.4
890.712	958.63
890.887	984.2
891.062	943.52
891.237	978.2
891.412	946.81
891.587	951.85
891.762	966.77
891.937	997.18
892.112	911.55
892.287	928.02
892.462	885.39
892.637	886.56
892.812	850.91
892.987	887.72
893.161	863.11
893.336	861.37
893.511	865.24
893.686	854.78
893.861	871.83
894.035	860.98
894.21	873.96
894.385	829.98
894.56	871.83
894.734	765.85
894.909	762.17
895.084	798.01
895.258	768.56
895.433	795.69
895.608	724
895.782	726.13
895.957	729.23
896.131	735.82
896.306	659.29
896.48	704.24
896.655	669.95
896.829	619.57
897.004	645.34
897.178	636.62
897.353	622.67
897.527	682.93
897.701	628.87
897.876	597.48
898.05	648.44
898.224	648.63
898.399	682.35
898.573	632.36
898.747	538.2
898.921	592.64
899.096	531.22
899.27	523.28
899.444	516.5
899.618	544.2
899.792	569.39
899.967	559.7
900.141	588.77
900.315	519.4
900.489	549.82
900.663	573.65
900.837	567.65
901.011	534.71
901.185	595.93
901.359	531.22
901.533	557.18
901.707	551.37
901.881	547.88
902.055	489.37
902.229	534.71
902.403	565.9
902.576	536.26
902.75	589.54
902.924	642.05
903.098	597.29
903.272	636.81
903.446	664.71
903.619	653.67
903.793	687.96
903.967	668.78
904.14	724.19
904.314	729.04
904.488	697.46
904.661	719.74
904.835	706.76
905.009	743.76
905.182	737.76
905.356	726.91
905.529	707.92
905.703	680.02
905.876	649.02
906.05	658.71
906.223	633.71
906.397	587.02
906.57	567.45
906.744	585.67
906.917	584.12
907.09	564.16
907.264	542.65
907.437	514.75
907.61	513.79
907.784	531.8
907.957	528.9
908.13	476.59
908.304	544.78
908.477	496.15
908.65	514.75
908.823	443.84
908.996	555.05
909.17	470
909.343	496.93
909.516	502.94
909.689	479.3
909.862	450.62
910.035	482.98
910.208	448.69
910.381	453.53
910.554	534.32
910.727	485.3
910.9	443.84
911.073	480.07
911.246	552.15
911.419	547.88
911.592	488.21
911.765	465.15
911.938	475.42
912.11	482.2
912.283	510.1
912.456	522.5
912.629	503.9
912.802	464.96
912.974	393.08
913.147	397.92
913.32	332.24
913.493	377.77
913.665	380.29
913.838	422.53
914.01	401.02
914.183	447.72
914.356	403.93
914.528	477.94
914.701	461.47
914.873	452.17
915.046	434.54
915.218	389.98
915.391	350.26
915.563	382.23
915.736	393.27
915.908	440.36
916.081	413.42
916.253	414.78
916.425	398.31
916.598	447.33
916.77	393.66
916.942	367.51
917.115	342.71
917.287	389.98
917.459	357.82
917.632	331.66
917.804	331.66
917.976	370.8
918.148	389.4
918.32	370.99
918.493	426.41
918.665	467.87
918.837	423.5
919.009	477.55
919.181	460.7
919.353	452.95
919.525	438.81
919.697	419.04
919.869	443.07
920.041	492.28
920.213	552.73
920.385	482.59
920.557	475.62
920.729	455.08
920.901	459.92
921.073	428.73
921.244	430.47
921.416	479.1
921.588	420.59
921.76	420.98
921.932	457.99
922.103	448.11
922.275	446.94
922.447	454.69
922.619	390.76
922.79	426.21
922.962	431.83
923.134	467.67
923.305	384.75
923.477	353.94
923.648	345.42
923.82	407.22
923.991	339.03
924.163	340.96
924.335	358.79
924.506	350.26
924.677	432.99
924.849	335.93
925.02	378.36
925.192	389.98
925.363	377.77
925.535	369.44
925.706	340.77
925.877	425.82
926.049	359.95
926.22	372.16
926.391	380.1
926.562	378.36
926.734	339.41
926.905	404.32
927.076	340.96
927.247	356.85
927.419	312.48
927.59	282.84
927.761	312.87
927.932	287.29
928.103	317.71
928.274	241.76
928.445	229.17
928.616	286.33
928.787	281.87
928.958	283.23
929.129	266.56
929.3	267.73
929.471	204.18
929.642	158.84
929.813	157.87
929.984	222.78
930.155	146.83
930.326	186.55
930.496	162.91
930.667	131.91
930.838	128.03
931.009	125.52
931.18	151.87
931.35	146.44
931.521	145.86
931.692	86.77
931.863	67.39
932.033	115.63
932.204	126.29
932.374	110.4
932.545	70.69
932.716	115.25
932.886	113.12
933.057	57.9
933.227	56.93
933.398	163.88
933.568	38.91
933.739	11.59
933.909	18.18
934.08	103.82
934.25	33.49
934.421	14.11
934.591	63.52
934.761	34.65
934.932	-21.15
935.102	42.01
935.272	10.62
935.443	25.15
935.613	41.82
935.783	33.29
935.953	23.99
936.123	153.42
936.294	-4.29
936.464	24.19
936.634	34.84
936.804	-8.17
936.974	-17.28
937.144	51.5
937.314	46.08
937.484	-2.36
937.655	3.46
937.825	60.61
937.995	35.04
938.165	50.92
938.334	40.27
938.504	56.15
938.674	25.54
938.844	33.1
939.014	85.99
939.184	81.54
939.354	115.63
939.524	126.87
939.694	57.7
939.863	80.95
940.033	119.7
940.203	127.65
940.373	88.32
940.542	101.49
940.712	40.27
940.882	122.42
941.051	139.08
941.221	74.56
941.391	133.65
941.56	48.21
941.73	29.22
941.899	172.21
942.069	61.77
942.238	90.84
942.408	45.11
942.577	111.37
942.747	69.72
942.916	21.86
943.086	40.27
943.255	90.06
943.425	94.71
943.594	48.99
943.763	0.94
943.933	44.72
944.102	-43.04
944.271	58.48
944.441	66.81
944.61	23.99
944.779	53.44
944.948	143.92
945.117	40.65
945.287	6.36
945.456	-5.46
945.625	23.02
945.794	77.08
945.963	29.8
946.132	81.34
946.301	39.49
946.47	75.34
946.639	24.38
946.808	23.02
946.977	70.69
947.146	83.28
947.315	39.69
947.484	69.33
947.653	68.55
947.822	42.01
947.991	27.67
948.16	149.15
948.329	123.97
948.498	56.15
948.666	60.42
948.835	92.19
949.004	36.59
949.173	11.01
949.341	61.39
949.51	85.41
949.679	92.97
949.847	87.74
950.016	137.92
950.185	117.18
950.353	41.82
950.522	65.26
950.69	115.44
950.859	51.89
951.028	59.64
951.196	83.47
951.365	60.03
951.533	71.27
951.701	81.54
951.87	80.57
952.038	49.37
952.207	55.19
952.375	132.49
952.543	53.83
952.712	36.2
952.88	57.51
953.048	125.32
953.217	44.53
953.385	42.01
953.553	86.38
953.721	4.81
953.89	46.66
954.058	52.47
954.226	17.21
954.394	99.75
954.562	27.48
954.73	62.94
954.898	48.99
955.067	78.24
955.235	52.67
955.403	101.88
955.571	125.9
955.739	75.34
955.907	33.29
956.075	54.22
956.243	43.17
956.41	58.87
956.578	7.14
956.746	16.44
956.914	43.17
957.082	96.45
957.25	86.57
957.418	54.02
957.585	49.18
957.753	93.55
957.921	24.77
958.089	66.62
958.256	76.89
958.424	74.37
958.592	77.08
958.759	35.23
958.927	76.89
959.095	38.91
959.262	67.78
959.43	50.92
959.597	34.84
959.765	48.4
959.932	-5.46
960.1	93.35
960.267	42.79
960.435	68.94
960.602	86.96
960.77	71.07
960.937	26.7
961.104	88.32
961.272	24.38
961.439	25.15
961.606	67.2
961.774	81.34
961.941	47.63
962.108	107.69
962.275	68.55
962.443	99.75
962.61	82.31
962.777	136.17
962.944	102.65
963.111	59.64
963.278	83.86
963.446	85.22
963.613	76.11
963.78	85.22
963.947	112.15
964.114	103.04
964.281	162.52
964.448	107.69
964.615	77.08
964.782	88.12
964.949	75.72
965.116	88.32
965.282	139.66
965.449	62.74
965.616	33.29
965.783	85.41
965.95	82.5
966.117	52.47
966.283	58.67
966.45	83.47
966.617	104.78
966.784	105.95
966.95	116.6
967.117	96.45
967.284	59.06
967.45	68.36
967.617	144.31
967.784	126.1
967.95	128.42
968.117	71.46
968.283	122.42
968.45	185.97
968.616	114.08
968.783	141.79
968.949	120.09
969.116	129.58
969.282	94.13
969.449	111.95
969.615	103.43
969.781	76.5
969.948	120.48
970.114	79.6
970.28	166.98
970.447	110.4
970.613	144.7
970.779	102.46
970.945	126.68
971.112	105.17
971.278	85.8
971.444	125.52
971.61	154.58
971.776	95.68
971.942	116.02
972.108	124.16
972.275	95.29
972.441	116.22
972.607	160
972.773	72.04
972.939	97.23
973.105	108.47
973.271	68.36
973.437	75.34
973.602	66.23
973.768	131.13
973.934	63.32
974.1	114.67
974.266	23.22
974.432	96.65
974.598	62.74
974.763	119.32
974.929	90.25
975.095	163.49
975.261	71.85
975.426	74.17
975.592	90.45
975.758	131.13
975.923	76.3
976.089	67.59
976.255	106.72
976.42	113.12
976.586	103.82
976.751	96.07
976.917	184.22
977.082	114.08
977.248	56.15
977.413	43.75
977.579	63.13
977.744	102.27
977.91	69.14
978.075	75.92
978.24	88.7
978.406	82.89
978.571	74.56
978.736	66.23
978.902	102.85
979.067	50.54
979.232	30.77
979.397	84.83
979.563	126.87
979.728	81.34
979.893	93.35
980.058	62.74
980.223	110.6
980.388	97.81
980.554	81.15
980.719	103.62
980.884	97.23
981.049	128.42
981.214	76.89
981.379	80.57
981.544	81.54
981.709	86.77
981.874	92.19
982.039	61
982.204	92.77
982.368	86.38
982.533	57.9
982.698	117.38
982.863	104.78
983.028	56.35
983.193	100.33
983.357	78.44
983.522	76.3
983.687	69.52
983.852	74.56
984.016	83.47
984.181	83.47
984.346	103.04
984.51	115.25
984.675	108.08
984.839	90.64
985.004	106.53
985.168	116.22
985.333	103.23
985.498	62.35
985.662	107.3
985.827	109.05
985.991	115.83
986.155	73.59
986.32	91.22
986.484	138.11
986.649	94.52
986.813	48.4
986.977	85.22
987.142	107.88
987.306	61.39
987.47	49.57
987.634	73.01
987.799	82.89
987.963	92.77
988.127	107.3
988.291	166.78
988.455	86.77
988.62	67.97
988.784	110.79
988.948	86.19
989.112	51.89
989.276	87.54
989.44	82.12
989.604	79.79
989.768	53.83
989.932	141.4
990.096	57.12
990.26	49.57
990.424	43.95
990.588	79.99
990.752	144.7
990.915	92.77
991.079	67.78
991.243	68.55
991.407	95.87
991.571	93.94
991.734	88.12
991.898	104.4
992.062	153.61
992.226	86.96
992.389	71.07
992.553	44.34
992.717	48.21
992.88	63.52
993.044	69.91
993.207	75.14
993.371	111.18
993.535	110.79
993.698	81.15
993.862	94.52
994.025	94.71
994.189	72.43
994.352	76.89
994.515	84.44
994.679	81.54
994.842	69.91
995.006	99.17
995.169	38.52
995.332	55.96
995.496	90.64
995.659	-8.94
995.822	43.75
995.985	67
996.149	95.29
996.312	74.37
996.475	130.75
996.638	62.35
996.801	121.45
996.964	120.48
997.128	74.17
997.291	71.07
997.454	79.79
997.617	26.51
997.78	107.88
997.943	56.74
998.106	122.61
998.269	41.24
998.432	70.1
998.595	75.53
998.758	25.15
998.92	20.89
999.083	-16.31
999.246	67.59
999.409	7.52
999.572	0.74
999.735	34.84
999.897	63.9
1000.06	52.86
1000.223	36.78
1000.386	78.44
1000.548	81.15
1000.711	73.4
1000.874	62.74
1001.036	-6.62
1001.199	77.47
1001.361	50.34
1001.524	68.75
1001.687	84.83
1001.849	32.52
1002.012	44.72
1002.174	83.09
1002.337	68.36
1002.499	37.94
1002.661	75.53
1002.824	22.25
1002.986	36.59
1003.149	30.58
1003.311	35.42
1003.473	94.71
1003.636	11.79
1003.798	101.88
1003.96	66.81
1004.123	63.13
1004.285	43.56
1004.447	66.42
1004.609	54.8
1004.771	97.42
1004.933	24.38
1005.096	21.86
1005.258	23.22
1005.42	10.04
1005.582	76.3
1005.744	47.44
1005.906	-1.39
1006.068	46.66
1006.23	-3.33
1006.392	1.13
1006.554	-7.59
1006.716	78.24
1006.878	80.57
1007.04	6.17
1007.202	31.94
1007.363	38.52
1007.525	43.37
1007.687	86.96
1007.849	88.12
1008.011	0.74
1008.172	-4.88
1008.334	49.95
1008.496	69.91
1008.658	-15.53
1008.819	28.06
1008.981	5.39
1009.143	56.35
1009.304	55.96
1009.466	51.31
1009.627	94.32
1009.789	117.77
1009.95	26.9
1010.112	25.15
1010.273	64.49
1010.435	28.64
1010.596	27.29
1010.758	36.97
1010.919	30.39
1011.081	8.11
1011.242	16.63
1011.403	49.18
1011.565	30.19
1011.726	50.73
1011.887	4.81
1012.049	33.87
1012.21	50.15
1012.371	97.04
1012.532	-44.4
1012.693	43.56
1012.855	-2.74
1013.016	54.41
1013.177	71.65
1013.338	16.82
1013.499	77.08
1013.66	67.2
1013.821	67.59
1013.982	19.92
1014.143	12.95
1014.304	25.93
1014.465	30.77
1014.626	48.99
1014.787	23.41
1014.948	107.5
1015.109	-24.44
1015.27	97.62
1015.431	18.37
1015.592	17.21
1015.752	79.99
1015.913	42.98
1016.074	56.54
1016.235	23.6
1016.395	9.85
1016.556	27.87
1016.717	39.3
1016.877	63.71
1017.038	11.01
1017.199	41.62
1017.359	59.64
1017.52	48.99
1017.681	20.12
1017.841	40.46
1018.002	19.34
1018.162	25.93
1018.323	69.14
1018.483	18.57
1018.644	28.84
1018.804	-0.23
1018.964	-19.79
1019.125	25.35
1019.285	31.55
1019.446	4.81
1019.606	17.99
1019.766	-36.65
1019.926	40.07
1020.087	41.82
1020.247	-31.61
1020.407	43.37
1020.567	51.7
1020.728	6.94
1020.888	-21.54
1021.048	1.52
1021.208	-35.49
1021.368	17.6
1021.528	61.39
1021.688	40.27
1021.848	29.42
1022.008	28.25
1022.168	-3.33
1022.328	17.4
1022.488	21.67
1022.648	34.84
1022.808	13.53
1022.968	18.76
1023.128	-6.62
1023.288	-8.56
1023.448	22.05
1023.608	46.27
1023.767	49.57
1023.927	-22.31
1024.087	-25.8
1024.247	-14.18
1024.406	18.37
1024.566	-22.31
1024.726	-15.34
1024.885	16.24
1025.045	20.31
1025.205	19.15
1025.364	16.05
1025.524	-3.71
1025.683	11.79
1025.843	24.77
1026.003	43.37
1026.162	61.39
1026.321	17.4
1026.481	10.24
1026.64	-10.49
1026.8	35.62
1026.959	16.44
1027.119	11.79
1027.278	7.72
1027.437	-23.86
1027.597	26.7
1027.756	28.45
1027.915	30.19
1028.074	35.23
1028.234	8.11
1028.393	26.12
1028.552	8.88
1028.711	-61.26
1028.87	61
1029.03	-17.47
1029.189	9.27
1029.348	-45.56
1029.507	-1.78
1029.666	-25.22
1029.825	-29.09
1029.984	-9.91
1030.143	15.66
1030.302	6.94
1030.461	-40.33
1030.62	6.75
1030.779	49.57
1030.938	-8.94
1031.097	-15.73
1031.255	51.31
1031.414	60.61
1031.573	51.5
1031.732	-52.54
1031.891	29.61
1032.049	46.08
1032.208	11.98
1032.367	-8.17
1032.525	8.11
1032.684	-19.79
1032.843	-2.36
1033.001	-31.61
1033.16	130.17
1033.319	45.11
1033.477	36
1033.636	-12.63
1033.794	-27.16
1033.953	47.82
1034.111	27.09
1034.27	8.88
1034.428	6.56
1034.587	-38.01
1034.745	21.47
1034.903	6.36
1035.062	30
1035.22	-24.44
1035.378	20.5
1035.537	-23.67
1035.695	18.76
1035.853	-2.94
1036.011	5.78
1036.17	30.19
1036.328	-77.14
1036.486	12.56
1036.644	-1.19
1036.802	-83.15
1036.96	-21.15
1037.119	-11.46
1037.277	-31.61
1037.435	-21.54
1037.593	-27.35
1037.751	-14.37
1037.909	14.89
1038.067	14.89
