Data from oakcork_FLMT105791__164__17-31-37-058.txt Node

Date: Mon Mar 20 17:31:37 GMT 2023
User: antho
Spectrometer: FLMT10579
Trigger mode: 0
Integration Time (sec): 1.000000E-1
Scans to average: 10
Electric dark correction enabled: true
Nonlinearity correction enabled: false
Boxcar width: 0
XAxis mode: Wavelengths
Number of Pixels in Spectrum: 3648
>>>>>Begin Spectral Data<<<<<
345.248	-169.25
345.464	-169.25
345.681	-169.25
345.898	-163.83
346.114	-161.7
346.331	-22.98
346.548	31.86
346.764	-0.69
346.981	-5.93
347.197	-3.02
347.414	5.7
347.631	-30.92
347.847	64.79
348.064	-19.88
348.28	19.26
348.497	-48.36
348.713	10.16
348.93	32.63
349.146	16.16
349.363	-6.7
349.579	32.44
349.796	-8.06
350.012	-15.81
350.229	21.59
350.445	-3.21
350.661	-18.13
350.878	17.52
351.094	3.96
351.311	22.75
351.527	29.14
351.743	16.16
351.96	22.36
352.176	28.76
352.392	33.79
352.609	56.46
352.825	-35.76
353.041	-5.73
353.257	-11.35
353.474	7.06
353.69	34.18
353.906	13.64
354.122	-20.84
354.339	53.17
354.555	12.09
354.771	-3.41
354.987	61.11
355.203	36.12
355.42	-26.08
355.636	-35.57
355.852	-18.52
356.068	4.34
356.284	-25.69
356.5	69.83
356.716	21.2
356.932	1.82
357.148	48.52
357.364	-3.21
357.58	50.46
357.796	61.11
358.012	31.66
358.228	20.23
358.444	-59.4
358.66	68.67
358.876	9.57
359.092	-22.59
359.308	12.29
359.524	23.91
359.74	1.63
359.956	-28.79
360.172	9.38
360.388	26.43
360.604	-0.5
360.819	73.7
361.035	-6.12
361.251	56.07
361.467	-5.73
361.683	23.91
361.898	4.15
362.114	59.56
362.33	7.83
362.546	62.47
362.762	7.25
362.977	23.14
363.193	-2.44
363.409	48.13
363.624	-18.91
363.84	-22.98
364.056	-20.07
364.271	6.09
364.487	17.52
364.703	11.12
364.918	-3.79
365.134	17.32
365.35	28.17
365.565	110.71
365.781	33.21
365.996	40.57
366.212	81.26
366.427	44.26
366.643	-12.9
366.858	24.11
367.074	-12.32
367.289	91.53
367.505	98.31
367.72	-12.71
367.936	22.94
368.151	55.1
368.367	53.17
368.582	26.24
368.798	10.35
369.013	58.59
369.228	11.71
369.444	55.1
369.659	65.95
369.874	30.31
370.09	84.36
370.305	-35.57
370.52	-8.25
370.736	80.1
370.951	21.2
371.166	82.62
371.381	72.74
371.597	60.92
371.812	-5.15
372.027	-11.93
372.242	17.52
372.458	79.71
372.673	19.65
372.888	42.32
373.103	56.85
373.318	123.3
373.533	44.64
373.749	30.5
373.964	-26.66
374.179	89.2
374.394	-16.39
374.609	88.24
374.824	1.63
375.039	63.44
375.254	5.51
375.469	82.81
375.684	53.55
375.899	62.47
376.114	26.24
376.329	38.83
376.544	66.73
376.759	62.47
376.974	10.74
377.189	25.85
377.404	21.78
377.619	67.7
377.834	-10.19
378.049	10.93
378.264	12.67
378.478	72.35
378.693	10.74
378.908	58.4
379.123	31.66
379.338	106.25
379.553	94.44
379.767	61.11
379.982	44.26
380.197	62.47
380.412	23.72
380.626	56.07
380.841	136.67
381.056	67.7
381.271	110.71
381.485	23.72
381.7	21.39
381.915	59.37
382.129	45.61
382.344	45.61
382.559	32.44
382.773	65.76
382.988	-15.61
383.202	63.44
383.417	14.42
383.632	105.29
383.846	34.76
384.061	40.38
384.275	6.86
384.49	52.59
384.704	29.72
384.919	47.36
385.133	51.62
385.348	85.33
385.562	29.14
385.777	93.85
385.991	63.44
386.206	50.84
386.42	47.36
386.634	84.55
386.849	57.82
387.063	76.8
387.277	26.43
387.492	54.14
387.706	24.3
387.92	42.9
388.135	71.77
388.349	85.14
388.563	44.45
388.778	80.1
388.992	64.6
389.206	80.49
389.42	155.08
389.635	88.82
389.849	84.55
390.063	117.88
390.277	102.57
390.491	142.87
390.706	117.49
390.92	98.31
391.134	81.65
391.348	120.98
391.562	48.32
391.776	118.07
391.99	78.55
392.205	122.53
392.419	109.35
392.633	91.53
392.847	122.14
393.061	35.92
393.275	124.27
393.489	82.62
393.703	73.12
393.917	71.57
394.131	47.74
394.345	108.58
394.559	101.99
394.773	71.19
394.986	108.97
395.2	95.02
395.414	135.51
395.628	85.91
395.842	120.79
396.056	114.97
396.27	75.06
396.484	131.25
396.697	100.44
396.911	110.13
397.125	65.18
397.339	120.2
397.553	65.76
397.766	134.93
397.98	118.65
398.194	164.57
398.408	140.93
398.621	157.21
398.835	171.55
399.049	174.84
399.262	219.4
399.476	210.1
399.69	194.8
399.903	255.25
400.117	176.2
400.331	199.64
400.544	160.12
400.758	258.73
400.971	206.03
401.185	243.23
401.398	174.45
401.612	277.91
401.826	258.54
402.039	223.86
402.253	193.05
402.466	252.92
402.68	204.48
402.893	245.56
403.106	253.11
403.32	213.98
403.533	244.78
403.747	219.79
403.96	222.5
404.174	283.34
404.387	194.6
404.6	244.98
404.814	256.6
405.027	263.58
405.24	233.35
405.454	232.38
405.667	285.28
405.88	200.8
406.094	234.9
406.307	282.95
406.52	246.91
406.733	205.45
406.947	202.16
407.16	293.03
407.373	289.73
407.586	240.33
407.799	226.38
408.012	269
408.226	287.8
408.439	320.34
408.652	208.36
408.865	287.21
409.078	327.71
409.291	291.67
409.504	245.95
409.717	319.57
409.93	301.75
410.143	285.28
410.357	192.86
410.57	198.67
410.783	254.28
410.996	302.91
411.209	262.22
411.421	364.52
411.634	312.01
411.847	296.71
412.06	313.56
412.273	316.66
412.486	332.74
412.699	417.8
412.912	282.56
413.125	339.14
413.338	314.34
413.55	332.94
413.763	323.83
413.976	350.96
414.189	303.1
414.402	291.28
414.615	375.76
414.827	312.79
415.04	338.17
415.253	348.24
415.466	373.43
415.678	373.04
415.891	333.13
416.104	341.08
416.316	317.83
416.529	338.17
416.742	355.8
416.954	416.06
417.167	313.76
417.38	345.92
417.592	389.71
417.805	324.41
418.017	296.32
418.23	364.13
418.442	316.66
418.655	328.29
418.868	335.84
419.08	362.58
419.293	371.49
419.505	367.23
419.718	358.32
419.93	400.94
420.142	372.08
420.355	388.93
420.567	389.71
420.78	380.21
420.992	363.16
421.205	417.22
421.417	376.53
421.629	395.33
421.842	386.61
422.054	339.91
422.266	436.59
422.479	447.64
422.691	378.86
422.903	399.39
423.115	341.66
423.328	354.64
423.54	386.22
423.752	396.1
423.964	377.89
424.177	405.59
424.389	371.88
424.601	501.69
424.813	424
425.025	453.64
425.238	436.21
425.45	368.01
425.662	406.95
425.874	711.71
426.086	414.7
426.298	455.19
426.51	445.12
426.722	407.34
426.934	418.96
427.146	415.86
427.358	367.43
427.57	452.48
427.782	400.36
427.994	434.85
428.206	389.71
428.418	408.5
428.63	462.56
428.842	469.14
429.054	426.71
429.266	458.49
429.478	406.95
429.69	430.01
429.902	369.94
430.114	406.17
430.325	412.37
430.537	381.57
430.749	358.13
430.961	293.8
431.173	326.16
431.384	358.71
431.596	316.66
431.808	433.3
432.02	459.46
432.231	527.85
432.443	563.3
432.655	497.82
432.867	450.93
433.078	509.44
433.29	563.11
433.502	553.23
433.713	546.64
433.925	525.52
434.136	556.14
434.348	454.61
434.56	460.42
434.771	617.55
434.983	462.36
435.194	527.65
435.406	507.89
435.617	580.35
435.829	627.63
436.04	608.45
436.252	584.62
436.463	615.81
436.675	668.31
436.886	644.68
437.098	644.1
437.309	651.65
437.521	619.3
437.732	621.82
437.943	604.96
438.155	621.82
438.366	570.28
438.578	641.97
438.789	595.27
439	585.97
439.211	566.02
439.423	598.76
439.634	628.4
439.845	656.11
440.057	637.7
440.268	682.46
440.479	628.79
440.69	644.1
440.902	631.5
441.113	617.75
441.324	636.35
441.535	671.03
441.746	714.81
441.957	645.07
442.168	678.97
442.38	702.61
442.591	728.18
442.802	682.85
443.013	691.56
443.224	758.79
443.435	690.21
443.646	698.73
443.857	711.33
444.068	702.41
444.279	699.9
444.49	789.41
444.701	740.58
444.912	863.42
445.123	778.56
445.334	763.06
445.545	749.11
445.756	720.05
445.967	683.81
446.178	704.35
446.388	737.1
446.599	762.28
446.81	749.88
447.021	722.76
447.232	764.22
447.443	805.1
447.653	759.18
447.864	836.1
448.075	802.78
448.286	807.23
448.496	821.18
448.707	853.34
448.918	787.28
449.129	887.44
449.339	766.93
449.55	833.39
449.761	802.78
449.971	825.25
450.182	831.45
450.393	885.7
450.603	839.78
450.814	912.63
451.024	883.76
451.235	920.38
451.446	928.13
451.656	907.01
451.867	868.26
452.077	889.77
452.288	916.7
452.498	880.86
452.709	865.55
452.919	845.4
453.13	837.07
453.34	872.33
453.55	773.91
453.761	858.57
453.971	855.09
454.182	870.2
454.392	861.87
454.602	950.6
454.813	891.12
455.023	900.04
455.233	814.21
455.444	888.99
455.654	816.73
455.864	861.29
456.075	863.22
456.285	867.49
456.495	881.63
456.705	930.26
456.916	969.4
457.126	974.63
457.336	916.12
457.546	872.14
457.756	903.14
457.967	960.68
458.177	892.87
458.387	911.08
458.597	896.36
458.807	914.18
459.017	879.31
459.227	918.06
459.437	896.94
459.647	948.67
459.857	956.22
460.068	916.51
460.278	970.17
460.488	941.3
460.698	1009.89
460.908	963.2
461.117	930.84
461.327	956.22
461.537	967.07
461.747	1032.56
461.957	981.99
462.167	1112
462.377	1035.08
462.587	1001.56
462.797	1019.97
463.007	1043.22
463.216	1055.42
463.426	1073.25
463.636	1063.56
463.846	977.92
464.056	1014.54
464.265	1037.6
464.475	1024.23
464.685	1072.28
464.895	1052.13
465.104	1037.02
465.314	1038.37
465.524	1026.36
465.733	1004.27
465.943	1101.34
466.153	1127.11
466.362	1145.51
466.572	1058.72
466.782	1032.56
466.991	1076.15
467.201	1120.33
467.41	1014.54
467.62	1114.71
467.829	1089.91
468.039	1118.39
468.249	1090.88
468.458	1174
468.668	1154.81
468.877	1161.6
469.086	1207.9
469.296	1201.12
469.505	1133.89
469.715	1216.62
469.924	1197.44
470.134	1223.4
470.343	1198.21
470.552	1160.24
470.762	1138.35
470.971	1143.19
471.18	1193.76
471.39	1201.12
471.599	1170.51
471.808	1208.48
472.018	1224.18
472.227	1273
472.436	1305.94
472.645	1284.43
472.855	1250.53
473.064	1351.86
473.273	1328.22
473.482	1310.59
473.691	1339.65
473.901	1337.32
474.11	1317.56
474.319	1393.12
474.528	1356.31
474.737	1444.85
474.946	1373.36
475.155	1419.67
475.364	1437.69
475.573	1398.35
475.783	1460.93
475.992	1437.49
476.201	1422.57
476.41	1419.67
476.619	1379.95
476.828	1437.3
477.037	1384.99
477.245	1429.16
477.454	1490.97
477.663	1459.77
477.872	1539.4
478.081	1591.71
478.29	1499.68
478.499	1633.37
478.708	1594.04
478.917	1649.84
479.125	1570.01
479.334	1581.06
479.543	1641.7
479.752	1665.53
479.961	1612.83
480.169	1705.44
480.378	1678.32
480.587	1774.42
480.796	1726.37
481.004	1695.76
481.213	1706.99
481.422	1771.12
481.63	1770.16
481.839	1798.25
482.048	1842.23
482.256	1818.01
482.465	1822.85
482.674	1842.04
482.882	1848.62
483.091	1882.53
483.299	1799.41
483.508	1898.8
483.716	1917.79
483.925	1908.49
484.134	1830.02
484.342	1868.19
484.551	1903.26
484.759	1897.25
484.967	1941.23
485.176	1962.16
485.384	1941.62
485.593	1962.16
485.801	1904.81
486.01	1849.98
486.218	1747.49
486.426	1653.13
486.635	1633.37
486.843	1655.46
487.051	1711.64
487.26	1728.69
487.468	1801.35
487.676	1845.14
487.885	1876.14
488.093	1950.34
488.301	2018.73
488.509	2017.76
488.717	2090.61
488.926	2064.46
489.134	1993.35
489.342	2016.6
489.55	1998
489.758	2041.6
489.967	2097.2
490.175	2190.39
490.383	2165.98
490.591	2275.45
490.799	2188.07
491.007	2246
491.215	2199.69
491.423	2181.67
491.631	2180.32
491.839	2165.59
492.047	2142.15
492.255	2092.94
492.463	2087.51
492.671	2113.86
492.879	2187.29
493.087	2184.77
493.295	2211.71
493.503	2254.33
493.711	2330.28
493.919	2314.39
494.127	2270.41
494.334	2327.76
494.542	2253.17
494.75	2387.82
494.958	2283.39
495.166	2426.76
495.374	2388.02
495.581	2405.26
495.789	2376.97
495.997	2459.9
496.205	2329.7
496.412	2373.29
496.62	2382.59
496.828	2408.36
497.035	2361.47
497.243	2428.7
497.451	2438.97
497.658	2419.4
497.866	2413.78
498.074	2482.95
498.281	2416.11
498.489	2517.83
498.696	2374.65
498.904	2348.3
499.112	2393.44
499.319	2479.85
499.527	2451.76
499.734	2508.53
499.942	2456.02
500.149	2461.45
500.357	2518.41
500.564	2449.43
500.771	2443.81
500.979	2363.02
501.186	2400.61
501.394	2439.16
501.601	2406.03
501.808	2447.69
502.016	2403.13
502.223	2395.96
502.43	2382.78
502.638	2367.67
502.845	2468.03
503.052	2509.49
503.26	2478.88
503.467	2563.55
503.674	2518.21
503.881	2491.67
504.089	2535.65
504.296	2495.35
504.503	2421.53
504.71	2460.86
504.917	2463
505.125	2529.84
505.332	2566.46
505.539	2561.23
505.746	2644.54
505.953	2661.2
506.16	2673.99
506.367	2682.32
506.574	2746.84
506.781	2729.4
506.988	2660.23
507.195	2696.27
507.402	2660.04
507.609	2704.21
507.816	2629.04
508.023	2611.02
508.23	2642.79
508.437	2580.21
508.644	2665.85
508.851	2691.42
509.058	2686.77
509.265	2714.29
509.472	2721.84
509.679	2836.15
509.885	2741.6
510.092	2745.87
510.299	2785.58
510.506	2694.33
510.713	2763.11
510.92	2741.6
511.126	2796.43
511.333	2810.77
511.54	2841
511.746	2867.54
511.953	2894.47
512.16	2941.94
512.367	2848.55
512.573	2791.2
512.78	2856.3
512.987	2877.81
513.193	2811.35
513.4	2747.42
513.606	2799.92
513.813	2831.31
514.02	2775.7
514.226	2844.68
514.433	2854.36
514.639	2734.82
514.846	2771.44
515.052	2772.02
515.259	2752.07
515.465	2812.13
515.672	2805.54
515.878	2951.82
516.085	2886.53
516.291	2914.81
516.497	2883.23
516.704	2786.94
516.91	2721.26
517.117	2614.51
517.323	2569.36
517.529	2540.11
517.736	2571.69
517.942	2610.05
518.148	2658.1
518.354	2656.74
518.561	2720.1
518.767	2680.38
518.973	2716.8
519.179	2781.52
519.386	2771.63
519.592	2769.89
519.798	2812.52
520.004	2951.43
520.21	2933.8
520.417	2976.04
520.623	3059.16
520.829	3041.33
521.035	3067.68
521.241	3058.77
521.447	3105.07
521.653	3195.75
521.859	3086.47
522.065	3105.07
522.271	3212.8
522.477	3179.67
522.683	3205.82
522.889	3175.6
523.095	3093.64
523.301	3115.15
523.507	3051.02
523.713	3104.69
523.919	3113.6
524.125	3220.74
524.331	3208.73
524.537	3339.31
524.742	3344.35
524.948	3325.75
525.154	3339.31
525.36	3400.34
525.566	3315.48
525.772	3398.21
525.977	3303.08
526.183	3298.43
526.389	3363.53
526.595	3214.15
526.8	3149.05
527.006	3120.96
527.212	3010.33
527.417	3054.89
527.623	3038.62
527.829	3147.89
528.034	3208.92
528.24	3202.72
528.446	3239.73
528.651	3357.91
528.857	3386.01
529.062	3420.11
529.268	3418.75
529.473	3471.45
529.679	3538.49
529.884	3596.42
530.09	3485.59
530.295	3476.1
530.501	3505.55
530.706	3513.3
530.912	3486.76
531.117	3552.24
531.323	3549.53
531.528	3598.94
531.733	3616.37
531.939	3532.67
532.144	3561.15
532.35	3569.87
532.555	3553.02
532.76	3526.28
532.966	3478.81
533.171	3439.09
533.376	3404.8
533.581	3434.83
533.787	3478.04
533.992	3570.84
534.197	3513.11
534.402	3558.05
534.607	3535.58
534.813	3652.02
535.018	3659.97
535.223	3654.15
535.428	3635.94
535.633	3715.38
535.838	3700.65
536.043	3773.5
536.249	3830.46
536.454	3749.86
536.659	3775.44
536.864	3753.93
537.069	3682.44
537.274	3645.82
537.479	3734.56
537.684	3731.46
537.889	3613.08
538.094	3791.71
538.299	3726.23
538.504	3771.95
538.708	3760.91
538.913	3763.43
539.118	3776.02
539.323	3712.67
539.528	3734.56
539.733	3716.35
539.938	3737.08
540.142	3712.86
540.347	3655.51
540.552	3627.22
540.757	3610.56
540.962	3603.2
541.166	3591.57
541.371	3596.42
541.576	3647.76
541.781	3587.12
541.985	3782.22
542.19	3682.05
542.395	3832.79
542.599	3837.05
542.804	3736.3
543.008	3842.28
543.213	3717.7
543.418	3679.15
543.622	3794.43
543.827	3724.29
544.031	3865.34
544.236	3889.17
544.44	3870.57
544.645	3929.47
544.849	3846.16
545.054	3900.6
545.258	3951.17
545.463	3949.62
545.667	3812.83
545.872	3946.32
546.076	3856.23
546.281	3906.41
546.485	3861.85
546.689	3929.66
546.894	3902.34
547.098	3910.29
547.302	3883.36
547.507	3883.55
547.711	3944.97
547.915	3953.69
548.119	3806.05
548.324	3850.42
548.528	3932.37
548.732	3913.39
548.936	3931.21
549.141	3940.12
549.345	3973.26
549.549	3933.54
549.753	3942.26
549.957	4026.34
550.161	4031.19
550.366	4018.4
550.57	3934.89
550.774	3945.55
550.978	3949.23
551.182	3985.46
551.386	3901.37
551.59	3948.46
551.794	3892.08
551.998	4011.42
552.202	3962.21
552.406	3945.55
552.61	3972.09
552.814	3987.2
553.018	3976.36
553.222	3947.68
553.426	3890.14
553.63	4003.87
553.833	3989.34
554.037	3922.88
554.241	3942.45
554.445	4013.17
554.649	3996.12
554.853	3938.19
555.056	4002.32
555.26	4088.73
555.464	3987.4
555.668	4058.31
555.871	4024.02
556.075	4040.68
556.279	3994.57
556.483	3915.52
556.686	3937.8
556.89	3939.93
557.094	3981.2
557.297	3849.06
557.501	3891.69
557.704	3779.12
557.908	3903.7
558.112	3846.54
558.315	3923.85
558.519	3821.16
558.722	3814.58
558.926	3770.01
559.129	3728.75
559.333	3727.2
559.536	3690.77
559.74	3635.75
559.943	3646.98
560.147	3629.74
560.35	3659.77
560.553	3741.34
560.757	3730.49
560.96	3808.18
561.164	3740.95
561.367	3820.58
561.57	3765.36
561.774	3730.68
561.977	3745.99
562.18	3721.58
562.384	3776.02
562.587	3681.67
562.79	3718.48
562.993	3658.22
563.197	3696
563.4	3761.3
563.603	3710.34
563.806	3774.66
564.009	3716.93
564.212	3701.62
564.416	3644.27
564.619	3685.93
564.822	3641.17
565.025	3708.4
565.228	3666.75
565.431	3691.55
565.634	3584.6
565.837	3590.22
566.04	3582.85
566.243	3594.48
566.446	3504.97
566.649	3601.65
566.852	3517.17
567.055	3608.24
567.258	3603.59
567.461	3636.52
567.664	3643.88
567.867	3583.24
568.07	3600.68
568.273	3610.95
568.475	3670.43
568.678	3526.67
568.881	3497.99
569.084	3476.1
569.287	3380.39
569.489	3414.68
569.692	3455.76
569.895	3470.29
570.098	3364.31
570.3	3369.35
570.503	3305.02
570.706	3377.48
570.909	3339.31
571.111	3241.86
571.314	3192.26
571.516	3275.57
571.719	3326.91
571.922	3307.15
572.124	3318
572.327	3348.42
572.529	3281.38
572.732	3290.1
572.935	3318.78
573.137	3409.45
573.34	3265.5
573.542	3346.87
573.745	3359.66
573.947	3340.48
574.15	3294.56
574.352	3328.46
574.554	3373.41
574.757	3273.05
574.959	3207.37
575.162	3245.15
575.364	3235.66
575.566	3335.05
575.769	3176.57
575.971	3289.13
576.173	3096.94
576.376	3165.91
576.578	3266.27
576.78	3278.28
576.982	3154.29
577.185	3189.74
577.387	3136.07
577.589	3171.34
577.791	3189.55
577.993	3191.1
578.196	3166.69
578.398	3170.56
578.6	3166.1
578.802	3064.39
579.004	3062.26
579.206	3096.94
579.408	3185.67
579.61	3113.79
579.812	3205.05
580.014	3113.21
580.216	3123.48
580.418	3157.97
580.62	3151.19
580.822	3107.4
581.024	3212.6
581.226	3184.7
581.428	3150.99
581.63	3298.05
581.832	3165.33
582.034	3261.82
582.236	3194.2
582.438	3256
582.64	3280.03
582.841	3261.82
583.043	3367.02
583.245	3241.28
583.447	3313.16
583.649	3255.81
583.85	3256
584.052	3281.58
584.254	3251.35
584.456	3298.24
584.657	3184.32
584.859	3264.33
585.061	3249.8
585.262	3185.67
585.464	3151.38
585.666	3227.13
585.867	3166.69
586.069	3202.72
586.27	3150.6
586.472	3154.87
586.674	3142.85
586.875	3143.24
587.077	3150.22
587.278	3182.19
587.48	3117.09
587.681	3251.74
587.883	3171.34
588.084	3055.67
588.285	3058.38
588.487	3048.89
588.688	3021.76
588.89	2914.23
589.091	2843.71
589.292	2801.28
589.494	2714.29
589.695	2735.02
589.896	2614.51
590.098	2666.82
590.299	2742.96
590.5	2695.88
590.702	2783.84
590.903	2813.29
591.104	2944.26
591.305	2927.8
591.507	2981.27
591.708	2905.51
591.909	2917.53
592.11	2978.94
592.311	2937.87
592.512	2910.94
592.714	2871.22
592.915	2947.17
593.116	2918.69
593.317	2899.12
593.518	2925.66
593.719	2947.56
593.92	2938.26
594.121	2984.18
594.322	2917.33
594.523	2927.6
594.724	2857.08
594.925	2858.43
595.126	2866.96
595.327	2921.01
595.528	2911.52
595.729	2895.83
595.929	2899.31
596.13	2940.19
596.331	2955.89
596.532	2947.17
596.733	3011.69
596.934	2982.43
597.135	2998.71
597.335	2975.84
597.536	2935.54
597.737	2926.25
597.938	2914.81
598.138	2960.54
598.339	2931.67
598.54	2954.92
598.74	2919.66
598.941	2937.29
599.142	2968.48
599.342	2950.27
599.543	2938.45
599.744	2935.54
599.944	2970.03
600.145	2971
600.345	2937.48
600.546	3005.29
600.746	3031.26
600.947	3051.99
601.147	2944.65
601.348	3032.61
601.548	2919.66
601.749	2948.14
601.949	2908.81
602.15	2910.36
602.35	2895.83
602.551	2948.91
602.751	2902.61
602.951	2954.73
603.152	2847.78
603.352	2971
603.552	2940.97
603.753	2966.54
603.953	2965.77
604.153	2994.83
604.354	2978.17
604.554	2949.88
604.754	2942.91
604.954	2944.46
605.155	3002.39
605.355	2969.45
605.555	2980.3
605.755	3035.32
605.955	2977.59
606.155	2943.68
606.356	2970.61
606.556	2970.42
606.756	2972.36
606.956	2896.21
607.156	3003.36
607.356	2925.86
607.556	2984.76
607.756	2949.69
607.956	2961.7
608.156	2957.44
608.356	2911.33
608.556	2931.28
608.756	2955.69
608.956	2902.22
609.156	2872.77
609.356	2899.9
609.556	2820.27
609.755	2910.55
609.955	2856.3
610.155	2862.31
610.355	2894.47
610.555	2823.75
610.755	2826.66
610.954	2786.55
611.154	2872
611.354	2912.68
611.554	2820.85
611.753	2894.47
611.953	2774.93
612.153	2872.19
612.352	2832.28
612.552	2730.75
612.752	2721.26
612.951	2810.97
613.151	2797.79
613.351	2783.07
613.55	2820.07
613.75	2785.58
613.949	2697.43
614.149	2791.2
614.348	2735.02
614.548	2724.17
614.747	2700.92
614.947	2714.67
615.146	2699.17
615.346	2795.47
615.545	2768.73
615.745	2786.36
615.944	2729.59
616.144	2760.4
616.343	2729.2
616.542	2714.87
616.742	2693.94
616.941	2682.9
617.14	2629.62
617.34	2671.27
617.539	2680.96
617.738	2638.53
617.938	2726.49
618.137	2707.89
618.336	2700.72
618.535	2695.49
618.734	2737.34
618.934	2672.44
619.133	2703.44
619.332	2787.72
619.531	2711.38
619.73	2740.25
619.929	2733.85
620.128	2798.76
620.328	2780.55
620.527	2732.3
620.726	2752.84
620.925	2727.85
621.124	2748.97
621.323	2740.44
621.522	2651.51
621.721	2697.82
621.92	2678.25
622.119	2691.81
622.318	2674.95
622.517	2657.13
622.715	2655.19
622.914	2638.34
623.113	2643.37
623.312	2575.56
623.511	2650.93
623.71	2629.42
623.909	2587.77
624.107	2659.26
624.306	2596.49
624.505	2580.02
624.704	2585.25
624.902	2548.05
625.101	2625.74
625.3	2589.51
625.499	2519.38
625.697	2565.49
625.896	2518.21
626.095	2484.89
626.293	2480.82
626.492	2531.78
626.69	2567.04
626.889	2573.04
627.088	2570.33
627.286	2486.25
627.485	2472.68
627.683	2459.9
627.882	2463.38
628.08	2321.37
628.279	2339
628.477	2428.9
628.676	2343.07
628.874	2432.58
629.073	2374.45
629.271	2330.67
629.469	2427.93
629.668	2396.54
629.866	2336.09
630.065	2361.86
630.263	2400.42
630.461	2356.24
630.66	2383.95
630.858	2367.87
631.056	2392.67
631.254	2444.98
631.453	2357.98
631.651	2433.93
631.849	2410.88
632.047	2366.7
632.245	2389.57
632.444	2407.58
632.642	2442.26
632.84	2453.11
633.038	2390.34
633.236	2390.15
633.434	2384.72
633.632	2415.14
633.83	2393.05
634.028	2454.66
634.227	2390.73
634.425	2495.93
634.623	2430.64
634.821	2467.84
635.019	2450.4
635.216	2474.81
635.414	2497.68
635.612	2417.66
635.81	2427.73
636.008	2498.64
636.206	2434.51
636.404	2461.45
636.602	2425.02
636.8	2428.9
636.997	2496.13
637.195	2524.8
637.393	2520.34
637.591	2543.21
637.789	2496.32
637.986	2489.54
638.184	2504.84
638.382	2557.93
638.58	2579.05
638.777	2562.97
638.975	2479.85
639.173	2529.45
639.37	2476.56
639.568	2480.63
639.765	2465.51
639.963	2460.28
640.161	2515.69
640.358	2516.86
640.556	2436.65
640.753	2419.01
640.951	2427.93
641.148	2483.15
641.346	2444.01
641.543	2414.95
641.741	2443.81
641.938	2390.92
642.136	2398.67
642.333	2386.27
642.531	2432.58
642.728	2464.35
642.925	2415.14
643.123	2412.43
643.32	2430.83
643.517	2385.3
643.715	2386.85
643.912	2406.62
644.109	2420.18
644.306	2403.9
644.504	2372.71
644.701	2399.45
644.898	2422.5
645.095	2375.42
645.293	2386.27
645.49	2402.35
645.687	2385.11
645.884	2404.87
646.081	2313.42
646.278	2304.32
646.475	2326.4
646.672	2338.22
646.87	2310.32
647.067	2287.07
647.264	2309.94
647.461	2255.49
647.658	2202.6
647.855	2304.32
648.052	2207.06
648.249	2163.85
648.446	2233.79
648.642	2237.67
648.839	2203.37
649.036	2240.19
649.233	2181.09
649.43	2144.28
649.627	2159.01
649.824	2196.98
650.021	2160.94
650.217	2182.26
650.414	2205.31
650.611	2279.32
650.808	2297.92
651.004	2295.02
651.201	2282.81
651.398	2328.15
651.595	2260.14
651.791	2205.31
651.988	2260.92
652.185	2199.11
652.381	2245.8
652.578	2152.03
652.775	2205.51
652.971	2212.48
653.168	2202.02
653.364	2254.52
653.561	2210.54
653.757	2247.55
653.954	2259.95
654.15	2184.97
654.347	2304.7
654.543	2223.72
654.74	2133.63
654.936	2173.92
655.133	2157.65
655.329	2174.31
655.525	2137.69
655.722	2138.47
655.918	2064.46
656.115	2045.86
656.311	1910.04
656.507	1899.97
656.704	1797.67
656.9	1899.77
657.096	1946.85
657.292	1900.16
657.489	1939.3
657.685	1989.86
657.881	2009.82
658.077	1991.8
658.273	2043.92
658.47	2098.94
658.666	2097.2
658.862	2120.45
659.058	2094.88
659.254	2137.5
659.45	2126.65
659.646	2123.74
659.842	2085.19
660.038	2149.12
660.234	2122
660.43	2166.37
660.626	2189.81
660.822	2144.09
661.018	2161.14
661.214	2172.37
661.41	2132.66
661.606	2208.02
661.802	2200.47
661.998	2153.97
662.194	2155.52
662.39	2189.04
662.586	2183.61
662.781	2172.96
662.977	2214.81
663.173	2199.11
663.369	2152.61
663.564	2186.52
663.76	2159.39
663.956	2167.34
664.152	2150.87
664.347	2059.03
664.543	2177.41
664.739	2152.22
664.934	2079.57
665.13	2090.03
665.326	2187.1
665.521	2198.14
665.717	2110.76
665.912	2133.04
666.108	2033.26
666.304	2098.94
666.499	2108.83
666.695	2030.94
666.89	2110.76
667.086	2150.87
667.281	2145.25
667.477	2201.63
667.672	2102.24
667.867	2111.73
668.063	2123.94
668.258	2033.85
668.454	2106.69
668.649	2178.38
668.844	2127.62
669.04	2122.78
669.235	2050.12
669.43	2098.75
669.626	2044.31
669.821	2070.27
670.016	2058.06
670.211	2085.96
670.407	2017.76
670.602	2063.49
670.797	2010.01
670.992	2115.22
671.187	2015.05
671.382	2061.55
671.578	2023.77
671.773	2067.36
671.968	1973.2
672.163	2013.11
672.358	2030.55
672.553	1989.86
672.748	2015.63
672.943	2068.53
673.138	2035.4
673.333	2076.28
673.528	2009.05
673.723	2057.29
673.918	2018.54
674.113	1959.45
674.308	2069.88
674.503	2044.89
674.698	2030.16
674.892	1997.81
675.087	2010.21
675.282	2019.7
675.477	1987.35
675.672	2025.32
675.867	2013.31
676.061	1975.72
676.256	1967.58
676.451	2014.28
676.646	2020.67
676.84	2004.78
677.035	1949.18
677.23	1956.35
677.424	2012.73
677.619	2013.11
677.814	2047.6
678.008	2031.71
678.203	1983.86
678.397	1963.32
678.592	1954.22
678.787	2054
678.981	1994.51
679.176	1989.28
679.37	1962.74
679.565	1949.76
679.759	1956.73
679.954	1990.45
680.148	1985.99
680.342	2004.78
680.537	1998.2
680.731	1970.1
680.926	1973.78
681.12	1949.37
681.314	1909.07
681.509	1985.02
681.703	1976.3
681.897	1976.88
682.092	1973.98
682.286	1922.25
682.48	2014.28
682.674	1968.55
682.869	1905.2
683.063	1961.38
683.257	2020.86
683.451	1893.77
683.645	1950.34
683.839	1921.28
684.034	1901.32
684.228	1939.49
684.422	1853.85
684.616	1916.43
684.81	1966.81
685.004	1897.83
685.198	1919.92
685.392	1929.22
685.586	1915.47
685.78	1912.56
685.974	1943.37
686.168	1917.6
686.362	1923.22
686.556	1781.78
686.75	1723.27
686.944	1634.73
687.138	1543.28
687.331	1433.04
687.525	1399.52
687.719	1285.79
687.913	1371.04
688.107	1402.23
688.301	1408.24
688.494	1440.98
688.688	1403.78
688.882	1397.19
689.076	1406.69
689.269	1426.06
689.463	1490.97
689.657	1421.99
689.85	1464.81
690.044	1519.25
690.238	1512.47
690.431	1487.67
690.625	1517.51
690.818	1591.33
691.012	1603.92
691.205	1631.43
691.399	1597.33
691.593	1604.89
691.786	1685.49
691.98	1707.77
692.173	1738.57
692.366	1752.91
692.56	1772.29
692.753	1790.69
692.947	1735.47
693.14	1787.21
693.333	1777.13
693.527	1730.24
693.72	1795.15
693.914	1729.86
694.107	1746.32
694.3	1761.82
694.493	1688.39
694.687	1788.95
694.88	1697.69
695.073	1771.32
695.266	1789.72
695.46	1801.35
695.653	1877.1
695.846	1839.9
696.039	1786.04
696.232	1824.21
696.425	1872.65
696.618	1906.75
696.812	1936.39
697.005	1987.93
697.198	2071.04
697.391	1975.14
697.584	2023.38
697.777	2098.36
697.97	2032.1
698.163	2072.59
698.356	2046.83
698.549	2123.74
698.742	2115.22
698.935	2035.4
699.127	2070.85
699.32	2045.47
699.513	2037.33
699.706	2043.73
699.899	2090.81
700.092	2027.06
700.285	2075.5
700.477	2024.74
700.67	2085.19
700.863	2096.43
701.056	2148.74
701.248	2172.37
701.441	2166.37
701.634	2130.33
701.826	2225.07
702.019	2131.3
702.212	2213.26
702.404	2177.22
702.597	2129.17
702.79	2191.75
702.982	2232.24
703.175	2312.65
703.367	2294.05
703.56	2362.05
703.752	2413.59
703.945	2386.08
704.137	2394.22
704.33	2437.42
704.522	2492.64
704.715	2481.6
704.907	2522.09
705.1	2540.3
705.292	2540.3
705.484	2529.45
705.677	2588.54
705.869	2583.89
706.061	2613.15
706.254	2650.93
706.446	2575.56
706.638	2585.44
706.831	2692.78
707.023	2645.51
707.215	2766.98
707.407	2730.37
707.599	2691.42
707.792	2840.22
707.984	2772.22
708.176	2800.12
708.368	2786.36
708.56	2844.29
708.752	2790.62
708.944	2829.57
709.136	2925.66
709.329	2875.48
709.521	2982.63
709.713	2949.49
709.905	2989.6
710.097	2998.13
710.289	3006.46
710.481	3045.21
710.672	3028.74
710.864	3104.69
711.056	3095.58
711.248	3118.64
711.44	3088.41
711.632	3149.44
711.824	3195.75
712.016	3231.59
712.207	3172.69
712.399	3184.12
712.591	3324.98
712.783	3302.11
712.975	3267.82
713.166	3248.45
713.358	3283.52
713.55	3369.54
713.741	3362.95
713.933	3336.8
714.125	3371.28
714.316	3313.74
714.508	3456.34
714.7	3399.96
714.891	3394.34
715.083	3453.04
715.274	3404.8
715.466	3432.7
715.657	3503.61
715.849	3405.96
716.04	3457.11
716.232	3430.57
716.423	3400.15
716.615	3288.94
716.806	3207.57
716.998	3164.17
717.189	3038.23
717.381	2953.95
717.572	2920.05
717.763	2881.1
717.955	2844.68
718.146	2844.68
718.337	2758.65
718.528	2708.09
718.72	2655.58
718.911	2658.49
719.102	2642.21
719.293	2714.87
719.485	2683.87
719.676	2669.34
719.867	2622.26
720.058	2629.04
720.249	2641.44
720.44	2648.99
720.632	2747.22
720.823	2836.73
721.014	2965.58
721.205	3070.78
721.396	3135.88
721.587	3361.98
721.778	3428.44
721.969	3446.84
722.16	3525.7
722.351	3611.92
722.542	3705.11
722.733	3717.7
722.924	3630.71
723.115	3685.15
723.305	3638.85
723.496	3643.88
723.687	3504.97
723.878	3504
724.069	3491.99
724.26	3517.76
724.45	3433.48
724.641	3394.34
724.832	3423.01
725.023	3422.24
725.213	3422.63
725.404	3418.75
725.595	3427.28
725.785	3403.25
725.976	3522.21
726.167	3470.48
726.357	3490.24
726.548	3632.84
726.739	3559.6
726.929	3696.39
727.12	3677.4
727.31	3689.42
727.501	3591.38
727.691	3649.31
727.882	3664.42
728.072	3731.85
728.263	3737.27
728.453	3865.14
728.644	3823.68
728.834	3831.04
729.024	3749.86
729.215	3767.11
729.405	3849.64
729.596	3961.63
729.786	3956.59
729.976	4035.25
730.167	3986.82
730.357	3977.32
730.547	4002.9
730.737	4045.91
730.928	4089.5
731.118	4140.65
731.308	4008.13
731.498	4102.29
731.688	4224.74
731.879	4314.06
732.069	4298.17
732.259	4437.67
732.449	4510.71
732.639	4557.98
732.829	4586.66
733.019	4728.09
733.209	4839.89
733.399	4838.92
733.589	4910.99
733.779	4984.81
733.969	4986.55
734.159	5119.85
734.349	5143.88
734.539	5189.41
734.729	5218.08
734.919	5255.28
735.109	5378.89
735.299	5224.28
735.488	5256.83
735.678	5269.81
735.868	5322.51
736.058	5310.69
736.248	5290.54
736.437	5270.01
736.627	5261.48
736.817	5430.04
737.007	5338.2
737.196	5410.08
737.386	5442.05
737.576	5441.47
737.765	5503.47
737.955	5419.38
738.144	5605.38
738.334	5545.71
738.524	5502.89
738.713	5593.18
738.903	5580.78
739.092	5642.78
739.282	5650.33
739.471	5660.41
739.661	5650.72
739.85	5704.39
740.04	5731.51
740.229	5793.32
740.419	5807.07
740.608	5821.8
740.797	5823.54
740.987	5880.89
741.176	5873.14
741.365	5876.05
741.555	5787.5
741.744	5946.18
741.933	5881.28
742.123	5950.06
742.312	5912.28
742.501	6009.93
742.69	5997.72
742.88	5924.87
743.069	6090.33
743.258	6066.89
743.447	6102.73
743.636	6094.98
743.825	6043.06
744.014	6115.52
744.204	6188.75
744.393	6057.98
744.582	6178.1
744.771	6221.5
744.96	6157.17
745.149	6190.69
745.338	6131.79
745.527	6278.65
745.716	6204.06
745.905	6135.67
746.094	6274
746.283	6254.24
746.471	6249.2
746.66	6356.35
746.849	6307.91
747.038	6316.24
747.227	6208.9
747.416	6274
747.604	6232.74
747.793	6312.56
747.982	6285.24
748.171	6317.98
748.359	6246.3
748.548	6294.54
748.737	6289.12
748.926	6305.78
749.114	6154.85
749.303	6299.97
749.491	6269.35
749.68	6187.98
749.869	6327.09
750.057	6217.24
750.246	6193.21
750.434	6210.84
750.623	6249.79
750.811	6161.24
751	6233.7
751.188	6197.86
751.377	6247.65
751.565	6178.29
751.754	6193.79
751.942	6176.74
752.131	6254.44
752.319	6104.86
752.507	6139.74
752.696	6173.45
752.884	6184.49
753.072	6155.04
753.261	6125.98
753.449	6181.2
753.637	6119.97
753.825	6224.79
754.014	6121.14
754.202	6106.22
754.39	6167.06
754.578	6176.16
754.766	6134.7
754.955	6110.09
755.143	6151.75
755.331	6129.27
755.519	6132.37
755.707	6114.94
755.895	6050.42
756.083	6040.93
756.271	6039.57
756.459	6115.52
756.647	6094.59
756.835	6061.85
757.023	6034.53
757.211	6018.64
757.399	5962.85
757.587	5996.17
757.775	5914.41
757.963	5971.56
758.151	5983.19
758.339	5873.33
758.526	5903.75
758.714	5847.57
758.902	5671.84
759.09	5578.64
759.278	5175.26
759.465	4677.72
759.653	4179.21
759.841	3710.92
760.028	3244.57
760.216	2779.38
760.404	2555.61
760.591	2107.47
760.779	1804.64
760.967	1555.87
761.154	1328.61
761.342	1353.41
761.529	1352.05
761.717	1458.03
761.905	1464.23
762.092	1548.9
762.28	1491.16
762.467	1400.68
762.655	1345.66
762.842	1352.24
763.029	1404.55
763.217	1390.99
763.404	1411.53
763.592	1412.5
763.779	1390.41
763.966	1458.42
764.154	1540.76
764.341	1579.51
764.528	1615.16
764.716	1742.26
764.903	1841.07
765.09	1969.13
765.277	2060.58
765.465	2296.37
765.652	2386.08
765.839	2549.99
766.026	2780.93
766.213	2908.81
766.4	3002
766.588	3352.88
766.775	3404.61
766.962	3586.73
767.149	3747.73
767.336	4012
767.523	4024.4
767.71	4211.37
767.897	4362.11
768.084	4477
768.271	4588.21
768.458	4673.46
768.645	4772.46
768.832	4800.17
769.019	4912.93
769.206	4907.7
769.392	5000.31
769.579	5148.91
769.766	5087.3
769.953	5113.26
770.14	5237.46
770.327	5235.32
770.513	5304.1
770.7	5310.89
770.887	5275.43
771.073	5288.02
771.26	5300.81
771.447	5304.88
771.634	5310.3
771.82	5429.27
772.007	5291.71
772.193	5377.92
772.38	5409.5
772.567	5313.02
772.753	5250.24
772.94	5431.4
773.126	5322.12
773.313	5412.02
773.499	5321.93
773.686	5428.3
773.872	5304.1
774.059	5334.33
774.245	5285.51
774.432	5267.49
774.618	5196.77
774.804	5288.61
774.991	5204.13
775.177	5288.99
775.363	5191.93
775.55	5297.32
775.736	5227.77
775.922	5280.08
776.109	5216.34
776.295	5225.06
776.481	5277.95
776.667	5265.16
776.853	5165.77
777.04	5176.62
777.226	5190.18
777.412	5272.33
777.598	5108.81
777.784	5132.25
777.97	5107.26
778.156	5142.33
778.342	5194.06
778.528	5118.88
778.715	5044.29
778.901	5074.9
779.087	5102.61
779.272	5036.15
779.458	5055.33
779.644	5046.81
779.83	4993.53
780.016	5108.42
780.202	5000.12
780.388	5043.51
780.574	4918.55
780.76	4950.52
780.946	5033.05
781.131	4994.11
781.317	4958.46
781.503	4941.6
781.689	4982.68
781.874	5031.31
782.06	4888.52
782.246	4931.72
782.432	4930.95
782.617	4899.75
782.803	4985
782.989	4908.47
783.174	4866.82
783.36	4753.28
783.545	4784.09
783.731	4799.39
783.916	4707.17
784.102	4805.59
784.288	4767.43
784.473	4774.98
784.659	4739.72
784.844	4829.23
785.029	4755.61
785.215	4707.17
785.4	4666.29
785.586	4797.46
785.771	4608.55
785.956	4718.02
786.142	4621.15
786.327	4669.78
786.512	4667.26
786.698	4638.58
786.883	4505.87
787.068	4626.96
787.254	4622.31
787.439	4557.6
787.624	4540.55
787.809	4506.06
787.994	4498.7
788.18	4542.68
788.365	4438.05
788.55	4442.51
788.735	4459.56
788.92	4434.18
789.105	4424.3
789.29	4431.27
789.475	4320.64
789.66	4338.66
789.845	4358.62
790.03	4286.16
790.215	4367.34
790.4	4384
790.585	4366.56
790.77	4346.8
790.955	4298.75
791.14	4278.21
791.325	4356.87
791.51	4170.68
791.695	4296.43
791.879	4309.6
792.064	4243.34
792.249	4386.13
792.434	4291.97
792.618	4236.36
792.803	4304.76
792.988	4243.73
793.173	4268.91
793.357	4271.63
793.542	4280.15
793.727	4284.8
793.911	4291.97
794.096	4283.64
794.281	4340.6
794.465	4409.77
794.65	4306.69
794.834	4389.04
795.019	4388.65
795.203	4406.09
795.388	4397.17
795.572	4380.32
795.757	4421.97
795.941	4354.94
796.126	4366.76
796.31	4272.21
796.494	4319.09
796.679	4310.38
796.863	4295.26
797.048	4388.07
797.232	4312.7
797.416	4390.78
797.601	4399.5
797.785	4409.19
797.969	4462.47
798.153	4340.99
798.338	4453.36
798.522	4440.57
798.706	4497.34
798.89	4445.22
799.074	4581.82
799.258	4487.27
799.443	4403.37
799.627	4450.07
799.811	4454.91
799.995	4396.01
800.179	4399.5
800.363	4360.94
800.547	4388.46
800.731	4441.15
800.915	4340.41
801.099	4347.96
801.283	4387.1
801.467	4355.52
801.651	4376.06
801.835	4340.99
802.019	4347.96
802.202	4358.04
802.386	4294.49
802.57	4275.69
802.754	4337.31
802.938	4297.2
803.121	4364.82
803.305	4377.41
803.489	4324.33
803.673	4389.81
803.856	4333.43
804.04	4296.43
804.224	4291.19
804.407	4313.67
804.591	4341.18
804.775	4347.38
804.958	4356.87
805.142	4421.39
805.326	4324.52
805.509	4343.31
805.693	4408.61
805.876	4367.72
806.06	4417.91
806.243	4441.54
806.427	4452.97
806.61	4474.87
806.794	4403.18
806.977	4442.51
807.16	4411.51
807.344	4455.88
807.527	4367.72
807.71	4390.39
807.894	4377.22
808.077	4411.12
808.26	4341.18
808.444	4302.63
808.627	4358.23
808.81	4249.54
808.993	4208.66
809.177	4225.51
809.36	4229
809.543	4242.18
809.726	4089.12
809.909	4137.75
810.092	4093.18
810.276	4049.2
810.459	4098.8
810.642	4091.05
810.825	4034.09
811.008	4066.25
811.191	3882.39
811.374	3944.19
811.557	3911.64
811.74	3939.35
811.923	3859.72
812.106	3844.99
812.289	3794.23
812.472	3756.45
812.654	3723.9
812.837	3685.15
813.02	3631.29
813.203	3570.45
813.386	3484.24
813.569	3419.33
813.751	3324.98
813.934	3370.9
814.117	3286.42
814.3	3232.75
814.482	3170.95
814.665	3125.22
814.848	3033.58
815.03	2984.37
815.213	2952.4
815.396	2890.6
815.578	2878.58
815.761	2844.87
815.943	2911.91
816.126	2777.06
816.309	2730.75
816.491	2624.19
816.674	2598.23
816.856	2644.34
817.039	2701.11
817.221	2691.04
817.403	2655.19
817.586	2717
817.768	2652.48
817.951	2567.62
818.133	2574.79
818.315	2607.72
818.498	2651.9
818.68	2733.27
818.862	2680.96
819.045	2744.32
819.227	2739.47
819.409	2674.37
819.591	2711.19
819.774	2731.14
819.956	2673.21
820.138	2787.52
820.32	2765.24
820.502	2871.41
820.684	2993.09
820.866	3012.66
821.048	3070.59
821.231	3097.71
821.413	3085.89
821.595	3032.03
821.777	3126
821.959	3035.91
822.141	3100.62
822.323	2934.19
822.505	2854.36
822.686	2717.77
822.868	2542.63
823.05	2436.26
823.232	2379.88
823.414	2291.92
823.596	2401
823.778	2347.52
823.96	2432.96
824.141	2456.21
824.323	2470.94
824.505	2630.39
824.687	2676.5
824.868	2766.02
825.05	2895.63
825.232	3004.13
825.413	3004.52
825.595	3008.59
825.777	2945.23
825.958	2946.39
826.14	2983.21
826.321	3021.57
826.503	3021.38
826.685	3047.53
826.866	3036.49
827.048	3021.18
827.229	2946.39
827.411	2884.78
827.592	2820.46
827.773	2814.07
827.955	2762.72
828.136	2717.97
828.318	2728.04
828.499	2703.24
828.68	2635.82
828.862	2665.27
829.043	2713.32
829.224	2638.92
829.406	2602.88
829.587	2630.01
829.768	2663.52
829.949	2687.94
830.131	2676.89
830.312	2749.94
830.493	2726.49
830.674	2714.67
830.855	2678.83
831.036	2722.23
831.218	2761.95
831.399	2755.17
831.58	2704.21
831.761	2755.17
831.942	2696.46
832.123	2690.07
832.304	2630.97
832.485	2662.94
832.666	2696.85
832.847	2727.46
833.028	2709.25
833.209	2678.25
833.389	2681.74
833.57	2621.29
833.751	2626.13
833.932	2715.25
834.113	2687.16
834.294	2660.81
834.475	2718.35
834.655	2752.45
834.836	2758.65
835.017	2783.65
835.198	2704.6
835.378	2772.41
835.559	2821.82
835.74	2733.47
835.92	2756.72
836.101	2720.29
836.281	2817.17
836.462	2782.68
836.643	2821.43
836.823	2859.6
837.004	2843.13
837.184	2904.55
837.365	2829.37
837.545	2837.51
837.726	2789.65
837.906	2861.34
838.087	2823.56
838.267	2824.14
838.448	2810
838.628	2823.37
838.808	2819.1
838.989	2871.03
839.169	2760.2
839.349	2848.16
839.53	2885.75
839.71	2952.4
839.89	2786.55
840.07	2910.75
840.251	2843.32
840.431	2868.9
840.611	2875.1
840.791	2809.03
840.971	2842.16
841.151	2812.52
841.332	2765.05
841.512	2837.32
841.692	2769.12
841.872	2821.82
842.052	2820.46
842.232	2861.53
842.412	2735.4
842.592	2800.12
842.772	2811.16
842.952	2845.45
843.132	2808.45
843.312	2728.62
843.492	2758.46
843.672	2772.41
843.851	2699.95
844.031	2767.95
844.211	2754.78
844.391	2754.39
844.571	2751.1
844.751	2763.69
844.93	2744.9
845.11	2735.02
845.29	2753.23
845.47	2770.28
845.649	2744.9
845.829	2780.35
846.009	2738.89
846.188	2772.99
846.368	2756.52
846.547	2736.57
846.727	2769.7
846.907	2654.61
847.086	2735.02
847.266	2772.8
847.445	2718.35
847.625	2720.49
847.804	2689.1
847.984	2687.35
848.163	2641.63
848.343	2673.02
848.522	2680.77
848.701	2658.87
848.881	2622.64
849.06	2661.01
849.239	2634.85
849.419	2641.24
849.598	2550.18
849.777	2535.65
849.957	2506.98
850.136	2427.73
850.315	2437.42
850.494	2422.89
850.674	2429.67
850.853	2518.21
851.032	2467.06
851.211	2524.41
851.39	2463.77
851.569	2433.55
851.748	2448.85
851.927	2506.98
852.107	2461.06
852.286	2426.57
852.465	2474.81
852.644	2482.76
852.823	2497.29
853.002	2496.13
853.181	2467.84
853.359	2463.58
853.538	2416.3
853.717	2434.13
853.896	2322.34
854.075	2226.82
854.254	2166.56
854.433	2068.72
854.611	2144.67
854.79	2053.41
854.969	2157.07
855.148	2209.57
855.327	2112.31
855.505	2218.87
855.684	2224.88
855.863	2263.82
856.041	2247.35
856.22	2328.92
856.399	2281.07
856.577	2398.48
856.756	2387.43
856.934	2486.83
857.113	2487.8
857.291	2422.89
857.47	2345.78
857.648	2412.81
857.827	2378.91
858.005	2395.77
858.184	2366.9
858.362	2473.85
858.541	2374.45
858.719	2386.08
858.898	2377.17
859.076	2354.5
859.254	2384.53
859.433	2345.58
859.611	2329.31
859.789	2292.3
859.967	2383.56
860.146	2372.32
860.324	2292.5
860.502	2309.74
860.68	2296.57
860.859	2293.47
861.037	2261.89
861.215	2311.49
861.393	2279.52
861.571	2286.69
861.749	2246
861.927	2295.79
862.105	2305.67
862.283	2238.44
862.461	2237.28
862.639	2216.16
862.817	2230.11
862.995	2235.92
863.173	2224.49
863.351	2248.71
863.529	2283.78
863.707	2260.92
863.885	2272.15
864.063	2152.42
864.241	2205.7
864.418	2249.1
864.596	2201.05
864.774	2156.1
864.952	2153.39
865.129	2194.46
865.307	2157.46
865.485	2121.42
865.663	2151.26
865.84	2048.18
866.018	2054.38
866.196	1927.87
866.373	1911.4
866.551	1849.01
866.728	1834.09
866.906	1857.73
867.084	1906.17
867.261	1966.42
867.439	1971.65
867.616	1997.81
867.794	2009.24
867.971	2022.22
868.149	2002.26
868.326	2135.18
868.503	2047.6
868.681	2044.7
868.858	2047.41
869.035	1997.03
869.213	2051.86
869.39	2008.46
869.567	2067.75
869.745	2012.53
869.922	2004.01
870.099	2046.05
870.276	2052.83
870.454	2035.78
870.631	2034.62
870.808	2041.79
870.985	2029.39
871.162	2064.65
871.339	2010.6
871.517	1952.67
871.694	1940.65
871.871	2010.79
872.048	1982.89
872.225	1966.81
872.402	1978.24
872.579	1946.47
872.756	1964.68
872.933	1918.57
873.11	1942.2
873.287	1967.39
873.463	1919.73
873.64	1910.43
873.817	1934.84
873.994	1899.77
874.171	1896.67
874.348	1918.37
874.524	1878.27
874.701	1893.77
874.878	1837.58
875.055	1898.42
875.231	1867.8
875.408	1914.11
875.585	1822.66
875.762	1899.19
875.938	1866.84
876.115	1859.28
876.291	1833.12
876.468	1838.94
876.645	1784.49
876.821	1814.14
876.998	1820.34
877.174	1841.26
877.351	1854.44
877.527	1778.1
877.704	1831.96
877.88	1863.15
878.057	1797.67
878.233	1841.07
878.409	1794.96
878.586	1852.69
878.762	1786.43
878.938	1819.17
879.115	1703.31
879.291	1789.14
879.467	1699.24
879.644	1747.1
879.82	1778.1
879.996	1722.88
880.172	1708.54
880.349	1710.68
880.525	1738.96
880.701	1685.1
880.877	1676.19
881.053	1700.79
881.229	1689.36
881.405	1765.7
881.581	1709.9
881.757	1717.07
881.933	1742.26
882.109	1724.04
882.285	1697.89
882.461	1643.64
882.637	1709.9
882.813	1665.53
882.989	1715.52
883.165	1735.86
883.341	1701.18
883.517	1728.5
883.693	1698.47
883.869	1750.97
884.044	1677.54
884.22	1730.44
884.396	1756.21
884.572	1737.61
884.747	1733.92
884.923	1726.76
885.099	1752.91
885.275	1744
885.45	1689.56
885.626	1682.19
885.801	1662.04
885.977	1671.34
886.153	1620.2
886.328	1703.12
886.504	1646.54
886.679	1693.82
886.855	1647.32
887.03	1678.9
887.206	1700.6
887.381	1702.73
887.557	1700.79
887.732	1686.84
887.908	1706.22
888.083	1690.72
888.258	1669.41
888.434	1673.09
888.609	1672.7
888.784	1732.37
888.96	1674.44
889.135	1643.25
889.31	1673.48
889.485	1735.28
889.661	1671.73
889.836	1727.34
890.011	1704.86
890.186	1689.36
890.361	1659.91
890.537	1692.85
890.712	1716.1
890.887	1734.12
891.062	1702.34
891.237	1737.8
891.412	1650.03
891.587	1683.36
891.762	1704.48
891.937	1739.35
892.112	1609.93
892.287	1661.27
892.462	1603.53
892.637	1596.95
892.812	1569.05
892.987	1583.96
893.161	1543.28
893.336	1537.08
893.511	1554.32
893.686	1561.49
893.861	1497.36
894.035	1496.58
894.21	1540.95
894.385	1472.37
894.56	1470.04
894.734	1417.92
894.909	1391.19
895.084	1382.08
895.258	1325.89
895.433	1341.39
895.608	1378.2
895.782	1281.52
895.957	1265.25
896.131	1279.2
896.306	1228.83
896.48	1178.06
896.655	1186.78
896.829	1135.05
897.004	1118.39
897.178	1123.43
897.353	1107.54
897.527	1175.55
897.701	1128.85
897.876	1098.82
898.05	1158.5
898.224	1141.64
898.399	1147.45
898.573	1069.18
898.747	966.88
898.921	968.62
899.096	861.48
899.27	895.19
899.444	925.22
899.618	978.89
899.792	1023.84
899.967	1025
900.141	1005.82
900.315	922.12
900.489	953.32
900.663	970.56
900.837	963.97
901.011	932.39
901.185	1016.67
901.359	949.83
901.533	975.21
901.707	989.35
901.881	978.7
902.055	931.42
902.229	963.39
902.403	1021.13
902.576	974.44
902.75	1001.75
902.924	1094.17
903.098	1094.17
903.272	1154.23
903.446	1207.32
903.619	1180.97
903.793	1237.35
903.967	1209.45
904.14	1261.38
904.314	1228.63
904.488	1238.32
904.661	1282.88
904.835	1235.99
905.009	1273.97
905.182	1286.17
905.356	1248.2
905.529	1226.5
905.703	1202.48
905.876	1164.31
906.05	1145.71
906.223	1127.69
906.397	1045.73
906.57	1029.46
906.744	967.65
906.917	997.3
907.09	947.12
907.264	941.5
907.437	920.96
907.61	897.52
907.784	868.46
907.957	938.98
908.13	867.29
908.304	896.74
908.477	839.39
908.65	885.7
908.823	813.63
908.996	899.07
909.17	832.03
909.343	864.19
909.516	889.19
909.689	835.91
909.862	791.73
910.035	822.15
910.208	802.78
910.381	777.2
910.554	906.24
910.727	830.29
910.9	825.44
911.073	844.43
911.246	927.16
911.419	910.89
911.592	897.91
911.765	885.89
911.938	841.14
912.11	872.52
912.283	845.79
912.456	875.04
912.629	835.91
912.802	791.15
912.974	733.61
913.147	721.98
913.32	659.21
913.493	703.19
913.665	710.16
913.838	751.63
914.01	715.01
914.183	760.73
914.356	790.76
914.528	807.43
914.701	810.72
914.873	736.32
915.046	725.66
915.218	670.06
915.391	607.87
915.563	631.31
915.736	690.4
915.908	685.56
916.081	732.83
916.253	743.3
916.425	751.82
916.598	771.39
916.77	752.79
916.942	711.71
917.115	598.37
917.287	685.56
917.459	627.43
917.632	622.78
917.804	566.21
917.976	653.4
918.148	701.64
918.32	713.85
918.493	723.34
918.665	792.51
918.837	747.36
919.009	817.11
919.181	806.07
919.353	787.86
919.525	754.14
919.697	776.62
919.869	771.78
920.041	838.23
920.213	952.35
920.385	856.44
920.557	823.12
920.729	813.82
920.901	788.63
921.073	792.12
921.244	780.88
921.416	811.3
921.588	782.63
921.76	776.81
921.932	806.46
922.103	785.34
922.275	801.42
922.447	800.26
922.619	725.08
922.79	758.99
922.962	773.33
923.134	768.87
923.305	717.72
923.477	694.66
923.648	680.13
923.82	657.08
923.991	628.98
924.163	610.38
924.335	681.88
924.506	658.05
924.677	704.35
924.849	659.79
925.02	677.23
925.192	697.57
925.363	664.63
925.535	663.08
925.706	642.93
925.877	702.03
926.049	648.75
926.22	680.71
926.391	686.33
926.562	708.81
926.734	638.67
926.905	678.78
927.076	609.61
927.247	606.32
927.419	555.55
927.59	537.92
927.761	540.25
927.932	514.48
928.103	498.98
928.274	470.31
928.445	464.69
928.616	452.48
928.787	455
928.958	484.84
929.129	453.06
929.3	443.76
929.471	368.01
929.642	344.95
929.813	280.43
929.984	382.54
930.155	286.05
930.326	331.19
930.496	278.69
930.667	238.39
930.838	282.76
931.009	221.73
931.18	240.91
931.35	225.02
931.521	251.95
931.692	179.68
931.863	129.12
932.033	175.23
932.204	177.94
932.374	162.25
932.545	116.33
932.716	183.17
932.886	169.8
933.057	92.11
933.227	86.1
933.398	179.3
933.568	54.33
933.739	35.34
933.909	71.19
934.08	110.32
934.25	34.76
934.421	43.67
934.591	72.35
934.761	78.55
934.932	-3.02
935.102	81.65
935.272	77.77
935.443	63.44
935.613	48.13
935.783	77.77
935.953	36.51
936.123	181.82
936.294	23.91
936.464	56.65
936.634	48.13
936.804	41.16
936.974	29.14
937.144	86.1
937.314	53.94
937.484	30.5
937.655	31.66
937.825	93.85
937.995	60.14
938.165	121.95
938.334	69.64
938.504	113.42
938.674	69.83
938.844	125.05
939.014	179.3
939.184	179.88
939.354	209.72
939.524	185.5
939.694	155.47
939.863	131.64
940.033	200.61
940.203	237.42
940.373	194.41
940.542	182.2
940.712	151.01
940.882	192.47
941.051	188.21
941.221	181.04
941.391	212.04
941.56	133.96
941.73	117.88
941.899	251.76
942.069	129.5
942.238	134.15
942.408	133.38
942.577	166.12
942.747	135.12
942.916	104.9
943.086	111.29
943.255	157.21
943.425	125.82
943.594	110.52
943.763	51.81
943.933	75.64
944.102	27.79
944.271	125.63
944.441	119.62
944.61	99.47
944.779	121.37
944.948	182.59
945.117	92.3
945.287	78.55
945.456	56.85
945.625	73.7
945.794	129.89
945.963	51.04
946.132	121.37
946.301	97.34
946.47	100.83
946.639	33.79
946.808	95.79
946.977	128.92
947.146	145.2
947.315	120.79
947.484	139.77
947.653	91.14
947.822	95.4
947.991	102.38
948.16	171.74
948.329	137.84
948.498	120.4
948.666	136.48
948.835	150.82
949.004	81.84
949.173	68.67
949.341	92.89
949.51	112.45
949.679	125.82
949.847	128.15
950.016	157.6
950.185	146.55
950.353	99.47
950.522	107.61
950.69	179.1
950.859	102.38
951.028	157.4
951.196	135.12
951.365	120.98
951.533	104.7
951.701	139.97
951.87	123.5
952.038	48.91
952.207	124.47
952.375	149.46
952.543	83.39
952.712	116.33
952.88	63.82
953.048	162.44
953.217	101.41
953.385	111.29
953.553	162.25
953.721	81.84
953.89	110.13
954.058	82.04
954.226	54.14
954.394	108.77
954.562	38.06
954.73	107.42
954.898	79.9
955.067	134.74
955.235	95.21
955.403	138.42
955.571	162.83
955.739	111.87
955.907	92.11
956.075	83.59
956.243	64.99
956.41	135.9
956.578	71.96
956.746	70.02
956.914	101.99
957.082	116.33
957.25	147.72
957.418	98.5
957.585	128.15
957.753	176.2
957.921	84.94
958.089	115.94
958.256	129.89
958.424	133.77
958.592	96.57
958.759	45.03
958.927	114.78
959.095	90.17
959.262	114.78
959.43	102.96
959.597	85.33
959.765	88.04
959.932	81.26
960.1	149.46
960.267	119.24
960.435	134.35
960.602	157.4
960.77	97.73
960.937	84.94
961.104	124.66
961.272	70.22
961.439	90.37
961.606	132.41
961.774	146.55
961.941	110.52
962.108	136.67
962.275	132.41
962.443	138.22
962.61	168.83
962.777	210.1
962.944	173.48
963.111	160.12
963.278	163.99
963.446	120.01
963.613	160.7
963.78	150.43
963.947	155.47
964.114	155.27
964.281	231.03
964.448	177.94
964.615	135.32
964.782	140.35
964.949	172.32
965.116	174.65
965.282	197.9
965.449	147.91
965.616	115.75
965.783	165.73
965.95	162.05
966.117	98.89
966.283	107.22
966.45	159.73
966.617	156.43
966.784	202.74
966.95	176.58
967.117	199.45
967.284	175.62
967.45	161.08
967.617	220.57
967.784	201
967.95	230.45
968.117	163.8
968.283	235.29
968.45	266.48
968.616	200.8
968.783	198.48
968.949	191.12
969.116	225.02
969.282	195.57
969.449	238.2
969.615	186.85
969.781	172.52
969.948	171.93
970.114	179.68
970.28	249.63
970.447	179.1
970.613	229.48
970.779	194.8
970.945	221.15
971.112	185.5
971.278	184.92
971.444	212.82
971.61	240.91
971.776	160.5
971.942	229.86
972.108	197.9
972.275	186.47
972.441	200.61
972.607	244.2
972.773	167.09
972.939	198.09
973.105	191.5
973.271	130.67
973.437	162.44
973.602	115.36
973.768	188.4
973.934	161.47
974.1	176
974.266	95.02
974.432	183.75
974.598	164.38
974.763	196.15
974.929	145.39
975.095	229.09
975.261	135.51
975.426	131.64
975.592	123.89
975.758	228.51
975.923	114.2
976.089	135.32
976.255	186.08
976.42	165.73
976.586	153.53
976.751	154.5
976.917	235.48
977.082	183.17
977.248	114.39
977.413	118.46
977.579	138.03
977.744	166.7
977.91	109.16
978.075	119.04
978.24	156.05
978.406	179.3
978.571	110.71
978.736	126.21
978.902	169.42
979.067	95.02
979.232	101.99
979.397	154.88
979.563	180.85
979.728	135.32
979.893	125.24
980.058	130.86
980.223	189.76
980.388	162.05
980.554	153.33
980.719	109.74
980.884	155.47
981.049	202.55
981.214	139.19
981.379	174.65
981.544	143.65
981.709	145.2
981.874	175.23
982.039	139
982.204	161.67
982.368	151.78
982.533	140.74
982.698	196.15
982.863	199.64
983.028	153.53
983.193	157.79
983.357	170.38
983.522	165.15
983.687	161.86
983.852	174.84
984.016	160.31
984.181	167.67
984.346	181.82
984.51	206.42
984.675	146.75
984.839	180.46
985.004	132.99
985.168	204.48
985.333	180.65
985.498	173.68
985.662	163.41
985.827	162.44
985.991	139.97
986.155	141.9
986.32	177.75
986.484	202.35
986.649	184.33
986.813	120.01
986.977	148.49
987.142	163.41
987.306	114.39
987.47	114.78
987.634	149.65
987.799	145.97
987.963	171.55
988.127	205.65
988.291	235.48
988.455	132.22
988.62	133.77
988.784	169.61
988.948	167.09
989.112	132.02
989.276	161.47
989.44	146.75
989.604	157.21
989.768	129.12
989.932	216.3
990.096	101.41
990.26	144.62
990.424	90.56
990.588	151.78
990.752	187.05
990.915	172.13
991.079	126.21
991.243	137.64
991.407	137.25
991.571	143.45
991.734	168.64
991.898	152.95
992.062	209.72
992.226	119.04
992.389	124.66
992.553	89.01
992.717	117.88
992.88	102.96
993.044	135.32
993.207	149.85
993.371	145.39
993.535	142.68
993.698	131.25
993.862	162.63
994.025	185.3
994.189	128.92
994.352	132.6
994.515	151.2
994.679	167.67
994.842	130.67
995.006	142.1
995.169	96.57
995.332	117.69
995.496	132.22
995.659	78.16
995.822	111.87
995.985	109.94
996.149	141.52
996.312	123.5
996.475	194.41
996.638	101.22
996.801	154.69
996.964	187.24
997.128	110.32
997.291	117.69
997.454	131.05
997.617	77.77
997.78	139
997.943	110.52
998.106	142.1
998.269	102.19
998.432	130.47
998.595	96.57
998.758	84.17
998.92	70.22
999.083	23.72
999.246	88.43
999.409	85.91
999.572	58.2
999.735	105.48
999.897	114.59
1000.06	108
1000.223	83.2
1000.386	138.03
1000.548	123.3
1000.711	102.38
1000.874	127.95
1001.036	54.52
1001.199	118.07
1001.361	47.16
1001.524	101.02
1001.687	132.41
1001.849	78.94
1002.012	118.27
1002.174	82.23
1002.337	98.89
1002.499	107.8
1002.661	137.45
1002.824	55.3
1002.986	79.9
1003.149	111.1
1003.311	72.74
1003.473	140.16
1003.636	86.1
1003.798	107.03
1003.96	117.49
1004.123	83
1004.285	81.45
1004.447	68.09
1004.609	78.35
1004.771	138.03
1004.933	48.52
1005.096	77
1005.258	47.55
1005.42	72.35
1005.582	106.25
1005.744	59.75
1005.906	34.96
1006.068	65.37
1006.23	45.03
1006.392	24.88
1006.554	51.81
1006.716	100.25
1006.878	119.24
1007.04	51.62
1007.202	54.72
1007.363	77.97
1007.525	87.27
1007.687	77.39
1007.849	120.79
1008.011	45.81
1008.172	40.19
1008.334	45.22
1008.496	95.4
1008.658	17.52
1008.819	41.16
1008.981	30.31
1009.143	43.48
1009.304	72.93
1009.466	93.47
1009.627	116.72
1009.789	169.22
1009.95	97.15
1010.112	40.57
1010.273	76.8
1010.435	43.09
1010.596	77.19
1010.758	48.91
1010.919	73.7
1011.081	13.45
1011.242	57.82
1011.403	89.98
1011.565	57.62
1011.726	43.29
1011.887	77
1012.049	35.54
1012.21	83
1012.371	113.23
1012.532	-21.04
1012.693	76.22
1012.855	43.29
1013.016	52.2
1013.177	77.39
1013.338	71.38
1013.499	119.43
1013.66	76.03
1013.821	84.94
1013.982	60.92
1014.143	60.53
1014.304	30.5
1014.465	90.56
1014.626	70.22
1014.787	46.77
1014.948	159.15
1015.109	-31.11
1015.27	103.93
1015.431	37.67
1015.592	32.05
1015.752	97.73
1015.913	43.09
1016.074	55.69
1016.235	48.52
1016.395	41.16
1016.556	40.19
1016.717	52.59
1016.877	95.4
1017.038	21.01
1017.199	67.89
1017.359	50.26
1017.52	54.14
1017.681	27.01
1017.841	37.67
1018.002	21.39
1018.162	58.01
1018.323	101.41
1018.483	14.22
1018.644	22.94
1018.804	-4.18
1018.964	-3.02
1019.125	9.19
1019.285	44.06
1019.446	24.3
1019.606	22.36
1019.766	3.37
1019.926	53.75
1020.087	77
1020.247	14.03
1020.407	41.74
1020.567	76.42
1020.728	22.94
1020.888	11.71
1021.048	19.46
1021.208	-11.54
1021.368	27.21
1021.528	64.02
1021.688	57.62
1021.848	60.53
1022.008	47.74
1022.168	51.23
1022.328	27.59
1022.488	47.36
1022.648	5.51
1022.808	39.61
1022.968	48.13
1023.128	15.39
1023.288	28.17
1023.448	1.44
1023.608	30.11
1023.767	64.4
1023.927	20.42
1024.087	13.64
1024.247	-5.54
1024.406	15.58
1024.566	8.41
1024.726	-6.31
1024.885	50.65
1025.045	56.46
1025.205	31.47
1025.364	21.97
1025.524	49.49
1025.683	8.99
1025.843	48.71
1026.003	9.96
1026.162	76.22
1026.321	73.12
1026.481	55.69
1026.64	3.57
1026.8	29.92
1026.959	30.31
1027.119	23.52
1027.278	1.63
1027.437	-5.93
1027.597	31.47
1027.756	20.62
1027.915	36.51
1028.074	22.56
1028.234	-8.25
1028.393	22.56
1028.552	11.51
1028.711	-54.56
1028.87	63.44
1029.03	-22.2
1029.189	24.69
1029.348	-41.96
1029.507	-16
1029.666	10.54
1029.825	-3.21
1029.984	-7.86
1030.143	28.76
1030.302	12.48
1030.461	-21.23
1030.62	48.13
1030.779	67.7
1030.938	3.18
1031.097	-25.88
1031.255	59.17
1031.414	93.08
1031.573	71.57
1031.732	-22.78
1031.891	5.7
1032.049	75.64
1032.208	48.13
1032.367	5.12
1032.525	8.41
1032.684	14.42
1032.843	26.62
1033.001	-26.85
1033.16	141.13
1033.319	40.57
1033.477	21.59
1033.636	-16.78
1033.794	-25.11
1033.953	29.92
1034.111	20.04
1034.27	-5.73
1034.428	29.72
1034.587	8.8
1034.745	-5.15
1034.903	8.02
1035.062	16.74
1035.22	-12.71
1035.378	19.84
1035.537	-22.39
1035.695	19.65
1035.853	34.96
1036.011	22.17
1036.17	15.39
1036.328	-51.46
1036.486	13.45
1036.644	3.37
1036.802	-73.74
1036.96	-14.84
1037.119	-28.59
1037.277	-13.87
1037.435	-39.44
1037.593	-26.85
1037.751	18.49
1037.909	29.14
1038.067	29.14
