Data from oakcork_FLMT105791__12__17-26-47-056.txt Node

Date: Mon Mar 20 17:26:47 GMT 2023
User: antho
Spectrometer: FLMT10579
Trigger mode: 0
Integration Time (sec): 1.000000E-1
Scans to average: 10
Electric dark correction enabled: true
Nonlinearity correction enabled: false
Boxcar width: 0
XAxis mode: Wavelengths
Number of Pixels in Spectrum: 3648
>>>>>Begin Spectral Data<<<<<
345.248	-155.01
345.464	-155.01
345.681	-155.01
345.898	-178.84
346.114	-154.82
346.331	-25.59
346.548	-6.6
346.764	6.38
346.981	12.77
347.197	-20.36
347.414	-4.47
347.631	-4.28
347.847	40.67
348.064	10.64
348.28	25.17
348.497	-47.68
348.713	13.35
348.93	-4.86
349.146	37.18
349.363	6.38
349.579	17.42
349.796	-23.46
350.012	-10.87
350.229	18.78
350.445	24.2
350.661	-8.35
350.878	8.51
351.094	49.2
351.311	27.3
351.527	2.7
351.743	-16.68
351.96	46.68
352.176	37.96
352.392	25.17
352.609	59.46
352.825	-9.32
353.041	12
353.257	6.57
353.474	13.55
353.69	19.16
353.906	-0.79
354.122	-16.29
354.339	34.28
354.555	-2.53
354.771	-2.15
354.987	59.46
355.203	60.82
355.42	-18.03
355.636	5.22
355.852	-21.91
356.068	12.38
356.284	-26.75
356.5	68.18
356.716	8.12
356.932	-12.8
357.148	35.63
357.364	28.66
357.58	63.15
357.796	56.95
358.012	55.59
358.228	35.63
358.444	-46.71
358.66	56.17
358.876	15.87
359.092	-30.24
359.308	5.22
359.524	21.49
359.74	-0.02
359.956	1.73
360.172	24.4
360.388	48.42
360.604	24.59
360.819	106.35
361.035	8.7
361.251	39.7
361.467	13.93
361.683	39.9
361.898	35.25
362.114	46.48
362.33	29.43
362.546	61.98
362.762	20.71
362.977	14.32
363.193	-14.55
363.409	59.85
363.624	-11.25
363.84	19.55
364.056	14.9
364.271	26.91
364.487	39.9
364.703	9.28
364.918	4.44
365.134	6.96
365.35	32.15
365.565	114.88
365.781	35.05
365.996	38.73
366.212	59.08
366.427	54.81
366.643	8.31
366.858	4.25
367.074	-15.9
367.289	68.96
367.505	111.78
367.72	-10.87
367.936	-14.93
368.151	45.71
368.367	27.5
368.582	46.48
368.798	7.35
369.013	49.78
369.228	30.4
369.444	40.09
369.659	72.45
369.874	42.61
370.09	79.42
370.305	-13.97
370.52	23.81
370.736	43
370.951	19.75
371.166	67.02
371.381	97.05
371.597	49.39
371.812	0.57
372.027	-1.76
372.242	19.94
372.458	117.78
372.673	36.21
372.888	17.61
373.103	65.86
373.318	127.66
373.533	53.46
373.749	53.65
373.964	-11.06
374.179	71.09
374.394	20.33
374.609	59.46
374.824	12.58
375.039	96.47
375.254	6.77
375.469	105.38
375.684	20.52
375.899	88.53
376.114	57.91
376.329	45.13
376.544	49.39
376.759	48.42
376.974	-4.28
377.189	31.95
377.404	27.5
377.619	82.13
377.834	-14.74
378.049	-6.6
378.264	-11.45
378.478	40.48
378.693	-4.67
378.908	32.34
379.123	18.97
379.338	101.12
379.553	51.13
379.767	28.85
379.982	53.46
380.197	64.89
380.412	40.28
380.626	49.97
380.841	89.3
381.056	67.6
381.271	98.41
381.485	31.18
381.7	23.81
381.915	62.76
382.129	13.16
382.344	67.41
382.559	21.49
382.773	80.97
382.988	4.05
383.202	38.93
383.417	6.96
383.632	127.86
383.846	14.9
384.061	41.06
384.275	14.9
384.49	63.34
384.704	54.23
384.919	47.06
385.133	69.54
385.348	88.72
385.562	5.02
385.777	62.18
385.991	35.63
386.206	6.57
386.42	-4.28
386.634	74
386.849	49.39
387.063	66.44
387.277	30.79
387.492	32.53
387.706	0.18
387.92	25.17
388.135	71.67
388.349	58.3
388.563	62.37
388.778	36.41
388.992	62.56
389.206	78.65
389.42	135.61
389.635	38.73
389.849	77.48
390.063	86.01
390.277	53.65
390.491	112.36
390.706	68.57
390.92	101.12
391.134	36.21
391.348	80.97
391.562	34.66
391.776	51.71
391.99	28.08
392.205	82.71
392.419	62.37
392.633	73.41
392.847	108.48
393.061	-0.79
393.275	100.73
393.489	49.97
393.703	60.82
393.917	122.43
394.131	21.3
394.345	92.79
394.559	94.92
394.773	25.56
394.986	90.46
395.2	83.3
395.414	102.67
395.628	42.03
395.842	75.74
396.056	90.27
396.27	6.38
396.484	82.13
396.697	71.86
396.911	95.69
397.125	73.41
397.339	97.63
397.553	65.28
397.766	135.61
397.98	100.54
398.194	113.13
398.408	64.7
398.621	123.21
398.835	110.03
399.049	91.24
399.262	140.64
399.476	137.93
399.69	103.44
399.903	181.33
400.117	100.73
400.331	106.93
400.544	74.58
400.758	219.69
400.971	93.76
401.185	129.99
401.398	97.05
401.612	160.99
401.826	144.33
402.039	113.71
402.253	95.89
402.466	131.93
402.68	102.48
402.893	126.5
403.106	121.27
403.32	125.73
403.533	107.71
403.747	74.96
403.96	137.16
404.174	170.48
404.387	83.1
404.6	128.24
404.814	143.36
405.027	93.37
405.24	124.95
405.454	86.01
405.667	154.21
405.88	53.85
406.094	160.21
406.307	152.85
406.52	142.58
406.733	74.38
406.947	80.58
407.16	155.37
407.373	147.62
407.586	95.69
407.799	64.89
408.012	172.03
408.226	148.59
408.439	178.43
408.652	81.16
408.865	144.52
409.078	191.79
409.291	159.63
409.504	101.51
409.717	138.51
409.93	146.26
410.143	123.98
410.357	78.65
410.57	89.3
410.783	115.65
410.996	128.44
411.209	122.43
411.421	183.07
411.634	136.19
411.847	105.77
412.06	151.88
412.273	159.24
412.486	159.05
412.699	210.01
412.912	127.66
413.125	174.74
413.338	147.04
413.55	177.65
413.763	138.9
413.976	144.33
414.189	134.83
414.402	150.91
414.615	196.64
414.827	113.13
415.04	162.93
415.253	178.62
415.466	159.83
415.678	213.3
415.891	146.26
416.104	130.96
416.316	140.64
416.529	139.48
416.742	161.76
416.954	188.5
417.167	142.39
417.38	130.96
417.592	185.4
417.805	136.96
418.017	105.58
418.23	168.16
418.442	131.54
418.655	104.61
418.868	147.43
419.08	177.46
419.293	192.57
419.505	179.78
419.718	156.14
419.93	209.81
420.142	138.9
420.355	189.08
420.567	227.64
420.78	188.5
420.992	143.16
421.205	214.07
421.417	118.75
421.629	184.24
421.842	150.53
422.054	120.69
422.266	186.76
422.479	188.31
422.691	116.81
422.903	197.02
423.115	140.26
423.328	153.24
423.54	177.26
423.752	169.13
423.964	143.36
424.177	170.68
424.389	156.92
424.601	266.39
424.813	185.4
425.025	212.33
425.238	207.29
425.45	177.46
425.662	167.58
425.874	475.83
426.086	171.64
426.298	218.92
426.51	198.38
426.722	181.72
426.934	197.41
427.146	204.39
427.358	142.19
427.57	185.01
427.782	158.47
427.994	183.27
428.206	172.42
428.418	142.39
428.63	209.04
428.842	217.76
429.054	190.44
429.266	222.21
429.478	154.21
429.69	164.28
429.902	149.75
430.114	193.54
430.325	176.49
430.537	151.11
430.749	150.33
430.961	102.09
431.173	139.87
431.384	163.51
431.596	105.96
431.808	180.36
432.02	184.43
432.231	226.28
432.443	238.87
432.655	199.16
432.867	175.71
433.078	207.1
433.29	266.77
433.502	249.92
433.713	249.53
433.925	227.44
434.136	257.67
434.348	157.5
434.56	140.26
434.771	261.35
434.983	184.24
435.194	203.22
435.406	184.62
435.617	265.03
435.829	272.39
436.04	235.58
436.252	253.79
436.463	270.65
436.675	260.38
436.886	259.41
437.098	263.09
437.309	286.73
437.521	235.77
437.732	265.81
437.943	246.24
438.155	236.16
438.366	201.29
438.578	297.77
438.789	247.98
439	258.25
439.211	225.51
439.423	257.86
439.634	274.33
439.845	285.37
440.057	237.52
440.268	273.75
440.479	227.64
440.69	248.17
440.902	244.88
441.113	260.57
441.324	236.74
441.535	249.72
441.746	305.52
441.957	238.68
442.168	259.22
442.38	283.24
442.591	298.16
442.802	256.51
443.013	267.94
443.224	251.47
443.435	253.21
443.646	246.82
443.857	283.82
444.068	271.04
444.279	255.92
444.49	346.21
444.701	267.94
444.912	390.77
445.123	305.33
445.334	311.72
445.545	273.75
445.756	285.95
445.967	259.41
446.178	291.96
446.388	316.18
446.599	301.84
446.81	311.72
447.021	261.74
447.232	317.92
447.443	351.05
447.653	286.92
447.864	349.31
448.075	299.71
448.286	334.59
448.496	334.97
448.707	337.49
448.918	295.84
449.129	395.23
449.339	301.84
449.55	332.45
449.761	297.77
449.971	342.53
450.182	300.68
450.393	315.02
450.603	299.52
450.814	366.17
451.024	324.7
451.235	379.15
451.446	370.04
451.656	391.55
451.867	300.49
452.077	341.17
452.288	389.42
452.498	382.05
452.709	324.12
452.919	314.24
453.13	281.69
453.34	353.19
453.55	297.97
453.761	341.95
453.971	339.82
454.182	328
454.392	322.96
454.602	424.29
454.813	363.07
455.023	387.28
455.233	323.93
455.444	335.94
455.654	290.22
455.864	330.71
456.075	340.98
456.285	323.35
456.495	369.65
456.705	359
456.916	389.22
457.126	407.43
457.336	348.73
457.546	311.14
457.756	320.83
457.967	403.37
458.177	318.5
458.387	344.66
458.597	334.59
458.807	364.03
459.017	354.93
459.227	357.25
459.437	349.7
459.647	384.38
459.857	356.09
460.068	338.65
460.278	381.47
460.488	362.87
460.698	423.13
460.908	384.18
461.117	338.46
461.327	335.36
461.537	387.09
461.747	391.55
461.957	400.07
462.167	451.22
462.377	423.71
462.587	385.15
462.797	430.88
463.007	399.68
463.216	383.02
463.426	453.93
463.636	411.7
463.846	353.19
464.056	371.2
464.265	409.18
464.475	334.78
464.685	403.56
464.895	399.68
465.104	381.47
465.314	409.95
465.524	402.2
465.733	367.33
465.943	448.9
466.153	457.42
466.362	455.29
466.572	419.64
466.782	364.42
466.991	419.25
467.201	434.95
467.41	341.56
467.62	439.02
467.829	396.2
468.039	427.58
468.249	386.7
468.458	420.8
468.668	448.51
468.877	421
469.086	460.13
469.296	448.12
469.505	407.43
469.715	489.58
469.924	436.5
470.134	476.8
470.343	480.67
470.552	428.36
470.762	426.42
470.971	379.73
471.18	439.21
471.39	450.25
471.599	424.68
471.808	497.33
472.018	423.9
472.227	494.04
472.436	477.76
472.645	470.4
472.855	441.34
473.064	507.41
473.273	492.49
473.482	488.03
473.691	529.11
473.901	523.88
474.11	457.61
474.319	594.01
474.528	506.44
474.737	566.89
474.946	524.65
475.155	532.79
475.364	529.3
475.573	504.7
475.783	515.74
475.992	560.11
476.201	550.23
476.41	512.64
476.619	502.56
476.828	531.24
477.037	509.35
477.245	512.64
477.454	561.46
477.663	544.99
477.872	542.86
478.081	624.04
478.29	525.81
478.499	639.74
478.708	576.77
478.917	615.91
479.125	606.03
479.334	578.9
479.543	542.86
479.752	586.26
479.961	589.36
480.169	615.13
480.378	604.09
480.587	713.17
480.796	600.02
481.004	610.29
481.213	624.82
481.422	631.6
481.63	650.01
481.839	643.61
482.048	670.35
482.256	658.72
482.465	664.54
482.674	677.13
482.882	678.68
483.091	694.37
483.299	671.12
483.508	695.73
483.716	656.4
483.925	660.47
484.134	629.47
484.342	665.7
484.551	706
484.759	676.36
484.967	711.04
485.176	713.17
485.384	699.41
485.593	679.26
485.801	672.29
486.01	658.14
486.218	645.36
486.426	570.96
486.635	586.26
486.843	600.41
487.051	624.24
487.26	663.96
487.468	659.31
487.676	706
487.885	632.57
488.093	675
488.301	722.27
488.509	712.39
488.717	732.74
488.926	721.11
489.134	705.42
489.342	710.65
489.55	695.15
489.758	726.73
489.967	732.54
490.175	814.5
490.383	742.23
490.591	797.64
490.799	712.39
491.007	772.45
491.215	760.05
491.423	750.17
491.631	780.59
491.839	759.67
492.047	802.87
492.255	721.5
492.463	685.85
492.671	738.74
492.879	781.56
493.087	787.37
493.295	800.16
493.503	807.91
493.711	803.26
493.919	830
494.127	824.96
494.334	835.81
494.542	779.43
494.75	811.01
494.958	813.72
495.166	847.82
495.374	838.72
495.581	838.91
495.789	817.21
495.997	890.64
496.205	802.1
496.412	811.78
496.62	831.93
496.828	849.95
497.035	829.03
497.243	871.65
497.451	850.92
497.658	882.31
497.866	844.53
498.074	872.62
498.281	833.1
498.489	929.97
498.696	835.03
498.904	834.65
499.112	835.62
499.319	928.03
499.527	860.22
499.734	894.13
499.942	830.58
500.149	857.12
500.357	841.23
500.564	821.08
500.771	860.61
500.979	827.28
501.186	817.4
501.394	864.68
501.601	845.3
501.808	875.14
502.016	851.12
502.223	827.09
502.43	830
502.638	816.43
502.845	823.41
503.052	923.58
503.26	844.72
503.467	958.65
503.674	875.92
503.881	851.31
504.089	945.86
504.296	904.4
504.503	810.43
504.71	833.87
504.917	866.23
505.125	866.23
505.332	913.7
505.539	883.08
505.746	955.35
505.953	942.56
506.16	925.13
506.367	978.79
506.574	988.87
506.781	964.46
506.988	899.94
507.195	903.04
507.402	912.73
507.609	937.53
507.816	892
508.023	896.65
508.23	905.56
508.437	859.06
508.644	922.22
508.851	955.35
509.058	969.69
509.265	928.42
509.472	956.13
509.679	1052.42
509.885	932.3
510.092	958.45
510.299	945.47
510.506	959.23
510.713	950.31
510.92	957.29
511.126	977.44
511.333	1013.86
511.54	987.9
511.746	1017.74
511.953	1001.08
512.16	1020.26
512.367	978.6
512.573	940.63
512.78	1011.54
512.987	988.87
513.193	984.61
513.4	916.99
513.606	932.49
513.813	1017.93
514.02	951.67
514.226	1019.68
514.433	1003.21
514.639	938.11
514.846	970.66
515.052	965.04
515.259	967.95
515.465	970.85
515.672	995.84
515.878	1060.94
516.085	960.2
516.291	1023.36
516.497	946.25
516.704	980.93
516.91	909.82
517.117	916.02
517.323	870.88
517.529	902.26
517.736	893.74
517.942	944.7
518.148	900.71
518.354	910.21
518.561	957.29
518.767	952.83
518.973	969.49
519.179	1011.73
519.386	947.6
519.592	952.64
519.798	940.43
520.004	1045.64
520.21	981.7
520.417	1066.37
520.623	1047.58
520.829	1069.86
521.035	1081.09
521.241	1063.85
521.447	1090.39
521.653	1181.84
521.859	1060.94
522.065	1101.05
522.271	1181.26
522.477	1125.46
522.683	1141.16
522.889	1099.89
523.095	1096.01
523.301	1113.06
523.507	1071.41
523.713	1120.04
523.919	1081.29
524.125	1171.96
524.331	1096.59
524.537	1203.54
524.742	1183
524.948	1211.29
525.154	1169.44
525.36	1254.11
525.566	1207.42
525.772	1251.59
525.977	1127.98
526.183	1184.55
526.389	1189.79
526.595	1127.01
526.8	1151.42
527.006	1084.39
527.212	1073.54
527.417	1083.03
527.623	1056.68
527.829	1121.97
528.034	1169.25
528.24	1148.9
528.446	1122.56
528.651	1218.07
528.857	1201.8
529.062	1263.02
529.268	1218.07
529.473	1215.17
529.679	1231.05
529.884	1315.33
530.09	1265.93
530.295	1287.24
530.501	1281.23
530.706	1275.23
530.912	1225.82
531.117	1258.37
531.323	1299.06
531.528	1307.78
531.733	1316.69
531.939	1261.08
532.144	1298.67
532.35	1291.5
532.555	1302.93
532.76	1298.87
532.966	1295.18
533.171	1268.25
533.376	1244.03
533.581	1232.41
533.787	1272.13
533.992	1301.77
534.197	1361.45
534.402	1258.95
534.607	1298.48
534.813	1366.68
535.018	1298.48
535.223	1292.67
535.428	1319.98
535.633	1355.44
535.838	1361.06
536.043	1370.36
536.249	1441.66
536.454	1360.86
536.659	1350.21
536.864	1298.09
537.069	1300.03
537.274	1318.82
537.479	1350.6
537.684	1337.81
537.889	1294.8
538.094	1380.24
538.299	1351.18
538.504	1413.18
538.708	1329.86
538.913	1370.16
539.118	1335.87
539.323	1377.33
539.528	1343.43
539.733	1373.26
539.938	1396.32
540.142	1392.64
540.347	1347.88
540.552	1301.97
540.757	1357.18
540.962	1320.37
541.166	1310.88
541.371	1268.83
541.576	1315.92
541.781	1229.12
541.985	1354.08
542.19	1357.57
542.395	1395.35
542.599	1431.58
542.804	1393.61
543.008	1429.64
543.213	1333.35
543.418	1339.94
543.622	1399.42
543.827	1301.77
544.031	1418.21
544.236	1420.34
544.44	1389.15
544.645	1493.39
544.849	1350.6
545.054	1413.76
545.258	1490.09
545.463	1452.31
545.667	1395.74
545.872	1436.04
546.076	1424.99
546.281	1413.18
546.485	1375.2
546.689	1416.86
546.894	1452.31
547.098	1474.79
547.302	1388.38
547.507	1406.78
547.711	1441.66
547.915	1467.23
548.119	1398.06
548.324	1392.06
548.528	1452.31
548.732	1414.73
548.936	1476.14
549.141	1431.78
549.345	1411.63
549.549	1423.06
549.753	1415.31
549.957	1487.38
550.161	1487.77
550.366	1446.31
550.57	1392.83
550.774	1424.03
550.978	1400.78
551.182	1465.88
551.386	1392.64
551.59	1406.2
551.794	1411.43
551.998	1441.66
552.202	1424.22
552.406	1390.9
552.61	1456.38
552.814	1422.86
553.018	1490.09
553.222	1431.39
553.426	1403.1
553.63	1483.31
553.833	1398.84
554.037	1393.8
554.241	1452.51
554.445	1433.52
554.649	1423.64
554.853	1422.48
555.056	1486.03
555.26	1445.92
555.464	1431.19
555.668	1439.72
555.871	1444.95
556.075	1472.85
556.279	1388.18
556.483	1381.6
556.686	1405.23
556.89	1456.58
557.094	1442.24
557.297	1370.36
557.501	1437.59
557.704	1346.72
557.908	1450.38
558.112	1350.21
558.315	1475.95
558.519	1392.64
558.722	1409.49
558.926	1367.26
559.129	1318.24
559.333	1293.63
559.536	1309.91
559.74	1314.17
559.943	1297.9
560.147	1299.06
560.35	1357.96
560.553	1338.2
560.757	1312.82
560.96	1430.03
561.164	1323.08
561.367	1402.13
561.57	1345.17
561.774	1359.7
561.977	1374.43
562.18	1293.63
562.384	1389.73
562.587	1313.01
562.79	1304.87
562.993	1318.63
563.197	1385.28
563.4	1370.36
563.603	1380.24
563.806	1422.48
564.009	1304.68
564.212	1319.21
564.416	1281.82
564.619	1317.08
564.822	1281.43
565.025	1387.6
565.228	1290.15
565.431	1310.88
565.634	1250.82
565.837	1255.27
566.04	1239.19
566.243	1237.45
566.446	1148.32
566.649	1280.27
566.852	1244.42
567.055	1245.58
567.258	1315.92
567.461	1335.48
567.664	1295.96
567.867	1203.15
568.07	1271.35
568.273	1262.05
568.475	1303.32
568.678	1227.37
568.881	1258.57
569.084	1246.55
569.287	1150.65
569.489	1179.9
569.692	1251.01
569.895	1278.33
570.098	1150.84
570.3	1158.98
570.503	1119.84
570.706	1181.65
570.909	1153.55
571.111	1123.33
571.314	1144.64
571.516	1146.58
571.719	1169.44
571.922	1139.99
572.124	1142.32
572.327	1165.18
572.529	1079.35
572.732	1075.09
572.935	1160.72
573.137	1202.57
573.34	1152
573.542	1186.3
573.745	1190.37
573.947	1135.34
574.15	1151.42
574.352	1124.69
574.554	1176.03
574.757	1128.17
574.959	1106.67
575.162	1102.6
575.364	1088.84
575.566	1189.2
575.769	1119.26
575.971	1112.09
576.173	1022.58
576.376	1085.74
576.578	1120.62
576.78	1179.13
576.982	1024.71
577.185	1070.05
577.387	1061.91
577.589	1044.67
577.791	1080.12
577.993	1086.91
578.196	1075.47
578.398	1094.66
578.6	1108.61
578.802	1051.84
579.004	1038.86
579.206	1069.08
579.408	1107.25
579.61	1071.99
579.812	1112.29
580.014	1040.41
580.216	1069.08
580.418	1038.08
580.62	1048.16
580.822	1015.8
581.024	1080.32
581.226	1074.12
581.428	1054.16
581.63	1165.37
581.832	1042.54
582.034	1082.84
582.236	1084.97
582.438	1089.42
582.64	1137.09
582.841	1144.84
583.043	1147.74
583.245	1113.26
583.447	1095.04
583.649	1071.41
583.85	1087.29
584.052	1147.16
584.254	1054.55
584.456	1107.64
584.657	1033.63
584.859	1091.75
585.061	1062.11
585.262	1039.44
585.464	1041.18
585.666	1101.24
585.867	1036.14
586.069	1155.69
586.27	1063.85
586.472	1057.07
586.674	1038.66
586.875	1034.98
587.077	1035.76
587.278	1076.64
587.48	1013.86
587.681	1154.91
587.883	1066.56
588.084	986.93
588.285	1029.94
588.487	1017.74
588.688	1026.26
588.89	934.04
589.091	947.02
589.292	990.81
589.494	938.69
589.695	901.68
589.896	861.58
590.098	826.9
590.299	901.88
590.5	880.57
590.702	908.85
590.903	931.91
591.104	983.44
591.305	943.34
591.507	1032.66
591.708	968.72
591.909	944.89
592.11	1004.56
592.311	990.42
592.512	939.08
592.714	901.1
592.915	934.62
593.116	930.94
593.317	931.33
593.518	951.09
593.719	930.55
593.92	970.66
594.121	980.73
594.322	961.94
594.523	947.21
594.724	932.49
594.925	945.47
595.126	960.78
595.327	972.4
595.528	958.06
595.729	955.16
595.929	935.4
596.13	963.68
596.331	956.32
596.532	977.83
596.733	1025.68
596.934	975.69
597.135	975.31
597.335	946.25
597.536	894.71
597.737	938.5
597.938	916.6
598.138	955.16
598.339	930.16
598.54	949.93
598.74	938.88
598.941	953.41
599.142	1035.56
599.342	973.18
599.543	900.52
599.744	929.58
599.944	919.7
600.145	938.69
600.345	957.29
600.546	1033.63
600.746	1015.22
600.947	1011.15
601.147	976.47
601.348	996.62
601.548	938.3
601.749	939.27
601.949	897.42
602.15	933.46
602.35	915.83
602.551	967.17
602.751	890.64
602.951	924.16
603.152	867.2
603.352	986.16
603.552	920.67
603.753	945.66
603.953	965.81
604.153	929.78
604.354	920.67
604.554	906.14
604.754	934.04
604.954	900.52
605.155	948.38
605.355	945.08
605.555	978.99
605.755	1003.59
605.955	929.97
606.155	945.08
606.356	963.3
606.556	936.36
606.756	949.93
606.956	902.07
607.156	973.56
607.356	926.68
607.556	924.55
607.756	879.79
607.956	998.56
608.156	927.06
608.356	915.44
608.556	961.16
608.756	934.04
608.956	883.86
609.156	936.56
609.356	862.16
609.556	897.42
609.755	934.04
609.955	880.95
610.155	904.98
610.355	951.67
610.555	865.07
610.755	892
610.954	840.27
611.154	903.81
611.354	970.27
611.554	845.11
611.753	877.27
611.953	866.81
612.153	883.86
612.352	893.74
612.552	858.48
612.752	819.15
612.951	890.25
613.151	882.31
613.351	857.7
613.55	863.13
613.75	868.94
613.949	864.1
614.149	873.2
614.348	840.27
614.548	832.9
614.747	802.29
614.947	842.78
615.146	767.8
615.346	886.76
615.545	847.82
615.745	867.2
615.944	857.7
616.144	877.08
616.343	882.7
616.542	837.36
616.742	836
616.941	827.09
617.14	790.09
617.34	821.47
617.539	823.6
617.738	791.05
617.938	870.3
618.137	832.52
618.336	785.63
618.535	868.36
618.734	842.01
618.934	844.92
619.133	831.93
619.332	856.15
619.531	788.92
619.73	827.67
619.929	846.66
620.128	860.03
620.328	856.73
620.527	818.57
620.726	810.62
620.925	850.34
621.124	784.27
621.323	846.08
621.522	766.84
621.721	767.8
621.92	798.22
622.119	829.8
622.318	780.4
622.517	787.37
622.715	786.6
622.914	757.92
623.113	793.38
623.312	743.59
623.511	810.62
623.71	792.6
623.909	755.02
624.107	840.85
624.306	758.5
624.505	759.28
624.704	763.35
624.902	787.57
625.101	805
625.3	784.47
625.499	724.02
625.697	756.18
625.896	720.92
626.095	778.65
626.293	735.64
626.492	741.84
626.69	751.14
626.889	722.27
627.088	790.28
627.286	748.24
627.485	732.15
627.683	706
627.882	769.16
628.08	687.4
628.279	745.33
628.477	801.32
628.676	696.7
628.874	767.61
629.073	701.74
629.271	686.24
629.469	721.5
629.668	720.92
629.866	704.45
630.065	716.46
630.263	771.87
630.461	683.52
630.66	706
630.858	772.26
631.056	775.75
631.254	764.7
631.453	715.3
631.651	780.59
631.849	735.64
632.047	753.47
632.245	704.06
632.444	720.14
632.642	772.45
632.84	746.69
633.038	725.37
633.236	682.56
633.434	687.79
633.632	679.26
633.83	670.74
634.028	740.29
634.227	728.86
634.425	775.36
634.623	734.09
634.821	721.89
635.019	758.31
635.216	722.66
635.414	743.59
635.612	733.32
635.81	686.62
636.008	748.82
636.206	711.42
636.404	756.95
636.602	689.92
636.8	708.32
636.997	726.92
637.195	748.62
637.393	729.05
637.591	798.61
637.789	724.21
637.986	700.19
638.184	715.88
638.382	756.95
638.58	781.17
638.777	777.69
638.975	739.71
639.173	739.32
639.37	761.8
639.568	740.29
639.765	749.4
639.963	735.64
640.161	798.61
640.358	748.43
640.556	717.82
640.753	712
640.951	726.15
641.148	721.5
641.346	693.02
641.543	739.9
641.741	742.62
641.938	668.02
642.136	722.66
642.333	687.59
642.531	729.83
642.728	754.63
642.925	758.7
643.123	703.87
643.32	729.44
643.517	709.49
643.715	709.87
643.912	706.97
644.109	707.55
644.306	697.67
644.504	673.64
644.701	721.3
644.898	714.52
645.095	661.63
645.293	722.85
645.49	715.1
645.687	673.84
645.884	739.13
646.081	663.57
646.278	641.48
646.475	671.71
646.672	673.84
646.87	695.34
647.067	671.32
647.264	668.61
647.461	641.29
647.658	639.74
647.855	685.85
648.052	665.51
648.249	582.39
648.446	618.43
648.642	648.07
648.839	616.88
649.036	631.02
649.233	592.27
649.43	602.93
649.627	597.11
649.824	628.31
650.021	627.14
650.217	596.73
650.414	628.5
650.611	669.77
650.808	673.06
651.004	686.04
651.201	654.07
651.398	687.79
651.595	619.39
651.791	639.93
651.988	682.17
652.185	603.51
652.381	655.04
652.578	597.11
652.775	629.66
652.971	604.86
653.168	650.59
653.364	644.97
653.561	595.56
653.757	627.72
653.954	647.68
654.15	602.54
654.347	661.24
654.543	642.45
654.74	577.93
654.936	582.39
655.133	616.1
655.329	624.43
655.525	611.26
655.722	644.77
655.918	596.34
656.115	613.19
656.311	543.83
656.507	495.98
656.704	494.04
656.9	499.66
657.096	526.4
657.292	520.58
657.489	586.26
657.685	549.26
657.881	575.41
658.077	559.53
658.273	584.33
658.47	642.06
658.666	604.28
658.862	584.52
659.058	574.06
659.254	617.84
659.45	554.49
659.646	587.04
659.842	582.97
660.038	664.54
660.234	559.33
660.43	577.35
660.626	681.01
660.822	620.75
661.018	626.37
661.214	626.56
661.41	563.21
661.606	606.99
661.802	637.22
661.998	584.33
662.194	557.01
662.39	637.41
662.586	631.79
662.781	635.47
662.977	642.26
663.173	644.19
663.369	600.41
663.564	621.91
663.76	617.07
663.956	588.78
664.152	641.29
664.347	554.1
664.543	580.64
664.739	600.41
664.934	548.87
665.13	552.74
665.326	629.08
665.521	595.37
665.717	562.04
665.912	545.58
666.108	502.37
666.304	560.11
666.499	568.83
666.695	495.4
666.89	569.02
667.086	582.19
667.281	564.76
667.477	645.16
667.672	554.29
667.867	598.47
668.063	583.55
668.258	525.43
668.454	577.74
668.649	641.48
668.844	563.79
669.04	600.41
669.235	540.73
669.43	560.69
669.626	528.91
669.821	558.75
670.016	533.95
670.211	562.43
670.407	547.51
670.602	582.78
670.797	554.88
670.992	599.83
671.187	509.54
671.382	573.67
671.578	527.36
671.773	574.44
671.968	514.96
672.163	535.11
672.358	575.41
672.553	549.26
672.748	534.53
672.943	620.94
673.138	537.44
673.333	589.94
673.528	518.45
673.723	529.69
673.918	549.64
674.113	515.93
674.308	637.02
674.503	562.82
674.698	582.39
674.892	581.23
675.087	581.81
675.282	542.48
675.477	531.24
675.672	565.14
675.867	524.26
676.061	486.87
676.256	470.21
676.451	516.13
676.646	524.46
676.84	487.26
677.035	506.63
677.23	488.03
677.424	526.4
677.619	559.91
677.814	573.67
678.008	561.08
678.203	482.8
678.397	507.02
678.592	547.13
678.787	595.18
678.981	506.63
679.176	522.33
679.37	538.21
679.565	516.13
679.759	520
679.954	531.24
680.148	542.48
680.342	562.43
680.537	556.81
680.731	514.96
680.926	540.93
681.12	536.28
681.314	503.92
681.509	503.34
681.703	491.71
681.897	534.53
682.092	489.78
682.286	512.83
682.48	582.39
682.674	556.81
682.869	511.09
683.063	516.51
683.257	595.18
683.451	482.41
683.645	542.48
683.839	537.63
684.034	515.35
684.228	532.79
684.422	476.21
684.616	483
684.81	537.44
685.004	520
685.198	526.78
685.392	547.9
685.586	494.23
685.78	532.01
685.974	521.94
686.168	537.44
686.362	549.45
686.556	465.17
686.75	457.42
686.944	450.25
687.138	491.13
687.331	374.69
687.525	408.79
687.719	344.08
687.913	404.53
688.107	397.36
688.301	391.35
688.494	423.13
688.688	364.81
688.882	352.41
689.076	380.5
689.269	407.63
689.463	477.76
689.657	411.5
689.85	403.56
690.044	437.66
690.238	408.79
690.431	415.57
690.625	411.12
690.818	447.35
691.012	426.42
691.205	478.15
691.399	387.48
691.593	441.92
691.786	509.15
691.98	490.36
692.173	525.81
692.366	517.87
692.56	483.19
692.753	515.74
692.947	443.67
693.14	508.57
693.333	520
693.527	451.61
693.72	489.2
693.914	466.91
694.107	484.16
694.3	497.33
694.493	460.33
694.687	545.19
694.88	480.67
695.073	519.42
695.266	527.36
695.46	507.6
695.653	542.28
695.846	528.53
696.039	455.29
696.232	486.48
696.425	569.41
696.618	548.09
696.812	534.92
697.005	625.79
697.198	682.56
697.391	598.47
697.584	604.48
697.777	645.74
697.97	606.41
698.163	642.45
698.356	595.56
698.549	710.65
698.742	639.35
698.935	606.61
699.127	639.35
699.32	591.11
699.513	611.45
699.706	625.59
699.899	675
700.092	645.94
700.285	673.84
700.477	609.9
700.67	645.74
700.863	658.53
701.056	747.85
701.248	732.54
701.441	706.77
701.634	666.86
701.826	764.51
702.019	685.07
702.212	747.27
702.404	664.54
702.597	652.72
702.79	716.85
702.982	720.34
703.175	765.09
703.367	740.49
703.56	765.87
703.752	849.57
703.945	773.62
704.137	823.99
704.33	804.81
704.522	844.92
704.715	842.78
704.907	813.14
705.1	873.98
705.292	899.75
705.484	844.72
705.677	877.47
705.869	874.17
706.061	889.86
706.254	932.3
706.446	884.44
706.638	922.61
706.831	980.93
707.023	922.8
707.215	989.64
707.407	986.16
707.599	983.44
707.792	1018.13
707.984	1006.69
708.176	1050.68
708.368	992.36
708.56	1035.56
708.752	1033.43
708.944	974.73
709.136	1075.86
709.329	1017.54
709.521	1124.49
709.713	1118.1
709.905	1116.74
710.097	1139.22
710.289	1066.95
710.481	1114.22
710.672	1103.37
710.864	1125.07
711.056	1232.02
711.248	1148.13
711.44	1177.97
711.632	1153.36
711.824	1182.42
712.016	1255.66
712.207	1234.54
712.399	1225.82
712.591	1294.8
712.783	1248.3
712.975	1285.5
713.166	1262.63
713.358	1285.69
713.55	1308.55
713.741	1356.8
713.933	1297.7
714.125	1319.4
714.316	1277.55
714.508	1358.54
714.7	1375.78
714.891	1390.9
715.083	1400.78
715.274	1369
715.466	1363.77
715.657	1410.66
715.849	1308.94
716.04	1396.71
716.232	1302.93
716.423	1376.95
716.615	1350.01
716.806	1304.29
716.998	1313.01
717.189	1250.43
717.381	1193.08
717.572	1176.22
717.763	1220.79
717.955	1216.72
718.146	1179.9
718.337	1134.18
718.528	1145.22
718.72	1065.59
718.911	1104.92
719.102	1109.19
719.293	1189.98
719.485	1133.21
719.676	1122.94
719.867	1104.92
720.058	1121.01
720.249	1129.53
720.44	1136.12
720.632	1171.96
720.823	1197.92
721.014	1271.55
721.205	1332.96
721.396	1354.66
721.587	1449.99
721.778	1437.59
721.969	1526.91
722.16	1494.16
722.351	1533.49
722.542	1659.82
722.733	1673.77
722.924	1554.61
723.115	1636.18
723.305	1586.77
723.496	1637.54
723.687	1533.3
723.878	1542.02
724.069	1518.77
724.26	1571.08
724.45	1491.06
724.641	1474.21
724.832	1540.86
725.023	1514.51
725.213	1514.89
725.404	1464.13
725.595	1556.36
725.785	1486.22
725.976	1567.01
726.167	1546.28
726.357	1553.06
726.548	1672.22
726.739	1582.12
726.929	1648.58
727.12	1677.25
727.31	1703.41
727.501	1631.14
727.691	1669.31
727.882	1666.79
728.072	1724.14
728.263	1664.08
728.453	1755.14
728.644	1754.75
728.834	1784.4
729.024	1706.51
729.215	1728.4
729.405	1760.37
729.596	1866.16
729.786	1830.9
729.976	1837.87
730.167	1891.54
730.357	1854.14
730.547	1822.18
730.737	1902
730.928	1900.45
731.118	1949.27
731.308	1875.07
731.498	1906.46
731.688	1950.24
731.879	2003.91
732.069	2006.62
732.259	2037.82
732.449	2041.5
732.639	2121.9
732.829	2139.73
733.019	2190.68
733.209	2229.05
733.399	2279.23
733.589	2287.36
733.779	2336.58
733.969	2324.76
734.159	2360.99
734.349	2407.29
734.539	2471.04
734.729	2474.72
734.919	2500.49
735.109	2520.83
735.299	2464.45
735.488	2518.12
735.678	2503.78
735.868	2509.2
736.058	2526.25
736.248	2448.76
736.437	2457.86
736.627	2467.94
736.817	2599.49
737.007	2541.95
737.196	2593.87
737.386	2564.62
737.576	2519.86
737.765	2589.42
737.955	2589.03
738.144	2716.13
738.334	2648.51
738.524	2614.6
738.713	2646.38
738.903	2630.1
739.092	2707.6
739.282	2682.8
739.471	2713.8
739.661	2689
739.85	2746.54
740.04	2752.55
740.229	2815.91
740.419	2835.28
740.608	2818.04
740.797	2777.74
740.987	2895.73
741.176	2842.64
741.365	2815.52
741.555	2782.58
741.744	2865.12
741.933	2847.1
742.123	2833.73
742.312	2889.72
742.501	2902.51
742.69	2913.17
742.88	2863.57
743.069	2968.77
743.258	2904.64
743.447	2989.89
743.636	2946.49
743.825	2947.65
744.014	2971.87
744.204	2968.58
744.393	2904.84
744.582	3003.45
744.771	3038.33
744.96	2954.82
745.149	2996.87
745.338	2994.73
745.527	3043.56
745.716	2975.17
745.905	2977.1
746.094	3035.81
746.283	3074.36
746.471	3042.78
746.66	3067.78
746.849	3065.45
747.038	3117.57
747.227	2998.03
747.416	3044.14
747.604	3018.95
747.793	3038.13
747.982	3016.63
748.171	3081.53
748.359	3088.7
748.548	3093.16
748.737	3075.72
748.926	3027.09
749.114	2958.89
749.303	3055.38
749.491	3047.43
749.68	2964.7
749.869	3084.05
750.057	3033.87
750.246	3029.03
750.434	3062.35
750.623	3004.42
750.811	3019.53
751	3097.23
751.188	3023.6
751.377	3018.18
751.565	3027.48
751.754	3028.83
751.942	2981.17
752.131	3076.3
752.319	3001.32
752.507	2961.41
752.696	3042.01
752.884	3066.23
753.072	2991.44
753.261	3044.72
753.449	3016.82
753.637	2960.25
753.825	3101.88
754.014	3013.53
754.202	3001.9
754.39	3078.24
754.578	3060.8
754.766	2992.99
754.955	2979.23
755.143	3077.46
755.331	2969.55
755.519	2997.45
755.707	2980.2
755.895	3004.03
756.083	2960.64
756.271	2953.85
756.459	3022.83
756.647	3007.72
756.835	2954.82
757.023	2956.76
757.211	2973.81
757.399	2960.44
757.587	2928.47
757.775	2886.24
757.963	2922.66
758.151	2933.12
758.339	2876.94
758.526	2907.35
758.714	2887.59
758.902	2795.76
759.09	2761.08
759.278	2572.56
759.465	2404.19
759.653	2072.3
759.841	1908.01
760.028	1559.26
760.216	1377.91
760.404	1326.38
760.591	1073.54
760.779	899.94
760.967	796.87
761.154	660.08
761.342	667.06
761.529	667.83
761.717	749.79
761.905	708.32
762.092	786.79
762.28	714.91
762.467	753.27
762.655	687.59
762.842	693.79
763.029	690.31
763.217	732.93
763.404	714.52
763.592	753.85
763.779	703.48
763.966	742.81
764.154	805
764.341	835.42
764.528	837.36
764.716	866.62
764.903	942.18
765.09	964.26
765.277	1065.98
765.465	1201.6
765.652	1236.09
765.839	1288.21
766.026	1412.98
766.213	1455.03
766.4	1526.32
766.588	1683.26
766.775	1693.33
766.962	1804.35
767.149	1839.23
767.336	1982.41
767.523	1955.86
767.71	2091.29
767.897	2192.43
768.084	2255.98
768.271	2291.24
768.458	2361.18
768.645	2338.9
768.832	2355.56
769.019	2401.09
769.206	2447.98
769.392	2492.93
769.579	2568.88
769.766	2539.04
769.953	2524.32
770.14	2596.78
770.327	2565.2
770.513	2627.78
770.7	2637.85
770.887	2587.28
771.073	2661.1
771.26	2623.13
771.447	2589.22
771.634	2588.83
771.82	2678.15
772.007	2580.7
772.193	2640.95
772.38	2654.32
772.567	2639.79
772.753	2634.17
772.94	2654.32
773.126	2684.16
773.313	2694.43
773.499	2700.24
773.686	2653.16
773.872	2615.57
774.059	2643.47
774.245	2635.33
774.432	2606.85
774.618	2512.5
774.804	2658.58
774.991	2550.86
775.177	2635.33
775.363	2585.73
775.55	2612.47
775.736	2541.75
775.922	2612.47
776.109	2568.68
776.295	2599.88
776.481	2613.05
776.667	2598.33
776.853	2585.15
777.04	2529.55
777.226	2581.28
777.412	2649.09
777.598	2547.95
777.784	2535.36
777.97	2513.47
778.156	2570.82
778.342	2541.56
778.528	2558.42
778.715	2478.01
778.901	2505.14
779.087	2485.95
779.272	2479.56
779.458	2474.14
779.644	2534.59
779.83	2474.33
780.016	2548.92
780.202	2517.54
780.388	2474.52
780.574	2365.06
780.76	2420.86
780.946	2501.65
781.131	2487.89
781.317	2460.96
781.503	2420.27
781.689	2419.31
781.874	2517.73
782.06	2431.51
782.246	2427.25
782.432	2433.06
782.617	2463.67
782.803	2501.84
782.989	2377.26
783.174	2359.83
783.36	2340.06
783.545	2407.1
783.731	2377.46
783.916	2330.57
784.102	2379.2
784.288	2347.43
784.473	2353.04
784.659	2345.68
784.844	2389.08
785.029	2309.84
785.215	2345.88
785.4	2291.43
785.586	2365.64
785.771	2310.61
785.956	2356.92
786.142	2321.85
786.327	2262.37
786.512	2299.57
786.698	2277.29
786.883	2205.02
787.068	2273.8
787.254	2264.89
787.439	2232.53
787.624	2231.56
787.809	2244.16
787.994	2199.21
788.18	2292.4
788.365	2204.63
788.55	2174.22
788.735	2184.1
788.92	2182.93
789.105	2167.05
789.29	2217.81
789.475	2139.73
789.66	2130.43
789.845	2097.1
790.03	2129.27
790.215	2171.5
790.4	2171.7
790.585	2189.72
790.77	2159.88
790.955	2060.68
791.14	2126.75
791.325	2163.75
791.51	2054.09
791.695	2122.68
791.879	2071.34
792.064	2042.47
792.249	2162.2
792.434	2099.04
792.618	2094.2
792.803	2133.33
792.988	2114.15
793.173	2098.07
793.357	2153.68
793.542	2081.8
793.727	2091.1
793.911	2109.7
794.096	2098.27
794.281	2120.74
794.465	2223.62
794.65	2125.39
794.834	2164.92
795.019	2227.11
795.203	2167.05
795.388	2177.7
795.572	2174.6
795.757	2155.42
795.941	2184.87
796.126	2165.69
796.31	2084.32
796.494	2146.51
796.679	2151.93
796.863	2100.79
797.048	2144.77
797.232	2119.19
797.416	2156.2
797.601	2116.28
797.785	2202.11
797.969	2194.17
798.153	2129.07
798.338	2195.72
798.522	2177.32
798.706	2185.45
798.89	2171.5
799.074	2217.23
799.258	2186.81
799.443	2200.95
799.627	2191.85
799.811	2218.78
799.995	2144.18
800.179	2152.13
800.363	2132.95
800.547	2147.09
800.731	2189.91
800.915	2094.59
801.099	2101.95
801.283	2146.12
801.467	2123.07
801.651	2134.88
801.835	2176.54
802.019	2165.3
802.202	2148.25
802.386	2089.94
802.57	2122.87
802.754	2141.47
802.938	2103.89
803.121	2097.88
803.305	2171.31
803.489	2109.12
803.673	2144.96
803.856	2166.27
804.04	2094.2
804.224	2132.56
804.407	2108.15
804.591	2119
804.775	2100.01
804.958	2153.29
805.142	2217.03
805.326	2134.3
805.509	2137.21
805.693	2175.38
805.876	2163.17
806.06	2181.58
806.243	2193.4
806.427	2213.93
806.61	2216.65
806.794	2149.22
806.977	2185.45
807.16	2173.25
807.344	2178.87
807.527	2136.82
807.71	2138.37
807.894	2153.29
808.077	2203.47
808.26	2102.53
808.444	2079.67
808.627	2186.62
808.81	2099.43
808.993	2067.07
809.177	2062.23
809.36	2092.65
809.543	2094.97
809.726	2002.36
809.909	2041.89
810.092	1988.02
810.276	2032.97
810.459	2042.47
810.642	1990.74
810.825	1973.88
811.008	2006.24
811.191	1910.72
811.374	1949.27
811.557	1940.36
811.74	1980.86
811.923	1886.31
812.106	1853.37
812.289	1850.85
812.472	1819.66
812.654	1910.53
812.837	1818.5
813.02	1793.89
813.203	1789.05
813.386	1694.69
813.569	1671.63
813.751	1608.67
813.934	1632.5
814.117	1610.8
814.3	1609.64
814.482	1566.43
814.665	1543.76
814.848	1512.96
815.03	1466.07
815.213	1489.71
815.396	1461.42
815.578	1426.74
815.761	1391.86
815.943	1469.94
816.126	1390.51
816.309	1343.23
816.491	1310.49
816.674	1230.47
816.856	1293.25
817.039	1296.73
817.221	1367.26
817.403	1338.58
817.586	1320.76
817.768	1344.4
817.951	1247.52
818.133	1278.72
818.315	1284.72
818.498	1345.95
818.68	1386.44
818.862	1350.98
819.045	1394.58
819.227	1361.45
819.409	1305.45
819.591	1378.5
819.774	1350.98
819.956	1297.7
820.138	1413.37
820.32	1409.11
820.502	1419.18
820.684	1473.63
820.866	1468.98
821.048	1519.93
821.231	1526.71
821.413	1530.2
821.595	1484.09
821.777	1515.47
821.959	1498.42
822.141	1555.97
822.323	1443.01
822.505	1403.88
822.686	1355.05
822.868	1320.18
823.05	1176.61
823.232	1204.9
823.414	1104.15
823.596	1204.9
823.778	1177.58
823.96	1213.23
824.141	1225.24
824.323	1237.25
824.505	1325.02
824.687	1354.86
824.868	1371.13
825.05	1456.58
825.232	1470.53
825.413	1558.87
825.595	1509.08
825.777	1453.48
825.958	1443.01
826.14	1437.39
826.321	1461.23
826.503	1478.28
826.685	1498.62
826.866	1525.55
827.048	1478.08
827.229	1461.42
827.411	1416.86
827.592	1390.7
827.773	1369.97
827.955	1341.3
828.136	1378.88
828.318	1293.83
828.499	1301.77
828.68	1279.3
828.862	1324.25
829.043	1356.41
829.224	1346.33
829.406	1329.28
829.587	1282.78
829.768	1321.73
829.949	1322.89
830.131	1270.97
830.312	1362.03
830.493	1308.55
830.674	1309.33
830.855	1311.65
831.036	1324.25
831.218	1356.99
831.399	1392.45
831.58	1330.06
831.761	1313.2
831.942	1358.15
832.123	1349.05
832.304	1284.33
832.485	1325.21
832.666	1325.21
832.847	1359.9
833.028	1357.38
833.209	1320.95
833.389	1323.66
833.57	1245.78
833.751	1307.58
833.932	1367.26
834.113	1304.48
834.294	1315.92
834.475	1353.11
834.655	1362.8
834.836	1382.18
835.017	1382.76
835.198	1293.83
835.378	1332.38
835.559	1396.13
835.74	1348.85
835.92	1328.51
836.101	1316.69
836.281	1350.21
836.462	1367.84
836.643	1379.27
836.823	1412.4
837.004	1393.41
837.184	1444.95
837.365	1398.65
837.545	1396.13
837.726	1362.22
837.906	1452.89
838.087	1377.33
838.267	1375.01
838.448	1341.68
838.628	1371.13
838.808	1376.75
838.989	1449.79
839.169	1342.26
839.349	1412.59
839.53	1424.99
839.71	1407.36
839.89	1377.91
840.07	1426.74
840.251	1382.76
840.431	1434.68
840.611	1404.85
840.791	1359.12
840.971	1398.45
841.151	1384.31
841.332	1355.25
841.512	1382.56
841.692	1322.31
841.872	1386.83
842.052	1347.11
842.232	1399.61
842.412	1294.6
842.592	1341.88
842.772	1366.1
842.952	1390.7
843.132	1363.38
843.312	1351.76
843.492	1317.85
843.672	1392.25
843.851	1292.86
844.031	1387.41
844.211	1347.5
844.391	1296.35
844.571	1376.95
844.751	1350.79
844.93	1353.7
845.11	1294.22
845.29	1312.82
845.47	1351.18
845.649	1344.59
845.829	1364.55
846.009	1293.25
846.188	1346.33
846.368	1335.29
846.547	1338.2
846.727	1376.95
846.907	1306.23
847.086	1319.98
847.266	1362.41
847.445	1351.56
847.625	1335.1
847.804	1307.39
847.984	1316.88
848.163	1314.95
848.343	1288.4
848.522	1313.98
848.701	1325.41
848.881	1301.58
849.06	1294.8
849.239	1344.59
849.419	1301
849.598	1234.54
849.777	1241.71
849.957	1258.76
850.136	1216.91
850.315	1170.02
850.494	1215.55
850.674	1216.33
850.853	1231.44
851.032	1232.22
851.211	1267.67
851.39	1233.77
851.569	1165.18
851.748	1206.25
851.927	1250.23
852.107	1213.23
852.286	1191.53
852.465	1200.64
852.644	1236.87
852.823	1212.84
853.002	1196.76
853.181	1218.85
853.359	1244.42
853.538	1159.56
853.717	1221.56
853.896	1126.04
854.075	1064.24
854.254	1068.31
854.433	984.8
854.611	1085.16
854.79	995.65
854.969	1058.62
855.148	1073.92
855.327	1040.02
855.505	1081.09
855.684	1092.91
855.863	1112.67
856.041	1077.61
856.22	1102.41
856.399	1066.76
856.577	1173.32
856.756	1153.17
856.934	1246.17
857.113	1245.2
857.291	1178.55
857.47	1168.67
857.648	1184.94
857.827	1170.41
858.005	1185.72
858.184	1133.6
858.362	1207.22
858.541	1156.65
858.719	1142.51
858.898	1158.4
859.076	1157.04
859.254	1216.91
859.433	1115.58
859.611	1152.78
859.789	1097.17
859.967	1193.85
860.146	1190.95
860.324	1084.77
860.502	1115.19
860.68	1083.42
860.859	1091.17
861.037	1121.2
861.215	1119.26
861.393	1134.96
861.571	1115
861.749	1092.72
861.927	1092.72
862.105	1098.34
862.283	1119.46
862.461	1094.27
862.639	1073.73
862.817	1062.11
862.995	1113.64
863.173	1069.08
863.351	1118.87
863.529	1091.56
863.707	1136.51
863.885	1129.92
864.063	1056.87
864.241	1076.83
864.418	1134.57
864.596	1056.87
864.774	1027.43
864.952	1055.71
865.129	1058.81
865.307	1027.23
865.485	1041.57
865.663	1065.4
865.84	1003.21
866.018	1019.48
866.196	890.06
866.373	941.98
866.551	901.49
866.728	854.41
866.906	904.78
867.084	940.82
867.261	961.94
867.439	948.57
867.616	984.22
867.794	989.06
867.971	970.08
868.149	1012.12
868.326	1022.19
868.503	1032.66
868.681	1006.11
868.858	961.55
869.035	970.66
869.213	999.91
869.39	998.75
869.567	1060.94
869.745	967.95
869.922	1020.26
870.099	1020.45
870.276	1020.64
870.454	961.94
870.631	996.62
870.808	985.77
870.985	1033.24
871.162	1051.45
871.339	976.47
871.517	932.68
871.694	928.81
871.871	1008.83
872.048	923.38
872.225	929.39
872.402	984.03
872.579	897.23
872.756	996.81
872.933	924.55
873.11	935.01
873.287	974.53
873.463	918.73
873.64	930.55
873.817	972.79
873.994	933.26
874.171	932.68
874.348	954.58
874.524	892.58
874.701	905.56
874.878	869.52
875.055	934.81
875.231	909.43
875.408	938.3
875.585	877.85
875.762	935.59
875.938	898.97
876.115	905.36
876.291	874.17
876.468	889.09
876.645	827.67
876.821	877.47
876.998	890.25
877.174	903.43
877.351	875.33
877.527	872.04
877.704	876.69
877.88	919.31
878.057	875.53
878.233	939.27
878.409	870.3
878.586	900.52
878.762	858.87
878.938	890.83
879.115	773.42
879.291	854.99
879.467	823.8
879.644	838.72
879.82	883.28
879.996	807.52
880.172	791.44
880.349	834.07
880.525	884.05
880.701	815.08
880.877	798.22
881.053	842.59
881.229	839.49
881.405	876.11
881.581	789.7
881.757	835.62
881.933	848.98
882.109	873.98
882.285	863.9
882.461	804.62
882.637	814.69
882.813	793.57
882.989	795.12
883.165	897.81
883.341	753.66
883.517	868.94
883.693	848.6
883.869	822.63
884.044	804.81
884.22	871.46
884.396	839.1
884.572	816.82
884.747	881.34
884.923	859.06
885.099	883.86
885.275	871.07
885.45	806.55
885.626	819.92
885.801	805.58
885.977	828.64
886.153	725.76
886.328	829.8
886.504	825.35
886.679	844.14
886.855	798.8
887.03	841.04
887.206	832.32
887.381	837.55
887.557	852.08
887.732	845.5
887.908	844.14
888.083	865.65
888.258	805
888.434	813.33
888.609	790.67
888.784	828.64
888.96	804.81
889.135	821.67
889.31	791.83
889.485	820.31
889.661	803.26
889.836	879.21
890.011	840.46
890.186	828.25
890.361	801.52
890.537	828.25
890.712	819.53
890.887	785.63
891.062	814.3
891.237	868.36
891.412	802.68
891.587	833.87
891.762	850.53
891.937	879.98
892.112	779.43
892.287	780.59
892.462	774
892.637	745.14
892.812	753.66
892.987	774.59
893.161	740.1
893.336	759.09
893.511	773.62
893.686	744.17
893.861	725.37
894.035	737.58
894.21	729.44
894.385	692.63
894.56	722.85
894.734	683.91
894.909	699.8
895.084	679.65
895.258	664.54
895.433	684.49
895.608	661.05
895.782	621.33
895.957	653.11
896.131	629.47
896.306	560.88
896.48	588.01
896.655	591.88
896.829	529.88
897.004	545.19
897.178	558.36
897.353	531.43
897.527	562.82
897.701	564.95
897.876	517.68
898.05	594.79
898.224	562.82
898.399	625.79
898.573	586.84
898.747	467.5
898.921	507.8
899.096	444.05
899.27	417.51
899.444	444.05
899.618	473.31
899.792	442.89
899.967	502.76
900.141	533.18
900.315	461.88
900.489	458.39
900.663	495.59
900.837	497.33
901.011	434.95
901.185	529.3
901.359	493.46
901.533	494.43
901.707	494.62
901.881	451.61
902.055	436.11
902.229	473.11
902.403	546.93
902.576	452.58
902.75	501.98
902.924	575.99
903.098	554.1
903.272	553.91
903.446	601.57
903.619	562.04
903.793	610.87
903.967	590.33
904.14	640.51
904.314	624.82
904.488	601.38
904.661	642.26
904.835	578.32
905.009	623.07
905.182	680.42
905.356	643.81
905.529	619.78
905.703	569.21
905.876	593.43
906.05	538.41
906.223	563.79
906.397	478.35
906.57	489.2
906.744	431.27
906.917	470.4
907.09	470.01
907.264	488.23
907.437	458.2
907.61	429.72
907.784	467.3
907.957	449.67
908.13	419.64
908.304	469.43
908.477	428.36
908.65	458.39
908.823	396
908.996	479.12
909.17	415.77
909.343	401.62
909.516	424.68
909.689	431.65
909.862	392.52
910.035	420.03
910.208	382.05
910.381	387.09
910.554	483.19
910.727	424.87
910.9	389.22
911.073	392.13
911.246	457.81
911.419	447.54
911.592	436.3
911.765	418.09
911.938	372.37
912.11	400.85
912.283	447.15
912.456	455.68
912.629	426.81
912.802	397.55
912.974	358.8
913.147	348.54
913.32	330.71
913.493	334.39
913.665	363.65
913.838	345.63
914.01	341.37
914.183	372.37
914.356	377.02
914.528	422.16
914.701	440.76
914.873	396.39
915.046	367.72
915.218	322.96
915.391	270.07
915.563	292.74
915.736	344.47
915.908	377.98
916.081	350.67
916.253	349.12
916.425	347.18
916.598	373.14
916.77	365.39
916.942	330.13
917.115	275.69
917.287	356.09
917.459	311.14
917.632	292.35
917.804	246.04
917.976	338.85
918.148	343.3
918.32	340.79
918.493	388.83
918.665	409.57
918.837	358.22
919.009	397.17
919.181	427
919.353	390.38
919.525	384.18
919.697	352.8
919.869	398.13
920.041	434.37
920.213	476.02
920.385	414.22
920.557	394.84
920.729	402.2
920.901	401.23
921.073	357.64
921.244	381.28
921.416	409.18
921.588	387.87
921.76	348.92
921.932	448.9
922.103	371.01
922.275	385.15
922.447	361.52
922.619	377.4
922.79	376.05
922.962	338.27
923.134	402.2
923.305	337.3
923.477	326.84
923.648	335.17
923.82	369.07
923.991	268.52
924.163	288.09
924.335	339.82
924.506	303.2
924.677	360.16
924.849	302.23
925.02	310.75
925.192	360.16
925.363	344.85
925.535	326.45
925.706	321.02
925.877	376.82
926.049	318.31
926.22	311.34
926.391	343.89
926.562	352.02
926.734	293.32
926.905	330.52
927.076	265.03
927.247	306.69
927.419	278.59
927.59	244.49
927.761	293.12
927.932	232.29
928.103	280.72
928.274	238.1
928.445	237.91
928.616	265.42
928.787	231.9
928.958	272.39
929.129	256.51
929.3	243.14
929.471	181.33
929.642	147.43
929.813	121.27
929.984	210.01
930.155	134.83
930.326	202.26
930.496	153.63
930.667	104.8
930.838	140.06
931.009	111.78
931.18	129.02
931.35	119.72
931.521	139.48
931.692	82.33
931.863	72.64
932.033	104.99
932.204	119.53
932.374	114.1
932.545	68.18
932.716	131.73
932.886	109.26
933.057	9.67
933.227	40.67
933.398	143.16
933.568	32.73
933.739	14.71
933.909	54.43
934.08	89.5
934.25	-4.08
934.421	-6.02
934.591	63.34
934.761	9.67
934.932	-8.73
935.102	28.46
935.272	19.94
935.443	24.98
935.613	18
935.783	73.61
935.953	-10.09
936.123	156.53
936.294	-15.13
936.464	-25.78
936.634	11.03
936.804	-3.89
936.974	3.86
937.144	66.83
937.314	50.94
937.484	4.63
937.655	17.42
937.825	71.86
937.995	-9.51
938.165	79.81
938.334	30.79
938.504	37.76
938.674	25.95
938.844	37.57
939.014	75.35
939.184	82.13
939.354	108.09
939.524	113.71
939.694	69.93
939.863	64.5
940.033	107.32
940.203	130.76
940.373	99.76
940.542	104.99
940.712	62.95
940.882	95.31
941.051	92.79
941.221	96.47
941.391	124.56
941.56	51.52
941.73	56.36
941.899	173.19
942.069	66.63
942.238	85.62
942.408	83.3
942.577	93.56
942.747	56.17
942.916	23.62
943.086	34.47
943.255	91.05
943.425	78.06
943.594	69.93
943.763	6.77
943.933	43
944.102	-27.53
944.271	46.1
944.441	81.75
944.61	28.08
944.779	49.78
944.948	141.61
945.117	25.36
945.287	33.89
945.456	-16.48
945.625	29.24
945.794	55.4
945.963	14.13
946.132	80.2
946.301	1.73
946.47	76.32
946.639	3.47
946.808	21.1
946.977	62.37
947.146	119.53
947.315	24.2
947.484	84.65
947.653	38.15
947.822	59.08
947.991	0.18
948.16	110.42
948.329	75.35
948.498	55.98
948.666	30.79
948.835	52.3
949.004	47.65
949.173	13.55
949.341	53.07
949.51	65.28
949.679	113.91
949.847	80
950.016	125.73
950.185	123.4
950.353	45.71
950.522	42.61
950.69	82.13
950.859	68.38
951.028	79.42
951.196	67.99
951.365	41.45
951.533	51.52
951.701	89.11
951.87	84.26
952.038	46.1
952.207	41.06
952.375	114.1
952.543	40.86
952.712	36.21
952.88	19.94
953.048	89.88
953.217	76.13
953.385	25.17
953.553	111.39
953.721	34.08
953.89	61.4
954.058	12.19
954.226	35.44
954.394	59.85
954.562	7.15
954.73	59.27
954.898	49.39
955.067	98.6
955.235	37.96
955.403	79.23
955.571	120.3
955.739	75.16
955.907	30.6
956.075	46.48
956.243	33.11
956.41	63.73
956.578	13.55
956.746	-3.31
956.914	43.77
957.082	101.7
957.25	79.61
957.418	40.86
957.585	58.69
957.753	115.46
957.921	21.1
958.089	51.91
958.256	92.6
958.424	59.46
958.592	63.15
958.759	18.2
958.927	80.58
959.095	6.57
959.262	57.72
959.43	74.38
959.597	38.93
959.765	42.41
959.932	32.34
960.1	109.84
960.267	54.62
960.435	60.43
960.602	70.31
960.77	40.09
960.937	34.08
961.104	59.08
961.272	15.87
961.439	35.83
961.606	60.43
961.774	70.7
961.941	74
962.108	36.8
962.275	48.03
962.443	90.27
962.61	86.2
962.777	145.29
962.944	79.81
963.111	56.95
963.278	102.09
963.446	76.9
963.613	68.38
963.78	85.62
963.947	87.36
964.114	78.06
964.281	141.81
964.448	91.24
964.615	40.28
964.782	70.12
964.949	100.93
965.116	103.64
965.282	91.63
965.449	82.33
965.616	31.18
965.783	97.63
965.95	76.13
966.117	10.83
966.283	75.35
966.45	66.63
966.617	93.37
966.784	111.78
966.95	95.5
967.117	90.85
967.284	48.23
967.45	53.65
967.617	118.94
967.784	82.91
967.95	113.91
968.117	63.92
968.283	150.91
968.45	175.91
968.616	107.32
968.783	128.44
968.949	105.96
969.116	126.31
969.282	83.3
969.449	92.01
969.615	75.55
969.781	45.51
969.948	64.5
970.114	42.03
970.28	132.89
970.447	92.6
970.613	143.16
970.779	94.34
970.945	116.23
971.112	98.41
971.278	85.04
971.444	81.55
971.61	112.16
971.776	101.12
971.942	91.63
972.108	104.61
972.275	77.87
972.441	99.18
972.607	125.34
972.773	68.57
972.939	105.96
973.105	80.58
973.271	47.65
973.437	94.34
973.602	67.02
973.768	109.45
973.934	82.71
974.1	98.6
974.266	4.25
974.432	105.19
974.598	63.92
974.763	95.5
974.929	61.6
975.095	152.08
975.261	51.71
975.426	38.15
975.592	77.1
975.758	149.75
975.923	42.61
976.089	59.08
976.255	100.54
976.42	84.07
976.586	96.66
976.751	88.53
976.917	178.23
977.082	116.23
977.248	61.21
977.413	47.06
977.579	61.21
977.744	116.43
977.91	33.5
978.075	53.85
978.24	97.05
978.406	71.86
978.571	55.59
978.736	67.21
978.902	100.34
979.067	42.41
979.232	42.8
979.397	80.97
979.563	122.63
979.728	24.2
979.893	73.22
980.058	67.8
980.223	111.58
980.388	76.71
980.554	96.08
980.719	74.58
980.884	80.78
981.049	93.56
981.214	68.57
981.379	92.4
981.544	71.28
981.709	72.45
981.874	66.63
982.039	65.08
982.204	101.31
982.368	65.08
982.533	45.51
982.698	112.36
982.863	107.71
983.028	74
983.193	80.97
983.357	76.71
983.522	88.33
983.687	80.39
983.852	41.64
984.016	58.5
984.181	66.25
984.346	75.74
984.51	97.83
984.675	66.44
984.839	80.78
985.004	87.56
985.168	98.99
985.333	99.96
985.498	51.71
985.662	83.3
985.827	83.88
985.991	64.7
986.155	67.6
986.32	87.36
986.484	144.13
986.649	86.98
986.813	29.43
986.977	90.27
987.142	88.33
987.306	58.3
987.47	62.18
987.634	71.67
987.799	97.05
987.963	101.12
988.127	89.69
988.291	150.53
988.455	77.1
988.62	47.06
988.784	85.62
988.948	102.09
989.112	61.4
989.276	88.14
989.44	89.69
989.604	44.74
989.768	45.51
989.932	143.74
990.096	31.37
990.26	60.82
990.424	27.3
990.588	60.05
990.752	127.66
990.915	111
991.079	62.18
991.243	41.83
991.407	89.88
991.571	61.79
991.734	87.36
991.898	108.09
992.062	142.58
992.226	50.36
992.389	31.18
992.553	20.33
992.717	32.92
992.88	33.11
993.044	90.27
993.207	47.65
993.371	87.17
993.535	78.84
993.698	47.45
993.862	88.14
994.025	113.71
994.189	79.81
994.352	75.74
994.515	79.42
994.679	97.83
994.842	75.35
995.006	91.24
995.169	21.3
995.332	43.19
995.496	96.86
995.659	15.68
995.822	69.93
995.985	61.01
996.149	96.28
996.312	44.16
996.475	113.91
996.638	36.21
996.801	103.06
996.964	132.31
997.128	50.94
997.291	58.69
997.454	57.91
997.617	6.18
997.78	94.34
997.943	46.87
998.106	111.78
998.269	30.79
998.432	40.28
998.595	63.73
998.758	16.84
998.92	22.85
999.083	14.51
999.246	61.4
999.409	14.71
999.572	1.34
999.735	49.97
999.897	59.46
1000.06	37.76
1000.223	24.4
1000.386	76.32
1000.548	82.71
1000.711	60.82
1000.874	72.25
1001.036	-14.74
1001.199	107.9
1001.361	40.67
1001.524	44.74
1001.687	85.43
1001.849	37.96
1002.012	41.83
1002.174	61.21
1002.337	63.53
1002.499	18.97
1002.661	94.53
1002.824	41.45
1002.986	22.07
1003.149	51.52
1003.311	41.25
1003.473	101.7
1003.636	34.47
1003.798	46.1
1003.96	59.08
1004.123	40.67
1004.285	40.67
1004.447	59.08
1004.609	62.56
1004.771	81.55
1004.933	9.09
1005.096	13.74
1005.258	-32.18
1005.42	29.05
1005.582	68.76
1005.744	26.14
1005.906	1.15
1006.068	52.3
1006.23	1.15
1006.392	-3.89
1006.554	4.63
1006.716	81.36
1006.878	73.41
1007.04	21.49
1007.202	43
1007.363	39.31
1007.525	28.66
1007.687	55.01
1007.849	89.5
1008.011	15.1
1008.172	-1.37
1008.334	18
1008.496	77.48
1008.658	-26.37
1008.819	2.12
1008.981	-8.73
1009.143	27.5
1009.304	39.31
1009.466	27.5
1009.627	81.94
1009.789	120.69
1009.95	49.58
1010.112	11.22
1010.273	55.01
1010.435	13.74
1010.596	21.1
1010.758	27.5
1010.919	24.4
1011.081	-5.63
1011.242	44.55
1011.403	42.41
1011.565	29.05
1011.726	35.05
1011.887	10.64
1012.049	14.71
1012.21	55.98
1012.371	79.42
1012.532	-47.87
1012.693	17.81
1012.855	3.86
1013.016	52.88
1013.177	48.61
1013.338	8.51
1013.499	105.38
1013.66	61.01
1013.821	26.53
1013.982	64.11
1014.143	30.4
1014.304	17.03
1014.465	25.75
1014.626	31.76
1014.787	10.06
1014.948	125.34
1015.109	-50.97
1015.27	75.35
1015.431	24.78
1015.592	7.73
1015.752	78.26
1015.913	53.26
1016.074	22.26
1016.235	21.1
1016.395	39.9
1016.556	28.27
1016.717	20.71
1016.877	65.86
1017.038	-0.6
1017.199	64.7
1017.359	43.58
1017.52	33.5
1017.681	14.71
1017.841	33.11
1018.002	18.58
1018.162	8.31
1018.323	51.13
1018.483	10.45
1018.644	37.76
1018.804	-8.35
1018.964	14.13
1019.125	10.25
1019.285	42.8
1019.446	-14.93
1019.606	-23.46
1019.766	-30.82
1019.926	42.03
1020.087	30.4
1020.247	-12.8
1020.407	45.71
1020.567	47.84
1020.728	35.44
1020.888	-11.83
1021.048	-1.18
1021.208	-25.2
1021.368	-12.03
1021.528	44.74
1021.688	37.76
1021.848	49.78
1022.008	29.05
1022.168	11.61
1022.328	6.38
1022.488	28.08
1022.648	4.25
1022.808	7.35
1022.968	40.28
1023.128	-5.83
1023.288	-15.9
1023.448	-5.05
1023.608	41.06
1023.767	58.3
1023.927	12.58
1024.087	-8.54
1024.247	-25.01
1024.406	12.19
1024.566	-17.65
1024.726	9.86
1024.885	24.98
1025.045	51.71
1025.205	22.65
1025.364	25.75
1025.524	27.3
1025.683	16.06
1025.843	15.87
1026.003	11.8
1026.162	76.71
1026.321	49.78
1026.481	18.78
1026.64	-5.44
1026.8	8.51
1026.959	32.53
1027.119	25.95
1027.278	-6.02
1027.437	-7.18
1027.597	26.72
1027.756	32.15
1027.915	19.75
1028.074	46.68
1028.234	-1.18
1028.393	22.07
1028.552	-2.34
1028.711	-57.37
1028.87	63.15
1029.03	-13.58
1029.189	-0.02
1029.348	-52.91
1029.507	-19
1029.666	7.54
1029.825	-33.92
1029.984	-10.87
1030.143	27.11
1030.302	1.34
1030.461	-62.6
1030.62	0.76
1030.779	37.76
1030.938	-26.56
1031.097	1.15
1031.255	36.99
1031.414	49.78
1031.573	40.09
1031.732	-10.87
1031.891	7.73
1032.049	48.61
1032.208	39.9
1032.367	-17.45
1032.525	11.61
1032.684	14.71
1032.843	-18.81
1033.001	-32.18
1033.16	160.99
1033.319	59.66
1033.477	46.87
1033.636	-4.47
1033.794	-17.45
1033.953	37.38
1034.111	27.5
1034.27	-22.88
1034.428	49.58
1034.587	-21.72
1034.745	16.65
1034.903	18.58
1035.062	31.56
1035.22	-28.88
1035.378	12.58
1035.537	-0.79
1035.695	17.03
1035.853	-5.83
1036.011	55.59
1036.17	5.8
1036.328	-58.33
1036.486	12
1036.644	24.98
1036.802	-73.45
1036.96	-19.78
1037.119	-5.05
1037.277	-2.73
1037.435	-50.58
1037.593	-32.76
1037.751	25.56
1037.909	46.68
1038.067	46.68
