Data from oakcork_FLMT105791__170__17-31-43-057.txt Node

Date: Mon Mar 20 17:31:43 GMT 2023
User: antho
Spectrometer: FLMT10579
Trigger mode: 0
Integration Time (sec): 1.000000E-1
Scans to average: 10
Electric dark correction enabled: true
Nonlinearity correction enabled: false
Boxcar width: 0
XAxis mode: Wavelengths
Number of Pixels in Spectrum: 3648
>>>>>Begin Spectral Data<<<<<
345.248	-148.88
345.464	-148.88
345.681	-148.88
345.898	-174.07
346.114	-144.81
346.331	-55.3
346.548	43.9
346.764	13.29
346.981	-1.24
347.197	-22.75
347.414	28.79
347.631	-26.24
347.847	50.29
348.064	-8.22
348.28	9.03
348.497	-40.57
348.713	9.03
348.93	29.18
349.146	17.55
349.363	-8.99
349.579	30.92
349.796	4.57
350.012	12.9
350.229	12.51
350.445	0.89
350.661	-2.99
350.878	0.31
351.094	17.74
351.311	-6.28
351.527	12.51
351.743	-0.47
351.96	57.07
352.176	26.85
352.392	6.12
352.609	30.14
352.825	-12.09
353.041	9.03
353.257	24.72
353.474	10.77
353.69	13.68
353.906	12.9
354.122	5.34
354.339	70.44
354.555	22.39
354.771	-9.77
354.987	57.27
355.203	38.28
355.42	-37.09
355.636	3.41
355.852	-36.12
356.068	0.31
356.284	-17.13
356.5	39.64
356.716	15.81
356.932	0.89
357.148	48.16
357.364	4.18
357.58	49.52
357.796	48.74
358.012	43.9
358.228	16.39
358.444	-43.67
358.66	70.83
358.876	26.08
359.092	-11.32
359.308	28.98
359.524	26.08
359.74	19.88
359.956	-8.8
360.172	-20.23
360.388	36.54
360.604	7.48
360.819	73.16
361.035	36.92
361.251	17.74
361.467	-20.81
361.683	54.94
361.898	22.98
362.114	20.26
362.33	13.48
362.546	47.58
362.762	21.23
362.977	13.48
363.193	-32.63
363.409	46.81
363.624	-16.94
363.84	-28.76
364.056	-22.36
364.271	14.84
364.487	29.76
364.703	4.18
364.918	-17.52
365.134	1.66
365.35	8.64
365.565	84.2
365.781	9.8
365.996	5.34
366.212	79.74
366.427	33.24
366.643	-7.83
366.858	7.09
367.074	-15.77
367.289	47.58
367.505	92.14
367.72	-39.41
367.936	-3.37
368.151	51.26
368.367	41.77
368.582	38.47
368.798	-5.51
369.013	41.19
369.228	8.64
369.444	11.16
369.659	53.39
369.874	2.63
370.09	52.23
370.305	-43.87
370.52	2.05
370.736	64.24
370.951	-0.47
371.166	58.82
371.381	67.54
371.597	39.06
371.812	-21.39
372.027	-28.17
372.242	13.48
372.458	94.66
372.673	-1.24
372.888	9.22
373.103	16.19
373.318	82.26
373.533	23.56
373.749	30.92
373.964	-15.39
374.179	63.27
374.394	-19.07
374.609	44.48
374.824	-18.87
375.039	62.5
375.254	-13.64
375.469	40.41
375.684	21.04
375.899	45.64
376.114	18.13
376.329	14.06
376.544	72.57
376.759	53.59
376.974	-2.21
377.189	12.71
377.404	-1.24
377.619	56.69
377.834	-62.47
378.049	-23.33
378.264	3.21
378.478	9.41
378.693	-20.04
378.908	21.23
379.123	2.05
379.338	65.41
379.553	47.77
379.767	5.73
379.982	18.33
380.197	17.94
380.412	40.02
380.626	31.11
380.841	63.08
381.056	51.26
381.271	94.86
381.485	-2.02
381.7	-35.54
381.915	30.92
382.129	-9.77
382.344	31.5
382.559	9.8
382.773	61.72
382.988	-11.9
383.202	26.66
383.417	-22.94
383.632	104.93
383.846	48.94
384.061	-3.57
384.275	20.07
384.49	43.71
384.704	51.46
384.919	28.4
385.133	4.96
385.348	47.77
385.562	-4.34
385.777	44.67
385.991	6.12
386.206	-6.47
386.42	21.43
386.634	50.87
386.849	38.86
387.063	23.36
387.277	-27.59
387.492	-16.36
387.706	-34.37
387.92	0.31
388.135	64.63
388.349	18.13
388.563	38.67
388.778	29.56
388.992	52.04
389.206	30.92
389.42	77.61
389.635	54.17
389.849	30.34
390.063	39.83
390.277	35.57
390.491	61.53
390.706	34.41
390.92	64.24
391.134	7.09
391.348	46.42
391.562	-56.46
391.776	18.33
391.99	-24.88
392.205	41.38
392.419	-7.64
392.633	7.86
392.847	59.4
393.061	-1.24
393.275	79.94
393.489	13.09
393.703	32.86
393.917	67.15
394.131	-15.39
394.345	8.83
394.559	54.56
394.773	6.89
394.986	8.25
395.2	48.74
395.414	47.77
395.628	-8.8
395.842	22.39
396.056	2.44
396.27	-35.73
396.484	43.12
396.697	32.66
396.911	61.92
397.125	38.86
397.339	42.93
397.553	54.56
397.766	71.99
397.98	50.87
398.194	56.88
398.408	10.96
398.621	45.06
398.835	43.32
399.049	27.63
399.262	84.01
399.476	47.58
399.69	27.43
399.903	90.79
400.117	23.56
400.331	34.6
400.544	-2.21
400.758	121.4
400.971	18.91
401.185	53.39
401.398	10.19
401.612	41.19
401.826	45.84
402.039	35.18
402.253	0.5
402.466	42.54
402.68	20.46
402.893	16
403.106	29.37
403.32	7.48
403.533	31.89
403.747	51.65
403.96	28.98
404.174	48.94
404.387	10.77
404.6	9.99
404.814	54.75
405.027	49.13
405.24	31.89
405.454	25.11
405.667	59.98
405.88	-13.64
406.094	52.04
406.307	61.92
406.52	19.68
406.733	-6.67
406.947	-13.84
407.16	88.27
407.373	72.96
407.586	22.2
407.799	-6.47
408.012	64.24
408.226	47.39
408.439	77.81
408.652	-17.91
408.865	12.13
409.078	60.37
409.291	55.52
409.504	-8.02
409.717	22.2
409.93	47.58
410.143	46.03
410.357	-13.84
410.57	18.91
410.783	28.59
410.996	45.45
411.209	30.34
411.421	49.13
411.634	27.82
411.847	-5.7
412.06	42.93
412.273	39.64
412.486	31.31
412.699	94.47
412.912	34.21
413.125	40.22
413.338	47
413.55	56.3
413.763	32.28
413.976	42.16
414.189	2.83
414.402	3.41
414.615	84.01
414.827	6.12
415.04	57.85
415.253	15.61
415.466	48.55
415.678	84.97
415.891	30.92
416.104	29.56
416.316	39.83
416.529	19.1
416.742	73.74
416.954	56.11
417.167	9.61
417.38	12.13
417.592	71.02
417.805	0.89
418.017	15.03
418.23	55.91
418.442	28.21
418.655	24.72
418.868	34.21
419.08	85.56
419.293	76.45
419.505	62.69
419.718	46.03
419.93	74.71
420.142	32.86
420.355	62.5
420.567	74.71
420.78	65.6
420.992	32.47
421.205	105.71
421.417	0.5
421.629	32.28
421.842	-29.53
422.054	-19.26
422.266	68.12
422.479	63.86
422.691	18.52
422.903	57.85
423.115	19.68
423.328	14.06
423.54	51.26
423.752	48.16
423.964	29.76
424.177	65.79
424.389	29.18
424.601	112.68
424.813	71.41
425.025	59.21
425.238	71.8
425.45	54.94
425.662	50.29
425.874	303.52
426.086	29.56
426.298	35.96
426.51	55.52
426.722	47.39
426.934	9.61
427.146	42.35
427.358	-24.88
427.57	50.68
427.782	14.84
427.994	45.64
428.206	9.8
428.418	-12.87
428.63	34.41
428.842	50.68
429.054	52.04
429.266	51.26
429.478	22.78
429.69	45.26
429.902	-18.29
430.114	58.04
430.325	69.47
430.537	12.13
430.749	33.63
430.961	-2.21
431.173	60.17
431.384	59.4
431.596	-8.41
431.808	45.45
432.02	40.22
432.231	47.39
432.443	73.35
432.655	50.49
432.867	21.62
433.078	53.78
433.29	86.52
433.502	65.02
433.713	69.67
433.925	51.84
434.136	82.26
434.348	20.07
434.56	-12.87
434.771	121.01
434.983	15.81
435.194	51.84
435.406	42.35
435.617	76.45
435.829	102.8
436.04	78.58
436.252	59.79
436.463	87.3
436.675	52.62
436.886	45.45
437.098	56.3
437.309	90.21
437.521	20.84
437.732	46.42
437.943	46.61
438.155	67.54
438.366	-14.22
438.578	96.41
438.789	48.36
439	70.25
439.211	33.44
439.423	65.6
439.634	53.2
439.845	53.59
440.057	83.81
440.268	67.34
440.479	18.13
440.69	51.46
440.902	10.96
441.113	27.63
441.324	15.61
441.535	61.72
441.746	92.34
441.957	9.8
442.168	20.07
442.38	73.16
442.591	71.99
442.802	14.26
443.013	33.63
443.224	61.14
443.435	59.21
443.646	47.77
443.857	48.36
444.068	39.44
444.279	21.43
444.49	107.84
444.701	26.85
444.912	103.38
445.123	87.88
445.334	55.33
445.545	69.28
445.756	45.26
445.967	16.97
446.178	62.11
446.388	94.27
446.599	82.26
446.81	79.74
447.021	50.68
447.232	78.97
447.443	79.94
447.653	10.19
447.864	84.59
448.075	38.47
448.286	88.27
448.496	93.89
448.707	64.05
448.918	45.06
449.129	146
449.339	32.08
449.55	69.67
449.761	67.73
449.971	95.24
450.182	61.72
450.393	85.36
450.603	55.14
450.814	85.94
451.024	61.92
451.235	81.29
451.446	95.24
451.656	102.61
451.867	48.36
452.077	55.72
452.288	106.09
452.498	101.44
452.709	47.77
452.919	91.37
453.13	74.51
453.34	109.39
453.55	32.86
453.761	99.89
453.971	89.82
454.182	106.09
454.392	102.02
454.602	137.29
454.813	90.98
455.023	109.58
455.233	22.01
455.444	78.58
455.654	32.86
455.864	84.39
456.075	63.27
456.285	68.7
456.495	80.32
456.705	105.12
456.916	117.14
457.126	95.05
457.336	51.84
457.546	37.31
457.756	27.82
457.967	96.99
458.177	45.06
458.387	75.87
458.597	49.91
458.807	75.29
459.017	74.71
459.227	42.54
459.437	59.01
459.647	82.46
459.857	101.83
460.068	53.97
460.278	81.1
460.488	109.39
460.698	124.3
460.908	97.96
461.117	47.19
461.327	38.86
461.537	51.65
461.747	96.99
461.957	55.33
462.167	154.72
462.377	117.33
462.587	73.54
462.797	124.11
463.007	60.95
463.216	106.09
463.426	110.94
463.636	113.26
463.846	54.36
464.056	72.57
464.265	132.25
464.475	52.42
464.685	80.32
464.895	82.07
465.104	80.91
465.314	113.46
465.524	74.71
465.733	75.09
465.943	151.04
466.153	127.79
466.362	112.68
466.572	106.09
466.782	78.39
466.991	75.87
467.201	132.64
467.41	45.84
467.62	94.47
467.829	77.22
468.039	104.35
468.249	77.22
468.458	98.34
468.668	86.52
468.877	130.7
469.086	142.71
469.296	109.77
469.505	55.72
469.715	156.08
469.924	102.61
470.134	144.26
470.343	153.17
470.552	99.7
470.762	86.52
470.971	40.8
471.18	94.66
471.39	74.71
471.599	25.69
471.808	121.21
472.018	48.16
472.227	140.77
472.436	112.49
472.645	55.14
472.855	65.79
473.064	140.97
473.273	98.15
473.482	115.97
473.691	122.76
473.901	120.24
474.11	118.11
474.319	175.07
474.528	91.76
474.737	121.98
474.946	99.51
475.155	116.94
475.364	143.49
475.573	112.1
475.783	93.11
475.992	96.41
476.201	173.71
476.41	111.52
476.619	78.19
476.828	102.8
477.037	103.77
477.245	111.71
477.454	146.39
477.663	92.92
477.872	89.24
478.081	120.43
478.29	64.44
478.499	198.9
478.708	92.53
478.917	152.01
479.125	101.44
479.334	143.87
479.543	100.09
479.752	109.39
479.961	104.54
480.169	139.8
480.378	107.26
480.587	202.97
480.796	159.37
481.004	111.13
481.213	135.74
481.422	107.06
481.63	93.89
481.839	146
482.048	153.75
482.256	144.65
482.465	101.64
482.674	139.22
482.882	131.67
483.091	191.15
483.299	146.2
483.508	150.46
483.716	119.66
483.925	127.4
484.134	130.31
484.342	114.23
484.551	151.43
484.759	139.8
484.967	142.9
485.176	158.99
485.384	170.03
485.593	168.67
485.801	135.93
486.01	147.36
486.218	143.29
486.426	108.03
486.635	140.58
486.843	141.94
487.051	156.47
487.26	133.22
487.468	148.72
487.676	194.64
487.885	115.2
488.093	144.84
488.301	149.49
488.509	169.64
488.717	174.87
488.926	138.06
489.134	138.84
489.342	144.45
489.55	125.66
489.758	124.3
489.967	109.77
490.175	237.84
490.383	131.28
490.591	191.34
490.799	86.72
491.007	189.6
491.215	129.34
491.423	133.99
491.631	136.12
491.839	142.32
492.047	161.12
492.255	135.54
492.463	120.82
492.671	162.86
492.879	199.48
493.087	152.98
493.295	165.38
493.503	168.48
493.711	173.52
493.919	198.7
494.127	181.85
494.334	193.67
494.542	144.84
494.75	174.29
494.958	170.22
495.166	196.38
495.374	180.69
495.581	180.49
495.789	150.07
495.997	191.92
496.205	181.46
496.412	123.92
496.62	167.9
496.828	179.72
497.035	148.33
497.243	192.12
497.451	175.65
497.658	173.71
497.866	158.79
498.074	206.26
498.281	148.91
498.489	236.1
498.696	192.89
498.904	176.04
499.112	166.35
499.319	249.85
499.527	181.65
499.734	196.96
499.942	159.18
500.149	168.09
500.357	202.19
500.564	150.07
500.771	172.74
500.979	152.98
501.186	182.62
501.394	173.13
501.601	196.57
501.808	207.23
502.016	192.12
502.223	166.15
502.43	204.32
502.638	182.24
502.845	168.67
503.052	228.54
503.26	190.18
503.467	261.28
503.674	193.86
503.881	196.96
504.089	254.5
504.296	222.53
504.503	157.44
504.71	219.05
504.917	161.12
505.125	192.5
505.332	207.04
505.539	229.9
505.746	228.35
505.953	201.61
506.16	204.13
506.367	264.97
506.574	270.58
506.781	230.09
506.988	184.75
507.195	218.08
507.402	173.9
507.609	227.38
507.816	185.14
508.023	218.66
508.23	186.3
508.437	171.97
508.644	234.74
508.851	259.35
509.058	248.11
509.265	233.19
509.472	223.5
509.679	279.69
509.885	221.76
510.092	223.89
510.299	221.95
510.506	237.26
510.713	226.6
510.92	253.34
511.126	248.11
511.333	256.63
511.54	208.2
511.746	287.83
511.953	245.78
512.16	253.92
512.367	213.23
512.573	206.84
512.78	241.91
512.987	215.17
513.193	240.55
513.4	182.82
513.606	221.95
513.813	270.97
514.02	241.72
514.226	262.64
514.433	288.99
514.639	231.45
514.846	230.67
515.052	210.52
515.259	234.55
515.465	239.2
515.672	250.82
515.878	314.56
516.085	254.5
516.291	258.38
516.497	210.52
516.704	252.37
516.91	203.35
517.117	220.02
517.323	219.43
517.529	229.9
517.736	240.75
517.942	261.87
518.148	219.24
518.354	254.89
518.561	255.08
518.767	249.27
518.973	278.53
519.179	269.23
519.386	245.59
519.592	230.09
519.798	219.05
520.004	292.67
520.21	237.65
520.417	272.72
520.623	265.35
520.829	326.19
521.035	262.25
521.241	308.75
521.447	290.73
521.653	357.96
521.859	289.57
522.065	303.71
522.271	376.56
522.477	308.75
522.683	350.6
522.889	323.48
523.095	327.74
523.301	323.86
523.507	295.77
523.713	327.35
523.919	303.71
524.125	340.72
524.331	307.59
524.537	337.43
524.742	340.14
524.948	360.29
525.154	328.13
525.36	423.06
525.566	347.31
525.772	413.18
525.977	282.02
526.183	376.76
526.389	387.41
526.595	313.4
526.8	336.07
527.006	312.24
527.212	314.76
527.417	315.92
527.623	308.95
527.829	386.83
528.034	354.48
528.24	346.53
528.446	323.67
528.651	352.73
528.857	390.71
529.062	401.94
529.268	349.44
529.473	343.82
529.679	318.63
529.884	403.11
530.09	378.5
530.295	421.9
530.501	391.09
530.706	387.61
530.912	354.48
531.117	386.06
531.323	372.5
531.528	389.16
531.733	402.14
531.939	353.9
532.144	390.13
532.35	405.82
532.555	459.88
532.76	439.53
532.966	414.34
533.171	396.71
533.376	371.72
533.581	378.31
533.787	403.69
533.992	417.06
534.197	456.97
534.402	393.23
534.607	401.36
534.813	489.32
535.018	392.64
535.223	386.25
535.428	412.79
535.633	457.36
535.838	409.69
536.043	395.16
536.249	473.44
536.454	419.38
536.659	429.26
536.864	373.08
537.069	425.39
537.274	439.73
537.479	457.74
537.684	467.82
537.889	420.54
538.094	510.06
538.299	425.19
538.504	466.27
538.708	449.61
538.913	441.86
539.118	437.01
539.323	449.8
539.528	383.93
539.733	436.43
539.938	462.98
540.142	475.18
540.347	437.01
540.552	436.24
540.757	440.11
540.962	439.92
541.166	408.14
541.371	404.27
541.576	467.24
541.781	357.38
541.985	409.5
542.19	450.96
542.395	478.86
542.599	486.81
542.804	488.74
543.008	487.97
543.213	439.14
543.418	431.78
543.622	455.61
543.827	437.01
544.031	486.61
544.236	506.76
544.44	450.38
544.645	547.84
544.849	443.21
545.054	483.71
545.258	524.2
545.463	518
545.667	459.88
545.872	482.74
546.076	493.59
546.281	498.04
546.485	433.53
546.689	490.29
546.894	524.59
547.098	480.02
547.302	450.96
547.507	458.33
547.711	483.71
547.915	516.64
548.119	459.49
548.324	492.81
548.528	543.57
548.732	499.59
548.936	498.62
549.141	525.94
549.345	470.14
549.549	467.82
549.753	479.06
549.957	544.54
550.161	522.26
550.366	489.91
550.57	470.14
550.774	466.85
550.978	468.98
551.182	514.51
551.386	487
551.59	506.96
551.794	479.25
551.998	494.56
552.202	446.31
552.406	440.89
552.61	470.92
552.814	486.22
553.018	547.45
553.222	478.09
553.426	458.13
553.63	553.26
553.833	450.77
554.037	444.38
554.241	503.47
554.445	483.32
554.649	488.94
554.853	494.94
555.056	517.81
555.26	501.92
555.464	483.71
555.668	511.02
555.871	518.19
556.075	540.28
556.279	460.07
556.483	443.21
556.686	489.32
556.89	519.74
557.094	494.17
557.297	459.29
557.501	527.11
557.704	438.56
557.908	526.14
558.112	456.97
558.315	550.94
558.519	493.2
558.722	475.76
558.926	471.31
559.129	438.37
559.333	429.84
559.536	442.24
559.74	438.95
559.943	450.38
560.147	423.06
560.35	465.49
560.553	446.12
560.757	402.91
560.96	507.54
561.164	435.46
561.367	531.37
561.57	458.33
561.774	462.59
561.977	449.61
562.18	445.15
562.384	538.15
562.587	469.76
562.79	438.37
562.993	449.61
563.197	506.76
563.4	511.02
563.603	492.81
563.806	521.49
564.009	429.84
564.212	459.88
564.416	398.84
564.619	459.49
564.822	411.83
565.025	496.11
565.228	427.13
565.431	457.55
565.634	394
565.837	435.46
566.04	405.43
566.243	432.94
566.446	357.77
566.649	455.03
566.852	384.9
567.055	426.74
567.258	458.33
567.461	488.94
567.664	456
567.867	368.81
568.07	454.06
568.273	444.18
568.475	462.98
568.678	418.22
568.881	416.09
569.084	433.53
569.287	360.87
569.489	404.66
569.692	449.41
569.895	446.12
570.098	373.46
570.3	402.14
570.503	326.96
570.706	353.31
570.909	333.94
571.111	358.55
571.314	367.07
571.516	381.41
571.719	378.5
571.922	363.39
572.124	358.35
572.327	372.5
572.529	331.42
572.732	318.44
572.935	368.23
573.137	430.81
573.34	349.05
573.542	402.72
573.745	382.96
573.947	410.66
574.15	368.23
574.352	330.65
574.554	387.8
574.757	331.03
574.959	375.01
575.162	341.5
575.364	343.43
575.566	454.06
575.769	341.69
575.971	339.75
576.173	292.48
576.376	362.23
576.578	385.86
576.78	400.98
576.982	306.81
577.185	331.03
577.387	300.81
577.589	316.5
577.791	369.4
577.993	368.62
578.196	327.74
578.398	370.95
578.6	374.43
578.802	321.35
579.004	317.08
579.206	335.68
579.408	351.38
579.61	327.35
579.812	368.62
580.014	320.18
580.216	333.55
580.418	301
580.62	301.2
580.822	278.72
581.024	339.56
581.226	372.5
581.428	316.7
581.63	389.74
581.832	292.48
582.034	357.77
582.236	332.2
582.438	321.35
582.64	368.23
582.841	370.17
583.043	412.02
583.245	377.34
583.447	341.11
583.649	335.3
583.85	323.09
584.052	371.91
584.254	329.87
584.456	386.25
584.657	298.87
584.859	327.74
585.061	308.17
585.262	273.88
585.464	266.52
585.666	342.27
585.867	310.88
586.069	378.11
586.27	342.46
586.472	353.9
586.674	310.3
586.875	339.75
587.077	295
587.278	329.48
587.48	306.23
587.681	438.56
587.883	334.91
588.084	267.87
588.285	324.06
588.487	296.35
588.688	331.81
588.89	294.22
589.091	310.69
589.292	313.4
589.494	312.63
589.695	297.52
589.896	264
590.098	245.01
590.299	316.89
590.5	256.25
590.702	287.44
590.903	282.98
591.104	346.92
591.305	308.17
591.507	347.31
591.708	326.19
591.909	276.2
592.11	379.28
592.311	308.17
592.512	314.37
592.714	257.6
592.915	262.25
593.116	284.15
593.317	287.25
593.518	294.61
593.719	282.4
593.92	316.89
594.121	327.55
594.322	295.19
594.523	299.84
594.724	254.7
594.925	264.38
595.126	297.52
595.327	304.1
595.528	327.93
595.729	271.94
595.929	307.78
596.13	308.36
596.331	280.08
596.532	282.02
596.733	352.93
596.934	294.03
597.135	320.96
597.335	301
597.536	271.75
597.737	304.1
597.938	283.18
598.138	302.16
598.339	276.98
598.54	320.96
598.74	292.67
598.941	289.18
599.142	328.71
599.342	314.95
599.543	247.72
599.744	287.44
599.944	276.78
600.145	294.61
600.345	300.23
600.546	321.93
600.746	339.95
600.947	359.51
601.147	319.8
601.348	328.32
601.548	268.84
601.749	323.67
601.949	250.24
602.15	279.3
602.35	273.68
602.551	322.31
602.751	272.91
602.951	265.74
603.152	208.39
603.352	316.5
603.552	280.66
603.753	306.43
603.953	308.95
604.153	274.27
604.354	267.68
604.554	284.15
604.754	286.08
604.954	255.67
605.155	264
605.355	289.57
605.555	331.61
605.755	355.83
605.955	277.56
606.155	320.18
606.356	282.79
606.556	319.02
606.756	302.36
606.956	245.4
607.156	348.66
607.356	273.49
607.556	304.3
607.756	290.54
607.956	322.31
608.156	304.68
608.356	266.13
608.556	317.28
608.756	294.22
608.956	252.76
609.156	299.06
609.356	257.8
609.556	289.18
609.755	283.37
609.955	265.16
610.155	279.88
610.355	300.81
610.555	282.4
610.755	295.58
610.954	261.67
611.154	273.3
611.354	306.81
611.554	254.5
611.753	279.3
611.953	240.36
612.153	306.62
612.352	279.88
612.552	258.57
612.752	196.96
612.951	254.31
613.151	290.35
613.351	240.55
613.55	293.06
613.75	280.27
613.949	280.66
614.149	293.64
614.348	255.86
614.548	275.23
614.747	218.66
614.947	226.6
615.146	210.33
615.346	303.13
615.545	263.42
615.745	261.67
615.944	303.33
616.144	243.65
616.343	278.14
616.542	270
616.742	279.3
616.941	248.88
617.14	204.71
617.34	305.46
617.539	277.17
617.738	231.64
617.938	317.08
618.137	249.66
618.336	223.5
618.535	263.42
618.734	250.43
618.934	270.2
619.133	262.64
619.332	273.49
619.531	242.49
619.73	243.07
619.929	263.61
620.128	264.58
620.328	309.91
620.527	204.71
620.726	221.95
620.925	269.42
621.124	238.81
621.323	249.08
621.522	221.57
621.721	204.13
621.92	215.56
622.119	262.25
622.318	207.81
622.517	237.65
622.715	241.52
622.914	205.68
623.113	251.21
623.312	206.45
623.511	253.53
623.71	232.03
623.909	249.85
624.107	303.33
624.306	166.54
624.505	214.01
624.704	233.97
624.902	223.31
625.101	262.83
625.3	280.47
625.499	224.47
625.697	231.06
625.896	216.14
626.095	274.27
626.293	193.28
626.492	203.55
626.69	247.14
626.889	186.5
627.088	248.3
627.286	191.73
627.485	215.95
627.683	202.97
627.882	242.49
628.08	176.23
628.279	193.86
628.477	282.4
628.676	197.35
628.874	230.87
629.073	199.67
629.271	206.84
629.469	248.5
629.668	230.28
629.866	212.85
630.065	177.97
630.263	248.88
630.461	213.82
630.66	200.25
630.858	252.57
631.056	259.73
631.254	231.25
631.453	195.6
631.651	243.07
631.849	220.98
632.047	245.4
632.245	219.05
632.444	243.27
632.642	228.93
632.84	246.95
633.038	203.35
633.236	193.28
633.434	196.38
633.632	195.99
633.83	216.92
634.028	212.07
634.227	212.27
634.425	274.07
634.623	216.33
634.821	224.67
635.019	190.95
635.216	166.54
635.414	247.92
635.612	201.22
635.81	211.3
636.008	258.96
636.206	201.8
636.404	242.1
636.602	172.55
636.8	218.85
636.997	218.08
637.195	257.02
637.393	223.7
637.591	255.47
637.789	235.52
637.986	204.71
638.184	224.08
638.382	241.33
638.58	229.12
638.777	259.54
638.975	241.52
639.173	219.05
639.37	215.37
639.568	273.88
639.765	225.63
639.963	217.69
640.161	252.18
640.358	254.5
640.556	202.19
640.753	175.45
640.951	180.69
641.148	238.81
641.346	215.17
641.543	209.75
641.741	229.32
641.938	185.14
642.136	205.68
642.333	196.96
642.531	236.87
642.728	260.51
642.925	204.32
643.123	173.52
643.32	225.83
643.517	190.76
643.715	204.32
643.912	195.22
644.109	210.91
644.306	201.61
644.504	162.47
644.701	202.19
644.898	237.65
645.095	197.35
645.293	208
645.49	237.84
645.687	212.27
645.884	255.47
646.081	183.59
646.278	197.15
646.475	202.97
646.672	186.3
646.87	208
647.067	228.54
647.264	235.32
647.461	150.65
647.658	155.3
647.855	222.15
648.052	195.6
648.249	136.9
648.446	170.61
648.642	191.15
648.839	173.9
649.036	187.85
649.233	161.7
649.43	167.51
649.627	141.94
649.824	183.59
650.021	173.52
650.217	164.22
650.414	154.72
650.611	182.62
650.808	183.98
651.004	193.09
651.201	209.36
651.398	241.91
651.595	187.08
651.791	179.14
651.988	199.29
652.185	164.8
652.381	193.47
652.578	172.74
652.775	157.82
652.971	156.47
653.168	177.78
653.364	195.22
653.561	133.8
653.757	166.15
653.954	173.9
654.15	156.85
654.347	250.24
654.543	170.8
654.74	133.22
654.936	145.62
655.133	171.39
655.329	174.1
655.525	167.9
655.722	183.98
655.918	145.23
656.115	205.87
656.311	121.79
656.507	151.43
656.704	104.35
656.9	143.29
657.096	146.59
657.292	111.52
657.489	188.44
657.685	187.85
657.881	149.1
658.077	134.57
658.273	145.42
658.47	207.62
658.666	158.6
658.862	183.01
659.058	146.2
659.254	217.11
659.45	132.83
659.646	183.98
659.842	165.38
660.038	195.99
660.234	164.99
660.43	167.12
660.626	229.32
660.822	188.44
661.018	202.77
661.214	166.15
661.41	137.48
661.606	158.4
661.802	175.84
661.998	183.59
662.194	124.5
662.39	191.92
662.586	180.88
662.781	200.84
662.977	189.21
663.173	197.35
663.369	166.93
663.564	169.06
663.76	193.67
663.956	153.37
664.152	209.17
664.347	111.32
664.543	184.17
664.739	151.43
664.934	112.49
665.13	113.46
665.326	182.62
665.521	143.1
665.717	149.1
665.912	142.13
666.108	87.69
666.304	142.71
666.499	156.08
666.695	103.38
666.89	143.1
667.086	171.77
667.281	169.06
667.477	218.85
667.672	155.69
667.867	139.22
668.063	190.95
668.258	111.32
668.454	148.72
668.649	225.44
668.844	133.22
669.04	191.54
669.235	155.89
669.43	131.28
669.626	118.49
669.821	127.21
670.016	116.75
670.211	149.1
670.407	137.67
670.602	177
670.797	134.96
670.992	183.2
671.187	137.29
671.382	190.95
671.578	151.04
671.773	156.85
671.968	116.94
672.163	160.92
672.358	204.71
672.553	128.18
672.748	148.72
672.943	210.91
673.138	127.02
673.333	188.24
673.528	134.77
673.723	174.1
673.918	146
674.113	105.12
674.308	211.1
674.503	169.06
674.698	168.29
674.892	175.07
675.087	201.03
675.282	172.74
675.477	161.5
675.672	156.08
675.867	109.39
676.061	109.97
676.256	108.22
676.451	144.45
676.646	142.52
676.84	113.26
677.035	99.12
677.23	107.45
677.424	155.89
677.619	180.69
677.814	174.68
678.008	186.69
678.203	116.36
678.397	145.62
678.592	137.87
678.787	179.72
678.981	136.9
679.176	159.76
679.37	170.8
679.565	139.03
679.759	126.05
679.954	174.1
680.148	196.77
680.342	196.57
680.537	184.37
680.731	142.9
680.926	168.29
681.12	185.72
681.314	157.82
681.509	172.74
681.703	142.71
681.897	174.68
682.092	147.55
682.286	133.99
682.48	207.42
682.674	193.86
682.869	153.17
683.063	152.98
683.257	222.34
683.451	136.32
683.645	167.12
683.839	133.99
684.034	152.79
684.228	180.88
684.422	128.37
684.616	112.49
684.81	175.84
685.004	152.4
685.198	143.1
685.392	180.1
685.586	116.17
685.78	158.02
685.974	165.57
686.168	154.53
686.362	228.35
686.556	142.9
686.75	126.24
686.944	146.39
687.138	182.04
687.331	116.94
687.525	139.8
687.719	102.99
687.913	145.62
688.107	145.04
688.301	111.91
688.494	145.23
688.688	103.77
688.882	111.71
689.076	98.92
689.269	141.16
689.463	207.04
689.657	128.37
689.85	138.64
690.044	122.76
690.238	128.57
690.431	115.2
690.625	125.47
690.818	147.55
691.012	173.32
691.205	137.48
691.399	92.72
691.593	162.09
691.786	174.49
691.98	175.65
692.173	186.5
692.366	171.58
692.56	165.57
692.753	207.42
692.947	125.47
693.14	200.25
693.333	201.8
693.527	119.66
693.72	172.94
693.914	179.14
694.107	189.02
694.3	174.68
694.493	160.73
694.687	188.63
694.88	136.9
695.073	218.66
695.266	206.26
695.46	181.85
695.653	219.24
695.846	203.55
696.039	158.79
696.232	203.94
696.425	207.04
696.618	176.62
696.812	188.44
697.005	260.9
697.198	277.17
697.391	237.07
697.584	247.14
697.777	250.43
697.97	256.83
698.163	261.87
698.356	245.01
698.549	314.18
698.742	275.04
698.935	230.67
699.127	267.68
699.32	232.8
699.513	246.37
699.706	269.81
699.899	256.05
700.092	248.5
700.285	260.7
700.477	264.58
700.67	283.37
700.863	291.9
701.056	370.95
701.248	337.62
701.441	321.93
701.634	293.64
701.826	399.04
702.019	290.73
702.212	358.16
702.404	272.52
702.597	283.37
702.79	326.38
702.982	330.26
703.175	348.47
703.367	353.9
703.56	354.67
703.752	399.81
703.945	371.91
704.137	379.08
704.33	405.24
704.522	387.41
704.715	389.16
704.907	394.58
705.1	415.31
705.292	432.36
705.484	405.82
705.677	402.91
705.869	417.64
706.061	465.3
706.254	472.28
706.446	438.18
706.638	434.69
706.831	527.11
707.023	452.71
707.215	541.44
707.407	526.72
707.599	489.13
707.792	540.28
707.984	518
708.176	544.74
708.368	507.73
708.56	531.76
708.752	518.58
708.944	534.47
709.136	562.17
709.329	538.73
709.521	663.31
709.713	586.78
709.905	607.7
710.097	616.62
710.289	573.8
710.481	613.13
710.672	605.77
710.864	615.45
711.056	662.92
711.248	642.39
711.44	669.9
711.632	633.67
711.824	664.28
712.016	684.82
712.207	671.06
712.399	692.76
712.591	760.38
712.783	718.72
712.975	719.88
713.166	687.14
713.358	730.73
713.55	766.58
713.741	760.57
713.933	749.33
714.125	765.03
714.316	733.83
714.508	784.21
714.7	811.91
714.891	789.44
715.083	847.37
715.274	810.56
715.466	808.62
715.657	845.43
715.849	739.26
716.04	836.91
716.232	790.02
716.423	841.56
716.615	797
716.806	787.11
716.998	778.2
717.189	739.06
717.381	718.14
717.572	704.97
717.763	746.23
717.955	755.15
718.146	725.89
718.337	684.43
718.528	682.49
718.72	620.49
718.911	705.74
719.102	656.33
719.293	741
719.485	698.57
719.676	718.72
719.867	672.8
720.058	647.23
720.249	686.37
720.44	714.27
720.632	728.6
720.823	775.1
721.014	812.11
721.205	832.64
721.396	863.26
721.587	918.86
721.778	930.87
721.969	944.63
722.16	991.13
722.351	947.15
722.542	1073.28
722.733	1069.79
722.924	1017.29
723.115	1033.17
723.305	1051.58
723.496	1038.21
723.687	981.83
723.878	1010.31
724.069	993.26
724.26	1022.9
724.45	983.38
724.641	976.99
724.832	1004.89
725.023	1010.7
725.213	989.19
725.404	983.38
725.595	997.33
725.785	982.61
725.976	1046.15
726.167	1021.55
726.357	1013.99
726.548	1103.7
726.739	1060.69
726.929	1128.88
727.12	1125.01
727.31	1141.48
727.501	1102.15
727.691	1137.41
727.882	1094.2
728.072	1182.94
728.263	1137.8
728.453	1196.31
728.644	1175.96
728.834	1197.86
729.024	1189.53
729.215	1156.98
729.405	1205.8
729.596	1257.73
729.786	1236.41
729.976	1265.28
730.167	1283.11
730.357	1239.9
730.547	1257.53
730.737	1305
730.928	1333.87
731.118	1343.75
731.308	1299.38
731.498	1365.45
731.688	1389.28
731.879	1380.37
732.069	1440.43
732.259	1436.36
732.449	1444.69
732.639	1505.34
732.829	1540.02
733.019	1544.28
733.209	1580.12
733.399	1598.14
733.589	1621.97
733.779	1639.21
733.969	1621
734.159	1689.4
734.349	1678.93
734.539	1743.06
734.729	1698.89
734.919	1803.32
735.109	1824.24
735.299	1753.72
735.488	1802.54
735.678	1815.72
735.868	1798.67
736.058	1843.04
736.248	1791.31
736.437	1764.57
736.627	1738.03
736.817	1868.81
737.007	1859.12
737.196	1883.72
737.386	1866.29
737.576	1822.5
737.765	1885.08
737.955	1900.97
738.144	1961.22
738.334	1937.97
738.524	1925.77
738.713	1906.59
738.903	1946.69
739.092	1947.27
739.282	1996.29
739.471	1995.13
739.661	1956.96
739.85	2019.73
740.04	2021.28
740.229	2035.04
740.419	2052.28
740.608	2086
740.797	2079.8
740.987	2120.1
741.176	2119.71
741.365	2089.1
741.555	2076.5
741.744	2181.13
741.933	2118.35
742.123	2160.2
742.312	2156.52
742.501	2181.9
742.69	2163.88
742.88	2114.67
743.069	2267.92
743.258	2198.56
743.447	2220.65
743.636	2249.13
743.825	2187.91
744.014	2201.66
744.204	2273.35
744.393	2240.02
744.582	2295.24
744.771	2301.06
744.96	2240.41
745.149	2297.96
745.338	2249.13
745.527	2306.48
745.716	2267.15
745.905	2227.62
746.094	2327.6
746.283	2296.02
746.471	2300.09
746.66	2360.34
746.849	2338.06
747.038	2375.84
747.227	2302.22
747.416	2352.79
747.604	2315.97
747.793	2380.3
747.982	2334.57
748.171	2364.22
748.359	2363.64
748.548	2368.67
748.737	2356.27
748.926	2343.1
749.114	2286.72
749.303	2376.23
749.491	2319.65
749.68	2274.51
749.869	2399.28
750.057	2353.95
750.246	2329.92
750.434	2355.11
750.623	2364.22
750.811	2341.16
751	2379.91
751.188	2372.55
751.377	2341.35
751.565	2318.49
751.754	2313.65
751.942	2338.45
752.131	2368.09
752.319	2329.54
752.507	2296.02
752.696	2372.74
752.884	2389.21
753.072	2315.39
753.261	2368.67
753.449	2345.04
753.637	2345.04
753.825	2426.8
754.014	2327.21
754.202	2364.41
754.39	2411.88
754.578	2408.39
754.766	2352.79
754.955	2368.48
755.143	2424.67
755.331	2335.35
755.519	2354.34
755.707	2363.64
755.895	2341.35
756.083	2361.31
756.271	2310.74
756.459	2341.74
756.647	2368.29
756.835	2319.27
757.023	2308.03
757.211	2368.48
757.399	2312.1
757.587	2321.59
757.775	2262.5
757.963	2270.44
758.151	2310.35
758.339	2266.96
758.526	2284.97
758.714	2278.77
758.902	2166.21
759.09	2160.01
759.278	2034.07
759.465	1869
759.653	1602.21
759.841	1459.61
760.028	1247.26
760.216	1101.37
760.404	1038.02
760.591	837.88
760.779	712.33
760.967	625.14
761.154	505.79
761.342	516.45
761.529	521.1
761.717	559.27
761.905	542.8
762.092	604.02
762.28	545.32
762.467	571.09
762.655	518
762.842	548.22
763.029	553.46
763.217	546.67
763.404	555.59
763.592	563.92
763.779	537.37
763.966	578.84
764.154	620.69
764.341	629.99
764.528	636.38
764.716	705.55
764.903	714.65
765.09	764.83
765.277	813.46
765.465	945.79
765.652	988.03
765.839	997.91
766.026	1109.12
766.213	1124.62
766.4	1190.11
766.588	1346.66
766.775	1359.44
766.962	1424.74
767.149	1485.96
767.336	1600.08
767.523	1551.25
767.71	1609.38
767.897	1743.06
768.084	1807.39
768.271	1828.89
768.458	1853.11
768.645	1922.67
768.832	1849.24
769.019	1885.85
769.206	1899.8
769.392	1979.63
769.579	2095.49
769.766	2006.95
769.953	1999.2
770.14	2079.6
770.327	2013.73
770.513	2053.06
770.7	2133.66
770.887	2026.32
771.073	2105.95
771.26	2093.16
771.447	2061.58
771.634	2052.09
771.82	2163.3
772.007	2092.58
772.193	2086.38
772.38	2147.8
772.567	2086
772.753	2109.05
772.94	2177.25
773.126	2166.79
773.313	2135.59
773.499	2162.53
773.686	2133.66
773.872	2090.06
774.059	2153.61
774.245	2071.27
774.432	2139.28
774.618	2045.31
774.804	2085.8
774.991	2079.6
775.177	2126.49
775.363	2101.69
775.55	2129.4
775.736	2032.91
775.922	2083.67
776.109	2102.66
776.295	2110.21
776.481	2084.83
776.667	2125.91
776.853	2069.91
777.04	2062.36
777.226	2055.19
777.412	2129.2
777.598	2074.76
777.784	2031.94
777.97	2045.89
778.156	2061.58
778.342	2063.13
778.528	2039.5
778.715	2004.43
778.901	2023.42
779.087	2050.35
779.272	2023.8
779.458	1985.25
779.644	2039.69
779.83	1964.52
780.016	2090.45
780.202	2023.61
780.388	2004.82
780.574	1941.85
780.76	1978.27
780.946	2013.92
781.131	1969.75
781.317	2026.52
781.503	1958.9
781.689	1977.5
781.874	2079.02
782.06	1956.19
782.246	1982.15
782.432	1939.33
782.617	1958.7
782.803	1995.52
782.989	1897.87
783.174	1944.95
783.36	1882.17
783.545	1924.22
783.731	1950.57
783.916	1859.31
784.102	1935.84
784.288	1874.62
784.473	1906.2
784.659	1860.28
784.844	1901.55
785.029	1883.92
785.215	1865.9
785.4	1807.58
785.586	1945.34
785.771	1849.24
785.956	1869.58
786.142	1905.04
786.327	1858.54
786.512	1861.44
786.698	1854.86
786.883	1806.03
787.068	1815.14
787.254	1837.81
787.439	1826.57
787.624	1861.64
787.809	1792.86
787.994	1808.94
788.18	1862.02
788.365	1781.43
788.55	1769.8
788.735	1777.94
788.92	1782.01
789.105	1722.72
789.29	1791.31
789.475	1733.57
789.66	1752.56
789.845	1734.54
790.03	1697.34
790.215	1758.56
790.4	1767.48
790.585	1796.54
790.77	1771.54
790.955	1668.86
791.14	1756.82
791.325	1795.76
791.51	1637.28
791.695	1725.63
791.879	1718.26
792.064	1687.46
792.249	1762.05
792.434	1687.46
792.618	1697.34
792.803	1728.73
792.988	1684.36
793.173	1661.11
793.357	1732.41
793.542	1706.64
793.727	1719.43
793.911	1759.92
794.096	1673.12
794.281	1747.52
794.465	1819.4
794.65	1746.16
794.834	1778.52
795.019	1787.04
795.203	1800.61
795.388	1762.63
795.572	1791.69
795.757	1738.61
795.941	1779.1
796.126	1735.12
796.31	1691.14
796.494	1710.71
796.679	1716.52
796.863	1724.46
797.048	1743.45
797.232	1764.57
797.416	1749.07
797.601	1743.26
797.785	1825.02
797.969	1769.8
798.153	1728.92
798.338	1738.22
798.522	1764.57
798.706	1787.04
798.89	1807.77
799.074	1851.37
799.258	1814.94
799.443	1794.21
799.627	1772.9
799.811	1808.94
799.995	1758.76
800.179	1750.81
800.363	1752.94
800.547	1761.86
800.731	1777.16
800.915	1707.41
801.099	1728.14
801.283	1750.04
801.467	1746.36
801.651	1744.03
801.835	1786.85
802.019	1782.01
802.202	1789.17
802.386	1691.91
802.57	1706.44
802.754	1701.99
802.938	1681.26
803.121	1700.44
803.305	1735.7
803.489	1736.86
803.673	1759.53
803.856	1753.33
804.04	1738.99
804.224	1745.78
804.407	1749.84
804.591	1708.19
804.775	1726.01
804.958	1765.34
805.142	1858.54
805.326	1734.15
805.509	1782.78
805.693	1785.69
805.876	1794.99
806.06	1784.91
806.243	1776.97
806.427	1788.79
806.61	1787.62
806.794	1713.23
806.977	1794.41
807.16	1785.11
807.344	1791.89
807.527	1770.77
807.71	1760.69
807.894	1741.71
808.077	1800.22
808.26	1731.24
808.444	1705.86
808.627	1778.91
808.81	1745.39
808.993	1694.63
809.177	1668.28
809.36	1707.41
809.543	1736.48
809.726	1639.6
809.909	1667.5
810.092	1648.32
810.276	1645.22
810.459	1655.49
810.642	1643.48
810.825	1667.31
811.008	1640.57
811.191	1567.33
811.374	1571.79
811.557	1608.6
811.74	1669.83
811.923	1506.89
812.106	1552.8
812.289	1504.75
812.472	1530.52
812.654	1538.08
812.837	1481.7
813.02	1430.74
813.203	1458.45
813.386	1359.44
813.569	1365.26
813.751	1329.99
813.934	1400.91
814.117	1332.9
814.3	1305
814.482	1262.96
814.665	1235.64
814.848	1257.15
815.03	1190.69
815.213	1214.33
815.396	1189.53
815.578	1168.22
815.761	1124.43
815.943	1191.85
816.126	1102.92
816.309	1094.4
816.491	1077.74
816.674	1033.17
816.856	1073.67
817.039	1030.65
817.221	1160.85
817.403	1071.34
817.586	1081.61
817.768	1087.62
817.951	1032.01
818.133	1018.64
818.315	1087.23
818.498	1091.3
818.68	1132.37
818.862	1110.87
819.045	1135.67
819.227	1111.45
819.409	1088
819.591	1134.31
819.774	1094.4
819.956	1082.39
820.138	1158.92
820.32	1104.28
820.502	1161.63
820.684	1199.41
820.866	1198.83
821.048	1281.36
821.231	1244.55
821.413	1219.17
821.595	1253.08
821.777	1266.83
821.959	1201.15
822.141	1289.89
822.323	1178.48
822.505	1151.36
822.686	1095.37
822.868	1054.1
823.05	978.34
823.232	1007.21
823.414	945.99
823.596	991.13
823.778	975.82
823.96	981.06
824.141	970.21
824.323	977.96
824.505	1039.18
824.687	1092.27
824.868	1107.96
825.05	1185.07
825.232	1227.89
825.413	1268.58
825.595	1208.71
825.777	1135.67
825.958	1185.26
826.14	1190.11
826.321	1244.75
826.503	1215.1
826.685	1235.83
826.866	1199.8
827.048	1232.15
827.229	1157.37
827.411	1128.11
827.592	1107.18
827.773	1128.88
827.955	1099.63
828.136	1125.01
828.318	1086.07
828.499	1120.75
828.68	1086.26
828.862	1092.65
829.043	1119.78
829.224	1110.28
829.406	1069.02
829.587	1081.61
829.768	1073.47
829.949	1103.7
830.131	1099.43
830.312	1146.9
830.493	1071.54
830.674	1135.86
830.855	1075.41
831.036	1076.57
831.218	1130.24
831.399	1163.37
831.58	1109.7
831.761	1076.38
831.942	1102.34
832.123	1116.87
832.304	1060.88
832.485	1084.9
832.666	1085.1
832.847	1116.87
833.028	1059.33
833.209	1106.8
833.389	1076.96
833.57	1072.89
833.751	1060.69
833.932	1083.74
834.113	1099.82
834.294	1051.97
834.475	1145.93
834.655	1137.8
834.836	1146.9
835.017	1133.53
835.198	1073.28
835.378	1092.46
835.559	1141.09
835.74	1110.28
835.92	1117.07
836.101	1107.77
836.281	1115.71
836.462	1110.67
836.643	1166.86
836.823	1169.38
837.004	1165.31
837.184	1194.76
837.365	1184.3
837.545	1189.72
837.726	1100.98
837.906	1210.45
838.087	1163.57
838.267	1181.78
838.448	1096.14
838.628	1150.97
838.808	1140.9
838.989	1205.61
839.169	1098.47
839.349	1163.57
839.53	1163.57
839.71	1167.05
839.89	1110.48
840.07	1185.46
840.251	1144.77
840.431	1182.94
840.611	1184.88
840.791	1143.03
840.971	1162.98
841.151	1110.28
841.332	1112.03
841.512	1127.72
841.692	1083.94
841.872	1145.35
842.052	1123.27
842.232	1157.75
842.412	1106.02
842.592	1143.42
842.772	1174.03
842.952	1166.67
843.132	1109.32
843.312	1126.37
843.492	1101.18
843.672	1158.33
843.851	1078.9
844.031	1141.48
844.211	1100.4
844.391	1078.51
844.571	1148.84
844.751	1139.54
844.93	1108.15
845.11	1071.34
845.29	1106.41
845.47	1107.57
845.649	1128.5
845.829	1135.08
846.009	1094.59
846.188	1151.94
846.368	1129.85
846.547	1109.12
846.727	1149.42
846.907	1072.12
847.086	1109.51
847.266	1173.45
847.445	1083.55
847.625	1095.37
847.804	1089.17
847.984	1098.27
848.163	1071.34
848.343	1057.2
848.522	1102.53
848.701	1069.6
848.881	1029.88
849.06	1081.61
849.239	1121.33
849.419	1078.7
849.598	1026
849.777	1040.15
849.957	1017.48
850.136	984.93
850.315	992.29
850.494	985.32
850.674	965.56
850.853	1031.24
851.032	1009.92
851.211	1063.01
851.39	1012.05
851.569	971.76
851.748	960.13
851.927	1047.12
852.107	996.36
852.286	993.46
852.465	942.11
852.644	1029.1
852.823	1035.69
853.002	1020.77
853.181	1013.99
853.359	1042.47
853.538	969.82
853.717	1031.04
853.896	947.54
854.075	896
854.254	868.68
854.433	835.55
854.611	838.65
854.79	844.27
854.969	884.18
855.148	896.58
855.327	850.47
855.505	899.68
855.684	887.28
855.863	922.93
856.041	852.79
856.22	927.77
856.399	915.76
856.577	974.47
856.756	944.82
856.934	1054.49
857.113	1037.05
857.291	977.96
857.47	977.18
857.648	968.46
857.827	972.72
858.005	1006.63
858.184	932.81
858.362	1036.27
858.541	964.97
858.719	952.57
858.898	934.56
859.076	952.38
859.254	1001.01
859.433	972.34
859.611	955.67
859.789	920.02
859.967	1012.25
860.146	1029.49
860.324	904.33
860.502	928.16
860.68	889.8
860.859	913.44
861.037	909.76
861.215	961.29
861.393	953.54
861.571	938.62
861.749	891.93
861.927	939.4
862.105	966.91
862.283	921.96
862.461	909.37
862.639	896.78
862.817	883.79
862.995	889.99
863.173	918.09
863.351	908.98
863.529	933.01
863.707	961.1
863.885	951.02
864.063	867.52
864.241	845.82
864.418	955.67
864.596	863.26
864.774	840.39
864.952	879.14
865.129	893.09
865.307	900.07
865.485	811.72
865.663	869.26
865.84	814.05
866.018	863.06
866.196	755.53
866.373	780.72
866.551	761.15
866.728	704
866.906	777.04
867.084	787.89
867.261	823.93
867.439	835.94
867.616	816.56
867.794	820.25
867.971	813.08
868.149	830.32
868.326	866.94
868.503	852.21
868.681	810.36
868.858	803.2
869.035	837.49
869.213	842.91
869.39	818.89
869.567	901.62
869.745	780.91
869.922	825.28
870.099	857.83
870.276	869.26
870.454	830.9
870.631	834.39
870.808	830.32
870.985	849.89
871.162	912.86
871.339	808.81
871.517	792.15
871.694	780.72
871.871	807.65
872.048	781.11
872.225	766
872.402	805.33
872.579	749.72
872.756	824.51
872.933	774.33
873.11	770.06
873.287	841.94
873.463	774.52
873.64	779.36
873.817	808.23
873.994	788.66
874.171	768.51
874.348	811.33
874.524	725.31
874.701	818.7
874.878	711.55
875.055	802.81
875.231	779.56
875.408	790.21
875.585	722.02
875.762	759.6
875.938	737.71
876.115	742.55
876.291	720.47
876.468	739.84
876.645	734.8
876.821	727.05
876.998	733.06
877.174	768.51
877.351	743.91
877.527	732.09
877.704	737.51
877.88	767.55
878.057	731.32
878.233	768.13
878.409	714.46
878.586	750.11
878.762	733.45
878.938	737.9
879.115	670.09
879.291	745.26
879.467	664.47
879.644	704
879.82	735
879.996	708.45
880.172	667.38
880.349	695.86
880.525	737.13
880.701	673.58
880.877	685.78
881.053	677.84
881.229	704.38
881.405	740.03
881.581	671.25
881.757	705.74
881.933	728.6
882.109	722.02
882.285	708.84
882.461	638.9
882.637	691.98
882.813	654.78
882.989	683.85
883.165	757.08
883.341	668.73
883.517	750.88
883.693	700.12
883.869	745.46
884.044	654.01
884.22	701.87
884.396	704.97
884.572	735.58
884.747	714.27
884.923	687.53
885.099	708.65
885.275	727.83
885.45	690.63
885.626	658.66
885.801	664.47
885.977	701.09
886.153	629.02
886.328	700.12
886.504	687.72
886.679	697.8
886.855	680.17
887.03	705.74
887.206	713.49
887.381	682.1
887.557	713.1
887.732	690.63
887.908	727.05
888.083	717.56
888.258	689.27
888.434	655.95
888.609	674.74
888.784	709.23
888.96	684.23
889.135	674.35
889.31	649.55
889.485	685.98
889.661	697.41
889.836	727.83
890.011	696.25
890.186	656.14
890.361	664.86
890.537	662.92
890.712	693.92
890.887	700.51
891.062	683.07
891.237	732.48
891.412	685.59
891.587	671.25
891.762	683.65
891.937	737.32
892.112	670.67
892.287	674.55
892.462	643.94
892.637	661.76
892.812	627.08
892.987	633.28
893.161	599.57
893.336	624.56
893.511	610.22
893.686	632.5
893.861	591.62
894.035	632.7
894.21	636.19
894.385	585.62
894.56	629.6
894.734	547.26
894.909	563.14
895.084	575.35
895.258	559.46
895.433	605.19
895.608	546.09
895.782	510.64
895.957	512.96
896.131	508.31
896.306	499.21
896.48	470.14
896.655	513.35
896.829	453.68
897.004	458.33
897.178	443.99
897.353	442.44
897.527	488.74
897.701	462.78
897.876	425.19
898.05	493.59
898.224	475.76
898.399	482.16
898.573	478.86
898.747	384.12
898.921	437.21
899.096	363
899.27	379.66
899.444	369.59
899.618	387.99
899.792	395.36
899.967	412.99
900.141	410.28
900.315	329.68
900.489	378.7
900.663	395.55
900.837	388.19
901.011	371.72
901.185	472.86
901.359	424.23
901.533	434.3
901.707	422.68
901.881	395.94
902.055	353.31
902.229	385.67
902.403	437.21
902.576	383.93
902.75	384.9
902.924	492.23
903.098	464.53
903.272	442.44
903.446	474.99
903.619	484.29
903.793	498.43
903.967	459.88
904.14	531.56
904.314	536.99
904.488	511.99
904.661	512.77
904.835	507.73
905.009	515.29
905.182	592.2
905.356	532.72
905.529	500.56
905.703	468.21
905.876	479.06
906.05	462.59
906.223	453.29
906.397	411.24
906.57	410.86
906.744	373.27
906.917	424.03
907.09	415.7
907.264	383.54
907.437	392.26
907.61	359.51
907.784	343.05
907.957	378.31
908.13	353.7
908.304	424.23
908.477	349.44
908.65	358.35
908.823	326.58
908.996	437.21
909.17	352.15
909.343	346.92
909.516	374.43
909.689	355.64
909.862	309.72
910.035	340.91
910.208	308.56
910.381	354.86
910.554	399.81
910.727	338.4
910.9	331.61
911.073	360.68
911.246	406.59
911.419	378.31
911.592	369.59
911.765	355.45
911.938	332.97
912.11	374.63
912.283	333.94
912.456	375.98
912.629	355.83
912.802	337.43
912.974	287.25
913.147	253.73
913.32	264
913.493	288.8
913.665	319.8
913.838	304.88
914.01	310.3
914.183	291.7
914.356	285.31
914.528	326.38
914.701	377.92
914.873	336.85
915.046	317.86
915.218	294.8
915.391	243.46
915.563	274.85
915.736	300.03
915.908	314.37
916.081	271.94
916.253	286.86
916.425	291.7
916.598	302.36
916.77	280.27
916.942	277.75
917.115	248.3
917.287	315.53
917.459	256.05
917.632	239
917.804	216.53
917.976	271.17
918.148	241.33
918.32	262.25
918.493	320.76
918.665	337.62
918.837	303.13
919.009	383.93
919.181	343.82
919.353	332.58
919.525	319.6
919.697	328.32
919.869	313.4
920.041	365.91
920.213	401.36
920.385	366.1
920.557	342.27
920.729	341.11
920.901	336.26
921.073	310.11
921.244	301.2
921.416	382.96
921.588	325.8
921.76	316.7
921.932	376.37
922.103	324.83
922.275	288.02
922.447	323.48
922.619	257.99
922.79	293.83
922.962	298.1
923.134	340.72
923.305	313.6
923.477	270.58
923.648	274.65
923.82	292.48
923.991	230.48
924.163	259.73
924.335	253.53
924.506	249.08
924.677	289.57
924.849	246.56
925.02	279.11
925.192	304.1
925.363	244.04
925.535	276.01
925.706	253.15
925.877	310.69
926.049	280.27
926.22	283.18
926.391	285.12
926.562	281.82
926.734	229.32
926.905	288.99
927.076	244.62
927.247	252.37
927.419	225.05
927.59	226.99
927.761	209.55
927.932	212.65
928.103	215.37
928.274	186.11
928.445	186.89
928.616	201.61
928.787	209.17
928.958	235.52
929.129	225.83
929.3	181.07
929.471	157.63
929.642	123.34
929.813	87.3
929.984	174.68
930.155	109.39
930.326	159.76
930.496	96.21
930.667	68.31
930.838	124.89
931.009	71.99
931.18	130.7
931.35	123.14
931.521	123.53
931.692	60.95
931.863	35.38
932.033	90.59
932.204	95.63
932.374	115.01
932.545	30.14
932.716	115.39
932.886	96.79
933.057	10.38
933.227	39.64
933.398	96.41
933.568	32.28
933.739	14.45
933.909	38.47
934.08	76.84
934.25	9.22
934.421	13.68
934.591	33.44
934.761	-4.73
934.932	-32.05
935.102	53.01
935.272	16
935.443	22.98
935.613	15.03
935.783	52.42
935.953	22.78
936.123	154.14
936.294	-13.45
936.464	12.9
936.634	14.84
936.804	12.9
936.974	13.09
937.144	47
937.314	52.62
937.484	24.91
937.655	-1.24
937.825	55.91
937.995	14.26
938.165	57.46
938.334	29.18
938.504	28.01
938.674	5.54
938.844	26.27
939.014	58.43
939.184	68.7
939.354	83.42
939.524	83.42
939.694	37.51
939.863	44.29
940.033	118.3
940.203	105.32
940.373	87.11
940.542	76.06
940.712	59.59
940.882	83.81
941.051	114.62
941.221	107.64
941.391	100.67
941.56	35.96
941.73	42.16
941.899	134.77
942.069	79.94
942.238	75.87
942.408	50.87
942.577	86.33
942.747	77.81
942.916	-1.44
943.086	1.86
943.255	63.86
943.425	63.08
943.594	35.76
943.763	-15.77
943.933	19.88
944.102	-14.81
944.271	52.42
944.441	69.47
944.61	39.06
944.779	56.88
944.948	124.11
945.117	13.09
945.287	37.7
945.456	0.11
945.625	12.51
945.794	49.13
945.963	3.21
946.132	73.16
946.301	45.64
946.47	80.32
946.639	-16.94
946.808	39.25
946.977	69.09
947.146	76.26
947.315	17.74
947.484	68.51
947.653	8.06
947.822	-9.38
947.991	18.71
948.16	121.79
948.329	74.9
948.498	16.58
948.666	50.1
948.835	57.85
949.004	-5.89
949.173	-15.39
949.341	51.84
949.51	51.07
949.679	109.39
949.847	69.67
950.016	114.81
950.185	87.3
950.353	13.09
950.522	50.68
950.69	72.19
950.859	35.18
951.028	91.37
951.196	70.06
951.365	7.09
951.533	59.79
951.701	79.36
951.87	72.38
952.038	28.59
952.207	61.53
952.375	139.22
952.543	43.12
952.712	38.09
952.88	31.89
953.048	99.89
953.217	40.41
953.385	20.65
953.553	100.09
953.721	1.47
953.89	27.24
954.058	19.49
954.226	25.88
954.394	62.89
954.562	12.9
954.73	9.03
954.898	40.22
955.067	74.71
955.235	28.98
955.403	106.67
955.571	104.93
955.739	66.57
955.907	8.64
956.075	32.47
956.243	7.67
956.41	48.36
956.578	-6.47
956.746	-7.06
956.914	23.75
957.082	60.95
957.25	57.66
957.418	33.24
957.585	72.19
957.753	103.19
957.921	2.83
958.089	53.2
958.256	61.34
958.424	89.04
958.592	37.89
958.759	44.09
958.927	74.71
959.095	27.43
959.262	34.21
959.43	57.46
959.597	46.61
959.765	38.09
959.932	21.81
960.1	69.28
960.267	74.32
960.435	64.82
960.602	111.52
960.77	55.52
960.937	21.04
961.104	66.18
961.272	-3.76
961.439	18.13
961.606	81.29
961.774	69.47
961.941	60.56
962.108	73.54
962.275	39.06
962.443	70.44
962.61	66.76
962.777	105.51
962.944	91.37
963.111	70.06
963.278	66.57
963.446	62.89
963.613	62.89
963.78	65.02
963.947	66.96
964.114	67.92
964.281	112.87
964.448	82.07
964.615	43.51
964.782	72.19
964.949	79.16
965.116	82.46
965.282	97.76
965.449	57.07
965.616	31.31
965.783	95.82
965.95	50.68
966.117	47.19
966.283	66.18
966.45	78.97
966.617	90.01
966.784	98.73
966.95	95.63
967.117	98.34
967.284	48.36
967.45	49.71
967.617	121.98
967.784	65.99
967.95	120.82
968.117	72.19
968.283	105.12
968.45	171
968.616	81.68
968.783	110.36
968.949	87.3
969.116	101.25
969.282	67.15
969.449	68.31
969.615	76.26
969.781	31.11
969.948	63.08
970.114	54.75
970.28	109.58
970.447	64.82
970.613	122.17
970.779	79.74
970.945	122.17
971.112	85.94
971.278	53.2
971.444	82.84
971.61	102.99
971.776	75.87
971.942	76.45
972.108	93.69
972.275	109.97
972.441	80.91
972.607	140.77
972.773	54.17
972.939	92.14
973.105	60.17
973.271	9.22
973.437	40.8
973.602	55.72
973.768	100.28
973.934	74.32
974.1	84.39
974.266	7.48
974.432	68.7
974.598	39.25
974.763	97.57
974.929	63.86
975.095	108.42
975.261	28.01
975.426	27.04
975.592	84.78
975.758	118.3
975.923	26.46
976.089	46.81
976.255	102.99
976.42	56.3
976.586	65.6
976.751	77.61
976.917	141.55
977.082	96.02
977.248	31.31
977.413	-4.15
977.579	28.59
977.744	88.85
977.91	49.13
978.075	44.09
978.24	84.78
978.406	54.17
978.571	49.13
978.736	44.09
978.902	74.32
979.067	40.41
979.232	33.44
979.397	77.22
979.563	122.37
979.728	22.59
979.893	53.01
980.058	68.31
980.223	100.67
980.388	63.86
980.554	73.35
980.719	42.93
980.884	69.67
981.049	102.02
981.214	45.84
981.379	77.03
981.544	46.81
981.709	62.11
981.874	46.81
982.039	62.11
982.204	85.36
982.368	69.86
982.533	28.79
982.698	85.94
982.863	92.92
983.028	42.54
983.193	68.51
983.357	78
983.522	72.77
983.687	84.01
983.852	53.01
984.016	39.64
984.181	88.07
984.346	88.46
984.51	76.06
984.675	39.64
984.839	84.39
985.004	85.75
985.168	89.82
985.333	69.86
985.498	64.82
985.662	68.12
985.827	84.97
985.991	56.88
986.155	54.75
986.32	104.16
986.484	133.22
986.649	82.07
986.813	36.54
986.977	80.13
987.142	100.86
987.306	21.43
987.47	47.19
987.634	42.54
987.799	72.77
987.963	75.09
988.127	69.47
988.291	105.51
988.455	50.68
988.62	45.06
988.784	76.64
988.948	76.64
989.112	69.09
989.276	78.77
989.44	73.35
989.604	51.07
989.768	51.84
989.932	133.22
990.096	22.98
990.26	56.88
990.424	38.28
990.588	36.92
990.752	94.86
990.915	107.45
991.079	42.35
991.243	35.57
991.407	95.63
991.571	24.91
991.734	87.49
991.898	81.29
992.062	164.02
992.226	51.65
992.389	16.19
992.553	26.85
992.717	23.75
992.88	54.94
993.044	70.44
993.207	32.47
993.371	82.46
993.535	87.49
993.698	63.86
993.862	78
994.025	98.92
994.189	83.04
994.352	74.9
994.515	56.88
994.679	96.6
994.842	49.71
995.006	89.82
995.169	39.25
995.332	36.92
995.496	87.3
995.659	10.19
995.822	67.34
995.985	56.3
996.149	109.77
996.312	47.77
996.475	116.36
996.638	29.76
996.801	103.77
996.964	99.31
997.128	65.21
997.291	47.77
997.454	58.82
997.617	27.82
997.78	50.68
997.943	39.25
998.106	99.89
998.269	51.26
998.432	43.9
998.595	37.31
998.758	0.89
998.92	21.43
999.083	12.32
999.246	30.34
999.409	2.24
999.572	3.21
999.735	22.2
999.897	54.94
1000.06	31.89
1000.223	65.41
1000.386	63.47
1000.548	55.52
1000.711	57.66
1000.874	60.76
1001.036	26.27
1001.199	71.99
1001.361	28.59
1001.524	68.12
1001.687	64.44
1001.849	30.53
1002.012	71.02
1002.174	73.54
1002.337	71.02
1002.499	38.09
1002.661	66.57
1002.824	4.76
1002.986	12.71
1003.149	54.56
1003.311	10.58
1003.473	68.31
1003.636	2.44
1003.798	58.43
1003.96	64.82
1004.123	34.99
1004.285	17.16
1004.447	42.74
1004.609	26.66
1004.771	75.67
1004.933	9.03
1005.096	12.51
1005.258	7.67
1005.42	28.01
1005.582	91.76
1005.744	46.42
1005.906	-14.42
1006.068	49.71
1006.23	-4.92
1006.392	7.09
1006.554	12.32
1006.716	92.34
1006.878	44.29
1007.04	5.34
1007.202	16.97
1007.363	44.87
1007.525	38.86
1007.687	41.19
1007.849	87.49
1008.011	-12.29
1008.172	27.04
1008.334	-2.21
1008.496	70.64
1008.658	-9.38
1008.819	8.44
1008.981	1.66
1009.143	-0.08
1009.304	36.54
1009.466	50.29
1009.627	71.61
1009.789	126.63
1009.95	29.37
1010.112	2.63
1010.273	53.97
1010.435	24.53
1010.596	38.47
1010.758	28.21
1010.919	30.14
1011.081	-5.12
1011.242	30.53
1011.403	52.81
1011.565	45.06
1011.726	64.24
1011.887	3.41
1012.049	31.5
1012.21	62.11
1012.371	89.82
1012.532	-34.76
1012.693	36.54
1012.855	3.02
1013.016	15.03
1013.177	60.17
1013.338	32.47
1013.499	96.6
1013.66	40.41
1013.821	52.62
1013.982	27.04
1014.143	19.68
1014.304	28.59
1014.465	39.06
1014.626	21.23
1014.787	8.25
1014.948	116.17
1015.109	-36.89
1015.27	73.74
1015.431	20.84
1015.592	9.41
1015.752	82.84
1015.913	10.19
1016.074	12.51
1016.235	23.36
1016.395	0.5
1016.556	20.07
1016.717	34.21
1016.877	76.45
1017.038	-9.38
1017.199	52.04
1017.359	20.65
1017.52	39.06
1017.681	10.77
1017.841	10.96
1018.002	28.4
1018.162	35.38
1018.323	68.89
1018.483	20.65
1018.644	19.88
1018.804	-24.3
1018.964	-19.26
1019.125	9.99
1019.285	26.66
1019.446	-11.71
1019.606	-15.39
1019.766	-40.77
1019.926	58.24
1020.087	22.01
1020.247	-16.94
1020.407	25.3
1020.567	75.67
1020.728	17.16
1020.888	-2.6
1021.048	2.05
1021.208	-1.63
1021.368	-3.76
1021.528	54.17
1021.688	66.96
1021.848	36.34
1022.008	26.46
1022.168	-10.35
1022.328	11.93
1022.488	30.73
1022.648	-2.02
1022.808	6.89
1022.968	26.66
1023.128	-1.63
1023.288	5.54
1023.448	3.41
1023.608	46.42
1023.767	36.34
1023.927	7.48
1024.087	6.51
1024.247	-5.7
1024.406	31.5
1024.566	-17.71
1024.726	-10.16
1024.885	10.19
1025.045	60.76
1025.205	24.14
1025.364	9.22
1025.524	37.89
1025.683	13.48
1025.843	22.59
1026.003	8.64
1026.162	58.04
1026.321	56.3
1026.481	27.82
1026.64	-3.76
1026.8	24.33
1026.959	21.04
1027.119	15.23
1027.278	6.89
1027.437	3.79
1027.597	11.74
1027.756	34.02
1027.915	10.58
1028.074	32.08
1028.234	6.89
1028.393	22.2
1028.552	23.56
1028.711	-61.3
1028.87	49.13
1029.03	-32.44
1029.189	-26.43
1029.348	-43.48
1029.507	17.74
1029.666	7.86
1029.825	-15
1029.984	-5.12
1030.143	6.12
1030.302	-12.87
1030.461	-24.88
1030.62	11.74
1030.779	26.46
1030.938	-18.68
1031.097	-30.11
1031.255	29.56
1031.414	42.54
1031.573	39.06
1031.732	-28.95
1031.891	16
1032.049	40.02
1032.208	22.59
1032.367	-16.36
1032.525	34.79
1032.684	-9.19
1032.843	21.81
1033.001	-29.14
1033.16	141.74
1033.319	77.03
1033.477	26.46
1033.636	7.67
1033.794	-57.82
1033.953	28.79
1034.111	50.29
1034.27	-13.64
1034.428	24.53
1034.587	-13.06
1034.745	16.39
1034.903	8.64
1035.062	28.21
1035.22	0.5
1035.378	23.56
1035.537	-21.01
1035.695	29.56
1035.853	9.99
1036.011	26.27
1036.17	16.39
1036.328	-38.06
1036.486	25.69
1036.644	20.07
1036.802	-56.65
1036.96	12.71
1037.119	20.26
1037.277	-28.56
1037.435	-23.14
1037.593	-14.61
1037.751	11.35
1037.909	21.04
1038.067	21.04
