Data from oakcork_FLMT105791__207__17-32-20-056.txt Node

Date: Mon Mar 20 17:32:20 GMT 2023
User: antho
Spectrometer: FLMT10579
Trigger mode: 0
Integration Time (sec): 1.000000E-1
Scans to average: 10
Electric dark correction enabled: true
Nonlinearity correction enabled: false
Boxcar width: 0
XAxis mode: Wavelengths
Number of Pixels in Spectrum: 3648
>>>>>Begin Spectral Data<<<<<
345.248	-164.67
345.464	-164.67
345.681	-164.67
345.898	-179.98
346.114	-134.25
346.331	-42.03
346.548	30.05
346.764	-2.31
346.981	4.47
347.197	-30.01
347.414	31.6
347.631	-9.09
347.847	61.82
348.064	0.6
348.28	6.02
348.497	-47.45
348.713	-3.67
348.93	36.83
349.146	44.77
349.363	8.73
349.579	25.4
349.796	12.61
350.012	-29.05
350.229	32.95
350.445	12.61
350.661	-1.92
350.878	13
351.094	41.87
351.311	6.8
351.527	-2.31
351.743	-18.39
351.96	25.01
352.176	27.92
352.392	16.48
352.609	24.62
352.825	-18
353.041	11.83
353.257	-4.44
353.474	19.58
353.69	14.35
353.906	23.07
354.122	-26.91
354.339	41.48
354.555	14.93
354.771	-0.37
354.987	69.38
355.203	78.48
355.42	-15.68
355.636	-5.8
355.852	-5.02
356.068	-14.71
356.284	-27.5
356.5	56.59
356.716	18.03
356.932	15.71
357.148	17.65
357.364	-0.95
357.58	24.04
357.796	54.85
358.012	33.15
358.228	0.98
358.444	-34.86
358.66	61.05
358.876	37.8
359.092	-9.86
359.308	26.17
359.524	10.87
359.74	-1.73
359.956	-0.95
360.172	13.58
360.388	48.65
360.604	-18.2
360.819	74.8
361.035	12.22
361.251	17.65
361.467	-18.58
361.683	17.07
361.898	19.78
362.114	25.4
362.33	5.83
362.546	44
362.762	18.81
362.977	27.53
363.193	-6.18
363.409	43.61
363.624	11.06
363.84	-3.86
364.056	-15.29
364.271	42.25
364.487	44.38
364.703	-10.25
364.918	-36.6
365.134	-3.67
365.35	7.38
365.565	97.08
365.781	10.67
365.996	44.97
366.212	68.02
366.427	25.59
366.643	25.2
366.858	13.58
367.074	-18.39
367.289	73.64
367.505	100.57
367.72	-35.44
367.936	-30.98
368.151	37.8
368.367	25.59
368.582	25.78
368.798	3.31
369.013	56.98
369.228	31.79
369.444	-0.18
369.659	38.77
369.874	64.53
370.09	74.03
370.305	-28.08
370.52	2.53
370.736	81.2
370.951	37.02
371.166	49.23
371.381	63.37
371.597	40.32
371.812	-9.67
372.027	-9.86
372.242	1.95
372.458	73.83
372.673	9.12
372.888	1.37
373.103	48.45
373.318	77.13
373.533	30.05
373.749	14.55
373.964	-27.88
374.179	53.68
374.394	-26.91
374.609	65.5
374.824	-17.03
375.039	24.43
375.254	8.35
375.469	53.88
375.684	24.23
375.899	40.32
376.114	6.8
376.329	24.82
376.544	30.05
376.759	29.27
376.974	-2.12
377.189	-6.57
377.404	-15.68
377.619	62.02
377.834	-32.15
378.049	-18.97
378.264	-7.54
378.478	29.47
378.693	11.45
378.908	41.28
379.123	-8.31
379.338	39.35
379.553	10.48
379.767	22.88
379.982	36.83
380.197	20.75
380.412	29.85
380.626	22.1
380.841	78.68
381.056	35.28
381.271	58.92
381.485	-17.61
381.7	-1.53
381.915	24.43
382.129	-9.09
382.344	31.02
382.559	23.85
382.773	30.63
382.988	-26.72
383.202	27.72
383.417	-10.83
383.632	74.22
383.846	29.85
384.061	15.71
384.275	7.38
384.49	39.93
384.704	21.33
384.919	27.14
385.133	-7.54
385.348	43.61
385.562	-25.95
385.777	61.05
385.991	9.9
386.206	-6.96
386.42	-15.29
386.634	42.83
386.849	26.17
387.063	4.47
387.277	-23.62
387.492	-12.38
387.706	-4.83
387.92	-21.49
388.135	42.83
388.349	21.72
388.563	26.75
388.778	40.32
388.992	42.64
389.206	50.58
389.42	84.1
389.635	-5.6
389.849	51.94
390.063	65.89
390.277	44
390.491	66.47
390.706	23.46
390.92	56.4
391.134	11.83
391.348	40.12
391.562	-34.86
391.776	17.26
391.99	-0.76
392.205	53.1
392.419	2.92
392.633	10.09
392.847	58.92
393.061	13.97
393.275	79.45
393.489	30.63
393.703	18.03
393.917	63.18
394.131	16.48
394.345	39.93
394.559	44.97
394.773	16.48
394.986	31.6
395.2	14.35
395.414	41.09
395.628	-3.67
395.842	-2.89
396.056	5.25
396.27	-24.78
396.484	43.61
396.697	34.12
396.911	62.98
397.125	49.42
397.339	52.52
397.553	47.87
397.766	103.48
397.98	76.93
398.194	51.75
398.408	20.55
398.621	37.41
398.835	52.33
399.049	17.84
399.262	62.98
399.476	56.78
399.69	33.73
399.903	100.18
400.117	41.09
400.331	33.15
400.544	-11.61
400.758	119.36
400.971	38.77
401.185	62.98
401.398	-2.7
401.612	59.69
401.826	52.13
402.039	56.59
402.253	11.45
402.466	46.13
402.68	15.32
402.893	52.13
403.106	44
403.32	34.7
403.533	45.35
403.747	49.42
403.96	18.42
404.174	61.24
404.387	7.96
404.6	45.93
404.814	66.28
405.027	14.74
405.24	26.37
405.454	15.71
405.667	99.99
405.88	-18.2
406.094	25.78
406.307	60.27
406.52	54.07
406.733	10.67
406.947	-13.55
407.16	87.2
407.373	85.26
407.586	21.52
407.799	-11.22
408.012	50.97
408.226	53.49
408.439	102.9
408.652	-3.67
408.865	48.65
409.078	56.4
409.291	41.28
409.504	38.57
409.717	38.38
409.93	34.89
410.143	23.65
410.357	8.73
410.57	-11.8
410.783	35.08
410.996	18.62
411.209	23.65
411.421	44
411.634	30.24
411.847	23.27
412.06	26.75
412.273	-0.37
412.486	54.85
412.699	107.35
412.912	22.88
413.125	68.99
413.338	57.56
413.55	67.83
413.763	6.02
413.976	69.57
414.189	-4.44
414.402	40.32
414.615	62.4
414.827	-1.92
415.04	55.82
415.253	43.42
415.466	64.73
415.678	77.13
415.891	53.49
416.104	36.63
416.316	27.72
416.529	11.45
416.742	53.49
416.954	62.21
417.167	20.94
417.38	4.08
417.592	92.43
417.805	24.43
418.017	-5.41
418.23	60.27
418.442	12.8
418.655	20.75
418.868	69.38
419.08	58.53
419.293	58.92
419.505	59.69
419.718	64.15
419.93	59.88
420.142	27.33
420.355	68.8
420.567	107.93
420.78	36.83
420.992	49.23
421.205	81.78
421.417	-10.45
421.629	34.7
421.842	19.78
422.054	-15.48
422.266	52.52
422.479	76.93
422.691	13.97
422.903	45.93
423.115	21.13
423.328	36.05
423.54	37.99
423.752	28.11
423.964	3.5
424.177	37.8
424.389	26.37
424.601	115.88
424.813	50.39
425.025	64.92
425.238	57.56
425.45	25.98
425.662	24.82
425.874	296.06
426.086	31.6
426.298	55.82
426.51	54.07
426.722	69.96
426.934	14.16
427.146	56.98
427.358	22.3
427.57	92.05
427.782	31.21
427.994	55.62
428.206	24.04
428.418	7.96
428.63	45.55
428.842	48.07
429.054	48.84
429.266	75
429.478	24.43
429.69	39.93
429.902	17.07
430.114	63.37
430.325	62.02
430.537	53.49
430.749	28.69
430.961	17.26
431.173	67.83
431.384	85.46
431.596	-36.41
431.808	43.8
432.02	22.3
432.231	47.48
432.443	52.33
432.655	19.58
432.867	11.64
433.078	67.63
433.29	108.32
433.502	69.18
433.713	59.69
433.925	25.78
434.136	93.6
434.348	6.8
434.56	12.42
434.771	130.6
434.983	13.77
435.194	33.15
435.406	39.15
435.617	73.64
435.829	97.47
436.04	55.04
436.252	66.67
436.463	77.32
436.675	71.12
436.886	62.4
437.098	59.5
437.309	95.53
437.521	30.24
437.732	74.8
437.943	38.96
438.155	71.32
438.366	12.03
438.578	110.65
438.789	66.08
439	79.45
439.211	88.36
439.423	52.72
439.634	61.05
439.845	71.7
440.057	97.47
440.268	75.58
440.479	38.96
440.69	51.75
440.902	26.17
441.113	37.41
441.324	37.99
441.535	62.98
441.746	99.41
441.957	18.81
442.168	24.23
442.38	70.15
442.591	80.03
442.802	42.83
443.013	43.22
443.224	46.32
443.435	37.22
443.646	25.78
443.857	50
444.068	45.74
444.279	31.02
444.49	98.63
444.701	60.47
444.912	134.86
445.123	54.65
445.334	71.51
445.545	60.47
445.756	65.7
445.967	34.12
446.178	82.36
446.388	93.6
446.599	100.38
446.81	88.56
447.021	43.8
447.232	80.81
447.443	106.38
447.653	29.08
447.864	81.97
448.075	39.54
448.286	93.6
448.496	69.38
448.707	87.4
448.918	37.6
449.129	144.55
449.339	32.76
449.55	76.16
449.761	56.59
449.971	118.2
450.182	50.97
450.393	78.68
450.603	27.14
450.814	80.23
451.024	87.78
451.235	92.43
451.446	109.87
451.656	101.54
451.867	71.7
452.077	85.85
452.288	119.95
452.498	123.05
452.709	60.85
452.919	81
453.13	96.89
453.34	92.24
453.55	27.53
453.761	119.95
453.971	106.77
454.182	99.99
454.392	110.26
454.602	142.23
454.813	100.57
455.023	106.38
455.233	49.03
455.444	71.7
455.654	35.67
455.864	75.97
456.075	73.64
456.285	59.69
456.495	65.89
456.705	95.15
456.916	103.48
457.126	104.25
457.336	86.43
457.546	33.34
457.756	31.79
457.967	107.55
458.177	55.23
458.387	84.49
458.597	51.94
458.807	76.93
459.017	59.11
459.227	65.89
459.437	66.67
459.647	116.07
459.857	90.69
460.068	73.25
460.278	133.31
460.488	118.2
460.698	161.8
460.908	66.47
461.117	32.76
461.327	31.02
461.537	61.43
461.747	68.02
461.957	91.46
462.167	160.63
462.377	122.27
462.587	73.25
462.797	117.04
463.007	91.27
463.216	103.48
463.426	129.63
463.636	86.04
463.846	45.16
464.056	79.07
464.265	124.6
464.475	59.11
464.685	89.72
464.895	111.61
465.104	92.05
465.314	100.76
465.524	84.88
465.733	60.47
465.943	148.04
466.153	135.45
466.362	135.45
466.572	89.33
466.782	75
466.991	104.83
467.201	161.8
467.41	68.22
467.62	99.41
467.829	98.63
468.039	115.49
468.249	101.54
468.458	107.74
468.668	124.79
468.877	109.29
469.086	135.45
469.296	132.54
469.505	69.77
469.715	151.33
469.924	102.7
470.134	111.81
470.343	142.23
470.552	101.73
470.762	92.24
470.971	48.84
471.18	88.36
471.39	75.77
471.599	99.8
471.808	114.13
472.018	95.34
472.227	118.4
472.436	131.96
472.645	89.72
472.855	87.59
473.064	124.01
473.273	98.25
473.482	131.57
473.691	134.86
473.901	112.58
474.11	95.53
474.319	189.31
474.528	125.76
474.737	147.65
474.946	137.19
475.155	125.56
475.364	154.63
475.573	125.37
475.783	130.21
475.992	143
476.201	120.53
476.41	93.79
476.619	89.53
476.828	120.72
477.037	88.56
477.245	110.45
477.454	157.73
477.663	120.91
477.872	79.65
478.081	179.81
478.29	67.63
478.499	176.52
478.708	103.28
478.917	150.36
479.125	112.2
479.334	122.08
479.543	85.65
479.752	121.3
479.961	121.88
480.169	134.09
480.378	106.77
480.587	217.21
480.796	150.75
481.004	119.95
481.213	146.3
481.422	118.2
481.63	132.15
481.839	171.48
482.048	170.13
482.256	124.79
482.465	148.43
482.674	138.55
482.882	135.64
483.091	167.22
483.299	136.8
483.508	164.7
483.716	153.66
483.925	136.8
484.134	147.07
484.342	110.84
484.551	155.4
484.759	178.46
484.967	170.9
485.176	169.93
485.384	178.46
485.593	161.02
485.801	180.01
486.01	161.41
486.218	170.51
486.426	94.37
486.635	161.02
486.843	131.57
487.051	152.69
487.26	148.43
487.468	146.68
487.676	189.5
487.885	118.59
488.093	155.98
488.301	149.4
488.509	145.91
488.717	169.74
488.926	151.91
489.134	142.42
489.342	162.57
489.55	135.06
489.758	161.6
489.967	118.78
490.175	233.68
490.383	123.43
490.591	185.82
490.799	114.33
491.007	200.93
491.215	139.71
491.423	153.85
491.631	177.1
491.839	139.9
492.047	210.62
492.255	133.51
492.463	109.87
492.671	157.53
492.879	213.14
493.087	161.21
493.295	167.8
493.503	191.44
493.711	180.39
493.919	218.56
494.127	203.45
494.334	208.88
494.542	161.02
494.75	148.81
494.958	162.76
495.166	217.21
495.374	179.23
495.581	197.06
495.789	183.11
495.997	232.71
496.205	197.25
496.412	164.31
496.62	164.7
496.828	184.85
497.035	146.1
497.243	212.56
497.451	192.99
497.658	201.9
497.866	166.25
498.074	246.66
498.281	155.4
498.489	243.17
498.696	199.77
498.904	180.98
499.112	172.84
499.319	271.07
499.527	176.91
499.734	245.49
499.942	168.58
500.149	187.18
500.357	196.67
500.564	161.8
500.771	195.31
500.979	195.31
501.186	205
501.394	215.66
501.601	200.93
501.808	257.31
502.016	205.97
502.223	205.19
502.43	218.56
502.638	186.4
502.845	160.63
503.052	243.36
503.26	174.19
503.467	234.26
503.674	187.18
503.881	205.97
504.089	290.25
504.296	262.74
504.503	170.9
504.71	211.98
504.917	126.92
505.125	220.11
505.332	212.56
505.539	228.64
505.746	249.18
505.953	223.99
506.16	252.66
506.367	263.32
506.574	266.03
506.781	269.91
506.988	167.99
507.195	215.08
507.402	219.14
507.609	249.76
507.816	202.68
508.023	230.77
508.23	214.49
508.437	175.36
508.644	265.06
508.851	290.83
509.058	265.84
509.265	238.91
509.472	252.28
509.679	278.82
509.885	227.09
510.092	218.18
510.299	225.34
510.506	261.96
510.713	239.68
510.92	243.36
511.126	237.94
511.333	268.94
511.54	279.21
511.746	299.16
511.953	295.09
512.16	305.56
512.367	210.23
512.573	227.67
512.78	253.63
512.987	239.88
513.193	270.87
513.4	221.86
513.606	265.84
513.813	284.44
514.02	254.99
514.226	354.96
514.433	308.07
514.639	223.79
514.846	266.42
515.052	242.39
515.259	237.55
515.465	268.55
515.672	274.56
515.878	352.25
516.085	247.24
516.291	305.17
516.497	253.44
516.704	275.72
516.91	233.68
517.117	227.67
517.323	225.34
517.529	241.43
517.736	250.73
517.942	272.23
518.148	255.57
518.354	256.73
518.561	266.61
518.767	297.81
518.973	317.18
519.179	270.1
519.386	287.15
519.592	230.96
519.798	260.41
520.004	320.09
520.21	289.67
520.417	317.96
520.623	344.69
520.829	317.18
521.035	325.71
521.241	321.25
521.447	329
521.653	427.42
521.859	295.09
522.065	315.24
522.271	405.72
522.477	348.18
522.683	346.82
522.889	365.42
523.095	362.71
523.301	346.63
523.507	333.46
523.713	367.55
523.919	319.31
524.125	363.49
524.331	346.24
524.537	399.33
524.742	376.27
524.948	393.32
525.154	380.92
525.36	471.79
525.566	405.53
525.772	413.86
525.977	353.41
526.183	416.57
526.389	428.59
526.595	368.52
526.8	378.4
527.006	372.2
527.212	331.32
527.417	343.14
527.623	330.55
527.829	400.69
528.034	411.15
528.24	363.49
528.446	349.54
528.651	392.16
528.857	384.99
529.062	447.96
529.268	391.97
529.473	406.11
529.679	401.46
529.884	464.62
530.09	444.47
530.295	458.62
530.501	432.07
530.706	416.57
530.912	372.98
531.117	393.9
531.323	418.51
531.528	439.43
531.733	431.49
531.939	398.55
532.144	454.16
532.35	423.35
532.555	464.62
532.76	475.28
532.966	433.04
533.171	477.99
533.376	416.19
533.581	385.38
533.787	429.36
533.992	472.76
534.197	485.35
534.402	434.01
534.607	438.47
534.813	522.75
535.018	448.54
535.223	435.75
535.428	434.59
535.633	478.96
535.838	467.14
536.043	436.33
536.249	550.45
536.454	459.97
536.659	443.89
536.864	439.63
537.069	479.35
537.274	495.62
537.479	471.02
537.684	488.26
537.889	447.96
538.094	550.06
538.299	492.52
538.504	521
538.708	481.87
538.913	469.08
539.118	463.46
539.323	511.12
539.528	462.3
539.733	486.13
539.938	495.23
540.142	516.55
540.347	480.32
540.552	478.96
540.757	468.11
540.962	470.82
541.166	470.05
541.371	445.83
541.576	460.55
541.781	365.04
541.985	477.22
542.19	483.8
542.395	538.05
542.599	505.89
542.804	521.78
543.008	543.28
543.213	449.32
543.418	460.75
543.622	515
543.827	459.2
544.031	542.51
544.236	551.03
544.44	496.98
544.645	560.91
544.849	505.5
545.054	546.58
545.258	550.45
545.463	564.98
545.667	507.83
545.872	531.66
546.076	525.46
546.281	532.63
546.485	490.39
546.689	528.36
546.894	545.22
547.098	510.93
547.302	499.3
547.507	513.06
547.711	524.88
547.915	587.46
548.119	496.59
548.324	525.46
548.528	594.24
548.732	532.24
548.936	570.8
549.141	542.12
549.345	527.01
549.549	533.4
549.753	509.77
549.957	600.25
550.161	578.35
550.366	534.76
550.57	503.57
550.774	521.78
550.978	515
551.182	533.98
551.386	531.66
551.59	487.29
551.794	488.07
551.998	548.51
552.202	512.48
552.406	485.55
552.61	516.55
552.814	552.97
553.018	573.9
553.222	526.43
553.426	524.88
553.63	608.77
553.833	516.93
554.037	477.8
554.241	548.32
554.445	524.1
554.649	507.44
554.853	554.91
555.056	570.02
555.26	565.95
555.464	550.45
555.668	552.58
555.871	563.43
556.075	588.62
556.279	482.45
556.483	496.78
556.686	539.99
556.89	543.67
557.094	520.42
557.297	491.36
557.501	568.66
557.704	474.7
557.908	604.89
558.112	503.57
558.315	564.21
558.519	539.02
558.722	517.13
558.926	534.76
559.129	458.03
559.333	441.18
559.536	490.2
559.74	499.69
559.943	498.33
560.147	459.78
560.35	494.07
560.553	498.72
560.757	452.8
560.96	567.89
561.164	485.55
561.367	564.79
561.57	506.28
561.774	482.06
561.977	522.36
562.18	490.39
562.384	573.31
562.587	510.15
562.79	471.4
562.993	521.78
563.197	524.88
563.4	562.46
563.603	555.88
563.806	574.48
564.009	477.99
564.212	506.86
564.416	463.85
564.619	507.25
564.822	474.31
565.025	525.26
565.228	483.03
565.431	499.88
565.634	409.79
565.837	471.4
566.04	461.72
566.243	462.49
566.446	388.29
566.649	494.27
566.852	421.22
567.055	485.55
567.258	502.79
567.461	534.18
567.664	511.32
567.867	405.92
568.07	478.38
568.273	453.97
568.475	493.49
568.678	472.37
568.881	474.31
569.084	477.02
569.287	394.29
569.489	433.23
569.692	449.12
569.895	499.69
570.098	409.79
570.3	402.04
570.503	358.84
570.706	396.62
570.909	423.55
571.111	403.2
571.314	392.16
571.516	398.94
571.719	405.14
571.922	392.94
572.124	402.24
572.327	409.02
572.529	346.63
572.732	366.78
572.935	383.44
573.137	452.61
573.34	376.66
573.542	415.8
573.745	404.95
573.947	383.44
574.15	395.07
574.352	371.04
574.554	471.21
574.757	341.01
574.959	363.49
575.162	377.24
575.364	373.95
575.566	475.86
575.769	351.47
575.971	401.85
576.173	321.44
576.376	431.88
576.578	407.66
576.78	449.32
576.982	329.77
577.185	355.74
577.387	340.43
577.589	336.36
577.791	410.37
577.993	391
578.196	329.97
578.398	411.54
578.6	415.41
578.802	341.01
579.004	338.69
579.206	350.7
579.408	360.39
579.61	336.36
579.812	383.05
580.014	353.6
580.216	355.35
580.418	353.99
580.62	342.56
580.822	299.16
581.024	383.44
581.226	392.74
581.428	341.4
581.63	407.47
581.832	319.51
582.034	398.17
582.236	335.78
582.438	389.45
582.64	390.22
582.841	396.62
583.043	425.29
583.245	385.57
583.447	401.27
583.649	364.45
583.85	363.29
584.052	395.45
584.254	339.46
584.456	391.39
584.657	327.26
584.859	348.57
585.061	357.67
585.262	349.73
585.464	295.87
585.666	395.65
585.867	329.58
586.069	393.9
586.27	380.73
586.472	363.49
586.674	348.18
586.875	375.89
587.077	324.35
587.278	362.13
587.48	359.22
587.681	433.04
587.883	347.79
588.084	312.92
588.285	311.95
588.487	326.87
588.688	365.81
588.89	334.42
589.091	296.26
589.292	329.39
589.494	323.38
589.695	320.67
589.896	269.13
590.098	266.42
590.299	309.04
590.5	281.14
590.702	274.75
590.903	305.75
591.104	348.18
591.305	324.74
591.507	368.33
591.708	312.92
591.909	302.07
592.11	394.1
592.311	325.71
592.512	301.1
592.714	333.65
592.915	271.07
593.116	291.02
593.317	340.82
593.518	279.98
593.719	346.63
593.92	361.16
594.121	358.25
594.322	335.2
594.523	341.59
594.724	294.71
594.925	314.47
595.126	330.94
595.327	341.4
595.528	328.42
595.729	319.51
595.929	322.41
596.13	322.22
596.331	356.51
596.532	344.89
596.733	358.25
596.934	337.91
597.135	335.01
597.335	318.34
597.536	283.86
597.737	306.14
597.938	276.11
598.138	347.99
598.339	311.56
598.54	297.42
598.74	292.96
598.941	311.95
599.142	359.42
599.342	301.87
599.543	275.14
599.744	320.86
599.944	327.26
600.145	305.75
600.345	329.19
600.546	378.4
600.746	359.61
600.947	387.32
601.147	328.42
601.348	355.54
601.548	293.74
601.749	324.93
601.949	282.11
602.15	301.49
602.35	324.93
602.551	350.7
602.751	300.91
602.951	279.21
603.152	266.42
603.352	309.04
603.552	341.21
603.753	350.12
603.953	348.18
604.153	325.12
604.354	311.95
604.554	285.79
604.754	315.82
604.954	304.01
605.155	300.91
605.355	287.34
605.555	383.44
605.755	349.54
605.955	330.16
606.155	353.6
606.356	316.21
606.556	325.71
606.756	331.52
606.956	255.18
607.156	371.24
607.356	297.42
607.556	326.29
607.756	327.64
607.956	352.83
608.156	338.88
608.356	304.39
608.556	353.41
608.756	337.91
608.956	266.42
609.156	310.98
609.356	284.44
609.556	307.11
609.755	318.54
609.955	282.31
610.155	306.52
610.355	320.86
610.555	281.53
610.755	333.46
610.954	273.2
611.154	312.92
611.354	361.16
611.554	272.81
611.753	278.82
611.953	272.42
612.153	297.61
612.352	301.29
612.552	264.67
612.752	222.63
612.951	286.37
613.151	329.77
613.351	283.86
613.55	275.14
613.75	310.21
613.949	298.19
614.149	310.01
614.348	284.82
614.548	282.5
614.747	243.17
614.947	264.48
615.146	236.78
615.346	304.78
615.545	294.32
615.745	281.34
615.944	312.53
616.144	254.79
616.343	325.32
616.542	277.66
616.742	271.07
616.941	262.54
617.14	236
617.34	279.79
617.539	277.27
617.738	240.84
617.938	322.22
618.137	292.57
618.336	243.56
618.535	304.78
618.734	266.61
618.934	282.89
619.133	278.62
619.332	301.1
619.531	252.86
619.73	252.08
619.929	328.42
620.128	296.26
620.328	335.01
620.527	257.89
620.726	262.74
620.925	265.26
621.124	234.64
621.323	295.09
621.522	237.55
621.721	234.84
621.92	220.31
622.119	273.97
622.318	213.53
622.517	255.37
622.715	247.82
622.914	201.71
623.113	241.62
623.312	209.65
623.511	264.67
623.71	252.08
623.909	239.49
624.107	297.22
624.306	198.03
624.505	211.01
624.704	240.07
624.902	254.41
625.101	287.92
625.3	249.37
625.499	222.63
625.697	218.18
625.896	230.96
626.095	252.66
626.293	213.33
626.492	214.11
626.69	252.08
626.889	212.36
627.088	263.51
627.286	217.01
627.485	232.51
627.683	228.64
627.882	268.16
628.08	189.69
628.279	245.11
628.477	317.57
628.676	220.5
628.874	256.92
629.073	232.51
629.271	225.15
629.469	258.86
629.668	241.23
629.866	243.56
630.065	226.89
630.263	253.44
630.461	210.04
630.66	217.79
630.858	247.24
631.056	264.67
631.254	268.94
631.453	212.75
631.651	256.15
631.849	256.73
632.047	257.89
632.245	251.31
632.444	238.33
632.642	244.91
632.84	243.36
633.038	208.49
633.236	199.96
633.434	226.31
633.632	182.33
633.83	204.42
634.028	262.74
634.227	225.54
634.425	278.62
634.623	237.94
634.821	236.39
635.019	189.11
635.216	182.72
635.414	274.56
635.612	235.81
635.81	218.76
636.008	264.87
636.206	198.8
636.404	248.79
636.602	217.79
636.8	251.89
636.997	227.86
637.195	278.62
637.393	258.67
637.591	269.52
637.789	238.52
637.986	226.31
638.184	210.04
638.382	259.83
638.58	242.2
638.777	279.4
638.975	219.14
639.173	230.77
639.37	245.11
639.568	250.73
639.765	235.61
639.963	232.13
640.161	266.81
640.358	261.38
640.556	193.76
640.753	201.51
640.951	191.83
641.148	253.24
641.346	194.73
641.543	231.54
641.741	260.8
641.938	220.89
642.136	217.01
642.333	199.19
642.531	270.49
642.728	274.56
642.925	227.28
643.123	217.98
643.32	235.42
643.517	239.49
643.715	225.93
643.912	183.69
644.109	239.1
644.306	234.45
644.504	199.96
644.701	217.4
644.898	251.69
645.095	197.25
645.293	202.68
645.49	237.55
645.687	235.23
645.884	249.95
646.081	192.21
646.278	205.78
646.475	206.94
646.672	219.92
646.87	226.89
647.067	207.33
647.264	268.16
647.461	191.83
647.658	182.72
647.855	241.04
648.052	210.81
648.249	142.61
648.446	216.04
648.642	180.39
648.839	194.34
649.036	180.01
649.233	161.99
649.43	160.63
649.627	166.06
649.824	184.85
650.021	157.15
650.217	172.26
650.414	154.05
650.611	221.86
650.808	206.36
651.004	207.71
651.201	204.61
651.398	232.71
651.595	191.05
651.791	192.6
651.988	213.53
652.185	192.41
652.381	194.73
652.578	144.94
652.775	189.11
652.971	186.4
653.168	205.39
653.364	205.97
653.561	143.39
653.757	162.96
653.954	181.17
654.15	191.24
654.347	236.19
654.543	188.53
654.74	134.48
654.936	143.58
655.133	173.42
655.329	172.84
655.525	184.08
655.722	211.78
655.918	161.41
656.115	235.03
656.311	144.16
656.507	138.35
656.704	124.4
656.9	158.31
657.096	159.66
657.292	153.85
657.489	190.08
657.685	179.04
657.881	149.78
658.077	165.09
658.273	166.06
658.47	225.93
658.666	166.83
658.862	180.01
659.058	136.41
659.254	213.33
659.45	189.31
659.646	161.8
659.842	132.15
660.038	200.54
660.234	132.93
660.43	181.75
660.626	212.36
660.822	195.31
661.018	191.83
661.214	185.24
661.41	137.38
661.606	211.78
661.802	199.77
661.998	160.63
662.194	132.93
662.39	181.75
662.586	165.09
662.781	200.35
662.977	163.15
663.173	210.23
663.369	171.09
663.564	193.57
663.76	208.29
663.956	181.75
664.152	195.7
664.347	129.25
664.543	175.55
664.739	146.68
664.934	128.28
665.13	95.15
665.326	203.64
665.521	173.03
665.717	142.23
665.912	148.43
666.108	90.69
666.304	136.61
666.499	150.36
666.695	126.73
666.89	144.16
667.086	207.13
667.281	175.74
667.477	213.14
667.672	158.89
667.867	172.84
668.063	164.12
668.258	155.01
668.454	180.2
668.649	228.44
668.844	149.4
669.04	171.29
669.235	132.93
669.43	157.73
669.626	126.15
669.821	139.9
670.016	110.45
670.211	130.99
670.407	125.56
670.602	148.43
670.797	155.6
670.992	211.78
671.187	151.91
671.382	179.43
671.578	127.89
671.773	165.28
671.968	125.95
672.163	156.18
672.358	168.96
672.553	135.45
672.748	150.17
672.943	197.06
673.138	150.75
673.333	186.59
673.528	120.14
673.723	158.11
673.918	191.83
674.113	120.72
674.308	217.98
674.503	180.98
674.698	197.44
674.892	142.42
675.087	197.64
675.282	163.15
675.477	166.45
675.672	198.8
675.867	155.01
676.061	125.95
676.256	117.23
676.451	148.23
676.646	171.68
676.84	138.35
677.035	132.54
677.23	108.13
677.424	174
677.619	190.08
677.814	140.29
678.008	209.46
678.203	104.64
678.397	143.78
678.592	166.25
678.787	207.13
678.981	135.45
679.176	152.5
679.37	156.37
679.565	105.8
679.759	128.08
679.954	150.95
680.148	196.28
680.342	194.15
680.537	159.66
680.731	146.49
680.926	173.03
681.12	180.59
681.314	143.39
681.509	159.08
681.703	171.87
681.897	176.33
682.092	133.51
682.286	137.58
682.48	198.8
682.674	192.79
682.869	166.25
683.063	144.55
683.257	234.45
683.451	136.03
683.645	145.13
683.839	175.16
684.034	155.6
684.228	207.52
684.422	123.24
684.616	124.01
684.81	173.61
685.004	152.3
685.198	149.59
685.392	192.79
685.586	103.67
685.78	148.23
685.974	163.15
686.168	170.71
686.362	219.53
686.556	159.66
686.75	102.9
686.944	161.8
687.138	216.82
687.331	152.88
687.525	154.63
687.719	107.55
687.913	151.14
688.107	155.21
688.301	141.06
688.494	141.26
688.688	139.71
688.882	87.59
689.076	117.43
689.269	127.31
689.463	199.38
689.657	105.8
689.85	128.66
690.044	126.34
690.238	139.9
690.431	137.77
690.625	135.06
690.818	158.7
691.012	144.75
691.205	184.27
691.399	114.71
691.593	147.07
691.786	177.88
691.98	187.37
692.173	196.48
692.366	154.24
692.56	175.16
692.753	232.13
692.947	115.68
693.14	212.56
693.333	220.89
693.527	143.2
693.72	194.15
693.914	173.03
694.107	187.18
694.3	171.68
694.493	180.01
694.687	211.2
694.88	148.43
695.073	234.45
695.266	209.07
695.46	202.09
695.653	229.41
695.846	229.61
696.039	135.64
696.232	175.55
696.425	231.35
696.618	229.22
696.812	199.58
697.005	266.81
697.198	317.76
697.391	249.18
697.584	246.27
697.777	297.42
697.97	268.55
698.163	277.46
698.356	272.04
698.549	352.83
698.742	303.62
698.935	276.11
699.127	299.36
699.32	237.94
699.513	247.24
699.706	293.35
699.899	279.21
700.092	260.99
700.285	308.07
700.477	255.57
700.67	315.82
700.863	337.91
701.056	407.08
701.248	322.41
701.441	365.04
701.634	321.83
701.826	409.79
702.019	310.01
702.212	349.34
702.404	314.66
702.597	311.17
702.79	334.42
702.982	329.77
703.175	391
703.367	366.39
703.56	368.14
703.752	444.47
703.945	436.33
704.137	393.71
704.33	409.6
704.522	420.64
704.715	404.37
704.907	444.08
705.1	436.14
705.292	467.14
705.484	434.59
705.677	462.49
705.869	458.62
706.061	494.85
706.254	530.69
706.446	509.77
706.638	462.68
706.831	529.53
707.023	466.56
707.215	548.13
707.407	541.93
707.599	530.11
707.792	565.56
707.984	534.18
708.176	554.91
708.368	551.23
708.56	552.39
708.752	555.68
708.944	559.56
709.136	566.34
709.329	569.44
709.521	686.85
709.713	626.59
709.905	602.38
710.097	658.18
710.289	607.22
710.481	629.89
710.672	657.01
710.864	625.24
711.056	717.85
711.248	681.23
711.44	702.93
711.632	645.78
711.824	690.73
712.016	733.35
712.207	731.02
712.399	723.27
712.591	779.85
712.783	747.69
712.975	781.79
713.166	709.52
713.358	744.2
713.55	805.62
713.741	819.95
713.933	801.74
714.125	789.54
714.316	792.25
714.508	851.54
714.7	820.92
714.891	803.49
715.083	892.42
715.274	815.11
715.466	833.52
715.657	866.45
715.849	771.71
716.04	845.92
716.232	777.72
716.423	880.98
716.615	821.31
716.806	806.59
716.998	800
717.189	779.07
717.381	726.96
717.572	723.66
717.763	755.24
717.955	757.76
718.146	726.18
718.337	734.32
718.528	696.34
718.72	678.91
718.911	722.89
719.102	725.99
719.293	743.62
719.485	726.76
719.676	718.43
719.867	693.44
720.058	675.23
720.249	700.41
720.44	729.09
720.632	751.56
720.823	781.98
721.014	845.53
721.205	814.34
721.396	890.28
721.587	936.98
721.778	952.67
721.969	943.18
722.16	957.51
722.351	1010.99
722.542	1054.97
722.733	1103.6
722.924	997.23
723.115	1074.93
723.305	1092.36
723.496	1065.43
723.687	974.37
723.878	1047.03
724.069	1014.86
724.26	1045.28
724.45	985.41
724.641	982.51
724.832	1052.64
725.023	998.2
725.213	993.94
725.404	1001.88
725.595	987.74
725.785	986.38
725.976	1078.61
726.167	1031.14
726.357	1008.86
726.548	1133.05
726.739	1036.56
726.929	1099.14
727.12	1119.49
727.31	1119.88
727.501	1104.18
727.691	1119.68
727.882	1148.55
728.072	1168.12
728.263	1144.29
728.453	1197.18
728.644	1202.99
728.834	1167.54
729.024	1180.91
729.215	1168.12
729.405	1194.66
729.596	1271.19
729.786	1268.48
729.976	1242.71
730.167	1288.24
730.357	1227.79
730.547	1227.02
730.737	1277.97
730.928	1327.38
731.118	1317.3
731.308	1304.9
731.498	1325.44
731.688	1383.95
731.879	1356.25
732.069	1421.54
732.259	1424.64
732.449	1443.43
732.639	1495.36
732.829	1467.26
733.019	1559.1
733.209	1573.82
733.399	1587.77
733.589	1654.42
733.779	1619.94
733.969	1633.11
734.159	1688.52
734.349	1680.77
734.539	1739.67
734.729	1698.02
734.919	1784.82
735.109	1790.05
735.299	1721.07
735.488	1758.85
735.678	1774.93
735.868	1765.63
736.058	1804.97
736.248	1783.85
736.437	1736.19
736.627	1739.67
736.817	1849.53
737.007	1826.86
737.196	1832.86
737.386	1837.13
737.576	1824.92
737.765	1857.47
737.955	1850.88
738.144	1909.01
738.334	1891.96
738.524	1827.63
738.713	1909.01
738.903	1912.69
739.092	1940.98
739.282	1944.66
739.471	1955.31
739.661	1945.04
739.85	2007.04
740.04	1987.67
740.229	2016.34
740.419	2040.76
740.608	2038.04
740.797	2016.15
740.987	2109.92
741.176	2072.53
741.365	2063.81
741.555	2017.51
741.744	2072.92
741.933	2077.37
742.123	2041.72
742.312	2104.3
742.501	2127.55
742.69	2162.82
742.88	2088.03
743.069	2173.47
743.258	2109.92
743.447	2198.47
743.636	2198.08
743.825	2144.8
744.014	2169.02
744.204	2188.97
744.393	2115.54
744.582	2238.38
744.771	2225.2
744.96	2193.23
745.149	2206.02
745.338	2182.97
745.527	2217.45
745.716	2217.26
745.905	2221.72
746.094	2254.65
746.283	2252.91
746.471	2234.89
746.66	2276.93
746.849	2285.07
747.038	2309.29
747.227	2258.72
747.416	2304.45
747.604	2279.06
747.793	2273.45
747.982	2269.38
748.171	2275.58
748.359	2276.16
748.548	2300.96
748.737	2251.55
748.926	2286.62
749.114	2226.95
749.303	2293.21
749.491	2270.93
749.68	2259.5
749.869	2294.18
750.057	2258.14
750.246	2256.98
750.434	2287.2
750.623	2253.49
750.811	2234.31
751	2298.44
751.188	2308.13
751.377	2320.53
751.565	2298.05
751.754	2259.3
751.942	2238.77
752.131	2319.17
752.319	2264.73
752.507	2204.67
752.696	2316.46
752.884	2316.26
753.072	2290.3
753.261	2282.94
753.449	2253.3
753.637	2241.28
753.825	2341.84
754.014	2284.68
754.202	2275.19
754.39	2327.7
754.578	2287.59
754.766	2268.21
754.955	2256.01
755.143	2348.43
755.331	2272.48
755.519	2291.66
755.707	2302.7
755.895	2231.02
756.083	2256.2
756.271	2253.68
756.459	2215.9
756.647	2315.49
756.835	2255.04
757.023	2179.48
757.211	2243.8
757.399	2232.37
757.587	2231.6
757.775	2184.32
757.963	2203.89
758.151	2229.47
758.339	2157.59
758.526	2177.73
758.714	2237.8
758.902	2111.67
759.09	2093.45
759.278	1932.26
759.465	1782.68
759.653	1535.46
759.841	1433.94
760.028	1182.07
760.216	1023
760.404	993.55
760.591	787.21
760.779	664.76
760.967	586.68
761.154	476.05
761.342	490.39
761.529	516.55
761.717	549.1
761.905	521.2
762.092	595.21
762.28	535.92
762.467	530.69
762.655	467.72
762.842	528.95
763.029	522.75
763.217	538.63
763.404	521.58
763.592	527.2
763.779	502.79
763.966	576.8
764.154	552
764.341	602.96
764.528	607.61
764.716	647.71
764.903	698.67
765.09	726.37
765.277	793.8
765.465	879.05
765.652	927.87
765.839	966.81
766.026	1085.78
766.213	1098.37
766.4	1175.48
766.588	1291.15
766.775	1321.95
766.962	1378.92
767.149	1443.05
767.336	1550.96
767.523	1471.91
767.71	1612.38
767.897	1654.62
768.084	1737.15
768.271	1726.11
768.458	1772.42
768.645	1831.31
768.832	1834.22
769.019	1861.35
769.206	1859.21
769.392	1924.89
769.579	1992.51
769.766	1962.09
769.953	1929.35
770.14	1985.93
770.327	1979.53
770.513	2031.65
770.7	2048.51
770.887	1979.14
771.073	2039.21
771.26	2031.07
771.447	2011.31
771.634	2008.98
771.82	2100.82
772.007	1989.41
772.193	2014.99
772.38	2055.67
772.567	2045.41
772.753	2010.92
772.94	2092.68
773.126	2064.2
773.313	2059.36
773.499	2062.07
773.686	2052.57
773.872	2056.45
774.059	2034.75
774.245	1981.86
774.432	2008.59
774.618	1961.32
774.804	1994.45
774.991	1987.67
775.177	2049.47
775.363	2000.84
775.55	2009.37
775.736	2009.76
775.922	2001.23
776.109	2034.36
776.295	1975.46
776.481	2028.16
776.667	2059.55
776.853	1980.11
777.04	1980.5
777.226	2001.81
777.412	2021.77
777.598	1967.91
777.784	1958.99
777.97	1962.29
778.156	2018.86
778.342	1968.1
778.528	2000.26
778.715	1947.95
778.901	1944.08
779.087	1930.32
779.272	1897.58
779.458	1907.65
779.644	1898.55
779.83	1926.64
780.016	2027.58
780.202	1932.06
780.388	1930.51
780.574	1866.58
780.76	1888.08
780.946	1956.28
781.131	1929.16
781.317	1878.01
781.503	1896.8
781.689	1873.55
781.874	2014.99
782.06	1919.28
782.246	1884.01
782.432	1864.25
782.617	1919.08
782.803	1950.86
782.989	1848.17
783.174	1867.74
783.36	1799.35
783.545	1843.91
783.731	1839.26
783.916	1774.93
784.102	1868.13
784.288	1853.01
784.473	1845.46
784.659	1798.77
784.844	1847.2
785.029	1798.77
785.215	1824.34
785.4	1780.36
785.586	1842.16
785.771	1771.25
785.956	1820.47
786.142	1803.61
786.327	1773.77
786.512	1753.23
786.698	1791.79
786.883	1721.65
787.068	1750.33
787.254	1768.54
787.439	1743.16
787.624	1747.81
787.809	1768.15
787.994	1711.77
788.18	1771.25
788.365	1698.4
788.55	1755.17
788.735	1694.34
788.92	1729.99
789.105	1706.15
789.29	1731.54
789.475	1663.14
789.66	1684.65
789.845	1680
790.03	1654.23
790.215	1699.57
790.4	1705.77
790.585	1703.83
790.77	1650.36
790.955	1587.58
791.14	1641.83
791.325	1710.61
791.51	1596.11
791.695	1636.02
791.879	1628.07
792.064	1602.11
792.249	1692.2
792.434	1619.94
792.618	1635.44
792.803	1675.54
792.988	1642.99
793.173	1638.34
793.357	1694.72
793.542	1630.59
793.727	1627.88
793.911	1673.8
794.096	1630.4
794.281	1675.93
794.465	1727.47
794.65	1649.39
794.834	1660.62
795.019	1720.69
795.203	1705.19
795.388	1671.28
795.572	1735.41
795.757	1675.74
795.941	1693.95
796.126	1693.75
796.31	1632.34
796.494	1670.7
796.679	1643.96
796.863	1603.66
797.048	1702.28
797.232	1660.04
797.416	1694.92
797.601	1637.76
797.785	1729.6
797.969	1733.09
798.153	1642.61
798.338	1715.26
798.522	1723.59
798.706	1693.95
798.89	1717.78
799.074	1791.79
799.258	1747.03
799.443	1693.75
799.627	1696.27
799.811	1704.41
799.995	1678.64
800.179	1676.32
800.363	1681.16
800.547	1685.04
800.731	1706.93
800.915	1638.92
801.099	1679.8
801.283	1706.54
801.467	1684.07
801.651	1643.77
801.835	1715.84
802.019	1686.78
802.202	1718.17
802.386	1633.5
802.57	1655.78
802.754	1702.28
802.938	1635.63
803.121	1681.16
803.305	1724.95
803.489	1708.67
803.673	1680.19
803.856	1702.09
804.04	1683.87
804.224	1684.07
804.407	1654.42
804.591	1642.99
804.775	1666.05
804.958	1675.74
805.142	1746.07
805.326	1656.36
805.509	1676.32
805.693	1729.21
805.876	1708.67
806.06	1676.9
806.243	1714.1
806.427	1738.32
806.61	1708.29
806.794	1667.99
806.977	1690.27
807.16	1702.28
807.344	1698.79
807.527	1685.62
807.71	1694.14
807.894	1699.76
808.077	1716.04
808.26	1665.27
808.444	1649.39
808.627	1704.22
808.81	1660.43
808.993	1605.21
809.177	1612.57
809.36	1633.89
809.543	1641.06
809.726	1560.46
809.909	1577.31
810.092	1556.58
810.276	1590.87
810.459	1602.31
810.642	1566.46
810.825	1519.96
811.008	1571.89
811.191	1475.21
811.374	1518.99
811.557	1504.08
811.74	1569.56
811.923	1480.63
812.106	1442.66
812.289	1460.87
812.472	1475.01
812.654	1469.4
812.837	1430.26
813.02	1407.2
813.203	1392.67
813.386	1298.9
813.569	1306.65
813.751	1225.66
813.934	1341.33
814.117	1285.53
814.3	1234.96
814.482	1234.96
814.665	1236.12
814.848	1188.66
815.03	1155.52
815.213	1130.72
815.396	1160.95
815.578	1113.48
815.761	1093.91
815.943	1173.16
816.126	1056.33
816.309	1041.6
816.491	1040.05
816.674	970.5
816.856	1015.45
817.039	974.76
817.221	1095.27
817.403	1037.92
817.586	1024.16
817.768	1059.23
817.951	1007.11
818.133	980.38
818.315	1017
818.498	1043.54
818.68	1099.34
818.862	1071.05
819.045	1089.84
819.227	1088.68
819.409	1065.63
819.591	1063.3
819.774	1049.16
819.956	1063.3
820.138	1062.14
820.32	1088.29
820.502	1114.45
820.684	1159.79
820.866	1173.35
821.048	1217.52
821.231	1210.36
821.413	1183.23
821.595	1157.46
821.777	1202.22
821.959	1168.7
822.141	1253.37
822.323	1106.51
822.505	1094.11
822.686	1053.03
822.868	1039.66
823.05	953.64
823.232	948.99
823.414	866.26
823.596	930.78
823.778	943.37
823.96	937.56
824.141	963.13
824.323	979.02
824.505	988.32
824.687	1054.19
824.868	1054
825.05	1158.04
825.232	1153.97
825.413	1206.29
825.595	1163.47
825.777	1134.79
825.958	1171.8
826.14	1138.09
826.321	1152.62
826.503	1179.16
826.685	1211.13
826.866	1184.59
827.048	1171.02
827.229	1160.95
827.411	1085.78
827.592	1073.96
827.773	1076.09
827.955	1027.07
828.136	1030.75
828.318	1009.25
828.499	1055.74
828.68	992.2
828.862	1032.3
829.043	1081.32
829.224	1050.9
829.406	1011.96
829.587	1053.03
829.768	1046.64
829.949	1061.94
830.131	1052.45
830.312	1071.63
830.493	1059.62
830.674	1058.65
830.855	1063.3
831.036	1029.4
831.218	1096.63
831.399	1113.87
831.58	1012.15
831.761	1052.26
831.942	1104.38
832.123	1048.58
832.304	985.8
832.485	1004.21
832.666	1020.68
832.847	1089.65
833.028	1047.61
833.209	1058.65
833.389	1067.95
833.57	1011.96
833.751	999.95
833.932	1058.84
834.113	1051.29
834.294	1066.01
834.475	1068.92
834.655	1094.49
834.836	1071.05
835.017	1083.26
835.198	1019.71
835.378	1051.29
835.559	1066.79
835.74	1052.06
835.92	1064.46
836.101	1053.81
836.281	1084.23
836.462	1092.75
836.643	1102.24
836.823	1111.54
837.004	1106.51
837.184	1160.37
837.365	1118.91
837.545	1139.06
837.726	1075.31
837.906	1117.94
838.087	1108.25
838.267	1102.83
838.448	1082.48
838.628	1110.19
838.808	1091.78
838.989	1153.78
839.169	1060.39
839.349	1137.89
839.53	1114.84
839.71	1143.9
839.89	1080.54
840.07	1150.1
840.251	1085.97
840.431	1152.23
840.611	1108.06
840.791	1082.29
840.971	1110.96
841.151	1080.16
841.332	1072.41
841.512	1110.38
841.692	1019.13
841.872	1069.11
842.052	1086.16
842.232	1092.56
842.412	1037.34
842.592	1064.66
842.772	1076.86
842.952	1098.76
843.132	1052.06
843.312	1067.76
843.492	1063.69
843.672	1122.98
843.851	1011.96
844.031	1079.38
844.211	1055.16
844.391	1036.37
844.571	1066.01
844.751	1066.79
844.93	1097.01
845.11	1053.03
845.29	1031.14
845.47	1087.33
845.649	1081.51
845.829	1098.56
846.009	1054.39
846.188	1065.63
846.368	1059.62
846.547	1053.61
846.727	1081.13
846.907	1011.38
847.086	1023.39
847.266	1076.48
847.445	1066.79
847.625	1006.53
847.804	1044.12
847.984	1035.01
848.163	1033.66
848.343	1034.82
848.522	1066.01
848.701	1055.74
848.881	1004.79
849.06	1028.43
849.239	1015.83
849.419	1046.83
849.598	987.35
849.777	1001.5
849.957	991.42
850.136	934.46
850.315	923.03
850.494	940.66
850.674	930.97
850.853	995.88
851.032	977.08
851.211	1052.64
851.39	999.17
851.569	937.37
851.748	946.28
851.927	996.46
852.107	983.28
852.286	934.85
852.465	902.3
852.644	996.85
852.823	993.16
853.002	967.01
853.181	975.53
853.359	992
853.538	922.45
853.717	972.43
853.896	901.13
854.075	848.63
854.254	847.08
854.433	795.35
854.611	861.61
854.79	805.42
854.969	875.17
855.148	883.31
855.327	838.94
855.505	861.03
855.684	826.15
855.863	872.46
856.041	847.85
856.22	869.17
856.399	858.9
856.577	961.2
856.756	913.34
856.934	1061.17
857.113	999.56
857.291	929.03
857.47	899.97
857.648	939.5
857.827	938.14
858.005	969.91
858.184	877.3
858.362	987.93
858.541	917.6
858.719	912.95
858.898	894.55
859.076	897.26
859.254	953.25
859.433	907.53
859.611	920.32
859.789	872.65
859.967	952.67
860.146	981.73
860.324	879.05
860.502	868.78
860.68	862.39
860.859	864.71
861.037	856.96
861.215	930
861.393	915.47
861.571	902.3
861.749	866.07
861.927	910.63
862.105	886.99
862.283	884.28
862.461	880.21
862.639	855.8
862.817	859.29
862.995	883.89
863.173	869.75
863.351	895.9
863.529	883.12
863.707	900.36
863.885	876.53
864.063	826.15
864.241	836.62
864.418	922.25
864.596	844.17
864.774	836.04
864.952	816.47
865.129	853.28
865.307	831.77
865.485	808.52
865.663	846.11
865.84	800.97
866.018	836.23
866.196	739.16
866.373	759.51
866.551	713.78
866.728	674.26
866.906	702.54
867.084	752.34
867.261	786.63
867.439	780.62
867.616	811.62
867.794	778.69
867.971	791.09
868.149	784.3
868.326	838.75
868.503	796.7
868.681	808.33
868.858	758.15
869.035	745.17
869.213	846.11
869.39	795.93
869.567	836.62
869.745	738.19
869.922	819.18
870.099	826.74
870.276	810.85
870.454	813.56
870.631	795.15
870.808	808.52
870.985	832.35
871.162	831
871.339	799.42
871.517	756.21
871.694	767.26
871.871	793.41
872.048	788.57
872.225	759.7
872.402	771.91
872.579	726.37
872.756	767.84
872.933	734.51
873.11	747.49
873.287	800.97
873.463	786.05
873.64	725.02
873.817	784.5
873.994	761.06
874.171	744.39
874.348	750.21
874.524	702.54
874.701	741.49
874.878	701.38
875.055	730.06
875.231	713.78
875.408	779.27
875.585	676.58
875.762	742.46
875.938	737.42
876.115	715.33
876.291	709.52
876.468	730.83
876.645	690.34
876.821	707.97
876.998	709.13
877.174	739.74
877.351	688.4
877.527	687.24
877.704	721.14
877.88	714.17
878.057	698.09
878.233	737.81
878.409	711.65
878.586	680.46
878.762	711.65
878.938	705.06
879.115	649.07
879.291	714.75
879.467	634.93
879.644	678.33
879.82	707.77
879.996	651.2
880.172	640.35
880.349	674.84
880.525	695.96
880.701	651.98
880.877	633.38
881.053	691.31
881.229	683.94
881.405	704.87
881.581	640.74
881.757	650.23
881.933	667.09
882.109	705.45
882.285	669.99
882.461	636.28
882.637	652.94
882.813	627.56
882.989	670.58
883.165	714.36
883.341	624.85
883.517	702.16
883.693	673.68
883.869	676
884.044	638.8
884.22	684.53
884.396	695.18
884.572	699.64
884.747	703.9
884.923	661.66
885.099	688.21
885.275	710.68
885.45	628.53
885.626	644.61
885.801	645.58
885.977	677.16
886.153	595.79
886.328	671.54
886.504	626.59
886.679	673.09
886.855	622.33
887.03	682.78
887.206	676.78
887.381	633.57
887.557	667.48
887.732	679.49
887.908	693.24
888.083	691.89
888.258	654.49
888.434	632.99
888.609	635.31
888.784	682.01
888.96	656.04
889.135	635.51
889.31	630.86
889.485	649.84
889.661	617.1
889.836	668.06
890.011	682.2
890.186	659.73
890.361	613.03
890.537	633.18
890.712	632.21
890.887	651.59
891.062	665.73
891.237	709.32
891.412	650.23
891.587	655.46
891.762	685.3
891.937	663.21
892.112	611.09
892.287	638.99
892.462	626.01
892.637	582.23
892.812	563.82
892.987	582.81
893.161	575.25
893.336	593.85
893.511	586.3
893.686	601.6
893.861	609.93
894.035	592.69
894.21	611.68
894.385	562.27
894.56	591.53
894.734	537.08
894.909	542.7
895.084	535.34
895.258	547.16
895.433	552.2
895.608	515.97
895.782	492.52
895.957	513.83
896.131	493.3
896.306	452.42
896.48	448.35
896.655	497.75
896.829	422.77
897.004	415.99
897.178	469.66
897.353	414.44
897.527	467.92
897.701	449.9
897.876	396.42
898.05	475.28
898.224	446.6
898.399	492.72
898.573	434.78
898.747	380.54
898.921	402.43
899.096	348.18
899.27	336.75
899.444	343.92
899.618	377.24
899.792	372.2
899.967	363.49
900.141	410.76
900.315	359.8
900.489	373.95
900.663	412.7
900.837	386.74
901.011	340.24
901.185	417.74
901.359	394.68
901.533	380.73
901.707	379.76
901.881	391.97
902.055	364.65
902.229	356.12
902.403	413.86
902.576	403.79
902.75	378.02
902.924	488.65
903.098	408.63
903.272	446.22
903.446	492.33
903.619	457.26
903.793	479.73
903.967	457.65
904.14	486.9
904.314	502.4
904.488	469.47
904.661	479.73
904.835	474.89
905.009	535.34
905.182	540.96
905.356	497.95
905.529	465.98
905.703	475.67
905.876	469.27
906.05	436.14
906.223	425.87
906.397	380.34
906.57	389.06
906.744	375.3
906.917	362.32
907.09	389.64
907.264	382.86
907.437	379.76
907.61	332.1
907.784	348.37
907.957	355.74
908.13	337.91
908.304	363.49
908.477	306.91
908.65	347.79
908.823	306.33
908.996	394.68
909.17	350.7
909.343	346.24
909.516	344.89
909.689	327.26
909.862	292.77
910.035	360
910.208	312.72
910.381	330.94
910.554	387.51
910.727	331.32
910.9	339.85
911.073	312.34
911.246	364.84
911.419	388.29
911.592	347.79
911.765	339.66
911.938	311.37
912.11	334.62
912.283	313.31
912.456	360
912.629	356.9
912.802	321.64
912.974	284.82
913.147	284.63
913.32	221.66
913.493	296.84
913.665	302.46
913.838	307.49
914.01	311.17
914.183	305.36
914.356	263.32
914.528	331.13
914.701	355.54
914.873	317.18
915.046	290.64
915.218	271.07
915.391	217.4
915.563	247.04
915.736	287.15
915.908	307.11
916.081	271.07
916.253	263.51
916.425	259.64
916.598	304.59
916.77	288.12
916.942	276.3
917.115	203.26
917.287	293.93
917.459	269.91
917.632	240.65
917.804	163.73
917.976	277.85
918.148	254.41
918.32	267
918.493	294.12
918.665	323.77
918.837	321.25
919.009	346.24
919.181	347.6
919.353	283.66
919.525	297.22
919.697	293.74
919.869	305.17
920.041	339.27
920.213	367.75
920.385	335.59
920.557	273.97
920.729	330.36
920.901	318.15
921.073	309.04
921.244	309.24
921.416	345.27
921.588	320.67
921.76	283.27
921.932	349.92
922.103	278.62
922.275	303.62
922.447	321.06
922.619	234.64
922.79	301.49
922.962	309.24
923.134	321.44
923.305	247.63
923.477	226.12
923.648	259.25
923.82	285.99
923.991	227.67
924.163	230.96
924.335	263.9
924.506	264.67
924.677	280.37
924.849	254.21
925.02	243.75
925.192	271.07
925.363	266.03
925.535	278.82
925.706	231.16
925.877	302.26
926.049	229.03
926.22	272.42
926.391	279.4
926.562	274.36
926.734	222.83
926.905	296.26
927.076	203.64
927.247	223.6
927.419	203.45
927.59	198.99
927.761	216.43
927.932	209.07
928.103	235.42
928.274	199.58
928.445	202.68
928.616	183.88
928.787	178.46
928.958	222.63
929.129	202.29
929.3	184.08
929.471	145.13
929.642	94.56
929.813	77.13
929.984	160.05
930.155	99.02
930.326	141.26
930.496	77.32
930.667	67.05
930.838	115.1
931.009	61.82
931.18	108.51
931.35	120.72
931.521	123.24
931.692	71.32
931.863	25.01
932.033	94.56
932.204	76.74
932.374	68.41
932.545	53.1
932.716	84.88
932.886	110.84
933.057	14.74
933.227	33.15
933.398	133.51
933.568	12.61
933.739	-8.12
933.909	13.58
934.08	74.8
934.25	-20.91
934.421	-9.28
934.591	56.59
934.761	30.05
934.932	-8.31
935.102	35.28
935.272	11.25
935.443	30.82
935.613	23.85
935.783	58.33
935.953	-3.67
936.123	173.42
936.294	-14.9
936.464	26.95
936.634	36.44
936.804	9.9
936.974	-25.95
937.144	45.74
937.314	10.87
937.484	25.59
937.655	3.5
937.825	62.02
937.995	11.45
938.165	85.85
938.334	-19.55
938.504	23.27
938.674	19.78
938.844	25.4
939.014	43.03
939.184	42.83
939.354	98.44
939.524	83.33
939.694	26.56
939.863	45.93
940.033	113.36
940.203	93.98
940.373	89.53
940.542	74.22
940.712	36.05
940.882	76.93
941.051	94.95
941.221	83.91
941.391	103.67
941.56	69.18
941.73	15.13
941.899	155.4
942.069	58.92
942.238	60.85
942.408	39.54
942.577	87.4
942.747	67.25
942.916	3.89
943.086	57.75
943.255	91.66
943.425	33.92
943.594	45.74
943.763	-1.92
943.933	10.28
944.102	-10.45
944.271	61.05
944.441	47.68
944.61	23.65
944.779	39.54
944.948	129.83
945.117	26.56
945.287	41.48
945.456	-6.96
945.625	15.13
945.794	64.34
945.963	28.11
946.132	46.71
946.301	52.33
946.47	84.49
946.639	-18
946.808	25.2
946.977	45.16
947.146	74.42
947.315	32.76
947.484	52.72
947.653	55.23
947.822	23.85
947.991	10.87
948.16	113.55
948.329	75.77
948.498	15.9
948.666	35.86
948.835	86.04
949.004	30.43
949.173	-6.77
949.341	61.24
949.51	66.08
949.679	90.3
949.847	81.78
950.016	99.8
950.185	75.97
950.353	41.67
950.522	46.32
950.69	89.53
950.859	23.65
951.028	59.69
951.196	36.44
951.365	22.49
951.533	23.07
951.701	40.9
951.87	84.49
952.038	13.77
952.207	50.58
952.375	90.3
952.543	7.38
952.712	54.65
952.88	26.95
953.048	104.83
953.217	39.73
953.385	50.39
953.553	59.11
953.721	25.4
953.89	50.97
954.058	-2.31
954.226	37.8
954.394	37.41
954.562	-17.03
954.73	48.07
954.898	25.01
955.067	59.11
955.235	19
955.403	96.5
955.571	102.9
955.739	41.28
955.907	7.96
956.075	22.3
956.243	-10.83
956.41	58.92
956.578	9.7
956.746	13.58
956.914	24.82
957.082	42.25
957.25	66.86
957.418	29.27
957.585	36.05
957.753	72.48
957.921	17.65
958.089	52.91
958.256	54.07
958.424	47.29
958.592	69.57
958.759	26.37
958.927	55.23
959.095	29.08
959.262	54.85
959.43	81.39
959.597	19
959.765	32.37
959.932	-0.37
960.1	50.39
960.267	70.93
960.435	16.1
960.602	69.57
960.77	34.31
960.937	3.5
961.104	56.2
961.272	0.21
961.439	41.87
961.606	58.33
961.774	60.08
961.941	31.79
962.108	85.65
962.275	57.17
962.443	72.48
962.61	51.94
962.777	101.54
962.944	74.42
963.111	64.73
963.278	103.67
963.446	50.58
963.613	63.37
963.78	79.26
963.947	72.87
964.114	61.24
964.281	113.94
964.448	55.43
964.615	50.78
964.782	86.43
964.949	60.66
965.116	76.16
965.282	81.78
965.449	58.92
965.616	14.93
965.783	67.44
965.95	77.52
966.117	33.15
966.283	33.92
966.45	60.47
966.617	65.7
966.784	90.88
966.95	92.24
967.117	98.44
967.284	27.14
967.45	45.55
967.617	117.43
967.784	78.29
967.95	146.49
968.117	75
968.283	107.93
968.45	151.72
968.616	82.94
968.783	96.89
968.949	84.3
969.116	101.54
969.282	79.26
969.449	79.65
969.615	47.1
969.781	33.53
969.948	48.45
970.114	28.11
970.28	133.9
970.447	74.22
970.613	125.76
970.779	53.49
970.945	74.03
971.112	112
971.278	83.13
971.444	48.65
971.61	118.59
971.776	80.61
971.942	108.51
972.108	100.76
972.275	71.32
972.441	90.3
972.607	137.38
972.773	58.33
972.939	89.53
973.105	53.68
973.271	29.85
973.437	71.12
973.602	40.32
973.768	69.18
973.934	69.57
974.1	66.28
974.266	10.28
974.432	96.89
974.598	14.35
974.763	81.78
974.929	74.03
975.095	124.01
975.261	45.16
975.426	30.24
975.592	60.08
975.758	117.62
975.923	20.36
976.089	45.55
976.255	136.03
976.42	84.49
976.586	82.36
976.751	67.63
976.917	126.73
977.082	85.26
977.248	8.15
977.413	8.15
977.579	47.48
977.744	85.07
977.91	23.85
978.075	26.37
978.24	95.53
978.406	49.23
978.571	54.85
978.736	33.15
978.902	90.3
979.067	31.98
979.232	20.36
979.397	71.12
979.563	92.24
979.728	31.4
979.893	42.64
980.058	20.55
980.223	67.63
980.388	72.48
980.554	35.47
980.719	34.12
980.884	54.27
981.049	100.96
981.214	50.39
981.379	51.55
981.544	54.27
981.709	72.48
981.874	51.36
982.039	54.65
982.204	96.89
982.368	44.38
982.533	15.71
982.698	86.62
982.863	105.22
983.028	33.34
983.193	50.78
983.357	89.14
983.522	102.31
983.687	59.11
983.852	52.33
984.016	66.47
984.181	59.3
984.346	60.08
984.51	86.23
984.675	61.43
984.839	79.65
985.004	69.57
985.168	85.26
985.333	70.73
985.498	74.8
985.662	83.52
985.827	78.87
985.991	46.32
986.155	84.1
986.32	90.3
986.484	123.43
986.649	74.42
986.813	33.34
986.977	62.4
987.142	87.4
987.306	15.13
987.47	55.23
987.634	43.8
987.799	57.75
987.963	68.8
988.127	90.11
988.291	123.63
988.455	42.64
988.62	48.65
988.784	81.39
988.948	89.33
989.112	58.92
989.276	65.12
989.44	47.48
989.604	42.64
989.768	48.07
989.932	138.35
990.096	22.3
990.26	35.08
990.424	22.3
990.588	63.95
990.752	118.59
990.915	58.33
991.079	55.82
991.243	3.89
991.407	86.23
991.571	46.71
991.734	82.94
991.898	78.87
992.062	151.14
992.226	59.5
992.389	31.6
992.553	13.97
992.717	22.1
992.88	45.55
993.044	61.43
993.207	40.12
993.371	57.56
993.535	61.63
993.698	54.27
993.862	76.74
994.025	67.44
994.189	59.3
994.352	42.25
994.515	77.71
994.679	102.51
994.842	42.83
995.006	92.05
995.169	37.22
995.332	21.52
995.496	106.38
995.659	-1.15
995.822	57.37
995.985	74.22
996.149	115.3
996.312	54.65
996.475	100.96
996.638	39.54
996.801	107.35
996.964	86.62
997.128	38.38
997.291	36.83
997.454	48.45
997.617	12.61
997.78	83.52
997.943	59.5
998.106	77.52
998.269	37.6
998.432	46.13
998.595	39.73
998.758	3.5
998.92	1.76
999.083	-0.57
999.246	41.28
999.409	19.39
999.572	-24.98
999.735	37.99
999.897	40.9
1000.06	58.33
1000.223	35.67
1000.386	78.48
1000.548	56.78
1000.711	69.96
1000.874	57.56
1001.036	-17.81
1001.199	62.4
1001.361	17.84
1001.524	29.08
1001.687	80.61
1001.849	25.2
1002.012	44.19
1002.174	46.9
1002.337	59.88
1002.499	48.45
1002.661	62.6
1002.824	25.2
1002.986	46.13
1003.149	43.22
1003.311	13.19
1003.473	91.85
1003.636	-7.54
1003.798	20.36
1003.96	54.46
1004.123	58.72
1004.285	38.38
1004.447	45.55
1004.609	30.24
1004.771	83.33
1004.933	1.18
1005.096	33.92
1005.258	-1.73
1005.42	15.32
1005.582	86.23
1005.744	39.73
1005.906	6.6
1006.068	42.45
1006.23	12.8
1006.392	-2.7
1006.554	7.18
1006.716	60.27
1006.878	45.16
1007.04	-3.67
1007.202	25.78
1007.363	48.45
1007.525	51.55
1007.687	49.42
1007.849	75.19
1008.011	-2.89
1008.172	-0.37
1008.334	11.06
1008.496	63.18
1008.658	-14.71
1008.819	13.19
1008.981	9.7
1009.143	8.35
1009.304	23.07
1009.466	46.9
1009.627	62.6
1009.789	113.16
1009.95	43.61
1010.112	10.67
1010.273	44.19
1010.435	24.82
1010.596	33.15
1010.758	26.17
1010.919	20.55
1011.081	-7.35
1011.242	16.48
1011.403	47.1
1011.565	7.77
1011.726	20.55
1011.887	-12.38
1012.049	10.48
1012.21	45.93
1012.371	73.64
1012.532	-29.63
1012.693	30.24
1012.855	20.94
1013.016	15.32
1013.177	56.78
1013.338	15.13
1013.499	77.9
1013.66	36.25
1013.821	46.32
1013.982	68.22
1014.143	18.42
1014.304	11.64
1014.465	23.46
1014.626	61.63
1014.787	7.18
1014.948	124.01
1015.109	-34.28
1015.27	73.25
1015.431	16.29
1015.592	-0.18
1015.752	84.88
1015.913	40.12
1016.074	40.32
1016.235	15.52
1016.395	9.12
1016.556	38.57
1016.717	17.84
1016.877	52.91
1017.038	15.13
1017.199	25.01
1017.359	30.24
1017.52	39.73
1017.681	-21.88
1017.841	28.69
1018.002	36.44
1018.162	-3.47
1018.323	82.16
1018.483	-1.92
1018.644	16.68
1018.804	-3.47
1018.964	-29.24
1019.125	9.9
1019.285	22.68
1019.446	-8.9
1019.606	-6.96
1019.766	-33.11
1019.926	39.73
1020.087	12.03
1020.247	-12.96
1020.407	39.35
1020.567	44.58
1020.728	18.23
1020.888	-22.07
1021.048	23.65
1021.208	-7.15
1021.368	-9.86
1021.528	37.99
1021.688	60.85
1021.848	54.07
1022.008	22.3
1022.168	11.45
1022.328	34.31
1022.488	44.58
1022.648	0.4
1022.808	4.28
1022.968	55.43
1023.128	-5.8
1023.288	7.57
1023.448	19.39
1023.608	42.45
1023.767	30.05
1023.927	-3.67
1024.087	-0.95
1024.247	7.77
1024.406	13.58
1024.566	-36.6
1024.726	-33.7
1024.885	33.34
1025.045	43.22
1025.205	2.34
1025.364	18.03
1025.524	51.17
1025.683	-1.53
1025.843	43.22
1026.003	9.32
1026.162	88.75
1026.321	46.52
1026.481	14.93
1026.64	23.85
1026.8	10.09
1026.959	23.46
1027.119	7.38
1027.278	42.06
1027.437	-10.83
1027.597	11.83
1027.756	39.93
1027.915	27.14
1028.074	27.33
1028.234	-14.51
1028.393	26.56
1028.552	0.98
1028.711	-55.2
1028.87	55.04
1029.03	-22.07
1029.189	14.16
1029.348	-37.76
1029.507	-14.13
1029.666	-18.78
1029.825	-22.85
1029.984	21.72
1030.143	39.15
1030.302	-14.13
1030.461	-19.94
1030.62	11.25
1030.779	36.83
1030.938	-16.26
1031.097	2.34
1031.255	46.9
1031.414	72.28
1031.573	55.23
1031.732	-53.46
1031.891	-0.37
1032.049	55.62
1032.208	29.27
1032.367	-15.48
1032.525	-5.8
1032.684	3.7
1032.843	7.38
1033.001	-15.48
1033.16	133.51
1033.319	30.24
1033.477	39.15
1033.636	11.25
1033.794	-43
1033.953	25.2
1034.111	44.38
1034.27	7.77
1034.428	25.98
1034.587	-19.16
1034.745	18.03
1034.903	4.67
1035.062	24.43
1035.22	-16.45
1035.378	51.94
1035.537	-10.25
1035.695	44.58
1035.853	1.37
1036.011	45.35
1036.17	17.26
1036.328	-8.31
1036.486	14.55
1036.644	33.53
1036.802	-66.05
1036.96	-22.65
1037.119	-14.32
1037.277	-30.4
1037.435	-31.95
1037.593	-25.17
1037.751	9.51
1037.909	38.57
1038.067	38.57
