Data from oakcork_FLMT105791__11__17-26-46-067.txt Node

Date: Mon Mar 20 17:26:46 GMT 2023
User: antho
Spectrometer: FLMT10579
Trigger mode: 0
Integration Time (sec): 1.000000E-1
Scans to average: 10
Electric dark correction enabled: true
Nonlinearity correction enabled: false
Boxcar width: 0
XAxis mode: Wavelengths
Number of Pixels in Spectrum: 3648
>>>>>Begin Spectral Data<<<<<
345.248	-169.98
345.464	-169.98
345.681	-169.98
345.898	-171.34
346.114	-181.22
346.331	-16.15
346.548	20.09
346.764	-12.66
346.981	-16.34
347.197	2.84
347.414	11.17
347.631	-24.86
347.847	62.52
348.064	20.86
348.28	9.62
348.497	-57.61
348.713	0.52
348.93	-10.72
349.146	10.2
349.363	-4.91
349.579	15.24
349.796	-20.21
350.012	-10.72
350.229	10.01
350.445	-4.33
350.661	-15.37
350.878	2.65
351.094	18.92
351.311	19.7
351.527	-5.1
351.743	13.69
351.96	29.97
352.176	36.55
352.392	29
352.609	22.02
352.825	1.49
353.041	1.1
353.257	-7.81
353.474	7.88
353.69	24.54
353.906	-13.63
354.122	-14.4
354.339	56.12
354.555	16.79
354.771	-0.06
354.987	54.77
355.203	39.07
355.42	-22.54
355.636	-50.44
355.852	-22.93
356.068	23.77
356.284	-44.63
356.5	40.82
356.716	0.13
356.932	12.92
357.148	6.33
357.364	-4.52
357.58	56.7
357.796	70.85
358.012	65.03
358.228	-11.88
358.444	-53.73
358.66	55.73
358.876	9.82
359.092	-17.7
359.308	3.23
359.524	23.19
359.74	-4.91
359.956	-8.78
360.172	7.69
360.388	63.68
360.604	4.97
360.819	70.65
361.035	5.36
361.251	31.13
361.467	-11.69
361.683	28.8
361.898	29.77
362.114	22.41
362.33	15.44
362.546	59.03
362.762	9.04
362.977	21.64
363.193	-20.02
363.409	40.23
363.624	-10.14
363.84	-17.11
364.056	-9.95
364.271	40.43
364.487	18.92
364.703	12.34
364.918	-29.51
365.134	8.85
365.35	-1.42
365.565	119.09
365.781	4.39
365.996	20.28
366.212	66
366.427	17.18
366.643	1.29
366.858	0.71
367.074	-9.17
367.289	60.58
367.505	76.85
367.72	-44.24
367.936	-22.15
368.151	41.98
368.367	31.71
368.582	18.34
368.798	0.52
369.013	91.58
369.228	27.45
369.444	28.42
369.659	68.33
369.874	28.61
370.09	71.43
370.305	-38.62
370.52	-16.15
370.736	41.01
370.951	38.3
371.166	60.77
371.381	78.21
371.597	36.55
371.812	-29.9
372.027	-13.24
372.242	9.43
372.458	97.78
372.673	-20.41
372.888	9.24
373.103	40.23
373.318	115.99
373.533	19.31
373.749	25.32
373.964	-21.57
374.179	72.01
374.394	-29.9
374.609	51.47
374.824	-3.16
375.039	66.58
375.254	-2.58
375.469	90.03
375.684	49.34
375.899	64.07
376.114	20.09
376.329	32.68
376.544	42.56
376.759	53.41
376.974	7.69
377.189	42.75
377.404	7.1
377.619	31.52
377.834	-27
378.049	-0.84
378.264	-5.49
378.478	43.92
378.693	14.66
378.908	36.75
379.123	15.24
379.338	61.35
379.553	59.22
379.767	60.38
379.982	49.34
380.197	42.75
380.412	14.85
380.626	57.67
380.841	110.18
381.056	34.42
381.271	79.18
381.485	-8.59
381.7	9.82
381.915	64.84
382.129	5.94
382.344	25.7
382.559	29
382.773	65.62
382.988	-22.35
383.202	15.44
383.417	10.01
383.632	105.72
383.846	37.13
384.061	18.73
384.275	19.7
384.49	36.17
384.704	60
384.919	43.14
385.133	26.87
385.348	60.19
385.562	-6.26
385.777	86.54
385.991	19.5
386.206	5.17
386.42	7.1
386.634	72.78
386.849	58.25
387.063	29
387.277	-5.3
387.492	3.04
387.706	21.25
387.92	6.91
388.135	93.9
388.349	44.3
388.563	24.74
388.778	29.58
388.992	71.62
389.206	57.09
389.42	92.74
389.635	26.09
389.849	68.91
390.063	88.48
390.277	66
390.491	120.06
390.706	60.38
390.92	85.38
391.134	45.27
391.348	88.87
391.562	4.59
391.776	36.17
391.99	16.4
392.205	81.5
392.419	11.56
392.633	10.98
392.847	95.45
393.061	10.98
393.275	89.45
393.489	50.7
393.703	33.45
393.917	75.69
394.131	10.79
394.345	84.99
394.559	76.47
394.773	31.32
394.986	82.08
395.2	60.38
395.414	84.99
395.628	16.6
395.842	55.73
396.056	28.03
396.27	3.23
396.484	47.02
396.697	59.61
396.911	97
397.125	69.88
397.339	82.47
397.553	56.12
397.766	93.13
397.98	72.98
398.194	107.85
398.408	51.47
398.621	77.24
398.835	109.6
399.049	76.66
399.262	128.58
399.476	116.57
399.69	97.78
399.903	163.65
400.117	75.3
400.331	118.12
400.544	55.35
400.758	193.3
400.971	107.08
401.185	135.36
401.398	87.32
401.612	134.4
401.826	101.85
402.039	138.66
402.253	59.8
402.466	133.23
402.68	97
402.893	99.72
403.106	108.24
403.32	101.85
403.533	134.98
403.747	100.3
403.96	134.98
404.174	128.97
404.387	69.49
404.6	100.1
404.814	116.38
405.027	119.48
405.24	91.19
405.454	85.38
405.667	136.14
405.88	77.63
406.094	110.95
406.307	161.33
406.52	110.95
406.733	65.62
406.947	58.25
407.16	167.72
407.373	132.65
407.586	70.85
407.799	75.69
408.012	126.06
408.226	123.16
408.439	154.74
408.652	91.58
408.865	145.05
409.078	150.86
409.291	137.5
409.504	88.87
409.717	123.16
409.93	139.43
410.143	117.73
410.357	87.12
410.57	81.7
410.783	115.41
410.996	122.38
411.209	123.93
411.421	182.45
411.634	119.28
411.847	102.04
412.06	135.95
412.273	107.08
412.486	153.96
412.699	222.36
412.912	124.71
413.125	173.53
413.338	134.78
413.55	145.83
413.763	141.76
413.976	141.95
414.189	105.72
414.402	110.18
414.615	194.85
414.827	113.67
415.04	178.57
415.253	191.36
415.466	159.97
415.678	182.45
415.891	127.03
416.104	142.53
416.316	132.46
416.529	119.48
416.742	163.07
416.954	164.81
417.167	156.1
417.38	136.72
417.592	164.04
417.805	107.85
418.017	96.42
418.23	140.79
418.442	120.45
418.655	137.3
418.868	148.15
419.08	179.54
419.293	193.88
419.505	145.44
419.718	161.71
419.93	181.28
420.142	139.24
420.355	192.91
420.567	209.57
420.78	178.96
420.992	159.58
421.205	196.2
421.417	146.8
421.629	127.23
421.842	138.85
422.054	120.06
422.266	176.63
422.479	170.24
422.691	120.83
422.903	199.11
423.115	128.39
423.328	183.41
423.54	167.72
423.752	175.66
423.964	149.12
424.177	153.38
424.389	166.17
424.601	252.78
424.813	175.86
425.025	188.06
425.238	176.63
425.45	153.96
425.662	161.52
425.874	462.02
426.086	173.92
426.298	194.65
426.51	185.55
426.722	168.88
426.934	140.4
427.146	202.21
427.358	140.6
427.57	192.52
427.782	161.52
427.994	146.99
428.206	139.43
428.418	142.15
428.63	195.43
428.842	213.44
429.054	183.03
429.266	197.36
429.478	116.57
429.69	160.94
429.902	112.5
430.114	191.55
430.325	180.31
430.537	149.7
430.749	165.59
430.961	83.44
431.173	112.89
431.384	154.93
431.596	96.42
431.808	152.22
432.02	179.73
432.231	205.11
432.443	246.77
432.655	179.93
432.867	162.68
433.078	194.46
433.29	237.86
433.502	235.92
433.713	248.13
433.925	209.18
434.136	256.07
434.348	166.17
434.56	128.58
434.771	293.46
434.983	172.76
435.194	169.27
435.406	198.33
435.617	254.52
435.829	280.87
436.04	250.45
436.252	259.36
436.463	285.71
436.675	259.56
436.886	234.18
437.098	263.04
437.309	281.06
437.521	227.2
437.732	243.28
437.943	243.86
438.155	226.62
438.366	170.24
438.578	270.02
438.789	238.63
439	236.5
439.211	199.88
439.423	240.38
439.634	239.79
439.845	245.22
440.057	251.61
440.268	254.52
440.479	238.24
440.69	259.75
440.902	212.09
441.113	262.85
441.324	239.21
441.535	266.14
441.746	301.99
441.957	203.18
442.168	240.18
442.38	273.12
442.591	287.84
442.802	229.53
443.013	286.49
443.224	272.54
443.435	264.21
443.646	241.34
443.857	270.79
444.068	264.4
444.279	223.33
444.49	315.74
444.701	291.72
444.912	375.03
445.123	311.87
445.334	289.39
445.545	270.99
445.756	266.34
445.967	253.36
446.178	295.01
446.388	308.77
446.599	306.83
446.81	287.46
447.021	274.86
447.232	319.42
447.443	348.1
447.653	282.23
447.864	310.51
448.075	306.25
448.286	321.36
448.496	322.14
448.707	334.54
448.918	259.36
449.129	365.34
449.339	259.75
449.55	314.77
449.761	291.33
449.971	344.03
450.182	282.23
450.393	336.09
450.603	300.24
450.814	362.63
451.024	327.17
451.235	357.21
451.446	374.06
451.656	368.25
451.867	310.12
452.077	327.95
452.288	370.77
452.498	386.65
452.709	306.44
452.919	355.66
453.13	293.27
453.34	373.48
453.55	251.42
453.761	334.92
453.971	324.66
454.182	319.62
454.392	345.97
454.602	390.34
454.813	365.34
455.023	344.22
455.233	289.78
455.444	340.35
455.654	282.03
455.864	326.59
456.075	320.97
456.285	316.52
456.495	317.49
456.705	354.11
456.916	393.05
457.126	404.67
457.336	336.47
457.546	307.22
457.756	344.81
457.967	393.63
458.177	338.61
458.387	330.27
458.597	304.51
458.807	337.83
459.017	338.41
459.227	332.6
459.437	338.61
459.647	389.17
459.857	372.9
460.068	339.96
460.278	407
460.488	364.57
460.698	415.72
460.908	365.73
461.117	305.09
461.327	338.41
461.537	359.34
461.747	366.89
461.957	372.12
462.167	462.41
462.377	398.47
462.587	373.29
462.797	371.16
463.007	363.99
463.216	387.04
463.426	421.14
463.636	399.05
463.846	332.6
464.056	377.74
464.265	395.95
464.475	365.73
464.685	382.97
464.895	394.4
465.104	367.47
465.314	405.06
465.524	376.77
465.733	349.26
465.943	439.16
466.153	470.93
466.362	430.25
466.572	386.27
466.782	369.61
466.991	398.09
467.201	440.9
467.41	313.22
467.62	412.23
467.829	406.61
468.039	412.62
468.249	393.05
468.458	395.76
468.668	450.59
468.877	429.67
469.086	471.32
469.296	473.65
469.505	417.27
469.715	507.36
469.924	426.18
470.134	474.03
470.343	472.29
470.552	411.84
470.762	427.34
470.971	389.37
471.18	434.9
471.39	431.8
471.599	431.22
471.808	437.03
472.018	443.81
472.227	478.68
472.436	496.51
472.645	444.59
472.855	421.72
473.064	520.73
473.273	481.2
473.482	496.12
473.691	519.95
473.901	487.98
474.11	457.57
474.319	574.2
474.528	467.83
474.737	544.56
474.946	514.72
475.155	509.1
475.364	546.88
475.573	487.4
475.783	503.87
475.992	535.65
476.201	571.1
476.41	460.47
476.619	470.74
476.828	517.82
477.037	486.82
477.245	509.49
477.454	529.64
477.663	501.93
477.872	509.68
478.081	569.16
478.29	523.05
478.499	608.5
478.708	546.88
478.917	618.76
479.125	566.84
479.334	562.38
479.543	546.88
479.752	567.03
479.961	575.75
480.169	611.6
480.378	564.71
480.587	707.89
480.796	598.23
481.004	586.6
481.213	615.08
481.422	578.66
481.63	580.01
481.839	648.99
482.048	670.49
482.256	647.44
482.465	646.08
482.674	650.93
482.882	666.62
483.091	690.84
483.299	646.47
483.508	692.39
483.716	663.91
483.925	682.31
484.134	615.08
484.342	656.16
484.551	681.73
484.759	698.2
484.967	695.88
485.176	663.33
485.384	703.43
485.593	677.47
485.801	673.59
486.01	638.72
486.218	622.25
486.426	589.9
486.635	597.45
486.843	622.25
487.051	600.36
487.26	630.58
487.468	693.74
487.676	658.87
487.885	647.24
488.093	695.68
488.301	684.44
488.509	673.21
488.717	718.54
488.926	715.25
489.134	710.79
489.342	714.67
489.55	673.59
489.758	719.32
489.967	708.47
490.175	818.9
490.383	752.26
490.591	807.09
490.799	713.12
491.007	775.7
491.215	727.84
491.423	754
491.631	754
491.839	755.74
492.047	804.57
492.255	709.44
492.463	673.79
492.671	733.85
492.879	774.15
493.087	731.91
493.295	783.06
493.503	810.77
493.711	783.84
493.919	819.87
494.127	784.03
494.334	814.45
494.542	748.96
494.75	800.11
494.958	792.36
495.166	891.37
495.374	836.15
495.581	806.89
495.789	826.65
495.997	849.52
496.205	831.89
496.412	790.04
496.62	785.19
496.828	843.51
497.035	810.38
497.243	842.15
497.451	830.34
497.658	834.99
497.866	828.4
498.074	907.64
498.281	808.25
498.489	889.62
498.696	841.57
498.904	836.92
499.112	826.85
499.319	916.55
499.527	860.95
499.734	870.44
499.942	809.41
500.149	853.78
500.357	845.84
500.564	832.08
500.771	847.19
500.979	809.61
501.186	822.2
501.394	842.74
501.601	804.18
501.808	855.14
502.016	837.31
502.223	818.13
502.43	817.74
502.638	813.87
502.845	795.46
503.052	892.34
503.26	827.82
503.467	912.1
503.674	865.99
503.881	871.6
504.089	941.55
504.296	872.38
504.503	801.47
504.71	841.38
504.917	823.94
505.125	878.58
505.332	846.22
505.539	903.38
505.746	944.84
505.953	921.2
506.16	910.55
506.367	948.13
506.574	965.18
506.781	948.13
506.988	856.49
507.195	882.07
507.402	888.65
507.609	944.84
507.816	890.4
508.023	886.91
508.23	876.45
508.437	837.7
508.644	892.72
508.851	925.08
509.058	943.87
509.265	932.83
509.472	960.92
509.679	1029.12
509.885	899.89
510.092	943.1
510.299	934.18
510.506	917.72
510.713	937.87
510.92	918.1
511.126	935.93
511.333	969.45
511.54	942.13
511.746	1017.3
511.953	987.08
512.16	1010.91
512.367	958.79
512.573	980.88
512.78	966.15
512.987	981.07
513.193	966.35
513.4	897.95
513.606	944.65
513.813	980.88
514.02	950.27
514.226	996.18
514.433	1001.61
514.639	933.8
514.846	966.35
515.052	925.27
515.259	922.37
515.465	952.2
515.672	972.55
515.878	1027.38
516.085	938.06
516.291	1003.16
516.497	955.3
516.704	977.78
516.91	960.92
517.117	887.3
517.323	793.72
517.529	907.25
517.736	874.32
517.942	922.95
518.148	910.16
518.354	929.73
518.561	932.63
518.767	935.35
518.973	998.31
519.179	983.98
519.386	931.47
519.592	925.27
519.798	910.35
520.004	1025.83
520.21	982.23
520.417	1026.02
520.623	1026.6
520.829	1060.12
521.035	1080.27
521.241	1050.24
521.447	1038.42
521.653	1186.64
521.859	1067.48
522.065	1059.54
522.271	1144.4
522.477	1129.68
522.683	1151.76
522.889	1100.03
523.095	1100.42
523.301	1087.24
523.507	1097.71
523.713	1081.24
523.919	1051.21
524.125	1145.18
524.331	1108.94
524.537	1202.52
524.742	1137.23
524.948	1163.78
525.154	1169.01
525.36	1253.09
525.566	1170.17
525.772	1208.92
525.977	1139.56
526.183	1158.74
526.389	1199.42
526.595	1150.6
526.8	1122.51
527.006	1096.74
527.212	1100.42
527.417	1060.31
527.623	1040.94
527.829	1108.36
528.034	1127.54
528.24	1152.93
528.446	1124.83
528.651	1190.9
528.857	1195.94
529.062	1246.7
529.268	1172.3
529.473	1225
529.679	1195.16
529.884	1286.42
530.09	1254.06
530.295	1277.5
530.501	1252.32
530.706	1234.3
530.912	1188.19
531.117	1273.05
531.323	1259.87
531.528	1288.35
531.733	1283.12
531.939	1234.3
532.144	1293
532.35	1282.74
532.555	1324.59
532.76	1268.2
532.966	1274.6
533.171	1261.42
533.376	1256.58
533.581	1226.16
533.787	1268.2
533.992	1276.34
534.197	1332.14
534.402	1289.71
534.607	1292.62
534.813	1381.55
535.018	1278.67
535.223	1266.65
535.428	1319.94
535.633	1361.78
535.838	1337.18
536.043	1334.27
536.249	1396.85
536.454	1340.67
536.659	1329.82
536.864	1302.3
537.069	1287.97
537.274	1368.18
537.479	1324.39
537.684	1338.34
537.889	1294.94
538.094	1399.57
538.299	1345.12
538.504	1351.9
538.708	1340.86
538.913	1371.47
539.118	1367.4
539.323	1389.3
539.528	1323.42
539.733	1320.13
539.938	1396.47
540.142	1362.17
540.347	1345.32
540.552	1315.09
540.757	1312.19
540.962	1310.44
541.166	1288.16
541.371	1294.17
541.576	1311.22
541.781	1196.13
541.985	1352.29
542.19	1360.82
542.395	1415.45
542.599	1401.89
542.804	1376.51
543.008	1411.97
543.213	1356.75
543.418	1313.54
543.622	1391.04
543.827	1308.12
544.031	1416.23
544.236	1402.28
544.44	1376.12
544.645	1501.48
544.849	1382.13
545.054	1422.04
545.258	1491.4
545.463	1416.23
545.667	1384.65
545.872	1404.8
546.076	1430.56
546.281	1398.98
546.485	1408.48
546.689	1387.94
546.894	1433.28
547.098	1411.97
547.302	1342.8
547.507	1378.64
547.711	1411.77
547.915	1440.45
548.119	1387.94
548.324	1394.72
548.528	1429.4
548.732	1399.57
548.936	1428.43
549.141	1446.06
549.345	1402.67
549.549	1404.02
549.753	1409.64
549.957	1482.49
550.161	1493.15
550.366	1446.26
550.57	1414.29
550.774	1423.98
550.978	1406.73
551.182	1446.84
551.386	1440.06
551.59	1393.37
551.794	1373.8
551.998	1444.13
552.202	1386.58
552.406	1362.75
552.61	1409.64
552.814	1403.83
553.018	1482.68
553.222	1408.87
553.426	1364.69
553.63	1494.89
553.833	1423.2
554.037	1389.1
554.241	1423.59
554.445	1409.25
554.649	1389.88
554.853	1409.83
555.056	1444.9
555.26	1466.02
555.464	1419.33
555.668	1393.75
555.871	1438.12
556.075	1455.17
556.279	1392.78
556.483	1385.03
556.686	1378.06
556.89	1371.47
557.094	1433.28
557.297	1335.05
557.501	1443.55
557.704	1331.37
557.908	1439.86
558.112	1358.3
558.315	1449.94
558.519	1377.09
558.722	1384.84
558.926	1354.62
559.129	1306.18
559.333	1291.65
559.536	1321.68
559.74	1311.8
559.943	1278.86
560.147	1285.25
560.35	1323.62
560.553	1299.01
560.757	1294.36
560.96	1359.27
561.164	1320.13
561.367	1383.68
561.57	1336.21
561.774	1340.67
561.977	1343.38
562.18	1306.57
562.384	1407.9
562.587	1306.18
562.79	1320.52
562.993	1291.45
563.197	1362.17
563.4	1412.74
563.603	1355
563.806	1393.17
564.009	1280.99
564.212	1341.63
564.416	1251.16
564.619	1315.09
564.822	1281.57
565.025	1335.24
565.228	1285.06
565.431	1302.3
565.634	1208.34
565.837	1252.9
566.04	1217.64
566.243	1224.03
566.446	1189.54
566.649	1272.27
566.852	1187.02
567.055	1260.84
567.258	1289.13
567.461	1309.86
567.664	1320.71
567.867	1225.97
568.07	1275.95
568.273	1255.42
568.475	1299.2
568.678	1215.31
568.881	1212.21
569.084	1236.04
569.287	1136.07
569.489	1160.87
569.692	1219.57
569.895	1221.9
570.098	1163.78
570.3	1175.59
570.503	1114.56
570.706	1133.16
570.909	1131.23
571.111	1109.33
571.314	1126.58
571.516	1131.03
571.719	1178.11
571.922	1108.56
572.124	1106.43
572.327	1146.92
572.529	1111.85
572.732	1110.69
572.935	1148.47
573.137	1204.07
573.34	1139.36
573.542	1158.93
573.745	1197.87
573.947	1134.71
574.15	1099.06
574.352	1078.14
574.554	1176.56
574.757	1077.75
574.959	1066.71
575.162	1093.83
575.364	1072.71
575.566	1180.05
575.769	1078.33
575.971	1092.86
576.173	989.4
576.376	1083.56
576.578	1082.01
576.78	1132.78
576.982	1001.41
577.185	1070.58
577.387	1040.36
577.589	1049.27
577.791	1092.67
577.993	1091.51
578.196	1066.32
578.398	1082.21
578.6	1091.7
578.802	1018.27
579.004	1012.85
579.206	1011.3
579.408	1058.38
579.61	1037.84
579.812	1071.75
580.014	1046.36
580.216	1033.38
580.418	1033.38
580.62	1038.81
580.822	982.82
581.024	1064
581.226	1101.58
581.428	1013.23
581.63	1128.13
581.832	990.56
582.034	1077.75
582.236	1026.02
582.438	1088.41
582.64	1093.06
582.841	1133.36
583.043	1128.13
583.245	1069.81
583.447	1110.88
583.649	1042.49
583.85	1083.56
584.052	1101
584.254	1043.85
584.456	1098.87
584.657	1034.35
584.859	1057.41
585.061	1051.4
585.262	1023.5
585.464	990.76
585.666	1072.91
585.867	1026.99
586.069	1073.1
586.27	1043.65
586.472	1054.11
586.674	1059.15
586.875	1027.38
587.077	1015.36
587.278	1019.43
587.48	1028.15
587.681	1129.87
587.883	1051.6
588.084	966.73
588.285	1004.51
588.487	1038.61
588.688	1010.33
588.89	944.07
589.091	912.48
589.292	912.48
589.494	911.9
589.695	879.16
589.896	847.77
590.098	836.73
590.299	913.26
590.5	834.79
590.702	886.72
590.903	902.02
591.104	987.27
591.305	902.41
591.507	977.58
591.708	966.54
591.909	924.5
592.11	992.11
592.311	993.86
592.512	947.17
592.714	877.03
592.915	913.45
593.116	908.42
593.317	933.02
593.518	914.62
593.719	912.29
593.92	962.86
594.121	969.83
594.322	977.58
594.523	947.36
594.724	877.22
594.925	908.42
595.126	954.33
595.327	965.18
595.528	923.53
595.729	954.92
595.929	952.4
596.13	926.24
596.331	922.95
596.532	959.18
596.733	980.88
596.934	992.5
597.135	975.65
597.335	959.57
597.536	907.06
597.737	949.1
597.938	934.57
598.138	924.11
598.339	933.8
598.54	955.3
598.74	927.4
598.941	926.43
599.142	981.46
599.342	947.17
599.543	931.86
599.744	918.68
599.944	903.57
600.145	933.6
600.345	938.83
600.546	1004.71
600.746	949.1
600.947	1013.81
601.147	938.06
601.348	982.82
601.548	924.3
601.749	959.37
601.949	908.42
602.15	930.12
602.35	902.99
602.551	940
602.751	895.24
602.951	929.73
603.152	858.43
603.352	928.37
603.552	942.9
603.753	912.1
603.953	925.27
604.153	950.85
604.354	928.57
604.554	921.59
604.754	923.72
604.954	871.02
605.155	947.36
605.355	915.78
605.555	955.11
605.755	998.9
605.955	908.61
606.155	951.23
606.356	896.21
606.556	944.65
606.756	937.09
606.956	874.32
607.156	968.28
607.356	889.24
607.556	916.17
607.756	940.58
607.956	950.07
608.156	913.84
608.356	893.89
608.556	931.28
608.756	899.5
608.956	895.63
609.156	923.33
609.356	851.45
609.556	869.67
609.755	900.67
609.955	862.89
610.155	901.25
610.355	926.63
610.555	874.51
610.755	916.36
610.954	865.99
611.154	873.93
611.354	906.09
611.554	875.29
611.753	860.75
611.953	810.19
612.153	886.72
612.352	862.5
612.552	835.76
612.752	796.82
612.951	879.74
613.151	859.4
613.351	823.17
613.55	849.52
613.75	879.94
613.949	851.65
614.149	870.83
614.348	849.13
614.548	828.2
614.747	763.3
614.947	836.54
615.146	779.57
615.346	879.35
615.545	848.35
615.745	834.79
615.944	876.84
616.144	814.45
616.343	847.19
616.542	830.92
616.742	820.07
616.941	809.02
617.14	761.36
617.34	846.03
617.539	824.52
617.738	800.5
617.938	871.8
618.137	805.54
618.336	797.59
618.535	819.87
618.734	846.42
618.934	831.69
619.133	858.04
619.332	845.25
619.531	778.22
619.73	802.24
619.929	863.47
620.128	829.75
620.328	878.19
620.527	771.63
620.726	811.35
620.925	825.88
621.124	777.06
621.323	817.35
621.522	785.97
621.721	804.37
621.92	767.56
622.119	822.97
622.318	779.77
622.517	778.02
622.715	791.78
622.914	737.34
623.113	807.67
623.312	723.78
623.511	778.99
623.71	789.65
623.909	754
624.107	815.61
624.306	688.9
624.505	755.55
624.704	739.66
624.902	733.46
625.101	781.32
625.3	760.2
625.499	739.27
625.697	731.33
625.896	737.72
626.095	762.33
626.293	742.18
626.492	733.27
626.69	785.97
626.889	719.13
627.088	800.31
627.286	715.83
627.485	730.94
627.683	700.33
627.882	760.01
628.08	682.51
628.279	700.14
628.477	787.13
628.676	675.34
628.874	734.24
629.073	678.05
629.271	695.88
629.469	716.22
629.668	718.35
629.866	707.11
630.065	717.58
630.263	723
630.461	678.24
630.66	705.18
630.858	746.83
631.056	765.24
631.254	734.82
631.453	675.34
631.651	749.74
631.849	701.11
632.047	721.45
632.245	698.98
632.444	710.99
632.642	735.98
632.84	760.2
633.038	688.71
633.236	680.38
633.434	683.67
633.632	680.38
633.83	681.73
634.028	738.11
634.227	709.05
634.425	784.42
634.623	693.94
634.821	743.34
635.019	735.4
635.216	735.21
635.414	755.36
635.612	728.62
635.81	698.78
636.008	783.06
636.206	683.09
636.404	723
636.602	691.23
636.8	710.79
636.997	746.06
637.195	743.92
637.393	699.17
637.591	763.88
637.789	716.22
637.986	701.49
638.184	706.53
638.382	766.21
638.58	778.41
638.777	795.85
638.975	711.38
639.173	741.79
639.37	733.66
639.568	762.72
639.765	736.56
639.963	690.64
640.161	735.4
640.358	729.78
640.556	687.93
640.753	664.29
640.951	664.1
641.148	712.73
641.346	677.08
641.543	742.76
641.741	737.72
641.938	691.61
642.136	699.94
642.333	650.15
642.531	740.44
642.728	717.96
642.925	712.73
643.123	699.56
643.32	689.48
643.517	660.03
643.715	706.53
643.912	666.23
644.109	716.61
644.306	674.18
644.504	644.53
644.701	687.16
644.898	685.03
645.095	679.79
645.293	656.93
645.49	722.23
645.687	688.13
645.884	714.09
646.081	649.18
646.278	670.49
646.475	662.36
646.672	642.79
646.87	685.8
647.067	685.99
647.264	672.43
647.461	639.88
647.658	610.82
647.855	681.93
648.052	650.54
648.249	578.08
648.446	634.65
648.642	620.51
648.839	616.44
649.036	619.15
649.233	578.85
649.43	554.44
649.627	575.36
649.824	619.93
650.021	582.53
650.217	597.65
650.414	591.83
650.611	618.18
650.808	638.72
651.004	651.51
651.201	638.72
651.398	647.83
651.595	642.98
651.791	628.65
651.988	659.06
652.185	575.17
652.381	619.73
652.578	608.11
652.775	595.51
652.971	625.93
653.168	634.26
653.364	631.16
653.561	566.26
653.757	602.1
653.954	649.76
654.15	603.65
654.347	663.52
654.543	607.33
654.74	591.83
654.936	574.2
655.133	598.23
655.329	591.64
655.525	582.73
655.722	631.36
655.918	559.48
656.115	646.66
656.311	543.59
656.507	521.5
656.704	477.72
656.9	533.71
657.096	537.58
657.292	527.32
657.489	587.57
657.685	551.73
657.881	571.49
658.077	559.86
658.273	579.63
658.47	636.4
658.666	582.15
658.862	602.68
659.058	562.77
659.254	608.11
659.45	528.28
659.646	563.93
659.842	572.65
660.038	615.47
660.234	549.79
660.43	589.7
660.626	650.73
660.822	598.23
661.018	586.21
661.214	554.25
661.41	551.53
661.606	617.21
661.802	593.58
661.998	570.52
662.194	530.03
662.39	595.32
662.586	622.25
662.781	599.97
662.977	591.45
663.173	625.93
663.369	590.09
663.564	593.58
663.76	584.66
663.956	554.05
664.152	620.51
664.347	524.22
664.543	599.2
664.739	571.88
664.934	541.27
665.13	525.77
665.326	624.19
665.521	596.68
665.717	529.83
665.912	537.78
666.108	485.66
666.304	518.4
666.499	581.18
666.695	486.82
666.89	548.82
667.086	584.47
667.281	591.25
667.477	634.07
667.672	591.06
667.867	575.56
668.063	586.8
668.258	519.18
668.454	553.47
668.649	607.91
668.844	580.98
669.04	559.28
669.235	537.78
669.43	536.03
669.626	511.82
669.821	540.1
670.016	502.32
670.211	545.14
670.407	520.15
670.602	537.58
670.797	542.82
670.992	593.19
671.187	518.6
671.382	587.57
671.578	505.81
671.773	542.82
671.968	492.44
672.163	556.18
672.358	584.66
672.553	545.33
672.748	547.08
672.943	625.55
673.138	540.3
673.333	552.12
673.528	510.27
673.723	582.73
673.918	532.55
674.113	486.24
674.308	609.85
674.503	561.03
674.698	565.48
674.892	547.85
675.087	580.4
675.282	561.61
675.477	543.59
675.672	532.93
675.867	491.86
676.061	513.95
676.256	497.67
676.451	509.1
676.646	523.44
676.84	485.66
677.035	488.37
677.23	484.11
677.424	516.47
677.619	543.59
677.814	556.96
678.008	564.32
678.203	471.71
678.397	519.57
678.592	518.02
678.787	549.6
678.981	507.75
679.176	506.39
679.37	527.32
679.565	479.65
679.759	484.69
679.954	498.83
680.148	540.88
680.342	595.71
680.537	534.29
680.731	476.36
680.926	513.95
681.12	532.74
681.314	510.07
681.509	497.67
681.703	520.92
681.897	552.31
682.092	500.58
682.286	494.96
682.48	573.23
682.674	540.68
682.869	498.45
683.063	514.14
683.257	563.16
683.451	500.97
683.645	517.43
683.839	514.72
684.034	511.82
684.228	562.77
684.422	464.15
684.616	472.1
684.81	508.13
685.004	467.45
685.198	509.88
685.392	521.12
685.586	494.77
685.78	523.05
685.974	513.17
686.168	520.34
686.362	534.87
686.556	457.57
686.75	433.15
686.944	429.86
687.138	465.7
687.331	393.44
687.525	375.03
687.719	341.51
687.913	412.81
688.107	422.69
688.301	383.94
688.494	414.94
688.688	360.5
688.882	379.87
689.076	345.19
689.269	383.36
689.463	484.88
689.657	400.8
689.85	392.66
690.044	407.19
690.238	381.42
690.431	397.12
690.625	423.66
690.818	438
691.012	438.19
691.205	451.75
691.399	416.88
691.593	458.15
691.786	477.13
691.98	473.65
692.173	495.93
692.366	478.49
692.56	462.41
692.753	531
692.947	453.5
693.14	518.6
693.333	507.55
693.527	443.62
693.72	502.9
693.914	493.02
694.107	478.1
694.3	509.3
694.493	490.12
694.687	512.4
694.88	452.72
695.073	531.19
695.266	530.8
695.46	519.37
695.653	543.01
695.846	536.42
696.039	453.89
696.232	497.67
696.425	532.16
696.618	557.35
696.812	517.63
697.005	631.36
697.198	658.09
697.391	575.75
697.584	573.23
697.777	632.91
697.97	638.72
698.163	645.69
698.356	620.7
698.549	657.32
698.742	654.61
698.935	613.92
699.127	617.6
699.32	599.78
699.513	597.65
699.706	622.25
699.899	673.21
700.092	627.48
700.285	634.26
700.477	574.98
700.67	630.39
700.863	666.04
701.056	747.22
701.248	735.79
701.441	717.58
701.634	670.69
701.826	758.65
702.019	685.8
702.212	718.93
702.404	698.2
702.597	667.39
702.79	685.41
702.982	727.65
703.175	730.94
703.367	754.97
703.56	773.57
703.752	831.5
703.945	782.67
704.137	796.43
704.33	810.19
704.522	805.54
704.715	828.59
704.907	847.19
705.1	891.56
705.292	854.94
705.484	836.54
705.677	859.4
705.869	868.5
706.061	897.76
706.254	940.38
706.446	899.12
706.638	900.47
706.831	935.54
707.023	926.24
707.215	998.51
707.407	964.41
707.599	970.42
707.792	1032.8
707.984	1018.85
708.176	1028.93
708.368	969.45
708.56	1018.66
708.752	1011.68
708.944	1020.21
709.136	1056.05
709.329	1019.43
709.521	1127.54
709.713	1100.61
709.905	1093.44
710.097	1135.29
710.289	1073.3
710.481	1120.96
710.672	1153.12
710.864	1127.16
711.056	1183.15
711.248	1160.09
711.44	1182.96
711.632	1150.99
711.824	1194.19
712.016	1251.35
712.207	1230.04
712.399	1234.88
712.591	1312.57
712.783	1260.26
712.975	1263.36
713.166	1220.93
713.358	1275.37
713.55	1303.85
713.741	1301.53
713.933	1305.4
714.125	1299.98
714.316	1309.28
714.508	1369.53
714.7	1353.07
714.891	1358.1
715.083	1400.73
715.274	1367.6
715.466	1373.22
715.657	1422.43
715.849	1301.92
716.04	1395.3
716.232	1311.8
716.423	1422.04
716.615	1326.33
716.806	1281.38
716.998	1270.14
717.189	1240.89
717.381	1197.49
717.572	1177.53
717.763	1190.9
717.955	1174.43
718.146	1146.73
718.337	1139.56
718.528	1131.03
718.72	1063.03
718.911	1129.09
719.102	1119.02
719.293	1136.26
719.485	1146.73
719.676	1127.16
719.867	1119.79
720.058	1089.38
720.249	1108.94
720.44	1121.93
720.632	1180.24
720.823	1236.04
721.014	1288.16
721.205	1305.02
721.396	1388.52
721.587	1418.36
721.778	1428.63
721.969	1485.98
722.16	1539.64
722.351	1504.77
722.542	1641.94
722.733	1652.21
722.924	1560.76
723.115	1623.92
723.305	1578.59
723.496	1599.51
723.687	1510.2
723.878	1502.64
724.069	1541.19
724.26	1522.01
724.45	1472.8
724.641	1508.26
724.832	1541.58
725.023	1508.06
725.213	1488.3
725.404	1492.18
725.595	1546.23
725.785	1488.69
725.976	1546.43
726.167	1543.91
726.357	1534.8
726.548	1628.77
726.739	1572.97
726.929	1639.23
727.12	1643.88
727.31	1666.36
727.501	1635.16
727.691	1651.05
727.882	1623.34
728.072	1702.97
728.263	1690.77
728.453	1726.03
728.644	1738.62
728.834	1723.12
729.024	1707.04
729.215	1691.74
729.405	1741.14
729.596	1793.45
729.786	1808.18
729.976	1782.41
730.167	1819.22
730.357	1793.65
730.547	1825.03
730.737	1887.23
730.928	1903.31
731.118	1920.55
731.308	1909.51
731.498	1892.85
731.688	1990.69
731.879	1968.99
732.069	2015.29
732.259	2024.59
732.449	2046.1
732.639	2156.34
732.829	2155.18
733.019	2213.88
733.209	2261.35
733.399	2240.43
733.589	2299.91
733.779	2272.2
733.969	2312.31
734.159	2398.72
734.349	2412.67
734.539	2424.68
734.729	2417.13
734.919	2442.12
735.109	2480.67
735.299	2469.63
735.488	2488.23
735.678	2524.07
735.868	2533.37
736.058	2505.28
736.248	2443.09
736.437	2471.18
736.627	2476.02
736.817	2586.07
737.007	2545.77
737.196	2571.74
737.386	2570.96
737.576	2519.04
737.765	2572.51
737.955	2560.11
738.144	2704.84
738.334	2683.33
738.524	2589.37
738.713	2622.11
738.903	2608.35
739.092	2655.82
739.282	2647.1
739.471	2669.19
739.661	2639.55
739.85	2749.98
740.04	2682.75
740.229	2775.95
740.419	2790.67
740.608	2795.51
740.797	2757.93
740.987	2833.29
741.176	2807.53
741.365	2800.36
741.555	2771.3
741.744	2823.61
741.933	2787.96
742.123	2852.28
742.312	2859.45
742.501	2894.13
742.69	2890.06
742.88	2822.25
743.069	2952.84
743.258	2851.7
743.447	2970.66
743.636	2977.83
743.825	2880.96
744.014	2967.17
744.204	2977.83
744.393	2899.56
744.582	2998.37
744.771	3009.99
744.96	2964.07
745.149	3021.62
745.338	2937.53
745.527	3008.25
745.716	2966.98
745.905	2990.04
746.094	2968.92
746.283	3034.4
746.471	3010.19
746.66	3045.25
746.849	3065.99
747.038	3074.32
747.227	3026.85
747.416	3068.5
747.604	3015.03
747.793	3024.14
747.982	3031.89
748.171	3040.6
748.359	3092.14
748.548	3014.25
748.737	3058.62
748.926	3035.18
749.114	2951.29
749.303	3038.28
749.491	3020.45
749.68	2929.39
749.869	3036.73
750.057	2967.56
750.246	2968.34
750.434	3015.42
750.623	3015.42
750.811	2995.27
751	3016.39
751.188	3010.19
751.377	2972.21
751.565	3012.51
751.754	2972.02
751.942	3001.08
752.131	3051.26
752.319	2967.37
752.507	2924.55
752.696	3055.91
752.884	3043.12
753.072	2977.83
753.261	3020.65
753.449	2957.49
753.637	2972.79
753.825	3018.71
754.014	3013.09
754.202	2977.25
754.39	3027.24
754.578	3046.8
754.766	2960.59
754.955	2965.62
755.143	3053.2
755.331	2986.16
755.519	2977.25
755.707	2984.03
755.895	2930.75
756.083	2982.29
756.271	2958.07
756.459	2945.28
756.647	3008.25
756.835	2969.31
757.023	2950.12
757.211	2915.25
757.399	2940.24
757.587	2905.76
757.775	2865.07
757.963	2906.14
758.151	2862.55
758.339	2877.28
758.526	2842.59
758.714	2887.93
758.902	2793.77
759.09	2763.55
759.278	2539.38
759.465	2373.34
759.653	2018.39
759.841	1859.33
760.028	1558.83
760.216	1367.79
760.404	1298.04
760.591	1030.48
760.779	868.7
760.967	747.02
761.154	636.78
761.342	661.78
761.529	674.56
761.717	747.61
761.905	712.34
762.092	781.51
762.28	720.48
762.467	722.42
762.655	665.26
762.842	685.22
763.029	686.38
763.217	720.68
763.404	711.57
763.592	722.61
763.779	702.85
763.966	747.8
764.154	750.12
764.341	810.19
764.528	832.08
764.716	879.35
764.903	914.03
765.09	995.02
765.277	1054.31
765.465	1177.14
765.652	1201.17
765.839	1268.2
766.026	1375.35
766.213	1434.44
766.4	1548.36
766.588	1698.32
766.775	1673.14
766.962	1765.36
767.149	1843.63
767.336	1973.06
767.523	1928.11
767.71	2075.16
767.897	2169.9
768.084	2236.75
768.271	2276.08
768.458	2304.75
768.645	2370.43
768.832	2320.83
769.019	2362.1
769.206	2421.19
769.392	2525.04
769.579	2613.97
769.766	2480.67
769.953	2505.47
770.14	2513.42
770.327	2568.64
770.513	2612.42
770.7	2653.3
770.887	2597.7
771.073	2624.44
771.26	2622.11
771.447	2599.64
771.634	2575.61
771.82	2691.28
772.007	2568.25
772.193	2611.84
772.38	2659.5
772.567	2594.21
772.753	2627.92
772.94	2653.69
773.126	2645.75
773.313	2618.62
773.499	2653.5
773.686	2666.67
773.872	2616.88
774.059	2590.92
774.245	2580.84
774.432	2612.42
774.618	2542.67
774.804	2589.95
774.991	2532.99
775.177	2588.79
775.363	2617.27
775.55	2606.61
775.736	2559.72
775.922	2598.67
776.109	2567.09
776.295	2560.31
776.481	2605.06
776.667	2613.2
776.853	2534.73
777.04	2497.34
777.226	2550.42
777.412	2610.49
777.598	2545.97
777.784	2536.09
777.97	2518.46
778.156	2525.04
778.342	2516.13
778.528	2490.56
778.715	2452.58
778.901	2491.72
779.087	2519.81
779.272	2452.39
779.458	2461.49
779.644	2490.36
779.83	2432.24
780.016	2554.69
780.202	2438.05
780.388	2495.98
780.574	2364.62
780.76	2446.58
780.946	2497.34
781.131	2463.63
781.317	2457.43
781.503	2388.26
781.689	2406.08
781.874	2503.15
782.06	2413.44
782.246	2387.29
782.432	2406.86
782.617	2410.15
782.803	2461.69
782.989	2378.76
783.174	2360.75
783.36	2315.8
783.545	2347.38
783.731	2348.93
783.916	2250.5
784.102	2336.33
784.288	2332.26
784.473	2377.02
784.659	2311.15
784.844	2337.3
785.029	2315.02
785.215	2295.65
785.4	2263.29
785.586	2345.63
785.771	2263.48
785.956	2324.51
786.142	2296.62
786.327	2291.38
786.512	2309.6
786.698	2271.23
786.883	2226.09
787.068	2237.91
787.254	2248.76
787.439	2220.08
787.624	2209.04
787.809	2196.06
787.994	2201.49
788.18	2264.65
788.365	2152.85
788.55	2176.69
788.735	2137.74
788.92	2164.09
789.105	2152.47
789.29	2199.35
789.475	2144.72
789.66	2131.93
789.845	2115.27
790.03	2107.13
790.215	2170.49
790.4	2143.17
790.585	2208.07
790.77	2115.85
790.955	2082.52
791.14	2106.36
791.325	2157.89
791.51	2024.4
791.695	2085.62
791.879	2076.52
792.064	2069.54
792.249	2134.06
792.434	2079.04
792.618	2066.06
792.803	2098.41
792.988	2071.48
793.173	2075.94
793.357	2164.09
793.542	2060.24
793.727	2073.81
793.911	2138.13
794.096	2052.88
794.281	2124.76
794.465	2193.54
794.65	2059.66
794.834	2105.58
795.019	2172.04
795.203	2125.15
795.388	2120.89
795.572	2164.09
795.757	2116.24
795.941	2137.35
796.126	2136.77
796.31	2044.74
796.494	2096.47
796.679	2100.16
796.863	2069.54
797.048	2153.82
797.232	2134.06
797.416	2130.96
797.601	2114.49
797.785	2179.79
797.969	2156.73
798.153	2125.34
798.338	2132.9
798.522	2167.19
798.706	2156.15
798.89	2170.49
799.074	2233.26
799.258	2207.88
799.443	2154.6
799.627	2148.01
799.811	2206.72
799.995	2130.19
800.179	2115.85
800.363	2134.45
800.547	2143.75
800.731	2225.12
800.915	2080.39
801.099	2066.83
801.283	2092.21
801.467	2118.17
801.651	2108.1
801.835	2169.52
802.019	2132.51
802.202	2173
802.386	2069.16
802.57	2117.59
802.754	2076.71
802.938	2044.74
803.121	2104.22
803.305	2131.74
803.489	2128.83
803.673	2101.71
803.856	2151.69
804.04	2111.78
804.224	2120.69
804.407	2095.7
804.591	2097.44
804.775	2105.58
804.958	2101.51
805.142	2239.46
805.326	2133.87
805.509	2134.06
805.693	2154.6
805.876	2158.86
806.06	2140.84
806.243	2168.55
806.427	2161.77
806.61	2191.02
806.794	2110.42
806.977	2168.35
807.16	2164.67
807.344	2181.14
807.527	2177.27
807.71	2113.14
807.894	2117.79
808.077	2169.9
808.26	2123.79
808.444	2111.59
808.627	2171.84
808.81	2082.72
808.993	2070.71
809.177	2006.58
809.36	2069.54
809.543	2069.16
809.726	1992.43
809.909	2032.93
810.092	1993.4
810.276	1990.49
810.459	2022.08
810.642	1952.33
810.825	1959.49
811.008	1954.84
811.191	1895.95
811.374	1905.83
811.557	1933.15
811.74	1963.76
811.923	1856.62
812.106	1832.78
812.289	1831.43
812.472	1789
812.654	1838.6
812.837	1808.76
813.02	1763.23
813.203	1779.5
813.386	1632.84
813.569	1643.3
813.751	1625.67
813.934	1652.79
814.117	1627.22
814.3	1582.85
814.482	1530.93
814.665	1540.61
814.848	1473.58
815.03	1455.95
815.213	1422.23
815.396	1419.13
815.578	1429.01
815.761	1391.04
815.943	1454.59
816.126	1359.27
816.309	1318.39
816.491	1318.39
816.674	1264.72
816.856	1299.4
817.039	1289.71
817.221	1348.22
817.403	1292.62
817.586	1332.34
817.768	1327.88
817.951	1232.75
818.133	1261.81
818.315	1271.11
818.498	1297.07
818.68	1393.95
818.862	1344.54
819.045	1369.53
819.227	1358.68
819.409	1343.18
819.591	1354.03
819.774	1323.81
819.956	1306.76
820.138	1383.29
820.32	1366.82
820.502	1435.41
820.684	1458.85
820.866	1434.05
821.048	1465.44
821.231	1491.98
821.413	1535.38
821.595	1477.06
821.777	1488.88
821.959	1510.58
822.141	1549.91
822.323	1426.11
822.505	1370.5
822.686	1322.84
822.868	1297.07
823.05	1179.86
823.232	1183.73
823.414	1100.23
823.596	1166.68
823.778	1156.61
823.96	1198.07
824.141	1182.76
824.323	1194.97
824.505	1272.85
824.687	1315.09
824.868	1362.95
825.05	1452.07
825.232	1464.86
825.413	1504.38
825.595	1446.45
825.777	1386
825.958	1477.45
826.14	1425.92
826.321	1455.75
826.503	1450.52
826.685	1471.64
826.866	1481.71
827.048	1470.48
827.229	1434.44
827.411	1377.09
827.592	1373.6
827.773	1354.23
827.955	1327.69
828.136	1301.72
828.318	1320.13
828.499	1356.94
828.68	1284.67
828.862	1342.02
829.043	1359.46
829.224	1336.6
829.406	1247.28
829.587	1287.77
829.768	1280.8
829.949	1327.69
830.131	1301.92
830.312	1351.52
830.493	1304.44
830.674	1332.53
830.855	1317.8
831.036	1289.32
831.218	1360.43
831.399	1344.54
831.58	1318.97
831.761	1352.29
831.942	1338.54
832.123	1305.99
832.304	1263.17
832.485	1291.26
832.666	1277.5
832.847	1320.71
833.028	1319.94
833.209	1309.67
833.389	1305.21
833.57	1237.21
833.751	1285.25
833.932	1320.32
834.113	1306.37
834.294	1270.72
834.475	1299.59
834.655	1353.07
834.836	1380.97
835.017	1332.53
835.198	1289.9
835.378	1336.02
835.559	1418.36
835.74	1312.38
835.92	1322.65
836.101	1321.87
836.281	1352.68
836.462	1341.05
836.643	1355.97
836.823	1393.56
837.004	1378.25
837.184	1432.11
837.365	1392.59
837.545	1411.38
837.726	1365.85
837.906	1443.74
838.087	1390.85
838.267	1374.96
838.448	1362.95
838.628	1380.38
838.808	1353.26
838.989	1439.09
839.169	1345.7
839.349	1385.62
839.53	1402.47
839.71	1410.03
839.89	1358.3
840.07	1424.75
840.251	1340.67
840.431	1397.82
840.611	1355.78
840.791	1340.08
840.971	1389.49
841.151	1361.4
841.332	1383.1
841.512	1395.5
841.692	1303.85
841.872	1382.52
842.052	1322.84
842.232	1377.67
842.412	1332.72
842.592	1319.35
842.772	1375.54
842.952	1347.83
843.132	1324.59
843.312	1313.35
843.492	1304.82
843.672	1369.73
843.851	1294.75
844.031	1342.8
844.211	1348.8
844.391	1292.62
844.571	1343.38
844.751	1358.68
844.93	1333.11
845.11	1319.94
845.29	1350.74
845.47	1326.14
845.649	1342.8
845.829	1354.03
846.009	1302.5
846.188	1314.12
846.368	1331.95
846.547	1343.77
846.727	1349.38
846.907	1275.95
847.086	1311.02
847.266	1359.07
847.445	1312.38
847.625	1270.34
847.804	1312.77
847.984	1316.64
848.163	1261.62
848.343	1283.51
848.522	1311.41
848.701	1280.02
848.881	1278.47
849.06	1292.04
849.239	1320.32
849.419	1308.5
849.598	1229.84
849.777	1263.36
849.957	1198.84
850.136	1181.79
850.315	1163.97
850.494	1169.2
850.674	1184.12
850.853	1237.4
851.032	1212.99
851.211	1237.21
851.39	1225.58
851.569	1143.82
851.748	1154.48
851.927	1224.42
852.107	1203.3
852.286	1156.41
852.465	1172.3
852.644	1239.72
852.823	1225.97
853.002	1178.69
853.181	1197.68
853.359	1193.61
853.538	1180.05
853.717	1230.62
853.896	1139.94
854.075	1085.31
854.254	1048.69
854.433	985.92
854.611	1084.53
854.79	978.55
854.969	1076.4
855.148	1069.81
855.327	1028.54
855.505	1049.46
855.684	1083.95
855.863	1105.07
856.041	1090.54
856.22	1103.13
856.399	1071.16
856.577	1150.02
856.756	1167.26
856.934	1245.54
857.113	1225.77
857.291	1142.08
857.47	1126.96
857.648	1146.53
857.827	1187.02
858.005	1202.14
858.184	1104.1
858.362	1174.24
858.541	1161.64
858.719	1131.03
858.898	1097.9
859.076	1148.08
859.254	1188.77
859.433	1142.85
859.611	1087.05
859.789	1086.28
859.967	1157.38
860.146	1173.07
860.324	1090.93
860.502	1132
860.68	1077.36
860.859	1057.02
861.037	1102.55
861.215	1139.17
861.393	1119.02
861.571	1114.95
861.749	1077.94
861.927	1103.13
862.105	1087.44
862.283	1050.82
862.461	1080.08
862.639	1050.24
862.817	1050.43
862.995	1050.82
863.173	1050.05
863.351	1074.46
863.529	1085.5
863.707	1136.65
863.885	1080.46
864.063	1032.22
864.241	1056.25
864.418	1122.31
864.596	1067.1
864.774	1001.03
864.952	1043.85
865.129	1083.56
865.307	1005.87
865.485	993.47
865.663	1059.35
865.84	991.92
866.018	1017.11
866.196	873.35
866.373	916.55
866.551	888.85
866.728	851.65
866.906	882.84
867.084	949.49
867.261	948.91
867.439	932.44
867.616	980.88
867.794	950.65
867.971	978.55
868.149	983.98
868.326	1025.25
868.503	1005.48
868.681	978.17
868.858	973.52
869.035	924.3
869.213	975.84
869.39	962.47
869.567	1043.26
869.745	980.3
869.922	995.8
870.099	996.96
870.276	993.28
870.454	986.11
870.631	1000.83
870.808	959.37
870.985	1002.19
871.162	1042.68
871.339	999.28
871.517	922.95
871.694	945.23
871.871	994.25
872.048	940.38
872.225	920.43
872.402	982.82
872.579	907.45
872.756	968.09
872.933	927.02
873.11	942.71
873.287	962.67
873.463	931.47
873.64	914.23
873.817	966.35
873.994	955.3
874.171	909.58
874.348	936.51
874.524	861.72
874.701	949.1
874.878	853.78
875.055	933.8
875.231	900.47
875.408	919.65
875.585	826.27
875.762	938.06
875.938	881.1
876.115	892.72
876.291	884.39
876.468	899.7
876.645	836.54
876.821	857.07
876.998	833.05
877.174	866.37
877.351	868.89
877.527	835.18
877.704	875.48
877.88	847.97
878.057	861.34
878.233	910.16
878.409	850.29
878.586	887.3
878.762	866.95
878.938	871.41
879.115	778.99
879.291	857.46
879.467	804.18
879.644	835.37
879.82	882.45
879.996	830.92
880.172	801.08
880.349	814.06
880.525	868.31
880.701	756.13
880.877	841.96
881.053	822.59
881.229	836.34
881.405	829.37
881.581	788.68
881.757	835.37
881.933	808.06
882.109	847.19
882.285	821.81
882.461	762.91
882.637	831.3
882.813	770.86
882.989	803.41
883.165	859.59
883.341	783.26
883.517	816.58
883.693	804.57
883.869	871.8
884.044	786.36
884.22	840.6
884.396	825.1
884.572	826.07
884.747	844.29
884.923	809.8
885.099	853.2
885.275	871.22
885.45	809.61
885.626	797.21
885.801	786.55
885.977	798.17
886.153	765.24
886.328	822.39
886.504	799.34
886.679	829.37
886.855	777.44
887.03	831.89
887.206	800.5
887.381	812.12
887.557	817.94
887.732	839.05
887.908	838.86
888.083	828.01
888.258	803.79
888.434	825.1
888.609	797.59
888.784	860.37
888.96	797.79
889.135	788.29
889.31	788.29
889.485	828.2
889.661	781.71
889.836	844.48
890.011	820.45
890.186	796.43
890.361	768.34
890.537	810.38
890.712	834.21
890.887	802.82
891.062	769.31
891.237	855.33
891.412	788.1
891.587	822
891.762	849.32
891.937	829.17
892.112	747.8
892.287	784.03
892.462	740.24
892.637	728.04
892.812	740.24
892.987	716.41
893.161	715.64
893.336	751.48
893.511	736.56
893.686	759.04
893.861	746.64
894.035	711.38
894.21	714.28
894.385	665.26
894.56	731.72
894.734	662.94
894.909	676.11
895.084	671.66
895.258	668.36
895.433	687.74
895.608	656.93
895.782	587.38
895.957	586.8
896.131	639.5
896.306	566.26
896.48	579.24
896.655	575.75
896.829	544.17
897.004	518.02
897.178	517.63
897.353	509.88
897.527	587.38
897.701	541.46
897.876	525.38
898.05	591.45
898.224	547.47
898.399	561.22
898.573	548.82
898.747	448.27
898.921	490.5
899.096	424.63
899.27	415.72
899.444	433.15
899.618	453.69
899.792	478.3
899.967	464.93
900.141	510.46
900.315	444.59
900.489	453.11
900.663	460.67
900.837	488.57
901.011	419.98
901.185	517.05
901.359	489.34
901.533	459.31
901.707	460.67
901.881	441.1
902.055	419.4
902.229	472.1
902.403	524.6
902.576	492.05
902.75	472.1
902.924	574.01
903.098	521.5
903.272	560.25
903.446	595.9
903.619	553.47
903.793	606.75
903.967	549.98
904.14	606.36
904.314	607.33
904.488	606.17
904.661	628.26
904.835	606.17
905.009	643.76
905.182	647.44
905.356	621.28
905.529	591.45
905.703	556.96
905.876	588.15
906.05	554.63
906.223	552.7
906.397	486.82
906.57	473.45
906.744	448.46
906.917	451.37
907.09	456.21
907.264	436.84
907.437	448.07
907.61	399.44
907.784	449.24
907.957	462.41
908.13	429.09
908.304	452.14
908.477	403.51
908.65	427.34
908.823	366.51
908.996	492.25
909.17	412.23
909.343	382.78
909.516	416.3
909.689	407
909.862	417.27
910.035	395.57
910.208	369.8
910.381	386.07
910.554	484.69
910.727	409.71
910.9	400.41
911.073	381.23
911.246	459.7
911.419	472.48
911.592	423.85
911.765	391.69
911.938	404.29
912.11	407.39
912.283	406.8
912.456	422.5
912.629	393.63
912.802	348.29
912.974	319.23
913.147	306.06
913.32	282.03
913.493	339.19
913.665	363.02
913.838	374.45
914.01	362.24
914.183	360.5
914.356	343.26
914.528	398.28
914.701	426.57
914.873	401.38
915.046	349.46
915.218	304.89
915.391	259.56
915.563	305.09
915.736	344.42
915.908	357.79
916.081	359.53
916.253	321.56
916.425	345.77
916.598	378.9
916.77	333.37
916.942	322.33
917.115	266.14
917.287	389.56
917.459	299.47
917.632	276.41
917.804	276.8
917.976	334.54
918.148	317.87
918.32	321.94
918.493	361.27
918.665	402.15
918.837	348.29
919.009	418.04
919.181	365.73
919.353	371.35
919.525	361.08
919.697	365.54
919.869	334.15
920.041	397.89
920.213	474.23
920.385	393.24
920.557	383.75
920.729	377.94
920.901	383.17
921.073	354.88
921.244	351.01
921.416	399.25
921.588	386.27
921.76	351.59
921.932	430.05
922.103	374.84
922.275	369.99
922.447	382.97
922.619	308.77
922.79	348.49
922.962	342.48
923.134	392.66
923.305	312.64
923.477	324.46
923.648	293.66
923.82	329.69
923.991	300.44
924.163	258.59
924.335	319.04
924.506	300.05
924.677	354.88
924.849	288.81
925.02	334.92
925.192	340.74
925.363	318.46
925.535	317.49
925.706	276.8
925.877	346.16
926.049	267.89
926.22	319.42
926.391	324.46
926.562	361.27
926.734	279.13
926.905	359.34
927.076	238.05
927.247	262.08
927.419	254.71
927.59	270.79
927.761	266.14
927.932	257.81
928.103	265.56
928.274	207.63
928.445	225.65
928.616	238.63
928.787	216.93
928.958	236.89
929.129	227.98
929.3	252.19
929.471	187.48
929.642	153.96
929.813	109.6
929.984	201.43
930.155	112.31
930.326	185.16
930.496	120.06
930.667	99.52
930.838	156.48
931.009	68.52
931.18	117.73
931.35	107.08
931.521	125.29
931.692	67.36
931.863	63.29
932.033	82.47
932.204	85.57
932.374	111.73
932.545	37.13
932.716	120.83
932.886	129.16
933.057	9.24
933.227	50.5
933.398	114.25
933.568	42.56
933.739	6.91
933.909	25.32
934.08	73.95
934.25	-48.89
934.421	12.72
934.591	53.8
934.761	14.66
934.932	-7.81
935.102	33.45
935.272	15.24
935.443	39.46
935.613	20.09
935.783	57.09
935.953	8.07
936.123	155.32
936.294	8.85
936.464	24.35
936.634	26.67
936.804	-32.23
936.974	-22.73
937.144	50.89
937.314	34.03
937.484	27.64
937.655	-2.2
937.825	80.15
937.995	-11.69
938.165	39.65
938.334	0.32
938.504	44.88
938.674	23.19
938.844	21.44
939.014	62.9
939.184	60.77
939.354	100.88
939.524	96.03
939.694	74.33
939.863	44.88
940.033	116.76
940.203	115.8
940.373	61.55
940.542	102.62
940.712	59.42
940.882	93.13
941.051	115.02
941.221	109.6
941.391	109.6
941.56	51.86
941.73	18.34
941.899	149.12
942.069	48.76
942.238	81.7
942.408	24.93
942.577	108.63
942.747	50.12
942.916	6.52
943.086	16.6
943.255	88.87
943.425	70.46
943.594	22.99
943.763	-6.07
943.933	15.44
944.102	-35.33
944.271	52.44
944.441	37.33
944.61	32.68
944.779	56.12
944.948	127.23
945.117	1.68
945.287	65.42
945.456	18.34
945.625	10.79
945.794	53.02
945.963	24.93
946.132	63.29
946.301	43.14
946.47	78.4
946.639	-10.72
946.808	40.43
946.977	58.83
947.146	109.21
947.315	30.74
947.484	84.41
947.653	35.2
947.822	16.4
947.991	42.17
948.16	107.47
948.329	73.75
948.498	55.54
948.666	46.05
948.835	70.46
949.004	-9.36
949.173	14.27
949.341	31.9
949.51	70.85
949.679	84.8
949.847	107.47
950.016	120.25
950.185	93.71
950.353	31.32
950.522	52.25
950.69	96.23
950.859	19.12
951.028	103.4
951.196	22.02
951.365	26.67
951.533	44.5
951.701	57.67
951.87	69.88
952.038	17.37
952.207	51.28
952.375	106.69
952.543	30.35
952.712	42.75
952.88	24.35
953.048	77.63
953.217	20.86
953.385	60.38
953.553	104.56
953.721	9.82
953.89	55.35
954.058	-5.68
954.226	29.58
954.394	53.99
954.562	13.69
954.73	54.96
954.898	28.42
955.067	74.92
955.235	40.23
955.403	115.41
955.571	125.68
955.739	71.23
955.907	38.49
956.075	31.32
956.243	30.35
956.41	70.07
956.578	-16.15
956.746	6.52
956.914	29.19
957.082	95.65
957.25	63.29
957.418	40.82
957.585	52.25
957.753	91.19
957.921	28.61
958.089	55.93
958.256	70.46
958.424	69.49
958.592	72.4
958.759	42.95
958.927	56.12
959.095	13.3
959.262	45.27
959.43	45.66
959.597	28.8
959.765	42.37
959.932	6.72
960.1	67.17
960.267	39.27
960.435	51.28
960.602	80.34
960.77	35.39
960.937	-0.65
961.104	38.3
961.272	16.21
961.439	20.86
961.606	43.14
961.774	78.79
961.941	42.75
962.108	62.52
962.275	40.04
962.443	89.83
962.61	65.23
962.777	109.4
962.944	76.66
963.111	72.78
963.278	84.8
963.446	76.47
963.613	79.18
963.78	73.95
963.947	89.45
964.114	86.35
964.281	127.03
964.448	82.08
964.615	34.42
964.782	77.24
964.949	96.62
965.116	71.04
965.282	84.99
965.449	36.94
965.616	12.14
965.783	92.16
965.95	69.68
966.117	8.27
966.283	51.86
966.45	63.1
966.617	85.18
966.784	125.68
966.95	100.1
967.117	104.75
967.284	29.97
967.45	44.11
967.617	100.88
967.784	92.74
967.95	125.87
968.117	68.52
968.283	109.98
968.45	165.59
968.616	105.53
968.783	87.32
968.949	111.53
969.116	113.08
969.282	58.06
969.449	103.98
969.615	86.15
969.781	54.57
969.948	61.16
970.114	30.93
970.28	161.33
970.447	40.82
970.613	139.63
970.779	46.63
970.945	85.96
971.112	72.98
971.278	63.48
971.444	84.02
971.61	125.48
971.776	82.28
971.942	100.49
972.108	96.23
972.275	62.13
972.441	80.73
972.607	115.99
972.773	63.68
972.939	74.14
973.105	62.13
973.271	57.48
973.437	80.15
973.602	61.35
973.768	103.59
973.934	64.07
974.1	93.13
974.266	11.37
974.432	84.8
974.598	68.72
974.763	115.8
974.929	52.05
975.095	120.06
975.261	51.67
975.426	29.19
975.592	76.47
975.758	114.05
975.923	25.12
976.089	39.07
976.255	101.85
976.42	90.22
976.586	88.28
976.751	78.21
976.917	143.7
977.082	88.87
977.248	41.01
977.413	6.52
977.579	49.34
977.744	61.93
977.91	22.8
978.075	59.03
978.24	88.67
978.406	53.6
978.571	52.83
978.736	44.3
978.902	86.15
979.067	42.17
979.232	23.77
979.397	62.71
979.563	85.38
979.728	20.28
979.893	33.84
980.058	71.23
980.223	86.35
980.388	58.45
980.554	85.96
980.719	39.65
980.884	92.93
981.049	117.35
981.214	44.88
981.379	102.62
981.544	46.05
981.709	58.83
981.874	78.6
982.039	72.98
982.204	94.87
982.368	78.79
982.533	37.52
982.698	102.04
982.863	88.67
983.028	47.4
983.193	74.92
983.357	45.27
983.522	69.1
983.687	42.37
983.852	56.32
984.016	40.43
984.181	54.96
984.346	109.79
984.51	65.42
984.675	78.98
984.839	72.98
985.004	96.03
985.168	92.16
985.333	94.48
985.498	45.27
985.662	65.62
985.827	88.28
985.991	55.93
986.155	59.03
986.32	98.55
986.484	124.9
986.649	84.6
986.813	9.24
986.977	78.21
987.142	73.95
987.306	21.25
987.47	34.23
987.634	69.68
987.799	70.65
987.963	79.76
988.127	81.5
988.291	139.43
988.455	60
988.62	45.66
988.784	65.03
988.948	80.34
989.112	46.43
989.276	86.93
989.44	62.32
989.604	45.47
989.768	23.96
989.932	125.29
990.096	21.25
990.26	32.87
990.424	13.69
990.588	33.07
990.752	95.45
990.915	79.76
991.079	74.92
991.243	41.78
991.407	95.84
991.571	65.23
991.734	85.38
991.898	93.9
992.062	158.42
992.226	53.22
992.389	29
992.553	20.67
992.717	39.46
992.88	20.28
993.044	49.73
993.207	17.18
993.371	75.3
993.535	84.6
993.698	61.35
993.862	70.85
994.025	85.96
994.189	78.4
994.352	68.33
994.515	60.19
994.679	84.41
994.842	40.04
995.006	75.69
995.169	15.44
995.332	25.32
995.496	69.68
995.659	5.94
995.822	41.78
995.985	58.64
996.149	107.85
996.312	43.53
996.475	126.06
996.638	55.35
996.801	86.93
996.964	126.26
997.128	47.21
997.291	31.32
997.454	62.9
997.617	-2.97
997.78	87.51
997.943	24.54
998.106	90.42
998.269	47.4
998.432	40.62
998.595	68.52
998.758	22.8
998.92	27.84
999.083	7.1
999.246	35
999.409	25.7
999.572	7.49
999.735	-0.45
999.897	67.17
1000.06	38.68
1000.223	52.83
1000.386	57.67
1000.548	60.58
1000.711	55.73
1000.874	71.43
1001.036	4.39
1001.199	81.12
1001.361	-16.34
1001.524	61.93
1001.687	51.08
1001.849	47.4
1002.012	68.72
1002.174	24.54
1002.337	63.68
1002.499	27.45
1002.661	95.45
1002.824	6.72
1002.986	14.85
1003.149	43.33
1003.311	9.82
1003.473	96.03
1003.636	-9.56
1003.798	53.22
1003.96	65.62
1004.123	21.05
1004.285	38.88
1004.447	29.97
1004.609	23.57
1004.771	73.75
1004.933	1.68
1005.096	23.77
1005.258	-13.05
1005.42	10.59
1005.582	71.43
1005.744	36.17
1005.906	2.26
1006.068	40.04
1006.23	-3.55
1006.392	-19.83
1006.554	-22.35
1006.716	79.57
1006.878	40.62
1007.04	8.27
1007.202	-12.66
1007.363	47.98
1007.525	37.33
1007.687	29.38
1007.849	61.55
1008.011	-15.95
1008.172	1.68
1008.334	18.15
1008.496	45.66
1008.658	-4.52
1008.819	-0.84
1008.981	-4.71
1009.143	-14.01
1009.304	6.52
1009.466	33.07
1009.627	68.52
1009.789	111.34
1009.95	49.53
1010.112	2.65
1010.273	49.34
1010.435	3.42
1010.596	6.52
1010.758	4.2
1010.919	7.3
1011.081	-22.93
1011.242	39.27
1011.403	31.71
1011.565	11.75
1011.726	46.24
1011.887	-13.24
1012.049	45.66
1012.21	47.21
1012.371	62.71
1012.532	-77.18
1012.693	17.57
1012.855	-6.65
1013.016	42.75
1013.177	33.26
1013.338	-4.52
1013.499	76.85
1013.66	48.37
1013.821	37.13
1013.982	21.25
1014.143	18.92
1014.304	14.08
1014.465	50.31
1014.626	63.48
1014.787	2.07
1014.948	95.26
1015.109	-47.15
1015.27	60.77
1015.431	-11.3
1015.592	-11.11
1015.752	53.6
1015.913	21.64
1016.074	24.35
1016.235	-2.97
1016.395	4.2
1016.556	2.07
1016.717	40.43
1016.877	69.88
1017.038	7.69
1017.199	48.37
1017.359	29.19
1017.52	37.33
1017.681	11.56
1017.841	0.52
1018.002	4.59
1018.162	1.1
1018.323	53.02
1018.483	-2.78
1018.644	9.82
1018.804	-25.83
1018.964	-29.51
1019.125	13.11
1019.285	38.1
1019.446	-26.03
1019.606	-17.31
1019.766	-58.58
1019.926	40.62
1020.087	46.24
1020.247	-29.13
1020.407	11.37
1020.567	71.04
1020.728	-1.81
1020.888	-15.95
1021.048	-0.65
1021.208	-5.49
1021.368	13.11
1021.528	53.99
1021.688	36.36
1021.848	24.54
1022.008	20.09
1022.168	10.98
1022.328	14.08
1022.488	17.37
1022.648	-2.2
1022.808	-3.16
1022.968	39.46
1023.128	-14.98
1023.288	-18.08
1023.448	23.57
1023.608	20.47
1023.767	20.86
1023.927	-22.73
1024.087	-19.44
1024.247	-42.11
1024.406	-21.57
1024.566	-22.15
1024.726	-24.28
1024.885	-4.71
1025.045	41.78
1025.205	18.92
1025.364	15.24
1025.524	29.97
1025.683	-2.2
1025.843	21.64
1026.003	-3.55
1026.162	32.87
1026.321	35
1026.481	22.8
1026.64	-13.24
1026.8	2.45
1026.959	-12.08
1027.119	14.47
1027.278	-16.53
1027.437	-14.21
1027.597	14.27
1027.756	0.13
1027.915	28.22
1028.074	12.72
1028.234	-29.51
1028.393	4.78
1028.552	-10.91
1028.711	-69.62
1028.87	17.95
1029.03	-30.1
1029.189	2.84
1029.348	-61.48
1029.507	12.14
1029.666	-27.77
1029.825	-19.63
1029.984	-7.81
1030.143	3.42
1030.302	-42.3
1030.461	-52.38
1030.62	7.1
1030.779	28.22
1030.938	-36.3
1031.097	-20.41
1031.255	26.29
1031.414	34.23
1031.573	51.86
1031.732	-56.06
1031.891	-13.82
1032.049	60.38
1032.208	21.83
1032.367	-31.84
1032.525	-15.76
1032.684	1.87
1032.843	-12.46
1033.001	-43.08
1033.16	135.17
1033.319	32.1
1033.477	3.62
1033.636	-28.93
1033.794	-58.77
1033.953	32.1
1034.111	20.28
1034.27	-14.4
1034.428	14.47
1034.587	1.1
1034.745	-9.75
1034.903	-10.14
1035.062	31.52
1035.22	-33.97
1035.378	22.8
1035.537	-43.08
1035.695	33.26
1035.853	-25.83
1036.011	17.57
1036.17	7.88
1036.328	-64
1036.486	9.43
1036.644	27.06
1036.802	-89.96
1036.96	-9.56
1037.119	6.33
1037.277	-31.65
1037.435	-52.96
1037.593	-1.23
1037.751	-10.33
1037.909	21.05
1038.067	21.05
