Data from oakcork_FLMT105791__238__17-33-09-055.txt Node

Date: Mon Mar 20 17:33:09 GMT 2023
User: antho
Spectrometer: FLMT10579
Trigger mode: 0
Integration Time (sec): 1.000000E-1
Scans to average: 10
Electric dark correction enabled: true
Nonlinearity correction enabled: false
Boxcar width: 0
XAxis mode: Wavelengths
Number of Pixels in Spectrum: 3648
>>>>>Begin Spectral Data<<<<<
345.248	-152.88
345.464	-152.88
345.681	-152.88
345.898	-154.82
346.114	-155.4
346.331	-49.23
346.548	10.83
346.764	6.96
346.981	-3.7
347.197	-12.42
347.414	6.18
347.631	-32.76
347.847	78.26
348.064	2.7
348.28	30.21
348.497	-42.83
348.713	5.8
348.93	37.57
349.146	18.39
349.363	12.38
349.579	21.3
349.796	1.53
350.012	-0.21
350.229	27.3
350.445	13.55
350.661	-9.51
350.878	3.47
351.094	28.46
351.311	16.45
351.527	7.35
351.743	3.67
351.96	60.82
352.176	55.4
352.392	27.5
352.609	39.51
352.825	2.7
353.041	20.71
353.257	9.48
353.474	34.86
353.69	24.4
353.906	49.2
354.122	-37.99
354.339	51.52
354.555	28.46
354.771	4.05
354.987	83.88
355.203	69.73
355.42	-6.99
355.636	-11.83
355.852	14.51
356.068	13.16
356.284	-23.27
356.5	69.73
356.716	33.89
356.932	1.53
357.148	39.7
357.364	14.71
357.58	36.41
357.796	35.05
358.012	50.16
358.228	54.62
358.444	-45.93
358.66	53.26
358.876	23.62
359.092	-20.17
359.308	7.93
359.524	42.41
359.74	18.39
359.956	7.15
360.172	11.8
360.388	48.03
360.604	-7.57
360.819	88.72
361.035	45.9
361.251	44.35
361.467	-16.87
361.683	66.25
361.898	42.8
362.114	59.46
362.33	16.65
362.546	65.08
362.762	26.14
362.977	35.25
363.193	-0.4
363.409	55.4
363.624	12.38
363.84	8.31
364.056	-0.79
364.271	28.46
364.487	41.64
364.703	14.71
364.918	10.83
365.134	16.84
365.35	23.62
365.565	92.4
365.781	29.24
365.996	54.23
366.212	99.76
366.427	54.81
366.643	-8.54
366.858	26.72
367.074	-3.89
367.289	76.51
367.505	101.51
367.72	-15.13
367.936	3.47
368.151	67.21
368.367	49.2
368.582	39.7
368.798	18.97
369.013	76.51
369.228	37.18
369.444	43.77
369.659	78.84
369.874	60.82
370.09	92.98
370.305	-17.65
370.52	18.97
370.736	84.07
370.951	37.57
371.166	60.82
371.381	108.09
371.597	91.63
371.812	19.94
372.027	0.18
372.242	46.48
372.458	117.39
372.673	24.59
372.888	31.95
373.103	47.65
373.318	97.83
373.533	59.08
373.749	62.56
373.964	-13.77
374.179	74
374.394	0.76
374.609	88.33
374.824	7.35
375.039	65.86
375.254	10.06
375.469	71.67
375.684	56.75
375.899	99.96
376.114	44.93
376.329	28.46
376.544	83.1
376.759	67.21
376.974	46.29
377.189	28.08
377.404	41.45
377.619	81.55
377.834	10.45
378.049	10.06
378.264	37.18
378.478	71.48
378.693	1.92
378.908	67.99
379.123	34.66
379.338	83.49
379.553	49.2
379.767	67.02
379.982	66.63
380.197	57.33
380.412	33.11
380.626	61.98
380.841	120.49
381.056	64.31
381.271	103.25
381.485	31.95
381.7	39.9
381.915	83.68
382.129	25.75
382.344	47.26
382.559	33.11
382.773	92.21
382.988	-3.31
383.202	53.65
383.417	42.61
383.632	154.01
383.846	55.78
384.061	52.49
384.275	39.31
384.49	75.35
384.704	73.8
384.919	73.61
385.133	56.75
385.348	67.41
385.562	13.55
385.777	98.21
385.991	36.6
386.206	37.38
386.42	23.62
386.634	64.11
386.849	61.6
387.063	58.88
387.277	46.68
387.492	51.33
387.706	21.88
387.92	41.06
388.135	58.11
388.349	71.28
388.563	59.08
388.778	65.66
388.992	74.77
389.206	98.6
389.42	129.41
389.635	60.24
389.849	94.92
390.063	83.88
390.277	52.3
390.491	129.02
390.706	95.5
390.92	89.3
391.134	59.85
391.348	76.32
391.562	34.28
391.776	65.86
391.99	61.6
392.205	105.58
392.419	41.64
392.633	56.36
392.847	106.35
393.061	66.83
393.275	130.76
393.489	41.64
393.703	58.5
393.917	87.56
394.131	40.86
394.345	78.06
394.559	120.69
394.773	72.25
394.986	68.38
395.2	80.2
395.414	116.62
395.628	75.74
395.842	87.36
396.056	98.6
396.27	32.15
396.484	96.28
396.697	97.63
396.911	100.34
397.125	96.66
397.339	96.28
397.553	67.41
397.766	142.97
397.98	129.79
398.194	126.31
398.408	76.51
398.621	129.99
398.835	141.81
399.049	121.08
399.262	152.85
399.476	152.27
399.69	127.08
399.903	171.45
400.117	111.39
400.331	154.21
400.544	99.76
400.758	245.46
400.971	135.41
401.185	165.83
401.398	116.43
401.612	187.53
401.826	169.71
402.039	156.34
402.253	135.22
402.466	173
402.68	129.21
402.893	148.39
403.106	133.09
403.32	126.11
403.533	159.63
403.747	122.04
403.96	151.88
404.174	187.53
404.387	95.11
404.6	161.96
404.814	209.42
405.027	172.81
405.24	143.36
405.454	149.56
405.667	174.16
405.88	119.53
406.094	172.81
406.307	194.7
406.52	146.07
406.733	149.56
406.947	125.92
407.16	207.49
407.373	191.79
407.586	153.82
407.799	122.04
408.012	202.64
408.226	163.89
408.439	216.01
408.652	137.35
408.865	190.24
409.078	240.04
409.291	200.32
409.504	128.83
409.717	189.27
409.93	192.18
410.143	178.81
410.357	135.03
410.57	126.89
410.783	174.36
410.996	179.39
411.209	163.7
411.421	229.77
411.634	188.89
411.847	169.13
412.06	226.28
412.273	178.23
412.486	198.57
412.699	278.98
412.912	198.77
413.125	187.34
413.338	199.74
413.55	204.97
413.763	206.91
413.976	224.15
414.189	186.95
414.402	176.68
414.615	240.23
414.827	152.27
415.04	215.43
415.253	222.21
415.466	216.01
415.678	273.75
415.891	214.27
416.104	199.54
416.316	217.56
416.529	210.39
416.742	240.62
416.954	264.45
417.167	211.56
417.38	202.26
417.592	251.08
417.805	201.87
418.017	158.66
418.23	251.47
418.442	190.05
418.655	201.87
418.868	231.51
419.08	236.36
419.293	272.59
419.505	227.64
419.718	225.12
419.93	245.07
420.142	185.79
420.355	250.11
420.567	267.16
420.78	248.95
420.992	202.64
421.205	276.65
421.417	228.99
421.629	231.71
421.842	208.07
422.054	210.01
422.266	256.7
422.479	257.67
422.691	219.89
422.903	273.94
423.115	200.51
423.328	231.51
423.54	242.75
423.752	251.66
423.964	209.42
424.177	238.68
424.389	235.58
424.601	345.63
424.813	265.81
425.025	273.75
425.238	268.91
425.45	251.86
425.662	256.31
425.874	501.6
426.086	239.26
426.298	258.44
426.51	270.84
426.722	271.23
426.934	256.31
427.146	277.43
427.358	236.94
427.57	266
427.782	256.31
427.994	243.33
428.206	247.79
428.418	229.77
428.63	299.9
428.842	287.7
429.054	257.47
429.266	295.84
429.478	209.62
429.69	243.91
429.902	200.32
430.114	268.91
430.325	241.78
430.537	187.34
430.749	212.14
430.961	168.74
431.173	221.05
431.384	255.54
431.596	175.33
431.808	249.53
432.02	265.22
432.231	294.48
432.443	327.61
432.655	297
432.867	273.55
433.078	294.29
433.29	354.93
433.502	332.84
433.713	350.86
433.925	310.56
434.136	328
434.348	293.32
434.56	223.76
434.771	365.78
434.983	245.85
435.194	271.42
435.406	294.29
435.617	354.35
435.829	407.63
436.04	354.15
436.252	359.58
436.463	384.96
436.675	375.85
436.886	346.21
437.098	364.03
437.309	404.53
437.521	342.53
437.732	365
437.943	339.24
438.155	356.87
438.366	307.65
438.578	393.87
438.789	352.8
439	378.37
439.211	349.5
439.423	353.19
439.634	343.11
439.845	363.07
440.057	368.68
440.268	384.38
440.479	366.36
440.69	367.13
440.902	359.77
441.113	388.83
441.324	354.15
441.535	402.78
441.746	438.63
441.957	383.99
442.168	369.46
442.38	431.07
442.591	425.65
442.802	382.44
443.013	390.58
443.224	432.82
443.435	398.13
443.646	411.31
443.857	420.22
444.068	365
444.279	401.04
444.49	481.64
444.701	435.92
444.912	517.87
445.123	466.72
445.334	454.51
445.545	444.25
445.756	436.3
445.967	377.6
446.178	451.03
446.388	441.92
446.599	431.65
446.81	419.25
447.021	396.2
447.232	456.26
447.443	495.78
447.653	429.91
447.864	502.37
448.075	439.98
448.286	456.26
448.496	483.38
448.707	468.27
448.918	435.72
449.129	517.87
449.339	416.15
449.55	447.73
449.761	457.42
449.971	508.38
450.182	450.64
450.393	505.08
450.603	483.77
450.814	533.76
451.024	502.76
451.235	529.11
451.446	568.05
451.656	571.54
451.867	500.82
452.077	502.37
452.288	564.95
452.498	521.94
452.709	489.39
452.919	493.65
453.13	466.91
453.34	497.53
453.55	392.9
453.761	506.05
453.971	511.67
454.182	500.24
454.392	518.45
454.602	549.06
454.813	529.11
455.023	550.23
455.233	472.92
455.444	526.78
455.654	442.12
455.864	495.59
456.075	495.01
456.285	482.61
456.495	492.88
456.705	545.38
456.916	569.21
457.126	619.01
457.336	545.38
457.546	459.55
457.756	491.33
457.967	578.13
458.177	498.69
458.387	545.96
458.597	507.41
458.807	522.33
459.017	525.81
459.227	540.34
459.437	522.13
459.647	575.41
459.857	525.62
460.068	537.83
460.278	584.33
460.488	556.23
460.698	613
460.908	538.79
461.117	519.23
461.327	520.78
461.537	561.66
461.747	606.22
461.957	557.2
462.167	681.2
462.377	585.29
462.587	565.53
462.797	605.25
463.007	579.29
463.216	601.57
463.426	642.84
463.636	623.85
463.846	526.98
464.056	550.81
464.265	607.58
464.475	565.73
464.685	574.83
464.895	599.05
465.104	581.23
465.314	633.15
465.524	574.83
465.733	550.03
465.943	660.66
466.153	667.64
466.362	654.27
466.572	618.04
466.782	601.18
466.991	598.66
467.201	646.52
467.41	555.65
467.62	620.17
467.829	613.39
468.039	646.71
468.249	622.69
468.458	644.97
468.668	672.48
468.877	669.57
469.086	692.05
469.296	703.29
469.505	648.26
469.715	716.07
469.924	689.14
470.134	717.04
470.343	706.97
470.552	645.55
470.762	642.64
470.971	647.49
471.18	680.81
471.39	685.27
471.599	645.36
471.808	695.34
472.018	643.42
472.227	755.02
472.436	755.4
472.645	728.86
472.855	691.08
473.064	785.24
473.273	750.75
473.482	763.74
473.691	768.58
473.901	768.19
474.11	748.62
474.319	847.43
474.528	733.32
474.737	819.73
474.946	791.44
475.155	773.23
475.364	846.66
475.573	771.68
475.783	808.68
475.992	819.15
476.201	829.42
476.41	807.72
476.619	780.4
476.828	800.93
477.037	771.1
477.245	835.23
477.454	850.53
477.663	826.12
477.872	829.8
478.081	944.5
478.29	829.22
478.499	931.13
478.708	854.8
478.917	924.35
479.125	886.96
479.334	910.79
479.543	904.2
479.752	933.85
479.961	897.23
480.169	948.96
480.378	886.76
480.587	1030.72
480.796	942.76
481.004	955.35
481.213	969.49
481.422	965.04
481.63	985.96
481.839	1004.18
482.048	1021.42
482.256	991.58
482.465	1012.51
482.674	1030.91
482.882	1008.63
483.091	1058.81
483.299	1020.84
483.508	1047.58
483.716	1050.87
483.925	1063.46
484.134	994.29
484.342	1020.26
484.551	1043.51
484.759	1068.89
484.967	1103.37
485.176	1060.36
485.384	1114.03
485.593	1104.73
485.801	1068.31
486.01	1049.51
486.218	989.64
486.426	947.6
486.635	942.95
486.843	958.84
487.051	963.1
487.26	968.91
487.468	1054.74
487.676	1066.95
487.885	1035.76
488.093	1097.56
488.301	1110.74
488.509	1130.31
488.717	1151.42
488.926	1114.81
489.134	1137.47
489.342	1116.55
489.55	1093.69
489.758	1170.8
489.967	1137.47
490.175	1219.24
490.383	1137.09
490.591	1259.15
490.799	1181.07
491.007	1226.6
491.215	1234.15
491.423	1210.71
491.631	1206.64
491.839	1186.88
492.047	1239.38
492.255	1164.79
492.463	1124.3
492.671	1177.77
492.879	1224.08
493.087	1218.27
493.295	1212.84
493.503	1258.76
493.711	1297.51
493.919	1281.82
494.127	1301.77
494.334	1297.32
494.542	1229.5
494.75	1324.83
494.958	1285.3
495.166	1317.85
495.374	1314.95
495.581	1328.31
495.789	1323.47
495.997	1389.35
496.205	1283.95
496.412	1318.63
496.62	1344.98
496.828	1315.92
497.035	1322.31
497.243	1354.66
497.451	1334.13
497.658	1368.03
497.866	1350.6
498.074	1370.75
498.281	1315.33
498.489	1372.1
498.696	1346.91
498.904	1321.53
499.112	1297.32
499.319	1410.27
499.527	1359.31
499.734	1409.3
499.942	1317.27
500.149	1354.66
500.357	1335.1
500.564	1299.25
500.771	1366.1
500.979	1309.52
501.186	1306.81
501.394	1363.38
501.601	1325.02
501.808	1349.63
502.016	1327.93
502.223	1312.82
502.43	1318.05
502.638	1332.77
502.845	1328.7
503.052	1445.92
503.26	1385.08
503.467	1460.84
503.674	1313.59
503.881	1403.3
504.089	1430.42
504.296	1363.19
504.503	1303.13
504.71	1353.11
504.917	1330.45
505.125	1383.53
505.332	1352.53
505.539	1415.5
505.746	1491.64
505.953	1482.93
506.16	1448.83
506.367	1484.28
506.574	1501.33
506.781	1507.53
506.988	1433.13
507.195	1474.59
507.402	1460.84
507.609	1513.54
507.816	1437.2
508.023	1449.6
508.23	1447.08
508.437	1382.18
508.644	1465.29
508.851	1484.86
509.058	1527.68
509.265	1515.28
509.472	1519.93
509.679	1585.03
509.885	1540.08
510.092	1519.16
510.299	1503.46
510.506	1500.17
510.713	1517.41
510.92	1482.15
511.126	1515.28
511.333	1566.43
511.54	1568.56
511.746	1607.7
511.953	1565.66
512.16	1583.87
512.367	1549.38
512.573	1561.97
512.78	1572.24
512.987	1559.26
513.193	1543.57
513.4	1486.61
513.606	1523.42
513.813	1558.49
514.02	1523.81
514.226	1574.37
514.433	1576.7
514.639	1516.25
514.846	1520.32
515.052	1520.51
515.259	1559.46
515.465	1563.14
515.672	1561.59
515.878	1629.98
516.085	1569.34
516.291	1628.82
516.497	1573.21
516.704	1532.33
516.91	1483.12
517.117	1419.96
517.323	1388.38
517.529	1452.89
517.736	1414.14
517.942	1436.04
518.148	1461.03
518.354	1500.94
518.561	1506.56
518.767	1493.58
518.973	1520.9
519.179	1547.06
519.386	1502.88
519.592	1508.11
519.798	1535.43
520.004	1656.72
520.21	1621.65
520.417	1648
520.623	1691.78
520.829	1650.52
521.035	1720.27
521.241	1687.72
521.447	1692.56
521.653	1809.78
521.859	1693.14
522.065	1730.15
522.271	1782.07
522.477	1755.72
522.683	1797.96
522.889	1734.8
523.095	1746.81
523.301	1750.3
523.507	1730.73
523.713	1734.6
523.919	1687.13
524.125	1790.6
524.331	1799.12
524.537	1854.92
524.742	1863.06
524.948	1847.36
525.154	1873.71
525.36	1989.57
525.566	1852.01
525.772	1911.69
525.977	1822.95
526.183	1868.09
526.389	1826.25
526.595	1779.36
526.8	1798.54
527.006	1734.6
527.212	1690.62
527.417	1701.08
527.623	1705.35
527.829	1782.85
528.034	1769.09
528.24	1797.76
528.446	1792.53
528.651	1887.28
528.857	1898.9
529.062	1932.42
529.268	1927.38
529.473	1955.47
529.679	1938.04
529.884	1981.82
530.09	1977.76
530.295	1983.18
530.501	1975.82
530.706	1966.32
530.912	1959.74
531.117	1984.92
531.323	1961.29
531.528	2029.49
531.733	2039.37
531.939	1960.9
532.144	2013.99
532.35	1996.36
532.555	2024.45
532.76	2008.56
532.966	1996.74
533.171	1982.79
533.376	1946.76
533.581	1939.78
533.787	1969.42
533.992	1986.67
534.197	2030.65
534.402	2010.11
534.607	1993.06
534.813	2077.15
535.018	2052.74
535.223	2030.65
535.428	2083.35
535.633	2085.67
535.838	2165.3
536.043	2121.52
536.249	2186.42
536.454	2085.48
536.659	2109.5
536.864	2106.02
537.069	2080.83
537.274	2114.15
537.479	2125.39
537.684	2111.25
537.889	2054.29
538.094	2172.28
538.299	2090.32
538.504	2173.05
538.708	2155.42
538.913	2204.44
539.118	2120.93
539.323	2175.38
539.528	2108.73
539.733	2103.69
539.938	2135.08
540.142	2130.43
540.347	2078.7
540.552	2097.3
540.757	2111.83
540.962	2075.4
541.166	2049.05
541.371	2043.05
541.576	2067.27
541.781	2042.47
541.985	2168.4
542.19	2103.11
542.395	2175.18
542.599	2193.98
542.804	2160.27
543.008	2207.73
543.213	2134.88
543.418	2112.41
543.622	2196.11
543.827	2156.2
544.031	2200.95
544.236	2250.36
544.44	2241.64
544.645	2276.13
544.849	2181
545.054	2236.8
545.258	2280
545.463	2294.92
545.667	2194.95
545.872	2259.27
546.076	2222.65
546.281	2247.84
546.485	2243
546.689	2235.63
546.894	2282.13
547.098	2247.45
547.302	2215.87
547.507	2239.31
547.711	2233.31
547.915	2287.56
548.119	2208.7
548.324	2200.95
548.528	2267.8
548.732	2293.18
548.936	2312.36
549.141	2294.34
549.345	2248.61
549.549	2294.14
549.753	2294.34
549.957	2297.83
550.161	2317.2
550.366	2247.26
550.57	2248.81
550.774	2255.01
550.978	2265.28
551.182	2292.98
551.386	2246.1
551.59	2225.95
551.794	2274.58
551.998	2278.26
552.202	2260.43
552.406	2245.13
552.61	2296.28
552.814	2275.55
553.018	2317.59
553.222	2264.89
553.426	2267.02
553.63	2332.12
553.833	2261.79
554.037	2248.23
554.241	2313.71
554.445	2307.51
554.649	2259.66
554.853	2279.42
555.056	2324.37
555.26	2363.12
555.464	2311.97
555.668	2297.44
555.871	2317.59
556.075	2373.97
556.279	2288.33
556.483	2236.6
556.686	2247.06
556.89	2236.99
557.094	2268.18
557.297	2162.2
557.501	2289.3
557.704	2146.32
557.908	2244.35
558.112	2185.65
558.315	2279.23
558.519	2208.51
558.722	2210.06
558.926	2186.62
559.129	2148.06
559.333	2154.65
559.536	2174.02
559.74	2127.72
559.943	2105.24
560.147	2123.65
560.35	2122.48
560.553	2179.64
560.757	2098.85
560.96	2214.13
561.164	2147.67
561.367	2251.91
561.57	2163.56
561.774	2180.42
561.977	2178.87
562.18	2125.58
562.384	2191.27
562.587	2129.07
562.79	2140.12
562.993	2117.45
563.197	2165.3
563.4	2213.35
563.603	2159.49
563.806	2208.31
564.009	2135.66
564.212	2159.3
564.416	2041.89
564.619	2123.07
564.822	2085.67
565.025	2165.69
565.228	2141.67
565.431	2129.85
565.634	2020.19
565.837	2046.73
566.04	2027.55
566.243	2045.76
566.446	1936.1
566.649	2061.07
566.852	1973.49
567.055	2017.09
567.258	2031.42
567.461	2122.48
567.664	2059.32
567.867	1984.34
568.07	2054.67
568.273	2021.15
568.475	2044.99
568.678	1960.51
568.881	1965.94
569.084	2000.04
569.287	1835.93
569.489	1890.76
569.692	1943.27
569.895	1981.24
570.098	1885.73
570.3	1902.97
570.503	1820.82
570.706	1833.22
570.909	1872.16
571.111	1833.8
571.314	1817.14
571.516	1827.8
571.719	1875.65
571.922	1832.25
572.124	1830.12
572.327	1834.96
572.529	1845.62
572.732	1826.05
572.935	1848.91
573.137	1894.83
573.34	1867.13
573.542	1851.04
573.745	1836.13
573.947	1856.86
574.15	1815.59
574.352	1833.61
574.554	1868.48
574.757	1806.48
574.959	1816.56
575.162	1781.49
575.364	1767.93
575.566	1857.83
575.769	1765.6
575.971	1803.19
576.173	1673.18
576.376	1771.61
576.578	1807.26
576.78	1830.9
576.982	1713.68
577.185	1778.78
577.387	1751.46
577.589	1744.1
577.791	1775.1
577.993	1814.04
578.196	1769.48
578.398	1792.73
578.6	1778
578.802	1723.75
579.004	1704.18
579.206	1721.43
579.408	1782.46
579.61	1703.99
579.812	1787.69
580.014	1738.48
580.216	1769.67
580.418	1735.57
580.62	1738.48
580.822	1757.85
581.024	1757.08
581.226	1816.17
581.428	1752.82
581.63	1865.58
581.832	1763.86
582.034	1849.69
582.236	1752.82
582.438	1811.33
582.64	1825.28
582.841	1845.81
583.043	1880.11
583.245	1796.8
583.447	1809.78
583.649	1802.22
583.85	1805.9
584.052	1824.5
584.254	1785.17
584.456	1847.36
584.657	1749.72
584.859	1806.29
585.061	1758.82
585.262	1761.73
585.464	1727.63
585.666	1817.53
585.867	1742.55
586.069	1803.77
586.27	1750.68
586.472	1773.55
586.674	1712.32
586.875	1750.49
587.077	1700.31
587.278	1774.32
587.48	1741.97
587.681	1822.95
587.883	1784.01
588.084	1691.01
588.285	1728.4
588.487	1666.6
588.688	1687.13
588.89	1627.85
589.091	1566.24
589.292	1574.57
589.494	1525.74
589.695	1518.57
589.896	1439.91
590.098	1450.57
590.299	1525.74
590.5	1525.36
590.702	1547.44
590.903	1576.31
591.104	1622.04
591.305	1618.35
591.507	1657.3
591.708	1653.81
591.909	1614.29
592.11	1675.32
592.311	1673.18
592.512	1575.73
592.714	1544.54
592.915	1605.37
593.116	1605.76
593.317	1637.34
593.518	1622.81
593.719	1616.03
593.92	1642.38
594.121	1698.76
594.322	1619.13
594.523	1612.35
594.724	1548.22
594.925	1588.9
595.126	1606.92
595.327	1583.48
595.528	1594.33
595.729	1605.76
595.929	1594.52
596.13	1599.56
596.331	1621.07
596.532	1627.65
596.733	1697.21
596.934	1647.8
597.135	1636.95
597.335	1629.4
597.536	1576.12
597.737	1649.74
597.938	1605.76
598.138	1622.62
598.339	1599.95
598.54	1637.15
598.74	1586
598.941	1623.39
599.142	1682.68
599.342	1635.99
599.543	1594.52
599.744	1654.59
599.944	1623.59
600.145	1594.52
600.345	1634.63
600.546	1689.27
600.746	1667.95
600.947	1651.68
601.147	1642.57
601.348	1646.45
601.548	1575.92
601.749	1617.77
601.949	1583.29
602.15	1592.2
602.35	1577.47
602.551	1611.57
602.751	1597.82
602.951	1604.6
603.152	1550.16
603.352	1633.85
603.552	1622.62
603.753	1662.34
603.953	1643.93
604.153	1640.44
604.354	1653.04
604.554	1634.82
604.754	1639.67
604.954	1586.97
605.155	1658.65
605.355	1622.81
605.555	1643.54
605.755	1683.07
605.955	1610.99
606.155	1669.7
606.356	1606.92
606.556	1645.29
606.756	1655.36
606.956	1563.14
607.156	1675.7
607.356	1607.31
607.556	1621.84
607.756	1606.15
607.956	1645.48
608.156	1606.34
608.356	1556.94
608.556	1616.61
608.756	1619.32
608.956	1565.66
609.156	1590.26
609.356	1570.31
609.556	1562.17
609.755	1613.7
609.955	1548.02
610.155	1597.62
610.355	1572.24
610.555	1565.66
610.755	1554.03
610.954	1511.79
611.154	1591.81
611.354	1580.96
611.554	1571.47
611.753	1520.51
611.953	1481.18
612.153	1586.19
612.352	1564.49
612.552	1507.72
612.752	1496.87
612.951	1571.86
613.151	1547.83
613.351	1524.58
613.55	1516.25
613.75	1543.96
613.949	1508.5
614.149	1490.87
614.348	1534.27
614.548	1492.42
614.747	1462
614.947	1488.54
615.146	1429.26
615.346	1505.4
615.545	1501.72
615.745	1516.83
615.944	1515.86
616.144	1508.11
616.343	1497.46
616.542	1470.91
616.742	1496.29
616.941	1500.94
617.14	1397.87
617.34	1470.91
617.539	1478.86
617.738	1424.22
617.938	1493.19
618.137	1459.68
618.336	1423.06
618.535	1512.57
618.734	1491.84
618.934	1474.59
619.133	1457.54
619.332	1476.73
619.531	1443.01
619.73	1476.34
619.929	1494.16
620.128	1507.72
620.328	1538.72
620.527	1440.49
620.726	1474.79
620.925	1483.7
621.124	1477.31
621.323	1466.26
621.522	1387.02
621.721	1417.63
621.92	1413.95
622.119	1478.66
622.318	1427.32
622.517	1438.17
622.715	1436.04
622.914	1358.93
623.113	1446.11
623.312	1355.44
623.511	1443.4
623.71	1385.28
623.909	1386.25
624.107	1442.43
624.306	1351.56
624.505	1380.63
624.704	1381.79
624.902	1388.57
625.101	1402.71
625.3	1394.58
625.499	1341.88
625.697	1356.6
625.896	1373.07
626.095	1381.4
626.293	1295.77
626.492	1332
626.69	1374.43
626.889	1364.93
627.088	1391.86
627.286	1331.61
627.485	1306.81
627.683	1318.24
627.882	1335.29
628.08	1247.33
628.279	1290.53
628.477	1344.78
628.676	1243.84
628.874	1292.47
629.073	1276.2
629.271	1252.17
629.469	1308.17
629.668	1292.28
629.866	1264.57
630.065	1261.28
630.263	1311.85
630.461	1238.03
630.66	1288.4
630.858	1299.25
631.056	1330.25
631.254	1313.78
631.453	1264.96
631.651	1314.56
631.849	1312.82
632.047	1348.46
632.245	1254.88
632.444	1311.85
632.642	1291.7
632.84	1330.45
633.038	1284.92
633.236	1239.19
633.434	1317.08
633.632	1297.12
633.83	1292.08
634.028	1350.6
634.227	1338.39
634.425	1394.19
634.623	1334.71
634.821	1311.46
635.019	1297.7
635.216	1300.61
635.414	1338.78
635.612	1340.13
635.81	1298.28
636.008	1338.2
636.206	1317.66
636.404	1309.13
636.602	1274.45
636.8	1325.41
636.997	1345.17
637.195	1339.94
637.393	1307.2
637.591	1390.9
637.789	1300.61
637.986	1310.68
638.184	1363.77
638.382	1345.17
638.58	1368.03
638.777	1388.57
638.975	1335.29
639.173	1345.56
639.37	1359.7
639.568	1319.01
639.765	1322.31
639.963	1302.93
640.161	1349.63
640.358	1360.28
640.556	1277.94
640.753	1271.74
640.951	1280.85
641.148	1332.96
641.346	1311.27
641.543	1296.54
641.741	1305.07
641.938	1306.62
642.136	1294.41
642.333	1289.18
642.531	1344.2
642.728	1349.63
642.925	1312.82
643.123	1296.15
643.32	1299.83
643.517	1320.95
643.715	1303.32
643.912	1286.47
644.109	1299.25
644.306	1273.48
644.504	1250.43
644.701	1282.2
644.898	1295.96
645.095	1252.75
645.293	1281.43
645.49	1324.83
645.687	1258.18
645.884	1298.67
646.081	1254.69
646.278	1229.5
646.475	1246.75
646.672	1231.44
646.87	1245.78
647.067	1242.48
647.264	1231.05
647.461	1177.97
647.658	1134.76
647.855	1224.85
648.052	1206.45
648.249	1123.14
648.446	1174.87
648.642	1198.5
648.839	1146.97
649.036	1148.9
649.233	1165.57
649.43	1151.62
649.627	1148.13
649.824	1149.1
650.021	1129.14
650.217	1118.1
650.414	1163.24
650.611	1183.39
650.808	1201.6
651.004	1217.49
651.201	1200.44
651.398	1265.93
651.595	1227.95
651.791	1202.38
651.988	1227.57
652.185	1144.25
652.381	1190.17
652.578	1133.02
652.775	1200.05
652.971	1186.3
653.168	1189.4
653.364	1232.22
653.561	1152.39
653.757	1162.47
653.954	1200.44
654.15	1170.02
654.347	1228.34
654.543	1177.39
654.74	1110.74
654.936	1135.73
655.133	1125.46
655.329	1149.68
655.525	1139.22
655.722	1149.29
655.918	1091.94
656.115	1123.33
656.311	1051.64
656.507	989.26
656.704	973.18
656.9	1014.83
657.096	989.64
657.292	996.23
657.489	1071.6
657.685	1074.51
657.881	1067.72
658.077	1075.09
658.273	1071.79
658.47	1164.99
658.666	1096.59
658.862	1134.76
659.058	1125.66
659.254	1128.37
659.45	1108.22
659.646	1113.45
659.842	1104.34
660.038	1149.87
660.234	1103.57
660.43	1115.58
660.626	1189.59
660.822	1175.25
661.018	1164.99
661.214	1141.54
661.41	1106.67
661.606	1168.86
661.802	1163.44
661.998	1131.47
662.194	1116.94
662.39	1144.25
662.586	1149.29
662.781	1158.98
662.977	1160.72
663.173	1128.56
663.369	1151.42
663.564	1138.44
663.76	1132.05
663.956	1133.99
664.152	1169.44
664.347	1074.7
664.543	1118.49
664.739	1103.18
664.934	1071.21
665.13	1075.28
665.326	1099.5
665.521	1149.29
665.717	1098.53
665.912	1083.42
666.108	1061.91
666.304	1105.12
666.499	1095.82
666.695	1071.99
666.89	1088.84
667.086	1139.02
667.281	1132.05
667.477	1137.86
667.672	1095.62
667.867	1118.87
668.063	1133.02
668.258	1049.71
668.454	1091.56
668.649	1143.87
668.844	1120.23
669.04	1134.96
669.235	1100.86
669.43	1106.09
669.626	1018.13
669.821	1077.02
670.016	1043.12
670.211	1087.87
670.407	1040.6
670.602	1065.21
670.797	1085.74
670.992	1135.73
671.187	1017.54
671.382	1091.36
671.578	1033.82
671.773	1109.57
671.968	1008.63
672.163	1065.59
672.358	1047.58
672.553	1058.42
672.748	1056.49
672.943	1057.46
673.138	1033.43
673.333	1084.58
673.528	1027.23
673.723	1058.81
673.918	1011.54
674.113	1042.54
674.308	1106.86
674.503	1053.97
674.698	1077.61
674.892	1054.74
675.087	1108.41
675.282	1061.52
675.477	1029.56
675.672	1074.31
675.867	1052.03
676.061	1013.86
676.256	1013.09
676.451	1035.76
676.646	1060.17
676.84	991
677.035	993.33
677.23	1013.86
677.424	1054.16
677.619	1084
677.814	1093.11
678.008	1047.58
678.203	990.23
678.397	1028.59
678.592	1007.08
678.787	1083.22
678.981	1058.04
679.176	1061.91
679.37	1032.08
679.565	1017.35
679.759	1033.82
679.954	1036.92
680.148	1040.99
680.342	1076.25
680.537	1027.62
680.731	1020.26
680.926	1066.17
681.12	1046.22
681.314	1013.48
681.509	1056.49
681.703	1000.49
681.897	1045.83
682.092	1007.28
682.286	989.26
682.48	1095.43
682.674	1043.31
682.869	1027.04
683.063	1024.13
683.257	1101.63
683.451	972.4
683.645	1047.38
683.839	990.81
684.034	980.54
684.228	1039.44
684.422	966.78
684.616	979.38
684.81	1005.92
685.004	981.7
685.198	1020.64
685.392	1006.69
685.586	1004.18
685.78	1029.17
685.974	1038.08
686.168	998.75
686.362	1055.52
686.556	893.55
686.75	897.81
686.944	854.02
687.138	843.37
687.331	745.14
687.525	762.77
687.719	688.17
687.913	752.5
688.107	763.74
688.301	730.8
688.494	802.29
688.688	752.89
688.882	690.89
689.076	712.78
689.269	766.25
689.463	810.82
689.657	755.21
689.85	756.76
690.044	764.12
690.238	783.89
690.431	799.77
690.625	767.22
690.818	802.1
691.012	809.65
691.205	849.76
691.399	837.94
691.593	858.28
691.786	903.81
691.98	912.73
692.173	929.2
692.366	942.95
692.56	928.42
692.753	953.03
692.947	886.18
693.14	968.33
693.333	944.31
693.527	923.58
693.72	931.71
693.914	948.76
694.107	912.73
694.3	930.94
694.493	914.08
694.687	949.73
694.88	924.55
695.073	984.22
695.266	953.03
695.46	966.4
695.653	1020.06
695.846	1006.89
696.039	924.74
696.232	948.18
696.425	1022.19
696.618	1049.32
696.812	1016.58
697.005	1127.01
697.198	1149.87
697.391	1115.58
697.584	1104.15
697.777	1149.1
697.97	1148.32
698.163	1150.65
698.356	1132.63
698.549	1205.09
698.742	1166.15
698.935	1142.12
699.127	1169.64
699.32	1145.03
699.513	1115.39
699.706	1178.35
699.899	1154.91
700.092	1149.68
700.285	1192.5
700.477	1151.81
700.67	1206.06
700.863	1213.04
701.056	1312.23
701.248	1261.86
701.441	1254.88
701.634	1244.03
701.826	1301.97
702.019	1186.88
702.212	1316.88
702.404	1253.92
702.597	1256.05
702.79	1278.13
702.982	1319.79
703.175	1353.7
703.367	1356.02
703.56	1360.28
703.752	1440.3
703.945	1414.14
704.137	1436.62
704.33	1454.83
704.522	1436.62
704.715	1444.95
704.907	1458.71
705.1	1503.07
705.292	1492.23
705.484	1502.69
705.677	1528.65
705.869	1558.1
706.061	1560.23
706.254	1601.69
706.446	1541.82
706.638	1573.21
706.831	1634.63
707.023	1579.02
707.215	1692.95
707.407	1648.39
707.599	1636.37
707.792	1701.67
707.984	1699.73
708.176	1737.12
708.368	1710
708.56	1726.85
708.752	1746.81
708.944	1710.58
709.136	1762.31
709.329	1752.04
709.521	1870.03
709.713	1804.35
709.905	1853.76
710.097	1854.14
710.289	1816.75
710.481	1874.49
710.672	1878.17
710.864	1889.6
711.056	1919.63
711.248	1928.16
711.44	1935.91
711.632	1955.47
711.824	1957.22
712.016	2003.52
712.207	2021.74
712.399	1999.46
712.591	2051.19
712.783	2069.98
712.975	2075.02
713.166	2029.49
713.358	2036.46
713.55	2117.83
713.741	2131.01
713.933	2112.41
714.125	2139.15
714.316	2111.83
714.508	2174.99
714.7	2177.12
714.891	2111.05
715.083	2236.6
715.274	2133.33
715.466	2212.19
715.657	2226.72
715.849	2134.88
716.04	2184.29
716.232	2120.16
716.423	2219.16
716.615	2117.25
716.806	2069.2
716.998	2018.25
717.189	1926.99
717.381	1878.56
717.572	1868.29
717.763	1858.99
717.955	1819.27
718.146	1818.11
718.337	1731.7
718.528	1746.23
718.72	1659.43
718.911	1716.58
719.102	1689.85
719.293	1753.01
719.485	1729.76
719.676	1673.96
719.867	1690.82
720.058	1706.51
720.249	1683.26
720.44	1702.63
720.632	1781.1
720.823	1840.2
721.014	1962.45
721.205	1972.14
721.396	2076.18
721.587	2150.58
721.778	2203.28
721.969	2244.93
722.16	2319.53
722.351	2296.47
722.542	2442.56
722.733	2430.93
722.924	2352.66
723.115	2417.17
723.305	2403.42
723.496	2404.97
723.687	2293.95
723.878	2279.23
724.069	2281.36
724.26	2304.8
724.45	2221.88
724.641	2221.3
724.832	2262.76
725.023	2253.65
725.213	2274.38
725.404	2226.53
725.595	2250.55
725.785	2241.83
725.976	2325.92
726.167	2294.92
726.357	2327.66
726.548	2422.02
726.739	2318.36
726.929	2428.22
727.12	2421.05
727.31	2459.6
727.501	2366.03
727.691	2395.86
727.882	2416.4
728.072	2510.75
728.263	2460.57
728.453	2521.8
728.644	2545.82
728.834	2495.45
729.024	2478.98
729.215	2466.77
729.405	2531.1
729.596	2602.98
729.786	2600.46
729.976	2655.87
730.167	2653.35
730.357	2628.94
730.547	2610.34
730.737	2674.08
730.928	2705.28
731.118	2761.85
731.308	2676.99
731.498	2695.98
731.688	2800.99
731.879	2791.88
732.069	2866.47
732.259	2915.3
732.449	2977.1
732.639	3041.04
732.829	3069.52
733.019	3148.38
733.209	3186.54
733.399	3149.15
733.589	3288.65
733.779	3310.74
733.969	3327.79
734.159	3411.87
734.349	3442.48
734.539	3433.38
734.729	3512.81
734.919	3486.47
735.109	3570.36
735.299	3463.41
735.488	3507
735.678	3511.46
735.868	3561.45
736.058	3537.23
736.248	3511.85
736.437	3486.66
736.627	3466.51
736.817	3616.28
737.007	3546.72
737.196	3655.61
737.386	3593.41
737.576	3559.7
737.765	3658.71
737.955	3600
738.144	3730.01
738.334	3686.61
738.524	3652.51
738.713	3710.82
738.903	3716.64
739.092	3729.81
739.282	3719.35
739.471	3744.54
739.661	3726.91
739.85	3791.62
740.04	3824.55
740.229	3836.18
740.419	3874.93
740.608	3836.95
740.797	3851.49
740.987	3921.23
741.176	3906.32
741.365	3897.4
741.555	3818.74
741.744	3947.97
741.933	3933.44
742.123	3935.77
742.312	3971.22
742.501	4019.08
742.69	4038.26
742.88	3931.7
743.069	4042.13
743.258	4028.18
743.447	4072.55
743.636	4075.65
743.825	4046.39
744.014	4062.67
744.204	4098.71
744.393	4001.64
744.582	4117.5
744.771	4142.3
744.96	4106.84
745.149	4095.61
745.338	4065.19
745.527	4140.17
745.716	4088.24
745.905	4047.94
746.094	4130.29
746.283	4174.07
746.471	4177.56
746.66	4191.9
746.849	4168.46
747.038	4220.96
747.227	4128.16
747.416	4222.51
747.604	4129.32
747.793	4143.66
747.982	4234.91
748.171	4202.55
748.359	4179.31
748.548	4155.67
748.737	4120.02
748.926	4173.11
749.114	4067.32
749.303	4191.71
749.491	4163.61
749.68	4054.73
749.869	4148.5
750.057	4115.37
750.246	4044.84
750.434	4101.81
750.623	4120.79
750.811	4072.55
751	4150.24
751.188	4072.94
751.377	4096.77
751.565	4072.36
751.754	4074.29
751.942	4052.4
752.131	4144.62
752.319	4067.51
752.507	4093.09
752.696	4101.42
752.884	4127.96
753.072	4064.03
753.261	4116.34
753.449	4092.7
753.637	4052.98
753.825	4134.74
754.014	4081.27
754.202	4045.23
754.39	4095.61
754.578	4112.66
754.766	4034.58
754.955	4018.5
755.143	4111.69
755.331	4072.74
755.519	4065.77
755.707	4043.49
755.895	4002.22
756.083	4018.11
756.271	3973.16
756.459	3982.07
756.647	4045.04
756.835	3999.12
757.023	4014.81
757.211	3956.3
757.399	3958.82
757.587	3950.1
757.775	3912.71
757.963	3958.43
758.151	3975.48
758.339	3882.29
758.526	3844.32
758.714	3918.33
758.902	3747.64
759.09	3643.21
759.278	3398.5
759.465	3122.61
759.653	2735.69
759.841	2508.62
760.028	2092.84
760.216	1872.74
760.404	1728.4
760.591	1430.61
760.779	1180.49
760.967	1035.37
761.154	874.37
761.342	912.15
761.529	906.72
761.717	916.41
761.905	946.44
762.092	1035.76
762.28	936.75
762.467	920.86
762.655	885.6
762.842	912.34
763.029	914.66
763.217	925.71
763.404	888.7
763.592	931.13
763.779	895.48
763.966	950.31
764.154	1001.85
764.341	1078.77
764.528	1089.04
764.716	1150.45
764.903	1196.37
765.09	1269.22
765.277	1313.01
765.465	1494.36
765.652	1579.41
765.839	1691.59
766.026	1834.19
766.213	1850.66
766.4	1980.27
766.588	2202.89
766.775	2244.16
766.962	2325.34
767.149	2453.99
767.336	2630.49
767.523	2559.38
767.71	2767.66
767.897	2901.54
768.084	2929.44
768.271	3035.03
768.458	3119.31
768.645	3158.45
768.832	3178.02
769.019	3183.83
769.206	3247.96
769.392	3322.56
769.579	3377.39
769.766	3354.72
769.953	3357.62
770.14	3451.4
770.327	3406.84
770.513	3485.88
770.7	3535.29
770.887	3412.45
771.073	3515.53
771.26	3478.13
771.447	3471.55
771.634	3440.93
771.82	3589.93
772.007	3469.03
772.193	3545.95
772.38	3515.72
772.567	3503.71
772.753	3473.48
772.94	3559.51
773.126	3520.95
773.313	3604.07
773.499	3517.66
773.686	3548.46
773.872	3470.19
774.059	3536.06
774.245	3490.53
774.432	3506.23
774.618	3410.32
774.804	3476
774.991	3461.67
775.177	3486.85
775.363	3421.75
775.55	3455.85
775.736	3410.13
775.922	3465.15
776.109	3456.24
776.295	3466.12
776.481	3471.74
776.667	3470.19
776.853	3426.6
777.04	3373.51
777.226	3394.63
777.412	3471.93
777.598	3384.75
777.784	3414.59
777.97	3340.38
778.156	3399.28
778.342	3347.35
778.528	3351.04
778.715	3290.01
778.901	3355.1
779.087	3371.19
779.272	3351.62
779.458	3294.85
779.644	3341.74
779.83	3288.65
780.016	3378.94
780.202	3315.77
780.388	3297.37
780.574	3216.58
780.76	3246.41
780.946	3315.77
781.131	3296.59
781.317	3238.66
781.503	3239.44
781.689	3239.05
781.874	3334.95
782.06	3195.46
782.246	3233.82
782.432	3239.24
782.617	3229.17
782.803	3292.14
782.989	3199.14
783.174	3142.18
783.36	3126.29
783.545	3150.12
783.731	3161.94
783.916	3102.46
784.102	3165.43
784.288	3120.86
784.473	3152.06
784.659	3096.06
784.844	3127.45
785.029	3104.01
785.215	3104.4
785.4	3033.68
785.586	3148.76
785.771	3020.7
785.956	3099.75
786.142	3055.18
786.327	3012.95
786.512	3018.18
786.698	3037.94
786.883	2941.65
787.068	3027.28
787.254	3033.87
787.439	2999.19
787.624	2982.72
787.809	2952.3
787.994	2926.92
788.18	3042.01
788.365	2883.72
788.55	2895.34
788.735	2930.99
788.92	2891.08
789.105	2888.37
789.29	2929.25
789.475	2833.34
789.66	2859.5
789.845	2788.39
790.03	2826.17
790.215	2874.22
790.4	2841.09
790.585	2862.21
790.77	2816.1
790.955	2806.99
791.14	2793.63
791.325	2894.37
791.51	2711.86
791.695	2818.62
791.879	2801.76
792.064	2754.88
792.249	2845.36
792.434	2809.71
792.618	2766.11
792.803	2844.39
792.988	2797.69
793.173	2814.74
793.357	2831.21
793.542	2766.69
793.727	2779.68
793.911	2857.56
794.096	2793.63
794.281	2867.44
794.465	2923.24
794.65	2813.58
794.834	2873.26
795.019	2856.98
795.203	2870.54
795.388	2850.78
795.572	2897.86
795.757	2869.19
795.941	2845.36
796.126	2879.07
796.31	2797.31
796.494	2832.76
796.679	2845.36
796.863	2803.31
797.048	2891.08
797.232	2816.1
797.416	2854.27
797.601	2872.87
797.785	2912.2
797.969	2900.38
798.153	2813.77
798.338	2876.16
798.522	2952.5
798.706	2968.77
798.89	2917.04
799.074	2979.43
799.258	2964.32
799.443	2922.85
799.627	2887.79
799.811	2930.02
799.995	2851.94
800.179	2906
800.363	2888.95
800.547	2896.7
800.731	2890.31
800.915	2842.45
801.099	2873.06
801.283	2863.76
801.467	2877.71
801.651	2853.88
801.835	2918.98
802.019	2867.83
802.202	2866.86
802.386	2831.79
802.57	2831.6
802.754	2829.08
802.938	2797.11
803.121	2830.44
803.305	2917.62
803.489	2841.87
803.673	2866.09
803.856	2818.81
804.04	2837.61
804.224	2891.08
804.407	2827.14
804.591	2815.71
804.775	2827.34
804.958	2885.66
805.142	2941.07
805.326	2871.9
805.509	2829.08
805.693	2878.1
805.876	2895.15
806.06	2894.37
806.243	2912.2
806.427	2940.29
806.61	2891.27
806.794	2854.07
806.977	2938.55
807.16	2895.73
807.344	2918.79
807.527	2890.89
807.71	2867.44
807.894	2877.13
808.077	2907.35
808.26	2853.69
808.444	2823.85
808.627	2861.82
808.81	2802.93
808.993	2797.31
809.177	2749.45
809.36	2760.49
809.543	2783.74
809.726	2686.29
809.909	2697.72
810.092	2662.26
810.276	2680.67
810.459	2669.24
810.642	2657.03
810.825	2631.46
811.008	2659.16
811.191	2525.87
811.374	2560.55
811.557	2578.37
811.74	2609.76
811.923	2494.87
812.106	2497.19
812.289	2456.89
812.472	2445.27
812.654	2470.45
812.837	2438.49
813.02	2366.22
813.203	2345.1
813.386	2208.12
813.569	2216.84
813.751	2150.97
813.934	2179.64
814.117	2160.46
814.3	2094.97
814.482	2091.49
814.665	2040.72
814.848	2001.39
815.03	1946.76
815.213	1959.74
815.396	1926.99
815.578	1910.53
815.761	1827.21
815.943	1878.36
816.126	1809.78
816.309	1784.2
816.491	1735.57
816.674	1654.2
816.856	1714.45
817.039	1727.43
817.221	1779.55
817.403	1735.77
817.586	1736.15
817.768	1754.17
817.951	1656.33
818.133	1642.77
818.315	1724.14
818.498	1750.49
818.68	1798.73
818.862	1774.51
819.045	1773.74
819.227	1758.82
819.409	1770.06
819.591	1798.54
819.774	1760.37
819.956	1747
820.138	1846.39
820.32	1801.06
820.502	1889.21
820.684	1951.21
820.866	1959.16
821.048	2003.72
821.231	2003.91
821.413	2028.52
821.595	1988.41
821.777	2015.54
821.959	1992.48
822.141	2045.18
822.323	1906.26
822.505	1818.5
822.686	1804.35
822.868	1689.85
823.05	1590.26
823.232	1556.16
823.414	1524.58
823.596	1584.45
823.778	1534.07
823.96	1578.44
824.141	1576.89
824.323	1616.61
824.505	1714.26
824.687	1770.25
824.868	1787.11
825.05	1879.53
825.232	1955.67
825.413	2021.93
825.595	1973.69
825.777	1882.04
825.958	1946.37
826.14	1930.67
826.321	1982.79
826.503	1904.91
826.685	1970.97
826.866	1972.52
827.048	1989.77
827.229	1924.48
827.411	1889.21
827.592	1809.97
827.773	1788.27
827.955	1787.11
828.136	1787.3
828.318	1763.47
828.499	1787.69
828.68	1721.62
828.862	1750.68
829.043	1796.6
829.224	1698.57
829.406	1720.46
829.587	1740.22
829.768	1702.25
829.949	1761.15
830.131	1758.82
830.312	1832.45
830.493	1761.53
830.674	1797.18
830.855	1773.35
831.036	1766.96
831.218	1823.53
831.399	1815.01
831.58	1781.3
831.761	1766.76
831.942	1783.81
832.123	1774.13
832.304	1711.93
832.485	1742.35
832.666	1736.93
832.847	1799.12
833.028	1776.26
833.209	1737.32
833.389	1738.28
833.57	1707.09
833.751	1675.7
833.932	1747.97
834.113	1761.92
834.294	1747.2
834.475	1792.15
834.655	1821.6
834.836	1826.05
835.017	1831.28
835.198	1736.35
835.378	1809.39
835.559	1842.52
835.74	1794.28
835.92	1810.16
836.101	1793.11
836.281	1846.98
836.462	1837.1
836.643	1811.91
836.823	1857.63
837.004	1835.35
837.184	1913.82
837.365	1878.94
837.545	1873.71
837.726	1839.03
837.906	1874.29
838.087	1874.88
838.267	1841.16
838.448	1822.76
838.628	1846.39
838.808	1849.3
838.989	1908.39
839.169	1813.07
839.349	1861.12
839.53	1867.71
839.71	1877.2
839.89	1832.45
840.07	1898.13
840.251	1840.97
840.431	1890.38
840.611	1802.8
840.791	1803.96
840.971	1846.98
841.151	1817.72
841.332	1808.03
841.512	1876.23
841.692	1793.31
841.872	1856.47
842.052	1806.87
842.232	1845.81
842.412	1744.1
842.592	1805.9
842.772	1843.68
842.952	1841.36
843.132	1813.46
843.312	1814.81
843.492	1791.76
843.672	1846.2
843.851	1771.61
844.031	1800.48
844.211	1812.49
844.391	1762.11
844.571	1792.92
844.751	1776.45
844.93	1776.26
845.11	1782.65
845.29	1811.33
845.47	1804.35
845.649	1770.45
845.829	1780.52
846.009	1803.38
846.188	1805.9
846.368	1769.67
846.547	1763.28
846.727	1844.26
846.907	1740.61
847.086	1777.61
847.266	1826.44
847.445	1782.85
847.625	1767.93
847.804	1735.77
847.984	1733.44
848.163	1729.37
848.343	1703.99
848.522	1760.56
848.701	1771.61
848.881	1690.43
849.06	1763.66
849.239	1751.07
849.419	1732.67
849.598	1653.23
849.777	1684.23
849.957	1643.93
850.136	1601.3
850.315	1582.12
850.494	1591.62
850.674	1582.12
850.853	1672.41
851.032	1625.14
851.211	1690.23
851.39	1613.9
851.569	1582.9
851.748	1582.9
851.927	1643.15
852.107	1598.59
852.286	1557.32
852.465	1566.24
852.644	1629.01
852.823	1627.07
853.002	1628.24
853.181	1613.9
853.359	1629.01
853.538	1562.36
853.717	1582.7
853.896	1515.86
854.075	1429.45
854.254	1434.68
854.433	1368.61
854.611	1400.58
854.79	1362.8
854.969	1394
855.148	1439.53
855.327	1406.98
855.505	1449.21
855.684	1435.26
855.863	1462.19
856.041	1424.22
856.22	1471.69
856.399	1499.78
856.577	1578.44
856.756	1540.66
856.934	1627.85
857.113	1627.07
857.291	1567.79
857.47	1520.9
857.648	1542.41
857.827	1578.25
858.005	1580.19
858.184	1516.64
858.362	1603.44
858.541	1518.77
858.719	1514.12
858.898	1538.14
859.076	1511.02
859.254	1619.71
859.433	1507.14
859.611	1488.35
859.789	1492.81
859.967	1537.37
860.146	1565.07
860.324	1507.72
860.502	1473.24
860.68	1466.65
860.859	1492.42
861.037	1485.44
861.215	1511.21
861.393	1502.69
861.571	1478.47
861.749	1481.76
861.927	1467.04
862.105	1477.69
862.283	1511.99
862.461	1442.43
862.639	1424.22
862.817	1464.13
862.995	1431
863.173	1442.04
863.351	1441.85
863.529	1432.36
863.707	1503.27
863.885	1465.1
864.063	1420.54
864.241	1406.78
864.418	1481.96
864.596	1406.59
864.774	1376.95
864.952	1431.19
865.129	1422.86
865.307	1389.73
865.485	1394.19
865.663	1413.95
865.84	1311.65
866.018	1347.3
866.196	1212.07
866.373	1236.67
866.551	1203.54
866.728	1175.84
866.906	1223.5
867.084	1233.38
867.261	1303.71
867.439	1305.65
867.616	1299.25
867.794	1293.44
867.971	1312.62
868.149	1318.24
868.326	1359.9
868.503	1343.81
868.681	1353.11
868.858	1319.4
869.035	1289.18
869.213	1325.6
869.39	1294.8
869.567	1370.55
869.745	1306.81
869.922	1308.55
870.099	1341.1
870.276	1336.26
870.454	1321.73
870.631	1365.32
870.808	1298.87
870.985	1338
871.162	1381.01
871.339	1347.69
871.517	1243.45
871.694	1276.58
871.871	1301.97
872.048	1291.89
872.225	1276.2
872.402	1284.72
872.579	1257.02
872.756	1291.31
872.933	1232.99
873.11	1281.43
873.287	1295.57
873.463	1253.14
873.64	1236.28
873.817	1270.38
873.994	1236.87
874.171	1232.6
874.348	1265.15
874.524	1214.2
874.701	1244.03
874.878	1182.23
875.055	1237.45
875.231	1203.93
875.408	1260.12
875.585	1174.67
875.762	1227.95
875.938	1179.52
876.115	1190.37
876.291	1201.02
876.468	1200.83
876.645	1165.57
876.821	1173.12
876.998	1172.93
877.174	1195.4
877.351	1176.42
877.527	1153.36
877.704	1204.32
877.88	1182.62
878.057	1159.95
878.233	1210.32
878.409	1189.01
878.586	1204.51
878.762	1163.24
878.938	1135.34
879.115	1088.26
879.291	1144.25
879.467	1094.27
879.644	1145.42
879.82	1162.85
879.996	1134.76
880.172	1076.25
880.349	1090.78
880.525	1131.47
880.701	1067.92
880.877	1089.62
881.053	1087.68
881.229	1092.91
881.405	1142.51
881.581	1079.16
881.757	1119.07
881.933	1117.91
882.109	1136.7
882.285	1097.95
882.461	1049.71
882.637	1121.97
882.813	1087.1
882.989	1105.51
883.165	1126.43
883.341	1082.64
883.517	1155.69
883.693	1095.43
883.869	1089.81
884.044	1078.96
884.22	1138.83
884.396	1205.67
884.572	1112.67
884.747	1134.57
884.923	1115.58
885.099	1130.5
885.275	1165.76
885.45	1075.67
885.626	1090.97
885.801	1071.21
885.977	1062.69
886.153	1026.65
886.328	1089.62
886.504	1096.98
886.679	1112.09
886.855	1031.88
887.03	1118.49
887.206	1148.71
887.381	1075.47
887.557	1055.91
887.732	1086.32
887.908	1093.49
888.083	1121.78
888.258	1090.01
888.434	1074.51
888.609	1096.98
888.784	1123.14
888.96	1076.44
889.135	1096.79
889.31	1054.36
889.485	1090.01
889.661	1098.53
889.836	1115
890.011	1108.22
890.186	1062.3
890.361	1055.33
890.537	1086.32
890.712	1121.39
890.887	1075.86
891.062	1068.5
891.237	1134.37
891.412	1077.8
891.587	1100.86
891.762	1113.45
891.937	1113.64
892.112	1061.91
892.287	1068.31
892.462	1022.97
892.637	1005.34
892.812	1010.96
892.987	1023.16
893.161	1003.01
893.336	984.61
893.511	1003.01
893.686	969.3
893.861	990.03
894.035	982.86
894.21	993.91
894.385	941.79
894.56	965.81
894.734	912.92
894.909	912.92
895.084	892.19
895.258	867.97
895.433	898
895.608	872.62
895.782	814.69
895.957	817.79
896.131	841.82
896.306	789.31
896.48	778.46
896.655	771.1
896.829	698.06
897.004	701.74
897.178	745.14
897.353	697.86
897.527	745.52
897.701	724.99
897.876	691.66
898.05	741.45
898.224	763.15
898.399	757.92
898.573	714.52
898.747	600.02
898.921	655.62
899.096	573.48
899.27	581.03
899.444	581.42
899.618	643.42
899.792	635.09
899.967	635.67
900.141	675.58
900.315	600.02
900.489	622.49
900.663	646.13
900.837	629.66
901.011	562.63
901.185	653.49
901.359	640.51
901.533	597.89
901.707	638.19
901.881	650.01
902.055	591.11
902.229	604.48
902.403	661.24
902.576	626.17
902.75	644.39
902.924	711.81
903.098	702.9
903.272	744.17
903.446	719.37
903.619	772.45
903.793	793.19
903.967	742.04
904.14	803.45
904.314	813.72
904.488	807.13
904.661	818.95
904.835	796.48
905.009	840.46
905.182	860.61
905.356	808.68
905.529	812.37
905.703	798.8
905.876	758.12
906.05	737.77
906.223	728.09
906.397	658.92
906.57	664.15
906.744	632.96
906.917	635.09
907.09	621.72
907.264	623.27
907.437	587.23
907.61	554.29
907.784	619.39
907.957	607.19
908.13	562.24
908.304	583.55
908.477	555.26
908.65	569.02
908.823	538.6
908.996	599.63
909.17	557.39
909.343	546.16
909.516	573.67
909.689	549.26
909.862	512.45
910.035	540.34
910.208	498.69
910.381	521.55
910.554	607.38
910.727	550.42
910.9	551.58
911.073	524.65
911.246	617.46
911.419	584.33
911.592	598.28
911.765	524.07
911.938	530.66
912.11	559.72
912.283	531.24
912.456	591.11
912.629	526.2
912.802	489.58
912.974	473.5
913.147	462.85
913.32	436.3
913.493	444.83
913.665	487.84
913.838	465.75
914.01	459.75
914.183	486.1
914.356	497.14
914.528	553.52
914.701	539.96
914.873	500.05
915.046	480.48
915.218	426.42
915.391	366.55
915.563	395.62
915.736	438.82
915.908	476.02
916.081	472.53
916.253	472.73
916.425	464.78
916.598	486.48
916.77	458.2
916.942	430.3
917.115	369.46
917.287	450.64
917.459	413.63
917.632	405.3
917.804	358.22
917.976	445.8
918.148	458.39
918.32	457.23
918.493	487.84
918.665	511.28
918.837	464.01
919.009	525.43
919.181	537.24
919.353	503.34
919.525	489
919.697	516.71
919.869	516.71
920.041	555.07
920.213	618.43
920.385	544.03
920.557	523.68
920.729	531.63
920.901	521.16
921.073	468.66
921.244	507.99
921.416	524.07
921.588	482.22
921.76	506.83
921.932	533.18
922.103	510.9
922.275	516.71
922.447	498.88
922.619	455.48
922.79	483.58
922.962	483.58
923.134	513.22
923.305	453.74
923.477	442.12
923.648	454.32
923.82	457.03
923.991	402.01
924.163	389.61
924.335	424.68
924.506	413.83
924.677	478.15
924.849	400.27
925.02	434.37
925.192	443.47
925.363	443.28
925.535	446.38
925.706	394.65
925.877	474.66
926.049	404.72
926.22	446.57
926.391	437.47
926.562	431.85
926.734	425.26
926.905	447.93
927.076	380.89
927.247	400.65
927.419	373.92
927.59	368.3
927.761	354.74
927.932	371.2
928.103	353.19
928.274	276.85
928.445	302.42
928.616	284.79
928.787	303.39
928.958	321.41
929.129	316.18
929.3	282.47
929.471	240.23
929.642	207.29
929.813	177.65
929.984	265.42
930.155	149.56
930.326	225.89
930.496	177.84
930.667	155.37
930.838	166.8
931.009	120.3
931.18	168.93
931.35	131.15
931.521	183.85
931.692	91.43
931.863	48.42
932.033	140.26
932.204	141.61
932.374	134.64
932.545	74.58
932.716	139.48
932.886	134.06
933.057	61.98
933.227	69.93
933.398	139.48
933.568	47.84
933.739	27.5
933.909	40.28
934.08	102.86
934.25	39.9
934.421	49.97
934.591	73.03
934.761	26.53
934.932	9.67
935.102	30.98
935.272	39.51
935.443	51.52
935.613	53.26
935.783	69.93
935.953	18
936.123	178.43
936.294	36.21
936.464	28.46
936.634	12.58
936.804	18.78
936.974	24.59
937.144	70.12
937.314	37.38
937.484	30.79
937.655	24.01
937.825	67.02
937.995	19.75
938.165	63.92
938.334	61.98
938.504	74.58
938.674	39.12
938.844	79.61
939.014	122.24
939.184	96.47
939.354	134.25
939.524	142.78
939.694	104.03
939.863	95.31
940.033	143.36
940.203	149.17
940.373	121.27
940.542	133.67
940.712	106.16
940.882	132.7
941.051	131.73
941.221	110.42
941.391	149.56
941.56	89.69
941.73	67.6
941.899	191.41
942.069	79.81
942.238	127.28
942.408	63.53
942.577	110.61
942.747	63.15
942.916	42.61
943.086	62.37
943.255	106.93
943.425	95.11
943.594	92.01
943.763	20.71
943.933	39.31
944.102	25.17
944.271	35.63
944.441	96.86
944.61	68.38
944.779	58.5
944.948	173.97
945.117	49.39
945.287	47.84
945.456	30.4
945.625	56.95
945.794	63.73
945.963	55.4
946.132	62.76
946.301	55.98
946.47	92.01
946.639	24.01
946.808	69.54
946.977	94.92
947.146	122.63
947.315	69.93
947.484	81.55
947.653	65.86
947.822	51.33
947.991	46.68
948.16	133.86
948.329	129.21
948.498	77.48
948.666	68.18
948.835	101.12
949.004	51.71
949.173	40.86
949.341	59.08
949.51	78.65
949.679	115.26
949.847	93.76
950.016	153.82
950.185	96.28
950.353	78.26
950.522	65.47
950.69	142.78
950.859	65.28
951.028	115.46
951.196	104.03
951.365	57.14
951.533	63.53
951.701	98.02
951.87	92.4
952.038	41.83
952.207	54.81
952.375	136.96
952.543	85.04
952.712	88.91
952.88	48.61
953.048	130.38
953.217	59.85
953.385	79.81
953.553	116.81
953.721	34.47
953.89	58.11
954.058	60.05
954.226	70.12
954.394	72.06
954.562	29.24
954.73	55.78
954.898	43.77
955.067	82.52
955.235	63.53
955.403	109.06
955.571	121.27
955.739	107.32
955.907	51.33
956.075	49.58
956.243	42.8
956.41	96.08
956.578	35.63
956.746	41.06
956.914	60.43
957.082	127.28
957.25	99.18
957.418	61.4
957.585	87.17
957.753	125.34
957.921	50.36
958.089	87.56
958.256	95.5
958.424	86.78
958.592	96.47
958.759	53.65
958.927	92.21
959.095	62.56
959.262	79.81
959.43	61.21
959.597	56.56
959.765	85.23
959.932	43.19
960.1	95.11
960.267	89.88
960.435	71.09
960.602	134.83
960.77	72.25
960.937	24.4
961.104	92.01
961.272	23.43
961.439	44.74
961.606	79.23
961.774	106.16
961.941	55.4
962.108	91.05
962.275	73.61
962.443	105.38
962.61	116.62
962.777	161.76
962.944	122.24
963.111	94.15
963.278	134.64
963.446	109.26
963.613	102.86
963.78	119.91
963.947	122.04
964.114	100.34
964.281	150.53
964.448	111.78
964.615	61.01
964.782	102.48
964.949	144.52
965.116	119.91
965.282	133.28
965.449	99.76
965.616	49.78
965.783	122.24
965.95	126.31
966.117	87.56
966.283	74.38
966.45	107.9
966.617	112.55
966.784	143.74
966.95	133.28
967.117	128.44
967.284	79.61
967.45	112.74
967.617	126.31
967.784	132.7
967.95	136.38
968.117	123.4
968.283	135.8
968.45	207.29
968.616	123.79
968.783	175.91
968.949	138.51
969.116	178.04
969.282	123.21
969.449	125.73
969.615	129.6
969.781	90.08
969.948	117.2
970.114	97.05
970.28	161.76
970.447	138.32
970.613	173.39
970.779	120.88
970.945	112.16
971.112	117.78
971.278	124.18
971.444	113.13
971.61	158.47
971.776	123.79
971.942	147.23
972.108	132.89
972.275	100.73
972.441	128.44
972.607	194.31
972.773	120.11
972.939	144.52
973.105	118.17
973.271	63.15
973.437	123.01
973.602	104.99
973.768	147.23
973.934	112.36
974.1	112.55
974.266	25.17
974.432	133.48
974.598	104.8
974.763	157.89
974.929	98.6
975.095	159.83
975.261	86.78
975.426	79.81
975.592	106.93
975.758	134.06
975.923	64.89
976.089	85.43
976.255	101.7
976.42	114.68
976.586	108.68
976.751	109.06
976.917	177.46
977.082	130.76
977.248	98.41
977.413	51.13
977.579	109.06
977.744	121.85
977.91	75.55
978.075	99.76
978.24	122.43
978.406	119.53
978.571	104.61
978.736	74
978.902	111.78
979.067	77.68
979.232	57.53
979.397	105.77
979.563	147.04
979.728	59.08
979.893	122.24
980.058	81.55
980.223	143.36
980.388	101.89
980.554	115.07
980.719	102.67
980.884	117.98
981.049	158.08
981.214	77.48
981.379	85.81
981.544	77.87
981.709	93.76
981.874	78.06
982.039	102.09
982.204	141.61
982.368	104.99
982.533	97.63
982.698	104.8
982.863	152.46
983.028	97.83
983.193	109.64
983.357	107.71
983.522	124.95
983.687	105.77
983.852	95.89
984.016	106.74
984.181	114.49
984.346	124.76
984.51	118.36
984.675	125.92
984.839	126.69
985.004	128.63
985.168	132.51
985.333	107.71
985.498	106.54
985.662	95.5
985.827	112.94
985.991	77.29
986.155	90.46
986.32	123.98
986.484	147.81
986.649	100.54
986.813	55.98
986.977	86.59
987.142	146.07
987.306	81.36
987.47	86.59
987.634	82.52
987.799	113.71
987.963	122.24
988.127	139.87
988.291	167.19
988.455	101.89
988.62	81.55
988.784	124.37
988.948	114.29
989.112	58.11
989.276	90.85
989.44	100.93
989.604	107.9
989.768	84.46
989.932	179.2
990.096	67.41
990.26	56.17
990.424	62.56
990.588	58.88
990.752	136.96
990.915	141.61
991.079	109.64
991.243	65.86
991.407	129.99
991.571	87.95
991.734	106.54
991.898	105.38
992.062	163.7
992.226	83.88
992.389	69.54
992.553	41.83
992.717	49
992.88	66.44
993.044	98.21
993.207	95.11
993.371	119.14
993.535	118.56
993.698	97.44
993.862	112.36
994.025	134.06
994.189	117.01
994.352	113.33
994.515	124.37
994.679	142.19
994.842	108.68
995.006	135.61
995.169	59.66
995.332	64.7
995.496	112.16
995.659	68.76
995.822	78.45
995.985	47.06
996.149	149.36
996.312	85.62
996.475	166.99
996.638	68.38
996.801	136.77
996.964	134.44
997.128	67.99
997.291	78.26
997.454	74.96
997.617	20.52
997.78	109.06
997.943	71.09
998.106	128.63
998.269	84.46
998.432	72.45
998.595	104.61
998.758	29.05
998.92	33.5
999.083	21.49
999.246	70.7
999.409	32.34
999.572	41.45
999.735	40.67
999.897	112.55
1000.06	83.88
1000.223	75.93
1000.386	89.88
1000.548	93.37
1000.711	106.16
1000.874	87.17
1001.036	31.56
1001.199	85.04
1001.361	38.15
1001.524	80.2
1001.687	74.38
1001.849	29.24
1002.012	73.41
1002.174	89.5
1002.337	99.96
1002.499	66.44
1002.661	103.25
1002.824	48.23
1002.986	30.6
1003.149	84.26
1003.311	32.73
1003.473	91.05
1003.636	60.24
1003.798	105.77
1003.96	72.25
1004.123	61.01
1004.285	49.97
1004.447	48.03
1004.609	74.96
1004.771	131.54
1004.933	28.46
1005.096	33.89
1005.258	13.74
1005.42	54.62
1005.582	101.7
1005.744	79.81
1005.906	20.71
1006.068	60.43
1006.23	25.75
1006.392	21.49
1006.554	34.28
1006.716	86.78
1006.878	75.93
1007.04	26.72
1007.202	29.05
1007.363	45.9
1007.525	81.16
1007.687	73.22
1007.849	98.02
1008.011	4.83
1008.172	25.17
1008.334	66.83
1008.496	79.61
1008.658	18.97
1008.819	29.43
1008.981	16.45
1009.143	37.57
1009.304	43.19
1009.466	64.89
1009.627	114.49
1009.789	161.38
1009.95	56.56
1010.112	61.79
1010.273	82.33
1010.435	47.45
1010.596	36.21
1010.758	25.95
1010.919	44.74
1011.081	9.48
1011.242	57.72
1011.403	86.59
1011.565	35.63
1011.726	65.47
1011.887	22.65
1012.049	36.41
1012.21	75.16
1012.371	98.6
1012.532	-12.03
1012.693	41.83
1012.855	33.89
1013.016	63.53
1013.177	80
1013.338	52.68
1013.499	109.84
1013.66	74.38
1013.821	67.02
1013.982	43.58
1014.143	53.46
1014.304	40.86
1014.465	65.86
1014.626	67.8
1014.787	19.75
1014.948	112.74
1015.109	-21.13
1015.27	67.8
1015.431	21.68
1015.592	15.1
1015.752	79.42
1015.913	37.18
1016.074	63.53
1016.235	30.21
1016.395	55.01
1016.556	45.71
1016.717	48.23
1016.877	74.96
1017.038	2.12
1017.199	39.7
1017.359	51.52
1017.52	43.77
1017.681	48.03
1017.841	14.51
1018.002	34.28
1018.162	27.88
1018.323	59.85
1018.483	44.55
1018.644	22.26
1018.804	5.41
1018.964	27.11
1019.125	22.65
1019.285	75.93
1019.446	16.26
1019.606	16.65
1019.766	-1.18
1019.926	67.02
1020.087	20.13
1020.247	18.39
1020.407	58.69
1020.567	76.51
1020.728	34.47
1020.888	9.48
1021.048	8.31
1021.208	4.83
1021.368	-1.37
1021.528	95.5
1021.688	66.63
1021.848	40.28
1022.008	40.86
1022.168	16.45
1022.328	22.65
1022.488	23.23
1022.648	36.8
1022.808	44.55
1022.968	42.22
1023.128	4.83
1023.288	-9.7
1023.448	24.01
1023.608	79.03
1023.767	31.95
1023.927	36.21
1024.087	-1.76
1024.247	-10.28
1024.406	5.8
1024.566	-4.28
1024.726	38.93
1024.885	31.76
1025.045	20.52
1025.205	13.74
1025.364	38.15
1025.524	28.27
1025.683	14.13
1025.843	30.4
1026.003	30.01
1026.162	67.6
1026.321	75.35
1026.481	25.17
1026.64	13.35
1026.8	42.61
1026.959	25.17
1027.119	24.59
1027.278	13.74
1027.437	0.18
1027.597	13.74
1027.756	14.32
1027.915	5.22
1028.074	5.6
1028.234	24.4
1028.393	82.13
1028.552	17.03
1028.711	-32.57
1028.87	53.26
1029.03	-3.89
1029.189	32.15
1029.348	-28.3
1029.507	-0.21
1029.666	13.16
1029.825	15.48
1029.984	22.65
1030.143	14.71
1030.302	33.5
1030.461	-64.73
1030.62	10.45
1030.779	39.7
1030.938	2.5
1031.097	-34.5
1031.255	46.29
1031.414	52.68
1031.573	46.48
1031.732	-61.24
1031.891	19.55
1032.049	43.58
1032.208	53.46
1032.367	-1.37
1032.525	4.63
1032.684	8.9
1032.843	12.19
1033.001	-38.18
1033.16	164.67
1033.319	52.3
1033.477	9.28
1033.636	-14.35
1033.794	-39.35
1033.953	43.58
1034.111	33.7
1034.27	13.55
1034.428	13.35
1034.587	-10.48
1034.745	28.66
1034.903	23.04
1035.062	17.03
1035.22	-40.9
1035.378	47.06
1035.537	-11.06
1035.695	27.11
1035.853	27.11
1036.011	44.35
1036.17	11.61
1036.328	-20.17
1036.486	35.44
1036.644	13.55
1036.802	-62.21
1036.96	7.15
1037.119	14.32
1037.277	5.6
1037.435	-16.48
1037.593	-19.78
1037.751	8.7
1037.909	42.22
1038.067	42.22
