Data from oakcork_FLMT105791__276__17-34-22-052.txt Node

Date: Mon Mar 20 17:34:22 GMT 2023
User: antho
Spectrometer: FLMT10579
Trigger mode: 0
Integration Time (sec): 1.000000E-1
Scans to average: 10
Electric dark correction enabled: true
Nonlinearity correction enabled: false
Boxcar width: 0
XAxis mode: Wavelengths
Number of Pixels in Spectrum: 3648
>>>>>Begin Spectral Data<<<<<
345.248	-142.74
345.464	-142.74
345.681	-142.74
345.898	-162.12
346.114	-128.21
346.331	-38.89
346.548	15.55
346.764	7.02
346.981	7.41
347.197	-41.41
347.414	32.21
347.631	-32.11
347.847	55.27
348.064	7.22
348.28	44.61
348.497	-40.83
348.713	-16.03
348.93	4.7
349.146	25.24
349.363	-3.25
349.579	15.74
349.796	-1.31
350.012	-12.74
350.229	50.04
350.445	11.29
350.661	-3.83
350.878	10.32
351.094	10.12
351.311	32.02
351.527	12.84
351.743	2.57
351.96	39.19
352.176	32.6
352.392	51.97
352.609	21.94
352.825	14.19
353.041	-5.76
353.257	-5.76
353.474	12.45
353.69	13.22
353.906	9.54
354.122	-20.49
354.339	27.75
354.555	-0.15
354.771	-7.9
354.987	61.85
355.203	44.8
355.42	-1.89
355.636	-8.67
355.852	0.82
356.068	10.7
356.284	-24.94
356.5	42.09
356.716	27.37
356.932	12.84
357.148	44.03
357.364	1.02
357.58	47.52
357.796	27.95
358.012	48.68
358.228	28.14
358.444	-56.91
358.66	37.83
358.876	33.37
359.092	-22.62
359.308	26.79
359.524	23.49
359.74	19.42
359.956	12.45
360.172	27.37
360.388	32.6
360.604	9.54
360.819	86.65
361.035	20.97
361.251	54.88
361.467	-48.39
361.683	25.82
361.898	29.11
362.114	32.21
362.33	14.58
362.546	35.12
362.762	0.44
362.977	26.01
363.193	-20.88
363.409	49.26
363.624	-31.92
363.84	-9.83
364.056	20.39
364.271	26.98
364.487	41.7
364.703	7.41
364.918	-7.7
365.134	12.84
365.35	4.12
365.565	94.98
365.781	-0.34
365.996	27.17
366.212	60.69
366.427	-2.08
366.643	-15.65
366.858	0.82
367.074	8.57
367.289	55.27
367.505	111.26
367.72	-48.19
367.936	9.54
368.151	35.31
368.367	50.62
368.582	18.07
368.798	-3.25
369.013	59.72
369.228	6.64
369.444	24.27
369.659	64.18
369.874	14.97
370.09	75.42
370.305	-27.08
370.52	3.15
370.736	55.65
370.951	29.3
371.166	63.4
371.381	72.32
371.597	41.32
371.812	-13.71
372.027	-18.55
372.242	-8.86
372.458	71.15
372.673	-1.5
372.888	15.16
373.103	45.77
373.318	74.45
373.533	16.9
373.749	33.18
373.964	-30.76
374.179	69.41
374.394	4.12
374.609	53.33
374.824	-29.79
375.039	59.53
375.254	19.62
375.469	69.41
375.684	27.37
375.899	51.39
376.114	45
376.329	45.39
376.544	41.12
376.759	47.9
376.974	22.72
377.189	12.84
377.404	-9.64
377.619	37.64
377.834	-31.53
378.049	-0.73
378.264	-11.38
378.478	23.1
378.693	5.28
378.908	54.1
379.123	-3.44
379.338	62.05
379.553	36.09
379.767	12.45
379.982	42.67
380.197	42.29
380.412	16.32
380.626	31.82
380.841	80.26
381.056	62.63
381.271	79.29
381.485	-4.41
381.7	-15.65
381.915	6.64
382.129	-17.2
382.344	32.79
382.559	35.12
382.773	54.3
382.988	-27.27
383.202	13.22
383.417	3.73
383.632	124.43
383.846	7.22
384.061	35.89
384.275	26.98
384.49	32.21
384.704	46.16
384.919	47.32
385.133	32.21
385.348	60.89
385.562	-2.66
385.777	63.4
385.991	27.75
386.206	-17.2
386.42	10.51
386.634	68.83
386.849	38.41
387.063	33.37
387.277	2.95
387.492	-2.86
387.706	4.31
387.92	10.7
388.135	49.07
388.349	16.13
388.563	23.1
388.778	48.87
388.992	57.59
389.206	48.68
389.42	80.07
389.635	7.22
389.849	33.37
390.063	53.14
390.277	33.37
390.491	85.88
390.706	32.4
390.92	55.65
391.134	15.74
391.348	56.62
391.562	-17.2
391.776	29.5
391.99	34.54
392.205	43.25
392.419	-10.8
392.633	46.55
392.847	51.2
393.061	23.1
393.275	70.96
393.489	-1.7
393.703	66.7
393.917	64.37
394.131	2.18
394.345	51.59
394.559	66.89
394.773	44.8
394.986	68.83
395.2	38.99
395.414	52.94
395.628	-1.7
395.842	23.69
396.056	-1.31
396.27	-12.35
396.484	57.98
396.697	57.01
396.911	71.73
397.125	53.52
397.339	54.69
397.553	47.9
397.766	125.79
397.98	78.32
398.194	69.22
398.408	30.85
398.621	54.3
398.835	72.9
399.049	53.91
399.262	64.18
399.476	93.43
399.69	53.72
399.903	113.97
400.117	57.01
400.331	67.08
400.544	32.02
400.758	150.01
400.971	57.2
401.185	74.25
401.398	-9.45
401.612	92.66
401.826	75.42
402.039	81.03
402.253	46.74
402.466	72.7
402.68	58.56
402.893	40.35
403.106	63.21
403.32	45
403.533	71.93
403.747	51.39
403.96	80.45
404.174	57.4
404.387	39.38
404.6	59.92
404.814	91.11
405.027	66.5
405.24	56.82
405.454	31.05
405.667	69.6
405.88	7.8
406.094	38.6
406.307	94.4
406.52	73.28
406.733	24.65
406.947	33.18
407.16	95.37
407.373	118.62
407.586	25.82
407.799	37.83
408.012	103.12
408.226	60.3
408.439	117.65
408.652	39.38
408.865	67.28
409.078	77.55
409.291	63.21
409.504	24.07
409.717	67.86
409.93	62.05
410.143	53.14
410.357	14.39
410.57	41.7
410.783	76.58
410.996	71.35
411.209	64.37
411.421	106.22
411.634	66.31
411.847	45
412.06	77.35
412.273	73.67
412.486	73.87
412.699	131.41
412.912	87.23
413.125	87.23
413.338	75.03
413.55	88.01
413.763	79.68
413.976	105.64
414.189	45.58
414.402	60.89
414.615	98.47
414.827	51.2
415.04	64.37
415.253	79.68
415.466	130.44
415.678	128.7
415.891	73.09
416.104	78.52
416.316	69.8
416.529	50.42
416.742	106.8
416.954	101.57
417.167	65.34
417.38	54.1
417.592	124.82
417.805	62.24
418.017	33.95
418.23	93.43
418.442	60.69
418.655	74.45
418.868	79.68
419.08	107.97
419.293	145.94
419.505	66.89
419.718	94.6
419.93	102.15
420.142	50.62
420.355	122.11
420.567	127.53
420.78	105.83
420.992	79.48
421.205	136.64
421.417	48.49
421.629	71.73
421.842	48.29
422.054	36.86
422.266	87.23
422.479	144.2
422.691	53.91
422.903	111.65
423.115	62.44
423.328	82
423.54	86.27
423.752	70.18
423.964	68.05
424.177	102.73
424.389	55.27
424.601	157.76
424.813	98.86
425.025	134.12
425.238	99.05
425.45	59.53
425.662	66.31
425.874	331.55
426.086	81.42
426.298	70.96
426.51	107.38
426.722	92.27
426.934	51.2
427.146	101.77
427.358	60.5
427.57	127.15
427.782	73.67
427.994	67.67
428.206	47.9
428.418	37.64
428.63	84.91
428.842	131.6
429.054	93.24
429.266	106.42
429.478	80.26
429.69	81.23
429.902	44.03
430.114	107.58
430.325	94.98
430.537	57.01
430.749	83.94
430.961	26.4
431.173	67.28
431.384	75.22
431.596	36.86
431.808	63.02
432.02	56.24
432.231	107.77
432.443	132.38
432.655	73.48
432.867	58.75
433.078	106.61
433.29	138.97
433.502	101.57
433.713	135.09
433.925	105.25
434.136	115.72
434.348	47.71
434.56	27.17
434.771	149.82
434.983	49.84
435.194	76.97
435.406	75.22
435.617	115.52
435.829	159.11
436.04	112.23
436.252	131.41
436.463	141.1
436.675	137.61
436.886	101.96
437.098	90.33
437.309	173.45
437.521	111.07
437.732	111.45
437.943	100.8
438.155	104.48
438.366	45.19
438.578	120.56
438.789	123.85
439	121.92
439.211	105.25
439.423	130.63
439.634	101.38
439.845	118.43
440.057	109.52
440.268	137.42
440.479	95.37
440.69	114.17
440.902	87.23
441.113	98.28
441.324	114.17
441.535	133.35
441.746	150.78
441.957	82
442.168	111.45
442.38	152.53
442.591	132.77
442.802	94.21
443.013	107
443.224	107.38
443.435	110.1
443.646	96.92
443.857	119.59
444.068	88.59
444.279	99.25
444.49	148.85
444.701	118.04
444.912	190.7
445.123	130.44
445.334	142.65
445.545	112.62
445.756	127.34
445.967	89.95
446.178	122.5
446.388	144.78
446.599	147.3
446.81	127.73
447.021	112.62
447.232	132.96
447.443	169.58
447.653	100.6
447.864	170.74
448.075	115.13
448.286	151.17
448.496	127.34
448.707	165.31
448.918	112.03
449.129	199.41
449.339	117.85
449.55	156.21
449.761	126.18
449.971	161.83
450.182	119.2
450.393	130.63
450.603	133.73
450.814	160.66
451.024	134.9
451.235	165.51
451.446	203.29
451.656	155.05
451.867	140.32
452.077	154.66
452.288	182.17
452.498	192.83
452.709	117.65
452.919	170.74
453.13	124.05
453.34	174.61
453.55	85.3
453.761	158.15
453.971	174.61
454.182	179.07
454.392	150.4
454.602	184.3
454.813	133.93
455.023	169.58
455.233	133.54
455.444	148.46
455.654	104.67
455.864	140.71
456.075	153.11
456.285	112.81
456.495	135.67
456.705	146.33
456.916	170.93
457.126	201.74
457.336	137.03
457.546	99.44
457.756	123.08
457.967	178.3
458.177	130.05
458.387	143.81
458.597	122.88
458.807	124.05
459.017	132.96
459.227	126.37
459.437	134.32
459.647	172.29
459.857	156.6
460.068	144.78
460.278	176.94
460.488	154.46
460.698	216.66
460.908	149.62
461.117	98.86
461.327	89.37
461.537	162.02
461.747	155.63
461.957	172.87
462.167	221.89
462.377	191.08
462.587	142.84
462.797	191.47
463.007	166.09
463.216	183.72
463.426	195.15
463.636	208.91
463.846	107.77
464.056	118.82
464.265	196.7
464.475	129.47
464.685	136.83
464.895	168.61
465.104	156.4
465.314	168.41
465.524	140.13
465.733	143.23
465.943	211.04
466.153	238.36
466.362	196.7
466.572	182.36
466.782	174.23
466.991	170.74
467.201	220.34
467.41	127.34
467.62	189.73
467.829	156.4
468.039	180.81
468.249	135.09
468.458	149.62
468.668	206.97
468.877	157.18
469.086	239.52
469.296	179.65
469.505	141.29
469.715	250.56
469.924	211.43
470.134	203.68
470.343	221.7
470.552	172.1
470.762	185.46
470.971	145.36
471.18	188.37
471.39	152.53
471.599	135.28
471.808	210.07
472.018	144.97
472.227	207.36
472.436	224.41
472.645	177.52
472.855	150.78
473.064	223.05
473.273	181.59
473.482	215.11
473.691	223.63
473.901	205.23
474.11	183.33
474.319	262.19
474.528	191.86
474.737	253.08
474.946	231.19
475.155	221.89
475.364	237.58
475.573	199.22
475.783	255.41
475.992	238.75
476.201	268.19
476.41	179.85
476.619	192.44
476.828	184.88
477.037	202.71
477.245	202.32
477.454	205.81
477.663	224.99
477.872	181.59
478.081	256.96
478.29	188.95
478.499	285.63
478.708	227.12
478.917	294.35
479.125	218.79
479.334	238.75
479.543	225.96
479.752	209.1
479.961	237.58
480.169	248.63
480.378	202.13
480.587	328.26
480.796	247.66
481.004	217.82
481.213	255.21
481.422	243.01
481.63	227.12
481.839	244.75
482.048	278.66
482.256	242.81
482.465	228.09
482.674	250.76
482.882	274.39
483.091	311.79
483.299	244.17
483.508	268.58
483.716	248.24
483.925	264.32
484.134	247.85
484.342	244.17
484.551	287.96
484.759	270.33
484.967	245.72
485.176	291.06
485.384	272.26
485.593	285.05
485.801	279.24
486.01	265.87
486.218	279.43
486.426	236.03
486.635	248.04
486.843	221.11
487.051	259.28
487.26	274.78
487.468	265.29
487.676	290.28
487.885	215.88
488.093	273.62
488.301	267.81
488.509	279.43
488.717	275.36
488.926	279.24
489.134	288.73
489.342	289.51
489.55	263.54
489.758	275.94
489.967	244.17
490.175	361.39
490.383	258.7
490.591	306.75
490.799	239.33
491.007	324.58
491.215	291.83
491.423	305.2
491.631	265.48
491.839	267.03
492.047	301.91
492.255	259.67
492.463	247.66
492.671	289.31
492.879	334.07
493.087	293.77
493.295	306.75
493.503	294.74
493.711	301.13
493.919	344.72
494.127	329.22
494.334	315.08
494.542	281.76
494.75	298.61
494.958	291.64
495.166	330.77
495.374	320.89
495.581	304.62
495.789	327.29
495.997	353.44
496.205	315.66
496.412	322.83
496.62	288.93
496.828	349.96
497.035	302.29
497.243	333.1
497.451	321.67
497.658	323.61
497.866	315.86
498.074	374.95
498.281	283.31
498.489	368.17
498.696	327.87
498.904	320.51
499.112	297.06
499.319	395.29
499.527	295.13
499.734	383.86
499.942	300.16
500.149	319.15
500.357	335.23
500.564	272.07
500.771	359.45
500.979	312.18
501.186	288.15
501.394	362.16
501.601	332.13
501.808	350.73
502.016	321.67
502.223	312.37
502.43	340.07
502.638	326.51
502.845	275.94
503.052	376.31
503.26	329.22
503.467	371.66
503.674	350.54
503.881	346.08
504.089	397.81
504.296	355.77
504.503	314.89
504.71	343.37
504.917	324.58
505.125	331.94
505.332	325.54
505.539	360.22
505.746	391.22
505.953	366.23
506.16	367.97
506.367	401.3
506.574	385.8
506.781	385.22
506.988	313.73
507.195	357.51
507.402	343.76
507.609	381.54
507.816	370.11
508.023	359.64
508.23	351.7
508.437	335.81
508.644	378.82
508.851	404.4
509.058	396.65
509.265	367.59
509.472	395.49
509.679	461.17
509.885	373.59
510.092	373.98
510.299	367.01
510.506	356.54
510.713	385.99
510.92	372.43
511.126	393.16
511.333	428.04
511.54	405.76
511.746	438.3
511.953	432.49
512.16	429
512.367	383.47
512.573	377.86
512.78	380.18
512.987	379.6
513.193	379.6
513.4	329.03
513.606	400.33
513.813	403.04
514.02	389.48
514.226	477.25
514.433	419.51
514.639	366.42
514.846	410.02
515.052	393.74
515.259	416.6
515.465	403.04
515.672	400.14
515.878	476.47
516.085	422.03
516.291	423.39
516.497	367.59
516.704	388.32
516.91	395.49
517.117	363.91
517.323	341.43
517.529	392.19
517.736	376.5
517.942	387.54
518.148	362.55
518.354	425.32
518.561	393.36
518.767	427.65
518.973	457.87
519.179	431.14
519.386	398.2
519.592	379.21
519.798	370.3
520.004	442.95
520.21	409.05
520.417	462.14
520.623	455.74
520.829	464.65
521.035	465.82
521.241	449.93
521.447	466.59
521.653	553.2
521.859	439.47
522.065	455.16
522.271	528.01
522.477	503.79
522.683	507.86
522.889	473.57
523.095	459.62
523.301	501.08
523.507	442.57
523.713	483.84
523.919	423.19
524.125	494.88
524.331	473.18
524.537	530.72
524.742	539.44
524.948	515.8
525.154	535.95
525.36	615.58
525.566	541.18
525.772	537.12
525.977	486.74
526.183	521.81
526.389	551.84
526.595	502.43
526.8	519.29
527.006	489.84
527.212	473.95
527.417	438.89
527.623	447.22
527.829	516
528.034	513.48
528.24	527.23
528.446	456.13
528.651	562.3
528.857	521.42
529.062	579.55
529.268	518.9
529.473	540.6
529.679	500.5
529.884	610.55
530.09	548.16
530.295	604.54
530.501	570.63
530.706	566.57
530.912	534.4
531.117	532.66
531.323	578.77
531.528	565.02
531.733	593.11
531.939	520.65
532.144	576.64
532.35	558.62
532.555	591.95
532.76	588.07
532.966	600.08
533.171	601.44
533.376	555.33
533.581	545.06
533.787	574.7
533.992	588.07
534.197	641.74
534.402	548.16
534.607	588.07
534.813	657.43
535.018	570.83
535.223	569.08
535.428	596.01
535.633	650.65
535.838	591.56
536.043	606.09
536.249	692.11
536.454	590.59
536.659	628.95
536.864	578.58
537.069	579.74
537.274	598.15
537.479	622.36
537.684	624.88
537.889	553.97
538.094	693.66
538.299	638.64
538.504	636.12
538.708	606.67
538.913	629.53
539.118	599.11
539.323	626.82
539.528	599.31
539.733	606.86
539.938	616.75
540.142	630.5
540.347	639.41
540.552	595.63
540.757	627.4
540.962	612.87
541.166	572.77
541.371	561.53
541.576	609.19
541.781	521.03
541.985	627.79
542.19	625.27
542.395	634.38
542.599	683.98
542.804	658.6
543.008	653.75
543.213	575.67
543.418	595.05
543.622	665.96
543.827	612.29
544.031	662.66
544.236	655.3
544.44	603.76
544.645	716.33
544.849	616.94
545.054	651.62
545.258	680.88
545.463	671.38
545.667	636.31
545.872	639.8
546.076	661.31
546.281	616.36
546.485	603.76
546.689	684.17
546.894	672.16
547.098	664.6
547.302	602.21
547.507	645.23
547.711	604.35
547.915	682.43
548.119	640.38
548.324	644.26
548.528	680.29
548.732	636.9
548.936	655.69
549.141	700.06
549.345	633.6
549.549	669.06
549.753	650.07
549.957	731.06
550.161	709.74
550.366	636.7
550.57	609.96
550.774	652.01
550.978	663.83
551.182	688.24
551.386	638.25
551.59	638.64
551.794	629.92
551.998	658.98
552.202	630.31
552.406	603.38
552.61	675.26
552.814	639.8
553.018	691.53
553.222	632.05
553.426	654.72
553.63	723.11
553.833	657.82
554.037	603.18
554.241	687.85
554.445	639.61
554.649	635.54
554.853	648.52
555.056	671.77
555.26	673.13
555.464	663.05
555.668	660.34
555.871	674.48
556.075	690.18
556.279	638.06
556.483	609.77
556.686	629.53
556.89	608.22
557.094	676.61
557.297	603.96
557.501	695.79
557.704	583.03
557.908	699.67
558.112	629.53
558.315	691.53
558.519	649.49
558.722	678.16
558.926	630.89
559.129	636.9
559.333	582.65
559.536	572.77
559.74	589.04
559.943	634.57
560.147	572.96
560.35	603.96
560.553	628.18
560.757	579.93
560.96	646.78
561.164	590.78
561.367	683.59
561.57	606.28
561.774	636.31
561.977	607.25
562.18	593.5
562.384	667.7
562.587	582.07
562.79	598.73
562.993	616.36
563.197	641.55
563.4	653.95
563.603	664.8
563.806	681.07
564.009	593.3
564.212	629.92
564.416	570.44
564.619	638.45
564.822	568.7
565.025	643.1
565.228	625.08
565.431	603.18
565.634	554.36
565.837	581.48
566.04	548.16
566.243	588.46
566.446	501.47
566.649	612.29
566.852	517.35
567.055	571.99
567.258	579.93
567.461	640.77
567.664	625.66
567.867	527.23
568.07	605.31
568.273	561.53
568.475	603.18
568.678	567.73
568.881	545.83
569.084	578.38
569.287	490.23
569.489	515.61
569.692	584.2
569.895	573.93
570.098	512.7
570.3	511.35
570.503	438.3
570.706	499.53
570.909	506.31
571.111	472.99
571.314	487.32
571.516	501.08
571.719	517.55
571.922	519.87
572.124	515.61
572.327	513.09
572.529	438.89
572.732	483.45
572.935	509.99
573.137	546.8
573.34	480.74
573.542	503.02
573.745	525.1
573.947	541.38
574.15	496.04
574.352	472.4
574.554	542.35
574.757	485.19
574.959	474.34
575.162	459.62
575.364	472.02
575.566	593.88
575.769	487.71
575.971	495.07
576.173	415.44
576.376	483.25
576.578	509.41
576.78	554.75
576.982	427.45
577.185	469.69
577.387	406.92
577.589	446.25
577.791	496.04
577.993	485.97
578.196	467.37
578.398	487.32
578.6	505.73
578.802	433.27
579.004	458.65
579.206	414.67
579.408	472.4
579.61	450.51
579.812	492.94
580.014	440.82
580.216	440.44
580.418	459.42
580.62	431.91
580.822	393.55
581.024	451.09
581.226	467.95
581.428	457.29
581.63	498.17
581.832	450.51
582.034	482.29
582.236	453.03
582.438	484.03
582.64	505.53
582.841	511.73
583.043	547.97
583.245	489.07
583.447	480.15
583.649	469.69
583.85	445.28
584.052	499.53
584.254	437.92
584.456	503.6
584.657	422.03
584.859	459.04
585.061	461.94
585.262	427.45
585.464	412.15
585.666	517.35
585.867	423.77
586.069	496.24
586.27	464.65
586.472	479.19
586.674	433.85
586.875	414.09
587.077	427.45
587.278	452.84
587.48	453.42
587.681	544.67
587.883	457.1
588.084	413.89
588.285	439.85
588.487	432.49
588.688	444.5
588.89	399.36
589.091	403.43
589.292	416.41
589.494	396.65
589.695	384.06
589.896	371.66
590.098	342.98
590.299	428.04
590.5	366.23
590.702	391.42
590.903	404.59
591.104	452.25
591.305	402.85
591.507	470.66
591.708	430.94
591.909	399.75
592.11	484.61
592.311	433.27
592.512	405.37
592.714	367.2
592.915	383.47
593.116	400.33
593.317	414.09
593.518	391.42
593.719	369.14
593.92	418.54
594.121	454.97
594.322	438.11
594.523	408.27
594.724	376.5
594.925	394.13
595.126	416.99
595.327	451.67
595.528	418.93
595.729	425.32
595.929	395.1
596.13	408.08
596.331	406.53
596.532	406.53
596.733	422.8
596.934	440.82
597.135	422.03
597.335	416.41
597.536	391.03
597.737	416.99
597.938	406.34
598.138	424.16
598.339	406.34
598.54	422.03
598.74	401.11
598.941	425.32
599.142	429.97
599.342	422.22
599.543	405.95
599.744	382.89
599.944	427.84
600.145	386.96
600.345	423.19
600.546	453.42
600.746	445.86
600.947	493.14
601.147	442.57
601.348	443.92
601.548	407.69
601.749	410.6
601.949	348.99
602.15	376.31
602.35	397.23
602.551	437.72
602.751	403.24
602.951	393.16
603.152	355.96
603.352	417.38
603.552	395.49
603.753	428.42
603.953	409.24
604.153	405.17
604.354	391.22
604.554	369.33
604.754	400.33
604.954	366.62
605.155	403.43
605.355	399.75
605.555	432.49
605.755	444.89
605.955	410.6
606.155	441.21
606.356	382.12
606.556	424.74
606.756	405.95
606.956	352.28
607.156	462.91
607.356	353.64
607.556	406.53
607.756	440.05
607.956	447.99
608.156	411.18
608.356	346.86
608.556	426.68
608.756	404.59
608.956	364.29
609.156	405.56
609.356	384.64
609.556	380.96
609.755	399.36
609.955	366.62
610.155	390.64
610.355	384.83
610.555	394.71
610.755	430.55
610.954	322.25
611.154	401.11
611.354	425.13
611.554	376.11
611.753	348.41
611.953	333.68
612.153	422.42
612.352	398.2
612.552	343.76
612.752	319.54
612.951	378.63
613.151	376.69
613.351	369.33
613.55	366.81
613.75	389.29
613.949	398.78
614.149	388.71
614.348	365.65
614.548	339.11
614.747	306.36
614.947	350.15
615.146	320.12
615.346	372.62
615.545	367.97
615.745	390.64
615.944	410.79
616.144	374.37
616.343	404.59
616.542	352.47
616.742	370.69
616.941	362.36
617.14	329.61
617.34	352.86
617.539	343.76
617.738	306.36
617.938	414.47
618.137	366.04
618.336	317.02
618.535	365.26
618.734	355.38
618.934	361.19
619.133	330.39
619.332	352.67
619.531	330.58
619.73	349.96
619.929	389.09
620.128	360.03
620.328	396.65
620.527	345.11
620.726	341.04
620.925	350.54
621.124	343.95
621.323	321.28
621.522	355.38
621.721	317.02
621.92	287.57
622.119	359.26
622.318	307.72
622.517	328.06
622.715	340.07
622.914	276.72
623.113	311.01
623.312	272.46
623.511	369.72
623.71	332.13
623.909	317.79
624.107	353.64
624.306	288.34
624.505	306.94
624.704	304.43
624.902	336.97
625.101	345.31
625.3	352.67
625.499	310.04
625.697	290.67
625.896	292.8
626.095	335.04
626.293	283.31
626.492	297.26
626.69	312.76
626.889	271.88
627.088	345.89
627.286	276.72
627.485	289.89
627.683	268.78
627.882	334.07
628.08	250.56
628.279	302.68
628.477	371.46
628.676	295.71
628.874	332.13
629.073	302.29
629.271	263.74
629.469	331.74
629.668	286.6
629.866	292.8
630.065	284.86
630.263	319.15
630.461	273.43
630.66	279.82
630.858	319.15
631.056	361.77
631.254	367.97
631.453	299
631.651	333.29
631.849	330.39
632.047	311.59
632.245	301.91
632.444	303.26
632.642	327.68
632.84	330.39
633.038	314.5
633.236	280.21
633.434	282.73
633.632	263.74
633.83	282.53
634.028	316.05
634.227	311.98
634.425	373.98
634.623	307.33
634.821	304.23
635.019	276.33
635.216	295.32
635.414	314.69
635.612	286.21
635.81	309.66
636.008	342.79
636.206	309.66
636.404	331.94
636.602	259.67
636.8	298.81
636.997	350.92
637.195	324.96
637.393	303.46
637.591	331.55
637.789	333.68
637.986	299.97
638.184	319.34
638.382	302.29
638.58	314.5
638.777	392.19
638.975	296.68
639.173	315.08
639.37	320.12
639.568	333.29
639.765	336.78
639.963	301.71
640.161	356.16
640.358	328.84
640.556	278.46
640.753	302.88
640.951	278.85
641.148	306.56
641.346	295.32
641.543	310.24
641.741	320.89
641.938	290.28
642.136	305.59
642.333	249.98
642.531	336.97
642.728	329.03
642.925	285.05
643.123	254.63
643.32	296.29
643.517	288.93
643.715	312.37
643.912	257.15
644.109	323.99
644.306	320.31
644.504	269.36
644.701	292.03
644.898	326.32
645.095	279.63
645.293	259.28
645.49	309.85
645.687	278.08
645.884	345.69
646.081	258.89
646.278	270.13
646.475	256.18
646.672	267.03
646.87	286.6
647.067	283.89
647.264	302.88
647.461	240.1
647.658	257.93
647.855	319.73
648.052	255.79
648.249	224.41
648.446	262.96
648.642	237
648.839	250.18
649.036	266.06
649.233	218.4
649.43	213.75
649.627	205.61
649.824	239.33
650.021	254.63
650.217	219.76
650.414	198.64
650.611	272.26
650.808	258.12
651.004	263.16
651.201	279.24
651.398	304.81
651.595	265.29
651.791	255.02
651.988	289.89
652.185	237.39
652.381	251.34
652.578	214.91
652.775	254.44
652.971	233.9
653.168	247.08
653.364	280.21
653.561	207.75
653.757	275.94
653.954	220.92
654.15	248.82
654.347	302.88
654.543	255.21
654.74	208.13
654.936	207.16
655.133	252.69
655.329	219.95
655.525	246.88
655.722	259.09
655.918	218.79
656.115	289.31
656.311	212.98
656.507	178.3
656.704	180.43
656.9	211.43
657.096	188.37
657.292	192.25
657.489	277.49
657.685	237.39
657.881	208.33
658.077	219.56
658.273	220.92
658.47	272.07
658.666	228.86
658.862	270.33
659.058	233.71
659.254	269.74
659.45	203.68
659.646	259.48
659.842	228.48
660.038	257.93
660.234	184.11
660.43	252.89
660.626	289.51
660.822	267.23
661.018	284.47
661.214	230.22
661.41	210.46
661.606	248.24
661.802	261.41
661.998	221.11
662.194	209.1
662.39	223.83
662.586	231.19
662.781	272.26
662.977	247.27
663.173	262.58
663.369	225.96
663.564	259.48
663.76	274.01
663.956	216.85
664.152	295.13
664.347	186.05
664.543	249.79
664.739	227.51
664.934	181.98
665.13	157.56
665.326	265.29
665.521	239.13
665.717	219.18
665.912	210.26
666.108	148.65
666.304	194.76
666.499	223.63
666.695	155.05
666.89	198.45
667.086	274.78
667.281	240.88
667.477	285.63
667.672	239.71
667.867	216.85
668.063	234.29
668.258	184.3
668.454	203.87
668.649	277.49
668.844	215.11
669.04	245.53
669.235	203.29
669.43	217.05
669.626	161.05
669.821	203.29
670.016	191.47
670.211	187.6
670.407	183.53
670.602	207.36
670.797	230.41
670.992	231.19
671.187	190.5
671.382	229.45
671.578	206.39
671.773	230.61
671.968	186.63
672.163	216.27
672.358	241.26
672.553	193.8
672.748	205.23
672.943	269.16
673.138	221.89
673.333	258.7
673.528	175.39
673.723	227.9
673.918	170.16
674.113	193.02
674.308	280.98
674.503	257.93
674.698	218.21
674.892	261.99
675.087	263.35
675.282	228.28
675.477	199.41
675.672	235.06
675.867	198.06
676.061	162.99
676.256	176.55
676.451	192.44
676.646	197.09
676.84	183.53
677.035	150.98
677.23	176.75
677.424	243.2
677.619	255.41
677.814	222.08
678.008	241.65
678.203	173.06
678.397	192.44
678.592	231.77
678.787	240.88
678.981	191.86
679.176	208.13
679.37	219.76
679.565	165.51
679.759	200.58
679.954	230.61
680.148	254.24
680.342	257.34
680.537	228.67
680.731	196.31
680.926	220.15
681.12	248.43
681.314	196.12
681.509	156.4
681.703	200.77
681.897	221.11
682.092	177.91
682.286	186.43
682.48	240.88
682.674	257.54
682.869	214.14
683.063	190.7
683.257	279.63
683.451	208.91
683.645	238.55
683.839	204.65
684.034	240.1
684.228	221.31
684.422	168.22
684.616	176.55
684.81	229.45
685.004	200.58
685.198	204.65
685.392	237.58
685.586	186.63
685.78	216.08
685.974	228.67
686.168	252.11
686.362	287.76
686.556	184.11
686.75	173.26
686.944	187.79
687.138	223.44
687.331	173.84
687.525	176.36
687.719	136.64
687.913	188.56
688.107	188.18
688.301	164.54
688.494	190.5
688.688	174.81
688.882	142.65
689.076	149.23
689.269	141.29
689.463	248.63
689.657	162.41
689.85	196.9
690.044	168.41
690.238	165.51
690.431	174.42
690.625	163.18
690.818	198.06
691.012	221.89
691.205	187.6
691.399	144.78
691.593	215.69
691.786	219.56
691.98	229.45
692.173	248.82
692.366	240.88
692.56	240.3
692.753	259.67
692.947	175.78
693.14	266.45
693.333	247.08
693.527	158.73
693.72	232.35
693.914	196.12
694.107	215.69
694.3	217.05
694.493	223.25
694.687	252.69
694.88	167.64
695.073	256.57
695.266	261.8
695.46	200.77
695.653	281.56
695.846	279.82
696.039	192.05
696.232	229.64
696.425	243.2
696.618	251.92
696.812	226.73
697.005	281.37
697.198	323.22
697.391	264.9
697.584	289.31
697.777	342.21
697.97	281.76
698.163	316.05
698.356	284.08
698.549	361.77
698.742	317.02
698.935	300.55
699.127	317.21
699.32	275.94
699.513	291.25
699.706	311.4
699.899	310.63
700.092	290.48
700.285	349.37
700.477	277.49
700.67	333.1
700.863	357.12
701.056	424.16
701.248	390.84
701.441	372.43
701.634	345.89
701.826	433.07
702.019	308.88
702.212	350.15
702.404	374.37
702.597	342.98
702.79	352.47
702.982	376.5
703.175	418.74
703.367	418.15
703.56	389.48
703.752	461.17
703.945	416.22
704.137	438.11
704.33	442.95
704.522	452.64
704.715	454.77
704.907	448.38
705.1	475.89
705.292	466.4
705.484	447.22
705.677	502.05
705.869	451.48
706.061	534.4
706.254	542.93
706.446	488.29
706.638	493.52
706.831	529.37
707.023	495.65
707.215	602.41
707.407	563.27
707.599	555.91
707.792	556.3
707.984	557.07
708.176	584.39
708.368	532.27
708.56	558.04
708.752	566.95
708.944	555.72
709.136	589.43
709.329	534.79
709.521	646.78
709.713	612.29
709.905	631.08
710.097	657.05
710.289	595.63
710.481	642.71
710.672	625.46
710.864	631.47
711.056	678.94
711.248	656.46
711.44	667.7
711.632	660.92
711.824	685.33
712.016	745.59
712.207	721.18
712.399	743.84
712.591	771.94
712.783	701.99
712.975	740.55
713.166	699.67
713.358	701.41
713.55	787.44
713.741	776.2
713.933	754.89
714.125	727.96
714.316	732.61
714.508	787.82
714.7	817.27
714.891	797.32
715.083	865.9
715.274	826.77
715.466	801.39
715.657	824.83
715.849	742.68
716.04	834.13
716.232	729.7
716.423	846.92
716.615	772.71
716.806	781.62
716.998	785.31
717.189	741.91
717.381	697.73
717.572	683.01
717.763	730.09
717.955	695.41
718.146	688.24
718.337	675.26
718.528	655.88
718.72	616.94
718.911	676.03
719.102	652.59
719.293	683.78
719.485	671.38
719.676	676.81
719.867	641.74
720.058	688.63
720.249	674.87
720.44	695.41
720.632	716.14
720.823	750.04
721.014	807.2
721.205	794.02
721.396	815.92
721.587	884.12
721.778	849.82
721.969	902.72
722.16	935.46
722.351	893.42
722.542	1008.5
722.733	1024.58
722.924	928.49
723.115	974.6
723.305	1010.83
723.496	995.72
723.687	923.45
723.878	928.29
724.069	942.63
724.26	965.88
724.45	922.29
724.641	919.77
724.832	966.85
725.023	947.47
725.213	915.12
725.404	909.5
725.595	910.66
725.785	901.17
725.976	953.67
726.167	948.63
726.357	925.58
726.548	1009.67
726.739	960.26
726.929	1031.56
727.12	1021.29
727.31	1053.06
727.501	1025.94
727.691	1008.89
727.882	1022.65
728.072	1081.55
728.263	1046.28
728.453	1087.16
728.644	1072.05
728.834	1098.21
729.024	1063.14
729.215	1068.37
729.405	1115.64
729.596	1154.39
729.786	1131.14
729.976	1159.82
730.167	1180.74
730.357	1119.91
730.547	1110.61
730.737	1158.08
730.928	1208.64
731.118	1195.66
731.308	1162.53
731.498	1202.64
731.688	1224.34
731.879	1240.81
732.069	1266.19
732.259	1272
732.449	1289.44
732.639	1349.11
732.829	1353.37
733.019	1355.12
733.209	1437.65
733.399	1435.52
733.589	1458.58
733.779	1459.16
733.969	1442.3
734.159	1500.43
734.349	1556.61
734.539	1593.43
734.729	1527.16
734.919	1567.27
735.109	1604.66
735.299	1545.96
735.488	1571.92
735.678	1585.48
735.868	1575.21
736.058	1557
736.248	1564.75
736.437	1552.74
736.627	1549.83
736.817	1670.15
737.007	1619.39
737.196	1676.54
737.386	1588.58
737.576	1606.21
737.765	1688.36
737.955	1644.77
738.144	1749.78
738.334	1693.01
738.524	1661.82
738.713	1677.12
738.903	1663.17
739.092	1760.24
739.282	1739.51
739.471	1740.87
739.661	1747.26
739.85	1743.58
740.04	1747.07
740.229	1778.07
740.419	1769.54
740.608	1790.66
740.797	1799.38
740.987	1827.08
741.176	1834.06
741.365	1769.74
741.555	1778.07
741.744	1840.26
741.933	1812.55
742.123	1852.66
742.312	1879.2
742.501	1871.26
742.69	1882.11
742.88	1803.64
743.069	1916.21
743.258	1863.12
743.447	1915.43
743.636	1901.68
743.825	1891.22
744.014	1894.32
744.204	1903.03
744.393	1849.75
744.582	1918.92
744.771	1967.55
744.96	1930.93
745.149	1943.53
745.338	1917.37
745.527	1938.88
745.716	1926.09
745.905	1910.4
746.094	1941.2
746.283	1973.75
746.471	1972.2
746.66	1997
746.849	1987.9
747.038	2001.84
747.227	1963.48
747.416	1970.85
747.604	1957.48
747.793	1953.99
747.982	1977.63
748.171	1950.89
748.359	2004.75
748.548	1961.93
748.737	1974.91
748.926	1971.81
749.114	1914.08
749.303	1971.04
749.491	1966.39
749.68	1943.14
749.869	1987.12
750.057	1965.81
750.246	1937.13
750.434	1918.92
750.623	1976.08
750.811	1931.71
751	1962.9
751.188	1926.09
751.377	2002.81
751.565	1946.43
751.754	1906.71
751.942	1916.4
752.131	1960.58
752.319	1926.67
752.507	1907.68
752.696	1972.98
752.884	1987.12
753.072	1969.68
753.261	1944.3
753.449	1948.76
753.637	1918.53
753.825	2022.38
754.014	1938.49
754.202	1984.21
754.39	2000.49
754.578	1971.23
754.766	1927.25
754.955	1913.88
755.143	2021.03
755.331	1908.07
755.519	1900.9
755.707	1962.9
755.895	1910.4
756.083	1968.13
756.271	1888.5
756.459	1929.58
756.647	1962.51
756.835	1925.51
757.023	1891.41
757.211	1858.86
757.399	1881.72
757.587	1896.45
757.775	1849.95
757.963	1864.09
758.151	1894.7
758.339	1849.75
758.526	1831.54
758.714	1888.89
758.902	1828.25
759.09	1788.92
759.278	1647.87
759.465	1520.77
759.653	1280.91
759.841	1192.37
760.028	1002.88
760.216	867.07
760.404	860.67
760.591	682.23
760.779	593.5
760.967	479.57
761.154	421.06
761.342	455.94
761.529	423.97
761.717	452.64
761.905	407.31
762.092	493.52
762.28	430.36
762.467	447.02
762.655	389.48
762.842	445.28
763.029	440.82
763.217	438.3
763.404	420.09
763.592	472.21
763.779	408.86
763.966	438.11
764.154	488.1
764.341	538.67
764.528	494.1
764.716	571.41
764.903	571.99
765.09	581.48
765.277	653.75
765.465	742.1
765.652	765.16
765.839	823.67
766.026	874.04
766.213	900
766.4	963.17
766.588	1082.51
766.775	1097.24
766.962	1165.05
767.149	1171.06
767.336	1300.48
767.523	1241.19
767.71	1334.19
767.897	1378.75
768.084	1444.82
768.271	1448.89
768.458	1515.15
768.645	1525.42
768.832	1499.65
769.019	1483.38
769.206	1546.35
769.392	1599.82
769.579	1681
769.766	1651.94
769.953	1595.94
770.14	1649.03
770.327	1660.07
770.513	1677.9
770.7	1740.29
770.887	1639.92
771.073	1693.4
771.26	1701.73
771.447	1652.91
771.634	1686.62
771.82	1734.86
772.007	1642.25
772.193	1673.83
772.38	1704.64
772.567	1650.77
772.753	1706.57
772.94	1744.94
773.126	1744.55
773.313	1729.44
773.499	1718.78
773.686	1724.01
773.872	1655.62
774.059	1722.85
774.245	1674.22
774.432	1706.96
774.618	1669.96
774.804	1697.47
774.991	1637.99
775.177	1728.66
775.363	1709.48
775.55	1688.56
775.736	1640.12
775.922	1645.54
776.109	1667.63
776.295	1651.55
776.481	1706.57
776.667	1707.35
776.853	1705.99
777.04	1624.81
777.226	1635.66
777.412	1703.86
777.598	1626.17
777.784	1606.99
777.97	1631.59
778.156	1651.36
778.342	1653.68
778.528	1603.69
778.715	1599.43
778.901	1618.23
779.087	1639.54
779.272	1606.41
779.458	1571.73
779.644	1598.66
779.83	1576.18
780.016	1680.61
780.202	1590.33
780.388	1565.72
780.574	1537.82
780.76	1581.99
780.946	1604.47
781.131	1601.18
781.317	1610.86
781.503	1540.53
781.689	1571.53
781.874	1676.74
782.06	1586.64
782.246	1568.63
782.432	1566.11
782.617	1598.46
782.803	1623.26
782.989	1509.53
783.174	1578.12
783.36	1484.93
783.545	1556.23
783.731	1576.57
783.916	1465.94
784.102	1561.26
784.288	1501.4
784.473	1557
784.659	1507.98
784.844	1568.04
785.029	1491.51
785.215	1485.9
785.4	1480.08
785.586	1575.21
785.771	1492.87
785.956	1518.64
786.142	1508.95
786.327	1444.05
786.512	1479.31
786.698	1475.82
786.883	1441.14
787.068	1422.15
787.254	1450.63
787.439	1400.07
787.624	1444.43
787.809	1419.05
787.994	1435.33
788.18	1477.56
788.365	1403.17
788.55	1420.22
788.735	1404.13
788.92	1439.2
789.105	1396.19
789.29	1410.92
789.475	1386.89
789.66	1390.38
789.845	1356.67
790.03	1338.26
790.215	1431.07
790.4	1388.83
790.585	1424.28
790.77	1387.86
790.955	1303.77
791.14	1354.15
791.325	1411.69
791.51	1308.23
791.695	1338.26
791.879	1348.72
792.064	1285.76
792.249	1419.25
792.434	1348.92
792.618	1344.27
792.803	1376.24
792.988	1332.64
793.173	1360.93
793.357	1375.85
793.542	1320.63
793.727	1327.6
793.911	1377.59
794.096	1320.82
794.281	1384.95
794.465	1424.87
794.65	1356.67
794.834	1402.97
795.019	1434.75
795.203	1413.63
795.388	1403.36
795.572	1404.52
795.757	1375.65
795.941	1399.1
796.126	1403.17
796.31	1322.95
796.494	1340.59
796.679	1367.13
796.863	1338.84
797.048	1392.7
797.232	1362.48
797.416	1361.32
797.601	1365.97
797.785	1432.23
797.969	1416.92
798.153	1346.4
798.338	1418.28
798.522	1391.93
798.706	1368.49
798.89	1411.5
799.074	1508.37
799.258	1425.25
799.443	1352.79
799.627	1396.97
799.811	1470.98
799.995	1376.82
800.179	1383.21
800.363	1353.57
800.547	1420.99
800.731	1414.02
800.915	1322.95
801.099	1361.9
801.283	1368.29
801.467	1369.84
801.651	1328.38
801.835	1427.19
802.019	1363.84
802.202	1383.98
802.386	1356.28
802.57	1352.99
802.754	1348.14
802.938	1363.06
803.121	1311.14
803.305	1426.61
803.489	1344.85
803.673	1367.32
803.856	1376.82
804.04	1364.42
804.224	1383.6
804.407	1371
804.591	1330.32
804.775	1368.87
804.958	1378.37
805.142	1423.12
805.326	1406.27
805.509	1393.09
805.693	1420.02
805.876	1419.44
806.06	1397.55
806.243	1395.22
806.427	1453.15
806.61	1439.2
806.794	1373.52
806.977	1413.82
807.16	1371.39
807.344	1379.72
807.527	1388.83
807.71	1357.44
807.894	1397.55
808.077	1437.07
808.26	1349.3
808.444	1365.58
808.627	1391.93
808.81	1358.22
808.993	1308.62
809.177	1272.77
809.36	1337.87
809.543	1356.28
809.726	1264.06
809.909	1306.68
810.092	1285.95
810.276	1290.02
810.459	1310.55
810.642	1312.3
810.825	1267.16
811.008	1246.04
811.191	1170.67
811.374	1231.12
811.557	1245.26
811.74	1315.59
811.923	1228.41
812.106	1194.5
812.289	1131.92
812.472	1180.16
812.654	1226.27
812.837	1178.42
813.02	1129.98
813.203	1129.4
813.386	1041.44
813.569	1061.01
813.751	1040.66
813.934	1075.54
814.117	1027.88
814.3	1006.37
814.482	993.2
814.665	993.58
814.848	956
815.03	915.12
815.213	945.34
815.396	912.99
815.578	896.71
815.761	892.06
815.943	941.27
816.126	893.22
816.309	908.72
816.491	813.98
816.674	773.87
816.856	831.22
817.039	829.09
817.221	884.31
817.403	848.08
817.586	809.52
817.768	864.55
817.951	795.57
818.133	793.06
818.315	814.37
818.498	833.36
818.68	914.73
818.862	884.31
819.045	864.74
819.227	880.63
819.409	845.95
819.591	875.98
819.774	870.94
819.956	824.25
820.138	923.45
820.32	881.21
820.502	902.72
820.684	954.06
820.866	923.84
821.048	974.21
821.231	984.67
821.413	974.79
821.595	960.07
821.777	935.46
821.959	953.48
822.141	1015.09
822.323	888.77
822.505	863.97
822.686	826.57
822.868	839.17
823.05	739
823.232	754.89
823.414	697.93
823.596	775.04
823.778	744.43
823.96	759.15
824.141	776.39
824.323	751.98
824.505	836.84
824.687	854.47
824.868	860.67
825.05	936.04
825.232	959.1
825.413	977.89
825.595	951.15
825.777	903.69
825.958	928.87
826.14	929.65
826.321	937.59
826.503	953.67
826.685	949.6
826.866	942.82
827.048	959.29
827.229	911.82
827.411	891.09
827.592	863.39
827.773	875.79
827.955	856.02
828.136	884.89
828.318	824.44
828.499	846.14
828.68	814.76
828.862	868.62
829.043	884.31
829.224	856.02
829.406	813.21
829.587	814.95
829.768	837.81
829.949	817.47
830.131	838.78
830.312	906.2
830.493	791.7
830.674	860.09
830.855	850.79
831.036	827.93
831.218	890.7
831.399	893.8
831.58	848.47
831.761	826.19
831.942	872.49
832.123	876.75
832.304	832.58
832.485	829.87
832.666	828.51
832.847	859.9
833.028	829.09
833.209	882.18
833.389	821.54
833.57	792.86
833.751	806.04
833.932	842.07
834.113	848.86
834.294	829.48
834.475	852.34
834.655	899.42
834.836	895.16
835.017	883.34
835.198	826.19
835.378	855.25
835.559	890.51
835.74	822.51
835.92	843.24
836.101	821.54
836.281	874.43
836.462	892.45
836.643	894.97
836.823	909.69
837.004	883.92
837.184	914.73
837.365	868.81
837.545	936.43
837.726	849.63
837.906	930.04
838.087	876.75
838.267	895.35
838.448	865.52
838.628	865.9
838.808	889.15
838.989	949.41
839.169	902.14
839.349	906.01
839.53	900.39
839.71	901.17
839.89	880.82
840.07	936.62
840.251	878.11
840.431	890.9
840.611	877.92
840.791	884.31
840.971	904.07
841.151	884.31
841.332	867.07
841.512	915.5
841.692	847.5
841.872	865.32
842.052	872.69
842.232	876.95
842.412	839.56
842.592	857.19
842.772	850.6
842.952	881.4
843.132	859.32
843.312	848.08
843.492	815.92
843.672	886.44
843.851	807.2
844.031	874.43
844.211	848.08
844.391	828.12
844.571	881.02
844.751	847.5
844.93	879.27
845.11	821.73
845.29	888.38
845.47	892.25
845.649	831.22
845.829	863.97
846.009	854.67
846.188	883.54
846.368	841.49
846.547	823.09
846.727	895.55
846.907	832.77
847.086	862.03
847.266	878.3
847.445	843.62
847.625	849.05
847.804	818.24
847.984	830.06
848.163	829.67
848.343	819.6
848.522	858.74
848.701	831.81
848.881	799.84
849.06	814.17
849.239	840.33
849.419	817.47
849.598	782.98
849.777	809.52
849.957	820.76
850.136	761.48
850.315	754.89
850.494	787.63
850.674	749.85
850.853	793.83
851.032	786.08
851.211	858.15
851.39	766.12
851.569	763.61
851.748	737.06
851.927	792.86
852.107	773.49
852.286	750.82
852.465	717.3
852.644	811.27
852.823	784.34
853.002	775.81
853.181	791.7
853.359	800.81
853.538	726.79
853.717	810.11
853.896	731.06
854.075	693.08
854.254	686.69
854.433	660.92
854.611	699.48
854.79	652.01
854.969	678.55
855.148	711.68
855.327	671
855.505	719.63
855.684	686.88
855.863	704.13
856.041	665.57
856.22	708.97
856.399	644.45
856.577	780.27
856.756	708.58
856.934	869.97
857.113	820.96
857.291	741.13
857.47	695.02
857.648	732.22
857.827	749.08
858.005	773.49
858.184	729.51
858.362	805.65
858.541	745.39
858.719	762.83
858.898	731.44
859.076	720.59
859.254	770
859.433	701.8
859.611	721.95
859.789	681.07
859.967	773.29
860.146	775.42
860.324	714.59
860.502	721.18
860.68	676.61
860.859	712.65
861.037	722.73
861.215	728.54
861.393	719.04
861.571	720.4
861.749	683.39
861.927	743.46
862.105	697.15
862.283	703.74
862.461	682.23
862.639	679.33
862.817	699.28
862.995	723.11
863.173	683.01
863.351	707.81
863.529	697.73
863.707	755.08
863.885	721.76
864.063	639.03
864.241	672.16
864.418	746.17
864.596	690.56
864.774	651.04
864.952	683.59
865.129	709.55
865.307	677.19
865.485	608.41
865.663	705.87
865.84	611.9
866.018	671.19
866.196	549.71
866.373	632.44
866.551	586.33
866.728	511.73
866.906	581.1
867.084	627.21
867.261	636.31
867.439	607.06
867.616	632.05
867.794	611.51
867.971	639.61
868.149	604.54
868.326	681.65
868.503	647.94
868.681	609.38
868.858	620.62
869.035	571.6
869.213	664.8
869.39	622.36
869.567	689.98
869.745	611.71
869.922	687.08
870.099	644.84
870.276	654.53
870.454	640.58
870.631	640.58
870.808	607.06
870.985	666.35
871.162	697.73
871.339	670.03
871.517	605.51
871.694	580.52
871.871	614.23
872.048	623.91
872.225	610.35
872.402	657.05
872.579	599.31
872.756	614.42
872.933	614.23
873.11	608.41
873.287	619.07
873.463	577.61
873.64	575.09
873.817	620.04
873.994	606.67
874.171	558.23
874.348	606.48
874.524	540.22
874.701	615.2
874.878	517.93
875.055	601.25
875.231	583.81
875.408	583.62
875.585	552.42
875.762	592.91
875.938	576.83
876.115	585.94
876.291	583.42
876.468	589.62
876.645	533.05
876.821	588.46
876.998	565.21
877.174	614.61
877.351	559.4
877.527	532.85
877.704	579.16
877.88	550.68
878.057	546.61
878.233	594.08
878.409	547.77
878.586	563.85
878.762	540.02
878.938	555.13
879.115	516.58
879.291	570.63
879.467	505.73
879.644	522.58
879.82	556.3
879.996	544.67
880.172	477.25
880.349	532.85
880.525	582.65
880.701	491.39
880.877	491.78
881.053	536.15
881.229	548.35
881.405	558.23
881.581	480.74
881.757	517.16
881.933	524.91
882.109	566.37
882.285	540.02
882.461	456.71
882.637	524.91
882.813	510.77
882.989	522
883.165	571.22
883.341	500.5
883.517	556.3
883.693	545.25
883.869	541.18
884.044	487.13
884.22	548.93
884.396	562.3
884.572	533.05
884.747	541.38
884.923	537.12
885.099	567.73
885.275	564.82
885.45	521.23
885.626	532.27
885.801	511.54
885.977	506.89
886.153	470.47
886.328	532.47
886.504	519.68
886.679	552.81
886.855	552.03
887.03	558.23
887.206	579.93
887.381	525.3
887.557	534.79
887.732	554.94
887.908	553.2
888.083	552.42
888.258	527.62
888.434	507.47
888.609	541.57
888.784	537.89
888.96	508.63
889.135	491.59
889.31	479.38
889.485	540.8
889.661	526.85
889.836	555.33
890.011	519.87
890.186	519.29
890.361	497.59
890.537	534.21
890.712	525.3
890.887	490.81
891.062	525.1
891.237	568.89
891.412	493.14
891.587	541.57
891.762	553.78
891.937	577.22
892.112	498.56
892.287	508.83
892.462	462.33
892.637	469.11
892.812	459.23
892.987	460.39
893.161	478.99
893.336	473.57
893.511	469.3
893.686	457.68
893.861	455.35
894.035	470.66
894.21	490.62
894.385	416.22
894.56	476.47
894.734	426.49
894.909	430.75
895.084	453.61
895.258	443.73
895.433	445.09
895.608	439.85
895.782	379.02
895.957	402.27
896.131	399.94
896.306	366.42
896.48	327.09
896.655	380.57
896.829	350.34
897.004	310.24
897.178	354.22
897.353	318.18
897.527	372.04
897.701	364.29
897.876	313.73
898.05	383.67
898.224	361.97
898.399	407.69
898.573	360.22
898.747	291.64
898.921	337.17
899.096	280.4
899.27	280.59
899.444	286.21
899.618	304.23
899.792	307.91
899.967	263.93
900.141	320.7
900.315	273.62
900.489	295.71
900.663	318.38
900.837	328.06
901.011	271.68
901.185	343.37
901.359	292.03
901.533	318.18
901.707	324.19
901.881	288.34
902.055	253.08
902.229	272.26
902.403	345.11
902.576	296.29
902.75	323.22
902.924	387.54
903.098	343.56
903.272	362.55
903.446	403.62
903.619	341.24
903.793	385.41
903.967	370.3
904.14	409.05
904.314	365.46
904.488	382.12
904.661	375.34
904.835	366.23
905.009	419.12
905.182	453.8
905.356	407.69
905.529	373.79
905.703	352.47
905.876	374.37
906.05	341.43
906.223	370.3
906.397	307.53
906.57	302.88
906.744	285.44
906.917	276.33
907.09	311.79
907.264	282.73
907.437	313.14
907.61	266.26
907.784	291.83
907.957	290.28
908.13	240.49
908.304	326.9
908.477	233.32
908.65	287.96
908.823	225.76
908.996	317.21
909.17	258.89
909.343	256.18
909.516	286.21
909.689	280.59
909.862	228.48
910.035	281.37
910.208	250.95
910.381	264.13
910.554	351.51
910.727	257.15
910.9	229.83
911.073	236.81
911.246	308.11
911.419	282.73
911.592	267.61
911.765	235.26
911.938	237
912.11	255.6
912.283	263.93
912.456	292.03
912.629	253.47
912.802	226.54
912.974	228.28
913.147	180.81
913.32	188.76
913.493	215.88
913.665	227.7
913.838	206.78
914.01	202.51
914.183	232.93
914.356	186.43
914.528	270.91
914.701	293.58
914.873	277.88
915.046	218.4
915.218	214.14
915.391	163.38
915.563	205.42
915.736	223.63
915.908	240.68
916.081	227.51
916.253	197.67
916.425	231.96
916.598	240.88
916.77	240.49
916.942	194.76
917.115	162.99
917.287	246.11
917.459	204.65
917.632	199.8
917.804	171.51
917.976	207.55
918.148	207.94
918.32	235.06
918.493	228.86
918.665	268.58
918.837	229.25
919.009	273.23
919.181	265.29
919.353	208.71
919.525	233.51
919.697	234.29
919.869	224.02
920.041	276.72
920.213	330.77
920.385	268.39
920.557	222.28
920.729	249.59
920.901	233.32
921.073	230.8
921.244	232.35
921.416	265.48
921.588	259.86
921.76	231.96
921.932	308.49
922.103	212.4
922.275	236.42
922.447	265.29
922.619	175.58
922.79	250.18
922.962	214.91
923.134	253.08
923.305	197.86
923.477	192.25
923.648	204.06
923.82	217.24
923.991	217.05
924.163	172.68
924.335	191.28
924.506	194.38
924.677	246.69
924.849	184.88
925.02	207.94
925.192	238.75
925.363	200.38
925.535	228.28
925.706	193.8
925.877	244.36
926.049	167.25
926.22	222.28
926.391	232.16
926.562	210.65
926.734	160.86
926.905	216.66
927.076	150.78
927.247	169.19
927.419	162.21
927.59	153.5
927.761	181.4
927.932	151.56
928.103	143.42
928.274	151.37
928.445	133.35
928.616	130.83
928.787	162.41
928.958	165.31
929.129	151.56
929.3	149.82
929.471	117.07
929.642	105.25
929.813	40.15
929.984	149.82
930.155	50.23
930.326	149.62
930.496	99.05
930.667	44.22
930.838	98.28
931.009	45.97
931.18	85.1
931.35	81.03
931.521	79.68
931.692	37.44
931.863	37.25
932.033	58.75
932.204	80.26
932.374	86.27
932.545	35.89
932.716	81.62
932.886	86.65
933.057	23.1
933.227	18.45
933.398	104.48
933.568	15.16
933.739	-1.31
933.909	-15.45
934.08	61.85
934.25	-9.64
934.421	21.17
934.591	23.49
934.761	-25.53
934.932	-6.35
935.102	20.39
935.272	0.05
935.443	12.06
935.613	26.01
935.783	58.17
935.953	-13.32
936.123	152.53
936.294	17.87
936.464	15.35
936.634	18.65
936.804	-18.16
936.974	-12.35
937.144	43.06
937.314	29.69
937.484	0.44
937.655	0.24
937.825	49.45
937.995	16.9
938.165	41.32
938.334	5.47
938.504	36.47
938.674	-0.73
938.844	4.7
939.014	50.42
939.184	49.45
939.354	76.58
939.524	72.51
939.694	18.45
939.863	29.69
940.033	83.36
940.203	78.71
940.373	59.53
940.542	71.35
940.712	36.67
940.882	100.02
941.051	84.72
941.221	48.1
941.391	74.64
941.56	38.02
941.73	30.08
941.899	134.9
942.069	22.33
942.238	39.77
942.408	15.35
942.577	75.61
942.747	67.47
942.916	-30.76
943.086	28.14
943.255	93.82
943.425	29.89
943.594	22.91
943.763	-20.88
943.933	-16.03
944.102	-46.06
944.271	62.82
944.441	59.92
944.61	21.17
944.779	21.55
944.948	109.13
945.117	11.87
945.287	25.04
945.456	-4.8
945.625	-4.41
945.794	73.87
945.963	9.74
946.132	66.89
946.301	-7.9
946.47	57.98
946.639	-3.05
946.808	26.2
946.977	54.69
947.146	97.5
947.315	6.05
947.484	51.59
947.653	21.55
947.822	-2.28
947.991	19.04
948.16	71.35
948.329	60.69
948.498	38.22
948.666	32.6
948.835	53.14
949.004	12.06
949.173	-19.33
949.341	31.82
949.51	14.39
949.679	65.73
949.847	60.5
950.016	101.96
950.185	81.23
950.353	30.85
950.522	23.3
950.69	61.47
950.859	13.03
951.028	59.72
951.196	46.16
951.365	31.44
951.533	30.08
951.701	69.02
951.87	65.34
952.038	13.42
952.207	46.74
952.375	72.51
952.543	21.17
952.712	13.8
952.88	-4.6
953.048	66.31
953.217	65.54
953.385	51.78
953.553	84.52
953.721	5.09
953.89	38.02
954.058	3.73
954.226	6.25
954.394	33.37
954.562	-19.71
954.73	20.97
954.898	31.24
955.067	65.34
955.235	48.29
955.403	61.27
955.571	100.6
955.739	50.04
955.907	-2.08
956.075	18.07
956.243	-1.11
956.41	67.47
956.578	-6.54
956.746	-3.25
956.914	5.67
957.082	59.53
957.25	39.96
957.418	13.22
957.585	30.85
957.753	73.48
957.921	11.67
958.089	17.87
958.256	27.37
958.424	45.39
958.592	52.17
958.759	13.42
958.927	31.63
959.095	11.48
959.262	2.37
959.43	26.2
959.597	10.32
959.765	56.24
959.932	-6.93
960.1	72.32
960.267	32.79
960.435	23.49
960.602	63.4
960.77	-0.53
960.937	-2.08
961.104	51.78
961.272	17.87
961.439	14.58
961.606	37.25
961.774	60.69
961.941	21.36
962.108	45.77
962.275	17.29
962.443	61.66
962.61	45.58
962.777	119.4
962.944	49.84
963.111	63.6
963.278	51.2
963.446	40.35
963.613	11.09
963.78	50.42
963.947	54.49
964.114	38.6
964.281	141.87
964.448	40.35
964.615	17.87
964.782	50.42
964.949	57.59
965.116	52.36
965.282	69.99
965.449	63.79
965.616	6.44
965.783	72.12
965.95	27.95
966.117	19.42
966.283	42.87
966.45	20
966.617	27.75
966.784	58.37
966.95	61.27
967.117	95.95
967.284	23.1
967.45	5.09
967.617	88.98
967.784	79.1
967.95	94.98
968.117	30.08
968.283	73.09
968.45	122.11
968.616	57.59
968.783	92.66
968.949	52.94
969.116	96.15
969.282	28.92
969.449	83.17
969.615	66.5
969.781	31.63
969.948	21.94
970.114	18.45
970.28	90.14
970.447	57.01
970.613	104.87
970.779	37.64
970.945	79.87
971.112	61.27
971.278	57.01
971.444	56.04
971.61	63.21
971.776	53.52
971.942	60.3
972.108	78.32
972.275	24.85
972.441	57.98
972.607	113.39
972.773	9.15
972.939	62.24
973.105	55.46
973.271	17.29
973.437	42.67
973.602	48.49
973.768	80.26
973.934	57.79
974.1	52.94
974.266	-17.78
974.432	48.29
974.598	43.84
974.763	69.6
974.929	24.85
975.095	110.29
975.261	25.24
975.426	3.15
975.592	51.2
975.758	80.26
975.923	19.42
976.089	48.49
976.255	69.22
976.42	57.59
976.586	65.15
976.751	71.93
976.917	117.85
977.082	73.48
977.248	-3.05
977.413	16.9
977.579	39.19
977.744	54.88
977.91	-1.89
978.075	28.14
978.24	73.48
978.406	33.18
978.571	21.55
978.736	22.33
978.902	65.73
979.067	8.57
979.232	2.95
979.397	61.27
979.563	100.02
979.728	29.11
979.893	51
980.058	43.25
980.223	70.57
980.388	42.29
980.554	36.67
980.719	35.12
980.884	51.78
981.049	67.67
981.214	20
981.379	56.82
981.544	17.29
981.709	33.57
981.874	17.1
982.039	21.17
982.204	83.75
982.368	50.04
982.533	19.42
982.698	80.84
982.863	84.52
983.028	13.03
983.193	65.15
983.357	64.95
983.522	46.35
983.687	52.94
983.852	41.51
984.016	48.68
984.181	35.7
984.346	53.72
984.51	76.97
984.675	58.17
984.839	38.8
985.004	48.49
985.168	103.12
985.333	61.27
985.498	51.78
985.662	93.05
985.827	54.88
985.991	55.07
986.155	45.19
986.32	46.35
986.484	99.25
986.649	55.65
986.813	19.23
986.977	37.05
987.142	54.3
987.306	27.75
987.47	16.13
987.634	63.6
987.799	82.39
987.963	46.35
988.127	77.16
988.291	122.5
988.455	40.54
988.62	67.28
988.784	62.82
988.948	80.26
989.112	47.13
989.276	47.71
989.44	41.32
989.604	32.4
989.768	23.49
989.932	103.51
990.096	22.91
990.26	13.61
990.424	1.6
990.588	22.33
990.752	108.74
990.915	84.91
991.079	20.97
991.243	31.82
991.407	74.06
991.571	22.14
991.734	76
991.898	27.75
992.062	117.46
992.226	42.87
992.389	10.51
992.553	-18.75
992.717	18.26
992.88	12.84
993.044	46.74
993.207	31.82
993.371	59.53
993.535	64.57
993.698	33.18
993.862	44.8
994.025	73.67
994.189	43.25
994.352	59.53
994.515	45
994.679	90.53
994.842	24.27
995.006	26.4
995.169	8.57
995.332	22.52
995.496	69.22
995.659	-3.44
995.822	17.68
995.985	35.12
996.149	77.74
996.312	45.97
996.475	96.92
996.638	33.37
996.801	110.1
996.964	106.03
997.128	32.21
997.291	23.1
997.454	33.37
997.617	-1.31
997.78	74.83
997.943	10.12
998.106	77.16
998.269	5.86
998.432	24.07
998.595	6.25
998.758	-14.1
998.92	4.12
999.083	6.83
999.246	36.86
999.409	-14.48
999.572	-18.55
999.735	2.95
999.897	34.92
1000.06	48.68
1000.223	25.43
1000.386	49.84
1000.548	50.62
1000.711	32.6
1000.874	9.54
1001.036	-15.65
1001.199	68.83
1001.361	17.29
1001.524	27.56
1001.687	69.22
1001.849	11.29
1002.012	63.21
1002.174	62.05
1002.337	62.63
1002.499	21.94
1002.661	72.7
1002.824	-11
1002.986	34.92
1003.149	15.74
1003.311	6.83
1003.473	80.07
1003.636	20.39
1003.798	63.99
1003.96	50.62
1004.123	-0.34
1004.285	-3.25
1004.447	39.19
1004.609	20.59
1004.771	69.6
1004.933	-1.11
1005.096	12.64
1005.258	-11.96
1005.42	7.6
1005.582	61.27
1005.744	28.92
1005.906	-0.15
1006.068	30.85
1006.23	-39.67
1006.392	-23.59
1006.554	14.58
1006.716	56.24
1006.878	68.63
1007.04	-6.73
1007.202	3.92
1007.363	25.04
1007.525	36.47
1007.687	32.02
1007.849	58.75
1008.011	-16.03
1008.172	-29.01
1008.334	12.45
1008.496	13.61
1008.658	-24.56
1008.819	25.82
1008.981	-21.46
1009.143	18.84
1009.304	18.84
1009.466	45
1009.627	72.32
1009.789	104.28
1009.95	25.04
1010.112	5.86
1010.273	33.18
1010.435	-11.96
1010.596	19.42
1010.758	3.15
1010.919	5.67
1011.081	1.4
1011.242	5.67
1011.403	58.17
1011.565	16.9
1011.726	40.93
1011.887	-13.71
1012.049	-12.16
1012.21	28.92
1012.371	54.88
1012.532	-49.36
1012.693	34.54
1012.855	6.64
1013.016	10.7
1013.177	39.57
1013.338	26.98
1013.499	89.75
1013.66	38.99
1013.821	51
1013.982	14.19
1014.143	32.99
1014.304	-4.41
1014.465	40.93
1014.626	43.64
1014.787	3.73
1014.948	66.5
1015.109	-11.96
1015.27	48.49
1015.431	6.83
1015.592	-6.93
1015.752	56.24
1015.913	10.51
1016.074	41.12
1016.235	-1.7
1016.395	21.55
1016.556	15.55
1016.717	9.35
1016.877	61.47
1017.038	2.37
1017.199	20.78
1017.359	7.8
1017.52	32.21
1017.681	-11.77
1017.841	-1.89
1018.002	7.02
1018.162	6.83
1018.323	67.47
1018.483	-7.31
1018.644	-10.61
1018.804	-38.89
1018.964	-21.26
1019.125	-11.19
1019.285	20.97
1019.446	-2.08
1019.606	2.76
1019.766	-9.83
1019.926	29.3
1020.087	26.01
1020.247	-17.97
1020.407	18.65
1020.567	71.73
1020.728	32.02
1020.888	-32.31
1021.048	3.54
1021.208	2.37
1021.368	-7.31
1021.528	32.99
1021.688	32.99
1021.848	31.05
1022.008	15.16
1022.168	-7.7
1022.328	23.49
1022.488	24.46
1022.648	27.75
1022.808	26.59
1022.968	25.04
1023.128	7.41
1023.288	-6.35
1023.448	34.15
1023.608	39.57
1023.767	31.44
1023.927	16.52
1024.087	2.76
1024.247	-10.8
1024.406	-2.47
1024.566	-21.65
1024.726	-11.38
1024.885	25.04
1025.045	38.02
1025.205	-15.84
1025.364	11.67
1025.524	14.39
1025.683	-15.84
1025.843	-6.73
1026.003	11.67
1026.162	76.19
1026.321	39.96
1026.481	31.63
1026.64	-13.32
1026.8	30.66
1026.959	18.07
1027.119	4.31
1027.278	2.57
1027.437	-17.97
1027.597	14.39
1027.756	19.81
1027.915	36.86
1028.074	18.26
1028.234	-8.67
1028.393	26.79
1028.552	0.44
1028.711	-64.08
1028.87	67.67
1029.03	-17.78
1029.189	1.6
1029.348	-38.12
1029.507	4.7
1029.666	-8.28
1029.825	-21.84
1029.984	11.48
1030.143	34.15
1030.302	4.31
1030.461	-46.84
1030.62	20.39
1030.779	11.09
1030.938	8.57
1031.097	-34.44
1031.255	37.05
1031.414	28.92
1031.573	52.36
1031.732	-30.76
1031.891	8.57
1032.049	67.08
1032.208	32.6
1032.367	-17.2
1032.525	-22.04
1032.684	-26.88
1032.843	14
1033.001	-22.81
1033.16	126.57
1033.319	38.8
1033.477	37.05
1033.636	-24.17
1033.794	-26.88
1033.953	30.08
1034.111	25.82
1034.27	-25.33
1034.428	39.96
1034.587	-25.33
1034.745	23.3
1034.903	16.9
1035.062	37.25
1035.22	-38.31
1035.378	23.88
1035.537	-29.4
1035.695	14.58
1035.853	-17.97
1036.011	26.79
1036.17	23.88
1036.328	-45.87
1036.486	27.17
1036.644	-22.04
1036.802	-65.05
1036.96	1.02
1037.119	-8.09
1037.277	-10.61
1037.435	-27.46
1037.593	-32.89
1037.751	27.17
1037.909	16.52
1038.067	16.52
