Data from oakcork_FLMT105791__214__17-32-45-056.txt Node

Date: Mon Mar 20 17:32:45 GMT 2023
User: antho
Spectrometer: FLMT10579
Trigger mode: 0
Integration Time (sec): 1.000000E-1
Scans to average: 10
Electric dark correction enabled: true
Nonlinearity correction enabled: false
Boxcar width: 0
XAxis mode: Wavelengths
Number of Pixels in Spectrum: 3648
>>>>>Begin Spectral Data<<<<<
345.248	-159.6
345.464	-159.6
345.681	-159.6
345.898	-165.99
346.114	-147.59
346.331	-14.87
346.548	40.15
346.764	-7.31
346.981	-15.45
347.197	-5.38
347.414	19.04
347.631	-25.72
347.847	51
348.064	-20.49
348.28	23.69
348.497	-57.11
348.713	12.45
348.93	9.74
349.146	3.92
349.363	-7.7
349.579	33.37
349.796	-18.16
350.012	1.21
350.229	26.01
350.445	11.67
350.661	-25.53
350.878	9.15
351.094	12.84
351.311	4.12
351.527	29.3
351.743	-11.96
351.96	41.51
352.176	40.15
352.392	35.7
352.609	31.44
352.825	-6.35
353.041	2.37
353.257	-19.13
353.474	27.37
353.69	23.1
353.906	-1.11
354.122	-6.73
354.339	40.54
354.555	26.2
354.771	-26.11
354.987	57.2
355.203	57.98
355.42	-22.62
355.636	6.25
355.852	1.4
356.068	25.62
356.284	-11
356.5	64.18
356.716	34.92
356.932	-21.46
357.148	13.42
357.364	3.73
357.58	18.84
357.796	59.92
358.012	29.89
358.228	23.1
358.444	-43.35
358.66	44.61
358.876	31.63
359.092	-15.65
359.308	47.32
359.524	30.08
359.74	6.83
359.956	3.34
360.172	11.48
360.388	34.92
360.604	10.7
360.819	89.56
361.035	24.46
361.251	33.95
361.467	-36.18
361.683	35.12
361.898	16.13
362.114	36.09
362.33	3.34
362.546	62.24
362.762	17.1
362.977	21.17
363.193	-10.8
363.409	48.29
363.624	18.07
363.84	3.15
364.056	-23.01
364.271	31.63
364.487	12.25
364.703	7.8
364.918	-15.26
365.134	6.25
365.35	22.72
365.565	112.03
365.781	31.63
365.996	28.14
366.212	62.44
366.427	32.21
366.643	-6.35
366.858	22.91
367.074	-12.55
367.289	54.49
367.505	98.67
367.72	-9.06
367.936	8.57
368.151	60.89
368.367	34.34
368.582	2.57
368.798	9.93
369.013	55.65
369.228	25.62
369.444	51.2
369.659	74.64
369.874	38.41
370.09	65.15
370.305	-46.45
370.52	8.19
370.736	56.43
370.951	18.07
371.166	77.93
371.381	101.38
371.597	24.27
371.812	-3.83
372.027	7.99
372.242	14.77
372.458	97.12
372.673	-9.64
372.888	36.09
373.103	32.4
373.318	69.41
373.533	44.61
373.749	24.27
373.964	-4.99
374.179	48.87
374.394	-5.18
374.609	27.75
374.824	-11
375.039	65.53
375.254	8.38
375.469	96.92
375.684	28.34
375.899	80.84
376.114	43.25
376.329	35.5
376.544	72.32
376.759	32.79
376.974	-11.19
377.189	17.49
377.404	15.94
377.619	52.17
377.834	-14.1
378.049	-0.53
378.264	31.63
378.478	33.18
378.693	7.6
378.908	36.28
379.123	30.47
379.338	77.93
379.553	38.02
379.767	24.46
379.982	42.48
380.197	41.9
380.412	13.8
380.626	38.6
380.841	105.83
381.056	67.08
381.271	90.14
381.485	3.34
381.7	26.4
381.915	60.5
382.129	9.35
382.344	47.32
382.559	43.84
382.773	61.27
382.988	14.58
383.202	33.57
383.417	27.37
383.632	105.25
383.846	30.08
384.061	19.81
384.275	29.11
384.49	53.14
384.704	57.79
384.919	42.09
385.133	36.47
385.348	49.45
385.562	16.52
385.777	85.3
385.991	54.1
386.206	27.95
386.42	3.34
386.634	67.08
386.849	54.69
387.063	43.64
387.277	12.25
387.492	13.42
387.706	3.15
387.92	3.54
388.135	76
388.349	39.77
388.563	30.08
388.778	51.2
388.992	64.37
389.206	57.4
389.42	102.93
389.635	27.95
389.849	33.57
390.063	63.21
390.277	46.35
390.491	97.12
390.706	78.52
390.92	77.93
391.134	46.55
391.348	83.75
391.562	-3.25
391.776	52.55
391.99	28.72
392.205	80.26
392.419	8.96
392.633	58.17
392.847	73.28
393.061	3.15
393.275	97.31
393.489	59.53
393.703	42.67
393.917	73.67
394.131	20.97
394.345	57.2
394.559	58.95
394.773	43.06
394.986	57.79
395.2	61.08
395.414	80.65
395.628	5.09
395.842	46.94
396.056	35.7
396.27	25.62
396.484	53.52
396.697	61.47
396.911	89.17
397.125	68.25
397.339	106.03
397.553	36.67
397.766	111.45
397.98	75.03
398.194	58.56
398.408	75.03
398.621	68.44
398.835	80.65
399.049	41.51
399.262	99.83
399.476	92.08
399.69	91.5
399.903	159.7
400.117	69.99
400.331	92.85
400.544	52.36
400.758	164.93
400.971	90.92
401.185	100.6
401.398	56.62
401.612	102.15
401.826	113
402.039	112.62
402.253	56.24
402.466	94.6
402.68	66.5
402.893	94.21
403.106	85.1
403.32	69.99
403.533	122.69
403.747	88.4
403.96	114.17
404.174	105.06
404.387	69.22
404.6	101.96
404.814	111.84
405.027	89.95
405.24	66.12
405.454	80.07
405.667	123.08
405.88	36.47
406.094	76.38
406.307	110.29
406.52	87.43
406.733	45.77
406.947	38.41
407.16	147.3
407.373	142.45
407.586	71.93
407.799	65.15
408.012	142.45
408.226	93.82
408.439	143.42
408.652	65.73
408.865	127.15
409.078	141.87
409.291	139.55
409.504	49.65
409.717	111.65
409.93	129.47
410.143	128.5
410.357	63.99
410.57	52.75
410.783	65.53
410.996	104.09
411.209	113.97
411.421	154.08
411.634	102.73
411.847	71.35
412.06	93.43
412.273	93.43
412.486	114.17
412.699	192.83
412.912	100.8
413.125	130.05
413.338	93.63
413.55	138.58
413.763	102.93
413.976	132.18
414.189	88.98
414.402	96.73
414.615	158.73
414.827	68.25
415.04	128.5
415.253	129.28
415.466	126.76
415.678	156.6
415.891	125.79
416.104	112.03
416.316	132.57
416.529	89.37
416.742	128.7
416.954	179.26
417.167	120.56
417.38	107.77
417.592	159.5
417.805	83.94
418.017	83.94
418.23	120.17
418.442	94.4
418.655	102.73
418.868	126.57
419.08	142.07
419.293	185.66
419.505	124.43
419.718	126.95
419.93	149.43
420.142	85.88
420.355	162.8
420.567	146.33
420.78	141.29
420.992	148.65
421.205	177.71
421.417	85.88
421.629	129.86
421.842	120.17
422.054	90.53
422.266	162.99
422.479	159.7
422.691	99.25
422.903	170.55
423.115	89.75
423.328	117.07
423.54	122.5
423.752	132.77
423.964	123.47
424.177	136.83
424.389	139.74
424.601	236.42
424.813	134.9
425.025	152.33
425.238	149.04
425.45	114.55
425.662	119.4
425.874	416.41
426.086	143.23
426.298	140.71
426.51	166.67
426.722	157.18
426.934	96.15
427.146	164.15
427.358	124.82
427.57	150.4
427.782	126.76
427.994	132.77
428.206	111.45
428.418	113.39
428.63	187.98
428.842	169.96
429.054	150.59
429.266	151.95
429.478	107.19
429.69	124.05
429.902	92.66
430.114	158.15
430.325	154.08
430.537	107.19
430.749	107.58
430.961	107.58
431.173	116.68
431.384	134.7
431.596	76.58
431.808	134.12
432.02	155.05
432.231	190.5
432.443	204.65
432.655	168.22
432.867	118.62
433.078	174.81
433.29	213.56
433.502	193.21
433.713	193.6
433.925	171.9
434.136	207.16
434.348	122.5
434.56	124.24
434.771	258.51
434.983	121.72
435.194	141.48
435.406	156.6
435.617	210.26
435.829	233.71
436.04	199.8
436.252	210.65
436.463	237
436.675	223.25
436.886	197.86
437.098	160.28
437.309	250.95
437.521	186.82
437.732	223.05
437.943	198.64
438.155	173.65
438.366	144.58
438.578	236.03
438.789	197.86
439	189.53
439.211	163.76
439.423	208.91
439.634	204.06
439.845	227.51
440.057	206
440.268	239.13
440.479	187.01
440.69	206.2
440.902	178.49
441.113	197.28
441.324	189.15
441.535	197.09
441.746	227.31
441.957	179.46
442.168	217.05
442.38	208.33
442.591	255.21
442.802	206.78
443.013	220.92
443.224	245.72
443.435	221.31
443.646	214.14
443.857	196.9
444.068	200.38
444.279	222.86
444.49	278.27
444.701	249.98
444.912	327.87
445.123	232.93
445.334	251.14
445.545	243.01
445.756	228.28
445.967	197.09
446.178	236.23
446.388	280.98
446.599	245.14
446.81	278.27
447.021	253.28
447.232	287.18
447.443	291.83
447.653	210.07
447.864	274.78
448.075	229.06
448.286	251.53
448.496	265.68
448.707	272.65
448.918	256.18
449.129	335.04
449.339	216.46
449.55	294.74
449.761	231.19
449.971	278.85
450.182	244.75
450.393	285.83
450.603	261.61
450.814	292.61
451.024	265.29
451.235	313.73
451.446	332.13
451.656	320.51
451.867	254.63
452.077	304.43
452.288	319.73
452.498	319.15
452.709	283.5
452.919	276.14
453.13	252.69
453.34	308.11
453.55	213.75
453.761	291.25
453.971	295.51
454.182	349.18
454.392	266.45
454.602	354.8
454.813	290.86
455.023	297.06
455.233	250.37
455.444	288.34
455.654	240.1
455.864	286.79
456.075	271.88
456.285	281.37
456.495	281.76
456.705	333.68
456.916	345.11
457.126	327.48
457.336	297.84
457.546	230.22
457.756	267.03
457.967	322.44
458.177	293.96
458.387	286.79
458.597	268.58
458.807	287.96
459.017	281.95
459.227	283.5
459.437	288.73
459.647	323.03
459.857	336.78
460.068	284.86
460.278	361
460.488	290.09
460.698	360.81
460.908	311.98
461.117	266.06
461.327	282.53
461.537	296.48
461.747	294.74
461.957	332.91
462.167	395.29
462.377	364.49
462.587	298.03
462.797	353.06
463.007	330.39
463.216	349.37
463.426	392.58
463.636	349.96
463.846	312.76
464.056	286.21
464.265	367.2
464.475	292.22
464.685	307.14
464.895	379.6
465.104	314.69
465.314	367.97
465.524	341.82
465.733	285.05
465.943	383.09
466.153	392
466.362	361.77
466.572	351.31
466.782	327.68
466.991	334.65
467.201	379.21
467.41	302.88
467.62	320.31
467.829	362.74
468.039	389.67
468.249	324.77
468.458	365.46
468.668	357.32
468.877	404.59
469.086	417.19
469.296	399.75
469.505	348.21
469.715	405.56
469.924	393.16
470.134	435.2
470.343	420.48
470.552	369.91
470.762	355.38
470.971	351.7
471.18	373.01
471.39	389.67
471.599	378.82
471.808	401.69
472.018	385.02
472.227	423
472.436	422.42
472.645	409.82
472.855	364.68
473.064	455.55
473.273	432.49
473.482	436.17
473.691	454.19
473.901	462.33
474.11	415.44
474.319	482.29
474.528	435.79
474.737	451.09
474.946	478.6
475.155	454.39
475.364	488.1
475.573	461.55
475.783	430.36
475.992	472.4
476.201	486.55
476.41	431.14
476.619	413.31
476.828	442.37
477.037	445.28
477.245	422.61
477.454	475.5
477.663	458.84
477.872	447.22
478.081	540.6
478.29	449.93
478.499	556.68
478.708	483.64
478.917	576.64
479.125	491.39
479.334	522.97
479.543	494.1
479.752	551.26
479.961	519.29
480.169	541.57
480.378	483.84
480.587	636.7
480.796	548.35
481.004	510.96
481.213	563.47
481.422	551.26
481.63	575.87
481.839	583.03
482.048	585.17
482.256	555.91
482.465	570.83
482.674	607.45
482.882	570.25
483.091	647.55
483.299	574.9
483.508	628.76
483.716	566.95
483.925	578.58
484.134	589.23
484.342	563.08
484.551	606.09
484.759	596.79
484.967	615.2
485.176	586.91
485.384	645.23
485.593	627.21
485.801	623.33
486.01	604.93
486.218	567.34
486.426	529.75
486.635	548.74
486.843	532.47
487.051	578.97
487.26	541.38
487.468	580.71
487.676	607.45
487.885	593.11
488.093	617.91
488.301	653.95
488.509	634.76
488.717	628.37
488.926	624.5
489.134	641.55
489.342	645.61
489.55	607.64
489.758	640.58
489.967	646.2
490.175	731.44
490.383	661.31
490.591	743.46
490.799	645.23
491.007	704.51
491.215	692.31
491.423	683.01
491.631	682.23
491.839	675.65
492.047	675.06
492.255	649.1
492.463	602.99
492.671	655.5
492.879	719.04
493.087	683.2
493.295	684.17
493.503	691.53
493.711	724.28
493.919	733.58
494.127	733.19
494.334	755.28
494.542	681.65
494.75	756.44
494.958	729.7
495.166	755.47
495.374	764.19
495.581	747.53
495.789	748.49
495.997	804.1
496.205	728.54
496.412	753.53
496.62	736.68
496.828	757.21
497.035	748.69
497.243	788.21
497.451	760.31
497.658	754.69
497.866	774.46
498.074	839.94
498.281	745.78
498.489	819.99
498.696	783.56
498.904	738.42
499.112	744.23
499.319	829.87
499.527	764.77
499.734	810.3
499.942	725.24
500.149	783.76
500.357	771.36
500.564	736.48
500.771	789.96
500.979	731.44
501.186	754.69
501.394	784.14
501.601	746.36
501.808	797.32
502.016	769.03
502.223	788.99
502.43	773.1
502.638	782.79
502.845	763.22
503.052	863
503.26	773.1
503.467	857.77
503.674	804.87
503.881	788.99
504.089	866.29
504.296	824.64
504.503	791.51
504.71	778.33
504.917	781.62
505.125	823.67
505.332	779.49
505.539	866.29
505.746	899.62
505.953	879.85
506.16	874.62
506.367	913.95
506.574	900.78
506.781	916.67
506.988	848.66
507.195	879.27
507.402	842.07
507.609	908.53
507.816	847.69
508.023	828.71
508.23	860.48
508.437	820.96
508.644	885.67
508.851	910.85
509.058	901.75
509.265	895.74
509.472	906.98
509.679	997.27
509.885	875.59
510.092	900.2
510.299	893.8
510.506	916.67
510.713	893.22
510.92	879.85
511.126	910.47
511.333	984.67
511.54	945.15
511.746	973.05
511.953	941.66
512.16	965.3
512.367	916.86
512.573	940.88
512.78	947.67
512.987	934.88
513.193	961.23
513.4	871.33
513.606	931.97
513.813	951.93
514.02	932.17
514.226	1002.88
514.433	995.33
514.639	959.48
514.846	980.6
515.052	940.3
515.259	957.74
515.465	962.78
515.672	954.64
515.878	1078.64
516.085	959.87
516.291	1029.62
516.497	948.05
516.704	932.55
516.91	907.75
517.117	873.65
517.323	847.5
517.529	932.36
517.736	888.57
517.942	915.5
518.148	915.7
518.354	948.05
518.561	942.63
518.767	951.93
518.973	972.08
519.179	1012.18
519.386	964.13
519.592	960.84
519.798	959.48
520.004	1044.54
520.21	995.33
520.417	1046.48
520.623	1083.1
520.829	1091.62
521.035	1076.7
521.241	1087.75
521.447	1085.03
521.653	1185.2
521.859	1085.81
522.065	1127.66
522.271	1188.11
522.477	1119.52
522.683	1169.31
522.889	1133.47
523.095	1161.95
523.301	1136.96
523.507	1096.08
523.713	1123.39
523.919	1140.83
524.125	1203.41
524.331	1160.79
524.537	1236.54
524.742	1214.65
524.948	1214.46
525.154	1240.03
525.36	1309
525.566	1255.34
525.772	1295.64
525.977	1197.21
526.183	1220.46
526.389	1256.89
526.595	1234.02
526.8	1147.42
527.006	1156.14
527.212	1143.93
527.417	1115.06
527.623	1140.83
527.829	1198.57
528.034	1205.93
528.24	1189.27
528.446	1226.66
528.651	1321.21
528.857	1271.42
529.062	1340.2
529.268	1259.99
529.473	1324.89
529.679	1304.16
529.884	1392.32
530.09	1349.3
530.295	1365.19
530.501	1360.15
530.706	1336.71
530.912	1342.52
531.117	1343.3
531.323	1364.8
531.528	1371.59
531.733	1390.77
531.939	1342.72
532.144	1369.07
532.35	1357.64
532.555	1422.93
532.76	1401.03
532.966	1375.65
533.171	1381.47
533.376	1355.31
533.581	1323.54
533.787	1364.61
533.992	1396.77
534.197	1390.57
534.402	1380.69
534.607	1393.67
534.813	1465.55
535.018	1385.53
535.223	1408.2
535.428	1379.53
535.633	1475.63
535.838	1491.9
536.043	1444.05
536.249	1535.3
536.454	1471.17
536.659	1463.61
536.864	1439.98
537.069	1427.38
537.274	1442.3
537.479	1470.2
537.684	1467.3
537.889	1422.35
538.094	1528.71
538.299	1476.79
538.504	1507.98
538.708	1476.21
538.913	1520.58
539.118	1498.68
539.323	1513.99
539.528	1447.73
539.733	1477.56
539.938	1460.32
540.142	1524.45
540.347	1473.11
540.552	1461.29
540.757	1438.23
540.962	1456.25
541.166	1414.02
541.371	1448.31
541.576	1455.28
541.781	1398.71
541.985	1515.73
542.19	1486.28
542.395	1551.96
542.599	1581.99
542.804	1546.54
543.008	1617.64
543.213	1450.44
543.418	1465.36
543.622	1505.27
543.827	1502.36
544.031	1545.57
544.236	1542.28
544.44	1555.84
544.645	1652.13
544.849	1531.43
545.054	1559.33
545.258	1629.46
545.463	1596.53
545.667	1538.21
545.872	1596.72
546.076	1579.09
546.281	1570.56
546.485	1565.33
546.689	1569.21
546.894	1596.14
547.098	1563.01
547.302	1558.16
547.507	1570.95
547.711	1598.46
547.915	1618.61
548.119	1579.67
548.324	1563.39
548.528	1621.91
548.732	1593.81
548.936	1595.56
549.141	1651.36
549.345	1563.39
549.549	1600.21
549.753	1610.09
549.957	1686.62
550.161	1667.05
550.366	1599.63
550.57	1563.39
550.774	1615.9
550.978	1608.34
551.182	1577.54
551.386	1580.83
551.59	1548.67
551.794	1570.18
551.998	1625.39
552.202	1596.91
552.406	1594.01
552.61	1630.24
552.814	1587.23
553.018	1644.19
553.222	1600.79
553.426	1609.12
553.63	1669.18
553.833	1591.1
554.037	1583.16
554.241	1643.8
554.445	1592.07
554.649	1605.83
554.853	1609.12
555.056	1665.69
555.26	1649.42
555.464	1661.62
555.668	1608.54
555.871	1670.54
556.075	1626.56
556.279	1611.06
556.483	1585.09
556.686	1585.68
556.89	1595.36
557.094	1591.1
557.297	1550.99
557.501	1627.91
557.704	1525.03
557.908	1631.01
558.112	1564.36
558.315	1607.18
558.519	1578.89
558.722	1555.45
558.926	1540.73
559.129	1491.9
559.333	1486.09
559.536	1503.33
559.74	1487.64
559.943	1505.08
560.147	1465.94
560.35	1518.64
560.553	1519.03
560.757	1457.03
560.96	1589.16
561.164	1516.31
561.367	1612.41
561.57	1528.33
561.774	1524.45
561.977	1487.83
562.18	1476.4
562.384	1581.03
562.587	1501.78
562.79	1501.4
562.993	1504.3
563.197	1504.5
563.4	1544.99
563.603	1550.03
563.806	1552.54
564.009	1505.85
564.212	1495.58
564.416	1461.87
564.619	1479.5
564.822	1473.11
565.025	1540.53
565.228	1447.53
565.431	1495.97
565.634	1408.01
565.837	1452.18
566.04	1441.72
566.243	1394.06
566.446	1308.23
566.649	1441.33
566.852	1373.52
567.055	1366.94
567.258	1453.93
567.461	1481.25
567.664	1463.81
567.867	1407.43
568.07	1423.51
568.273	1399.48
568.475	1464.58
568.678	1370.23
568.881	1389.8
569.084	1381.27
569.287	1294.86
569.489	1338.26
569.692	1376.04
569.895	1406.07
570.098	1319.27
570.3	1338.65
570.503	1259.99
570.706	1309.97
570.909	1284.59
571.111	1285.17
571.314	1241.77
571.516	1284.98
571.719	1291.57
571.922	1258.44
572.124	1260.76
572.327	1294.09
572.529	1230.15
572.732	1266.96
572.935	1264.44
573.137	1331.09
573.34	1252.62
573.542	1319.66
573.745	1293.89
573.947	1294.86
574.15	1291.18
574.352	1226.27
574.554	1294.09
574.757	1241.19
574.959	1220.46
575.162	1227.82
575.364	1227.63
575.566	1313.07
575.769	1190.63
575.971	1235.96
576.173	1145.48
576.376	1200.31
576.578	1240.81
576.78	1298.15
576.982	1147.61
577.185	1191.4
577.387	1146.64
577.589	1175.71
577.791	1211.55
577.993	1204.77
578.196	1190.63
578.398	1211.16
578.6	1224.14
578.802	1155.56
579.004	1148.39
579.206	1146.84
579.408	1177.84
579.61	1139.48
579.812	1193.73
580.014	1151.88
580.216	1169.7
580.418	1183.46
580.62	1169.89
580.822	1139.48
581.024	1178.81
581.226	1239.06
581.428	1184.43
581.63	1284.98
581.832	1148.39
582.034	1242.74
582.236	1197.99
582.438	1266.96
582.64	1244.68
582.841	1274.32
583.043	1301.45
583.245	1221.43
583.447	1227.05
583.649	1201.28
583.85	1209.42
584.052	1212.71
584.254	1173.96
584.456	1234.41
584.657	1170.48
584.859	1203.99
585.061	1176.87
585.262	1156.91
585.464	1153.43
585.666	1222.98
585.867	1167.38
586.069	1233.64
586.27	1187.53
586.472	1170.67
586.674	1159.04
586.875	1167.76
587.077	1137.15
587.278	1202.64
587.48	1153.81
587.681	1252.24
587.883	1161.56
588.084	1111.77
588.285	1142.96
588.487	1107.7
588.688	1117.19
588.89	1065.66
589.091	1046.86
589.292	1032.72
589.494	1016.06
589.695	998.82
589.896	947.86
590.098	969.75
590.299	1025.17
590.5	993.39
590.702	1017.22
590.903	1025.36
591.104	1082.71
591.305	1092.59
591.507	1131.14
591.708	1091.62
591.909	1063.91
592.11	1139.86
592.311	1097.63
592.512	1073.8
592.714	1011.22
592.915	1049.58
593.116	1031.36
593.317	1098.21
593.518	1077.48
593.719	1052.29
593.92	1099.56
594.121	1093.75
594.322	1070.89
594.523	1063.72
594.724	1018.58
594.925	1035.05
595.126	1060.62
595.327	1073.8
595.528	1041.63
595.729	1056.36
595.929	1068.56
596.13	1072.83
596.331	1068.56
596.532	1090.46
596.733	1133.47
596.934	1111.77
597.135	1111.19
597.335	1098.79
597.536	1068.37
597.737	1073.8
597.938	1044.93
598.138	1056.16
598.339	1086.58
598.54	1051.9
598.74	1068.18
598.941	1056.36
599.142	1113.13
599.342	1066.05
599.543	1026.33
599.744	1078.83
599.944	1056.16
600.145	1082.9
600.345	1095.5
600.546	1141.99
600.746	1092.01
600.947	1132.31
601.147	1074.96
601.348	1095.5
601.548	1057.52
601.749	1061.4
601.949	998.43
602.15	1031.56
602.35	1050.35
602.551	1079.61
602.751	1016.25
602.951	1043.38
603.152	991.07
603.352	1094.14
603.552	1055.78
603.753	1098.21
603.953	1109.45
604.153	1090.85
604.354	1065.66
604.554	1051.51
604.754	1062.75
604.954	1026.13
605.155	1073.41
605.355	1025.17
605.555	1107.7
605.755	1096.46
605.955	1060.43
606.155	1090.26
606.356	1045.9
606.556	1089.88
606.756	1074.18
606.956	1004.82
607.156	1116.42
607.356	1048.8
607.556	1038.15
607.756	1045.31
607.956	1107.31
608.156	1072.25
608.356	1056.75
608.556	1056.75
608.756	1064.3
608.956	1010.25
609.156	1030.01
609.356	1046.86
609.556	1011.41
609.755	1048.03
609.955	998.23
610.155	1036.98
610.355	1025.94
610.555	1024.39
610.755	1021.48
610.954	934.88
611.154	1021.48
611.354	1042.99
611.554	999.01
611.753	1005.21
611.953	972.08
612.153	1048.61
612.352	1000.75
612.552	968.59
612.752	947.86
612.951	998.62
613.151	1012.96
613.351	962.39
613.55	974.4
613.75	972.85
613.949	956.19
614.149	987
614.348	949.41
614.548	916.28
614.747	911.63
614.947	952.12
615.146	929.45
615.346	995.33
615.545	963.75
615.745	981.96
615.944	956.38
616.144	972.08
616.343	994.55
616.542	953.87
616.742	955.22
616.941	956.19
617.14	893.42
617.34	924.61
617.539	953.67
617.738	920.35
617.938	998.62
618.137	938.17
618.336	903.49
618.535	947.08
618.734	948.25
618.934	980.6
619.133	902.14
619.332	986.8
619.531	931
619.73	943.02
619.929	965.49
620.128	975.37
620.328	997.46
620.527	925.77
620.726	937.01
620.925	944.76
621.124	948.25
621.323	970.14
621.522	892.64
621.721	893.8
621.92	876.95
622.119	926.55
622.318	882.95
622.517	912.02
622.715	905.62
622.914	861.64
623.113	898.07
623.312	861.25
623.511	902.33
623.71	875.4
623.909	883.34
624.107	956
624.306	856.6
624.505	861.06
624.704	867.65
624.902	854.86
625.101	921.32
625.3	873.65
625.499	850.79
625.697	871.14
625.896	840.91
626.095	902.14
626.293	838.97
626.492	840.91
626.69	875.98
626.889	859.51
627.088	889.54
627.286	837.62
627.485	819.79
627.683	823.86
627.882	823.67
628.08	784.72
628.279	802.74
628.477	870.75
628.676	773.49
628.874	837.42
629.073	791.89
629.271	793.64
629.469	790.54
629.668	795.19
629.866	796.35
630.065	797.12
630.263	827.74
630.461	799.84
630.66	829.09
630.858	831.81
631.056	849.44
631.254	850.79
631.453	775.04
631.651	854.67
631.849	813.79
632.047	837.04
632.245	797.71
632.444	833.16
632.642	857.57
632.84	834.32
633.038	818.24
633.236	783.17
633.434	784.34
633.632	789.18
633.83	768.64
634.028	838.2
634.227	814.76
634.425	886.05
634.623	809.72
634.821	835.29
635.019	838.97
635.216	802.16
635.414	863.97
635.612	818.24
635.81	794.41
636.008	879.27
636.206	847.89
636.404	851.95
636.602	770.58
636.8	860.87
636.997	856.6
637.195	854.09
637.393	842.46
637.591	882.95
637.789	844.21
637.986	847.31
638.184	826.96
638.382	890.32
638.58	865.9
638.777	915.5
638.975	824.25
639.173	837.23
639.37	833.16
639.568	853.31
639.765	865.9
639.963	830.45
640.161	872.49
640.358	884.7
640.556	792.09
640.753	790.15
640.951	786.27
641.148	801.39
641.346	811.27
641.543	820.37
641.741	832.77
641.938	768.64
642.136	804.87
642.333	780.85
642.531	846.34
642.728	877.92
642.925	819.79
643.123	804.1
643.32	794.8
643.517	819.02
643.715	796.35
643.912	807.01
644.109	824.06
644.306	774.46
644.504	751.01
644.701	828.12
644.898	796.16
645.095	754.89
645.293	793.83
645.49	815.14
645.687	774.65
645.884	832.97
646.081	725.24
646.278	781.82
646.475	795.38
646.672	746.17
646.87	777.75
647.067	761.09
647.264	756.44
647.461	729.89
647.658	710.71
647.855	777.56
648.052	712.46
648.249	670.8
648.446	728.34
648.642	718.46
648.839	679.33
649.036	716.14
649.233	658.6
649.43	716.72
649.627	667.7
649.824	709.36
650.021	686.11
650.217	700.06
650.414	658.21
650.611	709.94
650.808	735.32
651.004	753.92
651.201	735.9
651.398	795.19
651.595	717.3
651.791	681.65
651.988	736.48
652.185	661.11
652.381	697.73
652.578	679.91
652.775	745.78
652.971	708
653.168	678.74
653.364	716.91
653.561	647.55
653.757	683.2
653.954	699.28
654.15	680.29
654.347	772.91
654.543	705.29
654.74	654.72
654.936	648.71
655.133	670.61
655.329	695.41
655.525	690.76
655.722	701.8
655.918	645.61
656.115	665.57
656.311	578.58
656.507	580.71
656.704	567.34
656.9	559.4
657.096	538.28
657.292	591.36
657.489	662.47
657.685	623.91
657.881	621.78
658.077	622.36
658.273	646
658.47	695.21
658.666	667.31
658.862	662.28
659.058	654.33
659.254	685.53
659.45	644.45
659.646	680.29
659.842	641.35
660.038	710.71
660.234	618.88
660.43	693.47
660.626	720.21
660.822	687.46
661.018	705.68
661.214	664.99
661.41	603.38
661.606	700.06
661.802	700.83
661.998	646.2
662.194	634.76
662.39	686.69
662.586	655.5
662.781	673.9
662.977	671.77
663.173	691.92
663.369	658.4
663.564	703.16
663.76	710.91
663.956	630.31
664.152	693.47
664.347	610.93
664.543	635.15
664.739	608.03
664.934	611.13
665.13	607.45
665.326	656.08
665.521	638.25
665.717	596.21
665.912	590.2
666.108	545.25
666.304	624.3
666.499	602.99
666.695	552.62
666.89	588.85
667.086	674.48
667.281	639.03
667.477	679.13
667.672	656.66
667.867	615.58
668.063	619.85
668.258	584
668.454	616.75
668.649	680.68
668.844	602.6
669.04	634.38
669.235	604.54
669.43	580.13
669.626	578.77
669.821	599.31
670.016	565.21
670.211	581.48
670.407	575.28
670.602	601.44
670.797	571.41
670.992	638.06
671.187	566.95
671.382	627.4
671.578	557.85
671.773	607.83
671.968	547
672.163	608.41
672.358	600.08
672.553	555.33
672.748	567.53
672.943	632.25
673.138	578
673.333	614.61
673.528	549.52
673.723	617.91
673.918	581.68
674.113	557.65
674.308	673.51
674.503	638.06
674.698	598.92
674.892	605.7
675.087	618.3
675.282	587.3
675.477	580.32
675.672	602.99
675.867	577.22
676.061	555.72
676.256	552.23
676.451	566.95
676.646	593.11
676.84	550.29
677.035	556.88
677.23	506.7
677.424	581.29
677.619	578.58
677.814	626.63
678.008	599.7
678.203	532.27
678.397	543.51
678.592	607.25
678.787	653.36
678.981	540.6
679.176	584.58
679.37	589.23
679.565	548.55
679.759	568.12
679.954	574.7
680.148	614.81
680.342	637.86
680.537	585.36
680.731	586.72
680.926	580.52
681.12	597.37
681.314	522.97
681.509	563.66
681.703	571.41
681.897	559.01
682.092	582.07
682.286	553.78
682.48	624.3
682.674	618.1
682.869	566.18
683.063	555.72
683.257	623.91
683.451	557.65
683.645	571.22
683.839	577.03
684.034	567.73
684.228	590.2
684.422	534.6
684.616	533.43
684.81	572.77
685.004	560.37
685.198	531.11
685.392	601.25
685.586	550.68
685.78	570.83
685.974	558.23
686.168	579.55
686.362	619.26
686.556	523.94
686.75	496.43
686.944	500.89
687.138	505.53
687.331	440.82
687.525	415.25
687.719	388.12
687.913	441.99
688.107	450.12
688.301	454
688.494	465.62
688.688	452.64
688.882	402.27
689.076	394.32
689.269	454.19
689.463	503.6
689.657	451.48
689.85	434.62
690.044	451.48
690.238	479.19
690.431	464.27
690.625	464.85
690.818	485.58
691.012	515.8
691.205	535.95
691.399	494.49
691.593	534.79
691.786	553.58
691.98	557.46
692.173	592.33
692.366	569.47
692.56	564.43
692.753	609
692.947	549.13
693.14	611.9
693.333	602.8
693.527	552.42
693.72	590.59
693.914	565.02
694.107	562.3
694.3	577.03
694.493	568.5
694.687	651.81
694.88	570.05
695.073	629.73
695.266	637.67
695.46	622.75
695.653	687.66
695.846	667.51
696.039	586.33
696.232	602.99
696.425	665.76
696.618	657.43
696.812	660.15
697.005	726.02
697.198	795.96
697.391	739.78
697.584	737.64
697.777	781.62
697.97	772.52
698.163	768.45
698.356	761.09
698.549	834.91
698.742	819.41
698.935	764.38
699.127	778.33
699.32	796.54
699.513	740.55
699.706	810.88
699.899	835.1
700.092	782.98
700.285	831.03
700.477	797.12
700.67	829.29
700.863	881.21
701.056	922.29
701.248	888.19
701.441	910.27
701.634	864.94
701.826	998.04
702.019	858.93
702.212	935.85
702.404	881.6
702.597	887.22
702.79	924.03
702.982	951.35
703.175	1002.88
703.367	980.6
703.56	1002.3
703.752	1068.37
703.945	1019.35
704.137	1052.48
704.33	1057.13
704.522	1091.43
704.715	1087.94
704.907	1078.06
705.1	1105.18
705.292	1133.66
705.484	1103.83
705.677	1157.69
705.869	1159.63
706.061	1160.21
706.254	1174.16
706.446	1186.75
706.638	1176.48
706.831	1284.4
707.023	1223.37
707.215	1285.17
707.407	1330.7
707.599	1251.85
707.792	1309.78
707.984	1287.5
708.176	1350.66
708.368	1280.33
708.56	1368.87
708.752	1303.39
708.944	1335.74
709.136	1377.01
709.329	1354.73
709.521	1458.77
709.713	1456.25
709.905	1427.97
710.097	1480.47
710.289	1405.1
710.481	1447.73
710.672	1476.6
710.864	1456.06
711.056	1563.59
711.248	1543.83
711.44	1538.4
711.632	1506.24
711.824	1552.35
712.016	1610.48
712.207	1601.18
712.399	1578.89
712.591	1666.08
712.783	1624.62
712.975	1668.02
713.166	1604.08
713.358	1651.36
713.55	1712
713.741	1693.79
713.933	1698.05
714.125	1669.96
714.316	1683.13
714.508	1764.5
714.7	1768.38
714.891	1769.93
715.083	1787.17
715.274	1751.72
715.466	1779.04
715.657	1788.34
715.849	1711.42
716.04	1788.14
716.232	1740.09
716.423	1769.15
716.615	1704.25
716.806	1679.06
716.998	1670.54
717.189	1588.58
717.381	1533.17
717.572	1533.17
717.763	1521.35
717.955	1523.68
718.146	1489.96
718.337	1433.39
718.528	1417.5
718.72	1367.13
718.911	1413.05
719.102	1401.03
719.293	1415.57
719.485	1420.41
719.676	1414.4
719.867	1345.62
720.058	1388.25
720.249	1378.37
720.44	1415.57
720.632	1483.18
720.823	1479.5
721.014	1624.43
721.205	1610.48
721.396	1722.46
721.587	1782.52
721.778	1805
721.969	1833.67
722.16	1906.52
722.351	1897.22
722.542	2030.33
722.733	2008.63
722.924	1912.53
723.115	1987.89
723.305	1988.28
723.496	2002.04
723.687	1916.4
723.878	1865.45
724.069	1950.7
724.26	1924.15
724.45	1873.39
724.641	1848.78
724.832	1903.61
725.023	1887.34
725.213	1863.7
725.404	1854.98
725.595	1843.17
725.785	1834.64
725.976	1943.53
726.167	1903.23
726.357	1919.11
726.548	2019.48
726.739	1929.77
726.929	2003.78
727.12	2010.37
727.31	2032.07
727.501	1990.99
727.691	2000.49
727.882	2030.91
728.072	2080.7
728.263	2077.79
728.453	2129.14
728.644	2132.04
728.834	2093.49
729.024	2067.14
729.215	2048.15
729.405	2124.29
729.596	2206.83
729.786	2167.11
729.976	2187.65
730.167	2214.97
730.357	2168.66
730.547	2217.87
730.737	2259.33
730.928	2266.5
731.118	2346.71
731.308	2279.29
731.498	2294.21
731.688	2364.73
731.879	2401.35
732.069	2433.32
732.259	2450.95
732.449	2454.05
732.639	2554.8
732.829	2557.9
733.019	2583.86
733.209	2663.88
733.399	2714.06
733.589	2751.26
733.779	2773.35
733.969	2788.65
734.159	2857.82
734.349	2904.13
734.539	2924.66
734.729	2917.3
734.919	2967.09
735.109	3003.13
735.299	2909.74
735.488	2941.13
735.678	2998.87
735.868	3005.84
736.058	2988.6
736.248	2992.47
736.437	2956.24
736.627	2957.21
736.817	3079.47
737.007	3014.17
737.196	3076.17
737.386	3051.18
737.576	3000.61
737.765	3071.14
737.955	3090.7
738.144	3154.25
738.334	3156
738.524	3123.25
738.713	3141.66
738.903	3113.18
739.092	3193.39
739.282	3177.89
739.471	3189.9
739.661	3127.71
739.85	3230.78
740.04	3220.71
740.229	3223.23
740.419	3258.49
740.608	3267.98
740.797	3228.46
740.987	3348.39
741.176	3271.66
741.365	3303.24
741.555	3240.08
741.744	3354.01
741.933	3309.83
742.123	3304.41
742.312	3363.11
742.501	3393.53
742.69	3381.91
742.88	3328.24
743.069	3472
743.258	3413.29
743.447	3486.72
743.636	3405.93
743.825	3427.82
744.014	3409.22
744.204	3427.44
744.393	3413.87
744.582	3506.49
744.771	3502.03
744.96	3480.14
745.149	3518.69
745.338	3463.09
745.527	3515.98
745.716	3463.86
745.905	3447.2
746.094	3503.19
746.283	3522.18
746.471	3505.32
746.66	3588.05
746.849	3540
747.038	3555.89
747.227	3521.99
747.416	3558.6
747.604	3515.2
747.793	3528.96
747.982	3549.89
748.171	3589.99
748.359	3578.95
748.548	3524.89
748.737	3567.9
748.926	3553.37
749.114	3479.17
749.303	3508.42
749.491	3543.69
749.68	3446.81
749.869	3535.94
750.057	3503.97
750.246	3467.54
750.434	3534
750.623	3502.8
750.811	3458.63
751	3557.44
751.188	3487.11
751.377	3512.69
751.565	3511.72
751.754	3443.91
751.942	3438.09
752.131	3510.36
752.319	3432.67
752.507	3437.71
752.696	3493.7
752.884	3511.72
753.072	3508.62
753.261	3491.95
753.449	3452.24
753.637	3467.16
753.825	3532.45
754.014	3509.78
754.202	3453.4
754.39	3517.72
754.578	3512.88
754.766	3444.29
754.955	3431.89
755.143	3511.52
755.331	3425.89
755.519	3408.45
755.707	3430.73
755.895	3422.4
756.083	3473.16
756.271	3392.95
756.459	3462.51
756.647	3431.51
756.835	3386.94
757.023	3390.82
757.211	3380.74
757.399	3390.24
757.587	3339.86
757.775	3310.99
757.963	3360.01
758.151	3354.59
758.339	3296.46
758.526	3330.37
758.714	3315.26
758.902	3221.29
759.09	3148.44
759.278	2907.81
759.465	2700.5
759.653	2302.54
759.841	2126.62
760.028	1823.4
760.216	1560.68
760.404	1472.91
760.591	1193.14
760.779	1018
760.967	894
761.154	729.12
761.342	758.57
761.529	759.15
761.717	808.36
761.905	810.49
762.092	855.05
762.28	806.62
762.467	805.65
762.655	744.04
762.842	788.21
763.029	756.63
763.217	790.54
763.404	778.52
763.592	793.06
763.779	761.67
763.966	802.36
764.154	846.34
764.341	892.06
764.528	896.13
764.716	950.57
764.903	1045.51
765.09	1106.15
765.277	1147.03
765.465	1269.87
765.652	1348.34
765.839	1431.45
766.026	1569.98
766.213	1619
766.4	1729.82
766.588	1919.31
766.775	1919.31
766.962	2040.59
767.149	2114.61
767.336	2263.98
767.523	2231.44
767.71	2401.16
767.897	2472.65
768.084	2560.61
768.271	2566.42
768.458	2667.95
768.645	2678.6
768.832	2697.98
769.019	2718.52
769.206	2776.25
769.392	2833.21
769.579	2928.54
769.766	2862.66
769.953	2889.01
770.14	2910.13
770.327	2919.04
770.513	2957.6
770.7	3029.87
770.887	2985.89
771.073	2975.42
771.26	2964.57
771.447	2976.01
771.634	2927.96
771.82	3014.37
772.007	2988.02
772.193	3032.97
772.38	3032.97
772.567	2990.15
772.753	3000.42
772.94	3048.85
773.126	3031.42
773.313	3033.94
773.499	3033.55
773.686	3013.4
773.872	2983.17
774.059	2991.31
774.245	2926.41
774.432	2972.13
774.618	2907.23
774.804	3004.49
774.991	2948.11
775.177	3025.41
775.363	2910.52
775.55	2984.92
775.736	2932.99
775.922	2957.79
776.109	2964.19
776.295	2932.8
776.481	2970.77
776.667	2974.07
776.853	2922.73
777.04	2923.11
777.226	2881.46
777.412	3014.76
777.598	2884.94
777.784	2889.59
777.97	2858.79
778.156	2887.46
778.342	2887.27
778.528	2824.88
778.715	2820.81
778.901	2849.3
779.087	2883.2
779.272	2826.63
779.458	2854.33
779.644	2876.61
779.83	2841.93
780.016	2918.08
780.202	2824.11
780.388	2840
780.574	2774.12
780.76	2776.83
780.946	2831.66
781.131	2807.25
781.317	2789.81
781.503	2763.66
781.689	2710.96
781.874	2860.34
782.06	2757.85
782.246	2764.05
782.432	2786.33
782.617	2753.2
782.803	2837.09
782.989	2718.9
783.174	2737.7
783.36	2691.78
783.545	2719.29
783.731	2737.89
783.916	2625.71
784.102	2708.25
784.288	2669.89
784.473	2696.04
784.659	2659.42
784.844	2715.03
785.029	2680.74
785.215	2610.6
785.4	2627.26
785.586	2718.32
785.771	2573.79
785.956	2673.57
786.142	2609.63
786.327	2574.37
786.512	2580.96
786.698	2611.95
786.883	2521.09
787.068	2609.63
787.254	2585.99
787.439	2519.34
787.624	2561.97
787.809	2554.02
787.994	2554.02
788.18	2599.75
788.365	2529.22
788.55	2492.03
788.735	2532.52
788.92	2484.66
789.105	2479.63
789.29	2512.37
789.475	2420.34
789.66	2441.46
789.845	2448.82
790.03	2416.46
790.215	2467.61
790.4	2498.23
790.585	2458.51
790.77	2436.81
790.955	2356.01
791.14	2412.01
791.325	2470.13
791.51	2338.96
791.695	2410.46
791.879	2404.84
792.064	2369.58
792.249	2436.23
792.434	2398.45
792.618	2384.11
792.803	2424.21
792.988	2393.8
793.173	2375.58
793.357	2423.63
793.542	2392.25
793.727	2424.6
793.911	2433.32
794.096	2432.16
794.281	2413.75
794.465	2515.27
794.65	2423.44
794.834	2445.14
795.019	2501.13
795.203	2460.83
795.388	2450.37
795.572	2444.94
795.757	2453.08
795.941	2452.5
796.126	2429.06
796.31	2405.61
796.494	2411.43
796.679	2419.18
796.863	2362.8
797.048	2465.09
797.232	2423.25
797.416	2440.88
797.601	2428.67
797.785	2496.68
797.969	2491.83
798.153	2440.29
798.338	2474.01
798.522	2483.5
798.706	2476.14
798.89	2544.92
799.074	2602.46
799.258	2532.32
799.443	2486.6
799.627	2520.51
799.811	2509.66
799.995	2456.38
800.179	2440.68
800.363	2453.66
800.547	2492.22
800.731	2489.31
800.915	2409.88
801.099	2427.7
801.283	2426.15
801.467	2445.14
801.651	2432.54
801.835	2490.86
802.019	2474.59
802.202	2457.34
802.386	2409.1
802.57	2445.53
802.754	2396.31
802.938	2375.97
803.121	2426.73
803.305	2454.24
803.489	2425.38
803.673	2433.51
803.856	2455.6
804.04	2458.12
804.224	2456.18
804.407	2421.89
804.591	2395.93
804.775	2448.24
804.958	2425.57
805.142	2539.3
805.326	2412.78
805.509	2440.29
805.693	2495.9
805.876	2456.96
806.06	2450.76
806.243	2472.07
806.427	2508.49
806.61	2501.13
806.794	2442.04
806.977	2502.1
807.16	2466.45
807.344	2494.35
807.527	2480.79
807.71	2447.08
807.894	2465.29
808.077	2485.05
808.26	2388.56
808.444	2428.67
808.627	2452.11
808.81	2363.38
808.993	2393.99
809.177	2348.46
809.36	2403.29
809.543	2407.75
809.726	2297.7
809.909	2298.86
810.092	2238.02
810.276	2291.69
810.459	2327.53
810.642	2274.06
810.825	2229.3
811.008	2253.72
811.191	2168.08
811.374	2230.66
811.557	2167.11
811.74	2214
811.923	2153.16
812.106	2127.97
812.289	2110.92
812.472	2116.54
812.654	2106.27
812.837	2040.4
813.02	2004.94
813.203	2001.84
813.386	1921.44
813.569	1905.75
813.751	1832.32
813.934	1898.77
814.117	1886.57
814.3	1822.82
814.482	1756.75
814.665	1737.77
814.848	1699.41
815.03	1640.7
815.213	1662.79
815.396	1633.73
815.578	1573.66
815.761	1606.6
815.943	1624.23
816.126	1545.18
816.309	1544.02
816.491	1451.22
816.674	1406.46
816.856	1486.28
817.039	1502.17
817.221	1535.3
817.403	1453.73
817.586	1521.93
817.768	1512.83
817.951	1426.42
818.133	1413.24
818.315	1467.88
818.498	1513.99
818.68	1541.31
818.862	1505.46
819.045	1552.35
819.227	1516.31
819.409	1464.39
819.591	1522.71
819.774	1535.88
819.956	1490.35
820.138	1555.06
820.32	1576.38
820.502	1589.55
820.684	1658.72
820.866	1677.32
821.048	1700.76
821.231	1765.09
821.413	1740.09
821.595	1703.67
821.777	1702.89
821.959	1709.67
822.141	1767.8
822.323	1593.23
822.505	1580.83
822.686	1512.83
822.868	1439.78
823.05	1372.75
823.232	1340
823.414	1291.37
823.596	1339.23
823.778	1312.49
823.96	1334.77
824.141	1354.73
824.323	1384.57
824.505	1458.38
824.687	1513.6
824.868	1566.3
825.05	1629.66
825.232	1656.2
825.413	1748.62
825.595	1667.44
825.777	1643.8
825.958	1634.89
826.14	1660.85
826.321	1697.47
826.503	1669.37
826.685	1690.49
826.866	1696.31
827.048	1692.04
827.229	1641.28
827.411	1575.79
827.592	1547.7
827.773	1558.36
827.955	1501.4
828.136	1517.67
828.318	1500.23
828.499	1520.38
828.68	1470.4
828.862	1489.77
829.043	1529.68
829.224	1508.37
829.406	1470.2
829.587	1483.38
829.768	1461.1
829.949	1491.9
830.131	1475.05
830.312	1574.05
830.493	1475.05
830.674	1515.93
830.855	1499.85
831.036	1494.61
831.218	1563.01
831.399	1580.44
831.58	1507.4
831.761	1511.86
831.942	1529.3
832.123	1524.06
832.304	1447.53
832.485	1459.93
832.666	1471.56
832.847	1530.46
833.028	1526.58
833.209	1499.85
833.389	1517.09
833.57	1424.09
833.751	1468.07
833.932	1525.42
834.113	1505.46
834.294	1501.98
834.475	1547.31
834.655	1581.41
834.836	1563.59
835.017	1552.35
835.198	1473.3
835.378	1525.42
835.559	1572.69
835.74	1525.03
835.92	1547.51
836.101	1527.75
836.281	1576.18
836.462	1564.94
836.643	1547.7
836.823	1580.44
837.004	1570.76
837.184	1640.89
837.365	1577.54
837.545	1591.1
837.726	1549.83
837.906	1615.9
838.087	1578.89
838.267	1588.39
838.448	1522.9
838.628	1587.03
838.808	1581.22
838.989	1653.29
839.169	1541.31
839.349	1578.31
839.53	1616.68
839.71	1621.33
839.89	1567.66
840.07	1642.83
840.251	1561.84
840.431	1604.86
840.611	1562.04
840.791	1547.9
840.971	1575.02
841.151	1590.71
841.332	1535.3
841.512	1594.98
841.692	1507.21
841.872	1593.62
842.052	1563.98
842.232	1564.75
842.412	1509.92
842.592	1543.63
842.772	1570.95
842.952	1558.94
843.132	1532.78
843.312	1536.85
843.492	1518.25
843.672	1591.49
843.851	1471.36
844.031	1558.55
844.211	1533.36
844.391	1513.02
844.571	1565.91
844.751	1562.62
844.93	1554.48
845.11	1516.51
845.29	1562.43
845.47	1547.31
845.649	1554.68
845.829	1543.83
846.009	1511.47
846.188	1493.06
846.368	1526.58
846.547	1559.33
846.727	1563.39
846.907	1491.13
847.086	1502.17
847.266	1538.98
847.445	1508.37
847.625	1510.5
847.804	1466.13
847.984	1518.06
848.163	1485.9
848.343	1474.46
848.522	1480.08
848.701	1526.39
848.881	1463.42
849.06	1524.45
849.239	1498.88
849.419	1470.59
849.598	1436.88
849.777	1423.12
849.957	1386.5
850.136	1354.15
850.315	1359.38
850.494	1334.58
850.674	1327.6
850.853	1403.55
851.032	1373.72
851.211	1425.45
851.39	1363.25
851.569	1374.49
851.748	1327.41
851.927	1402.97
852.107	1388.05
852.286	1359.38
852.465	1364.22
852.644	1389.22
852.823	1411.3
853.002	1368.68
853.181	1397.55
853.359	1390.77
853.538	1317.34
853.717	1410.14
853.896	1321.21
854.075	1244.68
854.254	1210.19
854.433	1156.53
854.611	1208.26
854.79	1138.7
854.969	1223.17
855.148	1198.57
855.327	1194.11
855.505	1213.49
855.684	1255.72
855.863	1260.18
856.041	1211.94
856.22	1279.56
856.399	1259.99
856.577	1334.77
856.756	1318.5
856.934	1441.14
857.113	1399.68
857.291	1354.15
857.47	1298.93
857.648	1327.99
857.827	1320.63
858.005	1384.95
858.184	1306.1
858.362	1380.5
858.541	1332.45
858.719	1327.6
858.898	1280.52
859.076	1306.49
859.254	1356.86
859.433	1304.94
859.611	1277.62
859.789	1243.91
859.967	1335.16
860.146	1372.55
860.324	1274.91
860.502	1297.57
860.68	1227.63
860.859	1248.56
861.037	1275.68
861.215	1276.65
861.393	1296.8
861.571	1274.71
861.749	1247.39
861.927	1267.35
862.105	1281.11
862.283	1270.26
862.461	1243.13
862.639	1233.06
862.817	1241
862.995	1268.12
863.173	1249.72
863.351	1231.31
863.529	1272.97
863.707	1288.86
863.885	1268.9
864.063	1200.7
864.241	1206.12
864.418	1263.09
864.596	1203.02
864.774	1179.78
864.952	1210.97
865.129	1214.46
865.307	1164.86
865.485	1135.79
865.663	1226.47
865.84	1123.59
866.018	1162.14
866.196	1030.2
866.373	1088.91
866.551	1035.24
866.728	980.02
866.906	1035.43
867.084	1034.85
867.261	1085.61
867.439	1098.21
867.616	1112.35
867.794	1120.49
867.971	1118.74
868.149	1102.86
868.326	1198.76
868.503	1156.91
868.681	1145.29
868.858	1125.33
869.035	1110.61
869.213	1117.19
869.39	1086.39
869.567	1198.76
869.745	1092.01
869.922	1162.73
870.099	1168.73
870.276	1144.71
870.454	1147.81
870.631	1148.19
870.808	1131.34
870.985	1156.91
871.162	1197.41
871.339	1135.21
871.517	1080.96
871.694	1085.61
871.871	1079.03
872.048	1092.01
872.225	1115.84
872.402	1109.83
872.579	1053.26
872.756	1096.66
872.933	1043.57
873.11	1074.57
873.287	1120.68
873.463	1066.05
873.64	1052.29
873.817	1066.24
873.994	1037.76
874.171	1058.49
874.348	1091.62
874.524	1047.64
874.701	1076.12
874.878	1020.32
875.055	1065.46
875.231	1044.93
875.408	1073.99
875.585	994.75
875.762	1011.6
875.938	1014.51
876.115	1019.74
876.291	1014.51
876.468	984.09
876.645	1014.12
876.821	1014.32
876.998	999.59
877.174	1008.5
877.351	1023.62
877.527	991.26
877.704	990.1
877.88	1020.52
878.057	963.94
878.233	1025.36
878.409	972.27
878.586	1018
878.762	968.2
878.938	968.59
879.115	913.37
879.291	1015.67
879.467	928.1
879.644	948.05
879.82	1014.12
879.996	953.28
880.172	933.52
880.349	968.78
880.525	974.21
880.701	912.6
880.877	896.13
881.053	949.8
881.229	951.54
881.405	961.03
881.581	904.85
881.757	917.83
881.933	966.07
882.109	973.24
882.285	934.3
882.461	918.8
882.637	935.07
882.813	917.25
882.989	930.62
883.165	992.81
883.341	939.72
883.517	954.83
883.693	975.18
883.869	969.37
884.044	882.76
884.22	968.98
884.396	993.78
884.572	954.64
884.747	974.98
884.923	968.59
885.099	987.38
885.275	995.91
885.45	891.87
885.626	948.83
885.801	932.17
885.977	914.92
886.153	862.61
886.328	951.15
886.504	925.77
886.679	910.08
886.855	881.6
887.03	943.02
887.206	963.55
887.381	968.01
887.557	931.97
887.732	937.01
887.908	967.43
888.083	951.54
888.258	906.98
888.434	935.85
888.609	906.4
888.784	986.8
888.96	956.38
889.135	906.2
889.31	922.87
889.485	912.6
889.661	915.31
889.836	963.36
890.011	922.29
890.186	916.28
890.361	880.24
890.537	938.56
890.712	918.02
890.887	932.36
891.062	937.98
891.237	967.43
891.412	878.11
891.587	943.6
891.762	942.05
891.937	968.4
892.112	915.7
892.287	928.87
892.462	880.82
892.637	862.03
892.812	852.73
892.987	896.71
893.161	824.83
893.336	859.7
893.511	856.8
893.686	883.15
893.861	845.37
894.035	852.92
894.21	849.82
894.385	779.11
894.56	837.81
894.734	742.88
894.909	736.68
895.084	757.21
895.258	739.19
895.433	768.45
895.608	756.05
895.782	674.48
895.957	732.22
896.131	724.08
896.306	664.41
896.48	655.69
896.655	660.73
896.829	611.71
897.004	604.73
897.178	639.61
897.353	601.63
897.527	639.41
897.701	595.05
897.876	564.05
898.05	646.97
898.224	617.13
898.399	669.06
898.573	630.7
898.747	509.99
898.921	583.03
899.096	482.87
899.27	488.49
899.444	485
899.618	517.16
899.792	550.29
899.967	518.52
900.141	576.45
900.315	518.52
900.489	519.68
900.663	555.13
900.837	555.72
901.011	496.82
901.185	631.47
901.359	540.6
901.533	537.31
901.707	551.65
901.881	523.17
902.055	512.12
902.229	519.1
902.403	577.22
902.576	500.69
902.75	533.43
902.924	649.49
903.098	587.1
903.272	644.65
903.446	636.7
903.619	646.39
903.793	677.39
903.967	684.17
904.14	716.72
904.314	691.14
904.488	660.15
904.661	678.36
904.835	675.26
905.009	715.94
905.182	733.77
905.356	702.96
905.529	685.33
905.703	684.94
905.876	660.92
906.05	658.6
906.223	594.85
906.397	574.32
906.57	566.76
906.744	522.78
906.917	513.28
907.09	538.08
907.264	541.18
907.437	494.69
907.61	502.24
907.784	518.52
907.957	544.09
908.13	473.95
908.304	521.81
908.477	466.01
908.65	501.27
908.823	449.74
908.996	517.93
909.17	471.63
909.343	470.66
909.516	456.32
909.689	471.24
909.862	449.35
910.035	474.73
910.208	433.27
910.381	432.3
910.554	559.4
910.727	477.83
910.9	471.05
911.073	468.92
911.246	523.36
911.419	512.7
911.592	495.27
911.765	469.69
911.938	466.4
912.11	468.92
912.283	461.17
912.456	522
912.629	476.86
912.802	446.64
912.974	413.12
913.147	371.46
913.32	323.03
913.493	348.6
913.665	374.17
913.838	389.48
914.01	406.34
914.183	420.67
914.356	406.92
914.528	422.61
914.701	452.06
914.873	445.67
915.046	425.13
915.218	384.44
915.391	350.15
915.563	353.06
915.736	383.28
915.908	402.46
916.081	393.94
916.253	390.64
916.425	399.56
916.598	449.15
916.77	396.65
916.942	393.16
917.115	300.94
917.287	377.47
917.459	374.17
917.632	319.73
917.804	292.8
917.976	378.05
918.148	365.26
918.32	387.74
918.493	419.51
918.665	431.52
918.837	409.24
919.009	474.34
919.181	453.8
919.353	442.37
919.525	435.01
919.697	423.77
919.869	415.05
920.041	488.1
920.213	546.8
920.385	453.8
920.557	432.1
920.729	451.09
920.901	436.37
921.073	432.88
921.244	429.59
921.416	481.7
921.588	428.62
921.76	418.74
921.932	497.59
922.103	431.14
922.275	413.31
922.447	431.91
922.619	364.68
922.79	434.82
922.962	401.88
923.134	421.25
923.305	360.42
923.477	360.42
923.648	345.69
923.82	367.97
923.991	334.07
924.163	332.71
924.335	373.98
924.506	341.62
924.677	404.4
924.849	354.02
925.02	370.11
925.192	398.97
925.363	373.4
925.535	374.56
925.706	373.01
925.877	376.69
926.049	345.5
926.22	382.51
926.391	391.03
926.562	404.98
926.734	332.13
926.905	387.35
927.076	331.94
927.247	340.85
927.419	283.5
927.59	294.54
927.761	321.86
927.932	291.44
928.103	287.57
928.274	241.07
928.445	258.31
928.616	244.94
928.787	244.56
928.958	299
929.129	226.15
929.3	243.39
929.471	232.35
929.642	160.86
929.813	137.03
929.984	220.53
930.155	166.48
930.326	197.28
930.496	157.95
930.667	92.66
930.838	141.1
931.009	127.92
931.18	152.14
931.35	122.11
931.521	137.8
931.692	101.18
931.863	61.47
932.033	110.48
932.204	99.63
932.374	119.59
932.545	75.03
932.716	118.43
932.886	116.68
933.057	37.83
933.227	55.27
933.398	127.53
933.568	41.51
933.739	34.54
933.909	26.4
934.08	96.15
934.25	-8.86
934.421	31.05
934.591	57.59
934.761	46.55
934.932	-34.05
935.102	20.39
935.272	13.61
935.443	38.02
935.613	25.62
935.783	29.5
935.953	9.93
936.123	168.8
936.294	14
936.464	29.11
936.634	19.81
936.804	12.64
936.974	-3.25
937.144	58.37
937.314	38.41
937.484	18.26
937.655	18.07
937.825	77.35
937.995	18.84
938.165	78.9
938.334	39.57
938.504	47.52
938.674	49.84
938.844	42.48
939.014	100.99
939.184	106.03
939.354	130.25
939.524	97.12
939.694	41.12
939.863	60.11
940.033	119.98
940.203	117.46
940.373	115.52
940.542	95.37
940.712	63.99
940.882	97.7
941.051	130.25
941.221	87.62
941.391	138.19
941.56	72.51
941.73	86.85
941.899	176.94
942.069	52.36
942.238	97.12
942.408	55.65
942.577	122.11
942.747	83.55
942.916	54.1
943.086	63.21
943.255	98.67
943.425	59.72
943.594	21.17
943.763	-4.02
943.933	22.72
944.102	-13.32
944.271	64.37
944.441	56.04
944.61	33.57
944.779	66.12
944.948	110.29
945.117	27.17
945.287	67.67
945.456	11.48
945.625	49.84
945.794	57.59
945.963	34.54
946.132	73.48
946.301	19.62
946.47	80.84
946.639	3.73
946.808	41.32
946.977	61.08
947.146	99.25
947.315	70.96
947.484	59.14
947.653	44.61
947.822	57.2
947.991	43.45
948.16	99.83
948.329	75.8
948.498	62.05
948.666	52.94
948.835	83.36
949.004	29.69
949.173	16.9
949.341	63.6
949.51	87.82
949.679	92.27
949.847	77.35
950.016	119.2
950.185	101.96
950.353	12.64
950.522	39.38
950.69	84.33
950.859	43.06
951.028	115.91
951.196	65.73
951.365	19.62
951.533	33.76
951.701	86.07
951.87	60.11
952.038	33.57
952.207	70.77
952.375	109.13
952.543	47.32
952.712	66.7
952.88	52.55
953.048	92.85
953.217	55.27
953.385	55.85
953.553	104.67
953.721	24.65
953.89	63.02
954.058	27.75
954.226	26.98
954.394	58.95
954.562	15.94
954.73	48.87
954.898	64.57
955.067	76
955.235	40.93
955.403	92.66
955.571	119.78
955.739	62.44
955.907	33.37
956.075	29.89
956.243	31.82
956.41	57.4
956.578	42.09
956.746	46.55
956.914	34.54
957.082	82.97
957.25	71.73
957.418	55.65
957.585	66.7
957.753	99.25
957.921	28.53
958.089	63.99
958.256	89.95
958.424	57.4
958.592	82.97
958.759	45.19
958.927	89.56
959.095	47.71
959.262	72.32
959.43	55.85
959.597	11.09
959.765	83.17
959.932	18.07
960.1	98.28
960.267	70.96
960.435	77.35
960.602	104.48
960.77	41.9
960.937	23.88
961.104	60.11
961.272	8.77
961.439	50.62
961.606	86.65
961.774	106.42
961.941	56.82
962.108	70.18
962.275	84.33
962.443	125.6
962.61	104.87
962.777	154.46
962.944	105.64
963.111	81.23
963.278	88.78
963.446	98.28
963.613	81.03
963.78	103.32
963.947	97.7
964.114	70.38
964.281	140.13
964.448	102.93
964.615	51
964.782	86.85
964.949	105.06
965.116	100.6
965.282	129.86
965.449	70.38
965.616	53.72
965.783	58.17
965.95	92.08
966.117	30.27
966.283	75.61
966.45	88.98
966.617	67.08
966.784	133.15
966.95	107
967.117	123.08
967.284	70.57
967.45	79.1
967.617	107.77
967.784	124.05
967.95	157.95
968.117	92.66
968.283	133.54
968.45	179.07
968.616	90.33
968.783	145.94
968.949	108.35
969.116	154.66
969.282	92.85
969.449	112.62
969.615	88.98
969.781	76.38
969.948	69.22
970.114	54.88
970.28	153.69
970.447	116.68
970.613	140.71
970.779	82.58
970.945	134.12
971.112	112.23
971.278	91.5
971.444	91.69
971.61	143.03
971.776	92.08
971.942	118.23
972.108	140.32
972.275	89.75
972.441	105.64
972.607	165.51
972.773	83.55
972.939	110.29
973.105	93.63
973.271	53.91
973.437	82.58
973.602	79.68
973.768	101.77
973.934	80.26
974.1	105.45
974.266	19.42
974.432	119.78
974.598	78.52
974.763	82.2
974.929	82.78
975.095	156.6
975.261	64.76
975.426	53.91
975.592	97.7
975.758	148.65
975.923	25.04
976.089	84.13
976.255	113.78
976.42	75.42
976.586	99.44
976.751	98.86
976.917	177.91
977.082	112.03
977.248	65.34
977.413	31.44
977.579	93.63
977.744	108.16
977.91	37.25
978.075	76.58
978.24	100.8
978.406	96.73
978.571	57.79
978.736	38.02
978.902	102.54
979.067	48.1
979.232	33.57
979.397	93.82
979.563	137.61
979.728	69.22
979.893	85.1
980.058	49.84
980.223	98.47
980.388	88.01
980.554	89.56
980.719	81.81
980.884	97.7
981.049	130.05
981.214	43.45
981.379	84.91
981.544	90.53
981.709	68.44
981.874	75.8
982.039	85.3
982.204	124.05
982.368	61.85
982.533	65.34
982.698	121.92
982.863	101.96
983.028	84.52
983.193	99.05
983.357	82.39
983.522	81.03
983.687	88.4
983.852	73.67
984.016	72.9
984.181	74.06
984.346	95.57
984.51	108.74
984.675	104.28
984.839	113
985.004	98.28
985.168	136.25
985.333	98.08
985.498	94.98
985.662	107.38
985.827	75.61
985.991	93.24
986.155	76
986.32	117.46
986.484	124.05
986.649	105.06
986.813	40.93
986.977	91.11
987.142	90.92
987.306	59.72
987.47	62.44
987.634	84.33
987.799	99.83
987.963	89.95
988.127	100.02
988.291	149.04
988.455	83.94
988.62	67.67
988.784	97.31
988.948	96.53
989.112	79.1
989.276	103.51
989.44	80.84
989.604	69.41
989.768	101.77
989.932	135.48
990.096	52.36
990.26	38.99
990.424	48.87
990.588	79.29
990.752	142.65
990.915	109.32
991.079	61.85
991.243	73.87
991.407	108.16
991.571	61.47
991.734	114.36
991.898	95.18
992.062	145.36
992.226	76.38
992.389	70.96
992.553	21.75
992.717	34.15
992.88	80.45
993.044	81.42
993.207	50.62
993.371	89.95
993.535	97.12
993.698	77.35
993.862	134.7
994.025	103.51
994.189	69.8
994.352	82.97
994.515	77.74
994.679	109.9
994.842	65.15
995.006	86.27
995.169	40.93
995.332	64.37
995.496	100.02
995.659	31.82
995.822	55.65
995.985	65.53
996.149	110.29
996.312	63.4
996.475	118.62
996.638	38.99
996.801	122.11
996.964	108.16
997.128	69.02
997.291	63.4
997.454	84.13
997.617	38.8
997.78	84.91
997.943	41.12
998.106	85.68
998.269	76.38
998.432	42.09
998.595	73.87
998.758	47.9
998.92	42.48
999.083	21.36
999.246	60.5
999.409	14.77
999.572	28.92
999.735	57.01
999.897	66.12
1000.06	36.67
1000.223	51.39
1000.386	94.21
1000.548	75.42
1000.711	73.28
1000.874	54.69
1001.036	-7.12
1001.199	88.98
1001.361	32.6
1001.524	81.23
1001.687	91.3
1001.849	50.62
1002.012	84.13
1002.174	45
1002.337	85.68
1002.499	52.55
1002.661	90.72
1002.824	12.45
1002.986	41.51
1003.149	43.45
1003.311	17.68
1003.473	94.98
1003.636	44.42
1003.798	76
1003.96	63.21
1004.123	63.02
1004.285	30.66
1004.447	35.5
1004.609	51
1004.771	84.52
1004.933	18.45
1005.096	58.37
1005.258	10.7
1005.42	41.9
1005.582	67.08
1005.744	54.69
1005.906	26.4
1006.068	50.42
1006.23	-0.53
1006.392	4.89
1006.554	13.61
1006.716	82.78
1006.878	48.1
1007.04	27.75
1007.202	38.41
1007.363	26.4
1007.525	24.65
1007.687	45.97
1007.849	88.98
1008.011	4.31
1008.172	28.92
1008.334	30.47
1008.496	71.15
1008.658	4.5
1008.819	20.2
1008.981	8.57
1009.143	14
1009.304	40.74
1009.466	58.37
1009.627	77.35
1009.789	123.66
1009.95	59.34
1010.112	32.4
1010.273	42.87
1010.435	29.11
1010.596	43.06
1010.758	-7.31
1010.919	26.98
1011.081	13.42
1011.242	29.89
1011.403	56.24
1011.565	17.87
1011.726	67.28
1011.887	18.84
1012.049	16.71
1012.21	47.52
1012.371	82.97
1012.532	-22.43
1012.693	42.29
1012.855	12.25
1013.016	24.85
1013.177	83.36
1013.338	26.2
1013.499	80.26
1013.66	61.08
1013.821	50.04
1013.982	25.82
1014.143	45
1014.304	-0.73
1014.465	45.39
1014.626	64.37
1014.787	31.63
1014.948	75.61
1015.109	-14.29
1015.27	65.92
1015.431	-0.34
1015.592	26.59
1015.752	70.77
1015.913	34.15
1016.074	30.85
1016.235	22.52
1016.395	16.71
1016.556	11.48
1016.717	14.19
1016.877	76.58
1017.038	4.12
1017.199	45.77
1017.359	28.34
1017.52	32.99
1017.681	-12.35
1017.841	14.58
1018.002	10.51
1018.162	10.7
1018.323	79.48
1018.483	40.15
1018.644	23.88
1018.804	18.26
1018.964	6.44
1019.125	10.9
1019.285	51.59
1019.446	20
1019.606	-9.45
1019.766	-14.29
1019.926	33.57
1020.087	46.74
1020.247	-20.49
1020.407	33.76
1020.567	57.98
1020.728	14.77
1020.888	-0.73
1021.048	-15.84
1021.208	1.4
1021.368	-0.34
1021.528	72.7
1021.688	82.2
1021.848	69.02
1022.008	23.3
1022.168	-1.31
1022.328	12.25
1022.488	30.85
1022.648	43.45
1022.808	31.24
1022.968	45.97
1023.128	1.21
1023.288	-16.42
1023.448	16.52
1023.608	34.73
1023.767	37.44
1023.927	17.87
1024.087	-26.49
1024.247	-7.9
1024.406	5.67
1024.566	3.92
1024.726	-2.66
1024.885	11.87
1025.045	41.51
1025.205	25.62
1025.364	18.45
1025.524	39.96
1025.683	12.06
1025.843	17.87
1026.003	29.5
1026.162	41.9
1026.321	44.42
1026.481	28.92
1026.64	0.24
1026.8	29.69
1026.959	12.64
1027.119	32.6
1027.278	-3.63
1027.437	-27.46
1027.597	23.49
1027.756	26.98
1027.915	43.45
1028.074	58.17
1028.234	-4.21
1028.393	28.92
1028.552	19.62
1028.711	-28.82
1028.87	56.43
1029.03	-12.55
1029.189	16.9
1029.348	-65.44
1029.507	-15.26
1029.666	28.14
1029.825	-8.09
1029.984	-9.64
1030.143	12.06
1030.302	28.92
1030.461	-31.14
1030.62	11.29
1030.779	22.33
1030.938	-29.79
1031.097	-15.45
1031.255	27.75
1031.414	53.72
1031.573	46.55
1031.732	-4.99
1031.891	2.76
1032.049	57.79
1032.208	25.62
1032.367	0.63
1032.525	2.57
1032.684	-19.91
1032.843	29.89
1033.001	-35.41
1033.16	138.58
1033.319	56.43
1033.477	52.75
1033.636	-6.54
1033.794	-32.11
1033.953	40.35
1034.111	27.37
1034.27	-11
1034.428	38.41
1034.587	-0.53
1034.745	49.84
1034.903	16.32
1035.062	44.42
1035.22	-25.91
1035.378	13.61
1035.537	-16.03
1035.695	45.97
1035.853	-4.21
1036.011	43.06
1036.17	21.36
1036.328	-36.76
1036.486	27.75
1036.644	28.53
1036.802	-45.68
1036.96	-1.11
1037.119	19.81
1037.277	-16.61
1037.435	-39.28
1037.593	-25.91
1037.751	-13.13
1037.909	32.79
1038.067	32.79
