Data from oakcork_FLMT105791__212__17-32-43-056.txt Node

Date: Mon Mar 20 17:32:43 GMT 2023
User: antho
Spectrometer: FLMT10579
Trigger mode: 0
Integration Time (sec): 1.000000E-1
Scans to average: 10
Electric dark correction enabled: true
Nonlinearity correction enabled: false
Boxcar width: 0
XAxis mode: Wavelengths
Number of Pixels in Spectrum: 3648
>>>>>Begin Spectral Data<<<<<
345.248	-155.6
345.464	-155.6
345.681	-155.6
345.898	-165.09
346.114	-114.13
346.331	-29.85
346.548	24.59
346.764	-3.5
346.981	-12.22
347.197	-5.05
347.414	12.58
347.631	-16.1
347.847	52.68
348.064	-10.48
348.28	18.2
348.497	-37.99
348.713	7.15
348.93	39.12
349.146	17.42
349.363	21.1
349.579	25.75
349.796	0.76
350.012	-28.88
350.229	34.66
350.445	12.58
350.661	-0.98
350.878	1.92
351.094	25.95
351.311	17.03
351.527	20.52
351.743	3.08
351.96	31.37
352.176	26.72
352.392	12.58
352.609	64.89
352.825	15.48
353.041	7.35
353.257	-4.86
353.474	2.31
353.69	8.7
353.906	18
354.122	-24.23
354.339	39.9
354.555	24.2
354.771	3.67
354.987	72.25
355.203	45.71
355.42	-13
355.636	-5.05
355.852	-39.93
356.068	12
356.284	-0.21
356.5	63.34
356.716	44.74
356.932	-3.7
357.148	13.93
357.364	30.6
357.58	70.31
357.796	44.93
358.012	59.08
358.228	33.89
358.444	-58.53
358.66	66.05
358.876	37.18
359.092	12.77
359.308	21.88
359.524	28.46
359.74	13.93
359.956	1.15
360.172	13.35
360.388	47.65
360.604	3.67
360.819	74.77
361.035	18.2
361.251	30.6
361.467	1.15
361.683	56.36
361.898	17.81
362.114	44.93
362.33	21.49
362.546	64.89
362.762	25.56
362.977	19.55
363.193	-13
363.409	40.09
363.624	-17.84
363.84	14.51
364.056	-1.76
364.271	33.31
364.487	21.1
364.703	-4.67
364.918	-22.3
365.134	18.39
365.35	19.36
365.565	127.86
365.781	-7.57
365.996	27.11
366.212	66.83
366.427	1.53
366.643	4.05
366.858	12.19
367.074	4.05
367.289	64.31
367.505	119.14
367.72	-34.31
367.936	21.88
368.151	62.76
368.367	15.87
368.582	33.11
368.798	-2.53
369.013	80.39
369.228	5.99
369.444	29.82
369.659	51.52
369.874	33.11
370.09	67.21
370.305	-24.82
370.52	-9.9
370.736	64.89
370.951	22.46
371.166	73.61
371.381	72.06
371.597	31.56
371.812	-1.18
372.027	3.08
372.242	33.11
372.458	81.16
372.673	24.78
372.888	13.16
373.103	48.81
373.318	102.48
373.533	45.32
373.749	20.91
373.964	-19.2
374.179	82.13
374.394	-13.58
374.609	62.95
374.824	8.9
375.039	62.95
375.254	9.86
375.469	67.99
375.684	57.14
375.899	57.72
376.114	29.43
376.329	28.27
376.544	66.44
376.759	35.05
376.974	34.66
377.189	48.81
377.404	25.36
377.619	74
377.834	-7.38
378.049	0.37
378.264	17.23
378.478	50.16
378.693	14.9
378.908	48.61
379.123	33.5
379.338	76.13
379.553	50.16
379.767	39.12
379.982	56.75
380.197	52.3
380.412	23.81
380.626	45.71
380.841	102.28
381.056	48.81
381.271	88.72
381.485	8.51
381.7	1.92
381.915	39.12
382.129	21.1
382.344	48.81
382.559	28.46
382.773	63.15
382.988	-1.95
383.202	15.1
383.417	-7.77
383.632	103.25
383.846	42.03
384.061	30.01
384.275	32.73
384.49	54.62
384.704	71.09
384.919	63.15
385.133	28.27
385.348	44.55
385.562	23.81
385.777	75.93
385.991	35.44
386.206	29.63
386.42	33.89
386.634	73.03
386.849	34.47
387.063	61.79
387.277	27.11
387.492	21.3
387.706	-25.01
387.92	13.16
388.135	62.56
388.349	63.53
388.563	49.58
388.778	31.37
388.992	42.03
389.206	67.8
389.42	109.45
389.635	54.62
389.849	75.74
390.063	72.45
390.277	58.5
390.491	111
390.706	64.31
390.92	75.35
391.134	48.81
391.348	87.75
391.562	15.1
391.776	46.68
391.99	31.76
392.205	72.25
392.419	29.63
392.633	34.66
392.847	98.41
393.061	34.08
393.275	102.86
393.489	25.56
393.703	74
393.917	63.34
394.131	-12.42
394.345	60.82
394.559	87.17
394.773	30.6
394.986	59.85
395.2	47.06
395.414	109.06
395.628	35.63
395.842	36.8
396.056	44.55
396.27	3.08
396.484	60.82
396.697	79.03
396.911	84.85
397.125	63.34
397.339	71.67
397.553	40.67
397.766	99.57
397.98	91.63
398.194	102.09
398.408	44.74
398.621	92.4
398.835	71.86
399.049	82.71
399.262	122.04
399.476	108.29
399.69	117.78
399.903	160.02
400.117	91.43
400.331	84.85
400.544	80.97
400.758	175.13
400.971	91.24
401.185	134.25
401.398	55.2
401.612	131.54
401.826	121.27
402.039	97.05
402.253	79.23
402.466	121.27
402.68	94.15
402.893	88.72
403.106	108.48
403.32	98.21
403.533	131.93
403.747	95.5
403.96	91.82
404.174	121.85
404.387	54.23
404.6	83.49
404.814	153.82
405.027	100.93
405.24	112.55
405.454	85.43
405.667	119.72
405.88	43.38
406.094	107.32
406.307	124.95
406.52	110.81
406.733	100.54
406.947	37.76
407.16	159.83
407.373	129.02
407.586	89.88
407.799	87.36
408.012	141.03
408.226	114.29
408.439	147.62
408.652	57.33
408.865	111
409.078	147.62
409.291	118.94
409.504	88.33
409.717	125.92
409.93	127.66
410.143	128.24
410.357	72.06
410.57	55.78
410.783	89.5
410.996	109.64
411.209	99.38
411.421	134.44
411.634	122.24
411.847	78.65
412.06	109.26
412.273	127.86
412.486	133.48
412.699	196.25
412.912	123.01
413.125	106.93
413.338	142.78
413.55	163.89
413.763	116.81
413.976	121.85
414.189	119.72
414.402	118.36
414.615	148.01
414.827	92.4
415.04	140.84
415.253	134.44
415.466	158.28
415.678	181.53
415.891	133.28
416.104	117.59
416.316	154.98
416.529	131.73
416.742	141.23
416.954	154.59
417.167	124.76
417.38	129.79
417.592	160.02
417.805	108.87
418.017	89.3
418.23	178.23
418.442	107.71
418.655	119.53
418.868	134.64
419.08	155.95
419.293	165.44
419.505	144.52
419.718	152.85
419.93	181.53
420.142	117.98
420.355	201.29
420.567	169.13
420.78	152.08
420.992	152.66
421.205	177.26
421.417	83.49
421.629	121.46
421.842	125.34
422.054	100.34
422.266	157.5
422.479	192.37
422.691	124.76
422.903	182.69
423.115	150.91
423.328	159.05
423.54	144.13
423.752	121.66
423.964	120.11
424.177	138.71
424.389	140.45
424.601	237.91
424.813	173.19
425.025	174.16
425.238	170.68
425.45	140.84
425.662	118.17
425.874	405.88
426.086	151.69
426.298	166.61
426.51	158.66
426.722	146.07
426.934	133.09
427.146	150.14
427.358	115.26
427.57	169.13
427.782	142.39
427.994	162.34
428.206	146.84
428.418	100.34
428.63	189.47
428.842	194.31
429.054	177.46
429.266	195.09
429.478	146.65
429.69	152.85
429.902	103.44
430.114	173.19
430.325	164.67
430.537	128.44
430.749	132.7
430.961	88.14
431.173	137.35
431.384	151.11
431.596	92.21
431.808	165.25
432.02	157.31
432.231	194.31
432.443	238.49
432.655	182.49
432.867	168.16
433.078	196.44
433.29	260.19
433.502	205.74
433.713	227.64
433.925	157.69
434.136	233.84
434.348	132.89
434.56	143.36
434.771	251.08
434.983	135.22
435.194	158.47
435.406	183.27
435.617	223.57
435.829	265.61
436.04	224.34
436.252	221.63
436.463	241.2
436.675	224.54
436.886	216.98
437.098	218.34
437.309	274.52
437.521	190.24
437.732	217.37
437.943	198.77
438.155	219.89
438.366	166.22
438.578	239.84
438.789	201.87
439	203.42
439.211	204.39
439.423	194.89
439.634	238.1
439.845	236.16
440.057	232.29
440.268	248.95
440.479	201.87
440.69	204.39
440.902	200.12
441.113	210.97
441.324	219.69
441.535	256.7
441.746	277.24
441.957	196.64
442.168	205.55
442.38	237.91
442.591	245.66
442.802	211.94
443.013	201.67
443.224	259.02
443.435	191.41
443.646	243.91
443.857	240.23
444.068	228.02
444.279	234.81
444.49	311.34
444.701	230.16
444.912	303.59
445.123	268.52
445.334	266.39
445.545	255.54
445.756	242.17
445.967	197.22
446.178	255.15
446.388	258.64
446.599	276.65
446.81	296.22
447.021	222.41
447.232	276.27
447.443	308.43
447.653	253.02
447.864	295.64
448.075	275.3
448.286	305.14
448.496	293.7
448.707	303.39
448.918	269.68
449.129	357.64
449.339	255.34
449.55	258.83
449.761	242.17
449.971	324.7
450.182	270.26
450.393	305.52
450.603	299.13
450.814	326.45
451.024	306.88
451.235	324.51
451.446	324.51
451.656	364.62
451.867	291.57
452.077	297.19
452.288	349.31
452.498	336.52
452.709	288.28
452.919	286.73
453.13	277.24
453.34	316.57
453.55	232.09
453.761	310.56
453.971	290.41
454.182	342.72
454.392	309.79
454.602	352.02
454.813	314.24
455.023	355.32
455.233	282.27
455.444	306.3
455.654	261.93
455.864	309.59
456.075	296.61
456.285	305.52
456.495	310.95
456.705	324.7
456.916	366.94
457.126	386.12
457.336	313.66
457.546	251.86
457.756	284.99
457.967	353.19
458.177	311.34
458.387	315.99
458.597	277.43
458.807	314.63
459.017	298.55
459.227	281.89
459.437	295.64
459.647	318.12
459.857	344.66
460.068	305.72
460.278	377.98
460.488	324.32
460.698	416.35
460.908	301.84
461.117	292.15
461.327	293.32
461.537	336.72
461.747	333.04
461.957	331.29
462.167	415.57
462.377	360.55
462.587	333.42
462.797	361.52
463.007	341.17
463.216	381.28
463.426	391.35
463.636	352.41
463.846	313.47
464.056	303.97
464.265	371.59
464.475	298.55
464.685	345.44
464.895	352.99
465.104	340.98
465.314	385.93
465.524	334.78
465.733	317.92
465.943	385.93
466.153	405.11
466.362	392.52
466.572	369.07
466.782	373.53
466.991	350.47
467.201	407.63
467.41	315.4
467.62	391.16
467.829	347.57
468.039	393.1
468.249	370.23
468.458	362.48
468.668	397.55
468.877	383.99
469.086	444.44
469.296	413.25
469.505	363.65
469.715	444.05
469.924	375.85
470.134	437.66
470.343	424.29
470.552	384.96
470.762	370.04
470.971	349.89
471.18	401.43
471.39	401.43
471.599	342.92
471.808	406.08
472.018	377.21
472.227	441.15
472.436	442.7
472.645	414.22
472.855	385.73
473.064	459.16
473.273	407.24
473.482	435.92
473.691	460.71
473.901	471.95
474.11	437.85
474.319	520.2
474.528	448.7
474.737	489.58
474.946	445.02
475.155	441.34
475.364	499.46
475.573	480.28
475.783	480.86
475.992	443.86
476.201	522.52
476.41	460.52
476.619	460.71
476.828	458.39
477.037	442.89
477.245	471.56
477.454	523.3
477.663	478.93
477.872	493.07
478.081	559.91
478.29	457.03
478.499	556.23
478.708	509.35
478.917	563.01
479.125	491.52
479.334	492.49
479.543	515.16
479.752	541.12
479.961	502.95
480.169	566.69
480.378	509.35
480.587	631.6
480.796	563.98
481.004	533.56
481.213	560.69
481.422	565.73
481.63	545.58
481.839	577.16
482.048	587.04
482.256	585.68
482.465	582
482.674	573.09
482.882	597.11
483.091	624.04
483.299	584.71
483.508	613.39
483.716	600.02
483.925	566.11
484.134	571.54
484.342	575.22
484.551	606.61
484.759	617.46
484.967	604.28
485.176	631.41
485.384	646.91
485.593	623.46
485.801	632.18
486.01	595.56
486.218	548.09
486.426	526.98
486.635	549.64
486.843	544.8
487.051	581.61
487.26	547.71
487.468	595.56
487.676	635.09
487.885	604.28
488.093	619.01
488.301	613.58
488.509	624.82
488.717	673.26
488.926	646.91
489.134	627.34
489.342	626.17
489.55	620.56
489.758	661.24
489.967	641.09
490.175	736.61
490.383	665.89
490.591	701.74
490.799	623.07
491.007	727.7
491.215	701.74
491.423	650.59
491.631	682.17
491.839	693.02
492.047	709.68
492.255	663.18
492.463	632.57
492.671	679.65
492.879	711.81
493.087	670.93
493.295	706.97
493.503	710.07
493.711	717.24
493.919	760.64
494.127	751.53
494.334	734.29
494.542	676.55
494.75	742.81
494.958	734.87
495.166	781.56
495.374	755.02
495.581	758.31
495.789	768.19
495.997	808.49
496.205	723.82
496.412	728.09
496.62	772.65
496.828	757.34
497.035	762.38
497.243	784.66
497.451	754.44
497.658	773.62
497.866	737.77
498.074	790.86
498.281	716.07
498.489	820.7
498.696	773.23
498.904	756.95
499.112	761.6
499.319	800.16
499.527	762.96
499.734	806.17
499.942	740.49
500.149	734.29
500.357	768.77
500.564	738.74
500.771	767.03
500.979	761.41
501.186	750.56
501.394	776.52
501.601	760.25
501.808	812.37
502.016	771.49
502.223	743.78
502.43	775.94
502.638	734.87
502.845	746.69
503.052	842.98
503.26	770.71
503.467	858.67
503.674	772.65
503.881	801.71
504.089	869.13
504.296	816.24
504.503	772.84
504.71	794.54
504.917	759.47
505.125	791.25
505.332	792.02
505.539	832.9
505.746	878.82
505.953	879.98
506.16	839.1
506.367	883.08
506.574	904.98
506.781	901.3
506.988	795.7
507.195	850.53
507.402	861.38
507.609	858.87
507.816	861
508.023	824.38
508.23	813.72
508.437	806.94
508.644	872.43
508.851	929.58
509.058	884.25
509.265	864.87
509.472	897.42
509.679	965.62
509.885	878.05
510.092	870.68
510.299	870.49
510.506	890.64
510.713	919.7
510.92	899.16
511.126	936.56
511.333	928.42
511.54	943.15
511.746	967.17
511.953	976.66
512.16	1011.54
512.367	932.88
512.573	946.25
512.78	924.93
512.987	926.87
513.193	932.1
513.4	867
513.606	921.45
513.813	945.86
514.02	950.31
514.226	1015.8
514.433	970.46
514.639	889.48
514.846	975.69
515.052	912.92
515.259	945.47
515.465	925.51
515.672	939.27
515.878	1046.99
516.085	962.52
516.291	1021.23
516.497	960.97
516.704	952.83
516.91	906.72
517.117	897.42
517.323	840.85
517.529	857.12
517.736	907.5
517.942	915.63
518.148	905.75
518.354	931.91
518.561	898.39
518.767	935.78
518.973	985.38
519.179	993.71
519.386	981.12
519.592	920.67
519.798	989.26
520.004	1041.96
520.21	1005.34
520.417	1048.35
520.623	1065.59
520.829	1078.77
521.035	1025.49
521.241	1075.86
521.447	1103.96
521.653	1166.54
521.859	1087.87
522.065	1102.6
522.271	1184.36
522.477	1151.81
522.683	1169.05
522.889	1115.39
523.095	1139.22
523.301	1153.55
523.507	1075.86
523.713	1150.65
523.919	1096.01
524.125	1183.59
524.331	1139.22
524.537	1235.51
524.742	1215.55
524.948	1209.35
525.154	1214.59
525.36	1298.09
525.566	1187.07
525.772	1296.93
525.977	1173.9
526.183	1206.06
526.389	1254.5
526.595	1212.84
526.8	1178.55
527.006	1145.61
527.212	1106.67
527.417	1127.4
527.623	1141.16
527.829	1188.24
528.034	1217.69
528.24	1224.47
528.446	1212.07
528.651	1307.58
528.857	1293.05
529.062	1315.72
529.268	1264.77
529.473	1317.27
529.679	1294.41
529.884	1340.13
530.09	1337.61
530.295	1374.81
530.501	1340.71
530.706	1338.2
530.912	1309.72
531.117	1337.61
531.323	1338.97
531.528	1356.8
531.733	1360.67
531.939	1345.17
532.144	1351.18
532.35	1387.99
532.555	1386.63
532.76	1349.43
532.966	1350.4
533.171	1335.87
533.376	1313.01
533.581	1321.34
533.787	1329.48
533.992	1391.48
534.197	1414.53
534.402	1360.86
534.607	1388.38
534.813	1440.69
535.018	1386.83
535.223	1399.61
535.428	1424.99
535.633	1432.36
535.838	1440.49
536.043	1449.21
536.249	1510.05
536.454	1418.02
536.659	1473.24
536.864	1425.19
537.069	1433.52
537.274	1447.28
537.479	1451.34
537.684	1478.86
537.889	1437.39
538.094	1520.32
538.299	1456.96
538.504	1476.34
538.708	1459.68
538.913	1511.79
539.118	1490.48
539.323	1480.99
539.528	1434.29
539.733	1492.42
539.938	1462
540.142	1488.74
540.347	1443.79
540.552	1441.08
540.757	1447.28
540.962	1412.98
541.166	1411.04
541.371	1414.14
541.576	1441.66
541.781	1378.88
541.985	1484.09
542.19	1457.93
542.395	1532.14
542.599	1562.17
542.804	1499.59
543.008	1530.59
543.213	1455.8
543.418	1468.2
543.622	1522.06
543.827	1476.53
544.031	1566.82
544.236	1556.74
544.44	1531.94
544.645	1560.42
544.849	1494.94
545.054	1544.34
545.258	1645.09
545.463	1602.66
545.667	1498.81
545.872	1534.07
546.076	1540.86
546.281	1554.42
546.485	1520.9
546.689	1553.64
546.894	1602.27
547.098	1581.35
547.302	1525.55
547.507	1567.98
547.711	1575.54
547.915	1588.13
548.119	1516.83
548.324	1543.76
548.528	1578.25
548.732	1543.76
548.936	1612.93
549.141	1614.67
549.345	1538.72
549.549	1575.73
549.753	1582.12
549.957	1669.89
550.161	1680.55
550.366	1590.26
550.57	1583.67
550.774	1578.25
550.978	1572.24
551.182	1616.8
551.386	1591.42
551.59	1576.89
551.794	1541.44
551.998	1603.05
552.202	1601.3
552.406	1581.35
552.61	1607.5
552.814	1613.7
553.018	1611.19
553.222	1591.04
553.426	1575.92
553.63	1667.57
553.833	1572.24
554.037	1567.21
554.241	1633.47
554.445	1597.24
554.649	1589.87
554.853	1588.13
555.056	1647.61
555.26	1634.63
555.464	1608.09
555.668	1616.22
555.871	1610.6
556.075	1641.99
556.279	1579.41
556.483	1573.02
556.686	1574.96
556.89	1581.54
557.094	1603.44
557.297	1545.51
557.501	1596.65
557.704	1506.17
557.908	1587.16
558.112	1545.31
558.315	1592.2
558.519	1550.74
558.722	1558.68
558.926	1530.97
559.129	1501.14
559.333	1476.92
559.536	1487.38
559.74	1467.04
559.943	1505.01
560.147	1493.58
560.35	1533.49
560.553	1470.14
560.757	1440.49
560.96	1548.61
561.164	1484.67
561.367	1568.56
561.57	1520.12
561.774	1520.71
561.977	1517.61
562.18	1440.11
562.384	1554.22
562.587	1461.23
562.79	1444.76
562.993	1466.84
563.197	1511.99
563.4	1543.96
563.603	1555.97
563.806	1576.89
564.009	1448.05
564.212	1496.68
564.416	1424.41
564.619	1464.52
564.822	1443.4
565.025	1504.04
565.228	1455.99
565.431	1459.87
565.634	1372.88
565.837	1381.4
566.04	1390.31
566.243	1392.06
566.446	1350.4
566.649	1437.2
566.852	1347.3
567.055	1403.1
567.258	1415.69
567.461	1454.25
567.664	1486.22
567.867	1366.87
568.07	1416.47
568.273	1408.53
568.475	1421.31
568.678	1343.62
568.881	1340.71
569.084	1350.4
569.287	1260.5
569.489	1313.98
569.692	1373.46
569.895	1380.63
570.098	1296.54
570.3	1325.21
570.503	1260.12
570.706	1263.22
570.909	1312.62
571.111	1223.5
571.314	1221.75
571.516	1242.1
571.719	1284.14
571.922	1270.38
572.124	1241.9
572.327	1267.28
572.529	1241.52
572.732	1230.28
572.935	1281.04
573.137	1344.78
573.34	1252.17
573.542	1290.15
573.745	1255.47
573.947	1258.76
574.15	1218.27
574.352	1240.93
574.554	1321.53
574.757	1229.89
574.959	1201.02
575.162	1185.52
575.364	1204.7
575.566	1324.44
575.769	1195.6
575.971	1222.72
576.173	1140.38
576.376	1206.64
576.578	1232.99
576.78	1236.48
576.982	1130.69
577.185	1166.15
577.387	1169.83
577.589	1176.8
577.791	1186.49
577.993	1204.32
578.196	1138.44
578.398	1165.76
578.6	1182.62
578.802	1133.79
579.004	1135.92
579.206	1135.92
579.408	1175.06
579.61	1135.92
579.812	1195.6
580.014	1135.34
580.216	1152.59
580.418	1187.27
580.62	1153.75
580.822	1117.13
581.024	1172.93
581.226	1192.5
581.428	1143.29
581.63	1227.57
581.832	1113.84
582.034	1171.19
582.236	1170.99
582.438	1217.69
582.64	1175.45
582.841	1241.13
583.043	1269.22
583.245	1249.07
583.447	1213.42
583.649	1199.67
583.85	1219.82
584.052	1234.73
584.254	1140.96
584.456	1222.53
584.657	1133.99
584.859	1177.97
585.061	1160.92
585.262	1161.3
585.464	1116.55
585.666	1150.26
585.867	1150.07
586.069	1222.34
586.27	1149.87
586.472	1154.91
586.674	1156.85
586.875	1146.39
587.077	1145.22
587.278	1135.15
587.48	1137.09
587.681	1225.82
587.883	1131.08
588.084	1069.86
588.285	1112.87
588.487	1108.8
588.688	1150.45
588.89	1047.58
589.091	1055.33
589.292	1025.29
589.494	1015.41
589.695	992.74
589.896	956.71
590.098	948.18
590.299	1012.7
590.5	950.31
590.702	1012.7
590.903	1041.96
591.104	1101.82
591.305	1042.93
591.507	1109.96
591.708	1089.04
591.909	1084
592.11	1118.87
592.311	1095.43
592.512	1043.89
592.714	1010.96
592.915	1041.96
593.116	1009.6
593.317	1068.31
593.518	1019.68
593.719	1025.49
593.92	1054.16
594.121	1103.57
594.322	1053.39
594.523	1038.08
594.724	1005.14
594.925	1018.32
595.126	1057.46
595.327	1055.52
595.528	1059.97
595.729	1051.06
595.929	1032.27
596.13	1050.68
596.331	1018.13
596.532	1049.51
596.733	1093.11
596.934	1071.41
597.135	1068.31
597.335	1089.81
597.536	1043.12
597.737	1058.81
597.938	1021.81
598.138	1070.05
598.339	1069.86
598.54	1048.16
598.74	1020.45
598.941	1037.69
599.142	1086.71
599.342	1079.54
599.543	996.81
599.744	1030.53
599.944	1025.68
600.145	1010.96
600.345	1032.08
600.546	1115.77
600.746	1087.1
600.947	1123.33
601.147	1066.37
601.348	1091.56
601.548	1056.29
601.749	1054.36
601.949	1002.63
602.15	1010.18
602.35	1038.86
602.551	1066.37
602.751	1028.39
602.951	1014.64
603.152	982.09
603.352	1053.39
603.552	1043.51
603.753	1082.64
603.953	1065.59
604.153	1066.56
604.354	1047.58
604.554	1031.11
604.754	1040.99
604.954	1021.42
605.155	1076.06
605.355	1023.36
605.555	1084.58
605.755	1084.97
605.955	1050.68
606.155	1093.3
606.356	1059.39
606.556	1044.86
606.756	1064.24
606.956	989.26
607.156	1080.12
607.356	1016.77
607.556	1028.39
607.756	1011.34
607.956	1092.33
608.156	1045.44
608.356	998.56
608.556	1073.34
608.756	1016.77
608.956	1006.11
609.156	1024.71
609.356	989.26
609.556	1010.38
609.755	1011.34
609.955	999.53
610.155	1008.05
610.355	1029.94
610.555	982.67
610.755	1006.89
610.954	947.6
611.154	1027.81
611.354	1049.13
611.554	980.54
611.753	993.91
611.953	955.74
612.153	1037.31
612.352	986.74
612.552	946.44
612.752	944.5
612.951	1003.01
613.151	997.98
613.351	936.56
613.55	943.92
613.75	977.83
613.949	975.5
614.149	971.04
614.348	967.95
614.548	953.41
614.747	918.54
614.947	944.7
615.146	892.58
615.346	965.62
615.545	954
615.745	963.88
615.944	964.26
616.144	948.96
616.343	982.86
616.542	926.48
616.742	953.22
616.941	917.76
617.14	863.71
617.34	941.01
617.539	940.63
617.738	909.05
617.938	983.44
618.137	922.8
618.336	894.71
618.535	940.63
618.734	939.27
618.934	934.04
619.133	947.02
619.332	946.05
619.531	916.6
619.73	929.58
619.929	957.68
620.128	965.43
620.328	950.51
620.527	890.64
620.726	936.36
620.925	938.5
621.124	910.79
621.323	894.9
621.522	858.09
621.721	904.78
621.92	889.09
622.119	929.78
622.318	898.58
622.517	924.74
622.715	896.45
622.914	833.87
623.113	879.98
623.312	825.35
623.511	927.65
623.71	869.13
623.909	890.25
624.107	924.35
624.306	819.73
624.505	874.75
624.704	864.29
624.902	883.28
625.101	903.43
625.3	864.29
625.499	822.83
625.697	861.19
625.896	819.15
626.095	879.21
626.293	825.15
626.492	829.03
626.69	861.58
626.889	837.55
627.088	869.33
627.286	840.27
627.485	852.86
627.683	810.23
627.882	858.48
628.08	737.19
628.279	789.7
628.477	852.86
628.676	755.99
628.874	842.2
629.073	785.63
629.271	789.12
629.469	843.37
629.668	791.44
629.866	810.43
630.065	765.48
630.263	820.31
630.461	793.19
630.66	822.83
630.858	808.3
631.056	841.23
631.254	845.3
631.453	788.34
631.651	834.84
631.849	826.51
632.047	830
632.245	797.64
632.444	796.67
632.642	813.92
632.84	830.77
633.038	786.6
633.236	797.83
633.434	807.91
633.632	792.02
633.83	799.58
634.028	828.25
634.227	810.82
634.425	858.09
634.623	834.26
634.821	791.64
635.019	805
635.216	786.02
635.414	839.1
635.612	821.28
635.81	805.58
636.008	857.9
636.206	782.72
636.404	833.48
636.602	765.48
636.8	804.23
636.997	854.41
637.195	833.1
637.393	842.2
637.591	883.86
637.789	813.92
637.986	811.59
638.184	815.27
638.382	856.73
638.58	885.8
638.777	881.34
638.975	800.55
639.173	829.22
639.37	847.63
639.568	811.01
639.765	839.68
639.963	819.34
640.161	862.55
640.358	854.8
640.556	799.38
640.753	747.65
640.951	752.89
641.148	823.02
641.346	786.79
641.543	828.83
641.741	809.65
641.938	766.64
642.136	809.85
642.333	786.79
642.531	872.43
642.728	841.62
642.925	810.23
643.123	782.34
643.32	822.05
643.517	792.22
643.715	789.5
643.912	755.02
644.109	801.52
644.306	839.49
644.504	744.55
644.701	755.02
644.898	824.18
645.095	769.94
645.293	789.12
645.49	797.25
645.687	789.5
645.884	809.65
646.081	727.31
646.278	746.49
646.475	755.02
646.672	744.55
646.87	758.5
647.067	752.69
647.264	751.34
647.461	736.22
647.658	704.06
647.855	738.16
648.052	699.02
648.249	667.83
648.446	732.15
648.642	703.87
648.839	682.17
649.036	684.49
649.233	701.35
649.43	670.74
649.627	665.89
649.824	699.02
650.021	714.14
650.217	694.57
650.414	656.01
650.611	725.18
650.808	699.99
651.004	728.47
651.201	732.54
651.398	791.44
651.595	710.26
651.791	690.89
651.988	717.24
652.185	672.87
652.381	707.35
652.578	664.15
652.775	710.65
652.971	713.36
653.168	712
653.364	729.83
653.561	670.35
653.757	712.59
653.954	698.83
654.15	657.37
654.347	746.1
654.543	717.82
654.74	644.97
654.936	639.74
655.133	678.68
655.329	697.67
655.525	691.47
655.722	715.1
655.918	646.52
656.115	673.45
656.311	604.86
656.507	572.31
656.704	548.68
656.9	606.22
657.096	585.1
657.292	594.79
657.489	644.39
657.685	632.37
657.881	618.62
658.077	642.84
658.273	630.63
658.47	675.39
658.666	625.4
658.862	682.56
659.058	648.84
659.254	683.52
659.45	648.46
659.646	650.01
659.842	681.97
660.038	695.73
660.234	612.03
660.43	649.81
660.626	715.69
660.822	704.06
661.018	672.87
661.214	647.49
661.41	608.54
661.606	660.86
661.802	687.4
661.998	676.74
662.194	634.7
662.39	687.98
662.586	693.99
662.781	666.47
662.977	668.99
663.173	677.91
663.369	665.7
663.564	666.67
663.76	682.56
663.956	638.77
664.152	666.28
664.347	614.36
664.543	644.19
664.739	620.94
664.934	601.76
665.13	589.36
665.326	688.17
665.521	632.96
665.717	606.41
665.912	617.07
666.108	552.74
666.304	589.17
666.499	594.01
666.695	578.13
666.89	613.78
667.086	632.18
667.281	642.26
667.477	675.77
667.672	632.18
667.867	624.43
668.063	632.57
668.258	585.88
668.454	622.49
668.649	675.97
668.844	620.94
669.04	623.27
669.235	594.4
669.43	581.23
669.626	592.46
669.821	608.35
670.016	572.51
670.211	576.58
670.407	573.28
670.602	573.09
670.797	603.7
670.992	650.59
671.187	553.71
671.382	647.49
671.578	590.53
671.773	618.23
671.968	548.09
672.163	597.31
672.358	631.99
672.553	582.39
672.748	579.09
672.943	636.83
673.138	568.44
673.333	599.63
673.528	552.55
673.723	603.31
673.918	554.1
674.113	561.27
674.308	634.31
674.503	619.78
674.698	620.36
674.892	590.91
675.087	637.61
675.282	598.66
675.477	556.62
675.672	601.18
675.867	566.69
676.061	549.84
676.256	519.61
676.451	542.09
676.646	603.31
676.84	542.48
677.035	530.66
677.23	542.09
677.424	577.93
677.619	591.49
677.814	594.01
678.008	582.97
678.203	552.94
678.397	540.54
678.592	579.87
678.787	630.44
678.981	562.24
679.176	539.96
679.37	566.69
679.565	558.94
679.759	568.05
679.954	582.97
680.148	654.07
680.342	621.14
680.537	599.05
680.731	576.58
680.926	588.01
681.12	597.31
681.314	533.18
681.509	603.89
681.703	572.31
681.897	557.39
682.092	556.23
682.286	570.57
682.48	603.7
682.674	607.38
682.869	575.61
683.063	565.14
683.257	641.87
683.451	548.09
683.645	581.23
683.839	561.46
684.034	569.6
684.228	604.67
684.422	535.11
684.616	547.71
684.81	580.06
685.004	550.81
685.198	576.58
685.392	597.5
685.586	537.63
685.78	572.89
685.974	590.91
686.168	614.94
686.362	626.76
686.556	521.94
686.75	488.23
686.944	486.87
687.138	533.76
687.331	425.45
687.525	449.67
687.719	382.25
687.913	442.12
688.107	458.39
688.301	444.44
688.494	463.43
688.688	422.16
688.882	420.42
689.076	421.97
689.269	430.88
689.463	546.35
689.657	470.98
689.85	468.66
690.044	481.25
690.238	469.05
690.431	478.15
690.625	455.48
690.818	495.4
691.012	515.55
691.205	534.53
691.399	458
691.593	540.73
691.786	579.48
691.98	591.88
692.173	618.23
692.366	570.38
692.56	595.95
692.753	622.49
692.947	546.74
693.14	622.88
693.333	585.68
693.527	548.29
693.72	602.73
693.914	583.55
694.107	587.43
694.3	592.27
694.493	606.22
694.687	659.89
694.88	599.05
695.073	651.56
695.266	636.25
695.46	617.46
695.653	679.26
695.846	665.51
696.039	638.77
696.232	616.49
696.425	694.96
696.618	679.65
696.812	672.29
697.005	746.88
697.198	787.18
697.391	725.37
697.584	794.93
697.777	823.99
697.97	787.18
698.163	784.66
698.356	766.25
698.549	846.47
698.742	819.92
698.935	788.34
699.127	812.95
699.32	753.47
699.513	780.59
699.706	805.97
699.899	846.27
700.092	796.28
700.285	831.35
700.477	768.19
700.67	830.58
700.863	828.83
701.056	927.06
701.248	896.84
701.441	913.31
701.634	866.23
701.826	963.1
702.019	915.44
702.212	959.42
702.404	912.15
702.597	885.21
702.79	935.2
702.982	919.31
703.175	966.2
703.367	1009.02
703.56	1007.08
703.752	1085.16
703.945	1053.78
704.137	1061.33
704.33	1062.49
704.522	1093.49
704.715	1073.34
704.907	1131.47
705.1	1122.94
705.292	1122.75
705.484	1116.94
705.677	1149.1
705.869	1168.47
706.061	1207.22
706.254	1209.74
706.446	1176.42
706.638	1205.09
706.831	1250.62
707.023	1201.22
707.215	1307.39
707.407	1276.97
707.599	1262.05
707.792	1307.39
707.984	1297.9
708.176	1356.21
708.368	1347.88
708.56	1317.08
708.752	1335.68
708.944	1362.22
709.136	1380.43
709.329	1363.77
709.521	1464.71
709.713	1410.08
709.905	1451.15
710.097	1482.34
710.289	1409.11
710.481	1435.65
710.672	1495.32
710.864	1474.79
711.056	1545.7
711.248	1504.82
711.44	1506.37
711.632	1514.12
711.824	1571.08
712.016	1613.32
712.207	1623
712.399	1600.14
712.591	1692.56
712.783	1653.04
712.975	1683.07
713.166	1619.13
713.358	1653.04
713.55	1697.21
713.741	1701.86
713.933	1702.63
714.125	1696.43
714.316	1680.93
714.508	1761.53
714.7	1761.73
714.891	1776.26
715.083	1837.48
715.274	1767.15
715.466	1781.68
715.657	1818.11
715.849	1727.82
716.04	1786.14
716.232	1700.89
716.423	1819.08
716.615	1709.03
716.806	1660.4
716.998	1661.56
717.189	1586.97
717.381	1539.5
717.572	1522.64
717.763	1557.32
717.955	1529.42
718.146	1509.47
718.337	1478.47
718.528	1418.02
718.72	1381.21
718.911	1451.93
719.102	1414.92
719.293	1447.08
719.485	1401.36
719.676	1388.18
719.867	1392.83
720.058	1441.08
720.249	1408.91
720.44	1434.88
720.632	1474.79
720.823	1534.66
721.014	1635.99
721.205	1654.2
721.396	1713.68
721.587	1818.69
721.778	1815.01
721.969	1899.87
722.16	1925.25
722.351	1898.51
722.542	2040.92
722.733	2053.32
722.924	1951.21
723.115	2061.07
723.305	2007.79
723.496	2007.79
723.687	1878.17
723.878	1901.23
724.069	1920.21
724.26	1935.91
724.45	1882.82
724.641	1861.12
724.832	1907.43
725.023	1929.71
725.213	1908.2
725.404	1879.91
725.595	1893.09
725.785	1887.86
725.976	1964.39
726.167	1934.36
726.357	1924.09
726.548	2046.73
726.739	1954.7
726.929	2036.27
727.12	2091.49
727.31	2064.75
727.501	2061.07
727.691	2000.42
727.882	2040.72
728.072	2097.69
728.263	2094.2
728.453	2156.2
728.644	2150.58
728.834	2108.73
729.024	2090.52
729.215	2103.11
729.405	2165.3
729.596	2207.35
729.786	2219.55
729.976	2253.65
730.167	2241.83
730.357	2231.95
730.547	2221.49
730.737	2243.19
730.928	2309.84
731.118	2344.71
731.308	2307.9
731.498	2334.83
731.688	2413.11
731.879	2368.16
732.069	2472
732.259	2462.51
732.449	2511.14
732.639	2578.95
732.829	2570.23
733.019	2667.88
733.209	2704.31
733.399	2727.17
733.589	2806.02
733.779	2807.77
733.969	2843.81
734.159	2901.74
734.349	2933.51
734.539	2949.4
734.729	2960.64
734.919	3013.14
735.109	3010.62
735.299	2958.31
735.488	2997.45
735.678	3006.17
735.868	2988.34
736.058	3004.23
736.248	2999.77
736.437	2974.39
736.627	2966.06
736.817	3073.4
737.007	3040.46
737.196	3128.23
737.386	3076.3
737.576	3076.11
737.765	3142.56
737.955	3059.83
738.144	3222.19
738.334	3150.9
738.524	3126.68
738.713	3147.6
738.903	3122.61
739.092	3216.19
739.282	3209.79
739.471	3228.01
739.661	3208.05
739.85	3280.9
740.04	3240.21
740.229	3247.96
740.419	3280.51
740.608	3330.3
740.797	3330.5
740.987	3364.79
741.176	3358.79
741.365	3322.75
741.555	3262.3
741.744	3378.74
741.933	3329.92
742.123	3386.3
742.312	3439.97
742.501	3438.61
742.69	3446.75
742.88	3387.46
743.069	3503.9
743.258	3467.87
743.447	3506.03
743.636	3459.73
743.825	3472.13
744.014	3455.27
744.204	3506.42
744.393	3433.38
744.582	3547.69
744.771	3593.22
744.96	3507.78
745.149	3561.45
745.338	3506.03
745.527	3535.29
745.716	3516.5
745.905	3477.75
746.094	3550.21
746.283	3588.76
746.471	3569.39
746.66	3623.06
746.849	3591.09
747.038	3593.22
747.227	3560.28
747.416	3591.28
747.604	3538.78
747.793	3549.24
747.982	3577.91
748.171	3600.39
748.359	3595.54
748.548	3571.71
748.737	3569.97
748.926	3581.4
749.114	3500.03
749.303	3550.98
749.491	3542.65
749.68	3493.83
749.869	3637.2
750.057	3546.53
750.246	3510.3
750.434	3562.61
750.623	3544.01
750.811	3545.36
751	3600
751.188	3510.3
751.377	3531.8
751.565	3507.2
751.754	3464.57
751.942	3478.91
752.131	3539.36
752.319	3483.75
752.507	3437.83
752.696	3572.49
752.884	3555.25
753.072	3473.48
753.261	3488.02
753.449	3509.33
753.637	3481.82
753.825	3575.98
754.014	3490.15
754.202	3517.46
754.39	3558.73
754.578	3514.95
754.766	3473.48
754.955	3470
755.143	3550.6
755.331	3490.34
755.519	3512.43
755.707	3493.63
755.895	3462.83
756.083	3473.87
756.271	3425.24
756.459	3475.81
756.647	3462.83
756.835	3429.31
757.023	3436.67
757.211	3434.93
757.399	3420.98
757.587	3420.78
757.775	3352.59
757.963	3409.74
758.151	3407.22
758.339	3338.83
758.526	3345.61
758.714	3343.87
758.902	3242.92
759.09	3141.98
759.278	2917.24
759.465	2715.55
759.653	2348.98
759.841	2121.71
760.028	1821.79
760.216	1607.7
760.404	1485.25
760.591	1225.63
760.779	1059.78
760.967	926.87
761.154	752.3
761.342	782.53
761.529	812.17
761.717	851.12
761.905	811.01
762.092	901.49
762.28	816.24
762.467	790.09
762.655	745.14
762.842	769.16
763.029	774.97
763.217	768
763.404	781.37
763.592	798.8
763.779	772.26
763.966	827.48
764.154	817.6
764.341	915.44
764.528	927.26
764.716	1016.77
764.903	1056.1
765.09	1110.35
765.277	1131.08
765.465	1330.25
765.652	1359.9
765.839	1466.46
766.026	1561.59
766.213	1625.52
766.4	1731.89
766.588	1911.69
766.775	1926.61
766.962	2102.14
767.149	2129.07
767.336	2309.64
767.523	2259.85
767.71	2411.75
767.897	2511.53
768.084	2566.55
768.271	2637.66
768.458	2646.18
768.645	2706.25
768.832	2723.88
769.019	2738.99
769.206	2757.78
769.392	2859.11
769.579	2936.8
769.766	2904.45
769.953	2900.38
770.14	2939.71
770.327	2919.37
770.513	2992.41
770.7	3078.63
770.887	2977.69
771.073	3028.64
771.26	3047.43
771.447	3004.62
771.634	3011.78
771.82	3102.26
772.007	2997.06
772.193	3065.07
772.38	3063.32
772.567	3010.82
772.753	3046.08
772.94	3091.41
773.126	3061.58
773.313	3054.8
773.499	3069.91
773.686	3102.26
773.872	3025.54
774.059	3062.74
774.245	3013.14
774.432	3022.05
774.618	2950.37
774.804	3015.85
774.991	2941.84
775.177	3043.37
775.363	2963.54
775.55	2998.8
775.736	2992.22
775.922	2959.28
776.109	2964.7
776.295	3000.35
776.481	2985.24
776.667	3012.75
776.853	2933.12
777.04	2947.65
777.226	2932.74
777.412	3022.44
777.598	2914.33
777.784	2947.46
777.97	2927.89
778.156	2955.79
778.342	2913.36
778.528	2907.94
778.715	2865.31
778.901	2898.25
779.087	2921.11
779.272	2890.89
779.458	2863.76
779.644	2862.21
779.83	2887.79
780.016	2928.09
780.202	2861.05
780.388	2855.62
780.574	2800.6
780.76	2806.8
780.946	2888.37
781.131	2844
781.317	2830.63
781.503	2826.76
781.689	2781.61
781.874	2896.31
782.06	2813.77
782.246	2782.39
782.432	2775.41
782.617	2859.31
782.803	2848.46
782.989	2746.35
783.174	2713.03
783.36	2708.76
783.545	2751
783.731	2746.35
783.916	2644.05
784.102	2753.71
784.288	2726.59
784.473	2758.75
784.659	2674.28
784.844	2768.05
785.029	2701.98
785.215	2663.81
785.4	2636.11
785.586	2703.34
785.771	2643.28
785.956	2710.12
786.142	2625.65
786.327	2672.34
786.512	2630.88
786.698	2620.22
786.883	2563.26
787.068	2569.27
787.254	2595.81
787.439	2592.32
787.624	2577.4
787.809	2598.33
787.994	2533.23
788.18	2641.73
788.365	2506.1
788.55	2532.45
788.735	2571.2
788.92	2531.29
789.105	2554.35
789.29	2538.27
789.475	2451.27
789.66	2466
789.845	2435.58
790.03	2441.39
790.215	2506.69
790.4	2474.33
790.585	2519.86
790.77	2461.15
790.955	2401.29
791.14	2463.09
791.325	2509.98
791.51	2382.88
791.695	2443.33
791.879	2385.79
792.064	2382.3
792.249	2504.55
792.434	2454.95
792.618	2458.44
792.803	2479.75
792.988	2404.97
793.173	2410.2
793.357	2470.45
793.542	2381.91
793.727	2456.12
793.911	2467.74
794.096	2410.59
794.281	2435.58
794.465	2528.97
794.65	2431.12
794.834	2500.1
795.019	2515.99
795.203	2516.37
795.388	2493.32
795.572	2467.55
795.757	2483.24
795.941	2476.46
796.126	2465.22
796.31	2372.03
796.494	2445.07
796.679	2435.77
796.863	2413.11
797.048	2529.74
797.232	2451.66
797.416	2490.22
797.601	2481.89
797.785	2527.22
797.969	2489.05
798.153	2494.48
798.338	2509.2
798.522	2548.34
798.706	2501.45
798.89	2507.07
799.074	2603.95
799.258	2562.68
799.443	2522.96
799.627	2496.42
799.811	2548.92
799.995	2499.71
800.179	2456.12
800.363	2475.49
800.547	2435.19
800.731	2544.85
800.915	2453.41
801.099	2465.61
801.283	2470.07
801.467	2513.85
801.651	2457.09
801.835	2515.79
802.019	2502.62
802.202	2483.05
802.386	2405.94
802.57	2413.88
802.754	2448.76
802.938	2419.5
803.121	2453.6
803.305	2496.03
803.489	2453.79
803.673	2493.12
803.856	2502.42
804.04	2439.46
804.224	2486.73
804.407	2466.77
804.591	2445.46
804.775	2417.76
804.958	2426.28
805.142	2550.08
805.326	2444.49
805.509	2482.47
805.693	2510.37
805.876	2503.39
806.06	2512.69
806.243	2523.93
806.427	2510.17
806.61	2562.68
806.794	2490.02
806.977	2504.17
807.16	2538.07
807.344	2524.32
807.527	2458.64
807.71	2473.94
807.894	2471.04
808.077	2523.93
808.26	2473.75
808.444	2381.33
808.627	2519.47
808.81	2424.73
808.993	2433.84
809.177	2368.16
809.36	2385.98
809.543	2395.28
809.726	2320.69
809.909	2332.89
810.092	2327.86
810.276	2326.31
810.459	2333.86
810.642	2289.88
810.825	2270.31
811.008	2302.09
811.191	2207.93
811.374	2232.34
811.557	2217.23
811.74	2265.66
811.923	2131.2
812.106	2164.14
812.289	2131.59
812.472	2138.57
812.654	2143.99
812.837	2135.08
813.02	2048.67
813.203	2062.62
813.386	1952.37
813.569	1946.76
813.751	1853.37
813.934	1905.1
814.117	1876.81
814.3	1819.27
814.482	1784.01
814.665	1771.41
814.848	1706.51
815.03	1676.87
815.213	1666.99
815.396	1678.42
815.578	1628.82
815.761	1612.93
815.943	1668.73
816.126	1585.42
816.309	1537.76
816.491	1500.94
816.674	1445.92
816.856	1505.21
817.039	1473.43
817.221	1545.51
817.403	1511.6
817.586	1527.68
817.768	1547.83
817.951	1461.81
818.133	1456.96
818.315	1459.87
818.498	1507.34
818.68	1561.01
818.862	1553.26
819.045	1572.44
819.227	1520.9
819.409	1520.51
819.591	1549.38
819.774	1512.37
819.956	1507.53
820.138	1575.73
820.32	1621.07
820.502	1645.87
820.684	1667.95
820.866	1697.79
821.048	1769.48
821.231	1760.95
821.413	1723.95
821.595	1710.19
821.777	1733.44
821.959	1729.37
822.141	1825.47
822.323	1607.89
822.505	1586.39
822.686	1542.6
822.868	1469.17
823.05	1378.5
823.232	1341.49
823.414	1276.39
823.596	1381.01
823.778	1329.28
823.96	1379.85
824.141	1414.14
824.323	1417.05
824.505	1492.42
824.687	1527.68
824.868	1589.29
825.05	1671.05
825.232	1671.05
825.413	1731.7
825.595	1703.22
825.777	1629.59
825.958	1687.72
826.14	1673.57
826.321	1709.03
826.503	1688.49
826.685	1709.03
826.866	1712.52
827.048	1701.86
827.229	1647.42
827.411	1643.74
827.592	1583.29
827.773	1590.26
827.955	1550.54
828.136	1508.11
828.318	1522.84
828.499	1571.66
828.68	1495.13
828.862	1535.24
829.043	1581.93
829.224	1512.57
829.406	1480.99
829.587	1510.63
829.768	1509.08
829.949	1556.55
830.131	1542.6
830.312	1592.39
830.493	1523.42
830.674	1536.01
830.855	1497.07
831.036	1543.76
831.218	1602.08
831.399	1618.16
831.58	1533.49
831.761	1520.12
831.942	1549.57
832.123	1521.09
832.304	1491.64
832.485	1496.49
832.666	1539.11
832.847	1534.27
833.028	1500.75
833.209	1528.84
833.389	1506.37
833.57	1473.82
833.751	1473.04
833.932	1524.58
834.113	1494.55
834.294	1505.21
834.475	1523.61
834.655	1578.44
834.836	1585.03
835.017	1543.37
835.198	1523.22
835.378	1553.45
835.559	1596.46
835.74	1557.71
835.92	1539.31
836.101	1521.48
836.281	1594.52
836.462	1569.53
836.643	1634.44
836.823	1626.88
837.004	1610.6
837.184	1638.31
837.365	1614.87
837.545	1617.77
837.726	1570.31
837.906	1636.18
838.087	1605.76
838.267	1592
838.448	1590.26
838.628	1603.44
838.808	1574.18
838.989	1631.14
839.169	1537.56
839.349	1620.1
839.53	1626.88
839.71	1616.8
839.89	1598.79
840.07	1642.57
840.251	1582.32
840.431	1633.47
840.611	1597.62
840.791	1570.5
840.971	1602.08
841.151	1611.38
841.332	1571.86
841.512	1635.6
841.692	1550.35
841.872	1593.17
842.052	1565.66
842.232	1582.7
842.412	1548.02
842.592	1561.78
842.772	1588.52
842.952	1587.94
843.132	1541.24
843.312	1546.47
843.492	1497.46
843.672	1614.67
843.851	1501.33
844.031	1570.5
844.211	1531.17
844.391	1548.02
844.571	1545.12
844.751	1537.17
844.93	1561.01
845.11	1498.81
845.29	1547.25
845.47	1581.74
845.649	1536.79
845.829	1561.01
846.009	1539.11
846.188	1553.45
846.368	1550.35
846.547	1534.27
846.727	1592
846.907	1493.58
847.086	1564.49
847.266	1591.42
847.445	1575.54
847.625	1509.27
847.804	1510.05
847.984	1524
848.163	1507.72
848.343	1487.58
848.522	1510.44
848.701	1513.92
848.881	1495.71
849.06	1525.55
849.239	1503.66
849.419	1505.79
849.598	1458.71
849.777	1433.71
849.957	1435.46
850.136	1399.42
850.315	1328.31
850.494	1385.66
850.674	1398.45
850.853	1413.18
851.032	1380.05
851.211	1490.29
851.39	1410.08
851.569	1409.3
851.748	1360.67
851.927	1418.41
852.107	1396.71
852.286	1387.41
852.465	1351.76
852.644	1417.63
852.823	1411.04
853.002	1396.71
853.181	1381.79
853.359	1424.22
853.538	1338
853.717	1420.54
853.896	1310.88
854.075	1259.92
854.254	1270.38
854.433	1186.1
854.611	1226.02
854.79	1195.99
854.969	1239.19
855.148	1215.36
855.327	1213.42
855.505	1267.09
855.684	1274.45
855.863	1277.55
856.041	1246.94
856.22	1325.02
856.399	1273.48
856.577	1345.56
856.756	1362.61
856.934	1435.07
857.113	1425.19
857.291	1349.82
857.47	1297.32
857.648	1363.38
857.827	1356.21
858.005	1401.55
858.184	1319.79
858.362	1413.76
858.541	1319.01
858.719	1338.97
858.898	1333.93
859.076	1319.01
859.254	1385.47
859.433	1338.97
859.611	1290.73
859.789	1260.5
859.967	1344.78
860.146	1401.55
860.324	1282.59
860.502	1265.15
860.68	1256.43
860.859	1291.7
861.037	1305.84
861.215	1297.12
861.393	1299.64
861.571	1267.48
861.749	1265.93
861.927	1286.27
862.105	1275.23
862.283	1289.18
862.461	1281.23
862.639	1244.23
862.817	1266.51
862.995	1290.92
863.173	1276.2
863.351	1264.57
863.529	1286.66
863.707	1301.19
863.885	1268.06
864.063	1212.65
864.241	1252.95
864.418	1312.04
864.596	1208.58
864.774	1195.02
864.952	1228.54
865.129	1254.11
865.307	1200.83
865.485	1184.75
865.663	1222.92
865.84	1144.25
866.018	1179.71
866.196	1055.33
866.373	1051.45
866.551	1068.11
866.728	1002.04
866.906	1041.38
867.084	1066.37
867.261	1120.81
867.439	1113.45
867.616	1147.74
867.794	1118.49
867.971	1155.3
868.149	1116.74
868.326	1168.28
868.503	1198.89
868.681	1135.34
868.858	1157.43
869.035	1110.16
869.213	1166.15
869.39	1137.86
869.567	1191.14
869.745	1136.31
869.922	1149.87
870.099	1148.52
870.276	1199.67
870.454	1158.4
870.631	1161.3
870.808	1151.42
870.985	1117.91
871.162	1186.49
871.339	1159.17
871.517	1087.1
871.694	1095.24
871.871	1123.14
872.048	1175.06
872.225	1121.78
872.402	1149.29
872.579	1076.25
872.756	1094.07
872.933	1094.85
873.11	1107.06
873.287	1100.47
873.463	1100.27
873.64	1064.62
873.817	1104.54
873.994	1104.92
874.171	1072.96
874.348	1090.97
874.524	1032.08
874.701	1071.79
874.878	1007.86
875.055	1070.44
875.231	1076.25
875.408	1083.42
875.585	1031.11
875.762	1049.13
875.938	1061.91
876.115	1030.33
876.291	1039.63
876.468	1024.71
876.645	1007.86
876.821	1010.57
876.998	1030.72
877.174	1029.56
877.351	1025.88
877.527	1041.96
877.704	1017.93
877.88	1023.94
878.057	989.64
878.233	1066.95
878.409	1009.6
878.586	1016.19
878.762	991.97
878.938	1015.41
879.115	929.97
879.291	996.04
879.467	952.83
879.644	951.86
879.82	1006.31
879.996	953.8
880.172	945.47
880.349	954.19
880.525	994.49
880.701	931.71
880.877	947.02
881.053	959.23
881.229	972.98
881.405	1000.69
881.581	949.54
881.757	972.79
881.933	967.75
882.109	958.65
882.285	979.38
882.461	924.55
882.637	959.42
882.813	931.71
882.989	957.48
883.165	1003.59
883.341	923.38
883.517	971.82
883.693	961.75
883.869	967.95
884.044	945.47
884.22	970.66
884.396	998.75
884.572	947.8
884.747	988.09
884.923	994.1
885.099	961.75
885.275	991.19
885.45	921.25
885.626	933.85
885.801	934.43
885.977	919.51
886.153	903.43
886.328	991.97
886.504	941.01
886.679	975.5
886.855	912.34
887.03	944.89
887.206	950.12
887.381	951.48
887.557	949.15
887.732	929.78
887.908	988.29
888.083	996.43
888.258	948.96
888.434	937.53
888.609	917.38
888.784	988.68
888.96	923.19
889.135	933.26
889.31	893.74
889.485	967.36
889.661	951.28
889.836	988.87
890.011	968.72
890.186	928.81
890.361	940.05
890.537	983.25
890.712	966.78
890.887	960.39
891.062	948.18
891.237	1009.6
891.412	932.1
891.587	957.1
891.762	978.21
891.937	981.7
892.112	904.4
892.287	925.9
892.462	895.29
892.637	876.5
892.812	855.77
892.987	870.49
893.161	869.72
893.336	843.75
893.511	860.61
893.686	869.13
893.861	849.37
894.035	851.12
894.21	864.68
894.385	810.62
894.56	834.45
894.734	796.28
894.909	771.49
895.084	788.92
895.258	769.35
895.433	780.98
895.608	766.64
895.782	714.33
895.957	746.49
896.131	739.52
896.306	660.08
896.48	643.42
896.655	665.12
896.829	594.59
897.004	619.97
897.178	605.83
897.353	584.33
897.527	666.47
897.701	653.3
897.876	575.03
898.05	636.25
898.224	628.69
898.399	672.87
898.573	611.45
898.747	529.88
898.921	599.83
899.096	509.15
899.27	515.35
899.444	505.66
899.618	550.81
899.792	534.92
899.967	534.14
900.141	599.24
900.315	527.17
900.489	538.79
900.663	546.16
900.837	544.03
901.011	474.86
901.185	608.35
901.359	558.17
901.533	566.89
901.707	567.47
901.881	550.42
902.055	515.35
902.229	541.7
902.403	569.02
902.576	570.18
902.75	557.98
902.924	680.62
903.098	607.58
903.272	645.74
903.446	679.65
903.619	630.44
903.793	690.11
903.967	639.54
904.14	734.48
904.314	723.63
904.488	688.76
904.661	731.96
904.835	680.23
905.009	729.64
905.182	747.07
905.356	761.8
905.529	698.25
905.703	679.07
905.876	648.84
906.05	631.21
906.223	627.14
906.397	576.96
906.57	567.86
906.744	569.79
906.917	552.16
907.09	546.35
907.264	568.44
907.437	522.91
907.61	464.98
907.784	501.01
907.957	522.71
908.13	493.26
908.304	495.01
908.477	486.29
908.65	523.68
908.823	455.68
908.996	510.12
909.17	502.18
909.343	482.61
909.516	497.53
909.689	481.25
909.862	456.65
910.035	498.11
910.208	449.09
910.381	442.89
910.554	525.62
910.727	489.2
910.9	444.83
911.073	457.61
911.246	544.8
911.419	543.06
911.592	519.03
911.765	449.09
911.938	442.31
912.11	490.55
912.283	492.68
912.456	518.06
912.629	473.11
912.802	466.91
912.974	413.83
913.147	377.02
913.32	348.34
913.493	388.83
913.665	410.92
913.838	425.84
914.01	396.2
914.183	439.4
914.356	414.8
914.528	449.09
914.701	481.83
914.873	452.19
915.046	414.6
915.218	374.3
915.391	322.38
915.563	359
915.736	399.3
915.908	392.52
916.081	383.22
916.253	409.95
916.425	418.67
916.598	412.67
916.77	414.8
916.942	402.78
917.115	320.25
917.287	412.28
917.459	383.6
917.632	337.69
917.804	310.95
917.976	366.17
918.148	373.92
918.32	406.08
918.493	393.68
918.665	461.1
918.837	414.02
919.009	449.86
919.181	471.76
919.353	445.6
919.525	431.65
919.697	426.81
919.869	460.33
920.041	490.55
920.213	530.85
920.385	496.17
920.557	436.3
920.729	465.95
920.901	459.55
921.073	456.45
921.244	432.82
921.416	493.85
921.588	404.53
921.76	450.06
921.932	469.63
922.103	443.67
922.275	445.41
922.447	442.31
922.619	374.69
922.79	422.16
922.962	403.37
923.134	446.76
923.305	395.03
923.477	373.72
923.648	386.51
923.82	378.37
923.991	344.85
924.163	329.35
924.335	382.25
924.506	358.03
924.677	422.74
924.849	350.86
925.02	389.42
925.192	374.3
925.363	396.97
925.535	383.22
925.706	342.53
925.877	430.3
926.049	355.51
926.22	377.79
926.391	377.98
926.562	386.12
926.734	343.69
926.905	398.91
927.076	316.76
927.247	341.75
927.419	320.44
927.59	294.29
927.761	311.92
927.932	270.07
928.103	325.67
928.274	288.47
928.445	255.54
928.616	282.27
928.787	261.35
928.958	295.45
929.129	277.24
929.3	272.97
929.471	229.19
929.642	189.66
929.813	133.67
929.984	233.06
930.155	145.49
930.326	217.95
930.496	173
930.667	122.24
930.838	167.19
931.009	128.05
931.18	135.61
931.35	154.01
931.521	131.15
931.692	125.34
931.863	54.81
932.033	135.99
932.204	110.81
932.374	112.16
932.545	61.4
932.716	119.53
932.886	100.54
933.057	49.78
933.227	62.56
933.398	150.14
933.568	48.03
933.739	14.9
933.909	62.95
934.08	91.43
934.25	-0.98
934.421	41.64
934.591	88.14
934.761	38.15
934.932	14.32
935.102	55.2
935.272	7.54
935.443	33.31
935.613	14.51
935.783	50.36
935.953	-6.99
936.123	188.89
936.294	-4.28
936.464	27.11
936.634	16.84
936.804	10.64
936.974	6.38
937.144	44.35
937.314	39.9
937.484	14.13
937.655	-11.45
937.825	60.24
937.995	11.8
938.165	74.96
938.334	38.73
938.504	67.21
938.674	58.11
938.844	73.41
939.014	100.15
939.184	66.05
939.354	113.33
939.524	115.84
939.694	88.53
939.863	72.25
940.033	121.85
940.203	145.88
940.373	113.33
940.542	119.72
940.712	92.21
940.882	107.9
941.051	115.07
941.221	131.54
941.391	137.35
941.56	79.03
941.73	64.89
941.899	188.89
942.069	77.87
942.238	117.59
942.408	115.07
942.577	105.38
942.747	57.53
942.916	29.05
943.086	64.11
943.255	96.47
943.425	74.96
943.594	91.24
943.763	24.78
943.933	40.48
944.102	9.86
944.271	61.6
944.441	61.21
944.61	29.63
944.779	59.85
944.948	149.94
945.117	32.34
945.287	24.2
945.456	5.6
945.625	57.14
945.794	65.28
945.963	4.83
946.132	83.3
946.301	47.06
946.47	98.21
946.639	17.23
946.808	45.32
946.977	72.45
947.146	106.16
947.315	35.44
947.484	87.36
947.653	35.83
947.822	24.2
947.991	14.51
948.16	134.44
948.329	102.86
948.498	53.85
948.666	78.45
948.835	88.14
949.004	36.99
949.173	46.1
949.341	41.64
949.51	95.89
949.679	101.7
949.847	108.09
950.016	132.31
950.185	133.86
950.353	54.23
950.522	66.63
950.69	104.22
950.859	42.61
951.028	109.64
951.196	58.88
951.365	51.13
951.533	67.99
951.701	81.16
951.87	92.6
952.038	40.09
952.207	46.48
952.375	126.69
952.543	49.78
952.712	40.28
952.88	44.55
953.048	113.71
953.217	93.56
953.385	57.33
953.553	92.21
953.721	41.64
953.89	74.19
954.058	42.41
954.226	22.46
954.394	60.43
954.562	37.38
954.73	61.01
954.898	59.46
955.067	109.45
955.235	43
955.403	96.86
955.571	140.06
955.739	71.48
955.907	46.87
956.075	55.98
956.243	40.09
956.41	40.86
956.578	33.89
956.746	-7.18
956.914	45.71
957.082	93.95
957.25	98.02
957.418	55.98
957.585	63.53
957.753	103.83
957.921	30.98
958.089	51.91
958.256	79.23
958.424	94.15
958.592	96.08
958.759	53.26
958.927	107.32
959.095	45.71
959.262	67.6
959.43	78.65
959.597	28.46
959.765	63.73
959.932	42.8
960.1	82.52
960.267	83.49
960.435	73.41
960.602	93.37
960.77	61.01
960.937	37.18
961.104	89.88
961.272	37.96
961.439	59.08
961.606	99.96
961.774	105.96
961.941	60.05
962.108	62.56
962.275	57.14
962.443	114.1
962.61	86.2
962.777	138.51
962.944	113.33
963.111	106.74
963.278	95.69
963.446	98.6
963.613	60.05
963.78	87.17
963.947	110.23
964.114	99.76
964.281	176.88
964.448	83.1
964.615	49.58
964.782	83.88
964.949	111.58
965.116	98.41
965.282	116.04
965.449	70.12
965.616	67.41
965.783	110.03
965.95	108.29
966.117	40.67
966.283	72.25
966.45	95.89
966.617	98.99
966.784	112.55
966.95	129.41
967.117	104.03
967.284	92.21
967.45	100.54
967.617	151.3
967.784	120.49
967.95	149.17
968.117	88.91
968.283	115.07
968.45	198.57
968.616	136.77
968.783	160.6
968.949	148.98
969.116	157.89
969.282	111
969.449	86.01
969.615	98.02
969.781	74.19
969.948	86.78
970.114	78.84
970.28	137.16
970.447	100.93
970.613	167.77
970.779	100.54
970.945	105.38
971.112	113.52
971.278	111
971.444	112.16
971.61	134.06
971.776	102.09
971.942	111.78
972.108	123.59
972.275	127.47
972.441	135.61
972.607	154.79
972.773	72.06
972.939	145.49
973.105	85.23
973.271	53.07
973.437	77.29
973.602	87.36
973.768	143.74
973.934	74
974.1	118.56
974.266	20.91
974.432	127.47
974.598	90.66
974.763	122.63
974.929	101.7
975.095	149.17
975.261	77.68
975.426	50.55
975.592	73.03
975.758	144.71
975.923	74.77
976.089	71.67
976.255	122.43
976.42	106.74
976.586	113.91
976.751	101.51
976.917	160.21
977.082	110.61
977.248	60.82
977.413	47.45
977.579	79.81
977.744	115.07
977.91	67.21
978.075	74.19
978.24	110.61
978.406	117.01
978.571	95.31
978.736	54.81
978.902	128.83
979.067	61.01
979.232	27.11
979.397	81.16
979.563	120.88
979.728	39.12
979.893	82.13
980.058	71.28
980.223	87.36
980.388	87.75
980.554	92.01
980.719	58.88
980.884	104.41
981.049	104.8
981.214	75.16
981.379	90.46
981.544	77.29
981.709	80.2
981.874	91.43
982.039	80.97
982.204	119.72
982.368	101.7
982.533	55.78
982.698	112.36
982.863	111.97
983.028	61.79
983.193	88.33
983.357	98.21
983.522	92.21
983.687	81.55
983.852	72.83
984.016	97.24
984.181	73.22
984.346	111.19
984.51	115.65
984.675	80.39
984.839	110.61
985.004	85.43
985.168	119.14
985.333	106.74
985.498	85.62
985.662	109.64
985.827	127.28
985.991	113.52
986.155	81.16
986.32	101.7
986.484	161.18
986.649	101.12
986.813	40.86
986.977	84.07
987.142	126.69
987.306	66.63
987.47	77.87
987.634	59.08
987.799	87.17
987.963	105.58
988.127	132.89
988.291	138.32
988.455	97.24
988.62	63.34
988.784	90.85
988.948	104.8
989.112	68.18
989.276	78.26
989.44	91.63
989.604	56.36
989.768	91.05
989.932	141.61
990.096	37.76
990.26	30.21
990.424	42.03
990.588	80
990.752	137.74
990.915	96.86
991.079	81.55
991.243	52.3
991.407	120.3
991.571	99.18
991.734	84.85
991.898	107.13
992.062	172.03
992.226	78.65
992.389	76.32
992.553	36.8
992.717	81.36
992.88	58.88
993.044	78.84
993.207	77.48
993.371	109.06
993.535	74.58
993.698	87.75
993.862	104.8
994.025	103.64
994.189	98.99
994.352	68.96
994.515	60.05
994.679	80.39
994.842	61.21
995.006	108.48
995.169	76.71
995.332	48.23
995.496	110.23
995.659	43.58
995.822	72.25
995.985	65.08
996.149	133.86
996.312	71.86
996.475	111.39
996.638	40.28
996.801	131.93
996.964	118.94
997.128	79.23
997.291	79.81
997.454	80.78
997.617	14.51
997.78	113.71
997.943	48.03
998.106	98.02
998.269	46.29
998.432	63.34
998.595	81.55
998.758	29.05
998.92	47.26
999.083	16.65
999.246	49.58
999.409	35.05
999.572	28.66
999.735	36.6
999.897	92.79
1000.06	56.95
1000.223	41.45
1000.386	71.09
1000.548	80.2
1000.711	68.57
1000.874	86.78
1001.036	38.35
1001.199	99.38
1001.361	38.73
1001.524	74.77
1001.687	100.73
1001.849	27.3
1002.012	40.67
1002.174	60.82
1002.337	91.43
1002.499	46.87
1002.661	95.69
1002.824	25.36
1002.986	69.35
1003.149	67.99
1003.311	47.26
1003.473	108.29
1003.636	13.35
1003.798	83.68
1003.96	55.2
1004.123	33.89
1004.285	34.28
1004.447	53.07
1004.609	40.48
1004.771	115.84
1004.933	11.03
1005.096	36.21
1005.258	8.12
1005.42	54.23
1005.582	90.08
1005.744	67.6
1005.906	19.75
1006.068	57.14
1006.23	7.93
1006.392	5.41
1006.554	13.74
1006.716	82.52
1006.878	74.38
1007.04	21.68
1007.202	5.99
1007.363	52.88
1007.525	50.16
1007.687	45.51
1007.849	75.93
1008.011	0.76
1008.172	20.33
1008.334	23.62
1008.496	51.91
1008.658	5.22
1008.819	23.81
1008.981	13.93
1009.143	23.81
1009.304	27.11
1009.466	70.7
1009.627	93.56
1009.789	126.5
1009.95	34.66
1010.112	22.26
1010.273	68.57
1010.435	31.56
1010.596	52.3
1010.758	45.32
1010.919	31.37
1011.081	23.23
1011.242	50.16
1011.403	55.78
1011.565	47.26
1011.726	33.11
1011.887	7.93
1012.049	22.65
1012.21	76.51
1012.371	84.85
1012.532	-31.6
1012.693	40.86
1012.855	10.45
1013.016	32.53
1013.177	56.36
1013.338	20.52
1013.499	100.54
1013.66	63.73
1013.821	55.4
1013.982	51.71
1014.143	40.67
1014.304	29.24
1014.465	41.83
1014.626	47.45
1014.787	24.78
1014.948	118.36
1015.109	-13.77
1015.27	91.63
1015.431	37.57
1015.592	19.75
1015.752	75.35
1015.913	65.08
1016.074	63.73
1016.235	44.74
1016.395	36.99
1016.556	36.8
1016.717	29.63
1016.877	54.81
1017.038	32.15
1017.199	54.81
1017.359	26.14
1017.52	36.99
1017.681	22.85
1017.841	29.05
1018.002	-1.57
1018.162	32.53
1018.323	82.91
1018.483	16.26
1018.644	27.69
1018.804	5.41
1018.964	11.61
1019.125	7.73
1019.285	31.95
1019.446	13.35
1019.606	-2.34
1019.766	-14.16
1019.926	69.35
1020.087	28.27
1020.247	2.5
1020.407	59.46
1020.567	69.54
1020.728	13.35
1020.888	-5.25
1021.048	4.63
1021.208	-8.15
1021.368	-7.38
1021.528	53.07
1021.688	49
1021.848	53.65
1022.008	17.61
1022.168	27.11
1022.328	35.05
1022.488	0.95
1022.648	28.27
1022.808	44.16
1022.968	31.76
1023.128	2.12
1023.288	9.86
1023.448	29.43
1023.608	45.13
1023.767	39.31
1023.927	-23.27
1024.087	-17.45
1024.247	3.67
1024.406	16.84
1024.566	14.32
1024.726	-10.87
1024.885	39.9
1025.045	47.45
1025.205	27.5
1025.364	10.83
1025.524	34.47
1025.683	7.35
1025.843	40.09
1026.003	21.49
1026.162	56.36
1026.321	63.53
1026.481	28.27
1026.64	13.55
1026.8	50.36
1026.959	-11.83
1027.119	8.31
1027.278	4.83
1027.437	-2.53
1027.597	43.38
1027.756	38.15
1027.915	57.33
1028.074	55.98
1028.234	-14.74
1028.393	29.05
1028.552	0.37
1028.711	-36.63
1028.87	34.66
1029.03	0.37
1029.189	-8.73
1029.348	-42.64
1029.507	-14.35
1029.666	17.81
1029.825	0.37
1029.984	-0.79
1030.143	18.58
1030.302	5.99
1030.461	-25.98
1030.62	24.01
1030.779	65.08
1030.938	-12.22
1031.097	-4.67
1031.255	43.58
1031.414	74.38
1031.573	58.11
1031.732	-27.14
1031.891	11.03
1032.049	56.56
1032.208	51.13
1032.367	8.9
1032.525	3.67
1032.684	21.49
1032.843	34.86
1033.001	-23.46
1033.16	160.41
1033.319	59.08
1033.477	47.45
1033.636	11.8
1033.794	-38.38
1033.953	50.55
1034.111	46.68
1034.27	-11.64
1034.428	20.13
1034.587	-7.96
1034.745	16.65
1034.903	24.4
1035.062	54.04
1035.22	-25.59
1035.378	39.9
1035.537	-23.46
1035.695	36.6
1035.853	25.56
1036.011	21.3
1036.17	64.31
1036.328	-33.92
1036.486	14.9
1036.644	3.86
1036.802	-61.24
1036.96	-35.47
1037.119	-1.95
1037.277	-25.2
1037.435	-38.96
1037.593	4.44
1037.751	20.71
1037.909	25.95
1038.067	25.95
