Data from oakcork_FLMT105791__15__17-26-50-067.txt Node

Date: Mon Mar 20 17:26:50 GMT 2023
User: antho
Spectrometer: FLMT10579
Trigger mode: 0
Integration Time (sec): 1.000000E-1
Scans to average: 10
Electric dark correction enabled: true
Nonlinearity correction enabled: false
Boxcar width: 0
XAxis mode: Wavelengths
Number of Pixels in Spectrum: 3648
>>>>>Begin Spectral Data<<<<<
345.248	-178.54
345.464	-178.54
345.681	-178.54
345.898	-171.95
346.114	-179.12
346.331	-62.87
346.548	33.42
346.764	-10.37
346.981	-4.17
347.197	-23.93
347.414	24.51
347.631	-2.81
347.847	77.98
348.064	-0.48
348.28	27.61
348.497	-44.27
348.713	-14.63
348.93	19.67
349.146	24.51
349.363	-19.47
349.579	24.12
349.796	15.6
350.012	8.62
350.229	38.07
350.445	8.04
350.661	-28.97
350.878	-5.52
351.094	33.42
351.311	12.69
351.527	-6.88
351.743	-7.27
351.96	30.13
352.176	27.42
352.392	36.52
352.609	32.45
352.825	-27.03
353.041	7.85
353.257	0.48
353.474	9.01
353.69	8.23
353.906	-12.3
354.122	-12.69
354.339	57.45
354.555	-3.2
354.771	-2.23
354.987	51.44
355.203	53.18
355.42	-21.41
355.636	-7.27
355.852	-15.79
356.068	9.4
356.284	-19.28
356.5	49.89
356.716	22.38
356.932	-1.84
357.148	41.37
357.364	18.12
357.58	41.56
357.796	69.65
358.012	49.31
358.228	36.72
358.444	-35.75
358.66	41.37
358.876	16.57
359.092	-0.48
359.308	49.7
359.524	35.55
359.74	15.21
359.956	7.07
360.172	-30.52
360.388	51.25
360.604	-6.3
360.819	94.65
361.035	-3.97
361.251	46.6
361.467	-27.42
361.683	63.84
361.898	27.42
362.114	26.64
362.33	3.78
362.546	55.31
362.762	15.21
362.977	5.13
363.193	-12.5
363.409	29.93
363.624	-26.06
363.84	-31.1
364.056	-31.68
364.271	23.54
364.487	29.93
364.703	-11.33
364.918	-29.35
365.134	3.78
365.35	-3
365.565	120.41
365.781	17.15
365.996	38.07
366.212	78.95
366.427	34.39
366.643	17.92
366.858	3.2
367.074	-40.01
367.289	62.68
367.505	90
367.72	-14.63
367.936	-2.42
368.151	36.33
368.367	41.95
368.582	26.25
368.798	16.18
369.013	72.36
369.228	40.78
369.444	6.3
369.659	78.76
369.874	34.97
370.09	72.56
370.305	-22.77
370.52	-4.17
370.736	50.66
370.951	27.8
371.166	84.18
371.381	93.68
371.597	46.6
371.812	-9.78
372.027	-1.84
372.242	57.64
372.458	87.28
372.673	-11.33
372.888	11.72
373.103	74.3
373.318	90.96
373.533	35.55
373.749	58.22
373.964	-42.14
374.179	58.61
374.394	-25.09
374.609	60.74
374.824	-22.96
375.039	66.94
375.254	19.28
375.469	63.26
375.684	66.75
375.899	85.15
376.114	37.88
376.329	33.81
376.544	69.46
376.759	77.98
376.974	6.3
377.189	31.1
377.404	17.53
377.619	54.35
377.834	-29.35
378.049	-21.02
378.264	-8.04
378.478	13.66
378.693	4.75
378.908	39.23
379.123	10.75
379.338	50.86
379.553	51.25
379.767	33.03
379.982	42.53
380.197	59.77
380.412	15.21
380.626	56.09
380.841	117.9
381.056	21.6
381.271	109.76
381.485	7.46
381.7	10.75
381.915	34
382.129	26.64
382.344	39.04
382.559	16.18
382.773	82.25
382.988	-21.02
383.202	45.63
383.417	-12.69
383.632	93.29
383.846	7.46
384.061	58.8
384.275	9.98
384.49	69.85
384.704	34.97
384.919	51.05
385.133	34.78
385.348	70.04
385.562	-4.75
385.777	74.88
385.991	31.1
386.206	25.48
386.42	16.57
386.634	79.15
386.849	58.22
387.063	31.68
387.277	0.68
387.492	15.98
387.706	5.72
387.92	16.18
388.135	90.58
388.349	45.24
388.563	20.25
388.778	48.92
388.992	64.61
389.206	53.76
389.42	136.11
389.635	41.75
389.849	73.72
390.063	75.27
390.277	52.21
390.491	98.52
390.706	57.83
390.92	68.49
391.134	56.28
391.348	75.46
391.562	3.2
391.776	50.28
391.99	36.52
392.205	71.59
392.419	8.82
392.633	28.58
392.847	105.5
393.061	51.44
393.275	113.25
393.489	76.82
393.703	51.44
393.917	54.73
394.131	34
394.345	63.06
394.559	90
394.773	44.46
394.986	45.24
395.2	59.19
395.414	74.69
395.628	33.23
395.842	43.69
396.056	56.67
396.27	6.3
396.484	53.96
396.697	65.2
396.911	103.56
397.125	65.78
397.339	93.87
397.553	65.97
397.766	96.39
397.98	86.51
398.194	108.79
398.408	28.97
398.621	85.15
398.835	101.62
399.049	74.69
399.262	120.03
399.476	111.5
399.69	121.19
399.903	130.3
400.117	75.46
400.331	82.83
400.544	61.51
400.758	193.07
400.971	103.17
401.185	122.55
401.398	84.76
401.612	157.23
401.826	122.16
402.039	143.28
402.253	83.99
402.466	119.25
402.68	81.66
402.893	131.07
403.106	90.96
403.32	100.85
403.533	130.68
403.747	100.26
403.96	93.68
404.174	133.78
404.387	58.8
404.6	99.3
404.814	113.44
405.027	113.05
405.24	95.81
405.454	102.01
405.667	129.13
405.88	57.06
406.094	112.47
406.307	162.84
406.52	112.66
406.733	90.96
406.947	63.84
407.16	139.98
407.373	154.9
407.586	74.11
407.799	67.33
408.012	142.69
408.226	125.84
408.439	165.36
408.652	72.56
408.865	133.98
409.078	163.43
409.291	116.73
409.504	83.02
409.717	145.21
409.93	115.38
410.143	123.32
410.357	57.06
410.57	90.96
410.783	109.95
410.996	133.2
411.209	108.98
411.421	143.47
411.634	106.66
411.847	103.56
412.06	138.63
412.273	97.36
412.486	151.61
412.699	214.77
412.912	122.55
413.125	168.85
413.338	145.6
413.55	154.9
413.763	115.76
413.976	161.88
414.189	114.8
414.402	113.44
414.615	171.37
414.827	97.16
415.04	158.58
415.253	160.33
415.466	165.56
415.678	169.04
415.891	124.48
416.104	135.33
416.316	137.66
416.529	131.65
416.742	145.02
416.954	191.71
417.167	136.69
417.38	129.91
417.592	171.18
417.805	112.47
418.017	92.32
418.23	162.46
418.442	141.34
418.655	112.66
418.868	146.57
419.08	156.84
419.293	192.29
419.505	131.84
419.718	145.41
419.93	178.73
420.142	113.63
420.355	185.51
420.567	188.03
420.78	183.58
420.992	134.36
421.205	206.63
421.417	121.96
421.629	139.59
421.842	127.78
422.054	97.55
422.266	177.38
422.479	166.33
422.691	121.96
422.903	177.57
423.115	130.3
423.328	143.86
423.54	150.25
423.752	151.8
423.964	124.48
424.177	158.39
424.389	131.07
424.601	274.64
424.813	158.39
425.025	175.24
425.238	194.04
425.45	151.22
425.662	156.45
425.874	439.71
426.086	155.68
426.298	168.27
426.51	166.33
426.722	170.4
426.934	138.82
427.146	191.52
427.358	125.84
427.57	193.84
427.782	147.54
427.994	164.78
428.206	172.53
428.418	122.16
428.63	185.9
428.842	195.59
429.054	164.39
429.266	168.27
429.478	134.36
429.69	130.49
429.902	102.59
430.114	184.54
430.325	164.39
430.537	104.53
430.749	143.47
430.961	90
431.173	145.41
431.384	155.29
431.596	104.14
431.808	170.4
432.02	173.11
432.231	184.74
432.443	212.06
432.655	168.66
432.867	173.5
433.078	194.62
433.29	246.54
433.502	196.94
433.713	238.21
433.925	198.88
434.136	246.74
434.348	149.67
434.56	109.76
434.771	286.46
434.983	125.65
435.194	185.51
435.406	167.69
435.617	217.29
435.829	271.34
436.04	215.54
436.252	232.98
436.463	259.72
436.675	276.57
436.886	229.69
437.098	222.52
437.309	287.23
437.521	237.44
437.732	249.06
437.943	207.99
438.155	211.28
438.366	180.28
438.578	249.45
438.789	220.58
439	226.39
439.211	209.15
439.423	228.33
439.634	248.29
439.845	253.52
440.057	239.96
440.268	266.69
440.479	212.83
440.69	226.78
440.902	226.01
441.113	222.32
441.324	206.63
441.535	266.69
441.746	301.76
441.957	210.89
442.168	222.32
442.38	255.46
442.591	279.09
442.802	224.07
443.013	215.93
443.224	252.16
443.435	225.42
443.646	223.1
443.857	249.45
444.068	218.45
444.279	246.93
444.49	331.79
444.701	253.32
444.912	353.49
445.123	294.01
445.334	277.35
445.545	265.34
445.756	272.12
445.967	245.57
446.178	235.11
446.388	276.57
446.599	277.35
446.81	300.41
447.021	255.07
447.232	307.19
447.443	320.55
447.653	259.14
447.864	307.77
448.075	293.43
448.286	340.7
448.496	292.46
448.707	325.4
448.918	296.53
449.129	348.45
449.339	236.66
449.55	316.87
449.761	271.73
449.971	317.65
450.182	308.93
450.393	353.88
450.603	299.05
450.814	326.56
451.024	276.38
451.235	341.67
451.446	331.4
451.656	358.14
451.867	272.31
452.077	349.04
452.288	357.75
452.498	347.29
452.709	289.36
452.919	335.67
453.13	286.84
453.34	325.98
453.55	257.59
453.761	342.64
453.971	313.77
454.182	310.87
454.392	326.17
454.602	366.86
454.813	330.24
455.023	367.64
455.233	269.99
455.444	295.37
455.654	251.39
455.864	298.27
456.075	304.28
456.285	292.85
456.495	300.6
456.705	329.08
456.916	384.69
457.126	364.73
457.336	323.07
457.546	282.77
457.756	289.36
457.967	365.12
458.177	294.59
458.387	334.31
458.597	281.42
458.807	322.88
459.017	314.74
459.227	317.26
459.437	319.2
459.647	373.84
459.857	338.96
460.068	326.56
460.278	378.1
460.488	332.37
460.698	387.01
460.908	340.51
461.117	302.15
461.327	331.6
461.537	345.94
461.747	337.22
461.957	344.19
462.167	419.17
462.377	363.95
462.587	374.42
462.797	372.48
463.007	349.42
463.216	405.22
463.426	394.37
463.636	377.52
463.846	307.38
464.056	354.65
464.265	401.54
464.475	315.32
464.685	342.45
464.895	360.27
465.104	345.16
465.314	388.56
465.524	372.29
465.733	330.44
465.943	446.68
466.153	414.91
466.362	412
466.572	359.69
466.782	372.67
466.991	369.96
467.201	428.08
467.41	343.8
467.62	365.12
467.829	362.4
468.039	378.29
468.249	400.38
468.458	371.7
468.668	428.67
468.877	398.63
469.086	445.72
469.296	423.24
469.505	378.68
469.715	448.62
469.924	404.83
470.134	465.67
470.343	457.53
470.552	420.33
470.762	405.61
470.971	375.19
471.18	397.28
471.39	419.17
471.599	374.8
471.808	449.2
472.018	381.39
472.227	456.95
472.436	454.63
472.645	409.1
472.855	380.42
473.064	454.05
473.273	465.28
473.482	493.38
473.691	490.47
473.901	461.41
474.11	429.44
474.319	525.54
474.528	447.65
474.737	510.81
474.946	462.57
475.155	490.08
475.364	490.86
475.573	481.36
475.783	463.15
475.992	495.12
476.201	513.72
476.41	486.21
476.619	441.07
476.828	443.58
477.037	452.88
477.245	487.95
477.454	503.84
477.663	475.55
477.872	486.6
478.081	537.55
478.29	476.91
478.499	576.49
478.708	503.26
478.917	584.83
479.125	544.91
479.334	513.33
479.543	498.03
479.752	545.69
479.961	517.4
480.169	584.44
480.378	506.55
480.587	649.34
480.796	577.46
481.004	571.26
481.213	585.99
481.422	566.42
481.63	553.63
481.839	592.38
482.048	593.35
482.256	583.28
482.465	584.83
482.674	595.48
482.882	604.59
483.091	669.88
483.299	633.65
483.508	639.08
483.716	604.98
483.925	619.89
484.134	618.73
484.342	576.88
484.551	633.65
484.759	618.73
484.967	633.46
485.176	650.31
485.384	669.11
485.593	658.64
485.801	625.9
486.01	637.53
486.218	574.75
486.426	549.56
486.635	571.26
486.843	533.68
487.051	601.1
487.26	611.95
487.468	606.72
487.676	644.11
487.885	597.61
488.093	643.92
488.301	664.26
488.509	655.74
488.717	682.09
488.926	661.16
489.134	644.89
489.342	650.51
489.55	629.19
489.758	663.68
489.967	655.93
490.175	753.97
490.383	666.39
490.591	738.27
490.799	645.66
491.007	744.28
491.215	713.28
491.423	710.18
491.631	698.94
491.839	710.18
492.047	734.79
492.255	649.73
492.463	655.93
492.671	678.79
492.879	704.76
493.087	683.83
493.295	739.05
493.503	743.5
493.711	750.48
493.919	769.66
494.127	783.22
494.334	772.76
494.542	684.22
494.75	726.84
494.958	728.78
495.166	759.97
495.374	779.74
495.581	770.24
495.789	745.64
495.997	851.03
496.205	748.93
496.412	727.62
496.62	734.4
496.828	758.23
497.035	775.28
497.243	799.11
497.451	770.63
497.658	783.8
497.866	794.46
498.074	843.48
498.281	736.53
498.489	863.63
498.696	777.8
498.904	752.22
499.112	758.04
499.319	868.47
499.527	769.66
499.734	824.3
499.942	764.62
500.149	775.28
500.357	796.98
500.564	759
500.771	782.64
500.979	788.26
501.186	743.5
501.394	796.98
501.601	769.08
501.808	796.98
502.016	801.63
502.223	749.32
502.43	783.03
502.638	758.23
502.845	738.86
503.052	873.51
503.26	749.51
503.467	867.31
503.674	796.01
503.881	824.88
504.089	880.68
504.296	822.55
504.503	745.05
504.71	809.57
504.917	753.39
505.125	809.19
505.332	818.68
505.539	808.41
505.746	886.1
505.953	853.94
506.16	841.35
506.367	912.45
506.574	909.74
506.781	900.05
506.988	815.97
507.195	869.44
507.402	843.09
507.609	863.05
507.816	833.98
508.023	845.61
508.23	814.03
508.437	781.29
508.644	869.25
508.851	876.61
509.058	873.7
509.265	835.53
509.472	909.93
509.679	971.16
509.885	880.87
510.092	881.07
510.299	845.61
510.506	883.39
510.713	873.32
510.92	909.35
511.126	915.17
511.333	938.61
511.54	922.91
511.746	951.2
511.953	920.2
512.16	952.56
512.367	893.27
512.573	897.53
512.78	920.4
512.987	884.17
513.193	925.24
513.4	823.91
513.606	885.13
513.813	918.26
514.02	912.07
514.226	971.55
514.433	954.3
514.639	875.83
514.846	929.11
515.052	888.62
515.259	887.65
515.465	911.1
515.672	957.79
515.878	1022.31
516.085	936.09
516.291	933.38
516.497	910.32
516.704	901.41
516.91	889.4
517.117	829.72
517.323	798.53
517.529	848.71
517.736	844.06
517.942	892.69
518.148	829.34
518.354	868.67
518.561	877
518.767	904.32
518.973	943.45
519.179	931.63
519.386	876.22
519.592	871.57
519.798	918.46
520.004	954.88
520.21	906.06
520.417	990.53
520.623	996.35
520.829	995.38
521.035	996.93
521.241	1021.53
521.447	977.36
521.653	1115.11
521.859	999.06
522.065	1022.89
522.271	1082.18
522.477	1056.21
522.683	1080.24
522.889	1048.66
523.095	1025.02
523.301	1044.39
523.507	1036.06
523.713	1041.49
523.919	988.98
524.125	1076.94
524.331	1050.4
524.537	1144.17
524.742	1113.56
524.948	1117.82
525.154	1123.64
525.36	1199.78
525.566	1112.59
525.772	1143.01
525.977	1057.96
526.183	1110.85
526.389	1140.69
526.595	1083.53
526.8	1072.49
527.006	1039.74
527.212	1025.6
527.417	1004.48
527.623	976.58
527.829	1063.77
528.034	1084.69
528.24	1079.66
528.446	1048.08
528.651	1140.11
528.857	1146.11
529.062	1163.74
529.268	1138.94
529.473	1193
529.679	1146.11
529.884	1214.89
530.09	1183.5
530.295	1220.12
530.501	1205.79
530.706	1196.29
530.912	1158.12
531.117	1209.27
531.323	1178.66
531.528	1208.69
531.733	1218.38
531.939	1192.8
532.144	1230.97
532.35	1221.09
532.555	1234.46
532.76	1251.9
532.966	1217.99
533.171	1201.52
533.376	1192.8
533.581	1171.49
533.787	1167.04
533.992	1244.15
534.197	1266.43
534.402	1228.65
534.607	1210.24
534.813	1312.73
535.018	1236.2
535.223	1226.71
535.428	1272.05
535.633	1259.26
535.838	1261.78
536.043	1267.59
536.249	1356.33
536.454	1304.02
536.659	1288.13
536.864	1265.85
537.069	1250.54
537.274	1274.76
537.479	1264.69
537.684	1291.81
537.889	1252.48
538.094	1329.4
538.299	1253.06
538.504	1297.04
538.708	1263.14
538.913	1321.65
539.118	1281.93
539.323	1325.72
539.528	1275.34
539.733	1263.33
539.938	1291.81
540.142	1293.55
540.347	1267.98
540.552	1272.24
540.757	1268.75
540.962	1229.81
541.166	1223.61
541.371	1214.5
541.576	1275.53
541.781	1164.13
541.985	1325.91
542.19	1313.32
542.395	1345.48
542.599	1350.71
542.804	1292.97
543.008	1361.56
543.213	1260.81
543.418	1237.56
543.622	1311.18
543.827	1245.12
544.031	1371.44
544.236	1364.66
544.44	1305.57
544.645	1419.68
544.849	1307.31
545.054	1367.56
545.258	1426.27
545.463	1397.01
545.667	1313.32
545.872	1360.4
546.076	1318.55
546.281	1335.02
546.485	1312.93
546.689	1362.91
546.894	1349.55
547.098	1341.41
547.302	1293.17
547.507	1348.58
547.711	1352.65
547.915	1366.98
548.119	1329.78
548.324	1337.73
548.528	1414.06
548.732	1366.98
548.936	1375.51
549.141	1391.2
549.345	1350.32
549.549	1357.68
549.753	1350.71
549.957	1444.68
550.161	1415.42
550.366	1378.22
550.57	1328.82
550.774	1341.8
550.978	1343.15
551.182	1386.55
551.386	1354.39
551.59	1307.5
551.794	1352.65
551.998	1374.54
552.202	1375.51
552.406	1316.03
552.61	1402.83
552.814	1357.1
553.018	1410.96
553.222	1344.51
553.426	1340.83
553.63	1421.62
553.833	1372.41
554.037	1323.97
554.241	1382.29
554.445	1345.48
554.649	1347.22
554.853	1310.02
555.056	1421.62
555.26	1405.35
555.464	1345.09
555.668	1357.3
555.871	1402.83
556.075	1380.16
556.279	1317.58
556.483	1327.85
556.686	1336.57
556.89	1380.35
557.094	1333.27
557.297	1323.78
557.501	1386.75
557.704	1268.37
557.908	1371.63
558.112	1326.88
558.315	1413.48
558.519	1322.62
558.722	1331.14
558.926	1311.77
559.129	1238.72
559.333	1220.32
559.536	1246.28
559.74	1244.15
559.943	1250.15
560.147	1247.25
560.35	1253.25
560.553	1271.47
560.757	1212.57
560.96	1332.69
561.164	1250.93
561.367	1326.3
561.57	1246.86
561.774	1297.23
561.977	1252.09
562.18	1237.75
562.384	1350.52
562.587	1265.27
562.79	1264.1
562.993	1281.93
563.197	1305.76
563.4	1326.1
563.603	1290.84
563.806	1327.85
564.009	1220.9
564.212	1287.55
564.416	1216.64
564.619	1260.23
564.822	1187.77
565.025	1296.46
565.228	1229.23
565.431	1237.56
565.634	1179.82
565.837	1201.33
566.04	1172.27
566.243	1161.81
566.446	1113.37
566.649	1221.09
566.852	1164.13
567.055	1152.31
567.258	1210.05
567.461	1249.57
567.664	1248.99
567.867	1166.26
568.07	1236.01
568.273	1195.32
568.475	1215.28
568.678	1160.64
568.881	1160.45
569.084	1151.73
569.287	1087.79
569.489	1116.66
569.692	1183.7
569.895	1163.36
570.098	1100.39
570.3	1095.35
570.503	1069.58
570.706	1097.87
570.909	1109.69
571.111	1052.34
571.314	1055.83
571.516	1106.78
571.719	1108.33
571.922	1083.92
572.124	1050.21
572.327	1058.15
572.529	1019.01
572.732	1047.49
572.935	1096.32
573.137	1130.42
573.34	1082.56
573.542	1108.14
573.745	1091.09
573.947	1091.09
574.15	1083.14
574.352	1035.29
574.554	1127.12
574.757	1070.94
574.959	1030.64
575.162	1033.54
575.364	1026.76
575.566	1135.46
575.769	999.83
575.971	1049.43
576.173	981.23
576.376	1025.79
576.578	1067.45
576.78	1099.81
576.982	988.21
577.185	1030.64
577.387	1001.77
577.589	995.18
577.791	1055.24
577.993	1031.61
578.196	1026.96
578.398	1029.48
578.6	1012.23
578.802	964.76
579.004	958.18
579.206	978.13
579.408	1013.59
579.61	997.12
579.812	1024.44
580.014	963.8
580.216	984.53
580.418	994.02
580.62	973.68
580.822	976.39
581.024	988.6
581.226	1055.44
581.428	983.75
581.63	1070.94
581.832	975.23
582.034	1050.4
582.236	1036.26
582.438	1041.49
582.64	1073.26
582.841	1098.64
583.043	1091.86
583.245	1037.03
583.447	1033.35
583.649	1018.24
583.85	1017.85
584.052	1054.86
584.254	993.25
584.456	1069.97
584.657	966.51
584.859	1002.55
585.061	987.05
585.262	998.86
585.464	942.68
585.666	1022.5
585.867	981.81
586.069	1015.72
586.27	995.76
586.472	1024.44
586.674	1002.55
586.875	943.84
587.077	956.63
587.278	992.66
587.48	960.89
587.681	1108.72
587.883	983.17
588.084	910.52
588.285	940.16
588.487	930.08
588.688	956.82
588.89	900.63
589.091	860.92
589.292	914.39
589.494	870.6
589.695	846.38
589.896	801.82
590.098	790.97
590.299	876.8
590.5	792.14
590.702	854.72
590.903	875.64
591.104	905.48
591.305	882.23
591.507	943.45
591.708	902.57
591.909	902.38
592.11	969.22
592.311	940.93
592.512	907.8
592.714	848.9
592.915	864.02
593.116	883.2
593.317	887.27
593.518	885.91
593.719	891.72
593.92	899.08
594.121	937.45
594.322	892.11
594.523	880.87
594.724	871.57
594.925	900.05
595.126	887.07
595.327	908.19
595.528	876.61
595.729	897.73
595.929	896.95
596.13	906.45
596.331	893.85
596.532	919.23
596.733	966.7
596.934	932.99
597.135	924.27
597.335	905.28
597.536	864.21
597.737	894.63
597.938	849.1
598.138	917.88
598.339	913.03
598.54	885.72
598.74	892.3
598.941	879.13
599.142	965.15
599.342	913.81
599.543	846.97
599.744	885.13
599.944	881.26
600.145	892.5
600.345	927.95
600.546	963.21
600.746	928.34
600.947	964.96
601.147	897.53
601.348	938.8
601.548	882.23
601.749	882.03
601.949	856.46
602.15	849.48
602.35	877.19
602.551	945.58
602.751	845.61
602.951	888.62
603.152	803.57
603.352	900.63
603.552	878.74
603.753	914.58
603.953	910.52
604.153	894.05
604.354	901.22
604.554	852.2
604.754	894.43
604.954	834.37
605.155	875.45
605.355	872.35
605.555	905.67
605.755	926.79
605.955	886.3
606.155	903.15
606.356	876.22
606.556	925.82
606.756	911.87
606.956	864.02
607.156	912.45
607.356	843.28
607.556	863.05
607.756	900.83
607.956	921.17
608.156	887.46
608.356	864.21
608.556	902.18
608.756	874.67
608.956	828.95
609.156	871.77
609.356	827.79
609.556	817.9
609.755	863.24
609.955	829.53
610.155	866.15
610.355	865.18
610.555	819.65
610.755	867.31
610.954	803.18
611.154	850.26
611.354	857.23
611.554	801.44
611.753	836.89
611.953	778.19
612.153	874.09
612.352	836.12
612.552	787.29
612.752	755.71
612.951	797.75
613.151	836.12
613.351	786.13
613.55	831.66
613.75	853.94
613.949	825.85
614.149	833.79
614.348	818.1
614.548	792.91
614.747	755.52
614.947	790.2
615.146	738.86
615.346	841.15
615.545	843.48
615.745	816.35
615.944	852.58
616.144	827.01
616.343	826.43
616.542	791.36
616.742	807.44
616.941	791.36
617.14	737.5
617.34	790.39
617.539	788.07
617.738	779.35
617.938	839.41
618.137	760.94
618.336	715.8
618.535	797.56
618.734	761.14
618.934	800.47
619.133	782.25
619.332	793.1
619.531	753
619.73	786.9
619.929	818.49
620.128	773.34
620.328	812.29
620.527	753.77
620.726	774.12
620.925	768.69
621.124	792.91
621.323	776.25
621.522	741.57
621.721	753.58
621.92	745.64
622.119	780.7
622.318	720.84
622.517	746.22
622.715	779.15
622.914	712.12
623.113	763.46
623.312	684.8
623.511	752.22
623.71	710.76
623.909	730.14
624.107	791.55
624.306	697.2
624.505	716.19
624.704	710.76
624.902	747.38
625.101	794.65
625.3	751.84
625.499	707.86
625.697	694.1
625.896	699.33
626.095	739.82
626.293	686.93
626.492	711.34
626.69	750.67
626.889	686.35
627.088	748.54
627.286	691.39
627.485	701.07
627.683	706.5
627.882	714.64
628.08	648.57
628.279	688.87
628.477	756.1
628.676	665.23
628.874	688.09
629.073	634.04
629.271	651.09
629.469	719.67
629.668	690.81
629.866	694.29
630.065	647.99
630.263	726.26
630.461	672.01
630.66	656.9
630.858	738.47
631.056	728.39
631.254	726.26
631.453	657.09
631.651	710.18
631.849	700.11
632.047	671.24
632.245	667.94
632.444	708.44
632.642	713.47
632.84	709.41
633.038	646.63
633.236	667.56
633.434	679.18
633.632	670.85
633.83	669.3
634.028	704.17
634.227	685.96
634.425	741.96
634.623	661.55
634.821	689.84
635.019	715.61
635.216	658.06
635.414	705.72
635.612	688.87
635.81	675.31
636.008	731.11
636.206	677.05
636.404	697.97
636.602	653.22
636.8	692.55
636.997	691.19
637.195	728.39
637.393	703.4
637.591	728.2
637.789	693.13
637.986	691
638.184	693.71
638.382	717.35
638.58	731.49
638.777	761.52
638.975	691.19
639.173	689.26
639.37	698.17
639.568	695.46
639.765	729.56
639.963	671.04
640.161	703.01
640.358	726.65
640.556	656.51
640.753	648.76
640.951	634.62
641.148	686.93
641.346	650.31
641.543	692.36
641.741	698.17
641.938	649.93
642.136	657.09
642.333	641.21
642.531	690.03
642.728	733.24
642.925	689.06
643.123	636.94
643.32	694.1
643.517	688.09
643.715	670.07
643.912	638.88
644.109	677.24
644.306	656.32
644.504	603.04
644.701	660.77
644.898	729.36
645.095	645.47
645.293	660
645.49	666.59
645.687	662.13
645.884	663.29
646.081	626.09
646.278	650.51
646.475	623.38
646.672	612.92
646.87	662.32
647.067	672.4
647.264	633.26
647.461	586.57
647.658	563.71
647.855	646.05
648.052	610.79
648.249	555.76
648.446	589.28
648.642	579.79
648.839	591.41
649.036	597.61
649.233	554.21
649.43	575.14
649.627	537.75
649.824	600.13
650.021	592.38
650.217	570.1
650.414	569.33
650.611	598.97
650.808	586.96
651.004	593.54
651.201	618.15
651.398	619.7
651.595	583.28
651.791	575.91
651.988	639.46
652.185	577.27
652.381	599.94
652.578	546.85
652.775	585.21
652.971	582.31
653.168	588.12
653.364	610.01
653.561	562.93
653.757	587.34
653.954	561.96
654.15	555.38
654.347	626.68
654.543	587.93
654.74	523.21
654.936	545.88
655.133	541.81
655.329	584.44
655.525	573.59
655.722	621.25
655.918	519.73
656.115	557.51
656.311	491.63
656.507	447.27
656.704	459.86
656.9	496.28
657.096	500.74
657.292	487.18
657.489	541.43
657.685	530.38
657.881	526.9
658.077	511.78
658.273	535.42
658.47	562.74
658.666	533.29
658.862	569.13
659.058	534.26
659.254	577.85
659.45	533.1
659.646	553.25
659.842	551.11
660.038	591.99
660.234	538.13
660.43	536
660.626	601.49
660.822	574.17
661.018	579.98
661.214	553.63
661.41	550.53
661.606	562.74
661.802	589.86
661.998	561.19
662.194	530.19
662.39	565.06
662.586	575.33
662.781	559.64
662.977	574.75
663.173	610.98
663.369	570.1
663.564	566.81
663.76	570.68
663.956	582.31
664.152	620.28
664.347	509.07
664.543	547.05
664.739	564.1
664.934	496.48
665.13	500.93
665.326	591.41
665.521	539.1
665.717	526.51
665.912	514.69
666.108	472.07
666.304	523.99
666.499	528.45
666.695	450.95
666.89	526.7
667.086	555.96
667.281	555.96
667.477	619.12
667.672	530.38
667.867	541.81
668.063	556.73
668.258	544.53
668.454	516.05
668.649	585.02
668.844	536.97
669.04	545.5
669.235	503.06
669.43	505.58
669.626	487.95
669.821	519.15
670.016	474.58
670.211	507.91
670.407	478.07
670.602	504.23
670.797	522.83
670.992	577.08
671.187	503.26
671.382	581.14
671.578	488.53
671.773	541.81
671.968	487.37
672.163	506.55
672.358	566.81
672.553	501.9
672.748	475.94
672.943	583.86
673.138	503.45
673.333	529.61
673.528	463.93
673.723	518.76
673.918	506.55
674.113	452.3
674.308	579.59
674.503	539.49
674.698	520.31
674.892	508.1
675.087	513.14
675.282	511.98
675.477	507.33
675.672	540.65
675.867	508.88
676.061	450.37
676.256	454.82
676.451	483.3
676.646	488.34
676.84	476.33
677.035	446.68
677.23	434.67
677.424	497.06
677.619	517.79
677.814	515.46
678.008	526.31
678.203	442.23
678.397	474.58
678.592	490.47
678.787	534.65
678.981	463.15
679.176	491.44
679.37	485.43
679.565	467.8
679.759	476.91
679.954	524.96
680.148	540.07
680.342	540.85
680.537	518.18
680.731	459.47
680.926	524.57
681.12	523.6
681.314	474.78
681.509	478.27
681.703	508.1
681.897	518.95
682.092	463.15
682.286	455.79
682.48	548.98
682.674	501.13
682.869	491.05
683.063	501.9
683.257	542.2
683.451	471.29
683.645	496.67
683.839	479.23
684.034	465.87
684.228	513.72
684.422	450.75
684.616	474.97
684.81	505
685.004	463.73
685.198	485.05
685.392	483.5
685.586	440.29
685.78	506.94
685.974	525.35
686.168	494.73
686.362	543.56
686.556	479.23
686.75	415.88
686.944	422.27
687.138	417.23
687.331	357.37
687.525	368.8
687.719	348.65
687.913	372.87
688.107	391.47
688.301	350.97
688.494	427.31
688.688	372.48
688.882	345.35
689.076	343.8
689.269	369.77
689.463	469.16
689.657	363.18
689.85	370.93
690.044	406.97
690.238	395.15
690.431	397.28
690.625	396.89
690.818	411.42
691.012	406.97
691.205	432.73
691.399	373.45
691.593	435.83
691.786	469.55
691.98	468.38
692.173	513.72
692.366	464.7
692.56	490.47
692.753	546.85
692.947	427.31
693.14	520.89
693.333	492.99
693.527	419.56
693.72	488.73
693.914	478.07
694.107	474.58
694.3	470.13
694.493	459.28
694.687	512.17
694.88	493.57
695.073	545.11
695.266	512.95
695.46	488.34
695.653	542.4
695.846	527.09
696.039	455.98
696.232	510.62
696.425	532.32
696.618	535.23
696.812	544.72
697.005	572.04
697.198	614.28
697.391	563.13
697.584	570.29
697.777	619.12
697.97	605.17
698.163	613.5
698.356	585.79
698.549	653.99
698.742	606.14
698.935	581.14
699.127	606.53
699.32	582.5
699.513	583.86
699.706	620.48
699.899	674.53
700.092	604.2
700.285	605.75
700.477	576.11
700.67	612.34
700.863	674.72
701.056	732.27
701.248	684.02
701.441	712.89
701.634	660
701.826	752.61
702.019	655.35
702.212	696.42
702.404	653.8
702.597	649.34
702.79	678.41
702.982	707.86
703.175	755.13
703.367	745.64
703.56	741.18
703.752	817.13
703.945	759.78
704.137	791.75
704.33	775.09
704.522	807.83
704.715	802.02
704.907	818.68
705.1	867.12
705.292	849.29
705.484	809.38
705.677	864.6
705.869	856.07
706.061	889.98
706.254	933.18
706.446	882.62
706.638	884.55
706.831	946.36
707.023	885.13
707.215	991.31
707.407	937.25
707.599	963.02
707.792	982.98
707.984	985.3
708.176	1000.61
708.368	953.72
708.56	995.96
708.752	979.88
708.944	968.45
709.136	1010.29
709.329	1017.85
709.521	1117.82
709.713	1060.86
709.905	1073.07
710.097	1105.62
710.289	1066.68
710.481	1057.76
710.672	1083.92
710.864	1079.85
711.056	1149.21
711.248	1128.48
711.44	1162.97
711.632	1129.26
711.824	1193
712.016	1219.54
712.207	1166.26
712.399	1199.2
712.591	1249.38
712.783	1189.32
712.975	1241.63
713.166	1209.66
713.358	1217.02
713.55	1291.03
713.741	1290.45
713.933	1293.94
714.125	1265.27
714.316	1261
714.508	1329.78
714.7	1338.12
714.891	1328.62
715.083	1360.78
715.274	1336.37
715.466	1342.96
715.657	1360.98
715.849	1285.8
716.04	1372.6
716.232	1275.92
716.423	1369.11
716.615	1288.71
716.806	1289.1
716.998	1263.33
717.189	1198.62
717.381	1148.24
717.572	1140.11
717.763	1190.09
717.955	1168.39
718.146	1169.56
718.337	1123.44
718.528	1075.98
718.72	1049.82
718.911	1113.17
719.102	1035.87
719.293	1132.16
719.485	1087.41
719.676	1100.77
719.867	1056.41
720.058	1066.09
720.249	1104.07
720.44	1129.26
720.632	1144.17
720.823	1162.97
721.014	1263.52
721.205	1274.37
721.396	1348.97
721.587	1378.03
721.778	1413.1
721.969	1431.31
722.16	1464.24
722.351	1488.66
722.542	1572.74
722.733	1603.16
722.924	1530.12
723.115	1575.26
723.305	1550.85
723.496	1593.09
723.687	1460.56
723.878	1493.89
724.069	1507.45
724.26	1496.02
724.45	1437.31
724.641	1459.21
724.832	1524.5
725.023	1511.13
725.213	1484.2
725.404	1451.84
725.595	1498.34
725.785	1441.58
725.976	1544.07
726.167	1495.83
726.357	1531.09
726.548	1640.17
726.739	1568.48
726.929	1598.9
727.12	1616.53
727.31	1667.87
727.501	1594.83
727.691	1626.8
727.882	1656.05
728.072	1688.99
728.263	1683.95
728.453	1705.46
728.644	1695.97
728.834	1708.17
729.024	1677.95
729.215	1676.01
729.405	1721.73
729.596	1778.7
729.786	1775.02
729.976	1797.1
730.167	1835.08
730.357	1771.72
730.547	1793.23
730.737	1815.31
730.928	1859.68
731.118	1929.63
731.308	1846.7
731.498	1887.19
731.688	1941.83
731.879	1918.97
732.069	1969.34
732.259	2001.7
732.449	2044.91
732.639	2077.45
732.829	2113.3
733.019	2147.59
733.209	2160.18
733.399	2215.4
733.589	2283.41
733.779	2270.62
733.969	2235.55
734.159	2314.6
734.349	2359.94
734.539	2390.16
734.729	2401.59
734.919	2430.27
735.109	2453.52
735.299	2415.54
735.488	2422.13
735.678	2434.92
735.868	2442.86
736.058	2456.04
736.248	2422.13
736.437	2391.33
736.627	2433.76
736.817	2483.74
737.007	2489.56
737.196	2489.17
737.386	2459.52
737.576	2509.9
737.765	2515.32
737.955	2538.77
738.144	2634.48
738.334	2587.01
738.524	2514.94
738.713	2582.94
738.903	2579.65
739.092	2618.01
739.282	2593.98
739.471	2618.2
739.661	2603.87
739.85	2694.93
740.04	2676.13
740.229	2711.78
740.419	2708.1
740.608	2764.68
740.797	2738.13
740.987	2802.26
741.176	2778.82
741.365	2732.51
741.555	2706.75
741.744	2798.97
741.933	2759.83
742.123	2755.57
742.312	2831.91
742.501	2853.8
742.69	2878.02
742.88	2787.93
743.069	2911.92
743.258	2809.24
743.447	2888.87
743.636	2907.47
743.825	2901.27
744.014	2900.49
744.204	2863.29
744.393	2860.97
744.582	2946.02
744.771	2947.77
744.96	2860.39
745.149	2952.22
745.338	2886.16
745.527	2977.99
745.716	2940.4
745.905	2887.12
746.094	2970.63
746.283	2977.41
746.471	2967.34
746.66	3012.09
746.849	2963.46
747.038	2990.78
747.227	2965.4
747.416	2987.68
747.604	2964.04
747.793	2985.35
747.982	3007.83
748.171	3006.86
748.359	3048.71
748.548	2953
748.737	2987.29
748.926	2973.54
749.114	2880.34
749.303	2994.85
749.491	2998.72
749.68	2941.95
749.869	3028.75
750.057	2945.05
750.246	2935.95
750.434	2955.13
750.623	2980.12
750.811	2915.02
751	3032.43
751.188	2933.82
751.377	3018.29
751.565	2941.57
751.754	2924.32
751.942	2931.1
752.131	2974.7
752.319	2940.02
752.507	2880.34
752.696	3000.85
752.884	3022.94
753.072	2962.3
753.261	2971.02
753.449	2946.22
753.637	2939.05
753.825	3011.12
754.014	2928.78
754.202	2933.04
754.39	2985.74
754.578	2963.07
754.766	2910.57
754.955	2956.87
755.143	2978.77
755.331	2914.44
755.519	2907.08
755.707	2949.32
755.895	2900.88
756.083	2929.36
756.271	2885.38
756.459	2889.64
756.647	2956.49
756.835	2898.56
757.023	2891.39
757.211	2886.54
757.399	2872.4
757.587	2871.62
757.775	2779.79
757.963	2868.72
758.151	2837.91
758.339	2798.58
758.526	2808.66
758.714	2851.28
758.902	2744.14
759.09	2683.11
759.278	2515.32
759.465	2290.38
759.653	2010.81
759.841	1857.16
760.028	1524.31
760.216	1376.48
760.404	1281.35
760.591	1087.6
760.779	895.02
760.967	783.42
761.154	632.1
761.342	700.69
761.529	681.7
761.717	691.97
761.905	705.72
762.092	778.19
762.28	709.02
762.467	724.71
762.655	657.48
762.842	686.35
763.029	708.82
763.217	669.88
763.404	721.42
763.592	707.47
763.779	674.14
763.966	715.41
764.154	768.69
764.341	779.54
764.528	805.12
764.716	870.22
764.903	922.72
765.09	977.55
765.277	1018.04
765.465	1159.48
765.652	1211.02
765.839	1248.99
766.026	1373.96
766.213	1414.65
766.4	1468.51
766.588	1657.22
766.775	1669.42
766.962	1756.61
767.149	1824.23
767.336	1966.44
767.523	1911.61
767.71	2052.66
767.897	2135.77
768.084	2179.37
768.271	2197.38
768.458	2259.38
768.645	2332.81
768.832	2327.19
769.019	2313.83
769.206	2370.59
769.392	2439.76
769.579	2545.35
769.766	2476.57
769.953	2450.81
770.14	2532.76
770.327	2496.34
770.513	2565.31
770.7	2605.03
770.887	2534.31
771.073	2592.82
771.26	2562.4
771.447	2518.81
771.634	2529.47
771.82	2644.36
772.007	2523.65
772.193	2563.95
772.38	2590.88
772.567	2579.45
772.753	2593.4
772.94	2609.68
773.126	2628.47
773.313	2597.86
773.499	2566.47
773.686	2597.08
773.872	2529.66
774.059	2595.15
774.245	2530.44
774.432	2581.39
774.618	2485.49
774.804	2532.76
774.991	2467.47
775.177	2560.08
775.363	2581
775.55	2553.49
775.736	2490.14
775.922	2516.1
776.109	2518.42
776.295	2537.99
776.481	2561.24
776.667	2567.83
776.853	2511.64
777.04	2515.71
777.226	2525.79
777.412	2590.5
777.598	2489.36
777.784	2456.62
777.97	2473.28
778.156	2507.38
778.342	2479.09
778.528	2432.4
778.715	2434.53
778.901	2455.84
779.087	2467.86
779.272	2428.91
779.458	2394.81
779.644	2455.07
779.83	2420
780.016	2519.59
780.202	2438.6
780.388	2412.25
780.574	2355.29
780.76	2370.4
780.946	2430.66
781.131	2418.45
781.317	2411.47
781.503	2373.11
781.689	2340.37
781.874	2535.09
782.06	2391.71
782.246	2389
782.432	2377.57
782.617	2354.9
782.803	2401.21
782.989	2312.86
783.174	2355.29
783.36	2283.6
783.545	2345.21
783.731	2368.66
783.916	2279.15
784.102	2336.11
784.288	2282.44
784.473	2312.47
784.659	2252.8
784.844	2327.19
785.029	2261.51
785.215	2272.17
785.4	2235.36
785.586	2330.1
785.771	2220.83
785.956	2267.91
786.142	2238.46
786.327	2226.64
786.512	2258.41
786.698	2256.67
786.883	2199.52
787.068	2183.05
787.254	2227.22
787.439	2185.18
787.624	2183.24
787.809	2213.85
787.994	2182.08
788.18	2223.15
788.365	2116.98
788.55	2167.55
788.735	2141.2
788.92	2149.14
789.105	2146.43
789.29	2153.6
789.475	2078.04
789.66	2146.62
789.845	2095.67
790.03	2072.61
790.215	2134.03
790.4	2135.77
790.585	2181.3
790.77	2093.92
790.955	2055.17
791.14	2037.16
791.325	2132.29
791.51	1970.7
791.695	2077.45
791.879	2055.37
792.064	2026.89
792.249	2117.95
792.434	2020.3
792.618	2053.43
792.803	2089.47
792.988	2043.16
793.173	2092.95
793.357	2054.01
793.542	2012.36
793.727	2044.13
793.911	2119.3
794.096	2038.9
794.281	2103.8
794.465	2205.72
794.65	2106.13
794.834	2092.18
795.019	2109.81
795.203	2143.52
795.388	2126.09
795.572	2147.4
795.757	2099.35
795.941	2121.63
796.126	2114.85
796.31	2020.11
796.494	2095.28
796.679	2017.78
796.863	2029.02
797.048	2157.08
797.232	2125.31
797.416	2086.37
797.601	2095.28
797.785	2177.62
797.969	2155.73
798.153	2074.35
798.338	2127.64
798.522	2152.82
798.706	2097.22
798.89	2140.04
799.074	2188.67
799.258	2173.17
799.443	2122.79
799.627	2105.55
799.811	2157.08
799.995	2093.34
800.179	2086.17
800.363	2092.57
800.547	2130.35
800.731	2113.1
800.915	2063.7
801.099	2080.94
801.283	2087.53
801.467	2114.07
801.651	2080.55
801.835	2128.8
802.019	2110.59
802.202	2091.99
802.386	2036.19
802.57	2061.57
802.754	2078.42
802.938	2069.12
803.121	2049.94
803.305	2067.57
803.489	2082.88
803.673	2084.43
803.856	2084.43
804.04	2062.15
804.224	2103.22
804.407	2062.34
804.591	2063.89
804.775	2101.87
804.958	2086.75
805.142	2188.28
805.326	2101.67
805.509	2100.12
805.693	2071.45
805.876	2110.78
806.06	2108.65
806.243	2118.92
806.427	2152.43
806.61	2187.89
806.794	2090.05
806.977	2107.49
807.16	2118.34
807.344	2152.82
807.527	2077.07
807.71	2085.01
807.894	2101.87
808.077	2122.02
808.26	2057.3
808.444	2073.77
808.627	2150.69
808.81	2053.82
808.993	2007.9
809.177	2017.97
809.36	2057.3
809.543	2019.33
809.726	1970.12
809.909	1975.16
810.092	1952.88
810.276	2002.67
810.459	2003.06
810.642	1939.51
810.825	1906.57
811.008	1949
811.191	1872.86
811.374	1865.3
811.557	1870.15
811.74	1964.89
811.923	1857.75
812.106	1869.18
812.289	1815.9
812.472	1849.22
812.654	1821.51
812.837	1800.2
813.02	1743.24
813.203	1721.73
813.386	1625.44
813.569	1633
813.751	1582.24
813.934	1640.55
814.117	1603.16
814.3	1537.09
814.482	1492.92
814.665	1498.54
814.848	1464.24
815.03	1438.48
815.213	1431.7
815.396	1399.73
815.578	1394.69
815.761	1360.59
815.943	1449.71
816.126	1345.09
816.309	1321.84
816.491	1276.31
816.674	1230.97
816.856	1274.95
817.039	1262.94
817.221	1323.78
817.403	1292.58
817.586	1307.89
817.768	1294.91
817.951	1238.34
818.133	1202.3
818.315	1254.03
818.498	1286
818.68	1391.78
818.862	1301.88
819.045	1343.15
819.227	1371.83
819.409	1321.07
819.591	1336.76
819.774	1297.82
819.956	1257.71
820.138	1358.85
820.32	1353.03
820.502	1391.98
820.684	1437.31
820.866	1461.14
821.048	1501.25
821.231	1505.51
821.413	1497.76
821.595	1467.34
821.777	1486.53
821.959	1447.97
822.141	1500.86
822.323	1414.84
822.505	1344.12
822.686	1307.31
822.868	1286.58
823.05	1180.4
823.232	1145.92
823.414	1104.46
823.596	1175.37
823.778	1148.44
823.96	1184.28
824.141	1184.86
824.323	1179.63
824.505	1278.83
824.687	1315.25
824.868	1330.95
825.05	1445.64
825.232	1434.02
825.413	1541.94
825.595	1448.16
825.777	1384.42
825.958	1412.13
826.14	1425.3
826.321	1437.12
826.503	1422.78
826.685	1454.75
826.866	1466.18
827.048	1469.09
827.229	1405.54
827.411	1416.97
827.592	1332.5
827.773	1349.74
827.955	1321.26
828.136	1281.54
828.318	1272.63
828.499	1303.05
828.68	1261.78
828.862	1336.57
829.043	1320.29
829.224	1310.99
829.406	1291.23
829.587	1286.19
829.768	1280.57
829.949	1308.86
830.131	1299.56
830.312	1352.65
830.493	1295.1
830.674	1311.96
830.855	1287.93
831.036	1274.18
831.218	1353.81
831.399	1359.62
831.58	1298.59
831.761	1318.93
831.942	1332.88
832.123	1290.07
832.304	1275.15
832.485	1279.8
832.666	1315.06
832.847	1281.73
833.028	1277.28
833.209	1314.28
833.389	1272.43
833.57	1261.59
833.751	1266.82
833.932	1329.59
834.113	1288.13
834.294	1246.09
834.475	1312.15
834.655	1352.65
834.836	1363.5
835.017	1337.92
835.198	1289.87
835.378	1340.25
835.559	1356.13
835.74	1311.57
835.92	1301.5
836.101	1295.68
836.281	1331.33
836.462	1327.07
836.643	1356.71
836.823	1393.33
837.004	1332.69
837.184	1393.33
837.365	1416.2
837.545	1411.35
837.726	1317.19
837.906	1412.9
838.087	1357.49
838.267	1381.13
838.448	1301.88
838.628	1354
838.808	1359.62
838.989	1408.25
839.169	1303.05
839.349	1347.61
839.53	1346.83
839.71	1385.58
839.89	1335.98
840.07	1446.42
840.251	1346.45
840.431	1417.36
840.611	1335.4
840.791	1331.72
840.971	1351.29
841.151	1331.53
841.332	1334.82
841.512	1373.18
841.692	1294.72
841.872	1360.59
842.052	1323.58
842.232	1356.52
842.412	1274.18
842.592	1316.22
842.772	1326.88
842.952	1366.01
843.132	1358.65
843.312	1325.52
843.492	1283.09
843.672	1361.17
843.851	1291.42
844.031	1327.46
844.211	1326.68
844.391	1287.93
844.571	1301.69
844.751	1312.73
844.93	1317.19
845.11	1251.51
845.29	1318.93
845.47	1320.68
845.649	1315.83
845.829	1367.18
846.009	1259.65
846.188	1306.73
846.368	1296.07
846.547	1329.78
846.727	1353.62
846.907	1234.07
847.086	1286.97
847.266	1312.54
847.445	1287.16
847.625	1279.6
847.804	1268.17
847.984	1305.95
848.163	1246.86
848.343	1263.52
848.522	1271.85
848.701	1296.07
848.881	1240.85
849.06	1280.38
849.239	1283.67
849.419	1279.02
849.598	1236.79
849.777	1220.7
849.957	1247.44
850.136	1152.12
850.315	1130.03
850.494	1138.36
850.674	1151.92
850.853	1241.05
851.032	1211.02
851.211	1229.81
851.39	1211.21
851.569	1151.54
851.748	1155.61
851.927	1208.69
852.107	1183.12
852.286	1124.8
852.465	1131.39
852.644	1230.2
852.823	1200.94
853.002	1170.14
853.181	1174.01
853.359	1173.43
853.538	1113.37
853.717	1185.44
853.896	1074.62
854.075	1037.03
854.254	1067.84
854.433	995.96
854.611	1053.69
854.79	964.57
854.969	1044.78
855.148	1058.15
855.327	1038
855.505	1078.11
855.684	1053.69
855.863	1069.19
856.041	1043.62
856.22	1087.79
856.399	1060.28
856.577	1152.89
856.756	1121.51
856.934	1262.36
857.113	1247.25
857.291	1127.12
857.47	1107.17
857.648	1143.21
857.827	1125.57
858.005	1175.56
858.184	1135.84
858.362	1195.71
858.541	1136.42
858.719	1131.97
858.898	1105.04
859.076	1120.34
859.254	1187.77
859.433	1101.16
859.611	1097.87
859.789	1056.79
859.967	1134.1
860.146	1153.09
860.324	1062.41
860.502	1074.81
860.68	1048.08
860.859	1073.07
861.037	1079.27
861.215	1107.94
861.393	1131.58
861.571	1078.88
861.749	1064.35
861.927	1075.39
862.105	1115.89
862.283	1085.28
862.461	1047.69
862.639	1050.01
862.817	1034.51
862.995	1067.64
863.173	1028.31
863.351	1113.95
863.529	1052.34
863.707	1098.84
863.885	1077.53
864.063	1022.31
864.241	1028.51
864.418	1098.45
864.596	1041.88
864.774	1006.81
864.952	1038.19
865.129	1069.97
865.307	995.76
865.485	960.89
865.663	1036.64
865.84	973.68
866.018	1005.64
866.196	863.24
866.373	896.37
866.551	904.32
866.728	820.62
866.906	878.93
867.084	915.55
867.261	945.78
867.439	945.58
867.616	1010.49
867.794	951.2
867.971	971.93
868.149	972.71
868.326	992.28
868.503	988.98
868.681	957.79
868.858	927.76
869.035	935.51
869.213	980.85
869.39	952.95
869.567	1047.3
869.745	931.83
869.922	994.41
870.099	982.01
870.276	999.06
870.454	978.13
870.631	994.99
870.808	967.86
870.985	969.8
871.162	1039.55
871.339	997.31
871.517	930.66
871.694	941.13
871.871	938.03
872.048	964.18
872.225	895.02
872.402	959.34
872.579	896.37
872.756	943.26
872.933	891.92
873.11	928.15
873.287	939.58
873.463	910.71
873.64	882.03
873.817	929.5
873.994	903.35
874.171	846
874.348	939.58
874.524	887.85
874.701	919.23
874.878	849.48
875.055	906.25
875.231	896.18
875.408	915.17
875.585	850.45
875.762	892.3
875.938	887.46
876.115	886.49
876.291	888.43
876.468	835.73
876.645	852.58
876.821	876.8
876.998	858.2
877.174	892.5
877.351	865.76
877.527	857.04
877.704	869.44
877.88	867.12
878.057	872.15
878.233	898.5
878.409	810.93
878.586	847.74
878.762	844.83
878.938	838.25
879.115	775.86
879.291	855.68
879.467	792.33
879.644	812.87
879.82	864.98
879.996	813.25
880.172	751.64
880.349	826.62
880.525	857.23
880.701	772.57
880.877	761.72
881.053	812.48
881.229	813.84
881.405	858.98
881.581	766.17
881.757	790.59
881.933	816.35
882.109	824.1
882.285	813.25
882.461	758.62
882.637	831.27
882.813	787.1
882.989	758.81
883.165	810.54
883.341	792.91
883.517	840.96
883.693	821.39
883.869	810.93
884.044	746.22
884.22	837.67
884.396	819.26
884.572	817.9
884.747	832.05
884.923	820.04
885.099	826.62
885.275	865.18
885.45	821.59
885.626	746.99
885.801	806.28
885.977	794.85
886.153	727.42
886.328	789.23
886.504	772.76
886.679	799.11
886.855	769.27
887.03	808.8
887.206	840.38
887.381	828.75
887.557	801.63
887.732	848.71
887.908	816.55
888.083	826.43
888.258	804.92
888.434	786.9
888.609	805.7
888.784	807.83
888.96	780.9
889.135	767.72
889.31	761.72
889.485	802.99
889.661	776.83
889.836	836.12
890.011	815.77
890.186	784.97
890.361	771.79
890.537	829.53
890.712	800.66
890.887	806.67
891.062	805.7
891.237	834.76
891.412	751.84
891.587	803.37
891.762	818.49
891.937	827.98
892.112	765.59
892.287	759.2
892.462	759.2
892.637	735.17
892.812	731.3
892.987	729.17
893.161	697.01
893.336	752.8
893.511	746.02
893.686	738.47
893.861	717.54
894.035	715.22
894.21	737.69
894.385	666.59
894.56	726.26
894.734	681.51
894.909	651.48
895.084	688.09
895.258	633.26
895.433	658.26
895.608	602.84
895.782	592.96
895.957	614.66
896.131	605.56
896.306	576.3
896.48	556.93
896.655	593.54
896.829	525.54
897.004	525.15
897.178	554.99
897.353	524.76
897.527	551.31
897.701	556.73
897.876	506.94
898.05	551.7
898.224	542.59
898.399	572.81
898.573	527.28
898.747	422.66
898.921	505.39
899.096	408.52
899.27	416.65
899.444	426.53
899.618	432.35
899.792	468.58
899.967	463.73
900.141	485.05
900.315	438.55
900.489	473.03
900.663	510.62
900.837	466.83
901.011	409.29
901.185	495.51
901.359	453.47
901.533	479.04
901.707	461.41
901.881	460.63
902.055	415.88
902.229	441.26
902.403	503.26
902.576	436.42
902.75	472.26
902.924	570.88
903.098	517.79
903.272	538.33
903.446	579.79
903.619	542.01
903.793	557.12
903.967	538.13
904.14	616.21
904.314	570.68
904.488	574.56
904.661	599.74
904.835	579.79
905.009	647.79
905.182	645.66
905.356	605.17
905.529	596.26
905.703	571.26
905.876	562.16
906.05	538.13
906.223	549.76
906.397	472.65
906.57	461.8
906.744	467.42
906.917	447.07
907.09	474
907.264	464.51
907.437	419.75
907.61	411.62
907.784	435.25
907.957	461.99
908.13	399.02
908.304	475.36
908.477	409.29
908.65	423.63
908.823	382.36
908.996	466.25
909.17	402.32
909.343	367.64
909.516	423.43
909.689	377.32
909.862	374.61
910.035	407.35
910.208	377.32
910.381	388.56
910.554	462.77
910.727	395.53
910.9	403.09
911.073	374.03
911.246	443.78
911.419	458.31
911.592	424.02
911.765	388.56
911.938	384.88
912.11	393.4
912.283	419.95
912.456	436.8
912.629	420.72
912.802	382.75
912.974	360.27
913.147	326.56
913.32	279.09
913.493	319.39
913.665	344.77
913.838	339.93
914.01	329.66
914.183	335.09
914.356	366.47
914.528	400.57
914.701	412
914.873	420.33
915.046	350
915.218	352.33
915.391	274.64
915.563	314.74
915.736	343.8
915.908	368.8
916.081	370.74
916.253	335.09
916.425	351.55
916.598	369.57
916.77	348.45
916.942	355.62
917.115	262.04
917.287	350.78
917.459	344
917.632	299.82
917.804	258.56
917.976	324.24
918.148	322.49
918.32	301.37
918.493	340.7
918.665	368.41
918.837	359.3
919.009	382.75
919.181	409.48
919.353	393.21
919.525	375
919.697	380.04
919.869	357.37
920.041	390.3
920.213	454.63
920.385	398.63
920.557	339.15
920.729	395.73
920.901	380.62
921.073	369.19
921.244	363.76
921.416	401.54
921.588	382.36
921.76	364.54
921.932	472.84
922.103	362.79
922.275	365.5
922.447	369.38
922.619	289.17
922.79	370.54
922.962	341.67
923.134	347.68
923.305	293.62
923.477	318.81
923.648	328.69
923.82	315.13
923.991	278.71
924.163	275.61
924.335	302.92
924.506	290.91
924.677	386.82
924.849	293.04
925.02	314.35
925.192	335.86
925.363	317.65
925.535	320.75
925.706	288.59
925.877	373.64
926.049	286.46
926.22	346.32
926.391	297.11
926.562	337.41
926.734	300.79
926.905	342.06
927.076	258.17
927.247	289.36
927.419	260.3
927.59	274.06
927.761	259.33
927.932	218.06
928.103	259.33
928.274	245.77
928.445	190.16
928.616	238.79
928.787	228.72
928.958	244.61
929.129	235.31
929.3	228.33
929.471	176.99
929.642	143.86
929.813	92.32
929.984	222.32
930.155	116.73
930.326	188.42
930.496	129.13
930.667	89.8
930.838	135.33
931.009	78.37
931.18	143.28
931.35	121.19
931.521	129.13
931.692	90.19
931.863	48.73
932.033	109.95
932.204	97.55
932.374	113.05
932.545	49.11
932.716	116.35
932.886	78.95
933.057	40.98
933.227	62.48
933.398	114.99
933.568	28.97
933.739	4.17
933.909	5.33
934.08	100.26
934.25	-13.08
934.421	4.75
934.591	61.51
934.761	6.88
934.932	-24.9
935.102	49.31
935.272	37.1
935.443	32.84
935.613	9.59
935.783	59.77
935.953	-6.68
936.123	163.81
936.294	12.3
936.464	12.5
936.634	6.88
936.804	-33.81
936.974	-5.52
937.144	42.53
937.314	45.24
937.484	-7.27
937.655	-0.87
937.825	70.43
937.995	-10.75
938.165	62.87
938.334	15.4
938.504	39.62
938.674	38.85
938.844	22.18
939.014	70.43
939.184	73.53
939.354	109.76
939.524	100.46
939.694	59.58
939.863	42.92
940.033	131.46
940.203	105.5
940.373	92.13
940.542	115.38
940.712	45.05
940.882	107.24
941.051	110.73
941.221	82.25
941.391	113.44
941.56	35.55
941.73	59.19
941.899	159.74
942.069	44.46
942.238	94.45
942.408	61.9
942.577	107.82
942.747	79.53
942.916	18.31
943.086	31.29
943.255	101.23
943.425	73.14
943.594	28.38
943.763	1.07
943.933	24.51
944.102	-0.87
944.271	27.61
944.441	49.11
944.61	30.52
944.779	55.7
944.948	116.15
945.117	5.72
945.287	53.38
945.456	-5.72
945.625	55.51
945.794	68.1
945.963	10.75
946.132	68.3
946.301	41.95
946.47	68.68
946.639	-3.78
946.808	3.58
946.977	66.94
947.146	95.81
947.315	43.5
947.484	74.5
947.653	19.08
947.822	34.97
947.991	3.97
948.16	124.48
948.329	90.58
948.498	36.13
948.666	42.53
948.835	70.04
949.004	-0.1
949.173	5.52
949.341	54.73
949.51	74.3
949.679	107.82
949.847	60.35
950.016	126.42
950.185	105.5
950.353	19.28
950.522	21.6
950.69	78.76
950.859	32.45
951.028	97.55
951.196	74.5
951.365	34
951.533	59.58
951.701	70.43
951.87	67.71
952.038	-12.3
952.207	67.71
952.375	120.61
952.543	45.24
952.712	28.38
952.88	32.26
953.048	99.3
953.217	85.15
953.385	46.4
953.553	96.58
953.721	5.52
953.89	32.45
954.058	12.3
954.226	36.52
954.394	54.54
954.562	7.27
954.73	33.23
954.898	35.17
955.067	81.28
955.235	48.73
955.403	77.21
955.571	121.19
955.739	84.18
955.907	18.89
956.075	17.53
956.243	24.51
956.41	76.43
956.578	5.72
956.746	9.01
956.914	24.9
957.082	63.26
957.25	68.1
957.418	15.98
957.585	75.46
957.753	94.65
957.921	27.8
958.089	39.82
958.256	65.39
958.424	65.58
958.592	44.08
958.759	15.79
958.927	91.74
959.095	45.82
959.262	43.69
959.43	57.45
959.597	19.47
959.765	61.32
959.932	14.63
960.1	66.36
960.267	53.18
960.435	43.3
960.602	77.79
960.77	49.7
960.937	6.68
961.104	63.84
961.272	23.35
961.439	58.22
961.606	83.8
961.774	73.14
961.941	66.36
962.108	68.3
962.275	75.46
962.443	96.39
962.61	92.71
962.777	113.25
962.944	93.29
963.111	67.52
963.278	74.69
963.446	79.53
963.613	77.6
963.78	68.49
963.947	71.98
964.114	70.43
964.281	131.46
964.448	73.91
964.615	41.95
964.782	73.14
964.949	96
965.116	106.85
965.282	125.26
965.449	66.75
965.616	37.1
965.783	110.34
965.95	78.95
966.117	26.45
966.283	65.39
966.45	60.93
966.617	75.85
966.784	109.56
966.95	92.71
967.117	95.42
967.284	44.46
967.45	46.4
967.617	117.9
967.784	86.51
967.95	142.31
968.117	70.81
968.283	124.48
968.45	176.02
968.616	110.34
968.783	104.72
968.949	95.03
969.116	117.12
969.282	75.46
969.449	87.28
969.615	98.52
969.781	53.57
969.948	47.18
970.114	39.62
970.28	153.16
970.447	91.35
970.613	142.89
970.779	70.62
970.945	101.04
971.112	72.17
971.278	78.56
971.444	79.15
971.61	124.1
971.776	65.58
971.942	100.65
972.108	121.58
972.275	63.84
972.441	108.01
972.607	140.18
972.773	47.37
972.939	79.15
973.105	74.3
973.271	41.37
973.437	53.18
973.602	60.16
973.768	84.76
973.934	71.59
974.1	104.14
974.266	16.76
974.432	92.51
974.598	52.21
974.763	106.27
974.929	71.4
975.095	117.51
975.261	72.75
975.426	42.33
975.592	94.26
975.758	136.11
975.923	38.07
976.089	33.23
976.255	102.98
976.42	88.45
976.586	100.85
976.751	81.66
976.917	146.18
977.082	73.91
977.248	51.25
977.413	-0.1
977.579	55.12
977.744	70.23
977.91	30.71
978.075	48.73
978.24	87.48
978.406	54.15
978.571	56.28
978.736	12.11
978.902	103.95
979.067	36.33
979.232	24.7
979.397	65.2
979.563	115.76
979.728	47.37
979.893	56.67
980.058	56.09
980.223	93.48
980.388	63.06
980.554	87.09
980.719	62.1
980.884	57.45
981.049	82.63
981.214	62.1
981.379	108.4
981.544	57.45
981.709	74.11
981.874	56.67
982.039	40.78
982.204	79.15
982.368	51.25
982.533	50.47
982.698	96.97
982.863	101.23
983.028	51.05
983.193	45.63
983.357	60.16
983.522	74.3
983.687	56.48
983.852	81.28
984.016	54.73
984.181	81.66
984.346	73.91
984.51	85.35
984.675	51.25
984.839	71.98
985.004	55.9
985.168	104.14
985.333	73.91
985.498	75.27
985.662	104.53
985.827	87.86
985.991	59.58
986.155	64.23
986.32	75.08
986.484	109.56
986.649	96.58
986.813	-10.37
986.977	87.09
987.142	73.14
987.306	17.34
987.47	33.03
987.634	46.6
987.799	63.06
987.963	70.04
988.127	97.55
988.291	115.18
988.455	70.04
988.62	54.54
988.784	103.17
988.948	107.24
989.112	29.35
989.276	78.18
989.44	46.79
989.604	48.53
989.768	38.27
989.932	134.75
990.096	32.45
990.26	43.5
990.424	20.63
990.588	60.74
990.752	125.65
990.915	98.52
991.079	39.23
991.243	40.4
991.407	82.05
991.571	54.35
991.734	72.56
991.898	119.83
992.062	136.3
992.226	78.56
992.389	36.72
992.553	24.7
992.717	47.95
992.88	37.68
993.044	71.98
993.207	49.31
993.371	74.69
993.535	89.03
993.698	56.67
993.862	76.43
994.025	96.2
994.189	70.43
994.352	57.25
994.515	52.99
994.679	95.81
994.842	20.44
995.006	96.58
995.169	38.65
995.332	31.68
995.496	72.95
995.659	12.11
995.822	59
995.985	57.45
996.149	111.5
996.312	41.75
996.475	112.47
996.638	32.07
996.801	100.07
996.964	132.23
997.128	22.77
997.291	45.24
997.454	50.47
997.617	5.52
997.78	113.63
997.943	46.6
998.106	100.85
998.269	40.01
998.432	23.93
998.595	61.71
998.758	-4.55
998.92	29.74
999.083	-4.75
999.246	34.2
999.409	37.68
999.572	-48.15
999.735	27.22
999.897	66.75
1000.06	43.3
1000.223	23.93
1000.386	51.25
1000.548	54.93
1000.711	64.61
1000.874	69.46
1001.036	-18.31
1001.199	56.28
1001.361	28.38
1001.524	55.31
1001.687	85.15
1001.849	35.55
1002.012	54.35
1002.174	25.09
1002.337	82.83
1002.499	26.64
1002.661	77.98
1002.824	-5.52
1002.986	20.63
1003.149	62.68
1003.311	3.39
1003.473	87.48
1003.636	17.73
1003.798	50.86
1003.96	59.19
1004.123	50.28
1004.285	13.85
1004.447	49.89
1004.609	39.82
1004.771	92.32
1004.933	-0.1
1005.096	-3.2
1005.258	-14.63
1005.42	19.47
1005.582	72.56
1005.744	41.37
1005.906	28.19
1006.068	34.2
1006.23	-15.79
1006.392	4.17
1006.554	7.07
1006.716	69.46
1006.878	46.79
1007.04	-2.23
1007.202	13.47
1007.363	51.25
1007.525	59.96
1007.687	35.17
1007.849	58.61
1008.011	-15.21
1008.172	5.33
1008.334	31.1
1008.496	42.53
1008.658	-39.23
1008.819	-1.65
1008.981	-17.73
1009.143	-7.27
1009.304	28.38
1009.466	52.41
1009.627	89.03
1009.789	139.21
1009.95	56.48
1010.112	51.83
1010.273	69.65
1010.435	16.18
1010.596	23.54
1010.758	12.5
1010.919	7.46
1011.081	-5.33
1011.242	34.78
1011.403	37.1
1011.565	31.29
1011.726	31.68
1011.887	4.55
1012.049	8.43
1012.21	56.86
1012.371	96.2
1012.532	-42.14
1012.693	14.82
1012.855	3.97
1013.016	26.25
1013.177	64.42
1013.338	37.1
1013.499	68.3
1013.66	49.11
1013.821	55.12
1013.982	18.12
1014.143	20.44
1014.304	-11.14
1014.465	41.56
1014.626	60.93
1014.787	4.36
1014.948	71.78
1015.109	-46.79
1015.27	62.29
1015.431	0.29
1015.592	-17.53
1015.752	73.14
1015.913	26.06
1016.074	34.58
1016.235	10.95
1016.395	4.55
1016.556	29.93
1016.717	14.63
1016.877	78.37
1017.038	8.23
1017.199	14.05
1017.359	12.88
1017.52	-4.55
1017.681	-9.78
1017.841	13.85
1018.002	20.63
1018.162	2.42
1018.323	77.79
1018.483	-9.78
1018.644	-5.91
1018.804	-8.04
1018.964	-23.54
1019.125	-19.67
1019.285	11.53
1019.446	-20.83
1019.606	-13.85
1019.766	-3
1019.926	54.35
1020.087	46.4
1020.247	-35.17
1020.407	29.55
1020.567	51.05
1020.728	10.56
1020.888	-21.8
1021.048	-1.65
1021.208	-5.33
1021.368	-15.79
1021.528	58.41
1021.688	43.88
1021.848	59.19
1022.008	9.78
1022.168	6.68
1022.328	25.28
1022.488	24.51
1022.648	20.63
1022.808	18.7
1022.968	20.83
1023.128	8.04
1023.288	10.56
1023.448	8.82
1023.608	32.26
1023.767	22.38
1023.927	-13.66
1024.087	-4.75
1024.247	-19.47
1024.406	25.28
1024.566	-54.73
1024.726	-4.75
1024.885	22.96
1025.045	34
1025.205	-9.4
1025.364	6.68
1025.524	35.75
1025.683	31.68
1025.843	36.13
1026.003	-3.2
1026.162	58.41
1026.321	53.38
1026.481	15.21
1026.64	-1.84
1026.8	1.84
1026.959	6.88
1027.119	12.88
1027.278	-9.2
1027.437	2.62
1027.597	7.46
1027.756	-0.1
1027.915	12.11
1028.074	28.58
1028.234	-30.32
1028.393	-3.97
1028.552	-2.03
1028.711	-35.36
1028.87	62.29
1029.03	-42.53
1029.189	-2.81
1029.348	-59.38
1029.507	-16.18
1029.666	-24.51
1029.825	-29.35
1029.984	-16.57
1030.143	-4.17
1030.302	-6.3
1030.461	-49.11
1030.62	12.3
1030.779	29.93
1030.938	-7.46
1031.097	-27.61
1031.255	36.91
1031.414	54.35
1031.573	42.33
1031.732	-36.52
1031.891	-15.02
1032.049	40.98
1032.208	32.45
1032.367	-25.28
1032.525	-9.2
1032.684	-0.1
1032.843	11.14
1033.001	-17.92
1033.16	113.44
1033.319	52.8
1033.477	11.92
1033.636	12.88
1033.794	-35.94
1033.953	17.73
1034.111	30.32
1034.27	-5.33
1034.428	9.4
1034.587	-23.73
1034.745	1.07
1034.903	3.97
1035.062	17.15
1035.22	-30.52
1035.378	35.94
1035.537	-32.45
1035.695	1.84
1035.853	-9.59
1036.011	9.78
1036.17	27.03
1036.328	-59.38
1036.486	10.56
1036.644	8.43
1036.802	-79.73
1036.96	-29.55
1037.119	-8.04
1037.277	18.12
1037.435	-41.56
1037.593	-35.36
1037.751	1.07
1037.909	59.77
1038.067	59.77
