Data from oakcork_FLMT105791__300__17-34-46-052.txt Node

Date: Mon Mar 20 17:34:46 GMT 2023
User: antho
Spectrometer: FLMT10579
Trigger mode: 0
Integration Time (sec): 1.000000E-1
Scans to average: 10
Electric dark correction enabled: true
Nonlinearity correction enabled: false
Boxcar width: 0
XAxis mode: Wavelengths
Number of Pixels in Spectrum: 3648
>>>>>Begin Spectral Data<<<<<
345.248	-147.96
345.464	-147.96
345.681	-147.96
345.898	-141.76
346.114	-162.1
346.331	-26.29
346.548	20.41
346.764	-17.57
346.981	-13.3
347.197	-14.85
347.414	11.11
347.631	-13.69
347.847	54.12
348.064	-1.29
348.28	49.08
348.497	-31.13
348.713	-16.6
348.93	19.83
349.146	37.65
349.363	-10.2
349.579	39.4
349.796	5.1
350.012	-7.1
350.229	33
350.445	21.76
350.661	-48.18
350.878	25.06
351.094	19.63
351.311	31.06
351.527	10.33
351.743	-10.4
351.96	13.05
352.176	27
352.392	32.03
352.609	47.15
352.825	-10.59
353.041	-18.34
353.257	8.4
353.474	-9.24
353.69	10.53
353.906	1.23
354.122	-20.47
354.339	48.11
354.555	10.72
354.771	12.66
354.987	57.8
355.203	38.62
355.42	9.17
355.636	8.98
355.852	-38.68
356.068	9.36
356.284	-24.93
356.5	75.63
356.716	3.94
356.932	11.5
357.148	39.98
357.364	7.62
357.58	35.52
357.796	54.9
358.012	6.07
358.228	22.15
358.444	-49.92
358.66	52.76
358.876	13.43
359.092	-0.52
359.308	7.43
359.524	-2.26
359.74	-17.57
359.956	-21.44
360.172	29.32
360.388	39.01
360.604	-1.49
360.819	58.19
361.035	31.06
361.251	28.93
361.467	-19.5
361.683	34.36
361.898	33.2
362.114	47.34
362.33	16.92
362.546	29.9
362.762	-23.77
362.977	7.81
363.193	5.88
363.409	30.29
363.624	-6.14
363.84	-9.24
364.056	-8.27
364.271	33
364.487	2.2
364.703	-4.2
364.918	-2.26
365.134	-3.23
365.35	19.83
365.565	87.25
365.781	12.08
365.996	34.16
366.212	69.04
366.427	13.63
366.643	4.91
366.858	-0.71
367.074	-60.58
367.289	58.58
367.505	111.28
367.72	-38.68
367.936	-26.48
368.151	33.39
368.367	48.31
368.582	18.47
368.798	1.23
369.013	63.81
369.228	5.49
369.444	12.85
369.659	41.72
369.874	40.17
370.09	60.32
370.305	-64.84
370.52	1.23
370.736	59.54
370.951	27.38
371.166	52.96
371.381	69.43
371.597	23.12
371.812	-22.41
372.027	-13.89
372.242	15.37
372.458	60.9
372.673	17.5
372.888	-5.55
373.103	30.29
373.318	90.16
373.533	45.6
373.749	43.66
373.964	-44.5
374.179	61.09
374.394	-22.22
374.609	57.41
374.824	4.71
375.039	28.55
375.254	-15.44
375.469	78.92
375.684	8.78
375.899	64.78
376.114	32.61
376.329	10.72
376.544	34.94
376.759	46.76
376.974	-3.62
377.189	28.16
377.404	2.58
377.619	33.97
377.834	-51.67
378.049	-30.93
378.264	-29.58
378.478	17.5
378.693	-4.97
378.908	30.1
379.123	6.07
379.338	62.64
379.553	5.88
379.767	31.65
379.982	35.91
380.197	34.94
380.412	9.17
380.626	36.3
380.841	93.06
381.056	26.61
381.271	68.07
381.485	27.58
381.7	-1.29
381.915	8.59
382.129	6.46
382.344	52.18
382.559	9.95
382.773	26.41
382.988	-19.89
383.202	41.14
383.417	9.56
383.632	108.76
383.846	-1.87
384.061	36.88
384.275	0.06
384.49	53.35
384.704	35.13
384.919	40.56
385.133	5.3
385.348	28.16
385.562	-12.14
385.777	72.72
385.991	-0.52
386.206	0.65
386.42	13.05
386.634	60.51
386.849	32.61
387.063	32.42
387.277	-29
387.492	7.04
387.706	-28.03
387.92	-4.59
388.135	70.59
388.349	32.03
388.563	4.52
388.778	53.93
388.992	49.28
389.206	45.4
389.42	94.61
389.635	2
389.849	44.05
390.063	53.73
390.277	38.62
390.491	70.78
390.706	51.41
390.92	59.16
391.134	8.78
391.348	22.54
391.562	-20.86
391.776	4.13
391.99	0.26
392.205	55.67
392.419	8.4
392.633	21.18
392.847	63.03
393.061	13.82
393.275	74.46
393.489	26.61
393.703	10.91
393.917	80.66
394.131	1.03
394.345	51.8
394.559	45.01
394.773	-1.87
394.986	37.65
395.2	-16.4
395.414	50.63
395.628	-5.55
395.842	32.03
396.056	-6.52
396.27	-22.8
396.484	37.07
396.697	32.61
396.911	74.46
397.125	36.68
397.339	54.51
397.553	57.22
397.766	80.86
397.98	47.73
398.194	65.36
398.408	13.63
398.621	34.36
398.835	39.01
399.049	40.36
399.262	53.73
399.476	85.7
399.69	47.34
399.903	113.6
400.117	42.69
400.331	47.34
400.544	-2.84
400.758	108.18
400.971	39.98
401.185	49.47
401.398	10.72
401.612	82.02
401.826	71.17
402.039	52.38
402.253	32.23
402.466	30.48
402.68	48.11
402.893	37.85
403.106	46.18
403.32	57.8
403.533	55.28
403.747	53.35
403.96	61.87
404.174	88.41
404.387	35.13
404.6	39.98
404.814	78.14
405.027	33.58
405.24	37.26
405.454	18.08
405.667	65.74
405.88	-22.99
406.094	17.11
406.307	74.85
406.52	83.96
406.733	19.83
406.947	15.18
407.16	93.26
407.373	95.97
407.586	28.35
407.799	45.4
408.012	74.66
408.226	30.48
408.439	75.63
408.652	10.14
408.865	62.45
409.078	61.48
409.291	75.63
409.504	9.75
409.717	63.42
409.93	65.74
410.143	68.46
410.357	5.68
410.57	24.09
410.783	26.03
410.996	45.4
411.209	54.9
411.421	71.56
411.634	63.42
411.847	12.27
412.06	50.83
412.273	25.06
412.486	42.3
412.699	128.91
412.912	48.11
413.125	68.46
413.338	55.09
413.55	73.69
413.763	37.65
413.976	57.61
414.189	40.56
414.402	39.01
414.615	87.25
414.827	39.2
415.04	75.82
415.253	79.5
415.466	108.95
415.678	111.28
415.891	59.74
416.104	65.55
416.316	50.83
416.529	28.55
416.742	68.65
416.954	68.46
417.167	57.03
417.38	41.53
417.592	57.03
417.805	20.99
418.017	9.75
418.23	79.69
418.442	42.3
418.655	16.34
418.868	51.21
419.08	86.86
419.293	88.03
419.505	37.65
419.718	67.68
419.93	97.52
420.142	34.36
420.355	93.84
420.567	101.01
420.78	61.87
420.992	58
421.205	106.24
421.417	22.35
421.629	62.45
421.842	24.86
422.054	-2.45
422.266	65.16
422.479	95.97
422.691	67.29
422.903	100.43
423.115	28.93
423.328	63.81
423.54	75.24
423.752	59.16
423.964	24.28
424.177	72.72
424.389	49.66
424.601	168.62
424.813	72.14
425.025	99.26
425.238	81.24
425.45	56.45
425.662	51.99
425.874	336.8
426.086	49.47
426.298	82.6
426.51	68.46
426.722	68.84
426.934	42.88
427.146	100.81
427.358	25.06
427.57	91.32
427.782	59.16
427.994	71.94
428.206	45.21
428.418	7.23
428.63	68.84
428.842	101.2
429.054	65.55
429.266	108.56
429.478	41.91
429.69	53.73
429.902	9.36
430.114	95.78
430.325	87.83
430.537	31.45
430.749	74.66
430.961	17.7
431.173	56.64
431.384	107.21
431.596	13.24
431.808	27.19
432.02	61.87
432.231	86.67
432.443	118.64
432.655	65.74
432.867	39.4
433.078	62.64
433.29	109.53
433.502	78.73
433.713	64.39
433.925	74.85
434.136	101.39
434.348	42.69
434.56	16.15
434.771	149.44
434.983	37.07
435.194	49.86
435.406	50.44
435.617	79.31
435.829	135.88
436.04	83.96
436.252	73.3
436.463	117.67
436.675	110.31
436.886	64
437.098	90.16
437.309	128.91
437.521	85.12
437.732	121.35
437.943	88.61
438.155	97.71
438.366	49.28
438.578	106.63
438.789	84.93
439	99.46
439.211	72.14
439.423	92.48
439.634	88.03
439.845	95.97
440.057	83.76
440.268	111.86
440.479	59.93
440.69	85.7
440.902	66.71
441.113	80.86
441.324	75.04
441.535	106.04
441.746	143.24
441.957	39.4
442.168	44.63
442.38	125.61
442.591	107.98
442.802	56.64
443.013	58
443.224	94.61
443.435	75.82
443.646	70.2
443.857	68.84
444.068	50.05
444.279	60.51
444.49	151.57
444.701	48.89
444.912	175.6
445.123	114.96
445.334	86.67
445.545	105.08
445.756	81.63
445.967	55.48
446.178	114.38
446.388	125.42
446.599	110.31
446.81	89.96
447.021	82.6
447.232	144.79
447.443	145.18
447.653	78.34
447.864	114.76
448.075	101.2
448.286	144.6
448.496	128.33
448.707	112.83
448.918	82.79
449.129	175.6
449.339	54.51
449.55	101.39
449.761	105.08
449.971	136.85
450.182	98.68
450.393	110.31
450.603	113.21
450.814	130.07
451.024	92.09
451.235	132.98
451.446	166.11
451.656	163.2
451.867	86.28
452.077	106.63
452.288	175.02
452.498	163.2
452.709	101.98
452.919	129.68
453.13	107.59
453.34	163.78
453.55	77.56
453.761	128.91
453.971	144.6
454.182	145.57
454.392	131.62
454.602	154.67
454.813	116.51
455.023	134.91
455.233	81.63
455.444	129.29
455.654	48.31
455.864	124.64
456.075	106.82
456.285	91.9
456.495	120.58
456.705	122.9
456.916	167.46
457.126	165.52
457.336	114.18
457.546	80.86
457.756	96.55
457.967	145.76
458.177	136.08
458.387	118.83
458.597	87.64
458.807	98.1
459.017	105.66
459.227	126.97
459.437	106.82
459.647	157.77
459.857	120.58
460.068	69.23
460.278	156.22
460.488	136.66
460.698	175.41
460.908	110.5
461.117	107.79
461.327	80.66
461.537	130.46
461.747	115.73
461.957	105.08
462.167	210.47
462.377	135.11
462.587	117.86
462.797	143.44
463.007	158.94
463.216	183.16
463.426	166.11
463.636	153.32
463.846	95.78
464.056	119.8
464.265	177.92
464.475	113.6
464.685	126.58
464.895	152.16
465.104	112.83
465.314	153.32
465.524	125.81
465.733	142.66
465.943	181.8
466.153	186.06
466.362	191.1
466.572	140.53
466.782	132.2
466.991	107.21
467.201	220.36
467.41	71.94
467.62	134.53
467.829	133.36
468.039	136.46
468.249	143.83
468.458	130.65
468.668	162.42
468.877	162.81
469.086	179.67
469.296	164.75
469.505	109.34
469.715	197.11
469.924	143.24
470.134	192.07
470.343	206.02
470.552	119.8
470.762	136.08
470.971	108.76
471.18	157.39
471.39	128.52
471.599	118.64
471.808	175.02
472.018	133.36
472.227	169.4
472.436	175.99
472.645	118.25
472.855	101.78
473.064	191.68
473.273	152.16
473.482	181.61
473.691	201.56
473.901	156.81
474.11	164.94
474.319	223.46
474.528	167.85
474.737	220.16
474.946	192.07
475.155	184.51
475.364	186.06
475.573	163.39
475.783	170.37
475.992	193.04
476.201	199.24
476.41	186.45
476.619	146.15
476.828	186.26
477.037	162.04
477.245	157.19
477.454	196.91
477.663	142.28
477.872	144.6
478.081	212.61
478.29	134.53
478.499	212.99
478.708	189.36
478.917	251.16
479.125	194.97
479.334	213.19
479.543	180.06
479.752	200.98
479.961	195.56
480.169	215.32
480.378	166.3
480.587	308.32
480.796	225.97
481.004	193.42
481.213	209.12
481.422	200.01
481.63	160.29
481.839	209.31
482.048	249.22
482.256	200.98
482.465	215.9
482.674	198.46
482.882	216.09
483.091	273.25
483.299	183.54
483.508	235.85
483.716	229.46
483.925	241.47
484.134	191.1
484.342	182.96
484.551	246.9
484.759	219.58
484.967	243.02
485.176	259.1
485.384	230.24
485.593	253.29
485.801	226.17
486.01	219.97
486.218	226.75
486.426	182.19
486.635	215.71
486.843	207.18
487.051	219.58
487.26	226.94
487.468	238.95
487.676	259.1
487.885	203.11
488.093	217.64
488.301	237.02
488.509	218.61
488.717	276.35
488.926	250.19
489.134	190.52
489.342	252.71
489.55	226.94
489.758	238.37
489.967	219.77
490.175	306.19
490.383	216.09
490.591	275.57
490.799	206.99
491.007	297.27
491.215	229.27
491.423	234.5
491.631	245.35
491.839	257.55
492.047	269.18
492.255	203.69
492.463	221.71
492.671	229.66
492.879	269.18
493.087	246.7
493.295	274.8
493.503	256
493.711	259.3
493.919	255.62
494.127	273.05
494.334	287.97
494.542	238.57
494.75	276.35
494.958	273.64
495.166	271.5
495.374	266.08
495.581	259.69
495.789	267.44
495.997	288.94
496.205	275.38
496.412	244.38
496.62	246.9
496.828	277.12
497.035	256.59
497.243	281.58
497.451	242.83
497.658	294.95
497.866	275.19
498.074	324.59
498.281	253.49
498.489	349.97
498.696	299.02
498.904	240.5
499.112	283.52
499.319	349.58
499.527	276.54
499.734	314.13
499.942	247.67
500.149	264.14
500.357	310.84
500.564	252.13
500.771	282.16
500.979	282.16
501.186	268.21
501.394	281.77
501.601	305.8
501.808	318.2
502.016	279.45
502.223	256.78
502.43	298.44
502.638	274.99
502.845	250.97
503.052	345.13
503.26	261.43
503.467	335.25
503.674	288.36
503.881	310.45
504.089	384.27
504.296	316.45
504.503	266.85
504.71	325.75
504.917	277.12
505.125	275.19
505.332	281.77
505.539	333.12
505.746	364.7
505.953	326.53
506.16	309.48
506.367	370.7
506.574	359.85
506.781	342.61
506.988	268.79
507.195	329.43
507.402	299.79
507.609	323.62
507.816	313.35
508.023	294.95
508.23	282.94
508.437	234.5
508.644	352.3
508.851	365.47
509.058	324.4
509.265	301.34
509.472	315.49
509.679	386.78
509.885	311.22
510.092	315.87
510.299	318.39
510.506	312
510.713	319.55
510.92	359.27
511.126	348.62
511.333	367.02
511.54	346.29
511.746	385.62
511.953	361.21
512.16	391.05
512.367	324.01
512.573	329.05
512.78	327.3
512.987	327.88
513.193	324.59
513.4	307.93
513.606	331.57
513.813	368.18
514.02	343.58
514.226	414.1
514.433	381.36
514.639	313.35
514.846	346.48
515.052	312.58
515.259	333.31
515.465	362.76
515.672	339.12
515.878	434.45
516.085	341.83
516.291	368.18
516.497	308.7
516.704	326.72
516.91	311.42
517.117	309.09
517.323	301.15
517.529	334.28
517.736	348.81
517.942	330.02
518.148	312.77
518.354	372.06
518.561	340.87
518.767	346.68
518.973	389.3
519.179	370.32
519.386	336.8
519.592	343.38
519.798	308.9
520.004	411.78
520.21	353.07
520.417	375.74
520.623	397.44
520.829	407.13
521.035	403.83
521.241	400.54
521.447	389.5
521.653	460.21
521.859	373.8
522.065	409.45
522.271	480.17
522.477	388.72
522.683	434.83
522.889	435.41
523.095	410.23
523.301	406.55
523.507	422.05
523.713	416.81
523.919	378.65
524.125	443.36
524.331	385.23
524.537	460.8
524.742	419.53
524.948	449.95
525.154	436.96
525.36	537.13
525.566	442.97
525.772	493.15
525.977	397.25
526.183	484.43
526.389	475.71
526.595	435.61
526.8	412.75
527.006	432.9
527.212	415.85
527.417	407.71
527.623	393.37
527.829	457.89
528.034	464.67
528.24	438.13
528.446	423.79
528.651	464.86
528.857	455.76
529.062	539.65
529.268	448.78
529.473	452.85
529.679	452.27
529.884	504.97
530.09	497.8
530.295	517.95
530.501	478.81
530.706	490.05
530.912	424.18
531.117	476.49
531.323	495.86
531.528	484.05
531.733	505.16
531.939	464.09
532.144	493.15
532.35	476.3
532.555	516.01
532.76	504.19
532.966	532.68
533.171	492.96
533.376	472.81
533.581	473.78
533.787	501.87
533.992	476.3
534.197	555.34
534.402	489.28
534.607	488.89
534.813	550.69
535.018	496.06
535.223	485.4
535.428	514.46
535.633	560.58
535.838	514.85
536.043	533.26
536.249	576.85
536.454	534.23
536.659	514.66
536.864	485.98
537.069	529.58
537.274	556.89
537.479	499.16
537.684	549.14
537.889	520.28
538.094	587.31
538.299	526.09
538.504	556.7
538.708	558.44
538.913	560.77
539.118	515.82
539.323	556.31
539.528	511.56
539.733	530.74
539.938	547.98
540.142	563.48
540.347	519.89
540.552	520.08
540.757	538.49
540.962	533.84
541.166	480.36
541.371	481.33
541.576	526.09
541.781	439.68
541.985	533.06
542.19	528.99
542.395	578.59
542.599	613.08
542.804	547.98
543.008	574.14
543.213	526.67
543.418	515.43
543.622	578.59
543.827	495.28
544.031	575.69
544.236	593.71
544.44	543.72
544.645	590.8
544.849	542.75
545.054	564.45
545.258	612.69
545.463	585.37
545.667	554.57
545.872	565.03
546.076	566
546.281	547.79
546.485	544.11
546.689	568.13
546.894	584.02
547.098	571.62
547.302	521.83
547.507	535.97
547.711	571.04
547.915	601.65
548.119	537.52
548.324	568.71
548.528	623.93
548.732	555.93
548.936	592.35
549.141	591.19
549.345	557.67
549.549	561.93
549.753	566.58
549.957	645.82
550.161	611.14
550.366	579.95
550.57	532.68
550.774	559.99
550.978	559.8
551.182	601.84
551.386	572.78
551.59	519.11
551.794	543.72
551.998	585.37
552.202	557.67
552.406	500.13
552.61	540.04
552.814	552.44
553.018	639.82
553.222	558.06
553.426	538.49
553.63	630.13
553.833	557.28
554.037	523.57
554.241	615.41
554.445	579.37
554.649	567.94
554.853	580.14
555.056	589.25
555.26	578.01
555.464	591.19
555.668	565.42
555.871	590.41
556.075	598.55
556.279	543.91
556.483	528.22
556.686	587.12
556.89	563.87
557.094	573.36
557.297	509.62
557.501	597.97
557.704	531.32
557.908	587.7
558.112	511.75
558.315	598.16
558.519	535.19
558.722	568.71
558.926	556.31
559.129	549.53
559.333	516.4
559.536	519.31
559.74	494.7
559.943	491.02
560.147	470.87
560.35	545.08
560.553	540.43
560.757	485.6
560.96	610.76
561.164	507.68
561.367	572.01
561.57	530.16
561.774	540.04
561.977	524.15
562.18	499.54
562.384	581.69
562.587	501.48
562.79	518.53
562.993	573.94
563.197	564.84
563.4	574.91
563.603	593.9
563.806	616.37
564.009	480.56
564.212	513.11
564.416	483.66
564.619	546.63
564.822	464.86
565.025	530.16
565.228	505.55
565.431	522.79
565.634	448.78
565.837	510.98
566.04	488.89
566.243	504.97
566.446	411.2
566.649	512.91
566.852	442.97
567.055	486.37
567.258	525.31
567.461	561.35
567.664	535.97
567.867	436.38
568.07	505.36
568.273	475.71
568.475	527.06
568.678	491.02
568.881	476.68
569.084	490.25
569.287	432.9
569.489	448.2
569.692	526.86
569.895	515.82
570.098	437.74
570.3	419.14
570.503	405
570.706	436.96
570.909	420.5
571.111	423.01
571.314	400.54
571.516	435.41
571.719	439.68
571.922	438.71
572.124	440.84
572.327	435.22
572.529	391.43
572.732	401.12
572.935	435.41
573.137	486.56
573.34	435.61
573.542	447.81
573.745	454.79
573.947	449.56
574.15	420.11
574.352	410.61
574.554	435.41
574.757	402.48
574.959	408.68
575.162	386.98
575.364	399.96
575.566	497.22
575.769	367.22
575.971	448.78
576.173	362.95
576.376	407.32
576.578	433.86
576.78	480.17
576.982	366.05
577.185	404.61
577.387	367.8
577.589	367.41
577.791	415.65
577.993	447.04
578.196	386.2
578.398	441.61
578.6	451.11
578.802	348.62
579.004	379.42
579.206	377.48
579.408	398.22
579.61	392.79
579.812	418.95
580.014	389.11
580.216	394.73
580.418	403.64
580.62	366.63
580.822	323.23
581.024	389.5
581.226	429.8
581.428	377.1
581.63	460.02
581.832	383.49
582.034	425.53
582.236	374.77
582.438	410.81
582.64	437.93
582.841	444.33
583.043	449.56
583.245	409.84
583.447	437.16
583.649	375.35
583.85	387.37
584.052	430.57
584.254	360.63
584.456	431.73
584.657	361.79
584.859	392.98
585.061	395.12
585.262	371.28
585.464	353.46
585.666	418.75
585.867	376.13
586.069	442
586.27	395.7
586.472	390.47
586.674	354.43
586.875	357.33
587.077	383.49
587.278	408.1
587.48	394.34
587.681	492.96
587.883	403.83
588.084	342.22
588.285	384.27
588.487	368.38
588.688	402.87
588.89	346.1
589.091	345.32
589.292	384.46
589.494	348.03
589.695	370.9
589.896	320.33
590.098	312.19
590.299	367.8
590.5	332.15
590.702	318.97
590.903	320.72
591.104	363.73
591.305	352.88
591.507	398.22
591.708	379.42
591.909	330.98
592.11	399.96
592.311	373.42
592.512	349.2
592.714	314.32
592.915	319.75
593.116	350.75
593.317	336.41
593.518	329.05
593.719	343.77
593.92	381.55
594.121	368.77
594.322	377.1
594.523	350.75
594.724	323.43
594.925	340.67
595.126	353.85
595.327	377.87
595.528	346.1
595.729	321.68
595.929	338.54
596.13	358.5
596.331	368.18
596.532	368.57
596.733	396.47
596.934	380.78
597.135	362.95
597.335	353.07
597.536	311.8
597.737	350.94
597.938	327.69
598.138	358.3
598.339	345.71
598.54	348.81
598.74	326.92
598.941	328.66
599.142	382.72
599.342	351.72
599.543	304.05
599.744	328.27
599.944	334.67
600.145	337.77
600.345	340.28
600.546	423.79
600.746	390.47
600.947	401.9
601.147	345.52
601.348	396.08
601.548	331.37
601.749	343.58
601.949	319.17
602.15	326.14
602.35	347.65
602.551	389.69
602.751	295.72
602.951	351.13
603.152	288.17
603.352	353.65
603.552	348.42
603.753	365.28
603.953	344.93
604.153	369.35
604.354	333.12
604.554	381.17
604.754	346.29
604.954	314.13
605.155	328.47
605.355	298.24
605.555	388.92
605.755	364.31
605.955	355.98
606.155	361.4
606.356	334.08
606.556	386.01
606.756	357.33
606.956	309.87
607.156	385.62
607.356	332.34
607.556	349.78
607.756	349.2
607.956	350.55
608.156	335.83
608.356	345.71
608.556	358.69
608.756	358.69
608.956	334.08
609.156	355.01
609.356	293.98
609.556	310.64
609.755	367.99
609.955	283.13
610.155	338.73
610.355	338.15
610.555	323.04
610.755	348.23
610.954	270.92
611.154	332.92
611.354	332.53
611.554	328.08
611.753	296.5
611.953	264.92
612.153	342.03
612.352	337.77
612.552	309.09
612.752	280.42
612.951	330.79
613.151	343.97
613.351	272.67
613.55	296.11
613.75	344.74
613.949	318.97
614.149	334.86
614.348	333.89
614.548	302.31
614.747	275.77
614.947	293.98
615.146	262.01
615.346	332.53
615.545	312
615.745	328.27
615.944	327.88
616.144	324.59
616.343	333.7
616.542	309.09
616.742	301.15
616.941	309.09
617.14	279.64
617.34	295.53
617.539	294.37
617.738	283.52
617.938	385.23
618.137	312.58
618.336	258.14
618.535	295.92
618.734	303.67
618.934	316.84
619.133	303.86
619.332	288.17
619.531	284.68
619.73	296.5
619.929	313.16
620.128	313.74
620.328	335.44
620.527	288.36
620.726	273.44
620.925	329.82
621.124	281.77
621.323	320.14
621.522	267.24
621.721	274.02
621.92	271.89
622.119	302.5
622.318	262.79
622.517	256
622.715	296.11
622.914	231.79
623.113	281.97
623.312	251.16
623.511	325.56
623.71	288.94
623.909	257.55
624.107	328.47
624.306	239.15
624.505	245.15
624.704	255.42
624.902	276.54
625.101	315.68
625.3	268.21
625.499	235.47
625.697	282.94
625.896	250.77
626.095	308.7
626.293	254.65
626.492	261.82
626.69	281.19
626.889	258.72
627.088	279.06
627.286	229.27
627.485	246.32
627.683	248.25
627.882	276.15
628.08	211.44
628.279	275.57
628.477	319.75
628.676	239.54
628.874	299.02
629.073	254.65
629.271	208.15
629.469	299.02
629.668	268.02
629.866	242.83
630.065	241.86
630.263	281.58
630.461	226.56
630.66	237.79
630.858	275.96
631.056	300.57
631.254	332.92
631.453	226.75
631.651	293.2
631.849	286.23
632.047	280.61
632.245	242.44
632.444	273.83
632.642	276.74
632.84	261.62
633.038	240.7
633.236	236.44
633.434	214.93
633.632	232.37
633.83	226.56
634.028	260.46
634.227	243.8
634.425	291.46
634.623	242.44
634.821	287.78
635.019	251.94
635.216	208.92
635.414	281.19
635.612	269.76
635.81	239.73
636.008	314.9
636.206	228.69
636.404	256
636.602	205.63
636.8	238.95
636.997	283.52
637.195	278.67
637.393	263.56
637.591	314.52
637.789	279.84
637.986	230.24
638.184	247.29
638.382	304.64
638.58	260.07
638.777	295.72
638.975	256.2
639.173	241.47
639.37	268.4
639.568	267.44
639.765	258.72
639.963	244.77
640.161	298.05
640.358	271.89
640.556	252.9
640.753	228.49
640.951	221.52
641.148	276.35
641.346	254.07
641.543	249.61
641.741	289.14
641.938	231.59
642.136	248.25
642.333	217.26
642.531	301.54
642.728	331.95
642.925	265.3
643.123	249.03
643.32	256
643.517	270.34
643.715	243.02
643.912	261.82
644.109	250.77
644.306	249.42
644.504	256
644.701	235.85
644.898	273.05
645.095	205.82
645.293	259.49
645.49	265.11
645.687	261.04
645.884	292.62
646.081	184.71
646.278	223.07
646.475	207.37
646.672	214.74
646.87	270.54
647.067	257.94
647.264	259.49
647.461	190.71
647.658	180.44
647.855	246.7
648.052	222.1
648.249	183.93
648.446	228.69
648.642	203.89
648.839	192.84
649.036	224.42
649.233	187.03
649.43	171.34
649.627	184.32
649.824	222.49
650.021	202.72
650.217	170.95
650.414	199.62
650.611	258.72
650.808	235.08
651.004	211.64
651.201	223.26
651.398	264.34
651.595	220.16
651.791	211.06
651.988	246.32
652.185	194.78
652.381	210.67
652.578	175.41
652.775	215.9
652.971	208.34
653.168	196.72
653.364	239.34
653.561	143.44
653.757	198.46
653.954	204.66
654.15	178.31
654.347	293.98
654.543	224.81
654.74	166.49
654.936	161.26
655.133	213.57
655.329	211.83
655.525	204.27
655.722	242.25
655.918	172.31
656.115	241.09
656.311	172.5
656.507	171.34
656.704	150.61
656.9	181.61
657.096	138.4
657.292	162.23
657.489	241.28
657.685	203.5
657.881	185.29
658.077	167.07
658.273	199.24
658.47	231.21
658.666	182.96
658.862	228.88
659.058	167.85
659.254	220.55
659.45	184.32
659.646	207.18
659.842	185.87
660.038	221.13
660.234	187.03
660.43	183.54
660.626	255.62
660.822	237.21
661.018	245.35
661.214	201.17
661.41	156.03
661.606	212.22
661.802	225.01
661.998	202.53
662.194	190.32
662.39	200.4
662.586	213.38
662.781	205.44
662.977	236.24
663.173	216.67
663.369	199.62
663.564	206.41
663.76	235.85
663.956	194.97
664.152	226.75
664.347	147.51
664.543	192.84
664.739	185.48
664.934	153.71
665.13	131.43
665.326	232.56
665.521	212.02
665.717	156.22
665.912	172.11
666.108	117.09
666.304	176.96
666.499	176.76
666.695	116.7
666.89	157.58
667.086	216.48
667.281	203.5
667.477	223.26
667.672	201.76
667.867	187.42
668.063	204.66
668.258	144.79
668.454	151.57
668.649	266.08
668.844	198.46
669.04	186.06
669.235	147.51
669.43	144.6
669.626	170.56
669.821	180.64
670.016	161.46
670.211	182.77
670.407	178.12
670.602	179.47
670.797	176.96
670.992	211.44
671.187	171.14
671.382	191.1
671.578	147.12
671.773	163.97
671.968	152.54
672.163	195.36
672.358	150.22
672.553	171.92
672.748	148.47
672.943	253.1
673.138	183.35
673.333	186.26
673.528	148.67
673.723	190.52
673.918	192.07
674.113	117.86
674.308	249.22
674.503	203.89
674.698	191.87
674.892	189.94
675.087	204.47
675.282	194.78
675.477	161.65
675.672	194.2
675.867	178.12
676.061	131.43
676.256	131.81
676.451	167.85
676.646	177.15
676.84	143.63
677.035	137.43
677.23	139.56
677.424	168.62
677.619	222.87
677.814	194.97
678.008	216.29
678.203	126.58
678.397	145.38
678.592	191.1
678.787	205.05
678.981	163.01
679.176	211.83
679.37	162.04
679.565	159.71
679.759	162.23
679.954	178.31
680.148	199.04
680.342	189.36
680.537	180.06
680.731	172.11
680.926	182.77
681.12	199.62
681.314	155.06
681.509	147.51
681.703	165.91
681.897	192.26
682.092	159.91
682.286	129.29
682.48	244.57
682.674	192.84
682.869	171.53
683.063	163.59
683.257	238.76
683.451	142.28
683.645	172.69
683.839	141.5
684.034	152.16
684.228	204.47
684.422	150.8
684.616	178.51
684.81	188.39
685.004	201.95
685.198	169.21
685.392	199.24
685.586	136.66
685.78	209.51
685.974	207.96
686.168	180.44
686.362	232.76
686.556	136.46
686.75	143.24
686.944	133.94
687.138	176.96
687.331	130.46
687.525	158.94
687.719	119.03
687.913	144.99
688.107	135.49
688.301	107.4
688.494	169.59
688.688	105.66
688.882	109.92
689.076	114.76
689.269	152.54
689.463	207.18
689.657	158.36
689.85	132.98
690.044	150.99
690.238	138.79
690.431	158.74
690.625	164.56
690.818	141.11
691.012	143.63
691.205	161.07
691.399	112.83
691.593	156.81
691.786	196.52
691.98	173.66
692.173	213.57
692.366	188
692.56	164.17
692.753	227.14
692.947	160.29
693.14	220.55
693.333	227.91
693.527	141.69
693.72	191.29
693.914	167.85
694.107	177.92
694.3	186.64
694.493	175.6
694.687	221.71
694.88	143.63
695.073	211.44
695.266	215.32
695.46	187.03
695.653	230.04
695.846	232.76
696.039	144.99
696.232	165.72
696.425	210.09
696.618	222.29
696.812	187.61
697.005	240.5
697.198	270.15
697.391	227.91
697.584	239.73
697.777	287
697.97	249.22
698.163	244.77
698.356	245.35
698.549	320.33
698.742	281.19
698.935	238.57
699.127	251.74
699.32	215.51
699.513	233.34
699.706	250.19
699.899	259.88
700.092	240.5
700.285	280.22
700.477	216.09
700.67	277.51
700.863	288.75
701.056	360.82
701.248	317.81
701.441	326.72
701.634	254.84
701.826	371.87
702.019	268.6
702.212	320.72
702.404	293.59
702.597	275.19
702.79	288.36
702.982	321.1
703.175	327.88
703.367	336.22
703.56	343
703.752	425.53
703.945	349.39
704.137	396.86
704.33	388.33
704.522	386.4
704.715	383.1
704.907	383.68
705.1	408.29
705.292	426.7
705.484	386.2
705.677	414.1
705.869	441.03
706.061	420.88
706.254	459.05
706.446	399.38
706.638	403.64
706.831	476.1
707.023	400.73
707.215	500.9
707.407	470.29
707.599	470.48
707.792	497.22
707.984	454.79
708.176	476.88
708.368	456.34
708.56	486.95
708.752	479.01
708.944	457.31
709.136	505.55
709.329	493.35
709.521	591.38
709.713	534.42
709.905	540.43
710.097	583.05
710.289	508.84
710.481	531.13
710.672	557.67
710.864	554.96
711.056	594.67
711.248	585.57
711.44	559.8
711.632	567.16
711.824	578.79
712.016	618.89
712.207	625.29
712.399	640.21
712.591	671.98
712.783	622.96
712.975	633.23
713.166	608.82
713.358	634.59
713.55	666.36
713.741	665.59
713.933	661.52
714.125	670.82
714.316	665.78
714.508	695.04
714.7	715.57
714.891	711.5
715.083	749.29
715.274	696.59
715.466	723.71
715.657	752.19
715.849	684.96
716.04	711.12
716.232	651.06
716.423	743.86
716.615	681.67
716.806	691.16
716.998	672.17
717.189	644.27
717.381	617.54
717.572	622.19
717.763	632.84
717.955	629.36
718.146	593.32
718.337	594.48
718.528	579.76
718.72	511.94
718.911	606.88
719.102	545.85
719.293	617.54
719.485	614.44
719.676	613.86
719.867	561.93
720.058	600.49
720.249	596.42
720.44	617.54
720.632	620.64
720.823	642.34
721.014	671.2
721.205	684.19
721.396	770.02
721.587	749.67
721.778	764.4
721.969	796.37
722.16	798.3
722.351	814.19
722.542	897.31
722.733	875.22
722.924	811.67
723.115	858.17
723.305	873.86
723.496	882
723.687	798.69
723.878	827.75
724.069	854.88
724.26	837.63
724.45	809.35
724.641	790.55
724.832	856.62
725.023	826.98
725.213	805.67
725.404	827.17
725.595	817.29
725.785	807.99
725.976	879.1
726.167	820.2
726.357	866.5
726.548	931.6
726.739	876.96
726.929	925.4
727.12	927.73
727.31	953.88
727.501	918.04
727.691	960.66
727.882	892.46
728.072	936.06
728.263	939.54
728.453	990.89
728.644	975.78
728.834	975.97
729.024	959.31
729.215	946.33
729.405	982.94
729.596	997.67
729.786	1077.11
729.976	1057.73
730.167	1043.01
730.357	1007.94
730.547	1037.58
730.737	1030.8
730.928	1071.1
731.118	1103.46
731.308	1037.58
731.498	1051.34
731.688	1131.35
731.879	1092.99
732.069	1168.36
732.259	1162.55
732.449	1169.52
732.639	1227.07
732.829	1223
733.019	1225.52
733.209	1288.48
733.399	1286.74
733.589	1340.6
733.779	1344.86
733.969	1334.6
734.159	1361.91
734.349	1381.68
734.539	1400.86
734.729	1406.86
734.919	1459.37
735.109	1421.98
735.299	1403.38
735.488	1437.28
735.678	1466.15
735.868	1435.93
736.058	1450.65
736.248	1407.25
736.437	1422.94
736.627	1386.52
736.817	1500.83
737.007	1502.57
737.196	1516.33
737.386	1481.07
737.576	1480.68
737.765	1527.37
737.955	1503.16
738.144	1605.84
738.334	1537.06
738.524	1523.89
738.713	1548.69
738.903	1547.91
739.092	1551.59
739.282	1534.54
739.471	1559.54
739.661	1579.69
739.85	1619.6
740.04	1595.19
740.229	1617.47
740.419	1644.4
740.608	1649.24
740.797	1606.62
740.987	1682.18
741.176	1701.94
741.365	1624.64
741.555	1628.51
741.744	1700
741.933	1681.02
742.123	1687.41
742.312	1711.05
742.501	1713.37
742.69	1753.09
742.88	1658.93
743.069	1754.06
743.258	1695.35
743.447	1770.14
743.636	1754.45
743.825	1715.89
744.014	1718.22
744.204	1762.97
744.393	1748.83
744.582	1777.7
744.771	1805.4
744.96	1771.5
745.149	1781.38
745.338	1753.67
745.527	1765.49
745.716	1768.2
745.905	1768.01
746.094	1815.86
746.283	1788.16
746.471	1782.15
746.66	1840.66
746.849	1811.6
747.038	1842.21
747.227	1793.2
747.416	1801.72
747.604	1808.69
747.793	1770.72
747.982	1790.87
748.171	1814.51
748.359	1823.81
748.548	1823.81
748.737	1829.04
748.926	1808.89
749.114	1747.28
749.303	1787.96
749.491	1831.36
749.68	1783.31
749.869	1827.68
750.057	1796.3
750.246	1792.81
750.434	1845.31
750.623	1799.98
750.811	1793.97
751	1816.64
751.188	1812.96
751.377	1800.36
751.565	1811.21
751.754	1783.7
751.942	1767.62
752.131	1802.88
752.319	1754.83
752.507	1751.35
752.696	1793.2
752.884	1835.63
753.072	1792.61
753.261	1777.89
753.449	1761.03
753.637	1768.78
753.825	1830.78
754.014	1806.56
754.202	1792.23
754.39	1794.55
754.578	1831.36
754.766	1763.16
754.955	1747.47
755.143	1826.52
755.331	1764.33
755.519	1778.66
755.707	1773.43
755.895	1763.55
756.083	1799.2
756.271	1748.83
756.459	1735.65
756.647	1814.12
756.835	1770.72
757.023	1730.23
757.211	1751.54
757.399	1741.08
757.587	1739.53
757.775	1744.56
757.963	1712.02
758.151	1756.19
758.339	1697.68
758.526	1734.1
758.714	1738.17
758.902	1692.83
759.09	1605.07
759.278	1539.97
759.465	1415
759.653	1171.07
759.841	1132.52
760.028	905.45
760.216	788.03
760.404	813.03
760.591	604.75
760.779	511.17
760.967	472.03
761.154	343.97
761.342	402.28
761.529	385.62
761.717	441.61
761.905	409.84
762.092	451.3
762.28	391.24
762.467	389.69
762.655	359.08
762.842	370.51
763.029	407.32
763.217	378.84
763.404	439.48
763.592	423.4
763.779	357.53
763.966	393.76
764.154	432.31
764.341	486.76
764.528	507.29
764.716	478.04
764.903	536.74
765.09	558.64
765.277	581.89
765.465	698.91
765.652	704.34
765.839	759.75
766.026	851.78
766.213	828.53
766.4	922.11
766.588	1031.77
766.775	988.76
766.962	1092.41
767.149	1092.8
767.336	1204.2
767.523	1108.88
767.71	1248.57
767.897	1269.69
768.084	1326.65
768.271	1356.1
768.458	1389.62
768.645	1412.68
768.832	1390.59
769.019	1377.41
769.206	1443.87
769.392	1489.4
769.579	1572.9
769.766	1495.6
769.953	1496.37
770.14	1556.63
770.327	1543.46
770.513	1572.71
770.7	1611.27
770.887	1501.99
771.073	1585.3
771.26	1576
771.447	1540.55
771.634	1523.69
771.82	1611.07
772.007	1545.59
772.193	1546.36
772.38	1634.13
772.567	1530.28
772.753	1580.85
772.94	1615.72
773.126	1615.53
773.313	1612.43
773.499	1631.22
773.686	1599.25
773.872	1564.38
774.059	1602.94
774.245	1512.65
774.432	1547.33
774.618	1530.47
774.804	1549.85
774.991	1515.75
775.177	1580.27
775.363	1561.09
775.55	1598.09
775.736	1514.2
775.922	1507.42
776.109	1543.26
776.295	1533.77
776.481	1581.43
776.667	1566.7
776.853	1526.6
777.04	1503.54
777.226	1550.24
777.412	1595.38
777.598	1516.52
777.784	1496.37
777.97	1489.01
778.156	1558.76
778.342	1490.76
778.528	1526.21
778.715	1450.26
778.901	1492.5
779.087	1497.34
779.272	1504.71
779.458	1455.69
779.644	1524.08
779.83	1440.38
780.016	1565.54
780.202	1481.84
780.388	1439.22
780.574	1409.58
780.76	1467.89
780.946	1520.59
781.131	1460.34
781.317	1455.11
781.503	1450.46
781.689	1450.46
781.874	1543.26
782.06	1455.88
782.246	1475.84
782.432	1433.41
782.617	1458.79
782.803	1492.89
782.989	1410.54
783.174	1458.59
783.36	1407.06
783.545	1431.66
783.731	1430.5
783.916	1386.71
784.102	1471.77
784.288	1398.34
784.473	1397.18
784.659	1387.29
784.844	1445.23
785.029	1358.04
785.215	1389.81
785.4	1330.53
785.586	1439.41
785.771	1359.01
785.956	1382.64
786.142	1369.28
786.327	1356.3
786.512	1397.76
786.698	1320.65
786.883	1327.81
787.068	1309.21
787.254	1382.26
787.439	1322.58
787.624	1379.16
787.809	1312.12
787.994	1322.58
788.18	1395.82
788.365	1308.83
788.55	1323.55
788.735	1323.55
788.92	1328.98
789.105	1293.71
789.29	1341.96
789.475	1272.02
789.66	1300.69
789.845	1256.71
790.03	1252.45
790.215	1303.01
790.4	1310.38
790.585	1308.44
790.77	1250.9
790.955	1207.11
791.14	1247.8
791.325	1290.23
791.51	1197.03
791.695	1304.37
791.879	1246.05
792.064	1183.67
792.249	1300.69
792.434	1220.67
792.618	1238.11
792.803	1263.3
792.988	1227.45
793.173	1235.98
793.357	1280.35
793.542	1249.93
793.727	1249.15
793.911	1271.63
794.096	1236.56
794.281	1293.33
794.465	1321.42
794.65	1235.01
794.834	1260.2
795.019	1314.06
795.203	1288.48
795.388	1300.88
795.572	1308.83
795.757	1285.19
795.941	1309.21
796.126	1306.31
796.31	1222.61
796.494	1268.72
796.679	1234.62
796.863	1229.58
797.048	1270.66
797.232	1252.83
797.416	1261.17
797.601	1265.04
797.785	1327.04
797.969	1322.58
798.153	1268.72
798.338	1249.93
798.522	1298.95
798.706	1264.27
798.89	1318.71
799.074	1365.4
799.258	1325.49
799.443	1277.05
799.627	1270.27
799.811	1307.08
799.995	1276.08
800.179	1285
800.363	1247.02
800.547	1295.07
800.731	1313.86
800.915	1213.5
801.099	1265.43
801.283	1270.47
801.467	1291.2
801.651	1258.65
801.835	1306.31
802.019	1261.75
802.202	1283.06
802.386	1270.85
802.57	1243.73
802.754	1238.5
802.938	1239.27
803.121	1206.33
803.305	1294.49
803.489	1284.22
803.673	1278.8
803.856	1300.11
804.04	1267.95
804.224	1273.95
804.407	1264.27
804.591	1247.22
804.775	1284.61
804.958	1290.81
805.142	1326.85
805.326	1253.8
805.509	1255.93
805.693	1295.85
805.876	1322.58
806.06	1296.04
806.243	1289.45
806.427	1355.91
806.61	1350.1
806.794	1268.53
806.977	1273.76
807.16	1278.8
807.344	1286.93
807.527	1316.96
807.71	1243.34
807.894	1266.78
808.077	1333.24
808.26	1248.96
808.444	1248.96
808.627	1308.25
808.81	1287.32
808.993	1220.67
809.177	1212.92
809.36	1230.36
809.543	1275.89
809.726	1189.87
809.909	1177.27
810.092	1200.52
810.276	1192.77
810.459	1221.64
810.642	1179.99
810.825	1172.43
811.008	1204.2
811.191	1107.33
811.374	1114.89
811.557	1134.26
811.74	1205.17
811.923	1106.94
812.106	1073.62
812.289	1068
812.472	1091.06
812.654	1116.44
812.837	1107.72
813.02	1057.34
813.203	1056.18
813.386	953.88
813.569	976.55
813.751	939.74
813.934	988.37
814.117	962.21
814.3	920.36
814.482	914.16
814.665	898.08
814.848	888.59
815.03	865.53
815.213	882.78
815.396	829.3
815.578	834.34
815.761	807.99
815.943	892.46
816.126	785.13
816.309	796.17
816.491	784.55
816.674	722.74
816.856	773.5
817.039	730.3
817.221	838.99
817.403	783.38
817.586	785.13
817.768	796.37
817.951	733.79
818.133	736.5
818.315	764.4
818.498	758
818.68	832.4
818.862	779.12
819.045	838.22
819.227	804.12
819.409	772.92
819.591	799.08
819.774	783.77
819.956	762.85
820.138	836.86
820.32	804.12
820.502	839.38
820.684	872.12
820.866	872.31
821.048	903.12
821.231	903.12
821.413	888.2
821.595	883.94
821.777	908.93
821.959	864.37
822.141	918.04
822.323	830.47
822.505	809.15
822.686	781.25
822.868	760.91
823.05	696.59
823.232	707.82
823.414	645.05
823.596	731.46
823.778	670.43
823.96	714.41
824.141	693.68
824.323	728.17
824.505	780.48
824.687	820.2
824.868	809.35
825.05	878.9
825.232	870.18
825.413	915.52
825.595	884.71
825.777	827.56
825.958	888.2
826.14	830.66
826.321	881.61
826.503	835.5
826.685	879.87
826.866	868.05
827.048	856.04
827.229	856.81
827.411	820.58
827.592	800.82
827.773	776.6
827.955	751.61
828.136	775.05
828.318	769.43
828.499	804.89
828.68	742.5
828.862	783.58
829.043	834.92
829.224	813.61
829.406	771.37
829.587	757.81
829.768	762.85
829.949	782.42
830.131	775.05
830.312	813.42
830.493	766.33
830.674	804.7
830.855	777.96
831.036	752
831.218	803.34
831.399	805.67
831.58	791.72
831.761	775.63
831.942	821.36
832.123	773.5
832.304	714.99
832.485	737.08
832.666	768.66
832.847	758.78
833.028	780.87
833.209	804.89
833.389	746.77
833.57	712.47
833.751	774.08
833.932	818.45
834.113	770.4
834.294	756.07
834.475	769.24
834.655	807.99
834.836	818.84
835.017	808.18
835.198	725.45
835.378	766.92
835.559	792.1
835.74	787.84
835.92	762.65
836.101	774.08
836.281	807.22
836.462	827.75
836.643	820.78
836.823	832.98
837.004	828.72
837.184	872.7
837.365	808.57
837.545	836.67
837.726	780.48
837.906	865.53
838.087	826.59
838.267	828.53
838.448	775.25
838.628	834.15
838.808	796.17
838.989	852.55
839.169	780.28
839.349	830.27
839.53	832.4
839.71	851.97
839.89	767.11
840.07	868.83
840.251	801.6
840.431	854.3
840.611	811.48
840.791	772.73
840.971	838.6
841.151	798.11
841.332	795.4
841.512	854.49
841.692	753.55
841.872	846.16
842.052	820.97
842.232	852.75
842.412	744.25
842.592	810.7
842.772	837.05
842.952	779.7
843.132	789.58
843.312	762.85
843.492	755.49
843.672	809.73
843.851	743.09
844.031	803.53
844.211	804.31
844.391	770.21
844.571	790.75
844.751	804.12
844.93	823.1
845.11	773.5
845.29	789
845.47	786.48
845.649	805.47
845.829	807.8
846.009	767.3
846.188	796.56
846.368	745.41
846.547	753.74
846.727	774.28
846.907	745.99
847.086	755.68
847.266	826.59
847.445	766.53
847.625	756.65
847.804	758.58
847.984	777.96
848.163	752.77
848.343	780.67
848.522	774.86
848.701	776.99
848.881	739.79
849.06	771.18
849.239	758.58
849.419	773.12
849.598	698.33
849.777	764.2
849.957	726.62
850.136	685.74
850.315	698.91
850.494	698.91
850.674	684.38
850.853	728.17
851.032	726.81
851.211	775.25
851.39	727.2
851.569	713.83
851.748	720.03
851.927	733.59
852.107	734.95
852.286	693.87
852.465	673.72
852.644	745.99
852.823	720.8
853.002	729.33
853.181	710.73
853.359	702.01
853.538	675.27
853.717	741.34
853.896	681.09
854.075	637.49
854.254	619.67
854.433	581.69
854.611	616.96
854.79	590.22
854.969	642.34
855.148	632.84
855.327	613.86
855.505	644.08
855.684	601.84
855.863	661.91
856.041	605.72
856.22	646.41
856.399	630.91
856.577	701.82
856.756	675.85
856.934	781.64
857.113	760.91
857.291	657.64
857.47	671.98
857.648	681.09
857.827	689.22
858.005	695.62
858.184	636.91
858.362	758.39
858.541	673.34
858.719	666.36
858.898	666.56
859.076	665.97
859.254	706.27
859.433	682.05
859.611	665.59
859.789	633.81
859.967	703.95
860.146	719.06
860.324	624.51
860.502	629.16
860.68	587.7
860.859	641.95
861.037	664.23
861.215	669.46
861.393	659.77
861.571	634.97
861.749	599.13
861.927	650.86
862.105	657.06
862.283	631.29
862.461	627.81
862.639	627.61
862.817	619.86
862.995	625.67
863.173	621.8
863.351	628.77
863.529	634.59
863.707	674.89
863.885	638.66
864.063	591.96
864.241	573.36
864.418	696.2
864.596	585.37
864.774	569.1
864.952	621.22
865.129	644.66
865.307	637.69
865.485	584.79
865.663	640.21
865.84	586.15
866.018	582.28
866.196	527.64
866.373	556.89
866.551	521.83
866.728	500.71
866.906	536.74
867.084	554.76
867.261	578.4
867.439	558.25
867.616	593.51
867.794	550.69
867.971	568.33
868.149	561.35
868.326	619.67
868.503	579.18
868.681	574.91
868.858	565.03
869.035	541.2
869.213	595.84
869.39	568.71
869.567	621.99
869.745	566
869.922	592.93
870.099	584.79
870.276	588.28
870.454	574.53
870.631	601.84
870.808	569.49
870.985	612.11
871.162	606.11
871.339	597.58
871.517	521.44
871.694	540.62
871.871	572.59
872.048	590.8
872.225	545.85
872.402	586.92
872.579	521.83
872.756	575.69
872.933	531.9
873.11	536.16
873.287	550.31
873.463	559.22
873.64	541.2
873.817	576.27
873.994	557.48
874.171	521.63
874.348	560.38
874.524	512.14
874.701	539.46
874.878	505.55
875.055	537.71
875.231	556.51
875.408	559.03
875.585	500.13
875.762	572.39
875.938	522.21
876.115	541.01
876.291	519.5
876.468	525.7
876.645	478.81
876.821	525.7
876.998	521.05
877.174	566.58
877.351	514.27
877.527	502.45
877.704	571.81
877.88	536.36
878.057	517.37
878.233	544.69
878.409	490.05
878.586	534.23
878.762	508.84
878.938	522.6
879.115	463.7
879.291	499.74
879.467	470.29
879.644	481.14
879.82	511.36
879.996	490.25
880.172	444.13
880.349	488.11
880.525	508.84
880.701	480.75
880.877	455.18
881.053	515.43
881.229	501.87
881.405	508.65
881.581	451.11
881.757	470.68
881.933	461.18
882.109	531.13
882.285	486.76
882.461	430.18
882.637	497.99
882.813	463.7
882.989	481.14
883.165	542.94
883.341	473.39
883.517	525.31
883.693	464.86
883.869	482.88
884.044	461.57
884.22	521.44
884.396	510.2
884.572	503.03
884.747	505.16
884.923	483.08
885.099	499.93
885.275	502.06
885.45	453.63
885.626	466.61
885.801	454.21
885.977	470.87
886.153	434.83
886.328	481.91
886.504	465.83
886.679	516.59
886.855	437.93
887.03	508.65
887.206	509.04
887.381	474.55
887.557	512.72
887.732	485.6
887.908	501.87
888.083	531.51
888.258	447.62
888.434	462.15
888.609	477.26
888.784	510.2
888.96	480.75
889.135	465.64
889.31	460.99
889.485	490.05
889.661	445.3
889.836	516.59
890.011	507.49
890.186	486.37
890.361	453.24
890.537	493.93
890.712	456.92
890.887	471.65
891.062	482.11
891.237	520.47
891.412	437.55
891.587	492.96
891.762	500.32
891.937	503.81
892.112	442.78
892.287	472.03
892.462	419.14
892.637	436
892.812	397.83
892.987	466.41
893.161	437.35
893.336	450.53
893.511	423.21
893.686	440.65
893.861	425.34
894.035	412.55
894.21	430.18
894.385	376.13
894.56	408.68
894.734	386.4
894.909	385.62
895.084	392.02
895.258	392.79
895.433	421.46
895.608	368.38
895.782	346.68
895.957	357.33
896.131	392.02
896.306	327.11
896.48	323.23
896.655	339.12
896.829	316.07
897.004	309.67
897.178	322.27
897.353	309.29
897.527	344.93
897.701	312.97
897.876	271.7
898.05	345.13
898.224	326.92
898.399	352.88
898.573	325.75
898.747	253.1
898.921	340.48
899.096	244.19
899.27	245.74
899.444	247.48
899.618	264.92
899.792	272.86
899.967	250.19
900.141	285.65
900.315	230.82
900.489	261.24
900.663	313.55
900.837	279.25
901.011	220.16
901.185	318.97
901.359	296.69
901.533	259.88
901.707	280.8
901.881	284.49
902.055	207.96
902.229	285.65
902.403	296.69
902.576	277.12
902.75	259.88
902.924	362.37
903.098	300.57
903.272	338.93
903.446	343.38
903.619	304.05
903.793	336.99
903.967	326.33
904.14	357.33
904.314	348.81
904.488	328.08
904.661	364.89
904.835	331.57
905.009	380.78
905.182	394.34
905.356	375.93
905.529	362.76
905.703	321.68
905.876	315.68
906.05	293.79
906.223	301.92
906.397	244.96
906.57	251.94
906.744	246.12
906.917	246.12
907.09	271.12
907.264	277.32
907.437	249.42
907.61	234.3
907.784	249.03
907.957	263.56
908.13	242.25
908.304	279.45
908.477	205.44
908.65	269.37
908.823	221.91
908.996	283.52
909.17	238.37
909.343	235.66
909.516	237.99
909.689	241.86
909.862	242.83
910.035	229.66
910.208	219.39
910.381	216.48
910.554	299.4
910.727	243.6
910.9	240.7
911.073	225.59
911.246	270.92
911.419	258.72
911.592	274.22
911.765	226.75
911.938	223.26
912.11	237.21
912.283	223.84
912.456	273.44
912.629	262.4
912.802	202.72
912.974	202.92
913.147	212.02
913.32	158.55
913.493	165.33
913.665	184.12
913.838	213.96
914.01	172.31
914.183	199.43
914.356	168.43
914.528	203.5
914.701	272.47
914.873	228.69
915.046	198.07
915.218	176.76
915.391	154.67
915.563	166.88
915.736	205.82
915.908	237.21
916.081	217.06
916.253	182.19
916.425	178.89
916.598	202.72
916.77	201.37
916.942	166.11
917.115	125.81
917.287	221.91
917.459	227.72
917.632	178.12
917.804	112.24
917.976	167.85
918.148	202.34
918.32	183.35
918.493	209.7
918.665	249.61
918.837	186.64
919.009	237.79
919.181	225.78
919.353	217.84
919.525	226.56
919.697	222.29
919.869	208.54
920.041	256.39
920.213	280.22
920.385	242.83
920.557	203.11
920.729	237.79
920.901	214.74
921.073	219.58
921.244	195.17
921.416	247.48
921.588	201.76
921.76	213.57
921.932	294.17
922.103	206.6
922.275	231.21
922.447	225.78
922.619	154.67
922.79	190.32
922.962	163.59
923.134	212.41
923.305	171.14
923.477	149.44
923.648	181.22
923.82	175.41
923.991	157
924.163	134.53
924.335	171.72
924.506	144.21
924.677	212.8
924.849	147.31
925.02	173.86
925.192	183.74
925.363	176.96
925.535	184.51
925.706	146.92
925.877	188.77
926.049	160.87
926.22	181.02
926.391	182.77
926.562	191.1
926.734	143.83
926.905	202.92
927.076	147.31
927.247	163.97
927.419	145.76
927.59	133.94
927.761	138.79
927.932	117.86
928.103	163.2
928.274	118.83
928.445	118.83
928.616	118.06
928.787	122.51
928.958	169.21
929.129	167.07
929.3	131.04
929.471	125.81
929.642	77.95
929.813	30.1
929.984	119.99
930.155	36.88
930.326	108.76
930.496	51.02
930.667	28.93
930.838	87.83
931.009	43.27
931.18	60.9
931.35	64
931.521	107.21
931.692	18.08
931.863	1.61
932.033	57.8
932.204	63.61
932.374	54.7
932.545	15.95
932.716	88.22
932.886	106.24
933.057	4.13
933.227	1.81
933.398	107.59
933.568	43.85
933.739	-0.9
933.909	40.17
934.08	46.76
934.25	-7.49
934.421	10.14
934.591	45.98
934.761	15.76
934.932	-39.85
935.102	12.08
935.272	-11.75
935.443	-5.36
935.613	-10.2
935.783	15.56
935.953	-22.02
936.123	153.71
936.294	-32.29
936.464	18.66
936.634	1.81
936.804	-15.05
936.974	-23.77
937.144	35.71
937.314	41.53
937.484	-14.85
937.655	-10.59
937.825	39.2
937.995	-9.43
938.165	47.34
938.334	2.58
938.504	20.02
938.674	-0.52
938.844	-15.05
939.014	32.42
939.184	24.28
939.354	60.51
939.524	52.76
939.694	9.56
939.863	18.47
940.033	66.33
940.203	68.84
940.373	64.97
940.542	73.3
940.712	36.49
940.882	42.3
941.051	70.39
941.221	66.52
941.391	76.79
941.56	-14.85
941.73	12.27
941.899	120.58
942.069	10.91
942.238	63.42
942.408	-6.52
942.577	82.99
942.747	54.9
942.916	-17.18
943.086	9.56
943.255	57.41
943.425	32.81
943.594	2
943.763	-25.32
943.933	-24.54
944.102	-31.9
944.271	5.3
944.441	36.88
944.61	-23.57
944.779	0.84
944.948	109.73
945.117	-9.82
945.287	16.53
945.456	-44.3
945.625	-9.04
945.794	17.5
945.963	-9.04
946.132	70.01
946.301	2.97
946.47	35.52
946.639	-30.93
946.808	-14.66
946.977	41.14
947.146	58.38
947.315	-12.34
947.484	43.46
947.653	16.92
947.822	-1.49
947.991	7.23
948.16	78.34
948.329	53.15
948.498	12.46
948.666	13.05
948.835	58.58
949.004	-4.59
949.173	-16.21
949.341	8.78
949.51	38.04
949.679	59.54
949.847	87.44
950.016	77.18
950.185	73.88
950.353	2.39
950.522	7.43
950.69	36.88
950.859	-7.3
951.028	44.05
951.196	16.15
951.365	9.56
951.533	19.25
951.701	56.25
951.87	57.41
952.038	11.11
952.207	47.73
952.375	75.24
952.543	15.76
952.712	-0.13
952.88	3.55
953.048	41.91
953.217	30.1
953.385	20.21
953.553	61.09
953.721	-19.5
953.89	30.87
954.058	-6.52
954.226	-23.77
954.394	34.94
954.562	-0.9
954.73	24.48
954.898	-1.87
955.067	41.53
955.235	25.45
955.403	54.7
955.571	74.46
955.739	65.36
955.907	8.4
956.075	0.26
956.243	-14.08
956.41	47.34
956.578	-27.64
956.746	-14.27
956.914	-12.14
957.082	35.13
957.25	40.75
957.418	22.35
957.585	-1.49
957.753	49.66
957.921	-1.68
958.089	25.25
958.256	60.51
958.424	39.2
958.592	23.9
958.759	5.1
958.927	65.94
959.095	6.46
959.262	22.35
959.43	23.12
959.597	-3.04
959.765	26.8
959.932	-4
960.1	62.06
960.267	16.53
960.435	39.98
960.602	51.21
960.77	21.96
960.937	-7.49
961.104	29.71
961.272	-5.75
961.439	8.01
961.606	60.71
961.774	46.37
961.941	18.08
962.108	35.33
962.275	44.63
962.443	63.81
962.61	40.95
962.777	68.07
962.944	43.85
963.111	30.68
963.278	48.5
963.446	25.25
963.613	27
963.78	63.42
963.947	39.2
964.114	2
964.281	108.37
964.448	23.9
964.615	-0.32
964.782	39.98
964.949	67.1
965.116	60.71
965.282	82.79
965.449	9.36
965.616	27
965.783	65.16
965.95	40.75
966.117	13.82
966.283	42.69
966.45	27.58
966.617	48.11
966.784	85.7
966.95	71.75
967.117	83.96
967.284	10.53
967.45	19.44
967.617	80.86
967.784	63.23
967.95	85.89
968.117	51.6
968.283	62.64
968.45	113.6
968.616	31.06
968.783	67.1
968.949	58.58
969.116	64.58
969.282	16.92
969.449	62.45
969.615	51.41
969.781	-24.93
969.948	3.75
970.114	-4.39
970.28	91.51
970.447	23.9
970.613	76.21
970.779	19.44
970.945	56.06
971.112	36.68
971.278	37.46
971.444	31.26
971.61	70.59
971.776	27.19
971.942	33.78
972.108	65.94
972.275	24.67
972.441	60.51
972.607	114.18
972.773	19.83
972.939	54.7
973.105	57.22
973.271	9.17
973.437	30.87
973.602	20.21
973.768	58
973.934	26.8
974.1	63.03
974.266	-44.3
974.432	50.63
974.598	23.51
974.763	61.09
974.929	46.56
975.095	74.66
975.261	23.31
975.426	10.14
975.592	29.51
975.758	67.68
975.923	-5.75
976.089	3.75
976.255	86.48
976.42	31.06
976.586	64.58
976.751	67.68
976.917	109.73
977.082	67.88
977.248	8.2
977.413	-7.1
977.579	44.24
977.744	35.71
977.91	30.48
978.075	0.06
978.24	51.41
978.406	37.07
978.571	-1.49
978.736	22.35
978.902	59.35
979.067	6.07
979.232	-18.92
979.397	34.55
979.563	75.82
979.728	23.31
979.893	42.69
980.058	47.15
980.223	47.53
980.388	38.81
980.554	48.31
980.719	-3.81
980.884	46.18
981.049	82.99
981.214	-0.52
981.379	32.81
981.544	-6.72
981.709	19.63
981.874	16.34
982.039	17.31
982.204	68.46
982.368	33.58
982.533	10.14
982.698	55.86
982.863	43.08
983.028	21.18
983.193	36.68
983.357	26.22
983.522	50.63
983.687	1.81
983.852	22.15
984.016	25.45
984.181	29.71
984.346	26.8
984.51	53.73
984.675	33.39
984.839	49.28
985.004	30.29
985.168	50.83
985.333	46.37
985.498	27.58
985.662	51.41
985.827	58
985.991	42.69
986.155	20.6
986.32	44.63
986.484	91.9
986.649	64.78
986.813	-23.19
986.977	44.63
987.142	55.28
987.306	24.67
987.47	14.4
987.634	33.58
987.799	3.75
987.963	20.41
988.127	18.47
988.291	94.61
988.455	69.23
988.62	34.16
988.784	45.98
988.948	67.1
989.112	22.73
989.276	36.88
989.44	42.5
989.604	23.9
989.768	13.24
989.932	120.96
990.096	-0.9
990.26	-8.27
990.424	-8.65
990.588	15.76
990.752	67.1
990.915	71.75
991.079	18.86
991.243	18.47
991.407	68.07
991.571	15.18
991.734	25.83
991.898	62.45
992.062	119.22
992.226	20.6
992.389	7.43
992.553	-1.87
992.717	20.21
992.88	23.7
993.044	35.71
993.207	30.1
993.371	52.57
993.535	52.38
993.698	41.72
993.862	43.46
994.025	76.79
994.189	47.53
994.352	38.04
994.515	30.68
994.679	102.94
994.842	5.1
995.006	27.58
995.169	4.71
995.332	4.13
995.496	60.13
995.659	-16.99
995.822	13.63
995.985	18.08
996.149	81.05
996.312	11.11
996.475	67.68
996.638	17.31
996.801	67.49
996.964	103.14
997.128	9.56
997.291	8.4
997.454	34.16
997.617	-10.59
997.78	59.93
997.943	18.86
998.106	46.76
998.269	1.81
998.432	30.87
998.595	35.91
998.758	-3.04
998.92	-15.44
999.083	-29.19
999.246	32.42
999.409	-16.6
999.572	-27.45
999.735	35.91
999.897	27.58
1000.06	23.9
1000.223	-11.95
1000.386	61.68
1000.548	50.05
1000.711	47.15
1000.874	27.58
1001.036	3.75
1001.199	63.42
1001.361	3.75
1001.524	56.64
1001.687	30.48
1001.849	-2.84
1002.012	24.67
1002.174	23.51
1002.337	45.4
1002.499	20.99
1002.661	28.16
1002.824	3.16
1002.986	4.52
1003.149	26.8
1003.311	5.3
1003.473	64.19
1003.636	6.26
1003.798	34.55
1003.96	27.38
1004.123	15.18
1004.285	27.96
1004.447	23.9
1004.609	37.65
1004.771	60.32
1004.933	-33.26
1005.096	-10.4
1005.258	-15.24
1005.42	4.91
1005.582	61.68
1005.744	59.93
1005.906	-3.04
1006.068	17.5
1006.23	-13.69
1006.392	-36.55
1006.554	-11.95
1006.716	44.24
1006.878	25.25
1007.04	-28.42
1007.202	2.58
1007.363	27.19
1007.525	23.9
1007.687	24.28
1007.849	68.84
1008.011	-23.38
1008.172	-25.32
1008.334	-13.89
1008.496	31.45
1008.658	-12.92
1008.819	-28.8
1008.981	-37.91
1009.143	-35.39
1009.304	11.88
1009.466	22.93
1009.627	67.68
1009.789	93.26
1009.95	24.86
1010.112	-12.92
1010.273	29.9
1010.435	0.06
1010.596	22.15
1010.758	16.34
1010.919	-17.18
1011.081	-1.29
1011.242	4.13
1011.403	28.35
1011.565	-12.92
1011.726	55.67
1011.887	-25.51
1012.049	2.39
1012.21	24.28
1012.371	58.96
1012.532	-59.8
1012.693	13.43
1012.855	-20.67
1013.016	39.78
1013.177	66.91
1013.338	-17.95
1013.499	47.15
1013.66	42.5
1013.821	23.7
1013.982	20.41
1014.143	3.55
1014.304	-13.3
1014.465	15.95
1014.626	38.43
1014.787	10.53
1014.948	57.41
1015.109	-43.14
1015.27	46.76
1015.431	12.27
1015.592	-7.69
1015.752	56.45
1015.913	6.07
1016.074	38.43
1016.235	23.51
1016.395	-3.81
1016.556	-7.88
1016.717	-11.75
1016.877	43.66
1017.038	1.81
1017.199	25.45
1017.359	36.49
1017.52	12.66
1017.681	9.36
1017.841	22.15
1018.002	13.24
1018.162	-7.1
1018.323	39.59
1018.483	25.45
1018.644	-4.59
1018.804	-15.82
1018.964	-29.38
1019.125	15.56
1019.285	1.81
1019.446	-28.03
1019.606	-23.77
1019.766	-56.7
1019.926	4.71
1020.087	23.7
1020.247	-29.58
1020.407	16.73
1020.567	45.21
1020.728	-9.04
1020.888	-14.66
1021.048	-28.42
1021.208	-23.19
1021.368	-7.1
1021.528	55.86
1021.688	41.14
1021.848	27.77
1022.008	16.73
1022.168	8.59
1022.328	7.23
1022.488	29.9
1022.648	14.21
1022.808	10.14
1022.968	15.18
1023.128	-24.74
1023.288	-2.07
1023.448	43.85
1023.608	25.25
1023.767	6.85
1023.927	-17.57
1024.087	-12.34
1024.247	-40.43
1024.406	4.91
1024.566	-31.52
1024.726	-2.65
1024.885	-1.87
1025.045	15.18
1025.205	-13.69
1025.364	6.07
1025.524	18.47
1025.683	-8.27
1025.843	27.38
1026.003	11.11
1026.162	57.41
1026.321	28.35
1026.481	8.01
1026.64	-5.36
1026.8	10.14
1026.959	-0.13
1027.119	8.78
1027.278	-2.45
1027.437	-0.71
1027.597	15.37
1027.756	26.22
1027.915	24.28
1028.074	20.6
1028.234	-16.21
1028.393	22.93
1028.552	-26.29
1028.711	-35.2
1028.87	49.28
1029.03	-30.16
1029.189	-1.29
1029.348	-60.97
1029.507	-4
1029.666	-16.6
1029.825	-11.95
1029.984	-24.54
1030.143	-17.57
1030.302	-17.95
1030.461	-38.49
1030.62	0.84
1030.779	22.54
1030.938	-19.7
1031.097	-16.02
1031.255	43.27
1031.414	43.08
1031.573	64.78
1031.732	-27.45
1031.891	-8.85
1032.049	36.68
1032.208	24.67
1032.367	-9.04
1032.525	-33.84
1032.684	-8.85
1032.843	-3.42
1033.001	-30.55
1033.16	155.06
1033.319	46.56
1033.477	29.32
1033.636	-1.1
1033.794	-48.76
1033.953	35.91
1034.111	27.19
1034.27	-24.35
1034.428	8.59
1034.587	-18.92
1034.745	-4.59
1034.903	15.76
1035.062	35.33
1035.22	-49.92
1035.378	13.05
1035.537	-35.2
1035.695	15.56
1035.853	-15.05
1036.011	32.42
1036.17	3.55
1036.328	-61.16
1036.486	12.46
1036.644	4.13
1036.802	-82.67
1036.96	-16.21
1037.119	-18.34
1037.277	-12.92
1037.435	-30.74
1037.593	-33.07
1037.751	4.91
1037.909	3.94
1038.067	3.94
