Data from oakcork_FLMT105791__217__17-32-48-055.txt Node

Date: Mon Mar 20 17:32:48 GMT 2023
User: antho
Spectrometer: FLMT10579
Trigger mode: 0
Integration Time (sec): 1.000000E-1
Scans to average: 10
Electric dark correction enabled: true
Nonlinearity correction enabled: false
Boxcar width: 0
XAxis mode: Wavelengths
Number of Pixels in Spectrum: 3648
>>>>>Begin Spectral Data<<<<<
345.248	-152.59
345.464	-152.59
345.681	-152.59
345.898	-133.02
346.114	-156.08
346.331	-24.14
346.548	1.24
346.764	-1.28
346.981	3.18
347.197	-35.18
347.414	33.79
347.631	-37.51
347.847	60.92
348.064	-0.5
348.28	45.81
348.497	-33.44
348.713	-12.9
348.93	36.51
349.146	23.91
349.363	-11.35
349.579	-6.31
349.796	-22.78
350.012	10.16
350.229	21.39
350.445	8.41
350.661	-2.83
350.878	-10.96
351.094	12.48
351.311	8.22
351.527	37.28
351.743	-18.91
351.96	33.21
352.176	37.28
352.392	16.16
352.609	55.69
352.825	15.19
353.041	11.12
353.257	3.18
353.474	21.2
353.69	20.81
353.906	13.84
354.122	-3.6
354.339	56.27
354.555	-1.86
354.771	-0.69
354.987	50.07
355.203	52
355.42	2.41
355.636	-11.93
355.852	-10.38
356.068	33.41
356.284	-59.59
356.5	73.51
356.716	29.92
356.932	13.45
357.148	40.38
357.364	12.67
357.58	66.92
357.796	38.25
358.012	61.3
358.228	35.73
358.444	-46.61
358.66	65.18
358.876	29.34
359.092	-13.87
359.308	29.53
359.524	38.83
359.74	1.82
359.956	-6.7
360.172	17.32
360.388	53.75
360.604	-35.76
360.819	77
361.035	30.89
361.251	23.33
361.467	-14.45
361.683	55.49
361.898	31.86
362.114	43.48
362.33	17.32
362.546	40.38
362.762	-7.67
362.977	30.31
363.193	-12.13
363.409	52.59
363.624	-13.09
363.84	-4.18
364.056	-16
364.271	19.84
364.487	36.51
364.703	25.66
364.918	-0.69
365.134	4.15
365.35	51.42
365.565	129.7
365.781	39.02
365.996	19.84
366.212	65.76
366.427	26.82
366.643	16.94
366.858	16.36
367.074	-1.86
367.289	68.86
367.505	109.16
367.72	-9.22
367.936	24.11
368.151	46.19
368.367	24.3
368.582	37.67
368.798	16.55
369.013	70.41
369.228	-7.48
369.444	1.24
369.659	66.54
369.874	34.57
370.09	87.65
370.305	-6.12
370.52	-5.54
370.736	74.09
370.951	29.72
371.166	80.29
371.381	98.12
371.597	62.85
371.812	-3.99
372.027	-21.43
372.242	-4.57
372.458	90.95
372.673	25.66
372.888	4.34
373.103	46.97
373.318	91.34
373.533	47.74
373.749	53.36
373.964	-32.08
374.179	69.44
374.394	-1.28
374.609	57.43
374.824	10.35
375.039	88.43
375.254	-18.91
375.469	55.3
375.684	31.47
375.899	51.23
376.114	51.42
376.329	29.14
376.544	58.2
376.759	60.92
376.974	4.92
377.189	34.37
377.404	40.77
377.619	71.19
377.834	-8.83
378.049	-5.73
378.264	-6.7
378.478	14.03
378.693	20.23
378.908	46
379.123	17.32
379.338	59.56
379.553	56.65
379.767	19.84
379.982	57.24
380.197	65.76
380.412	21.97
380.626	46.77
380.841	111.87
381.056	58.79
381.271	96.37
381.485	24.49
381.7	6.67
381.915	45.81
382.129	23.14
382.344	36.31
382.559	28.76
382.773	63.05
382.988	-23.36
383.202	28.95
383.417	-1.66
383.632	123.89
383.846	26.04
384.061	33.02
384.275	28.76
384.49	62.08
384.704	83.2
384.919	12.09
385.133	45.42
385.348	63.44
385.562	-9.41
385.777	64.6
385.991	20.81
386.206	20.62
386.42	39.22
386.634	66.34
386.849	57.43
387.063	39.22
387.277	-0.89
387.492	43.67
387.706	21.97
387.92	24.11
388.135	40.96
388.349	53.75
388.563	42.71
388.778	43.87
388.992	63.24
389.206	48.71
389.42	104.7
389.635	64.99
389.849	54.14
390.063	56.46
390.277	26.04
390.491	89.2
390.706	58.79
390.92	71.77
391.134	38.44
391.348	88.82
391.562	-2.05
391.776	46
391.99	35.73
392.205	81.84
392.419	37.67
392.633	21.39
392.847	69.25
393.061	41.74
393.275	87.07
393.489	45.03
393.703	36.89
393.917	76.42
394.131	28.17
394.345	55.1
394.559	73.12
394.773	40.77
394.986	58.98
395.2	48.91
395.414	90.17
395.628	40.57
395.842	56.85
396.056	48.91
396.27	-11.93
396.484	80.29
396.697	19.65
396.911	77.58
397.125	67.5
397.339	64.21
397.553	76.42
397.766	108.58
397.98	102.38
398.194	96.57
398.408	52.78
398.621	71.38
398.835	75.64
399.049	91.34
399.262	98.89
399.476	137.25
399.69	80.49
399.903	136.87
400.117	72.54
400.331	77.58
400.544	68.28
400.758	185.69
400.971	109.35
401.185	106.64
401.398	45.03
401.612	136.67
401.826	82.42
402.039	108.39
402.253	40.96
402.466	95.21
402.68	55.88
402.893	118.07
403.106	79.71
403.32	73.51
403.533	88.24
403.747	81.07
403.96	101.8
404.174	105.29
404.387	36.7
404.6	91.72
404.814	123.11
405.027	101.6
405.24	102.19
405.454	78.16
405.667	106.06
405.88	66.15
406.094	99.47
406.307	125.63
406.52	95.79
406.733	83
406.947	59.95
407.16	150.62
407.373	116.33
407.586	67.31
407.799	51.04
408.012	114
408.226	77.39
408.439	141.52
408.652	46.77
408.865	89.4
409.078	122.14
409.291	103.35
409.504	64.99
409.717	103.93
409.93	112.26
410.143	90.95
410.357	37.67
410.57	69.64
410.783	69.64
410.996	98.89
411.209	96.57
411.421	143.07
411.634	117.49
411.847	59.37
412.06	87.46
412.273	72.74
412.486	89.4
412.699	191.7
412.912	116.91
413.125	129.89
413.338	115.94
413.55	133.96
413.763	113.42
413.976	104.12
414.189	106.45
414.402	96.76
414.615	163.41
414.827	60.34
415.04	137.06
415.253	116.91
415.466	146.36
415.678	187.82
415.891	115.55
416.104	104.32
416.316	120.01
416.529	75.84
416.742	122.14
416.954	128.34
417.167	113.23
417.38	106.45
417.592	141.71
417.805	85.33
418.017	83.39
418.23	151.4
418.442	88.04
418.655	101.6
418.868	131.25
419.08	149.07
419.293	142.48
419.505	136.29
419.718	144.81
419.93	175.81
420.142	99.09
420.355	134.35
420.567	153.92
420.78	117.88
420.992	130.09
421.205	162.05
421.417	97.54
421.629	130.28
421.842	80.68
422.054	83
422.266	145
422.479	175.81
422.691	119.43
422.903	131.64
423.115	95.6
423.328	106.84
423.54	150.62
423.752	116.33
423.964	97.34
424.177	147.52
424.389	114.59
424.601	210.3
424.813	107.22
425.025	176.2
425.238	168.25
425.45	128.73
425.662	134.35
425.874	419.16
426.086	115.17
426.298	158.18
426.51	149.85
426.722	157.4
426.934	120.79
427.146	184.14
427.358	106.84
427.57	162.44
427.782	129.7
427.994	136.09
428.206	128.54
428.418	85.72
428.63	141.9
428.842	178.91
429.054	126.02
429.266	149.65
429.478	94.44
429.69	117.3
429.902	92.3
430.114	161.67
430.325	160.7
430.537	127.18
430.749	97.92
430.961	55.49
431.173	106.06
431.384	144.81
431.596	70.22
431.808	134.54
432.02	136.09
432.231	165.15
432.443	182.2
432.655	155.47
432.867	118.65
433.078	159.73
433.29	207.58
433.502	157.98
433.713	193.63
433.925	153.33
434.136	205.65
434.348	108.58
434.56	86.3
434.771	224.05
434.983	121.17
435.194	130.09
435.406	146.94
435.617	203.52
435.829	221.34
436.04	205.65
436.252	199.06
436.463	232.96
436.675	213.2
436.886	151.01
437.098	190.53
437.309	219.21
437.521	161.47
437.732	192.86
437.943	200.03
438.155	183.37
438.366	151.98
438.578	242.07
438.789	207.58
439	213.59
439.211	209.91
439.423	194.99
439.634	194.99
439.845	178.13
440.057	225.41
440.268	224.05
440.479	142.68
440.69	186.47
440.902	169.03
441.113	169.22
441.324	183.37
441.535	229.67
441.746	242.65
441.957	177.17
442.168	194.41
442.38	225.8
442.591	212.04
442.802	187.24
443.013	193.44
443.224	224.05
443.435	172.52
443.646	171.55
443.857	194.02
444.068	177.94
444.279	153.33
444.49	249.82
444.701	178.33
444.912	279.66
445.123	238
445.334	220.18
445.545	228.9
445.756	221.73
445.967	192.86
446.178	219.79
446.388	266.29
446.599	223.86
446.81	226.18
447.021	197.32
447.232	253.31
447.443	258.54
447.653	189.95
447.864	233.55
448.075	241.3
448.286	241.88
448.496	219.02
448.707	260.28
448.918	225.8
449.129	307.17
449.339	179.3
449.55	240.13
449.761	228.31
449.971	261.06
450.182	240.52
450.393	249.43
450.603	219.79
450.814	280.63
451.024	261.83
451.235	280.43
451.446	260.09
451.656	285.47
451.867	211.46
452.077	269.39
452.288	311.43
452.498	303.3
452.709	250.79
452.919	278.11
453.13	209.72
453.34	285.47
453.55	200.8
453.761	274.81
453.971	274.23
454.182	291.28
454.392	288.38
454.602	342.04
454.813	270.75
455.023	284.89
455.233	233.35
455.444	263.19
455.654	197.9
455.864	249.63
456.075	246.72
456.285	224.25
456.495	251.76
456.705	280.43
456.916	314.14
457.126	329.64
457.336	258.35
457.546	214.56
457.756	241.1
457.967	311.24
458.177	250.79
458.387	281.98
458.597	225.8
458.807	251.95
459.017	267.65
459.227	232.77
459.437	260.67
459.647	314.92
459.857	298.06
460.068	279.08
460.278	302.33
460.488	284.7
460.698	361.23
460.908	274.23
461.117	244.2
461.327	234.32
461.537	274.23
461.747	298.26
461.957	271.52
462.167	369.94
462.377	317.05
462.587	312.4
462.797	326.35
463.007	293.8
463.216	323.25
463.426	343.59
463.636	305.23
463.846	241.3
464.056	244.59
464.265	332.74
464.475	267.45
464.685	287.6
464.895	321.31
465.104	300
465.314	319.18
465.524	306.98
465.733	255.05
465.943	341.85
466.153	343.98
466.362	354.64
466.572	302.52
466.782	301.75
466.991	275.59
467.201	359.68
467.41	270.16
467.62	318.02
467.829	308.33
468.039	337.59
468.249	316.28
468.458	294.96
468.668	347.28
468.877	326.16
469.086	355.03
469.296	355.99
469.505	316.28
469.715	374.98
469.924	356.19
470.134	385.83
470.343	378.08
470.552	348.44
470.762	350.76
470.971	324.22
471.18	337.98
471.39	309.5
471.599	329.26
471.808	369.75
472.018	308.53
472.227	374.4
472.436	357.74
472.645	359.48
472.855	332.55
473.064	394.94
473.273	382.34
473.482	377.11
473.691	412.18
473.901	404.24
474.11	363.16
474.319	447.25
474.528	381.38
474.737	408.89
474.946	429.62
475.155	397.46
475.364	408.5
475.573	378.47
475.783	407.53
475.992	400.75
476.201	429.23
476.41	398.23
476.619	379.05
476.828	387.96
477.037	379.63
477.245	427.1
477.454	439.69
477.663	410.24
477.872	402.88
478.081	471.08
478.29	374.01
478.499	505.37
478.708	423.81
478.917	477.86
479.125	447.06
479.334	454.42
479.543	455.39
479.752	455
479.961	438.92
480.169	469.92
480.378	448.61
480.587	554.78
480.796	476.89
481.004	457.13
481.213	466.43
481.422	492.2
481.63	485.42
481.839	491.23
482.048	525.14
482.256	485.42
482.465	499.56
482.674	498.59
482.882	499.95
483.091	575.9
483.299	487.74
483.508	531.14
483.716	522.42
483.925	523.39
484.134	491.62
484.342	476.31
484.551	546.64
484.759	499.17
484.967	528.24
485.176	555.55
485.384	536.18
485.593	569.89
485.801	538.12
486.01	505.76
486.218	487.74
486.426	438.92
486.635	479.61
486.843	469.14
487.051	487.16
487.26	482.12
487.468	519.71
487.676	541.99
487.885	505.18
488.093	516.61
488.301	510.22
488.509	531.53
488.717	561.75
488.926	515.64
489.134	524.94
489.342	568.92
489.55	503.24
489.758	544.7
489.967	537.54
490.175	623.95
490.383	558.27
490.591	618.52
490.799	535.02
491.007	614.45
491.215	611.16
491.423	564.85
491.631	583.65
491.839	599.15
492.047	603.41
492.255	541.02
492.463	529.79
492.671	563.3
492.879	642.35
493.087	580.35
493.295	625.5
493.503	627.24
493.711	622.98
493.919	651.85
494.127	653.98
494.334	650.88
494.542	609.8
494.75	613.1
494.958	597.79
495.166	665.99
495.374	648.75
495.581	633.44
495.789	647.78
495.997	687.69
496.205	641.77
496.412	631.12
496.62	643.32
496.828	655.92
497.035	634.22
497.243	685.95
497.451	631.31
497.658	650.68
497.866	663.86
498.074	688.08
498.281	636.93
498.489	703.96
498.696	643.13
498.904	647.39
499.112	624.72
499.319	706.87
499.527	647.39
499.734	701.64
499.942	663.66
500.149	644.29
500.357	654.37
500.564	619.68
500.771	692.15
500.979	618.33
501.186	610.77
501.394	682.07
501.601	664.05
501.808	700.48
502.016	665.8
502.223	658.82
502.43	649.33
502.638	666.18
502.845	649.52
503.052	727.02
503.26	653.59
503.467	756.28
503.674	655.33
503.881	691.37
504.089	762.86
504.296	703.38
504.503	637.9
504.71	680.33
504.917	638.87
505.125	670.83
505.332	679.75
505.539	724.5
505.746	755.11
505.953	728.38
506.16	763.64
506.367	756.47
506.574	777.98
506.781	778.56
506.988	705.9
507.195	721.01
507.402	738.84
507.609	767.32
507.816	747.56
508.023	719.27
508.23	726.83
508.437	727.8
508.644	747.36
508.851	778.75
509.058	772.55
509.265	753.95
509.472	761.51
509.679	862.06
509.885	770.03
510.092	768.29
510.299	754.53
510.506	770.42
510.713	792.31
510.92	773.13
511.126	758.21
511.333	825.83
511.54	782.43
511.746	835.33
511.953	833.19
512.16	844.43
512.367	797.93
512.573	790.18
512.78	808.01
512.987	819.05
513.193	806.84
513.4	734.58
513.606	782.82
513.813	813.24
514.02	811.88
514.226	858.57
514.433	814.21
514.639	752.21
514.846	815.37
515.052	779.14
515.259	815.18
515.465	812.46
515.672	821.96
515.878	888.99
516.085	808.2
516.291	866.32
516.497	770.61
516.704	797.35
516.91	759.18
517.117	741.55
517.323	724.11
517.529	763.06
517.736	732.64
517.942	763.83
518.148	787.47
518.354	789.02
518.561	771.58
518.767	800.64
518.973	831.26
519.179	842.69
519.386	819.63
519.592	776.62
519.798	787.86
520.004	848.31
520.21	840.94
520.417	859.93
520.623	898.1
520.829	910.31
521.035	885.89
521.241	901.97
521.447	899.07
521.653	1010.09
521.859	903.14
522.065	936.07
522.271	1000.4
522.477	969.59
522.683	979.86
522.889	971.92
523.095	958.16
523.301	921.35
523.507	929.49
523.713	930.84
523.919	932.2
524.125	995.75
524.331	982.77
524.537	1058.13
524.742	1020.93
524.948	1034.5
525.154	1043.99
525.36	1118.2
525.566	1054.26
525.772	1071.7
525.977	983.35
526.183	1037.02
526.389	1066.66
526.595	1007.57
526.8	971.72
527.006	953.32
527.212	943.05
527.417	932
527.623	902.94
527.829	997.3
528.034	1025.39
528.24	1026.55
528.446	1007.76
528.651	1078.28
528.857	1061.23
529.062	1112.77
529.268	1062.4
529.473	1108.31
529.679	1118
529.884	1144.55
530.09	1119.75
530.295	1143.96
530.501	1109.28
530.706	1147.45
530.912	1100.76
531.117	1100.56
531.323	1145.13
531.528	1167.21
531.733	1174.19
531.939	1124.2
532.144	1172.45
532.35	1115.48
532.555	1179.81
532.76	1158.5
532.966	1166.63
533.171	1130.01
533.376	1118
533.581	1136.41
533.787	1139.9
533.992	1145.51
534.197	1207.9
534.402	1115.87
534.607	1171.48
534.813	1263.51
535.018	1161.21
535.223	1196.66
535.428	1125.75
535.633	1231.15
535.838	1196.08
536.043	1208.68
536.249	1310.78
536.454	1211.97
536.659	1247.04
536.864	1198.21
537.069	1217.98
537.274	1239.09
537.479	1210.03
537.684	1249.75
537.889	1200.93
538.094	1295.67
538.299	1224.18
538.504	1272.81
538.708	1252.85
538.913	1272.81
539.118	1239.48
539.323	1280.36
539.528	1232.51
539.733	1256.92
539.938	1255.56
540.142	1263.7
540.347	1243.16
540.552	1222.82
540.757	1217.59
540.962	1227.86
541.166	1191.82
541.371	1207.9
541.576	1257.11
541.781	1132.73
541.985	1258.66
542.19	1259.24
542.395	1297.02
542.599	1328.22
542.804	1296.06
543.008	1348.56
543.213	1253.24
543.418	1235.41
543.622	1308.84
543.827	1227.08
544.031	1315.82
544.236	1347.21
544.44	1314.66
544.645	1366.39
544.849	1303.61
545.054	1313.69
545.258	1406.1
545.463	1390.02
545.667	1292.18
545.872	1339.07
546.076	1338.87
546.281	1350.11
546.485	1282.49
546.689	1328.8
546.894	1353.79
547.098	1335.77
547.302	1281.72
547.507	1346.04
547.711	1352.05
547.915	1393.51
548.119	1284.62
548.324	1339.65
548.528	1368.32
548.732	1316.59
548.936	1364.25
549.141	1351.66
549.345	1316.01
549.549	1343.91
549.753	1337.32
549.957	1431.29
550.161	1412.89
550.366	1343.33
550.57	1318.14
550.774	1364.45
550.978	1318.92
551.182	1395.64
551.386	1336.55
551.59	1302.84
551.794	1323.37
551.998	1352.63
552.202	1359.61
552.406	1340.42
552.61	1382.66
552.814	1373.17
553.018	1421.22
553.222	1352.05
553.426	1362.9
553.63	1411.92
553.833	1349.72
554.037	1352.82
554.241	1408.43
554.445	1369.49
554.649	1340.62
554.853	1350.89
555.056	1378.59
555.26	1396.03
555.464	1380.92
555.668	1373.94
555.871	1416.95
556.075	1414.44
556.279	1361.74
556.483	1333.45
556.686	1362.51
556.89	1341.39
557.094	1362.9
557.297	1283.27
557.501	1373.36
557.704	1282.49
557.908	1398.94
558.112	1313.49
558.315	1403
558.519	1317.76
558.722	1285.21
558.926	1310.78
559.129	1288.5
559.333	1276.87
559.536	1238.9
559.74	1247.23
559.943	1228.44
560.147	1263.51
560.35	1251.88
560.553	1258.66
560.757	1236.19
560.96	1308.65
561.164	1266.99
561.367	1364.84
561.57	1255.37
561.774	1278.42
561.977	1284.24
562.18	1240.06
562.384	1334.22
562.587	1292.76
562.79	1266.99
562.993	1262.93
563.197	1323.96
563.4	1337.91
563.603	1289.66
563.806	1342.75
564.009	1251.69
564.212	1282.69
564.416	1191.04
564.619	1284.62
564.822	1205.38
565.025	1288.31
565.228	1227.66
565.431	1256.73
565.634	1160.24
565.837	1218.17
566.04	1187.75
566.243	1224.18
566.446	1120.91
566.649	1211.39
566.852	1136.8
567.055	1195.31
567.258	1193.18
567.461	1254.59
567.664	1205.96
567.867	1143
568.07	1195.31
568.273	1217.2
568.475	1211.78
568.678	1175.55
568.881	1148.23
569.084	1164.7
569.287	1081.97
569.489	1119.36
569.692	1144.55
569.895	1158.69
570.098	1058.72
570.3	1119.16
570.503	1068.21
570.706	1087.2
570.909	1099.21
571.111	1034.5
571.314	1011.05
571.516	1055.03
571.719	1075.57
571.922	1006.99
572.124	1062.2
572.327	1073.05
572.529	1017.83
572.732	1039.53
572.935	1048.64
573.137	1110.45
573.34	1034.88
573.542	1076.54
573.745	1036.24
573.947	1059.49
574.15	1084.1
574.352	1010.09
574.554	1094.37
574.757	1007.57
574.959	991.68
575.162	1034.69
575.364	1039.73
575.566	1112
575.769	975.4
575.971	1005.44
576.173	908.95
576.376	985.48
576.578	1006.4
576.78	1062.2
576.982	920.96
577.185	1016.48
577.387	941.11
577.589	952.35
577.791	997.69
577.993	1006.6
578.196	992.84
578.398	1009.5
578.6	1028.88
578.802	958.74
579.004	936.07
579.206	941.69
579.408	965.72
579.61	962.81
579.812	980.25
580.014	972.69
580.216	926
580.418	932
580.62	946.54
580.822	906.62
581.024	964.55
581.226	1011.83
581.428	956.42
581.63	1022.48
581.832	950.99
582.034	993.42
582.236	987.8
582.438	980.25
582.64	1023.84
582.841	1019.58
583.043	1074.99
583.245	974.05
583.447	1020.35
583.649	989.94
583.85	1007.76
584.052	1020.93
584.254	964.94
584.456	1040.7
584.657	963.2
584.859	983.54
585.061	980.05
585.262	959.32
585.464	942.66
585.666	1014.93
585.867	945.95
586.069	1009.12
586.27	952.35
586.472	963.78
586.674	941.3
586.875	959.13
587.077	952.54
587.278	961.26
587.48	945.18
587.681	1057.55
587.883	979.86
588.084	898.29
588.285	915.92
588.487	917.28
588.688	937.04
588.89	870.97
589.091	845.4
589.292	867.49
589.494	831.64
589.695	846.56
589.896	780.88
590.098	794.25
590.299	848.69
590.5	808.78
590.702	867.29
590.903	824.48
591.104	893.45
591.305	874.66
591.507	902.36
591.708	896.36
591.909	877.17
592.11	938.4
592.311	913.21
592.512	903.52
592.714	847.53
592.915	827.77
593.116	881.05
593.317	872.14
593.518	850.63
593.719	867.68
593.92	900.23
594.121	922.9
594.322	898.29
594.523	881.24
594.724	872.33
594.925	850.82
595.126	880.47
595.327	905.66
595.528	907.59
595.729	869.81
595.929	853.92
596.13	878.92
596.331	879.69
596.532	879.89
596.733	898.29
596.934	902.36
597.135	919.99
597.335	925.8
597.536	862.84
597.737	886.67
597.938	912.05
598.138	918.06
598.339	864.58
598.54	914.96
598.74	899.65
598.941	883.37
599.142	924.26
599.342	904.88
599.543	853.15
599.744	910.11
599.944	871.56
600.145	870.39
600.345	836.29
600.546	964.75
600.746	907.98
600.947	959.71
601.147	881.82
601.348	897.91
601.548	845.21
601.749	894.22
601.949	840.75
602.15	845.01
602.35	845.21
602.551	913.02
602.751	845.79
602.951	849.08
603.152	833.97
603.352	884.34
603.552	841.91
603.753	906.82
603.953	896.16
604.153	883.18
604.354	881.82
604.554	882.79
604.754	864.19
604.954	845.98
605.155	884.15
605.355	882.02
605.555	895.77
605.755	905.07
605.955	884.34
606.155	900.81
606.356	898.29
606.556	904.49
606.756	900.23
606.956	831.64
607.156	920.57
607.356	851.99
607.556	876.79
607.756	865.74
607.956	904.11
608.156	889.19
608.356	831.64
608.556	884.34
608.756	856.06
608.956	824.67
609.156	875.24
609.356	813.04
609.556	811.49
609.755	836.88
609.955	825.83
610.155	844.62
610.355	871.75
610.555	823.31
610.755	840.56
610.954	812.85
611.154	867.68
611.354	859.35
611.554	803.36
611.753	839.39
611.953	800.26
612.153	852.18
612.352	843.66
612.552	774.1
612.752	748.14
612.951	808.59
613.151	832.42
613.351	788.83
613.55	829.32
613.75	833.78
613.949	792.7
614.149	795.03
614.348	827.96
614.548	766.93
614.747	760.54
614.947	762.67
615.146	734
615.346	808.98
615.545	821.57
615.745	797.93
615.944	825.44
616.144	810.53
616.343	797.16
616.542	758.99
616.742	777.2
616.941	766.16
617.14	754.92
617.34	766.16
617.539	782.04
617.738	735.35
617.938	833.58
618.137	743.68
618.336	721.79
618.535	768.48
618.734	771.39
618.934	792.12
619.133	759.76
619.332	802.58
619.531	743.49
619.73	792.31
619.929	779.14
620.128	779.14
620.328	813.82
620.527	762.28
620.726	791.93
620.925	780.88
621.124	769.84
621.323	769.06
621.522	717.33
621.721	714.62
621.92	719.08
622.119	776.23
622.318	743.1
622.517	749.69
622.715	735.35
622.914	705.13
623.113	742.13
623.312	694.86
623.511	769.26
623.71	716.17
623.909	713.85
624.107	783.79
624.306	694.47
624.505	685.36
624.704	723.15
624.902	721.21
625.101	731.86
625.3	702.03
625.499	683.23
625.697	696.99
625.896	702.03
626.095	736.71
626.293	661.73
626.492	691.56
626.69	732.45
626.889	681.88
627.088	723.92
627.286	654.75
627.485	690.98
627.683	697.18
627.882	715.4
628.08	639.64
628.279	681.1
628.477	732.83
628.676	652.82
628.874	688.66
629.073	644.48
629.271	658.63
629.469	668.31
629.668	657.66
629.866	651.27
630.065	641.58
630.263	664.44
630.461	636.15
630.66	699.7
630.858	725.66
631.056	710.16
631.254	703.19
631.453	663.08
631.651	684.01
631.849	674.32
632.047	662.5
632.245	685.95
632.444	690.6
632.642	708.03
632.84	686.53
633.038	667.54
633.236	641.77
633.434	669.48
633.632	670.25
633.83	667.35
634.028	677.23
634.227	662.12
634.425	721.79
634.623	671.61
634.821	687.69
635.019	696.6
635.216	669.48
635.414	693.5
635.612	679.55
635.81	647.97
636.008	729.35
636.206	704.55
636.404	708.42
636.602	642.35
636.8	681.49
636.997	698.35
637.195	736.71
637.393	674.32
637.591	730.7
637.789	700.86
637.986	688.85
638.184	705.51
638.382	733.8
638.58	726.05
638.777	739.03
638.975	697.18
639.173	712.1
639.37	671.8
639.568	694.86
639.765	697.76
639.963	664.05
640.161	703.38
640.358	717.72
640.556	643.71
640.753	680.33
640.951	665.41
641.148	680.13
641.346	648.55
641.543	672.77
641.741	676.65
641.938	648.36
642.136	668.51
642.333	653.01
642.531	713.26
642.728	699.7
642.925	668.31
643.123	661.15
643.32	702.61
643.517	665.99
643.715	656.88
643.912	660.18
644.109	668.7
644.306	642.74
644.504	623.75
644.701	632.08
644.898	695.63
645.095	640.22
645.293	640.03
645.49	690.01
645.687	665.6
645.884	693.11
646.081	603.22
646.278	629.76
646.475	641.97
646.672	638.48
646.87	647.58
647.067	631.31
647.264	636.73
647.461	613.1
647.658	587.91
647.855	633.44
648.052	605.93
648.249	539.47
648.446	606.7
648.642	561.56
648.839	591.59
649.036	580.55
649.233	560.4
649.43	546.84
649.627	537.92
649.824	579.38
650.021	562.34
650.217	567.18
650.414	565.63
650.611	622.4
650.808	635.38
651.004	592.75
651.201	602.05
651.398	618.52
651.595	599.15
651.791	575.32
651.988	613.29
652.185	570.86
652.381	599.15
652.578	528.82
652.775	578.42
652.971	571.64
653.168	590.23
653.364	598.76
653.561	524.94
653.757	565.44
653.954	584.23
654.15	542.77
654.347	635.77
654.543	569.7
654.74	534.44
654.936	518.35
655.133	563.69
655.329	585.39
655.525	571.25
655.722	587.91
655.918	540.25
656.115	570.67
656.311	462.75
656.507	483.09
656.704	472.05
656.9	488.13
657.096	491.04
657.292	497.82
657.489	532.89
657.685	537.54
657.881	511.19
658.077	519.52
658.273	512.74
658.47	609.8
658.666	536.37
658.862	539.86
659.058	510.41
659.254	574.15
659.45	538.31
659.646	541.02
659.842	531.72
660.038	600.7
660.234	525.14
660.43	534.44
660.626	602.05
660.822	573.57
661.018	590.23
661.214	543.74
661.41	508.47
661.606	581.32
661.802	566.21
661.998	560.98
662.194	511.96
662.39	600.31
662.586	554.78
662.781	567.37
662.977	561.56
663.173	563.69
663.369	532.89
663.564	555.36
663.76	566.79
663.956	529.98
664.152	580.55
664.347	509.05
664.543	533.08
664.739	518.35
664.934	502.27
665.13	499.37
665.326	558.65
665.521	567.76
665.717	516.42
665.912	498.2
666.108	455.58
666.304	524.75
666.499	527.27
666.695	483.09
666.89	522.23
667.086	547.8
667.281	524.17
667.477	594.3
667.672	524.94
667.867	528.04
668.063	548.58
668.258	508.86
668.454	526.88
668.649	576.87
668.844	523
669.04	532.89
669.235	514.29
669.43	495.49
669.626	499.37
669.821	497.82
670.016	488.13
670.211	522.62
670.407	464.3
670.602	510.02
670.797	504.02
670.992	533.47
671.187	506.54
671.382	547.8
671.578	478.83
671.773	531.53
671.968	445.89
672.163	485.42
672.358	519.52
672.553	498.4
672.748	479.99
672.943	543.93
673.138	486.77
673.333	520.1
673.528	479.41
673.723	527.65
673.918	511.57
674.113	482.9
674.308	550.52
674.503	521.84
674.698	524.75
674.892	474.76
675.087	517.19
675.282	502.66
675.477	481.54
675.672	502.85
675.867	475.73
676.061	458.87
676.256	457.91
676.451	473.79
676.646	495.49
676.84	462.36
677.035	451.32
677.23	443.57
677.424	527.27
677.619	517.77
677.814	500.34
678.008	514.67
678.203	451.32
678.397	475.34
678.592	479.99
678.787	525.14
678.981	487.36
679.176	503.82
679.37	461.78
679.565	467.59
679.759	491.04
679.954	489.68
680.148	506.15
680.342	513.9
680.537	517.19
680.731	452.87
680.926	493.75
681.12	476.7
681.314	471.08
681.509	461.39
681.703	493.75
681.897	522.81
682.092	469.72
682.286	470.5
682.48	516.61
682.674	500.72
682.869	483.29
683.063	496.85
683.257	545.87
683.451	450.74
683.645	510.8
683.839	471.47
684.034	462.94
684.228	515.64
684.422	436.01
684.616	443.96
684.81	505.57
685.004	483.29
685.198	485.42
685.392	520.1
685.586	452.48
685.78	536.37
685.974	510.6
686.168	490.65
686.362	513.9
686.556	439.31
686.75	424.19
686.944	443.18
687.138	444.73
687.331	357.54
687.525	374.01
687.719	346.69
687.913	368.39
688.107	371.11
688.301	358.9
688.494	422.45
688.688	373.63
688.882	346.31
689.076	343.98
689.269	390.09
689.463	452.48
689.657	386.41
689.85	384.48
690.044	394.94
690.238	405.79
690.431	395.33
690.625	402.49
690.818	414.51
691.012	440.27
691.205	445.31
691.399	389.32
691.593	427.29
691.786	451.51
691.98	473.79
692.173	529.2
692.366	489.49
692.56	493.75
692.753	513.9
692.947	434.46
693.14	518.16
693.333	517.39
693.527	464.3
693.72	505.18
693.914	488.71
694.107	486.77
694.3	513.12
694.493	486.58
694.687	497.04
694.88	515.06
695.073	584.42
695.266	501.69
695.46	536.76
695.653	549.74
695.846	572.8
696.039	498.98
696.232	538.89
696.425	562.92
696.618	593.14
696.812	606.51
697.005	609.22
697.198	674.9
697.391	631.89
697.584	639.64
697.777	690.79
697.97	688.27
698.163	672.96
698.356	643.52
698.549	727.41
698.742	708.03
698.935	646.42
699.127	668.31
699.32	656.88
699.513	674.13
699.706	702.41
699.899	717.72
700.092	698.73
700.285	737.1
700.477	670.64
700.67	700.28
700.863	752.79
701.056	814.59
701.248	779.33
701.441	792.31
701.634	762.67
701.826	828.54
702.019	753.95
702.212	825.44
702.404	740.78
702.597	783.4
702.79	777.98
702.982	799.87
703.175	860.71
703.367	846.37
703.56	836.88
703.752	947.89
703.945	869.04
704.137	908.17
704.33	935.88
704.522	920.77
704.715	946.34
704.907	977.15
705.1	1006.4
705.292	978.5
705.484	991.49
705.677	990.32
705.869	1048.06
706.061	1042.25
706.254	1067.05
706.446	1036.82
706.638	1060.27
706.831	1087.58
707.023	1077.7
707.215	1182.33
707.407	1149
707.599	1159.08
707.792	1183.88
707.984	1155.78
708.176	1206.35
708.368	1182.13
708.56	1200.34
708.752	1204.8
708.944	1166.83
709.136	1251.3
709.329	1238.71
709.521	1339.07
709.713	1313.49
709.905	1293.54
710.097	1314.07
710.289	1270.09
710.481	1331.71
710.672	1349.14
710.864	1322.6
711.056	1431.29
711.248	1411.72
711.44	1391.38
711.632	1375.3
711.824	1427.42
712.016	1471.2
712.207	1479.92
712.399	1413.08
712.591	1538.05
712.783	1492.52
712.975	1508.02
713.166	1436.91
713.358	1496.97
713.55	1558.97
713.741	1552
713.933	1578.73
714.125	1537.27
714.316	1539.6
714.508	1609.54
714.7	1628.72
714.891	1588.42
715.083	1659.72
715.274	1628.91
715.466	1655.07
715.657	1657.78
715.849	1579.51
716.04	1614
716.232	1565.75
716.423	1657.59
716.615	1557.23
716.806	1553.93
716.998	1502.78
717.189	1465.39
717.381	1392.54
717.572	1356.31
717.763	1428
717.955	1395.64
718.146	1361.16
718.337	1328.61
718.528	1328.22
718.72	1244.71
718.911	1321.24
719.102	1277.07
719.293	1335.77
719.485	1335.77
719.676	1308.84
719.867	1256.14
720.058	1274.55
720.249	1291.41
720.44	1331.51
720.632	1361.74
720.823	1385.37
721.014	1510.53
721.205	1515.96
721.396	1568.46
721.587	1678.32
721.778	1674.25
721.969	1701.18
722.16	1796.7
722.351	1780.23
722.542	1906.17
722.733	1883.11
722.924	1815.1
723.115	1888.53
723.305	1847.07
723.496	1856.76
723.687	1753.11
723.878	1762.6
724.069	1762.41
724.26	1825.37
724.45	1736.64
724.641	1721.33
724.832	1770.74
725.023	1808.9
725.213	1748.26
725.404	1754.85
725.595	1740.71
725.785	1752.52
725.976	1805.8
726.167	1806.97
726.357	1809.29
726.548	1877.49
726.739	1790.5
726.929	1883.5
727.12	1893.96
727.31	1934.45
727.501	1877.69
727.691	1891.44
727.882	1886.02
728.072	1940.46
728.263	1956.93
728.453	1968.94
728.644	2002.07
728.834	2000.91
729.024	1966.03
729.215	1975.53
729.405	2024.74
729.596	2052.06
729.786	2047.02
729.976	2107.86
730.167	2084.8
730.357	2123.74
730.547	2090.61
730.737	2095.46
730.928	2158.42
731.118	2158.81
731.308	2110.76
731.498	2182.45
731.688	2217.13
731.879	2243.67
732.069	2293.47
732.259	2331.44
732.449	2364.77
732.639	2393.83
732.829	2410.1
733.019	2458.35
733.209	2500.58
733.399	2516.47
733.589	2643.57
733.779	2649.96
733.969	2629.23
734.159	2691.23
734.349	2744.32
734.539	2756.52
734.729	2760.98
734.919	2769.89
735.109	2839.64
735.299	2791.01
735.488	2836.54
735.678	2791.78
735.868	2820.27
736.058	2847.2
736.248	2797.79
736.437	2794.88
736.627	2819.88
736.817	2884.78
737.007	2803.8
737.196	2894.28
737.386	2898.54
737.576	2884.2
737.765	2928.18
737.955	2855.91
738.144	3007.23
738.334	2996.77
738.524	2874.13
738.713	2974.88
738.903	2977.01
739.092	2987.08
739.282	2993.09
739.471	3002.78
739.661	3003.74
739.85	3052.76
740.04	3077.95
740.229	3103.52
740.419	3104.3
740.608	3137.62
740.797	3073.3
740.987	3139.95
741.176	3154.87
741.365	3085.12
741.555	3079.11
741.744	3174.05
741.933	3139.56
742.123	3164.17
742.312	3200.01
742.501	3206.02
742.69	3216.87
742.88	3158.16
743.069	3232.75
743.258	3249.61
743.447	3342.8
743.636	3283.32
743.825	3238.18
744.014	3266.08
744.204	3335.44
744.393	3226.36
744.582	3321.49
744.771	3323.04
744.96	3294.75
745.149	3329.24
745.338	3286.81
745.527	3296.11
745.716	3298.24
745.905	3279.83
746.094	3392.59
746.283	3337.18
746.471	3320.33
746.66	3373.61
746.849	3399.76
747.038	3398.99
747.227	3355.2
747.416	3339.12
747.604	3310.83
747.793	3360.05
747.982	3343.77
748.171	3386.59
748.359	3379.03
748.548	3359.27
748.737	3369.15
748.926	3378.45
749.114	3258.91
749.303	3361.4
749.491	3345.32
749.68	3272.08
749.869	3365.28
750.057	3294.75
750.246	3311.41
750.434	3312.38
750.623	3302.7
750.811	3301.34
751	3312.38
751.188	3309.09
751.377	3322.07
751.565	3297.66
751.754	3288.36
751.942	3271.7
752.131	3352.49
752.319	3296.88
752.507	3231.98
752.696	3306.38
752.884	3306.76
753.072	3293.78
753.261	3259.88
753.449	3264.92
753.637	3259.68
753.825	3357.53
754.014	3270.34
754.202	3251.93
754.39	3329.82
754.578	3275.57
754.766	3286.42
754.955	3256
755.143	3350.94
755.331	3248.45
755.519	3227.91
755.707	3245.93
755.895	3244.18
756.083	3236.63
756.271	3220.93
756.459	3207.57
756.647	3280.61
756.835	3224.62
757.023	3192.26
757.211	3216.28
757.399	3183.93
757.587	3197.88
757.775	3162.62
757.963	3178.12
758.151	3199.43
758.339	3140.14
758.526	3157
758.714	3165.52
758.902	3087.44
759.09	2978.75
759.278	2756.72
759.465	2561.61
759.653	2235.92
759.841	1994.71
760.028	1704.48
760.216	1471.01
760.404	1395.84
760.591	1152.88
760.779	960.68
760.967	834.74
761.154	709.58
761.342	735.35
761.529	736.51
761.717	820.79
761.905	767.71
762.092	825.25
762.28	766.35
762.467	773.33
762.655	703.77
762.842	698.35
763.029	744.65
763.217	753.95
763.404	737.29
763.592	772.16
763.779	722.18
763.966	773.13
764.154	798.9
764.341	882.99
764.528	866.13
764.716	947.5
764.903	986.45
765.09	1056.2
765.277	1086.03
765.465	1238.13
765.652	1295.09
765.839	1329.38
766.026	1508.6
766.213	1528.17
766.4	1630.66
766.588	1813.17
766.775	1848.82
766.962	1916.63
767.149	2005.17
767.336	2128.2
767.523	2082.48
767.71	2210.16
767.897	2291.53
768.084	2419.98
768.271	2458.54
768.458	2495.74
768.645	2563.94
768.832	2536.23
769.019	2573.24
769.206	2622.64
769.392	2703.63
769.579	2780.74
769.766	2711.38
769.953	2748.39
770.14	2796.82
770.327	2773.38
770.513	2830.73
770.7	2879.75
770.887	2781.13
771.073	2849.91
771.26	2800.89
771.447	2822.4
771.634	2785.97
771.82	2951.43
772.007	2791.59
772.193	2866.96
772.38	2875.48
772.567	2809.22
772.753	2792.37
772.94	2880.33
773.126	2848.36
773.313	2883.04
773.499	2858.82
773.686	2869.48
773.872	2822.78
774.059	2852.04
774.245	2771.44
774.432	2805.35
774.618	2723.39
774.804	2830.53
774.991	2762.33
775.177	2853.2
775.363	2824.92
775.55	2834.99
775.736	2755.36
775.922	2808.64
776.109	2798.57
776.295	2811.16
776.481	2828.21
776.667	2863.28
776.853	2772.6
777.04	2757.1
777.226	2767.37
777.412	2779.77
777.598	2756.72
777.784	2744.7
777.97	2778.42
778.156	2778.42
778.342	2789.46
778.528	2721.26
778.715	2682.12
778.901	2705.95
779.087	2729.79
779.272	2660.81
779.458	2686.97
779.644	2696.65
779.83	2652.48
780.016	2785.97
780.202	2679.41
780.388	2685.22
780.574	2607.53
780.76	2591.45
780.946	2730.75
781.131	2673.02
781.317	2593.58
781.503	2609.86
781.689	2628.65
781.874	2742.77
782.06	2615.67
782.246	2634.07
782.432	2622.64
782.617	2645.89
782.803	2672.63
782.989	2547.86
783.174	2562.39
783.36	2506.98
783.545	2591.06
783.731	2553.67
783.916	2473.46
784.102	2586.99
784.288	2546.69
784.473	2560.26
784.659	2526.16
784.844	2575.56
785.029	2529.26
785.215	2501.16
785.4	2487.02
785.586	2570.91
785.771	2485.86
785.956	2494.58
786.142	2477.53
786.327	2494.96
786.512	2489.54
786.698	2484.11
786.883	2391.7
787.068	2455.83
787.254	2444.4
787.439	2404.48
787.624	2430.83
787.809	2409.13
787.994	2364.96
788.18	2440.52
788.365	2360.5
788.55	2356.63
788.735	2370.19
788.92	2344.81
789.105	2381.82
789.29	2394.8
789.475	2252.59
789.66	2300.25
789.845	2303.35
790.03	2282.04
790.215	2339.58
790.4	2349.85
790.585	2331.05
790.77	2339.58
790.955	2240.19
791.14	2290.37
791.325	2325.05
791.51	2228.76
791.695	2294.82
791.879	2260.53
792.064	2207.44
792.249	2326.79
792.434	2302.57
792.618	2267.7
792.803	2316.14
792.988	2242.51
793.173	2303.15
793.357	2304.12
793.542	2245.03
793.727	2268.86
793.911	2329.5
794.096	2268.67
794.281	2304.12
794.465	2367.87
794.65	2290.56
794.834	2325.63
795.019	2326.79
795.203	2353.53
795.388	2354.11
795.572	2424.25
795.757	2318.07
795.941	2368.45
796.126	2335.7
796.31	2275.45
796.494	2296.37
796.679	2249.49
796.863	2264.21
797.048	2362.44
797.232	2295.99
797.416	2334.54
797.601	2317.3
797.785	2372.71
797.969	2349.85
798.153	2300.44
798.338	2352.75
798.522	2353.14
798.706	2367.67
798.89	2369.61
799.074	2435.29
799.258	2413.4
799.443	2345.97
799.627	2337.06
799.811	2384.33
799.995	2354.3
800.179	2340.93
800.363	2319.04
800.547	2357.79
800.731	2391.31
800.915	2232.63
801.099	2323.88
801.283	2270.99
801.467	2328.53
801.651	2319.24
801.835	2346.17
802.019	2341.71
802.202	2333.96
802.386	2266.92
802.57	2317.69
802.754	2297.92
802.938	2282.81
803.121	2282.62
803.305	2365.93
803.489	2298.89
803.673	2283.2
803.856	2310.9
804.04	2305.29
804.224	2314.78
804.407	2313.42
804.591	2308.19
804.775	2296.18
804.958	2304.7
805.142	2419.21
805.326	2335.9
805.509	2337.83
805.693	2363.6
805.876	2349.65
806.06	2341.52
806.243	2362.44
806.427	2408.75
806.61	2378.72
806.794	2308.58
806.977	2382.98
807.16	2372.32
807.344	2356.43
807.527	2329.7
807.71	2355.66
807.894	2308.58
808.077	2346.75
808.26	2302.96
808.444	2323.88
808.627	2343.65
808.81	2262.08
808.993	2265.76
809.177	2197.56
809.36	2246.77
809.543	2277.77
809.726	2178.96
809.909	2194.07
810.092	2184.77
810.276	2195.43
810.459	2164.24
810.642	2171.41
810.825	2141.18
811.008	2150.29
811.191	2044.5
811.374	2076.66
811.557	2084.41
811.74	2147.38
811.923	2030.94
812.106	2012.92
812.289	1990.06
812.472	2008.08
812.654	2012.53
812.837	1963.52
813.02	1901.32
813.203	1955.57
813.386	1808.52
813.569	1755.24
813.751	1731.99
813.934	1809.49
814.117	1740.12
814.3	1736.44
814.482	1659.14
814.665	1658.56
814.848	1594.04
815.03	1589
815.213	1571.37
815.396	1570.98
815.578	1523.9
815.761	1496.97
815.943	1549.86
816.126	1469.85
816.309	1451.05
816.491	1391.38
816.674	1331.71
816.856	1413.27
817.039	1378.01
817.221	1470.04
817.403	1443.3
817.586	1413.08
817.768	1434.39
817.951	1368.71
818.133	1328.22
818.315	1401.26
818.498	1393.32
818.68	1440.4
818.862	1455.51
819.045	1462.68
819.227	1463.07
819.409	1439.24
819.591	1441.37
819.774	1438.65
819.956	1434.59
820.138	1490
820.32	1444.27
820.502	1522.35
820.684	1586.87
820.866	1608.18
821.048	1629.88
821.231	1636.28
821.413	1617.1
821.595	1632.98
821.777	1653.71
821.959	1650.03
822.141	1674.64
822.323	1549.28
822.505	1517.51
822.686	1417.92
822.868	1363.09
823.05	1281.72
823.232	1266.03
823.414	1205.38
823.596	1270.48
823.778	1280.17
823.96	1261.18
824.141	1299.74
824.323	1299.35
824.505	1409.79
824.687	1447.18
824.868	1485.93
825.05	1579.9
825.232	1568.27
825.413	1670.76
825.595	1607.99
825.777	1525.07
825.958	1574.28
826.14	1593.07
826.321	1593.46
826.503	1561.88
826.685	1620.58
826.866	1637.63
827.048	1579.51
827.229	1511.89
827.411	1544.83
827.592	1451.05
827.773	1476.82
827.955	1451.83
828.136	1441.17
828.318	1432.65
828.499	1481.47
828.68	1370.65
828.862	1414.05
829.043	1446.79
829.224	1441.56
829.406	1418.12
829.587	1391.57
829.768	1413.66
829.949	1461.52
830.131	1447.76
830.312	1481.08
830.493	1418.5
830.674	1440.59
830.855	1409.98
831.036	1423.35
831.218	1491.93
831.399	1471.78
831.58	1428
831.761	1432.65
831.942	1469.27
832.123	1469.85
832.304	1373.17
832.485	1407.07
832.666	1402.62
832.847	1444.08
833.028	1411.72
833.209	1404.55
833.389	1407.46
833.57	1362.12
833.751	1412.69
833.932	1453.77
834.113	1451.83
834.294	1390.22
834.475	1430.13
834.655	1472.95
834.836	1465.2
835.017	1460.55
835.198	1406.3
835.378	1451.25
835.559	1522.74
835.74	1455.32
835.92	1454.73
836.101	1421.22
836.281	1465.58
836.462	1487.67
836.643	1531.46
836.823	1511.5
837.004	1491.74
837.184	1509.57
837.365	1504.33
837.545	1479.73
837.726	1485.93
837.906	1565.17
838.087	1459.38
838.267	1487.48
838.448	1429.35
838.628	1520.22
838.808	1526.81
838.989	1562.46
839.169	1447.18
839.349	1500.27
839.53	1552.77
839.71	1540.37
839.89	1464.23
840.07	1549.09
840.251	1470.23
840.431	1524.29
840.611	1498.91
840.791	1471.4
840.971	1539.6
841.151	1516.35
841.332	1472.95
841.512	1494.07
841.692	1448.73
841.872	1512.67
842.052	1470.62
842.232	1520.8
842.412	1443.5
842.592	1483.99
842.772	1496.97
842.952	1489.22
843.132	1435.36
843.312	1456.28
843.492	1447.57
843.672	1464.42
843.851	1400.29
844.031	1460.55
844.211	1420.44
844.391	1428.58
844.571	1469.85
844.751	1504.92
844.93	1480.31
845.11	1417.73
845.29	1434.39
845.47	1462.48
845.649	1457.83
845.829	1474.5
846.009	1431.1
846.188	1465.39
846.368	1465.2
846.547	1459.77
846.727	1483.8
846.907	1397.58
847.086	1412.89
847.266	1484.38
847.445	1446.6
847.625	1429.35
847.804	1401.26
847.984	1443.89
848.163	1392.35
848.343	1397.19
848.522	1425.48
848.701	1428.97
848.881	1384.99
849.06	1401.65
849.239	1403.78
849.419	1396.03
849.598	1331.12
849.777	1341.59
849.957	1359.61
850.136	1295.86
850.315	1257.31
850.494	1266.99
850.674	1272.23
850.853	1318.72
851.032	1313.88
851.211	1327.25
851.39	1325.7
851.569	1249.75
851.748	1276.49
851.927	1342.94
852.107	1326.86
852.286	1283.46
852.465	1277.65
852.644	1305.94
852.823	1335.77
853.002	1300.51
853.181	1326.28
853.359	1311.36
853.538	1251.88
853.717	1311.75
853.896	1213.13
854.075	1183.68
854.254	1147.06
854.433	1092.62
854.611	1132.53
854.79	1072.28
854.969	1152.3
855.148	1158.11
855.327	1118.58
855.505	1192.4
855.684	1167.41
855.863	1182.71
856.041	1156.95
856.22	1209.26
856.399	1152.49
856.577	1280.56
856.756	1237.16
856.934	1325.12
857.113	1353.21
857.291	1263.89
857.47	1207.51
857.648	1292.76
857.827	1252.46
858.005	1324.73
858.184	1240.26
858.362	1325.51
858.541	1277.07
858.719	1244.13
858.898	1239.48
859.076	1254.98
859.254	1284.24
859.433	1234.64
859.611	1246.07
859.789	1191.63
859.967	1298.96
860.146	1261.57
860.324	1170.12
860.502	1208.87
860.68	1177.1
860.859	1197.05
861.037	1192.79
861.215	1219.33
861.393	1224.56
861.571	1209.26
861.749	1168.76
861.927	1212.16
862.105	1196.28
862.283	1204.41
862.461	1174
862.639	1146.1
862.817	1198.79
862.995	1165.08
863.173	1195.11
863.351	1177.68
863.529	1187.56
863.707	1204.22
863.885	1160.43
864.063	1105.41
864.241	1164.5
864.418	1223.01
864.596	1141.83
864.774	1138.15
864.952	1156.75
865.129	1161.21
865.307	1101.53
865.485	1096.3
865.663	1154.04
865.84	1099.98
866.018	1083.13
866.196	987.22
866.373	1022.29
866.551	977.34
866.728	973.47
866.906	979.09
867.084	999.04
867.261	1062.59
867.439	1055.03
867.616	1062.2
867.794	1065.3
867.971	1052.71
868.149	1051.74
868.326	1112.19
868.503	1055.03
868.681	1064.72
868.858	1062.4
869.035	1035.66
869.213	1083.13
869.39	1028.68
869.567	1098.63
869.745	1032.95
869.922	1086.42
870.099	1075.77
870.276	1109.09
870.454	1088.75
870.631	1093.98
870.808	1031.59
870.985	1078.67
871.162	1127.11
871.339	1091.85
871.517	1037.98
871.694	1022.1
871.871	1047.28
872.048	1053.48
872.225	1023.26
872.402	1049.61
872.579	1026.55
872.756	1042.05
872.933	1011.64
873.11	1001.37
873.287	1069.37
873.463	1020.35
873.64	1018.8
873.817	1060.07
873.994	1019.77
874.171	988.58
874.348	1019.38
874.524	958.16
874.701	1037.21
874.878	912.05
875.055	1011.05
875.231	997.1
875.408	1013.96
875.585	956.22
875.762	1001.95
875.938	989.16
876.115	934.91
876.291	975.99
876.468	979.28
876.645	947.12
876.821	958.94
876.998	971.34
877.174	964.94
877.351	934.33
877.527	927.55
877.704	953.51
877.88	976.95
878.057	913.21
878.233	1031.01
878.409	928.71
878.586	948.28
878.762	953.12
878.938	930.84
879.115	863.42
879.291	937.62
879.467	861.48
879.644	885.51
879.82	938.4
879.996	912.05
880.172	824.86
880.349	888.99
880.525	920.77
880.701	872.14
880.877	880.08
881.053	877.17
881.229	897.91
881.405	938.01
881.581	866.52
881.757	881.05
881.933	932.97
882.109	912.05
882.285	894.42
882.461	843.66
882.637	883.37
882.813	821.96
882.989	876.79
883.165	937.62
883.341	872.52
883.517	922.9
883.693	915.15
883.869	895.97
884.044	857.99
884.22	911.08
884.396	955.25
884.572	922.51
884.747	921.35
884.923	885.51
885.099	909.53
885.275	920.38
885.45	876.98
885.626	864.19
885.801	868.26
885.977	878.92
886.153	821.18
886.328	892.87
886.504	869.42
886.679	890.74
886.855	834.36
887.03	903.14
887.206	918.44
887.381	905.85
887.557	910.89
887.732	878.53
887.908	900.23
888.083	904.11
888.258	879.5
888.434	871.56
888.609	894.03
888.784	933.75
888.96	885.89
889.135	873.88
889.31	850.44
889.485	909.34
889.661	895.19
889.836	903.91
890.011	895
890.186	874.66
890.361	857.61
890.537	889.38
890.712	906.24
890.887	890.35
891.062	905.66
891.237	940.92
891.412	852.37
891.587	901.97
891.762	909.14
891.937	956.42
892.112	816.92
892.287	879.89
892.462	827.96
892.637	824.09
892.812	776.04
892.987	822.93
893.161	808.59
893.336	798.71
893.511	804.71
893.686	822.15
893.861	788.44
894.035	821.38
894.21	814.59
894.385	754.53
894.56	773.13
894.734	723.53
894.909	751.24
895.084	725.86
895.258	728.76
895.433	718.88
895.608	702.03
895.782	667.73
895.957	681.3
896.131	664.63
896.306	616.97
896.48	655.33
896.655	609.03
896.829	562.53
897.004	567.18
897.178	583.65
897.353	574.15
897.527	594.3
897.701	585.97
897.876	536.95
898.05	613.87
898.224	615.42
898.399	634.41
898.573	572.99
898.747	488.71
898.921	544.32
899.096	447.25
899.27	459.65
899.444	493.36
899.618	508.47
899.792	527.65
899.967	523.97
900.141	531.14
900.315	480.38
900.489	503.05
900.663	537.15
900.837	511.57
901.011	481.35
901.185	560.59
901.359	522.23
901.533	510.99
901.707	513.32
901.881	500.72
902.055	442.41
902.229	489.49
902.403	544.51
902.576	535.79
902.75	533.66
902.924	602.25
903.098	547.8
903.272	607.28
903.446	649.33
903.619	616.97
903.793	634.22
903.967	611.16
904.14	676.45
904.314	671.8
904.488	632.47
904.661	668.9
904.835	627.24
905.009	659.21
905.182	700.67
905.356	637.12
905.529	631.5
905.703	618.52
905.876	620.27
906.05	578.61
906.223	568.34
906.397	527.27
906.57	536.18
906.744	504.79
906.917	512.54
907.09	535.4
907.264	519.32
907.437	473.21
907.61	436.01
907.784	494.14
907.957	479.8
908.13	452.09
908.304	512.54
908.477	450.74
908.65	467.98
908.823	406.37
908.996	536.18
909.17	441.44
909.343	463.14
909.516	439.31
909.689	415.86
909.862	396.49
910.035	444.54
910.208	409.86
910.381	438.34
910.554	527.27
910.727	452.87
910.9	437.76
911.073	436.01
911.246	485.22
911.419	515.45
911.592	462.94
911.765	441.24
911.938	426.71
912.11	448.02
912.283	428.07
912.456	485.03
912.629	445.51
912.802	420.12
912.974	375.95
913.147	372.08
913.32	328.87
913.493	337.78
913.665	385.83
913.838	391.45
914.01	379.05
914.183	378.47
914.356	392.23
914.528	414.89
914.701	453.06
914.873	415.47
915.046	360.84
915.218	354.25
915.391	339.53
915.563	332.94
915.736	363.74
915.908	387.96
916.081	372.66
916.253	370.91
916.425	402.69
916.598	411.99
916.77	394.55
916.942	356.58
917.115	298.45
917.287	363.55
917.459	343.79
917.632	311.24
917.804	262.41
917.976	345.14
918.148	340.11
918.32	355.41
918.493	381.76
918.665	406.76
918.837	374.4
919.009	437.76
919.181	438.92
919.353	394.74
919.525	407.72
919.697	393.19
919.869	423.61
920.041	470.11
920.213	509.44
920.385	449.19
920.557	419.16
920.729	412.18
920.901	421.87
921.073	417.99
921.244	377.69
921.416	415.67
921.588	412.96
921.76	392.61
921.932	453.84
922.103	386.99
922.275	411.21
922.447	398.62
922.619	376.53
922.79	416.64
922.962	371.88
923.134	415.47
923.305	356.19
923.477	348.24
923.648	328.68
923.82	357.93
923.991	321.51
924.163	324.22
924.335	354.64
924.506	321.89
924.677	397.65
924.849	325.77
925.02	357.93
925.192	373.43
925.363	340.11
925.535	349.6
925.706	336.43
925.877	381.96
926.049	338.94
926.22	347.28
926.391	350.96
926.562	390.48
926.734	349.79
926.905	355.03
927.076	290.12
927.247	309.88
927.419	285.08
927.59	289.15
927.761	269.58
927.932	272.88
928.103	312.79
928.274	224.25
928.445	237.61
928.616	251.56
928.787	233.55
928.958	287.21
929.129	275.78
929.3	241.49
929.471	202.35
929.642	162.25
929.813	116.33
929.984	231.61
930.155	143.65
930.326	203.32
930.496	145.39
930.667	76.42
930.838	146.36
931.009	102.96
931.18	127.18
931.35	148.1
931.521	145.97
931.692	91.53
931.863	44.84
932.033	122.72
932.204	133.19
932.374	124.66
932.545	45.61
932.716	142.1
932.886	112.84
933.057	36.12
933.227	74.67
933.398	135.9
933.568	75.06
933.739	16.74
933.909	27.4
934.08	77.58
934.25	2.79
934.421	18.68
934.591	81.26
934.761	47.36
934.932	-19.88
935.102	61.3
935.272	41.35
935.443	42.9
935.613	45.81
935.783	33.21
935.953	11.71
936.123	161.47
936.294	34.76
936.464	23.91
936.634	29.92
936.804	4.34
936.974	-3.99
937.144	35.73
937.314	55.88
937.484	21.01
937.655	18.49
937.825	52.39
937.995	22.36
938.165	68.67
938.334	45.81
938.504	58.4
938.674	24.11
938.844	60.14
939.014	113.23
939.184	70.02
939.354	115.75
939.524	109.16
939.694	76.42
939.863	88.04
940.033	139.38
940.203	132.99
940.373	120.2
940.542	134.15
940.712	63.82
940.882	92.89
941.051	125.05
941.221	110.52
941.391	128.73
941.56	75.45
941.73	63.63
941.899	157.79
942.069	77
942.238	109.55
942.408	61.89
942.577	121.17
942.747	90.37
942.916	22.94
943.086	41.16
943.255	108.58
943.425	68.67
943.594	74.87
943.763	13.06
943.933	33.99
944.102	-3.99
944.271	53.17
944.441	63.63
944.61	75.25
944.779	84.55
944.948	112.45
945.117	37.28
945.287	50.26
945.456	12.29
945.625	29.72
945.794	76.61
945.963	18.29
946.132	68.67
946.301	26.24
946.47	86.88
946.639	18.29
946.808	20.23
946.977	80.87
947.146	76.22
947.315	38.25
947.484	88.04
947.653	64.02
947.822	19.07
947.991	65.95
948.16	132.99
948.329	93.47
948.498	69.25
948.666	68.47
948.835	81.65
949.004	22.17
949.173	18.29
949.341	57.43
949.51	59.17
949.679	101.22
949.847	90.75
950.016	101.41
950.185	91.34
950.353	47.16
950.522	52.78
950.69	92.3
950.859	49.68
951.028	96.57
951.196	81.07
951.365	25.27
951.533	57.04
951.701	92.89
951.87	77.77
952.038	29.34
952.207	73.32
952.375	108.19
952.543	53.17
952.712	56.27
952.88	36.12
953.048	103.15
953.217	84.17
953.385	71.19
953.553	76.22
953.721	48.71
953.89	78.74
954.058	20.23
954.226	39.22
954.394	53.94
954.562	18.29
954.73	46.39
954.898	42.9
955.067	72.35
955.235	59.17
955.403	95.4
955.571	107.03
955.739	90.75
955.907	33.41
956.075	29.92
956.243	19.84
956.41	61.5
956.578	32.82
956.746	20.04
956.914	44.45
957.082	79.52
957.25	108.97
957.418	43.48
957.585	66.34
957.753	121.75
957.921	35.34
958.089	78.16
958.256	88.62
958.424	87.27
958.592	64.02
958.759	36.12
958.927	82.04
959.095	59.37
959.262	58.98
959.43	66.73
959.597	52.97
959.765	52.97
959.932	15.39
960.1	66.34
960.267	82.23
960.435	60.14
960.602	116.52
960.77	28.76
960.937	12.09
961.104	82.62
961.272	-5.15
961.439	47.55
961.606	64.21
961.774	76.03
961.941	64.02
962.108	83.59
962.275	72.93
962.443	104.7
962.61	93.08
962.777	122.34
962.944	65.37
963.111	87.27
963.278	108.58
963.446	66.34
963.613	83
963.78	115.55
963.947	96.57
964.114	82.23
964.281	154.3
964.448	85.14
964.615	47.94
964.782	83.78
964.949	113.62
965.116	101.6
965.282	104.7
965.449	52.78
965.616	52.78
965.783	106.06
965.95	82.04
966.117	35.92
966.283	72.15
966.45	100.44
966.617	81.84
966.784	90.17
966.95	124.08
967.117	132.6
967.284	34.37
967.45	92.5
967.617	108.77
967.784	95.21
967.95	128.54
968.117	110.13
968.283	117.49
968.45	175.81
968.616	124.08
968.783	124.08
968.949	92.5
969.116	142.87
969.282	80.49
969.449	86.49
969.615	115.17
969.781	67.89
969.948	101.6
970.114	73.7
970.28	155.47
970.447	91.92
970.613	131.64
970.779	97.54
970.945	131.64
971.112	124.47
971.278	95.4
971.444	88.62
971.61	139
971.776	86.49
971.942	118.27
972.108	111.87
972.275	109.55
972.441	104.51
972.607	169.61
972.773	93.08
972.939	88.43
973.105	83.78
973.271	46.19
973.437	91.92
973.602	62.66
973.768	105.29
973.934	83.97
974.1	119.62
974.266	29.92
974.432	89.59
974.598	67.89
974.763	121.37
974.929	61.3
975.095	144.42
975.261	95.79
975.426	41.74
975.592	49.29
975.758	145.97
975.923	44.64
976.089	58.2
976.255	106.84
976.42	124.47
976.586	114.78
976.751	97.34
976.917	160.7
977.082	106.06
977.248	60.14
977.413	21.01
977.579	97.34
977.744	105.29
977.91	45.42
978.075	60.53
978.24	83
978.406	74.29
978.571	47.16
978.736	43.48
978.902	140.55
979.067	57.43
979.232	35.73
979.397	90.37
979.563	143.84
979.728	43.29
979.893	77.39
980.058	37.09
980.223	120.01
980.388	80.68
980.554	101.6
980.719	63.63
980.884	95.6
981.049	96.18
981.214	73.32
981.379	81.84
981.544	54.52
981.709	71.57
981.874	76.03
982.039	77.19
982.204	117.88
982.368	67.7
982.533	79.32
982.698	77.19
982.863	119.62
983.028	77.58
983.193	86.3
983.357	85.72
983.522	111.29
983.687	87.65
983.852	69.25
984.016	74.48
984.181	79.52
984.346	108.97
984.51	126.79
984.675	108.39
984.839	90.95
985.004	80.29
985.168	95.02
985.333	86.88
985.498	63.82
985.662	107.03
985.827	80.29
985.991	70.6
986.155	79.52
986.32	97.92
986.484	133.19
986.649	117.88
986.813	45.42
986.977	88.82
987.142	96.37
987.306	34.18
987.47	80.29
987.634	89.4
987.799	104.12
987.963	86.1
988.127	90.17
988.291	126.02
988.455	71.77
988.62	62.66
988.784	91.92
988.948	105.48
989.112	57.04
989.276	65.37
989.44	90.56
989.604	49.68
989.768	57.24
989.932	152.75
990.096	43.09
990.26	46
990.424	53.17
990.588	84.17
990.752	124.47
990.915	102.96
991.079	73.12
991.243	53.36
991.407	86.1
991.571	68.47
991.734	80.1
991.898	84.94
992.062	152.17
992.226	68.09
992.389	57.24
992.553	33.6
992.717	56.65
992.88	72.93
993.044	83.78
993.207	78.94
993.371	116.52
993.535	98.12
993.698	81.65
993.862	97.92
994.025	132.41
994.189	78.55
994.352	72.54
994.515	63.24
994.679	104.7
994.842	64.79
995.006	82.23
995.169	34.37
995.332	68.09
995.496	86.69
995.659	13.84
995.822	73.12
995.985	30.69
996.149	119.62
996.312	50.46
996.475	127.95
996.638	46.19
996.801	112.45
996.964	117.88
997.128	41.74
997.291	59.56
997.454	69.64
997.617	24.88
997.78	95.21
997.943	36.12
998.106	91.14
998.269	43.48
998.432	75.06
998.595	62.27
998.758	21.78
998.92	48.91
999.083	2.02
999.246	32.44
999.409	27.4
999.572	10.16
999.735	31.66
999.897	77.58
1000.06	40.57
1000.223	60.53
1000.386	95.21
1000.548	87.46
1000.711	71.77
1000.874	84.17
1001.036	12.48
1001.199	85.72
1001.361	47.55
1001.524	52.39
1001.687	87.07
1001.849	29.53
1002.012	60.14
1002.174	63.24
1002.337	48.71
1002.499	65.95
1002.661	88.82
1002.824	10.54
1002.986	30.31
1003.149	91.34
1003.311	22.75
1003.473	118.65
1003.636	45.03
1003.798	53.17
1003.96	69.83
1004.123	56.07
1004.285	22.36
1004.447	39.99
1004.609	48.13
1004.771	108.77
1004.933	14.42
1005.096	28.56
1005.258	-15.03
1005.42	24.11
1005.582	75.84
1005.744	60.92
1005.906	10.54
1006.068	58.4
1006.23	16.55
1006.392	-16.19
1006.554	14.22
1006.716	79.13
1006.878	57.43
1007.04	1.82
1007.202	43.48
1007.363	36.12
1007.525	54.91
1007.687	40.38
1007.849	95.4
1008.011	-10.19
1008.172	5.51
1008.334	35.54
1008.496	70.8
1008.658	7.44
1008.819	-3.02
1008.981	5.31
1009.143	17.32
1009.304	9.96
1009.466	56.07
1009.627	120.79
1009.789	123.3
1009.95	43.67
1010.112	27.79
1010.273	33.41
1010.435	2.21
1010.596	29.72
1010.758	44.06
1010.919	25.85
1011.081	11.9
1011.242	50.26
1011.403	34.76
1011.565	43.67
1011.726	57.24
1011.887	3.96
1012.049	21.59
1012.21	85.14
1012.371	89.98
1012.532	-19.1
1012.693	25.66
1012.855	31.47
1013.016	35.92
1013.177	61.5
1013.338	46.58
1013.499	95.6
1013.66	49.49
1013.821	42.9
1013.982	58.01
1014.143	24.69
1014.304	18.29
1014.465	58.01
1014.626	56.85
1014.787	36.31
1014.948	92.11
1015.109	-34.99
1015.27	66.92
1015.431	29.53
1015.592	-2.44
1015.752	62.27
1015.913	43.67
1016.074	40.19
1016.235	28.76
1016.395	21.2
1016.556	41.74
1016.717	29.92
1016.877	82.42
1017.038	18.87
1017.199	44.06
1017.359	38.06
1017.52	33.6
1017.681	35.92
1017.841	38.44
1018.002	27.01
1018.162	-2.44
1018.323	85.72
1018.483	25.85
1018.644	29.72
1018.804	-12.9
1018.964	-9.61
1019.125	35.92
1019.285	44.84
1019.446	-4.96
1019.606	4.15
1019.766	-13.09
1019.926	32.44
1020.087	43.67
1020.247	-22.59
1020.407	41.35
1020.567	72.35
1020.728	14.42
1020.888	-28.98
1021.048	14.22
1021.208	8.8
1021.368	8.8
1021.528	63.05
1021.688	48.32
1021.848	59.95
1022.008	27.4
1022.168	5.31
1022.328	26.82
1022.488	24.88
1022.648	28.95
1022.808	48.71
1022.968	28.56
1023.128	30.89
1023.288	22.94
1023.448	29.14
1023.608	42.9
1023.767	40.77
1023.927	7.64
1024.087	-10.96
1024.247	-10.77
1024.406	21.01
1024.566	-10.96
1024.726	-4.18
1024.885	4.34
1025.045	42.51
1025.205	43.67
1025.364	7.64
1025.524	21.97
1025.683	-0.11
1025.843	15.19
1026.003	31.47
1026.162	82.42
1026.321	66.34
1026.481	-1.47
1026.64	16.55
1026.8	21.39
1026.959	35.34
1027.119	35.54
1027.278	1.44
1027.437	-8.44
1027.597	7.25
1027.756	28.95
1027.915	32.63
1028.074	28.95
1028.234	0.66
1028.393	42.51
1028.552	-27.24
1028.711	-34.79
1028.87	70.22
1029.03	-19.49
1029.189	17.32
1029.348	-23.17
1029.507	12.09
1029.666	6.09
1029.825	-7.86
1029.984	-23.36
1030.143	1.82
1030.302	-0.11
1030.461	-21.43
1030.62	43.29
1030.779	26.82
1030.938	-2.44
1031.097	-8.64
1031.255	33.99
1031.414	38.25
1031.573	32.05
1031.732	-11.74
1031.891	7.44
1032.049	49.1
1032.208	17.13
1032.367	-22.01
1032.525	21.2
1032.684	5.12
1032.843	30.11
1033.001	-37.51
1033.16	142.1
1033.319	73.32
1033.477	45.03
1033.636	-18.71
1033.794	-17.16
1033.953	38.25
1034.111	45.61
1034.27	-8.44
1034.428	25.07
1034.587	-9.03
1034.745	7.44
1034.903	16.94
1035.062	22.75
1035.22	-2.44
1035.378	39.99
1035.537	-20.26
1035.695	43.09
1035.853	-34.21
1036.011	28.95
1036.17	20.04
1036.328	-21.62
1036.486	15.97
1036.644	23.72
1036.802	-68.89
1036.96	2.21
1037.119	2.6
1037.277	-26.66
1037.435	-19.68
1037.593	-22.2
1037.751	19.84
1037.909	17.71
1038.067	17.71
