Data from oakcork_FLMT105791__294__17-34-40-052.txt Node

Date: Mon Mar 20 17:34:40 GMT 2023
User: antho
Spectrometer: FLMT10579
Trigger mode: 0
Integration Time (sec): 1.000000E-1
Scans to average: 10
Electric dark correction enabled: true
Nonlinearity correction enabled: false
Boxcar width: 0
XAxis mode: Wavelengths
Number of Pixels in Spectrum: 3648
>>>>>Begin Spectral Data<<<<<
345.248	-156.61
345.464	-156.61
345.681	-156.61
345.898	-163.97
346.114	-160.87
346.331	-22.15
346.548	41.78
346.764	-5.49
346.981	-21.18
347.197	-21.57
347.414	29
347.631	-27.58
347.847	61.16
348.064	12.14
348.28	27.45
348.497	-39.98
348.713	-33.58
348.93	10.79
349.146	8.46
349.363	2.07
349.579	11.17
349.796	-20.21
350.012	-11.88
350.229	39.85
350.445	7.3
350.661	-22.93
350.878	-8.59
351.094	10.2
351.311	19.89
351.527	22.6
351.743	-3.94
351.96	4.2
352.176	57.48
352.392	25.12
352.609	44.5
352.825	-4.33
353.041	11.75
353.257	-19.25
353.474	-38.23
353.69	31.52
353.906	18.34
354.122	-28.16
354.339	32.68
354.555	9.04
354.771	4.78
354.987	70.27
355.203	55.93
355.42	-30.68
355.636	-6.46
355.852	-14.01
356.068	19.7
356.284	-25.25
356.5	52.63
356.716	22.02
356.932	-8.4
357.148	35.39
357.364	9.82
357.58	46.82
357.796	44.88
358.012	66.2
358.228	18.92
358.444	-41.33
358.66	27.25
358.876	33.84
359.092	-1.03
359.308	31.9
359.524	26.09
359.74	-23.51
359.956	-7.23
360.172	13.89
360.388	34.23
360.604	-15.18
360.819	74.92
361.035	15.05
361.251	27.64
361.467	-8.4
361.683	58.83
361.898	6.52
362.114	6.91
362.33	3.04
362.546	46.05
362.762	23.19
362.977	-4.52
363.193	-10.91
363.409	45.27
363.624	-19.83
363.84	-21.18
364.056	-19.25
364.271	14.08
364.487	5.55
364.703	-10.72
364.918	-18.66
365.134	-4.13
365.35	-1.23
365.565	97.97
365.781	25.51
365.996	53.02
366.212	32.29
366.427	16.02
366.643	-8.98
366.858	14.66
367.074	-26.61
367.289	66
367.505	60.19
367.72	-50.83
367.936	-17.31
368.151	30.74
368.367	24.35
368.582	15.44
368.798	-15.18
369.013	39.46
369.228	31.13
369.444	40.82
369.659	63.87
369.874	9.82
370.09	49.92
370.305	-45.98
370.52	5.75
370.736	42.37
370.951	23.96
371.166	49.53
371.381	59.8
371.597	29
371.812	-6.46
372.027	3.42
372.242	5.36
372.458	60.38
372.673	-8.4
372.888	12.53
373.103	27.64
373.318	104.56
373.533	30.93
373.749	18.73
373.964	-12.46
374.179	43.72
374.394	-21.18
374.609	38.49
374.824	-28.74
375.039	30.55
375.254	-26.03
375.469	87.12
375.684	9.24
375.899	65.62
376.114	-3.75
376.329	36.55
376.544	47.6
376.759	35.97
376.974	5.55
377.189	-10.91
377.404	-2
377.619	34.03
377.834	-32.61
378.049	-34.55
378.264	-15.56
378.478	6.33
378.693	5.55
378.908	59.8
379.123	-19.25
379.338	58.45
379.553	32.29
379.767	13.89
379.982	55.35
380.197	36.94
380.412	10.2
380.626	36.36
380.841	84.02
381.056	20.86
381.271	56.51
381.485	-16.73
381.7	-22.35
381.915	25.32
382.129	8.65
382.344	28.61
382.559	-9.56
382.773	34.62
382.988	9.82
383.202	8.07
383.417	-12.85
383.632	86.35
383.846	12.53
384.061	21.64
384.275	4.39
384.49	35.58
384.704	9.43
384.919	18.34
385.133	28.61
385.348	5.94
385.562	-8.2
385.777	34.42
385.991	-0.65
386.206	23.77
386.42	18.92
386.634	57.67
386.849	39.07
387.063	27.06
387.277	-9.17
387.492	-20.41
387.706	-12.08
387.92	-8.59
388.135	38.3
388.349	34.42
388.563	4.59
388.778	31.9
388.992	19.31
389.206	42.95
389.42	83.63
389.635	22.99
389.849	33.45
390.063	64.45
390.277	6.52
390.491	47.79
390.706	53.6
390.92	64.65
391.134	12.53
391.348	37.13
391.562	-10.53
391.776	4
391.99	-32.61
392.205	22.8
392.419	12.92
392.633	-16.34
392.847	78.6
393.061	1.68
393.275	85.38
393.489	3.42
393.703	34.23
393.917	62.9
394.131	29.38
394.345	43.72
394.559	41.4
394.773	6.52
394.986	35.58
395.2	27.25
395.414	44.3
395.628	-21.57
395.842	13.69
396.056	10.79
396.27	-25.83
396.484	45.08
396.697	38.49
396.911	67.17
397.125	50.89
397.339	33.07
397.553	73.37
397.766	74.53
397.98	51.47
398.194	57.87
398.408	22.22
398.621	59.8
398.835	35.39
399.049	39.07
399.262	76.66
399.476	62.52
399.69	47.79
399.903	74.33
400.117	37.13
400.331	24.35
400.544	28.8
400.758	120.45
400.971	32.29
401.185	50.89
401.398	-11.3
401.612	72.98
401.826	57.48
402.039	48.95
402.253	15.24
402.466	45.85
402.68	35.2
402.893	38.49
403.106	48.57
403.32	20.09
403.533	33.84
403.747	41.78
403.96	12.34
404.174	52.83
404.387	15.82
404.6	29.58
404.814	75.11
405.027	53.41
405.24	48.37
405.454	16.02
405.667	65.03
405.88	-26.22
406.094	53.6
406.307	74.14
406.52	49.73
406.733	4.59
406.947	12.53
407.16	66.78
407.373	60.38
407.586	0.13
407.799	11.37
408.012	88.09
408.226	75.3
408.439	82.86
408.652	5.55
408.865	50.5
409.078	80.73
409.291	45.66
409.504	1.1
409.717	52.83
409.93	55.73
410.143	49.53
410.357	-18.47
410.57	2.26
410.783	21.83
410.996	42.56
411.209	12.14
411.421	51.08
411.634	43.53
411.847	-1.42
412.06	45.47
412.273	42.75
412.486	36.94
412.699	113.86
412.912	39.27
413.125	72.78
413.338	65.62
413.55	81.5
413.763	61.16
413.976	54.57
414.189	-3.16
414.402	24.93
414.615	84.99
414.827	32.68
415.04	54.77
415.253	41.2
415.466	80.15
415.678	82.86
415.891	55.73
416.104	60
416.316	41.78
416.529	0.9
416.742	51.08
416.954	56.32
417.167	40.43
417.38	41.01
417.592	76.47
417.805	16.99
418.017	16.21
418.23	47.02
418.442	20.28
418.655	29.38
418.868	48.76
419.08	78.21
419.293	89.06
419.505	49.15
419.718	59.8
419.93	92.35
420.142	28.22
420.355	58.45
420.567	89.83
420.78	71.04
420.992	54.38
421.205	103.01
421.417	16.79
421.629	46.82
421.842	-5.68
422.054	17.57
422.266	63.68
422.479	86.35
422.691	47.02
422.903	88.87
423.115	20.09
423.328	59.42
423.54	52.63
423.752	66.58
423.964	10.98
424.177	60.58
424.389	43.33
424.601	122
424.813	28.03
425.025	88.67
425.238	59.22
425.45	58.83
425.662	50.31
425.874	296.56
426.086	57.87
426.298	82.47
426.51	57.67
426.722	71.04
426.934	15.05
427.146	40.23
427.358	0.13
427.57	63.29
427.782	42.75
427.994	52.05
428.206	24.74
428.418	23.38
428.63	74.14
428.842	76.66
429.054	62.13
429.266	58.45
429.478	24.54
429.69	74.14
429.902	25.32
430.114	67.75
430.325	46.24
430.537	17.37
430.749	60.38
430.961	22.99
431.173	16.99
431.384	57.09
431.596	10.2
431.808	26.09
432.02	63.29
432.231	85.57
432.443	126.65
432.655	87.32
432.867	0.32
433.078	55.15
433.29	124.51
433.502	67.55
433.713	95.84
433.925	63.48
434.136	85.96
434.348	11.75
434.56	-9.75
434.771	141.76
434.983	17.95
435.194	24.74
435.406	57.87
435.617	85.38
435.829	101.27
436.04	93.71
436.252	74.14
436.463	108.05
436.675	89.64
436.886	73.17
437.098	63.1
437.309	104.75
437.521	59.03
437.732	87.12
437.943	70.65
438.155	87.12
438.366	11.75
438.578	122.77
438.789	93.71
439	105.53
439.211	60.58
439.423	59.42
439.634	93.52
439.845	99.72
440.057	59.61
440.268	101.65
440.479	72.78
440.69	58.45
440.902	52.83
441.113	58.83
441.324	71.23
441.535	87.51
441.746	104.37
441.957	43.53
442.168	30.93
442.38	83.44
442.591	90.42
442.802	81.31
443.013	39.46
443.224	61.55
443.435	82.28
443.646	73.75
443.857	47.6
444.068	60.38
444.279	60.58
444.49	130.33
444.701	60.77
444.912	155.9
445.123	116.18
445.334	83.44
445.545	100.88
445.756	80.73
445.967	62.13
446.178	99.91
446.388	111.15
446.599	110.37
446.81	122.19
447.021	56.7
447.232	103.59
447.443	128.39
447.653	48.76
447.864	113.47
448.075	62.71
448.286	120.45
448.496	97.39
448.707	107.27
448.918	73.37
449.129	143.31
449.339	45.85
449.55	88.48
449.761	83.63
449.971	116.18
450.182	64.07
450.393	100.68
450.603	75.69
450.814	113.08
451.024	83.63
451.235	102.23
451.446	149.51
451.656	123.16
451.867	78.21
452.077	82.28
452.288	139.43
452.498	121.61
452.709	87.12
452.919	114.05
453.13	49.15
453.34	91.97
453.55	74.33
453.761	120.45
453.971	102.62
454.182	105.92
454.392	91.19
454.602	157.65
454.813	113.28
455.023	125.68
455.233	50.31
455.444	105.72
455.654	51.67
455.864	96.42
456.075	78.02
456.285	81.89
456.495	88.87
456.705	111.53
456.916	145.44
457.126	132.26
457.336	95.65
457.546	47.6
457.756	76.08
457.967	139.05
458.177	76.27
458.387	107.47
458.597	73.56
458.807	103.78
459.017	107.27
459.227	88.48
459.437	88.09
459.647	123.74
459.857	114.44
460.068	69.68
460.278	143.5
460.488	132.65
460.698	163.07
460.908	97.78
461.117	66.2
461.327	77.82
461.537	83.83
461.747	78.4
461.957	72.98
462.167	201.05
462.377	111.73
462.587	92.74
462.797	122.58
463.007	112.89
463.216	127.61
463.426	129.55
463.636	123.55
463.846	52.63
464.056	39.85
464.265	111.53
464.475	63.29
464.685	108.05
464.895	117.15
465.104	108.24
465.314	138.08
465.524	112.5
465.733	87.9
465.943	171.01
466.153	139.24
466.362	144.47
466.572	105.72
466.782	91.77
466.991	122.19
467.201	191.16
467.41	61.16
467.62	128.39
467.829	106.3
468.039	114.44
468.249	80.53
468.458	115.02
468.668	144.08
468.877	165.2
469.086	141.37
469.296	174.11
469.505	91.38
469.715	179.54
469.924	127.42
470.134	133.81
470.343	151.06
470.552	115.22
470.762	118.7
470.971	80.73
471.18	141.37
471.39	109.6
471.599	90.22
471.808	131.3
472.018	84.99
472.227	164.81
472.436	145.83
472.645	100.3
472.855	115.02
473.064	163.85
473.273	127.81
473.482	162.3
473.691	155.51
473.901	158.81
474.11	111.92
474.319	214.61
474.528	144.86
474.737	162.3
474.946	166.17
475.155	130.13
475.364	177.6
475.573	134.4
475.783	143.7
475.992	192.91
476.201	171.21
476.41	143.11
476.619	111.53
476.828	141.37
477.037	125.48
477.245	115.8
477.454	190.97
477.663	125.1
477.872	101.65
478.081	189.23
478.29	87.9
478.499	208.99
478.708	157.45
478.917	197.95
479.125	143.11
479.334	162.1
479.543	165.98
479.752	154.35
479.961	143.31
480.169	166.75
480.378	163.26
480.587	255.68
480.796	175.66
481.004	165.4
481.213	183.41
481.422	154.74
481.63	139.43
481.839	172.18
482.048	217.9
482.256	182.25
482.465	154.55
482.674	181.28
482.882	171.01
483.091	230.69
483.299	178.76
483.508	190.78
483.716	154.35
483.925	189.23
484.134	144.47
484.342	192.71
484.551	204.14
484.759	210.54
484.967	195.04
485.176	194.65
485.384	221.39
485.593	206.86
485.801	201.05
486.01	203.18
486.218	189.61
486.426	170.63
486.635	164.04
486.843	160.75
487.051	171.98
487.26	192.52
487.468	198.91
487.676	209.57
487.885	157.65
488.093	174.89
488.301	167.14
488.509	212.09
488.717	224.29
488.926	176.83
489.134	153.77
489.342	210.73
489.55	169.08
489.758	205.69
489.967	168.69
490.175	263.04
490.383	175.86
490.591	226.81
490.799	153
491.007	240.18
491.215	202.4
491.423	163.46
491.631	198.33
491.839	212.67
492.047	236.31
492.255	175.28
492.463	166.36
492.671	183.8
492.879	236.69
493.087	191.36
493.295	211.89
493.503	232.63
493.711	240.18
493.919	252
494.127	217.51
494.334	245.8
494.542	160.36
494.75	208.02
494.958	190.78
495.166	219.45
495.374	200.08
495.581	223.33
495.789	211.7
495.997	262.85
496.205	223.33
496.412	204.53
496.62	199.3
496.828	246.38
497.035	218.09
497.243	251.03
497.451	216.16
497.658	235.14
497.866	208.41
498.074	271.96
498.281	214.03
498.489	267.69
498.696	245.8
498.904	216.93
499.112	213.06
499.319	286.29
499.527	213.64
499.734	265.76
499.942	192.52
500.149	235.73
500.357	204.73
500.564	215.19
500.771	267.5
500.979	221.97
501.186	213.25
501.394	258.78
501.601	258.2
501.808	246.38
502.016	228.36
502.223	231.85
502.43	236.5
502.638	222.16
502.845	211.51
503.052	280.68
503.26	207.24
503.467	275.06
503.674	237.66
503.881	263.43
504.089	313.42
504.296	231.46
504.503	223.71
504.71	240.76
504.917	213.06
505.125	245.61
505.332	241.15
505.539	268.08
505.746	301.21
505.953	268.08
506.16	248.71
506.367	295.59
506.574	301.41
506.781	295.4
506.988	233.21
507.195	235.73
507.402	254.13
507.609	283.78
507.816	261.49
508.023	229.53
508.23	214.41
508.437	232.24
508.644	264.01
508.851	310.12
509.058	294.82
509.265	273.12
509.472	284.36
509.679	354.11
509.885	248.9
510.092	262.08
510.299	262.27
510.506	269.63
510.713	266.34
510.92	270.02
511.126	283.39
511.333	321.56
511.54	294.62
511.746	323.49
511.953	321.17
512.16	322.72
512.367	251.81
512.573	261.49
512.78	301.99
512.987	253.36
513.193	276.03
513.4	204.34
513.606	276.61
513.813	292.88
514.02	297.53
514.226	367.47
514.433	347.13
514.639	251.03
514.846	281.45
515.052	260.33
515.259	277.58
515.465	281.45
515.672	282.03
515.878	376.97
516.085	273.89
516.291	321.17
516.497	270.21
516.704	309.54
516.91	248.9
517.117	262.08
517.323	227.01
517.529	274.09
517.736	280.48
517.942	286.1
518.148	274.86
518.354	299.47
518.561	279.71
518.767	269.63
518.973	336.86
519.179	291.52
519.386	295.01
519.592	268.28
519.798	252.97
520.004	308.19
520.21	267.11
520.417	314.19
520.623	335.89
520.829	316.32
521.035	323.49
521.241	303.15
521.447	335.89
521.653	394.99
521.859	301.99
522.065	324.46
522.271	405.25
522.477	336.67
522.683	354.69
522.889	341.51
523.095	345.97
523.301	326.59
523.507	310.71
523.713	360.69
523.919	322.72
524.125	379.87
524.331	340.16
524.537	374.06
524.742	357.4
524.948	354.69
525.154	382.39
525.36	460.09
525.566	375.61
525.772	398.28
525.977	288.62
526.183	374.26
526.389	387.24
526.595	368.83
526.8	320.01
527.006	340.93
527.212	315.94
527.417	323.49
527.623	320.97
527.829	373.48
528.034	369.99
528.24	389.56
528.446	333.37
528.651	392.47
528.857	345.39
529.062	424.63
529.268	342.29
529.473	390.92
529.679	354.49
529.884	415.91
530.09	390.34
530.295	431.41
530.501	405.64
530.706	387.43
530.912	370.38
531.117	371.74
531.323	366.31
531.528	374.64
531.733	391.3
531.939	390.72
532.144	390.53
532.35	376.19
532.555	439.94
532.76	426.37
532.966	423.47
533.171	419.79
533.376	396.92
533.581	383.55
533.787	414.17
533.992	419.98
534.197	462.41
534.402	394.99
534.607	421.92
534.813	511.04
535.018	380.84
535.223	411.45
535.428	437.8
535.633	428.12
535.838	425.4
536.043	397.7
536.249	469.58
536.454	401.19
536.659	429.86
536.864	394.21
537.069	403.51
537.274	468.03
537.479	448.07
537.684	436.06
537.889	413.2
538.094	494.57
538.299	427.34
538.504	442.84
538.708	453.69
538.913	486.24
539.118	407.39
539.323	454.08
539.528	408.74
539.733	420.17
539.938	453.11
540.142	462.41
540.347	444.59
540.552	425.79
540.757	415.91
540.962	450.98
541.166	397.31
541.371	387.43
541.576	425.6
541.781	337.83
541.985	422.89
542.19	442.65
542.395	476.55
542.599	525.57
542.804	504.84
543.008	482.75
543.213	423.08
543.418	418.24
543.622	448.65
543.827	412.04
544.031	490.31
544.236	486.05
544.44	471.13
544.645	538.17
544.849	434.12
545.054	452.92
545.258	517.43
545.463	516.47
545.667	428.89
545.872	519.18
546.076	455.63
546.281	454.47
546.485	441.29
546.689	478.3
546.894	490.7
547.098	465.12
547.302	393.63
547.507	464.74
547.711	466.48
547.915	504.45
548.119	433.35
548.324	461.83
548.528	523.25
548.732	455.63
548.936	489.34
549.141	485.08
549.345	470.93
549.549	468.61
549.753	448.65
549.957	542.82
550.161	513.56
550.366	483.92
550.57	455.82
550.774	458.54
550.978	459.31
551.182	473.45
551.386	442.07
551.59	468.42
551.794	450.2
551.998	481.78
552.202	471.9
552.406	413.97
552.61	461.64
552.814	479.07
553.018	492.05
553.222	473.45
553.426	457.76
553.63	544.37
553.833	450.2
554.037	394.79
554.241	492.63
554.445	469.19
554.649	443.81
554.853	450.4
555.056	472.68
555.26	494.57
555.464	485.85
555.668	482.75
555.871	500.19
556.075	513.75
556.279	447.69
556.483	431.22
556.686	476.36
556.89	455.63
557.094	489.92
557.297	419.2
557.501	479.27
557.704	408.74
557.908	512.01
558.112	451.95
558.315	489.53
558.519	452.92
558.722	462.22
558.926	458.92
559.129	432.38
559.333	405.45
559.536	422.5
559.74	411.65
559.943	404.09
560.147	412.81
560.35	440.52
560.553	413.97
560.757	367.67
560.96	518.98
561.164	425.79
561.367	509.49
561.57	413
561.774	467.25
561.977	446.91
562.18	423.08
562.384	491.28
562.587	440.13
562.79	440.52
562.993	423.47
563.197	455.63
563.4	517.05
563.603	465.12
563.806	507.55
564.009	411.26
564.212	461.44
564.416	376.58
564.619	451.17
564.822	410.29
565.025	453.3
565.228	423.85
565.431	446.72
565.634	340.54
565.837	412.81
566.04	407.97
566.243	407.77
566.446	351.78
566.649	431.02
566.852	359.72
567.055	405.25
567.258	432.57
567.461	496.51
567.664	453.11
567.867	354.49
568.07	440.9
568.273	408.16
568.475	453.89
568.678	393.24
568.881	414.75
569.084	440.71
569.287	338.02
569.489	394.99
569.692	407.97
569.895	419.01
570.098	376.39
570.3	376.97
570.503	321.75
570.706	382.78
570.909	358.76
571.111	322.33
571.314	338.41
571.516	393.05
571.719	360.11
571.922	355.46
572.124	304.89
572.327	364.57
572.529	318.07
572.732	314.77
572.935	370.38
573.137	412.04
573.34	327.17
573.542	370.57
573.745	369.99
573.947	343.45
574.15	355.66
574.352	314.39
574.554	394.21
574.757	303.54
574.959	331.44
575.162	315.36
575.364	351.2
575.566	418.04
575.769	330.86
575.971	349.07
576.173	270.41
576.376	358.95
576.578	418.82
576.78	400.99
576.982	272.34
577.185	321.94
577.387	296.56
577.589	281.64
577.791	362.82
577.993	321.56
578.196	348.29
578.398	359.72
578.6	360.69
578.802	271.18
579.004	301.21
579.206	299.47
579.408	324.46
579.61	286.29
579.812	372.12
580.014	299.86
580.216	322.91
580.418	314.58
580.62	301.99
580.822	271.57
581.024	331.44
581.226	363.21
581.428	299.86
581.63	340.74
581.832	288.62
582.034	343.84
582.236	316.91
582.438	330.08
582.64	358.95
582.841	362.05
583.043	383.75
583.245	352.75
583.447	338.02
583.649	340.74
583.85	353.33
584.052	376.58
584.254	311.87
584.456	366.89
584.657	295.98
584.859	342.09
585.061	306.06
585.262	277.77
585.464	304.51
585.666	361.27
585.867	315.94
586.069	398.09
586.27	352.56
586.472	306.06
586.674	308.77
586.875	314.77
587.077	312.45
587.278	345.58
587.48	311.48
587.681	405.45
587.883	335.7
588.084	294.62
588.285	305.67
588.487	310.71
588.688	307.22
588.89	283.39
589.091	282.23
589.292	298.5
589.494	282.61
589.695	281.45
589.896	246.96
590.098	241.34
590.299	302.96
590.5	263.43
590.702	255.29
590.903	305.28
591.104	331.63
591.305	292.11
591.507	357.98
591.708	300.44
591.909	282.42
592.11	370.96
592.311	322.33
592.512	304.89
592.714	257.23
592.915	276.22
593.116	246.38
593.317	291.72
593.518	263.43
593.719	289.01
593.92	307.02
594.121	339.57
594.322	288.04
594.523	307.22
594.724	252.58
594.925	284.74
595.126	279.9
595.327	324.85
595.528	276.8
595.729	312.45
595.929	274.86
596.13	283.58
596.331	289.59
596.532	278.16
596.733	321.17
596.934	349.65
597.135	316.91
597.335	309.74
597.536	272.93
597.737	305.47
597.938	272.93
598.138	291.52
598.339	286.68
598.54	307.22
598.74	278.16
598.941	294.04
599.142	336.67
599.342	286.68
599.543	291.72
599.744	304.12
599.944	263.82
600.145	284.55
600.345	295.79
600.546	340.16
600.746	309.74
600.947	371.54
601.147	302.37
601.348	323.3
601.548	265.18
601.749	298.69
601.949	239.6
602.15	266.14
602.35	305.86
602.551	336.86
602.751	276.61
602.951	267.69
603.152	222.74
603.352	307.8
603.552	290.75
603.753	315.94
603.953	334.15
604.153	296.17
604.354	272.54
604.554	286.29
604.754	262.27
604.954	227.59
605.155	306.64
605.355	292.88
605.555	283.58
605.755	351.97
605.955	294.82
606.155	318.07
606.356	295.4
606.556	295.59
606.756	304.12
606.956	246.19
607.156	356.24
607.356	272.73
607.556	310.71
607.756	317.68
607.956	319.23
608.156	285.52
608.356	279.51
608.556	318.65
608.756	285.33
608.956	265.37
609.156	266.53
609.356	250.06
609.556	263.82
609.755	278.74
609.955	277.77
610.155	289.59
610.355	284.55
610.555	279.9
610.755	262.46
610.954	223.71
611.154	265.18
611.354	308.57
611.554	261.88
611.753	264.79
611.953	235.53
612.153	302.18
612.352	314
612.552	227.2
612.752	209.57
612.951	261.88
613.151	268.47
613.351	235.92
613.55	278.16
613.75	293.07
613.949	267.89
614.149	264.98
614.348	264.98
614.548	252.19
614.747	209.38
614.947	250.26
615.146	208.6
615.346	285.33
615.545	264.01
615.745	279.13
615.944	323.11
616.144	238.05
616.343	297.53
616.542	259.75
616.742	284.55
616.941	258.01
617.14	210.54
617.34	259.94
617.539	258.39
617.738	219.06
617.938	296.95
618.137	254.91
618.336	211.12
618.535	277.58
618.734	228.17
618.934	271.96
619.133	228.17
619.332	287.65
619.531	224.29
619.73	253.94
619.929	263.04
620.128	248.9
620.328	300.24
620.527	216.35
620.726	203.37
620.925	258.01
621.124	263.24
621.323	246.19
621.522	238.44
621.721	211.12
621.92	205.11
622.119	306.64
622.318	217.32
622.517	234.56
622.715	228.56
622.914	181.86
623.113	219.84
623.312	210.15
623.511	248.32
623.71	214.22
623.909	227.2
624.107	282.81
624.306	210.34
624.505	209.96
624.704	211.12
624.902	221.19
625.101	290.17
625.3	267.5
625.499	216.35
625.697	208.02
625.896	206.47
626.095	259.17
626.293	199.69
626.492	233.4
626.69	246.58
626.889	193.88
627.088	256.07
627.286	184.77
627.485	209.76
627.683	213.44
627.882	236.31
628.08	150.28
628.279	191.55
628.477	277.19
628.676	218.29
628.874	226.62
629.073	188.45
629.271	212.86
629.469	212.09
629.668	226.23
629.866	228.94
630.065	210.93
630.263	227.01
630.461	231.27
630.66	214.61
630.858	245.61
631.056	246.77
631.254	262.46
631.453	188.26
631.651	242.51
631.849	240.76
632.047	249.68
632.245	221.78
632.444	225.84
632.642	209.96
632.84	236.31
633.038	208.41
633.236	199.11
633.434	162.49
633.632	175.66
633.83	192.52
634.028	217.32
634.227	229.72
634.425	252.78
634.623	208.99
634.821	223.33
635.019	169.27
635.216	199.3
635.414	238.05
635.612	212.28
635.81	200.85
636.008	246.19
636.206	209.38
636.404	257.62
636.602	161.52
636.8	208.79
636.997	213.06
637.195	239.41
637.393	218.68
637.591	257.81
637.789	210.73
637.986	175.47
638.184	221.39
638.382	243.28
638.58	244.44
638.777	265.37
638.975	208.79
639.173	211.12
639.37	219.64
639.568	222.94
639.765	257.04
639.963	192.33
640.161	263.63
640.358	229.14
640.556	207.63
640.753	171.21
640.951	171.6
641.148	206.08
641.346	195.81
641.543	215.19
641.741	216.93
641.938	201.43
642.136	226.81
642.333	185.93
642.531	237.66
642.728	257.81
642.925	208.99
643.123	191.36
643.32	184.96
643.517	203.56
643.715	229.14
643.912	190.2
644.109	202.6
644.306	232.43
644.504	188.45
644.701	234.18
644.898	232.82
645.095	187.87
645.293	199.11
645.49	219.06
645.687	212.28
645.884	240.18
646.081	173.34
646.278	196.01
646.475	183.03
646.672	200.46
646.87	226.62
647.067	225.26
647.264	201.43
647.461	189.03
647.658	151.64
647.855	246.96
648.052	187.87
648.249	130.91
648.446	171.6
648.642	178.18
648.839	158.42
649.036	147.96
649.233	159
649.43	155.32
649.627	133.62
649.824	186.32
650.021	164.43
650.217	145.44
650.414	159.78
650.611	199.3
650.808	202.98
651.004	207.05
651.201	202.01
651.398	227.2
651.595	181.67
651.791	203.56
651.988	199.69
652.185	184.77
652.381	193.49
652.578	132.46
652.775	164.23
652.971	164.04
653.168	192.33
653.364	190.78
653.561	118.12
653.757	184.58
653.954	192.71
654.15	146.02
654.347	218.09
654.543	196.01
654.74	161.13
654.936	143.5
655.133	154.93
655.329	194.26
655.525	194.65
655.722	192.13
655.918	153.38
656.115	202.01
656.311	134.98
656.507	127.61
656.704	98.94
656.9	138.27
657.096	110.18
657.292	146.6
657.489	198.33
657.685	168.11
657.881	148.35
658.077	153.96
658.273	149.7
658.47	193.88
658.666	160.75
658.862	183.61
659.058	159.39
659.254	199.88
659.45	128.39
659.646	169.27
659.842	149.31
660.038	195.04
660.234	118.51
660.43	138.08
660.626	222.74
660.822	194.46
661.018	193.49
661.214	181.67
661.41	119.86
661.606	179.93
661.802	176.83
661.998	151.83
662.194	151.83
662.39	192.91
662.586	180.51
662.781	165.78
662.977	178.96
663.173	209.57
663.369	193.88
663.564	181.86
663.76	177.41
663.956	146.02
664.152	216.93
664.347	105.14
664.543	138.85
664.739	161.33
664.934	123.93
665.13	98.17
665.326	186.13
665.521	190.39
665.717	134.01
665.912	113.28
666.108	114.63
666.304	168.88
666.499	157.65
666.695	85.18
666.89	140.4
667.086	191.94
667.281	154.74
667.477	236.11
667.672	157.26
667.867	131.3
668.063	171.79
668.258	135.56
668.454	150.28
668.649	243.28
668.844	157.26
669.04	180.12
669.235	140.21
669.43	133.43
669.626	121.41
669.821	170.82
670.016	111.92
670.211	169.46
670.407	92.16
670.602	127.23
670.797	175.08
670.992	192.33
671.187	125.87
671.382	161.91
671.578	148.35
671.773	165.2
671.968	138.27
672.163	152.61
672.358	181.48
672.553	142.34
672.748	134.2
672.943	220.03
673.138	149.31
673.333	176.83
673.528	122.19
673.723	163.46
673.918	146.8
674.113	102.43
674.308	197.56
674.503	182.64
674.698	173.34
674.892	132.46
675.087	187.1
675.282	164.23
675.477	129.36
675.672	186.51
675.867	142.92
676.061	117.73
676.256	92.74
676.451	133.43
676.646	144.28
676.84	138.66
677.035	106.11
677.23	111.53
677.424	138.46
677.619	169.85
677.814	155.32
678.008	197.17
678.203	85.57
678.397	127.23
678.592	158.61
678.787	187.48
678.981	142.34
679.176	136.14
679.37	137.11
679.565	114.63
679.759	126.45
679.954	151.06
680.148	193.1
680.342	169.46
680.537	167.14
680.731	120.06
680.926	178.96
681.12	168.11
681.314	149.51
681.509	132.46
681.703	146.41
681.897	162.68
682.092	121.03
682.286	110.37
682.48	214.99
682.674	193.68
682.869	136.72
683.063	148.93
683.257	213.25
683.451	142.34
683.645	157.84
683.839	165.4
684.034	115.22
684.228	179.93
684.422	126.26
684.616	114.44
684.81	148.73
685.004	135.17
685.198	131.68
685.392	204.53
685.586	125.29
685.78	146.21
685.974	192.33
686.168	168.3
686.362	187.1
686.556	121.8
686.75	132.26
686.944	149.12
687.138	159.39
687.331	109.6
687.525	128.97
687.719	83.25
687.913	126.06
688.107	128.2
688.301	96.62
688.494	140.4
688.688	95.07
688.882	67.94
689.076	72.01
689.269	146.21
689.463	210.34
689.657	115.6
689.85	106.88
690.044	109.6
690.238	93.71
690.431	125.29
690.625	113.86
690.818	126.84
691.012	129.55
691.205	124.9
691.399	98.55
691.593	125.87
691.786	182.25
691.98	170.82
692.173	170.05
692.366	152.41
692.56	138.66
692.753	203.18
692.947	100.3
693.14	189.61
693.333	165.4
693.527	103.59
693.72	147.96
693.914	151.45
694.107	120.45
694.3	152.41
694.493	134.78
694.687	186.71
694.88	135.75
695.073	204.14
695.266	153.19
695.46	176.25
695.653	173.73
695.846	201.82
696.039	100.1
696.232	144.86
696.425	188.45
696.618	181.86
696.812	163.26
697.005	214.22
697.198	240.18
697.391	213.06
697.584	193.68
697.777	236.31
697.97	214.99
698.163	208.21
698.356	184.77
698.549	266.53
698.742	234.18
698.935	188.45
699.127	248.51
699.32	197.75
699.513	206.08
699.706	226.23
699.899	220.42
700.092	222.36
700.285	242.51
700.477	180.9
700.67	258.78
700.863	236.5
701.056	309.54
701.248	256.84
701.441	277.77
701.634	225.07
701.826	325.62
702.019	240.38
702.212	298.89
702.404	220.03
702.597	234.56
702.79	239.6
702.982	273.31
703.175	309.16
703.367	314.58
703.56	284.94
703.752	349.46
703.945	294.82
704.137	310.71
704.33	305.09
704.522	306.25
704.715	322.14
704.907	317.1
705.1	358.37
705.292	340.35
705.484	346.16
705.677	357.98
705.869	355.85
706.061	376.97
706.254	386.65
706.446	346.36
706.638	338.61
706.831	407.39
707.023	371.35
707.215	404.87
707.407	414.55
707.599	382
707.792	417.07
707.984	390.34
708.176	407
708.368	368.83
708.56	415.33
708.752	383.94
708.944	392.85
709.136	413.2
709.329	388.59
709.521	490.31
709.713	444.59
709.905	441.87
710.097	502.32
710.289	450.59
710.481	452.34
710.672	468.03
710.864	458.92
711.056	510.27
711.248	501.74
711.44	479.46
711.632	444
711.824	485.08
712.016	542.04
712.207	514.53
712.399	508.72
712.591	578.08
712.783	531.58
712.975	578.46
713.166	502.71
713.358	503.29
713.55	574.4
713.741	567.61
713.933	550.37
714.125	561.03
714.316	545.72
714.508	606.36
714.7	589.51
714.891	630
715.083	635.81
715.274	602.1
715.466	608.11
715.657	639.11
715.849	570.52
716.04	615.86
716.232	551.73
716.423	630.2
716.615	580.21
716.806	630.58
716.998	585.63
717.189	576.72
717.381	488.95
717.572	519.76
717.763	569.55
717.955	547.47
718.146	529.64
718.337	478.49
718.528	490.5
718.72	457.95
718.911	548.24
719.102	500.58
719.293	561.61
719.485	505.23
719.676	510.27
719.867	494.77
720.058	501.35
720.249	518.6
720.44	520.34
720.632	543.78
720.823	551.92
721.014	608.69
721.205	617.8
721.396	640.66
721.587	677.28
721.778	686.38
721.969	652.09
722.16	721.26
722.351	674.95
722.542	775.12
722.733	768.53
722.924	696.46
723.115	788.68
723.305	783.64
723.496	784.22
723.687	685.61
723.878	715.83
724.069	746.25
724.26	736.76
724.45	691.61
724.641	709.63
724.832	760.97
725.023	743.73
725.213	701.11
725.404	709.63
725.595	739.47
725.785	716.22
725.976	746.06
726.167	746.64
726.357	735.79
726.548	818.32
726.739	773.76
726.929	824.72
727.12	830.34
727.31	824.33
727.501	815.42
727.691	833.44
727.882	825.88
728.072	860.37
728.263	818.52
728.453	883.23
728.644	861.34
728.834	880.32
729.024	825.69
729.215	876.45
729.405	870.05
729.596	927.98
729.786	948.33
729.976	937.48
730.167	908.42
730.357	898.15
730.547	908.61
730.737	941.93
730.928	969.25
731.118	1012.85
731.308	992.11
731.498	948.91
731.688	1013.81
731.879	991.34
732.069	1022.73
732.259	1048.69
732.449	1062.06
732.639	1126.96
732.829	1096.93
733.019	1143.43
733.209	1167.07
733.399	1158.35
733.589	1201.17
733.779	1199.04
733.969	1163.97
734.159	1222.67
734.349	1264.33
734.539	1279.83
734.729	1230.62
734.919	1317.03
735.109	1308.5
735.299	1295.91
735.488	1302.3
735.678	1308.89
735.868	1318.97
736.058	1321.49
736.248	1292.23
736.437	1274.6
736.627	1269.75
736.817	1377.28
737.007	1329.82
737.196	1374.96
737.386	1337.57
737.576	1331.37
737.765	1401.7
737.955	1354.62
738.144	1409.25
738.334	1413.52
738.524	1361.98
738.713	1438.51
738.903	1398.79
739.092	1435.41
739.282	1432.31
739.471	1439.09
739.661	1415.65
739.85	1455.17
740.04	1462.73
740.229	1461.56
740.419	1488.88
740.608	1525.11
740.797	1459.24
740.987	1535.58
741.176	1533.64
741.365	1513.49
741.555	1430.56
741.744	1528.02
741.933	1520.27
742.123	1529.57
742.312	1530.34
742.501	1599.13
742.69	1578.39
742.88	1503.03
743.069	1591.57
743.258	1559.6
743.447	1614.43
743.636	1602.81
743.825	1565.99
744.014	1595.83
744.204	1590.79
744.393	1570.45
744.582	1633.42
744.771	1667.91
744.96	1595.06
745.149	1606.49
745.338	1580.72
745.527	1612.88
745.716	1630.32
745.905	1623.92
746.094	1635.16
746.283	1656.09
746.471	1691.54
746.66	1683.21
746.849	1671.39
747.038	1699.87
747.227	1656.09
747.416	1669.65
747.604	1658.41
747.793	1636.13
747.982	1665
748.171	1639.62
748.359	1688.44
748.548	1681.27
748.737	1671.01
748.926	1666.36
749.114	1594.09
749.303	1673.91
749.491	1677.21
749.68	1633.42
749.869	1700.65
750.057	1600.29
750.246	1637.49
750.434	1649.5
750.623	1635.55
750.811	1640.78
751	1687.47
751.188	1682.44
751.377	1686.51
751.565	1680.89
751.754	1621.79
751.942	1597.96
752.131	1660.54
752.319	1625.47
752.507	1597.77
752.696	1683.02
752.884	1665.97
753.072	1633.03
753.261	1640.78
753.449	1658.41
753.637	1642.33
753.825	1722.35
754.014	1581.49
754.202	1623.92
754.39	1695.22
754.578	1690.38
754.766	1646.98
754.955	1638.26
755.143	1724.87
755.331	1629.54
755.519	1623.73
755.707	1648.14
755.895	1635.16
756.083	1643.69
756.271	1582.85
756.459	1633.61
756.647	1661.12
756.835	1622.57
757.023	1613.85
757.211	1625.67
757.399	1611.33
757.587	1628.96
757.775	1586.53
757.963	1616.56
758.151	1617.34
758.339	1565.03
758.526	1589.24
758.714	1593.12
758.902	1544.1
759.09	1532.67
759.278	1415.26
759.465	1284.29
759.653	1092.28
759.841	1062.64
760.028	847
760.216	728.81
760.404	766.79
760.591	614.7
760.779	479.46
760.967	404.48
761.154	340.74
761.342	359.53
761.529	361.27
761.717	407.39
761.905	372.9
762.092	433.54
762.28	398.86
762.467	369.61
762.655	329.69
762.842	358.76
763.029	374.06
763.217	377.16
763.404	390.34
763.592	364.96
763.779	340.93
763.966	389.17
764.154	418.43
764.341	418.24
764.528	440.13
764.716	486.63
764.903	468.8
765.09	506.97
765.277	564.71
765.465	629.61
765.652	666.43
765.839	684.44
766.026	790.42
766.213	773.37
766.4	819.29
766.588	958.21
766.775	927.4
766.962	974.1
767.149	1007.81
767.336	1127.93
767.523	1064.77
767.71	1143.04
767.897	1208.92
768.084	1245.54
768.271	1238.17
768.458	1306.57
768.645	1299.59
768.832	1267.24
769.019	1279.44
769.206	1338.73
769.392	1397.24
769.579	1438.9
769.766	1417
769.953	1398.98
770.14	1442.77
770.327	1415.26
770.513	1466.8
770.7	1516.01
770.887	1413.13
771.073	1471.25
771.26	1413.32
771.447	1424.37
771.634	1426.88
771.82	1521.82
772.007	1452.85
772.193	1499.54
772.38	1510.78
772.567	1448.97
772.753	1468.54
772.94	1503.61
773.126	1466.41
773.313	1480.75
773.499	1515.04
773.686	1485.59
773.872	1455.56
774.059	1469.31
774.245	1425.33
774.432	1435.6
774.618	1418.75
774.804	1425.33
774.991	1406.93
775.177	1495.28
775.363	1447.81
775.55	1472.22
775.736	1427.85
775.922	1403.63
776.109	1461.18
776.295	1442.96
776.481	1446.06
776.667	1469.51
776.853	1386.58
777.04	1427.08
777.226	1423.4
777.412	1515.43
777.598	1392.98
777.784	1379.8
777.97	1383.1
778.156	1433.08
778.342	1425.53
778.528	1371.28
778.715	1338.73
778.901	1370.31
779.087	1393.17
779.272	1392.59
779.458	1361.4
779.644	1420.49
779.83	1351.32
780.016	1484.62
780.202	1401.5
780.388	1312.57
780.574	1311.99
780.76	1379.03
780.946	1380.19
781.131	1366.82
781.317	1328.85
781.503	1337.57
781.689	1325.75
781.874	1441.41
782.06	1360.82
782.246	1372.44
782.432	1335.44
782.617	1367.79
782.803	1381.35
782.989	1299.59
783.174	1330.2
783.36	1294.36
783.545	1336.21
783.731	1340.67
783.916	1261.62
784.102	1321.49
784.288	1271.5
784.473	1333.89
784.659	1324
784.844	1319.55
785.029	1289.52
785.215	1272.08
785.4	1251.54
785.586	1329.62
785.771	1264.14
785.956	1303.08
786.142	1283.12
786.327	1255.8
786.512	1265.1
786.698	1249.41
786.883	1216.86
787.068	1249.22
787.254	1259.87
787.439	1246.51
787.624	1232.17
787.809	1259.87
787.994	1248.06
788.18	1317.61
788.365	1205.43
788.55	1225.97
788.735	1208.92
788.92	1209.89
789.105	1212.41
789.29	1239.34
789.475	1186.06
789.66	1192.26
789.845	1168.62
790.03	1162.23
790.215	1187.8
790.4	1274.02
790.585	1255.22
790.77	1200.2
790.955	1105.84
791.14	1180.82
791.325	1223.06
791.51	1103.52
791.695	1150.21
791.879	1151.76
792.064	1121.15
792.249	1229.46
792.434	1165.52
792.618	1166.87
792.803	1187.61
792.988	1145.76
793.173	1150.6
793.357	1191.87
793.542	1122.89
793.727	1166.1
793.911	1183.34
794.096	1129.09
794.281	1184.51
794.465	1218.8
794.65	1185.86
794.834	1197.49
795.019	1233.91
795.203	1188.57
795.388	1200.97
795.572	1229.65
795.757	1199.81
795.941	1218.02
796.126	1176.37
796.31	1104.68
796.494	1194.19
796.679	1152.54
796.863	1166.1
797.048	1219.57
797.232	1191.67
797.416	1179.27
797.601	1149.44
797.785	1205.24
797.969	1225.39
798.153	1159.9
798.338	1185.67
798.522	1185.28
798.706	1213.96
798.89	1185.67
799.074	1261.04
799.258	1234.3
799.443	1217.64
799.627	1204.85
799.811	1206.4
799.995	1207.17
800.179	1203.49
800.363	1167.46
800.547	1196.13
800.731	1220.54
800.915	1136.84
801.099	1154.67
801.283	1178.89
801.467	1186.25
801.651	1168.04
801.835	1209.11
802.019	1159.9
802.202	1181.99
802.386	1129.09
802.57	1181.41
802.754	1170.17
802.938	1114.56
803.121	1173.27
803.305	1226.74
803.489	1147.31
803.673	1214.92
803.856	1166.1
804.04	1183.92
804.224	1168.23
804.407	1195.74
804.591	1143.43
804.775	1190.9
804.958	1203.69
805.142	1271.89
805.326	1196.13
805.509	1197.29
805.693	1187.22
805.876	1243.99
806.06	1206.01
806.243	1228.1
806.427	1216.67
806.61	1238.76
806.794	1183.73
806.977	1209.69
807.16	1197.49
807.344	1186.25
807.527	1198.46
807.71	1146.92
807.894	1174.04
808.077	1228.68
808.26	1166.29
808.444	1148.86
808.627	1200.78
808.81	1170.17
808.993	1154.28
809.177	1133.36
809.36	1163.19
809.543	1198.07
809.726	1070.2
809.909	1117.47
810.092	1121.34
810.276	1108.17
810.459	1120.57
810.642	1092.28
810.825	1073.3
811.008	1108.36
811.191	1039.2
811.374	1023.7
811.557	1056.05
811.74	1132.58
811.923	998.9
812.106	1005.68
812.289	978.55
812.472	1013.04
812.654	1030.86
812.837	978.55
813.02	1002.96
813.203	964.6
813.386	880.52
813.569	921.2
813.751	894.08
813.934	905.32
814.117	892.53
814.3	855.72
814.482	851.45
814.665	835.95
814.848	824.72
815.03	777.25
815.213	790.62
815.396	774.73
815.578	776.28
815.761	755.36
815.943	800.31
816.126	749.93
816.309	724.16
816.491	695.88
816.674	678.63
816.856	713.12
817.039	705.37
817.221	772.02
817.403	716.22
817.586	710.79
817.768	724.36
817.951	661.97
818.133	667.39
818.315	694.91
818.498	701.88
818.68	783.64
818.862	705.76
819.045	732.3
819.227	745.28
819.409	692.58
819.591	771.05
819.774	747.61
819.956	689.09
820.138	791.39
820.32	760.2
820.502	760.59
820.684	812.32
820.866	790.42
821.048	827.62
821.231	825.49
821.413	842.93
821.595	815.8
821.777	806.51
821.959	791.39
822.141	872.38
822.323	763.49
822.505	744.51
822.686	737.92
822.868	723.19
823.05	650.15
823.232	668.17
823.414	580.6
823.596	664.68
823.778	658.09
823.96	659.26
824.141	664.1
824.323	656.35
824.505	706.73
824.687	729.78
824.868	712.34
825.05	834.02
825.232	815.8
825.413	847.77
825.595	829.95
825.777	766.98
825.958	811.16
826.14	784.42
826.321	809.61
826.503	780.16
826.685	814.26
826.866	836.34
827.048	807.86
827.229	771.63
827.411	766.21
827.592	736.56
827.773	770.86
827.955	691.81
828.136	724.55
828.318	702.08
828.499	758.65
828.68	690.45
828.862	732.3
829.043	740.82
829.224	724.74
829.406	697.04
829.587	705.18
829.768	701.11
829.949	721.06
830.131	706.73
830.312	744.51
830.493	720.09
830.674	732.11
830.855	729.39
831.036	714.09
831.218	745.67
831.399	793.33
831.58	726.29
831.761	723.97
831.942	723.19
832.123	708.86
832.304	703.63
832.485	695.49
832.666	716.22
832.847	724.36
833.028	715.44
833.209	727.26
833.389	710.02
833.57	675.53
833.751	695.29
833.932	750.71
834.113	713.89
834.294	716.61
834.475	750.12
834.655	741.6
834.836	736.76
835.017	750.9
835.198	671.66
835.378	709.24
835.559	763.3
835.74	706.14
835.92	721.26
836.101	714.67
836.281	745.47
836.462	728.42
836.643	768.14
836.823	775.31
837.004	766.01
837.184	790.42
837.365	784.42
837.545	773.96
837.726	766.79
837.906	792.94
838.087	732.11
838.267	772.41
838.448	709.83
838.628	766.79
838.808	750.71
838.989	820.07
839.169	699.36
839.349	784.81
839.53	778.99
839.71	780.54
839.89	710.79
840.07	829.17
840.251	725.71
840.431	784.61
840.611	784.03
840.791	719.71
840.971	732.49
841.151	756.32
841.332	717.58
841.512	796.24
841.692	725.13
841.872	756.91
842.052	715.44
842.232	767.17
842.412	690.84
842.592	736.95
842.772	738.31
842.952	731.91
843.132	725.13
843.312	722.03
843.492	713.12
843.672	786.94
843.851	692.19
844.031	746.64
844.211	729.59
844.391	745.47
844.571	763.3
844.751	755.16
844.93	766.79
845.11	703.63
845.29	758.65
845.47	759.42
845.649	692.39
845.829	767.17
846.009	729.2
846.188	714.48
846.368	732.3
846.547	731.91
846.727	786.16
846.907	688.71
847.086	724.55
847.266	744.12
847.445	750.51
847.625	695.88
847.804	700.72
847.984	705.18
848.163	686.77
848.343	704.01
848.522	711.18
848.701	744.51
848.881	688.71
849.06	704.98
849.239	758.46
849.419	743.73
849.598	669.72
849.777	693.74
849.957	686.38
850.136	624.77
850.315	620.9
850.494	632.13
850.674	616.25
850.853	698.59
851.032	660.42
851.211	714.48
851.39	687.35
851.569	635.62
851.748	640.66
851.927	689.48
852.107	686.58
852.286	649.38
852.465	626.9
852.644	669.33
852.823	666.04
853.002	648.02
853.181	664.29
853.359	663.91
853.538	630.58
853.717	710.41
853.896	599.2
854.075	588.35
854.254	593.77
854.433	555.41
854.611	594.93
854.79	557.93
854.969	605.01
855.148	600.94
855.327	546.11
855.505	616.25
855.684	576.91
855.863	617.99
856.041	580.79
856.22	599
856.399	564.9
856.577	644.34
856.756	596.87
856.934	721.45
857.113	725.52
857.291	614.5
857.47	603.07
857.648	634.07
857.827	637.56
858.005	660.03
858.184	639.5
858.362	677.47
858.541	621.67
858.719	622.64
858.898	613.15
859.076	619.54
859.254	663.71
859.433	612.37
859.611	598.03
859.789	578.85
859.967	647.44
860.146	687.93
860.324	603.46
860.502	614.7
860.68	574.2
860.859	610.43
861.037	609.85
861.215	642.4
861.393	649.76
861.571	611.21
861.749	590.09
861.927	593.77
862.105	612.76
862.283	578.66
862.461	562.77
862.639	559.86
862.817	591.45
862.995	599.78
863.173	567.42
863.351	587.96
863.529	608.3
863.707	643.37
863.885	607.14
864.063	525.96
864.241	540.49
864.418	623.41
864.596	551.73
864.774	550.76
864.952	569.55
865.129	635.23
865.307	552.89
865.485	519.57
865.663	601.91
865.84	528.87
866.018	569.36
866.196	452.92
866.373	511.23
866.551	476.55
866.728	423.66
866.906	519.18
867.084	531.97
867.261	532.16
867.439	517.05
867.616	586.41
867.794	533.13
867.971	527.32
868.149	559.86
868.326	574.01
868.503	576.91
868.681	546.3
868.858	531.38
869.035	488.18
869.213	562.19
869.39	539.13
869.567	610.82
869.745	515.11
869.922	528.09
870.099	542.04
870.276	553.28
870.454	571.1
870.631	542.43
870.808	510.65
870.985	546.5
871.162	583.31
871.339	545.14
871.517	520.73
871.694	505.62
871.871	506.39
872.048	548.24
872.225	490.12
872.402	565.48
872.579	498.06
872.756	548.43
872.933	472.48
873.11	491.47
873.287	520.15
873.463	497.09
873.64	494.38
873.817	536.62
873.994	497.09
874.171	452.14
874.348	561.22
874.524	458.15
874.701	514.72
874.878	465.32
875.055	513.75
875.231	506.58
875.408	532.74
875.585	469.58
875.762	500.77
875.938	463.96
876.115	493.02
876.291	499.42
876.468	470.35
876.645	448.27
876.821	457.37
876.998	457.37
877.174	489.15
877.351	495.54
877.527	465.32
877.704	489.73
877.88	491.47
878.057	461.25
878.233	531.19
878.409	469.97
878.586	505.62
878.762	478.88
878.938	456.4
879.115	402.35
879.291	477.13
879.467	428.31
879.644	458.15
879.82	478.88
879.996	452.92
880.172	386.27
880.349	465.7
880.525	483.53
880.701	434.32
880.877	425.4
881.053	456.02
881.229	457.57
881.405	469.97
881.581	419.98
881.757	461.05
881.933	444.39
882.109	501.16
882.285	437.03
882.461	406.8
882.637	453.5
882.813	401.19
882.989	443.62
883.165	493.6
883.341	422.69
883.517	468.61
883.693	446.33
883.869	474.62
884.044	416.88
884.22	475.2
884.396	501.93
884.572	466.67
884.747	470.16
884.923	468.61
885.099	472.1
885.275	498.06
885.45	410.87
885.626	426.76
885.801	413.59
885.977	444.39
886.153	398.86
886.328	450.01
886.504	444.2
886.679	449.43
886.855	420.56
887.03	471.9
887.206	482.75
887.381	425.79
887.557	470.16
887.732	448.07
887.908	457.95
888.083	499.03
888.258	411.45
888.434	419.2
888.609	435.67
888.784	501.93
888.96	425.99
889.135	420.95
889.31	413.97
889.485	450.01
889.661	412.04
889.836	459.5
890.011	429.09
890.186	394.6
890.361	405.25
890.537	432.77
890.712	463.19
890.887	439.74
891.062	446.52
891.237	478.88
891.412	412.23
891.587	456.79
891.762	456.21
891.937	497.87
892.112	387.04
892.287	453.11
892.462	411.07
892.637	391.3
892.812	376.97
892.987	372.12
893.161	382.59
893.336	374.06
893.511	394.21
893.686	421.14
893.861	375.22
894.035	407.39
894.21	433.74
894.385	370.77
894.56	401.96
894.734	361.66
894.909	358.76
895.084	369.22
895.258	367.86
895.433	385.1
895.608	367.28
895.782	304.7
895.957	325.24
896.131	351.2
896.306	274.48
896.48	300.44
896.655	330.08
896.829	254.13
897.004	258.78
897.178	285.13
897.353	263.24
897.527	313.42
897.701	300.44
897.876	233.4
898.05	306.83
898.224	320.39
898.399	351.97
898.573	283
898.747	220.61
898.921	291.33
899.096	209.76
899.27	207.44
899.444	226.43
899.618	222.16
899.792	220.42
899.967	237.86
900.141	276.41
900.315	221
900.489	247.16
900.663	245.99
900.837	244.06
901.011	208.21
901.185	280.48
901.359	226.04
901.533	258.78
901.707	257.81
901.881	241.54
902.055	200.66
902.229	274.86
902.403	276.61
902.576	261.88
902.75	243.28
902.924	353.14
903.098	270.99
903.272	289.39
903.446	329.5
903.619	308.77
903.793	291.72
903.967	278.35
904.14	336.67
904.314	322.14
904.488	320.39
904.661	311.48
904.835	318.84
905.009	332.6
905.182	383.55
905.356	349.84
905.529	319.62
905.703	297.72
905.876	307.8
906.05	276.03
906.223	287.46
906.397	233.01
906.57	243.28
906.744	236.31
906.917	244.44
907.09	247.74
907.264	240.38
907.437	203.76
907.61	196.2
907.784	239.99
907.957	237.66
908.13	202.6
908.304	273.89
908.477	224.49
908.65	240.96
908.823	201.43
908.996	294.24
909.17	238.44
909.343	220.42
909.516	248.32
909.689	242.89
909.862	193.3
910.035	227.39
910.208	207.83
910.381	183.61
910.554	303.15
910.727	205.31
910.9	199.11
911.073	190.97
911.246	272.15
911.419	239.6
911.592	256.26
911.765	190.58
911.938	218.48
912.11	197.17
912.283	228.75
912.456	241.93
912.629	214.41
912.802	204.34
912.974	198.33
913.147	170.24
913.32	132.07
913.493	154.55
913.665	211.7
913.838	188.84
914.01	168.5
914.183	173.34
914.356	142.15
914.528	225.07
914.701	245.41
914.873	228.94
915.046	176.25
915.218	184.38
915.391	134.78
915.563	175.86
915.736	203.76
915.908	203.37
916.081	187.48
916.253	165.01
916.425	170.43
916.598	185.35
916.77	187.48
916.942	149.31
917.115	101.46
917.287	202.79
917.459	193.49
917.632	139.43
917.804	100.49
917.976	193.88
918.148	177.8
918.32	146.99
918.493	191.55
918.665	218.29
918.837	171.01
919.009	254.91
919.181	236.11
919.353	194.65
919.525	188.84
919.697	162.1
919.869	203.56
920.041	234.95
920.213	263.63
920.385	208.02
920.557	219.84
920.729	207.24
920.901	206.86
921.073	213.44
921.244	186.13
921.416	218.29
921.588	206.66
921.76	189.61
921.932	272.54
922.103	176.83
922.275	196.59
922.447	193.3
922.619	115.6
922.79	190.2
922.962	169.85
923.134	193.88
923.305	159.58
923.477	138.46
923.648	136.91
923.82	165.59
923.991	150.09
924.163	137.11
924.335	159.39
924.506	133.62
924.677	188.45
924.849	132.85
925.02	166.95
925.192	198.72
925.363	151.06
925.535	168.3
925.706	134.98
925.877	171.4
926.049	165.98
926.22	161.52
926.391	177.6
926.562	170.05
926.734	112.7
926.905	185.74
927.076	116.76
927.247	141.95
927.419	124.13
927.59	144.86
927.761	147.76
927.932	127.81
928.103	161.71
928.274	115.41
928.445	91
928.616	118.51
928.787	126.84
928.958	133.23
929.129	157.45
929.3	113.47
929.471	108.82
929.642	46.43
929.813	22.99
929.984	98.36
930.155	44.3
930.326	96.42
930.496	76.47
930.667	36.94
930.838	88.67
931.009	39.85
931.18	79.18
931.35	50.7
931.521	84.99
931.692	30.16
931.863	10.4
932.033	66.58
932.204	51.28
932.374	76.66
932.545	5.75
932.716	78.4
932.886	72.4
933.057	2.65
933.227	-4.91
933.398	84.02
933.568	20.47
933.739	-4.13
933.909	-7.81
934.08	48.37
934.25	-4.33
934.421	-5.68
934.591	24.54
934.761	5.36
934.932	-38.62
935.102	6.72
935.272	2.26
935.443	-0.84
935.613	34.23
935.783	28.61
935.953	-34.55
936.123	118.7
936.294	-47.53
936.464	-17.31
936.634	20.67
936.804	-37.46
936.974	-22.35
937.144	27.64
937.314	18.34
937.484	-8.78
937.655	-2.58
937.825	62.13
937.995	-4.33
938.165	64.65
938.334	28.61
938.504	18.73
938.674	-14.6
938.844	4.78
939.014	41.59
939.184	19.31
939.354	38.1
939.524	69.1
939.694	20.67
939.863	-7.23
940.033	70.85
940.203	74.33
940.373	43.14
940.542	78.02
940.712	25.7
940.882	74.92
941.051	58.25
941.221	25.7
941.391	73.75
941.56	-20.8
941.73	22.02
941.899	109.21
942.069	18.54
942.238	53.41
942.408	11.17
942.577	43.72
942.747	37.72
942.916	18.15
943.086	5.17
943.255	50.12
943.425	57.28
943.594	-9.95
943.763	-10.91
943.933	-11.3
944.102	-6.46
944.271	9.62
944.441	25.9
944.61	0.52
944.779	-9.17
944.948	96.23
945.117	-25.06
945.287	24.15
945.456	-23.7
945.625	19.7
945.794	27.45
945.963	31.52
946.132	27.64
946.301	4
946.47	44.11
946.639	-22.35
946.808	36.36
946.977	38.1
947.146	62.52
947.315	-20.41
947.484	42.95
947.653	21.05
947.822	-7.62
947.991	-15.37
948.16	79.95
948.329	62.13
948.498	14.27
948.666	29.77
948.835	30.35
949.004	-26.61
949.173	-15.56
949.341	14.66
949.51	27.45
949.679	56.51
949.847	52.63
950.016	84.41
950.185	68.52
950.353	20.28
950.522	23.19
950.69	49.92
950.859	12.53
951.028	34.42
951.196	33.26
951.365	5.17
951.533	-5.68
951.701	49.15
951.87	38.1
952.038	8.27
952.207	39.85
952.375	76.66
952.543	8.27
952.712	20.86
952.88	-3.36
953.048	48.76
953.217	49.15
953.385	1.68
953.553	69.49
953.721	4.39
953.89	14.85
954.058	-42.3
954.226	4.78
954.394	32.29
954.562	-28.16
954.73	21.44
954.898	0.13
955.067	68.33
955.235	-12.46
955.403	30.74
955.571	76.85
955.739	19.12
955.907	0.9
956.075	8.85
956.243	12.53
956.41	62.13
956.578	-11.3
956.746	-16.73
956.914	-10.72
957.082	42.37
957.25	19.31
957.418	-3.16
957.585	29.97
957.753	53.02
957.921	-7.62
958.089	24.54
958.256	34.81
958.424	49.34
958.592	33.84
958.759	-2.97
958.927	46.82
959.095	-12.66
959.262	-4.52
959.43	50.31
959.597	2.07
959.765	30.55
959.932	-22.73
960.1	55.54
960.267	23.38
960.435	7.3
960.602	74.53
960.77	9.62
960.937	-19.63
961.104	39.07
961.272	-0.65
961.439	2.84
961.606	17.76
961.774	39.27
961.941	7.1
962.108	35
962.275	32.68
962.443	60.38
962.61	22.02
962.777	83.44
962.944	48.57
963.111	39.65
963.278	52.83
963.446	22.8
963.613	19.31
963.78	55.54
963.947	37.13
964.114	16.21
964.281	97
964.448	63.48
964.615	8.85
964.782	51.08
964.949	60
965.116	72.59
965.282	42.75
965.449	25.7
965.616	5.55
965.783	41.01
965.95	38.49
966.117	9.62
966.283	29.77
966.45	50.12
966.617	33.26
966.784	60.38
966.95	50.5
967.117	57.67
967.284	2.26
967.45	-7.23
967.617	75.69
967.784	39.65
967.95	83.83
968.117	27.64
968.283	57.09
968.45	120.45
968.616	29.58
968.783	81.7
968.949	33.65
969.116	57.67
969.282	33.45
969.449	47.6
969.615	35
969.781	-1.61
969.948	35
970.114	-6.07
970.28	61.74
970.447	40.43
970.613	82.67
970.779	26.09
970.945	24.15
971.112	61.74
971.278	14.27
971.444	32.48
971.61	78.79
971.776	24.54
971.942	56.32
972.108	72.78
972.275	40.82
972.441	44.5
972.607	91.19
972.773	15.44
972.939	60
973.105	32.68
973.271	9.24
973.437	8.07
973.602	24.74
973.768	47.4
973.934	35.2
974.1	46.63
974.266	-25.83
974.432	38.49
974.598	19.89
974.763	72.2
974.929	16.99
975.095	88.67
975.261	29.19
975.426	-16.34
975.592	41.01
975.758	106.11
975.923	12.53
976.089	7.3
976.255	51.86
976.42	54.57
976.586	54.77
976.751	26.87
976.917	93.52
977.082	74.92
977.248	3.04
977.413	-18.28
977.579	12.14
977.744	37.52
977.91	4.39
978.075	30.93
978.24	45.47
978.406	35
978.571	41.01
978.736	5.36
978.902	50.5
979.067	2.84
979.232	-10.33
979.397	37.52
979.563	93.32
979.728	-4.13
979.893	32.68
980.058	10.4
980.223	65.03
980.388	50.31
980.554	40.62
980.719	24.54
980.884	46.43
981.049	78.98
981.214	-12.27
981.379	35.39
981.544	-10.14
981.709	-4.33
981.874	18.54
982.039	16.02
982.204	43.53
982.368	51.86
982.533	1.68
982.698	42.56
982.863	61.93
983.028	21.25
983.193	21.25
983.357	30.35
983.522	47.98
983.687	28.8
983.852	3.42
984.016	10.4
984.181	22.6
984.346	37.13
984.51	61.35
984.675	38.49
984.839	46.63
985.004	45.27
985.168	48.57
985.333	34.03
985.498	15.05
985.662	61.55
985.827	36.75
985.991	29.19
986.155	37.33
986.32	65.81
986.484	78.79
986.649	52.25
986.813	-13.05
986.977	53.02
987.142	44.69
987.306	-14.79
987.47	21.64
987.634	6.33
987.799	41.2
987.963	49.34
988.127	56.9
988.291	92.35
988.455	49.92
988.62	26.29
988.784	57.09
988.948	64.65
989.112	19.5
989.276	32.1
989.44	29.97
989.604	15.05
989.768	22.41
989.932	94.68
990.096	-2.58
990.26	-22.15
990.424	-8.98
990.588	11.56
990.752	99.13
990.915	67.75
991.079	36.94
991.243	19.89
991.407	45.66
991.571	20.09
991.734	39.85
991.898	67.55
992.062	94.48
992.226	17.18
992.389	32.29
992.553	-20.41
992.717	7.69
992.88	17.37
993.044	33.26
993.207	18.54
993.371	47.4
993.535	41.59
993.698	34.81
993.862	31.9
994.025	59.61
994.189	49.15
994.352	49.34
994.515	46.63
994.679	51.86
994.842	40.62
995.006	40.43
995.169	13.5
995.332	-5.49
995.496	26.29
995.659	-23.12
995.822	3.04
995.985	31.13
996.149	82.08
996.312	24.35
996.475	87.51
996.638	13.89
996.801	45.85
996.964	72.4
997.128	16.6
997.291	35.39
997.454	41.98
997.617	0.32
997.78	78.79
997.943	-1.81
998.106	68.13
998.269	5.94
998.432	32.1
998.595	39.65
998.758	-16.92
998.92	-20.41
999.083	-29.9
999.246	28.61
999.409	-33.97
999.572	-22.15
999.735	-2.39
999.897	48.57
1000.06	5.36
1000.223	-6.07
1000.386	37.13
1000.548	42.37
1000.711	33.84
1000.874	52.05
1001.036	-24.48
1001.199	40.82
1001.361	-8.78
1001.524	22.6
1001.687	50.12
1001.849	8.27
1002.012	19.31
1002.174	25.12
1002.337	48.18
1002.499	15.05
1002.661	51.47
1002.824	13.89
1002.986	11.37
1003.149	0.52
1003.311	4.78
1003.473	71.82
1003.636	19.12
1003.798	16.21
1003.96	47.21
1004.123	20.47
1004.285	-23.51
1004.447	-2
1004.609	-6.65
1004.771	57.87
1004.933	-2.58
1005.096	6.52
1005.258	-52.57
1005.42	-36.3
1005.582	30.55
1005.744	37.91
1005.906	-29.71
1006.068	20.28
1006.23	-17.7
1006.392	-20.21
1006.554	-30.68
1006.716	43.33
1006.878	21.25
1007.04	-19.25
1007.202	-1.81
1007.363	21.64
1007.525	26.67
1007.687	37.52
1007.849	36.75
1008.011	-31.26
1008.172	-16.53
1008.334	12.92
1008.496	16.6
1008.658	-6.07
1008.819	5.94
1008.981	-52.57
1009.143	0.52
1009.304	6.52
1009.466	21.83
1009.627	63.48
1009.789	87.51
1009.95	23.57
1010.112	11.95
1010.273	18.15
1010.435	-3.75
1010.596	-9.75
1010.758	-7.81
1010.919	4.39
1011.081	-38.81
1011.242	3.42
1011.403	34.62
1011.565	-3.55
1011.726	13.89
1011.887	-6.65
1012.049	12.34
1012.21	58.25
1012.371	60.19
1012.532	-37.65
1012.693	13.3
1012.855	-13.63
1013.016	10.98
1013.177	29.77
1013.338	10.59
1013.499	74.72
1013.66	28.8
1013.821	10.59
1013.982	34.03
1014.143	4.78
1014.304	-6.07
1014.465	29.58
1014.626	25.7
1014.787	3.23
1014.948	103.2
1015.109	-51.8
1015.27	40.04
1015.431	-3.55
1015.592	-31.26
1015.752	47.21
1015.913	-0.45
1016.074	5.17
1016.235	10.98
1016.395	9.24
1016.556	12.72
1016.717	-4.33
1016.877	32.48
1017.038	-40.75
1017.199	-0.84
1017.359	6.72
1017.52	33.84
1017.681	-1.03
1017.841	1.68
1018.002	15.44
1018.162	-6.85
1018.323	54.77
1018.483	9.43
1018.644	-16.15
1018.804	-39.78
1018.964	-26.41
1019.125	-24.28
1019.285	25.12
1019.446	-25.45
1019.606	-10.72
1019.766	-31.45
1019.926	19.5
1020.087	36.75
1020.247	-38.04
1020.407	20.67
1020.567	40.43
1020.728	16.4
1020.888	9.62
1021.048	-24.86
1021.208	0.71
1021.368	-9.17
1021.528	38.3
1021.688	9.82
1021.848	-2.58
1022.008	-8.2
1022.168	6.72
1022.328	5.17
1022.488	-2
1022.648	23.38
1022.808	16.99
1022.968	12.72
1023.128	-8.01
1023.288	-8.4
1023.448	13.69
1023.608	20.47
1023.767	29.19
1023.927	-36.3
1024.087	-13.63
1024.247	-17.5
1024.406	18.54
1024.566	-23.7
1024.726	-30.68
1024.885	-13.63
1025.045	33.07
1025.205	-8.98
1025.364	-17.7
1025.524	-2.2
1025.683	-2.58
1025.843	16.4
1026.003	-6.07
1026.162	55.54
1026.321	27.45
1026.481	2.07
1026.64	-10.33
1026.8	9.62
1026.959	9.62
1027.119	14.27
1027.278	-18.47
1027.437	-16.15
1027.597	-19.25
1027.756	23.19
1027.915	40.62
1028.074	16.79
1028.234	-34.75
1028.393	10.2
1028.552	-16.34
1028.711	-64.19
1028.87	10.4
1029.03	-21.18
1029.189	-6.26
1029.348	-38.62
1029.507	-7.62
1029.666	-0.65
1029.825	-10.14
1029.984	-16.53
1030.143	2.45
1030.302	3.62
1030.461	-64.39
1030.62	12.34
1030.779	15.44
1030.938	-3.16
1031.097	-34.94
1031.255	20.09
1031.414	46.05
1031.573	14.08
1031.732	-32.23
1031.891	-8.59
1032.049	49.15
1032.208	-1.03
1032.367	-23.7
1032.525	-4.71
1032.684	-1.23
1032.843	-10.91
1033.001	-45.6
1033.16	120.45
1033.319	10.01
1033.477	18.73
1033.636	-12.27
1033.794	-33.78
1033.953	30.93
1034.111	37.13
1034.27	-14.01
1034.428	16.4
1034.587	-35.52
1034.745	12.92
1034.903	17.95
1035.062	16.99
1035.22	-33.2
1035.378	29.19
1035.537	-27.19
1035.695	25.9
1035.853	-8.01
1036.011	31.9
1036.17	-15.18
1036.328	-46.76
1036.486	21.25
1036.644	2.07
1036.802	-63.42
1036.96	-14.21
1037.119	5.36
1037.277	-8.01
1037.435	-58.58
1037.593	-48.5
1037.751	-21.18
1037.909	32.48
1038.067	32.48
