Data from oakcork_FLMT105791__280__17-34-26-052.txt Node

Date: Mon Mar 20 17:34:26 GMT 2023
User: antho
Spectrometer: FLMT10579
Trigger mode: 0
Integration Time (sec): 1.000000E-1
Scans to average: 10
Electric dark correction enabled: true
Nonlinearity correction enabled: false
Boxcar width: 0
XAxis mode: Wavelengths
Number of Pixels in Spectrum: 3648
>>>>>Begin Spectral Data<<<<<
345.248	-133.25
345.464	-133.25
345.681	-133.25
345.898	-140.03
346.114	-148.17
346.331	-36.96
346.548	42.67
346.764	3.34
346.981	-1.31
347.197	-41.8
347.414	7.6
347.631	-24.56
347.847	44.22
348.064	-1.7
348.28	33.57
348.497	-27.08
348.713	1.99
348.93	43.64
349.146	41.9
349.363	-7.31
349.579	20
349.796	27.95
350.012	-11.58
350.229	19.42
350.445	19.81
350.661	4.89
350.878	7.6
351.094	20.59
351.311	15.55
351.527	8.77
351.743	-2.08
351.96	29.69
352.176	41.32
352.392	7.99
352.609	19.62
352.825	-14.48
353.041	11.48
353.257	24.65
353.474	26.01
353.69	29.69
353.906	20.78
354.122	-18.75
354.339	55.65
354.555	2.18
354.771	0.63
354.987	53.14
355.203	82
355.42	-31.73
355.636	5.47
355.852	11.87
356.068	11.29
356.284	-41.61
356.5	52.75
356.716	11.29
356.932	-13.32
357.148	32.4
357.364	17.68
357.58	56.43
357.796	57.59
358.012	24.65
358.228	33.76
358.444	-41.99
358.66	57.2
358.876	12.45
359.092	16.13
359.308	-3.63
359.524	32.02
359.74	1.99
359.956	-21.07
360.172	29.5
360.388	33.18
360.604	6.83
360.819	51
361.035	0.82
361.251	39.19
361.467	0.63
361.683	72.7
361.898	50.81
362.114	17.1
362.33	25.82
362.546	37.05
362.762	22.33
362.977	35.7
363.193	-9.45
363.409	57.98
363.624	9.15
363.84	0.24
364.056	-6.73
364.271	36.47
364.487	20.97
364.703	1.4
364.918	2.37
365.134	-4.99
365.35	5.67
365.565	106.61
365.781	-8.86
365.996	15.94
366.212	66.5
366.427	37.25
366.643	2.95
366.858	17.87
367.074	-6.35
367.289	69.8
367.505	100.02
367.72	-1.89
367.936	-3.63
368.151	49.45
368.367	27.95
368.582	17.29
368.798	14.19
369.013	62.82
369.228	22.52
369.444	25.82
369.659	66.89
369.874	24.65
370.09	76.58
370.305	-40.83
370.52	6.83
370.736	51.97
370.951	12.84
371.166	50.62
371.381	86.85
371.597	37.25
371.812	-27.46
372.027	18.26
372.242	2.18
372.458	74.83
372.673	-11.19
372.888	26.79
373.103	49.07
373.318	111.84
373.533	48.29
373.749	1.02
373.964	-37.15
374.179	66.12
374.394	-17.78
374.609	45.77
374.824	-22.62
375.039	66.12
375.254	-14.1
375.469	86.46
375.684	50.42
375.899	23.88
376.114	26.59
376.329	16.52
376.544	57.79
376.759	31.63
376.974	-1.11
377.189	10.7
377.404	5.67
377.619	45
377.834	-9.64
378.049	-25.91
378.264	-15.45
378.478	22.72
378.693	-6.93
378.908	28.14
379.123	5.09
379.338	61.08
379.553	11.87
379.767	31.82
379.982	19.81
380.197	43.45
380.412	5.86
380.626	58.75
380.841	87.23
381.056	37.64
381.271	77.93
381.485	-20.68
381.7	-0.34
381.915	60.5
382.129	40.93
382.344	46.35
382.559	25.24
382.773	69.8
382.988	-12.93
383.202	19.04
383.417	-15.26
383.632	118.62
383.846	20.2
384.061	22.91
384.275	2.95
384.49	35.5
384.704	76.77
384.919	44.61
385.133	-5.96
385.348	44.22
385.562	-26.49
385.777	68.44
385.991	11.29
386.206	-3.83
386.42	27.37
386.634	61.47
386.849	52.17
387.063	39.96
387.277	-9.06
387.492	3.54
387.706	7.99
387.92	-19.52
388.135	53.52
388.349	51.59
388.563	31.24
388.778	72.12
388.992	63.6
389.206	56.24
389.42	95.95
389.635	32.6
389.849	49.84
390.063	80.07
390.277	32.99
390.491	100.6
390.706	58.37
390.92	58.95
391.134	16.9
391.348	74.45
391.562	-13.13
391.776	31.44
391.99	12.64
392.205	84.52
392.419	-4.21
392.633	35.5
392.847	74.25
393.061	0.05
393.275	76.58
393.489	39.77
393.703	24.65
393.917	91.5
394.131	10.12
394.345	52.17
394.559	62.05
394.773	34.34
394.986	42.48
395.2	9.15
395.414	66.5
395.628	6.05
395.842	12.64
396.056	19.04
396.27	-36.57
396.484	37.64
396.697	27.17
396.911	69.6
397.125	59.53
397.339	85.1
397.553	38.41
397.766	109.52
397.98	51.78
398.194	78.52
398.408	18.26
398.621	77.55
398.835	65.15
399.049	68.83
399.262	90.92
399.476	69.41
399.69	80.45
399.903	110.1
400.117	40.54
400.331	58.75
400.544	41.7
400.758	150.4
400.971	49.07
401.185	94.21
401.398	40.15
401.612	83.17
401.826	79.87
402.039	62.82
402.253	46.55
402.466	76.19
402.68	61.47
402.893	80.65
403.106	44.22
403.32	57.4
403.533	77.16
403.747	59.72
403.96	66.7
404.174	75.03
404.387	9.93
404.6	70.18
404.814	67.86
405.027	80.07
405.24	68.25
405.454	56.62
405.667	87.43
405.88	21.75
406.094	50.04
406.307	102.93
406.52	53.33
406.733	36.47
406.947	6.25
407.16	118.23
407.373	95.76
407.586	0.63
407.799	45
408.012	115.91
408.226	65.73
408.439	114.94
408.652	42.09
408.865	45.77
409.078	86.85
409.291	67.28
409.504	30.66
409.717	59.92
409.93	97.89
410.143	69.6
410.357	42.48
410.57	20
410.783	71.93
410.996	52.17
411.209	57.01
411.421	78.13
411.634	53.14
411.847	59.72
412.06	43.64
412.273	77.93
412.486	57.2
412.699	142.84
412.912	89.75
413.125	118.23
413.338	87.23
413.55	86.07
413.763	86.85
413.976	88.59
414.189	49.07
414.402	76.77
414.615	114.17
414.827	43.06
415.04	103.32
415.253	78.9
415.466	100.22
415.678	116.88
415.891	55.85
416.104	83.17
416.316	60.5
416.529	34.34
416.742	79.68
416.954	133.93
417.167	63.99
417.38	57.98
417.592	82.2
417.805	40.74
418.017	9.35
418.23	86.85
418.442	53.72
418.655	81.03
418.868	57.79
419.08	106.42
419.293	130.44
419.505	117.46
419.718	85.3
419.93	121.14
420.142	66.31
420.355	111.07
420.567	121.33
420.78	97.5
420.992	64.76
421.205	131.41
421.417	28.92
421.629	72.51
421.842	26.4
422.054	44.8
422.266	90.33
422.479	133.15
422.691	62.05
422.903	118.43
423.115	55.46
423.328	81.23
423.54	82.39
423.752	66.89
423.964	74.83
424.177	100.6
424.389	74.45
424.601	178.49
424.813	84.72
425.025	120.17
425.238	110.48
425.45	58.56
425.662	89.95
425.874	338.52
426.086	84.72
426.298	70.77
426.51	82.39
426.722	83.94
426.934	48.68
427.146	96.92
427.358	31.82
427.57	129.08
427.782	70.57
427.994	73.28
428.206	83.55
428.418	46.16
428.63	80.65
428.842	112.62
429.054	70.96
429.266	132.57
429.478	85.49
429.69	63.02
429.902	15.94
430.114	103.51
430.325	93.24
430.537	58.95
430.749	77.16
430.961	12.45
431.173	80.07
431.384	95.95
431.596	37.83
431.808	64.76
432.02	91.5
432.231	102.73
432.443	105.25
432.655	109.52
432.867	57.4
433.078	89.37
433.29	173.06
433.502	109.9
433.713	142.45
433.925	86.65
434.136	133.54
434.348	88.01
434.56	44.42
434.771	175.97
434.983	56.82
435.194	81.62
435.406	81.23
435.617	133.73
435.829	137.22
436.04	127.92
436.252	127.15
436.463	119.78
436.675	131.8
436.886	98.86
437.098	114.75
437.309	152.33
437.521	86.27
437.732	114.17
437.943	108.35
438.155	114.75
438.366	59.14
438.578	151.37
438.789	104.48
439	128.31
439.211	111.07
439.423	137.22
439.634	146.13
439.845	110.29
440.057	115.13
440.268	112.81
440.479	111.65
440.69	117.85
440.902	82
441.113	109.13
441.324	104.09
441.535	118.82
441.746	148.27
441.957	80.07
442.168	90.72
442.38	136.83
442.591	127.92
442.802	107.77
443.013	102.93
443.224	141.68
443.435	113.97
443.646	98.47
443.857	101.38
444.068	77.16
444.279	94.4
444.49	183.53
444.701	102.54
444.912	218.01
445.123	169.77
445.334	136.25
445.545	128.31
445.756	119.4
445.967	49.26
446.178	134.32
446.388	138.58
446.599	142.07
446.81	165.9
447.021	107.77
447.232	192.63
447.443	172.68
447.653	94.6
447.864	151.95
448.075	114.94
448.286	160.86
448.496	140.9
448.707	173.06
448.918	110.48
449.129	205.61
449.339	132.18
449.55	161.83
449.761	131.02
449.971	168.03
450.182	129.08
450.393	160.28
450.603	136.45
450.814	160.47
451.024	136.06
451.235	152.72
451.446	162.8
451.656	172.1
451.867	123.66
452.077	132.96
452.288	186.24
452.498	157.95
452.709	143.23
452.919	170.74
453.13	132.57
453.34	169.96
453.55	90.53
453.761	159.11
453.971	161.63
454.182	177.13
454.392	192.25
454.602	203.87
454.813	146.91
455.023	175.97
455.233	113.2
455.444	147.88
455.654	91.11
455.864	142.84
456.075	130.83
456.285	123.47
456.495	135.09
456.705	161.44
456.916	199.22
457.126	201.55
457.336	159.7
457.546	98.28
457.756	111.26
457.967	176.94
458.177	135.48
458.387	126.76
458.597	108.55
458.807	155.05
459.017	144.2
459.227	156.79
459.437	170.74
459.647	163.38
459.857	171.9
460.068	146.91
460.278	210.26
460.488	173.26
460.698	221.11
460.908	173.26
461.117	119.98
461.327	126.95
461.537	154.27
461.747	144.58
461.957	148.46
462.167	245.72
462.377	194.76
462.587	184.88
462.797	196.31
463.007	147.88
463.216	197.28
463.426	223.25
463.636	200.96
463.846	106.61
464.056	163.18
464.265	210.07
464.475	132.38
464.685	156.98
464.895	185.85
465.104	184.11
465.314	200
465.524	174.03
465.733	150.78
465.943	238.55
466.153	190.89
466.362	205.81
466.572	188.37
466.782	178.49
466.991	146.13
467.201	201.74
467.41	130.25
467.62	192.44
467.829	153.69
468.039	183.72
468.249	170.74
468.458	183.91
468.668	195.15
468.877	191.47
469.086	214.33
469.296	227.31
469.505	138.38
469.715	239.52
469.924	199.8
470.134	206.58
470.343	224.6
470.552	165.12
470.762	178.3
470.971	164.15
471.18	186.05
471.39	180.43
471.599	154.85
471.808	229.45
472.018	148.07
472.227	222.47
472.436	216.85
472.645	161.83
472.855	157.56
473.064	243.98
473.273	198.45
473.482	208.13
473.691	234.1
473.901	192.83
474.11	188.95
474.319	281.95
474.528	207.94
474.737	257.15
474.946	224.8
475.155	208.13
475.364	241.65
475.573	189.34
475.783	243.59
475.992	241.84
476.201	259.09
476.41	202.13
476.619	153.11
476.828	196.9
477.037	189.15
477.245	198.83
477.454	240.3
477.663	195.15
477.872	217.82
478.081	279.43
478.29	216.27
478.499	286.79
478.708	234.87
478.917	296.48
479.125	230.8
479.334	225.76
479.543	201.93
479.752	248.82
479.961	241.26
480.169	268.19
480.378	205.42
480.587	331.36
480.796	285.05
481.004	238.16
481.213	267.61
481.422	253.47
481.63	229.06
481.839	277.3
482.048	333.49
482.256	251.14
482.465	252.89
482.674	291.64
482.882	263.54
483.091	311.01
483.299	247.46
483.508	279.63
483.716	279.43
483.925	248.04
484.134	268.39
484.342	261.99
484.551	300.55
484.759	302.49
484.967	293.19
485.176	328.26
485.384	287.18
485.593	299.58
485.801	286.02
486.01	277.49
486.218	279.82
486.426	219.56
486.635	263.54
486.843	270.33
487.051	281.95
487.26	280.01
487.468	291.25
487.676	292.03
487.885	249.4
488.093	273.23
488.301	283.69
488.509	305.78
488.717	310.24
488.926	274.59
489.134	275.56
489.342	322.64
489.55	270.91
489.758	284.08
489.967	270.52
490.175	388.71
490.383	268
490.591	331.55
490.799	241.26
491.007	314.31
491.215	290.48
491.423	304.62
491.631	280.79
491.839	304.62
492.047	346.27
492.255	253.28
492.463	279.24
492.671	297.64
492.879	341.04
493.087	303.07
493.295	306.17
493.503	318.96
493.711	347.82
493.919	349.76
494.127	363.52
494.334	369.14
494.542	291.06
494.75	309.46
494.958	320.12
495.166	357.71
495.374	319.34
495.581	315.08
495.789	304.04
495.997	359.64
496.205	311.98
496.412	333.68
496.62	322.83
496.828	354.41
497.035	361.19
497.243	349.57
497.451	326.32
497.658	356.16
497.866	327.29
498.074	380.37
498.281	315.47
498.489	413.12
498.696	350.92
498.904	316.44
499.112	330.97
499.319	404.21
499.527	320.12
499.734	366.81
499.942	315.08
500.149	316.05
500.357	371.66
500.564	324.58
500.771	355.19
500.979	332.13
501.186	344.34
501.394	337.56
501.601	357.9
501.808	388.9
502.016	353.83
502.223	333.1
502.43	355.38
502.638	358.87
502.845	326.13
503.052	404.59
503.26	311.01
503.467	412.73
503.674	348.21
503.881	348.79
504.089	410.02
504.296	398.78
504.503	316.05
504.71	387.54
504.917	325.93
505.125	366.62
505.332	363.32
505.539	366.81
505.746	411.37
505.953	394.91
506.16	360.03
506.367	398.97
506.574	420.29
506.781	421.06
506.988	349.57
507.195	382.31
507.402	356.35
507.609	390.84
507.816	367.78
508.023	360.03
508.23	370.49
508.437	332.13
508.644	389.67
508.851	417.38
509.058	406.53
509.265	397.04
509.472	402.46
509.679	456.9
509.885	377.86
510.092	411.96
510.299	384.06
510.506	409.63
510.713	395.68
510.92	381.15
511.126	396.07
511.333	421.25
511.54	430.55
511.746	456.32
511.953	443.54
512.16	460.78
512.367	421.25
512.573	401.49
512.78	397.23
512.987	393.16
513.193	416.6
513.4	363.32
513.606	408.27
513.813	431.91
514.02	416.99
514.226	483.84
514.433	476.67
514.639	388.71
514.846	416.8
515.052	379.21
515.259	419.51
515.465	403.82
515.672	412.15
515.878	490.42
516.085	425.13
516.291	430.55
516.497	416.6
516.704	413.31
516.91	400.33
517.117	379.02
517.323	321.48
517.529	389.48
517.736	412.54
517.942	409.24
518.148	390.45
518.354	415.05
518.561	406.92
518.767	419.12
518.973	438.3
519.179	462.52
519.386	396.26
519.592	393.74
519.798	413.51
520.004	468.14
520.21	423.77
520.417	464.07
520.623	471.05
520.829	470.08
521.035	475.12
521.241	477.05
521.447	494.3
521.653	565.98
521.859	472.6
522.065	490.04
522.271	541.77
522.477	506.5
522.683	550.68
522.889	520.07
523.095	488.1
523.301	517.55
523.507	492.36
523.713	500.3
523.919	488.49
524.125	512.51
524.331	488.29
524.537	560.37
524.742	518.13
524.948	528.59
525.154	521.62
525.36	614.23
525.566	547.19
525.772	562.69
525.977	502.63
526.183	589.04
526.389	593.3
526.595	535.37
526.8	516.97
527.006	512.32
527.212	512.7
527.417	500.11
527.623	496.82
527.829	518.13
528.034	517.74
528.24	544.48
528.446	497.79
528.651	580.71
528.857	552.03
529.062	602.21
529.268	556.49
529.473	513.28
529.679	555.52
529.884	591.17
530.09	592.72
530.295	632.25
530.501	605.12
530.706	582.26
530.912	571.41
531.117	585.94
531.323	589.23
531.528	598.92
531.733	582.45
531.939	580.13
532.144	595.05
532.35	596.21
532.555	619.65
532.76	633.02
532.966	626.24
533.171	608.41
533.376	568.89
533.581	574.7
533.787	578.58
533.992	608.22
534.197	637.48
534.402	591.75
534.607	615.97
534.813	684.94
535.018	616.36
535.223	593.11
535.428	611.71
535.633	654.91
535.838	645.81
536.043	630.7
536.249	662.47
536.454	609.19
536.659	617.13
536.864	592.91
537.069	602.8
537.274	625.27
537.479	653.36
537.684	624.5
537.889	601.05
538.094	719.04
538.299	637.67
538.504	639.03
538.708	638.45
538.913	668.67
539.118	619.07
539.323	668.09
539.528	618.1
539.733	648.52
539.938	629.53
540.142	632.44
540.347	609.77
540.552	636.51
540.757	653.75
540.962	633.6
541.166	578.38
541.371	602.99
541.576	641.35
541.781	582.26
541.985	637.67
542.19	641.93
542.395	691.34
542.599	716.14
542.804	652.4
543.008	719.43
543.213	650.85
543.418	609.77
543.622	687.08
543.827	637.09
544.031	709.16
544.236	679.52
544.44	658.4
544.645	718.66
544.849	656.66
545.054	696.18
545.258	731.44
545.463	709.94
545.667	665.18
545.872	667.12
546.076	680.68
546.281	669.45
546.485	652.98
546.689	683.98
546.894	700.25
547.098	688.63
547.302	631.47
547.507	663.05
547.711	688.24
547.915	760.12
548.119	637.48
548.324	656.85
548.528	732.8
548.732	681.65
548.936	703.93
549.141	704.9
549.345	653.95
549.549	703.74
549.753	658.21
549.957	756.44
550.161	734.16
550.366	690.76
550.57	667.31
550.774	674.1
550.978	705.68
551.182	709.94
551.386	675.84
551.59	669.83
551.794	681.65
551.998	691.14
552.202	666.35
552.406	634.96
552.61	684.17
552.814	678.36
553.018	717.69
553.222	691.14
553.426	692.5
553.63	746.56
553.833	690.56
554.037	642.9
554.241	701.41
554.445	687.46
554.649	688.63
554.853	655.88
555.056	732.61
555.26	714.78
555.464	700.64
555.668	700.83
555.871	743.26
556.075	715.75
556.279	646.58
556.483	650.26
556.686	701.22
556.89	673.13
557.094	713.23
557.297	637.67
557.501	741.71
557.704	602.41
557.908	721.56
558.112	674.29
558.315	741.71
558.519	661.7
558.722	654.53
558.926	662.86
559.129	633.02
559.333	585.94
559.536	627.4
559.74	629.73
559.943	627.79
560.147	600.86
560.35	635.15
560.553	621.01
560.757	596.6
560.96	681.84
561.164	639.41
561.367	673.13
561.57	649.88
561.774	636.9
561.977	644.65
562.18	634.96
562.384	734.35
562.587	634.18
562.79	651.81
562.993	642.51
563.197	682.23
563.4	718.08
563.603	696.18
563.806	731.44
564.009	602.99
564.212	641.35
564.416	587.3
564.619	639.41
564.822	581.48
565.025	682.04
565.228	657.43
565.431	651.43
565.634	542.54
565.837	599.89
566.04	584.78
566.243	597.18
566.446	506.12
566.649	656.46
566.852	562.69
567.055	582.65
567.258	622.36
567.461	662.47
567.664	667.12
567.867	547
568.07	635.15
568.273	595.05
568.475	650.07
568.678	580.13
568.881	571.02
569.084	624.88
569.287	523.94
569.489	539.05
569.692	611.51
569.895	593.3
570.098	511.35
570.3	547.19
570.503	526.85
570.706	528.78
570.909	533.43
571.111	508.63
571.314	508.63
571.516	551.84
571.719	560.95
571.922	529.75
572.124	519.48
572.327	525.88
572.529	495.65
572.732	495.46
572.935	534.21
573.137	572.96
573.34	517.55
573.542	561.33
573.745	547.38
573.947	555.33
574.15	513.09
574.352	502.43
574.554	579.35
574.757	485
574.959	514.25
575.162	483.84
575.364	481.32
575.566	591.17
575.769	479.19
575.971	506.12
576.173	459.42
576.376	485.58
576.578	545.64
576.78	572.77
576.982	438.89
577.185	498.95
577.387	468.92
577.589	449.93
577.791	516.77
577.993	536.92
578.196	487.71
578.398	501.08
578.6	555.33
578.802	456.71
579.004	483.45
579.206	466.2
579.408	497.98
579.61	470.47
579.812	509.6
580.014	487.9
580.216	491.97
580.418	477.64
580.62	446.64
580.822	439.47
581.024	464.46
581.226	530.92
581.428	472.02
581.63	554.94
581.832	464.07
582.034	530.53
582.236	504.37
582.438	528.2
582.64	506.89
582.841	533.63
583.043	564.24
583.245	500.11
583.447	503.02
583.649	483.84
583.85	501.47
584.052	553.39
584.254	459.42
584.456	533.82
584.657	489.84
584.859	513.48
585.061	491
585.262	456.9
585.464	426.49
585.666	524.33
585.867	483.45
586.069	539.44
586.27	496.82
586.472	452.06
586.674	447.6
586.875	470.47
587.077	464.46
587.278	504.57
587.48	479.19
587.681	563.08
587.883	489.65
588.084	415.44
588.285	465.43
588.487	476.86
588.688	470.27
588.89	420.09
589.091	413.7
589.292	435.98
589.494	428.23
589.695	431.52
589.896	387.16
590.098	403.24
590.299	432.88
590.5	399.94
590.702	398.59
590.903	433.85
591.104	460.97
591.305	439.27
591.507	517.16
591.708	434.24
591.909	383.67
592.11	492.17
592.311	475.12
592.512	456.52
592.714	412.54
592.915	407.11
593.116	413.51
593.317	436.95
593.518	423.39
593.719	397.23
593.92	437.34
594.121	474.15
594.322	437.34
594.523	458.07
594.724	399.56
594.925	435.4
595.126	436.56
595.327	438.3
595.528	422.42
595.729	430.36
595.929	433.07
596.13	445.86
596.331	428.23
596.532	446.44
596.733	476.67
596.934	427.65
597.135	447.6
597.335	436.37
597.536	398.97
597.737	428.42
597.938	402.07
598.138	434.24
598.339	440.44
598.54	469.11
598.74	425.52
598.941	418.15
599.142	450.32
599.342	450.12
599.543	388.32
599.744	423.77
599.944	420.48
600.145	413.7
600.345	439.08
600.546	491.78
600.746	479.38
600.947	507.67
601.147	446.44
601.348	454.58
601.548	420.29
601.749	437.72
601.949	406.72
602.15	406.53
602.35	439.08
602.551	461.36
602.751	417.57
602.951	422.61
603.152	367.01
603.352	453.42
603.552	427.45
603.753	468.53
603.953	462.14
604.153	429.39
604.354	431.33
604.554	408.08
604.754	407.31
604.954	368.75
605.155	445.28
605.355	413.31
605.555	477.25
605.755	475.31
605.955	430.17
606.155	472.4
606.356	412.73
606.556	453.8
606.756	439.47
606.956	403.24
607.156	476.28
607.356	399.56
607.556	473.57
607.756	428.23
607.956	453.8
608.156	414.47
608.356	398.01
608.556	426.1
608.756	420.67
608.956	381.34
609.156	429.2
609.356	395.68
609.556	388.51
609.755	413.51
609.955	372.62
610.155	394.91
610.355	407.31
610.555	376.69
610.755	420.87
610.954	327.68
611.154	426.49
611.354	422.03
611.554	392
611.753	407.11
611.953	368.56
612.153	423
612.352	441.6
612.552	408.86
612.752	321.48
612.951	380.96
613.151	409.82
613.351	379.21
613.55	380.76
613.75	398.01
613.949	397.23
614.149	405.76
614.348	385.61
614.548	355.38
614.747	320.7
614.947	386.77
615.146	320.31
615.346	401.88
615.545	401.11
615.745	395.49
615.944	416.02
616.144	377.66
616.343	417.19
616.542	339.3
616.742	391.22
616.941	376.89
617.14	354.02
617.34	387.93
617.539	361.97
617.738	356.35
617.938	435.59
618.137	371.27
618.336	369.33
618.535	357.71
618.734	352.47
618.934	381.15
619.133	370.88
619.332	387.74
619.531	349.57
619.73	393.74
619.929	405.56
620.128	403.62
620.328	396.84
620.527	348.79
620.726	357.9
620.925	398.97
621.124	345.5
621.323	397.42
621.522	316.05
621.721	353.06
621.92	341.82
622.119	360.22
622.318	329.22
622.517	345.89
622.715	348.41
622.914	295.51
623.113	348.79
623.312	329.03
623.511	354.41
623.71	347.44
623.909	348.79
624.107	413.7
624.306	327.29
624.505	309.27
624.704	324.19
624.902	352.67
625.101	374.17
625.3	354.61
625.499	324.38
625.697	312.95
625.896	324.96
626.095	367.01
626.293	301.91
626.492	331.16
626.69	379.79
626.889	298.81
627.088	365.84
627.286	304.43
627.485	303.84
627.683	324.19
627.882	361.77
628.08	278.27
628.279	286.21
628.477	366.04
628.676	307.53
628.874	348.99
629.073	324.58
629.271	280.59
629.469	337.56
629.668	302.68
629.866	321.09
630.065	305.98
630.263	329.03
630.461	290.09
630.66	316.24
630.858	334.26
631.056	344.34
631.254	343.56
631.453	306.17
631.651	395.29
631.849	345.5
632.047	328.26
632.245	329.22
632.444	345.11
632.642	341.24
632.84	343.95
633.038	315.47
633.236	274.2
633.434	323.03
633.632	285.63
633.83	273.23
634.028	350.73
634.227	306.56
634.425	380.18
634.623	316.05
634.821	323.03
635.019	291.83
635.216	290.67
635.414	338.91
635.612	312.37
635.81	323.22
636.008	389.09
636.206	320.31
636.404	348.21
636.602	300.36
636.8	346.66
636.997	317.79
637.195	319.15
637.393	290.28
637.591	391.22
637.789	324.96
637.986	313.34
638.184	317.79
638.382	358.87
638.58	331.55
638.777	361.39
638.975	305.01
639.173	340.66
639.37	322.25
639.568	344.92
639.765	361.39
639.963	321.48
640.161	375.72
640.358	345.69
640.556	320.12
640.753	308.11
640.951	288.54
641.148	322.25
641.346	325.93
641.543	336.78
641.741	344.14
641.938	295.32
642.136	309.08
642.333	290.28
642.531	358.87
642.728	354.22
642.925	329.22
643.123	298.81
643.32	295.9
643.517	291.83
643.715	355.19
643.912	271.88
644.109	315.08
644.306	300.94
644.504	282.53
644.701	303.46
644.898	313.14
645.095	274.78
645.293	293.38
645.49	342.21
645.687	330
645.884	329.81
646.081	255.41
646.278	284.66
646.475	295.32
646.672	286.21
646.87	332.32
647.067	310.43
647.264	295.32
647.461	269.55
647.658	241.46
647.855	312.76
648.052	306.17
648.249	206.39
648.446	274.98
648.642	273.43
648.839	266.26
649.036	262.58
649.233	252.31
649.43	245.91
649.627	256.38
649.824	262.58
650.021	243.01
650.217	269.55
650.414	244.75
650.611	305.59
650.808	281.18
651.004	292.99
651.201	297.06
651.398	324.58
651.595	284.08
651.791	269.94
651.988	286.99
652.185	267.23
652.381	285.24
652.578	219.76
652.775	255.02
652.971	245.33
653.168	250.37
653.364	268.39
653.561	246.88
653.757	248.04
653.954	249.79
654.15	247.66
654.347	313.92
654.543	260.25
654.74	239.71
654.936	239.52
655.133	258.7
655.329	286.02
655.525	255.99
655.722	271.88
655.918	221.5
656.115	278.46
656.311	186.63
656.507	229.45
656.704	203.1
656.9	214.33
657.096	206.2
657.292	221.5
657.489	273.43
657.685	277.11
657.881	257.54
658.077	233.51
658.273	214.91
658.47	301.71
658.666	217.63
658.862	254.44
659.058	234.87
659.254	280.79
659.45	234.29
659.646	248.43
659.842	213.95
660.038	293.19
660.234	234.48
660.43	243.59
660.626	295.13
660.822	279.04
661.018	285.63
661.214	260.44
661.41	216.85
661.606	267.42
661.802	235.65
661.998	264.13
662.194	218.79
662.39	280.79
662.586	285.24
662.781	269.55
662.977	249.4
663.173	283.11
663.369	264.71
663.564	268.78
663.76	283.11
663.956	254.44
664.152	281.76
664.347	197.09
664.543	262.96
664.739	260.83
664.934	230.41
665.13	218.01
665.326	258.51
665.521	256.18
665.717	188.76
665.912	230.41
666.108	177.33
666.304	248.63
666.499	231.38
666.695	177.52
666.89	232.93
667.086	276.14
667.281	238.94
667.477	281.76
667.672	236.81
667.867	229.25
668.063	241.26
668.258	224.8
668.454	248.82
668.649	293.19
668.844	246.3
669.04	259.86
669.235	243.2
669.43	192.83
669.626	178.88
669.821	210.46
670.016	198.45
670.211	234.48
670.407	216.66
670.602	204.65
670.797	247.66
670.992	281.76
671.187	198.83
671.382	256.96
671.578	229.06
671.773	244.36
671.968	189.53
672.163	228.09
672.358	265.48
672.553	203.68
672.748	219.76
672.943	278.08
673.138	238.36
673.333	243.01
673.528	190.89
673.723	235.45
673.918	214.53
674.113	170.16
674.308	276.72
674.503	244.17
674.698	238.16
674.892	251.34
675.087	246.69
675.282	232.35
675.477	193.6
675.672	249.01
675.867	204.06
676.061	176.75
676.256	181.2
676.451	186.43
676.646	214.33
676.84	186.82
677.035	180.62
677.23	177.91
677.424	251.53
677.619	249.01
677.814	255.6
678.008	246.88
678.203	204.26
678.397	196.51
678.592	202.32
678.787	258.89
678.981	206.97
679.176	208.52
679.37	205.81
679.565	183.53
679.759	198.64
679.954	243.98
680.148	281.18
680.342	280.59
680.537	232.74
680.731	180.62
680.926	214.91
681.12	219.76
681.314	188.95
681.509	216.08
681.703	193.6
681.897	254.24
682.092	189.53
682.286	200.58
682.48	263.54
682.674	218.6
682.869	209.1
683.063	209.49
683.257	290.09
683.451	198.64
683.645	221.5
683.839	223.25
684.034	206.97
684.228	239.13
684.422	181.98
684.616	177.52
684.81	229.64
685.004	222.47
685.198	226.73
685.392	242.62
685.586	175.58
685.78	216.85
685.974	255.41
686.168	234.87
686.362	285.63
686.556	200.58
686.75	174.61
686.944	211.43
687.138	228.48
687.331	156.6
687.525	195.73
687.719	140.13
687.913	197.48
688.107	206.97
688.301	171.71
688.494	209.68
688.688	149.62
688.882	140.9
689.076	143.81
689.269	163.18
689.463	254.44
689.657	194.57
689.85	161.83
690.044	181.01
690.238	190.5
690.431	171.13
690.625	175.2
690.818	201.93
691.012	198.45
691.205	225.96
691.399	174.61
691.593	219.76
691.786	253.86
691.98	239.33
692.173	254.24
692.366	210.26
692.56	213.56
692.753	275.17
692.947	180.81
693.14	251.53
693.333	251.34
693.527	169.58
693.72	245.14
693.914	215.69
694.107	223.25
694.3	231.38
694.493	218.6
694.687	258.31
694.88	199.41
695.073	284.08
695.266	273.23
695.46	243.98
695.653	277.88
695.846	264.9
696.039	180.43
696.232	237.39
696.425	278.46
696.618	289.89
696.812	252.31
697.005	348.99
697.198	370.3
697.391	269.16
697.584	298.81
697.777	317.6
697.97	322.44
698.163	314.11
698.356	303.07
698.549	375.92
698.742	357.32
698.935	320.89
699.127	329.42
699.32	287.76
699.513	305.01
699.706	349.37
699.899	352.47
700.092	304.62
700.285	365.26
700.477	334.46
700.67	368.75
700.863	371.66
701.056	456.52
701.248	404.01
701.441	392.58
701.634	375.53
701.826	479.38
702.019	365.26
702.212	426.29
702.404	356.54
702.597	384.83
702.79	366.42
702.982	399.56
703.175	402.07
703.367	426.49
703.56	413.89
703.752	497.01
703.945	441.02
704.137	473.76
704.33	471.44
704.522	466.4
704.715	472.4
704.907	459.62
705.1	474.34
705.292	491.2
705.484	521.03
705.677	487.71
705.869	507.08
706.061	554.17
706.254	561.92
706.446	499.34
706.638	514.06
706.831	584.39
707.023	523.17
707.215	596.21
707.407	585.55
707.599	581.48
707.792	601.63
707.984	558.62
708.176	605.31
708.368	566.18
708.56	614.42
708.752	579.74
708.944	561.14
709.136	627.01
709.329	629.34
709.521	682.81
709.713	655.3
709.905	675.84
710.097	719.04
710.289	646.39
710.481	648.71
710.672	672.55
710.864	643.29
711.056	691.53
711.248	697.93
711.44	732.22
711.632	676.42
711.824	702.19
712.016	770.19
712.207	754.11
712.399	738.23
712.591	782.79
712.783	750.43
712.975	769.42
713.166	740.74
713.358	751.4
713.55	824.44
713.741	805.84
713.933	808.56
714.125	772.91
714.316	773.87
714.508	868.62
714.7	855.05
714.891	821.34
715.083	899.62
715.274	840.14
715.466	827.74
715.657	884.31
715.849	753.14
716.04	849.24
716.232	769.81
716.423	868.42
716.615	835.29
716.806	798.29
716.998	801.39
717.189	765.74
717.381	677.78
717.572	695.6
717.763	765.93
717.955	745.39
718.146	739.39
718.337	697.34
718.528	681.26
718.72	663.25
718.911	718.66
719.102	684.75
719.293	707.42
719.485	697.15
719.676	706.06
719.867	666.54
720.058	668.48
720.249	677.78
720.44	708
720.632	726.6
720.823	746.56
721.014	842.85
721.205	831.03
721.396	834.71
721.587	881.79
721.778	896.52
721.969	935.46
722.16	921.51
722.351	933.33
722.542	1069.73
722.733	1052.48
722.924	978.86
723.115	1018.97
723.305	1022.45
723.496	1011.99
723.687	943.98
723.878	950.38
724.069	962.58
724.26	977.5
724.45	923.64
724.641	952.32
724.832	978.67
725.023	945.92
725.213	948.44
725.404	913.37
725.595	983.12
725.785	930.81
725.976	969.75
726.167	977.89
726.357	938.17
726.548	1069.34
726.739	992.81
726.929	1033.69
727.12	1037.37
727.31	1058.49
727.501	1049.77
727.691	1037.37
727.882	1026.52
728.072	1106.15
728.263	1090.85
728.453	1116.03
728.644	1101.11
728.834	1117.58
729.024	1075.15
729.215	1089.3
729.405	1094.53
729.596	1202.06
729.786	1168.15
729.976	1174.93
730.167	1182.29
730.357	1111
730.547	1131.73
730.737	1205.35
730.928	1237.32
731.118	1261.34
731.308	1193.14
731.498	1184.23
731.688	1292.34
731.879	1252.62
732.069	1319.47
732.259	1321.4
732.449	1311.91
732.639	1371.2
732.829	1378.17
733.019	1385.92
733.209	1434.17
733.399	1426.8
733.589	1491.9
733.779	1480.66
733.969	1474.85
734.159	1517.09
734.349	1559.13
734.539	1570.56
734.729	1557.78
734.919	1615.9
735.109	1616.87
735.299	1610.09
735.488	1604.66
735.678	1583.16
735.868	1622.68
736.058	1628.3
736.248	1609.12
736.437	1589.74
736.627	1539.76
736.817	1658.91
737.007	1646.9
737.196	1635.47
737.386	1606.21
737.576	1609.7
737.765	1665.89
737.955	1650.97
738.144	1728.47
738.334	1706.77
738.524	1664.34
738.713	1709.48
738.903	1730.02
739.092	1738.35
739.282	1752.3
739.471	1783.49
739.661	1741.25
739.85	1748.62
740.04	1768.96
740.229	1774.97
740.419	1801.7
740.608	1804.03
740.797	1853.05
740.987	1859.63
741.176	1803.84
741.365	1817.59
741.555	1800.15
741.744	1866.8
741.933	1855.76
742.123	1869.71
742.312	1856.15
742.501	1900.32
742.69	1915.43
742.88	1847.43
743.069	1979.18
743.258	1852.47
743.447	1924.73
743.636	1927.64
743.825	1899.16
744.014	1906.91
744.204	1942.17
744.393	1912.53
744.582	1916.79
744.771	1982.86
744.96	1925.9
745.149	1960.38
745.338	1906.52
745.527	1975.88
745.716	1954.57
745.905	1922.8
746.094	1983.25
746.283	1958.45
746.471	1946.43
746.66	2019.48
746.849	2014.83
747.038	2020.83
747.227	1977.05
747.416	2016.18
747.604	1944.5
747.793	1967.94
747.982	1992.93
748.171	1997
748.359	2017.34
748.548	1989.83
748.737	1998.36
748.926	1960.19
749.114	1902.65
749.303	1991.38
749.491	1976.46
749.68	1948.56
749.869	1997.39
750.057	1971.04
750.246	1967.94
750.434	1972.2
750.623	1948.95
750.811	1961.55
751	2025.48
751.188	1960.96
751.377	1951.86
751.565	1961.93
751.754	1958.25
751.942	1948.37
752.131	2006.3
752.319	1925.12
752.507	1932.1
752.696	1990.03
752.884	1971.23
753.072	1973.56
753.261	2002.81
753.449	1969.1
753.637	1952.05
753.825	2023.93
754.014	1967.36
754.202	1970.65
754.39	2043.89
754.578	1974.53
754.766	1952.05
754.955	1944.88
755.143	2040.98
755.331	1954.76
755.519	1931.9
755.707	1946.63
755.895	1938.1
756.083	1931.51
756.271	1899.16
756.459	1895.28
756.647	1995.84
756.835	1936.16
757.023	1893.15
757.211	1936.94
757.399	1891.6
757.587	1899.55
757.775	1882.11
757.963	1899.93
758.151	1871.26
758.339	1879.98
758.526	1913.88
758.714	1885.98
758.902	1809.84
759.09	1789.11
759.278	1657.36
759.465	1524.26
759.653	1317.92
759.841	1197.02
760.028	1053.84
760.216	906.59
760.404	847.5
760.591	675.45
760.779	576.06
760.967	512.7
761.154	423.19
761.342	457.87
761.529	440.05
761.717	495.27
761.905	445.67
762.092	504.57
762.28	453.22
762.467	471.63
762.655	381.54
762.842	453.22
763.029	459.04
763.217	420.29
763.404	445.09
763.592	474.15
763.779	394.32
763.966	459.42
764.154	502.44
764.341	530.53
764.528	516.77
764.716	553
764.903	593.11
765.09	615.2
765.277	619.46
765.465	754.69
765.652	767.67
765.839	828.32
766.026	896.32
766.213	901.75
766.4	963.36
766.588	1135.6
766.775	1105.18
766.962	1184.04
767.149	1170.28
767.336	1306.49
767.523	1253.79
767.71	1359.96
767.897	1413.43
768.084	1445.6
768.271	1456.83
768.458	1475.24
768.645	1559.13
768.832	1521.74
769.019	1545.76
769.206	1554.48
769.392	1600.4
769.579	1682.74
769.766	1686.81
769.953	1629.66
770.14	1686.04
770.327	1653.68
770.513	1710.06
770.7	1724.4
770.887	1671.51
771.073	1729.44
771.26	1667.44
771.447	1652.71
771.634	1675.77
771.82	1733.31
772.007	1685.46
772.193	1724.98
772.38	1724.98
772.567	1700.37
772.753	1711.03
772.94	1732.15
773.126	1693.59
773.313	1737.38
773.499	1753.27
773.686	1750.36
773.872	1699.6
774.059	1742.61
774.245	1682.94
774.432	1705.41
774.618	1638.76
774.804	1721.49
774.991	1638.18
775.177	1742.42
775.363	1705.99
775.55	1717.81
775.736	1700.76
775.922	1660.66
776.109	1672.09
776.295	1671.51
776.481	1706.57
776.667	1744.16
776.853	1671.12
777.04	1642.25
777.226	1647.67
777.412	1734.28
777.598	1651.55
777.784	1631.79
777.97	1657.75
778.156	1698.82
778.342	1647.09
778.528	1655.23
778.715	1559.91
778.901	1603.5
779.087	1642.64
779.272	1588.78
779.458	1592.84
779.644	1617.84
779.83	1623.26
780.016	1704.06
780.202	1620.74
780.388	1611.25
780.574	1545.76
780.76	1578.89
780.946	1626.94
781.131	1611.83
781.317	1616.09
781.503	1564.94
781.689	1596.33
781.874	1659.11
782.06	1584.51
782.246	1583.93
782.432	1581.8
782.617	1553.51
782.803	1607.38
782.989	1542.28
783.174	1549.25
783.36	1529.88
783.545	1544.99
783.731	1564.56
783.916	1496.75
784.102	1528.52
784.288	1467.88
784.473	1516.9
784.659	1510.89
784.844	1564.56
785.029	1500.04
785.215	1529.49
785.4	1461.87
785.586	1547.51
785.771	1491.32
785.956	1494.81
786.142	1498.88
786.327	1449.47
786.512	1510.89
786.698	1471.56
786.883	1426.03
787.068	1465.36
787.254	1503.72
787.439	1458.77
787.624	1465.75
787.809	1447.34
787.994	1434.17
788.18	1503.14
788.365	1396.19
788.55	1439.4
788.735	1458.58
788.92	1417.5
789.105	1401.23
789.29	1455.67
789.475	1389.8
789.66	1396.58
789.845	1351.63
790.03	1380.88
790.215	1436.1
790.4	1396.77
790.585	1435.33
790.77	1393.09
790.955	1306.29
791.14	1357.83
791.325	1432.81
791.51	1322.57
791.695	1365.77
791.879	1353.95
792.064	1315.98
792.249	1426.8
792.434	1351.05
792.618	1353.18
792.803	1394.45
792.988	1337.49
793.173	1343.1
793.357	1395.03
793.542	1314.04
793.727	1355.31
793.911	1395.8
794.096	1378.17
794.281	1385.92
794.465	1412.47
794.65	1356.67
794.834	1405.68
795.019	1441.92
795.203	1406.07
795.388	1388.44
795.572	1437.46
795.757	1396.58
795.941	1389.99
796.126	1413.05
796.31	1334.58
796.494	1400.07
796.679	1383.98
796.863	1331.09
797.048	1428.55
797.232	1423.51
797.416	1365.58
797.601	1392.7
797.785	1415.18
797.969	1421.57
798.153	1360.93
798.338	1383.6
798.522	1415.76
798.706	1400.45
798.89	1435.13
799.074	1477.37
799.258	1419.83
799.443	1412.08
799.627	1391.15
799.811	1442.3
799.995	1401.03
800.179	1339.42
800.363	1384.37
800.547	1381.27
800.731	1410.33
800.915	1348.72
801.099	1351.63
801.283	1411.5
801.467	1374.3
801.651	1371.78
801.835	1438.82
802.019	1392.7
802.202	1412.27
802.386	1350.47
802.57	1345.62
802.754	1380.11
802.938	1344.46
803.121	1335.94
803.305	1410.72
803.489	1362.09
803.673	1377.98
803.856	1396.77
804.04	1391.93
804.224	1380.3
804.407	1352.4
804.591	1340.97
804.775	1361.12
804.958	1391.35
805.142	1493.84
805.326	1363.06
805.509	1399.48
805.693	1401.03
805.876	1414.79
806.06	1379.53
806.243	1417.5
806.427	1430.48
806.61	1417.12
806.794	1375.46
806.977	1431.45
807.16	1396.38
807.344	1399.48
807.527	1402.39
807.71	1384.57
807.894	1396.77
808.077	1435.91
808.26	1365.39
808.444	1315.2
808.627	1389.6
808.81	1379.92
808.993	1329.15
809.177	1333.42
809.36	1334.39
809.543	1385.92
809.726	1264.06
809.909	1277.62
810.092	1278.78
810.276	1280.72
810.459	1322.95
810.642	1273.16
810.825	1268.32
811.008	1281.49
811.191	1214.07
811.374	1241.39
811.557	1234.8
811.74	1323.73
811.923	1210
812.106	1169.51
812.289	1163.69
812.472	1213.68
812.654	1214.07
812.837	1178.81
813.02	1112.35
813.203	1137.93
813.386	1066.43
813.569	1037.76
813.751	1037.95
813.934	1083.1
814.117	1054.42
814.3	1025.17
814.482	997.65
814.665	978.47
814.848	1003.85
815.03	907.75
815.213	939.72
815.396	921.9
815.578	910.66
815.761	910.08
815.943	971.69
816.126	872.3
816.309	896.13
816.491	843.62
816.674	796.16
816.856	872.88
817.039	833.94
817.221	890.9
817.403	817.47
817.586	831.61
817.768	876.75
817.951	770.97
818.133	820.57
818.315	848.47
818.498	829.29
818.68	917.83
818.862	869.39
819.045	891.09
819.227	902.33
819.409	812.24
819.591	896.71
819.774	890.9
819.956	830.84
820.138	921.32
820.32	889.93
820.502	907.56
820.684	954.83
820.866	958.52
821.048	981.38
821.231	992.81
821.413	960.84
821.595	955.42
821.777	985.45
821.959	937.98
822.141	1013.35
822.323	917.05
822.505	923.84
822.686	855.44
822.868	851.57
823.05	777.36
823.232	758.18
823.414	695.99
823.596	768.84
823.778	768.45
823.96	773.68
824.141	786.27
824.323	768.06
824.505	838.78
824.687	866.1
824.868	877.92
825.05	946.31
825.232	944.95
825.413	1006.95
825.595	953.48
825.777	914.73
825.958	952.32
826.14	933.91
826.321	965.68
826.503	938.56
826.685	949.02
826.866	954.25
827.048	962.39
827.229	925.58
827.411	881.21
827.592	874.82
827.773	876.56
827.955	826.19
828.136	867.07
828.318	824.06
828.499	851.95
828.68	820.57
828.862	880.44
829.043	876.56
829.224	854.86
829.406	800.81
829.587	823.09
829.768	802.36
829.949	868.23
830.131	844.01
830.312	913.76
830.493	852.92
830.674	883.34
830.855	831.22
831.036	840.14
831.218	891.67
831.399	872.3
831.58	874.82
831.761	877.72
831.942	862.8
832.123	846.53
832.304	809.14
832.485	829.29
832.666	841.11
832.847	871.91
833.028	880.05
833.209	867.26
833.389	844.01
833.57	793.06
833.751	838.2
833.932	852.73
834.113	874.43
834.294	814.56
834.475	873.85
834.655	907.56
834.836	905.82
835.017	906.2
835.198	828.9
835.378	866.29
835.559	887.8
835.74	867.45
835.92	851.76
836.101	843.04
836.281	873.27
836.462	888.19
836.643	895.35
836.823	883.34
837.004	926.74
837.184	925
837.365	890.7
837.545	923.84
837.726	841.49
837.906	937.4
838.087	889.54
838.267	898.84
838.448	850.21
838.628	870.75
838.808	906.79
838.989	971.11
839.169	866.29
839.349	924.03
839.53	898.65
839.71	898.65
839.89	880.05
840.07	971.11
840.251	889.15
840.431	928.29
840.611	884.89
840.791	843.04
840.971	887.02
841.151	847.89
841.332	894.97
841.512	903.69
841.692	842.07
841.872	888.96
842.052	879.66
842.232	906.98
842.412	847.69
842.592	869.59
842.772	924.22
842.952	886.05
843.132	861.84
843.312	844.4
843.492	839.56
843.672	889.74
843.851	836.26
844.031	876.75
844.211	856.41
844.391	829.67
844.571	853.7
844.751	893.8
844.93	888.57
845.11	867.26
845.29	858.93
845.47	885.28
845.649	867.84
845.829	896.71
846.009	858.93
846.188	900.2
846.368	857.57
846.547	865.52
846.727	887.02
846.907	824.06
847.086	860.87
847.266	875.59
847.445	850.41
847.625	829.48
847.804	837.23
847.984	849.63
848.163	825.99
848.343	843.04
848.522	845.56
848.701	856.41
848.881	833.36
849.06	845.37
849.239	859.7
849.419	857.57
849.598	799.84
849.777	825.8
849.957	815.14
850.136	738.61
850.315	739.58
850.494	774.46
850.674	746.94
850.853	821.54
851.032	802.36
851.211	823.47
851.39	807.39
851.569	760.12
851.748	753.92
851.927	823.67
852.107	791.89
852.286	757.41
852.465	721.95
852.644	782.79
852.823	799.26
853.002	779.69
853.181	771.94
853.359	774.65
853.538	745.59
853.717	831.22
853.896	711.49
854.075	701.22
854.254	723.5
854.433	639.61
854.611	714.98
854.79	661.5
854.969	715.56
855.148	721.95
855.327	683.59
855.505	715.94
855.684	677.78
855.863	689.59
856.041	668.67
856.22	750.43
856.399	710.33
856.577	770
856.756	703.54
856.934	883.73
857.113	840.33
857.291	762.25
857.47	731.44
857.648	765.16
857.827	764.77
858.005	754.11
858.184	753.14
858.362	779.3
858.541	742.1
858.719	752.37
858.898	751.21
859.076	701.22
859.254	799.64
859.433	758.18
859.611	725.63
859.789	717.3
859.967	765.16
860.146	781.24
860.324	704.51
860.502	721.56
860.68	709.36
860.859	685.53
861.037	701.03
861.215	747.91
861.393	739.19
861.571	724.47
861.749	704.51
861.927	741.71
862.105	735.71
862.283	725.44
862.461	672.93
862.639	674.48
862.817	716.14
862.995	718.08
863.173	676.81
863.351	703.16
863.529	717.11
863.707	769.61
863.885	716.72
864.063	622.36
864.241	689.59
864.418	752.18
864.596	675.45
864.774	656.66
864.952	668.28
865.129	711.88
865.307	627.79
865.485	631.66
865.663	700.06
865.84	640.58
866.018	634.57
866.196	583.03
866.373	604.15
866.551	583.03
866.728	569.08
866.906	599.89
867.084	600.08
867.261	627.01
867.439	633.6
867.616	648.33
867.794	622.17
867.971	628.18
868.149	642.13
868.326	672.35
868.503	660.15
868.681	661.31
868.858	635.15
869.035	577.61
869.213	670.41
869.39	618.88
869.567	671.96
869.745	632.63
869.922	636.7
870.099	645.81
870.276	654.33
870.454	672.16
870.631	674.87
870.808	634.96
870.985	681.84
871.162	676.61
871.339	643.1
871.517	598.73
871.694	592.91
871.871	638.45
872.048	633.41
872.225	619.65
872.402	659.18
872.579	577.8
872.756	612.48
872.933	588.46
873.11	603.38
873.287	606.67
873.463	602.99
873.64	613.45
873.817	608.22
873.994	592.14
874.171	598.53
874.348	632.44
874.524	555.13
874.701	623.33
874.878	553.97
875.055	615.78
875.231	609.77
875.408	613.06
875.585	550.48
875.762	612.1
875.938	583.23
876.115	609.38
876.291	565.4
876.468	585.55
876.645	535.57
876.821	557.27
876.998	585.75
877.174	594.66
877.351	558.43
877.527	579.93
877.704	578
877.88	592.72
878.057	557.65
878.233	594.85
878.409	571.22
878.586	565.21
878.762	558.43
878.938	575.87
879.115	505.15
879.291	550.68
879.467	512.32
879.644	518.32
879.82	579.16
879.996	539.25
880.172	492.94
880.349	539.25
880.525	558.82
880.701	535.37
880.877	504.95
881.053	553
881.229	540.41
881.405	581.1
881.581	486.55
881.757	542.54
881.933	560.75
882.109	546.03
882.285	520.45
882.461	473.95
882.637	547.38
882.813	521.42
882.989	512.51
883.165	583.42
883.341	515.61
883.517	555.13
883.693	554.17
883.869	570.83
884.044	504.57
884.22	547
884.396	570.83
884.572	563.08
884.747	578.19
884.923	547
885.099	550.48
885.275	573.93
885.45	507.28
885.626	494.1
885.801	501.08
885.977	488.29
886.153	455.16
886.328	543.12
886.504	510.77
886.679	543.32
886.855	524.72
887.03	557.85
887.206	562.11
887.381	556.3
887.557	529.37
887.732	527.43
887.908	542.15
888.083	554.55
888.258	528.01
888.434	523.36
888.609	532.85
888.784	570.05
888.96	505.34
889.135	525.68
889.31	491.78
889.485	533.63
889.661	505.53
889.836	585.75
890.011	551.07
890.186	506.12
890.361	498.95
890.537	522.78
890.712	533.24
890.887	510.77
891.062	517.74
891.237	566.95
891.412	500.69
891.587	556.88
891.762	558.43
891.937	573.35
892.112	483.25
892.287	532.08
892.462	502.05
892.637	475.5
892.812	484.03
892.987	474.73
893.161	487.71
893.336	477.64
893.511	484.61
893.686	483.64
893.861	445.86
894.035	472.79
894.21	494.69
894.385	424.16
894.56	445.86
894.734	441.4
894.909	421.84
895.084	448.57
895.258	448.96
895.433	440.44
895.608	438.89
895.782	388.71
895.957	386.96
896.131	423.77
896.306	355.96
896.48	377.66
896.655	389.29
896.829	342.59
897.004	344.14
897.178	333.29
897.353	331.74
897.527	364.68
897.701	349.37
897.876	324.38
898.05	367.39
898.224	341.62
898.399	413.89
898.573	350.73
898.747	274.59
898.921	357.12
899.096	268.58
899.27	258.31
899.444	267.23
899.618	314.31
899.792	296.68
899.967	282.34
900.141	355.38
900.315	285.44
900.489	284.28
900.663	330.19
900.837	318.18
901.011	279.04
901.185	364.49
901.359	306.36
901.533	304.62
901.707	311.01
901.881	322.64
902.055	263.74
902.229	306.36
902.403	366.81
902.576	300.55
902.75	305.39
902.924	402.85
903.098	345.11
903.272	362.16
903.446	393.16
903.619	354.02
903.793	409.82
903.967	331.16
904.14	410.6
904.314	392.77
904.488	380.37
904.661	402.66
904.835	387.16
905.009	451.09
905.182	440.24
905.356	395.49
905.529	421.06
905.703	371.46
905.876	381.73
906.05	354.02
906.223	357.51
906.397	295.9
906.57	308.11
906.744	297.84
906.917	278.08
907.09	295.32
907.264	300.16
907.437	291.64
907.61	266.06
907.784	279.24
907.957	274.2
908.13	253.28
908.304	296.29
908.477	264.32
908.65	280.98
908.823	251.14
908.996	314.5
909.17	282.92
909.343	260.44
909.516	277.88
909.689	286.79
909.862	245.14
910.035	297.06
910.208	252.69
910.381	228.67
910.554	317.6
910.727	273.81
910.9	261.41
911.073	246.3
911.246	312.95
911.419	286.41
911.592	303.65
911.765	259.86
911.938	257.15
912.11	269.55
912.283	230.61
912.456	292.61
912.629	251.14
912.802	261.61
912.974	227.7
913.147	206.78
913.32	172.87
913.493	187.79
913.665	240.3
913.838	225.96
914.01	226.54
914.183	239.52
914.356	209.88
914.528	261.99
914.701	285.63
914.873	277.3
915.046	221.89
915.218	208.91
915.391	166.48
915.563	197.09
915.736	241.46
915.908	269.16
916.081	216.66
916.253	242.23
916.425	246.11
916.598	242.81
916.77	227.51
916.942	194.18
917.115	183.14
917.287	220.34
917.459	217.82
917.632	176.55
917.804	154.85
917.976	185.46
918.148	230.22
918.32	232.55
918.493	225.38
918.665	264.9
918.837	240.68
919.009	284.66
919.181	255.6
919.353	266.06
919.525	226.15
919.697	202.51
919.869	249.98
920.041	288.54
920.213	326.71
920.385	261.61
920.557	222.28
920.729	253.28
920.901	246.69
921.073	224.02
921.244	221.89
921.416	275.75
921.588	261.41
921.76	225.57
921.932	290.67
922.103	231
922.275	232.35
922.447	229.45
922.619	188.95
922.79	220.73
922.962	206.39
923.134	264.32
923.305	227.31
923.477	183.53
923.648	203.87
923.82	224.21
923.991	179.46
924.163	177.71
924.335	202.13
924.506	172.87
924.677	238.36
924.849	210.07
925.02	211.81
925.192	223.83
925.363	212.78
925.535	220.92
925.706	202.32
925.877	250.76
926.049	168.61
926.22	198.64
926.391	220.15
926.562	217.24
926.734	188.76
926.905	224.41
927.076	166.09
927.247	180.43
927.419	181.98
927.59	152.14
927.761	179.46
927.932	167.83
928.103	188.18
928.274	118.82
928.445	141.1
928.616	163.96
928.787	167.06
928.958	166.28
929.129	161.83
929.3	160.47
929.471	99.63
929.642	92.08
929.813	39.38
929.984	138
930.155	60.3
930.326	136.83
930.496	82.58
930.667	37.44
930.838	92.08
931.009	76
931.18	78.32
931.35	79.29
931.521	82.2
931.692	48.87
931.863	27.37
932.033	77.93
932.204	102.54
932.374	73.67
932.545	24.07
932.716	109.9
932.886	74.45
933.057	-16.42
933.227	10.7
933.398	85.49
933.568	22.52
933.739	-4.8
933.909	30.85
934.08	90.72
934.25	-15.65
934.421	7.6
934.591	44.22
934.761	0.63
934.932	-29.79
935.102	9.15
935.272	6.05
935.443	33.18
935.613	-1.31
935.783	45.97
935.953	-6.15
936.123	133.35
936.294	-5.57
936.464	-6.35
936.634	-0.92
936.804	-1.11
936.974	-24.94
937.144	49.65
937.314	29.89
937.484	-6.35
937.655	20.39
937.825	49.07
937.995	-13.32
938.165	45.58
938.334	-7.12
938.504	16.52
938.674	-14.68
938.844	-3.05
939.014	76.97
939.184	15.16
939.354	94.4
939.524	57.59
939.694	15.94
939.863	18.26
940.033	87.82
940.203	58.56
940.373	65.54
940.542	67.08
940.712	29.69
940.882	94.6
941.051	90.92
941.221	75.42
941.391	88.4
941.56	58.17
941.73	2.57
941.899	130.05
942.069	40.15
942.238	52.55
942.408	67.08
942.577	71.35
942.747	63.4
942.916	-9.06
943.086	6.64
943.255	82.39
943.425	60.69
943.594	23.69
943.763	-6.35
943.933	-11.38
944.102	-44.71
944.271	3.92
944.441	31.05
944.61	22.72
944.779	32.99
944.948	111.07
945.117	8.38
945.287	35.7
945.456	-30.37
945.625	-3.44
945.794	54.3
945.963	8.77
946.132	44.61
946.301	-5.76
946.47	52.17
946.639	-22.04
946.808	8.77
946.977	46.74
947.146	88.2
947.315	10.7
947.484	72.7
947.653	11.09
947.822	28.34
947.991	17.87
948.16	100.02
948.329	62.24
948.498	-11.38
948.666	26.01
948.835	67.28
949.004	-14.87
949.173	7.22
949.341	51.59
949.51	52.55
949.679	58.75
949.847	42.87
950.016	121.14
950.185	74.25
950.353	35.5
950.522	16.71
950.69	77.35
950.859	18.65
951.028	37.44
951.196	28.14
951.365	26.59
951.533	18.65
951.701	65.92
951.87	62.05
952.038	4.7
952.207	32.6
952.375	113.39
952.543	38.22
952.712	32.4
952.88	12.45
953.048	88.78
953.217	33.18
953.385	29.69
953.553	68.25
953.721	4.12
953.89	51
954.058	-0.92
954.226	-2.28
954.394	18.45
954.562	-15.45
954.73	26.79
954.898	13.8
955.067	43.45
955.235	26.79
955.403	63.6
955.571	99.25
955.739	47.9
955.907	-0.53
956.075	3.15
956.243	6.25
956.41	35.31
956.578	-15.06
956.746	8.57
956.914	24.27
957.082	55.07
957.25	35.89
957.418	16.9
957.585	26.2
957.753	78.71
957.921	11.29
958.089	35.89
958.256	52.36
958.424	48.68
958.592	43.64
958.759	-0.92
958.927	44.42
959.095	27.95
959.262	61.47
959.43	58.17
959.597	-2.28
959.765	37.05
959.932	-9.25
960.1	40.74
960.267	37.44
960.435	27.75
960.602	51.97
960.77	3.73
960.937	-4.6
961.104	49.45
961.272	-24.36
961.439	22.52
961.606	52.75
961.774	56.82
961.941	17.68
962.108	61.27
962.275	50.62
962.443	86.85
962.61	68.44
962.777	93.43
962.944	56.82
963.111	60.11
963.278	67.28
963.446	50.23
963.613	26.59
963.78	48.68
963.947	69.22
964.114	46.94
964.281	87.43
964.448	58.75
964.615	42.29
964.782	45.39
964.949	62.82
965.116	64.95
965.282	102.73
965.449	37.25
965.616	30.27
965.783	52.94
965.95	50.23
966.117	11.29
966.283	35.31
966.45	50.04
966.617	74.83
966.784	70.96
966.95	67.86
967.117	68.05
967.284	17.1
967.45	44.03
967.617	104.48
967.784	58.95
967.95	71.15
968.117	26.98
968.283	104.87
968.45	112.81
968.616	38.02
968.783	82.97
968.949	42.09
969.116	74.64
969.282	59.34
969.449	83.36
969.615	44.22
969.781	-13.71
969.948	22.91
970.114	25.62
970.28	81.62
970.447	46.35
970.613	97.5
970.779	52.75
970.945	55.27
971.112	67.86
971.278	60.3
971.444	61.47
971.61	71.15
971.776	47.9
971.942	72.12
972.108	70.57
972.275	28.72
972.441	74.83
972.607	107.38
972.773	37.25
972.939	54.1
973.105	51.59
973.271	33.76
973.437	40.35
973.602	12.25
973.768	60.69
973.934	40.93
974.1	66.7
974.266	-3.83
974.432	48.49
974.598	33.18
974.763	85.68
974.929	34.54
975.095	117.65
975.261	32.6
975.426	10.7
975.592	51.59
975.758	112.42
975.923	5.86
976.089	26.2
976.255	82
976.42	64.18
976.586	71.73
976.751	70.77
976.917	120.37
977.082	57.4
977.248	21.36
977.413	-3.44
977.579	31.44
977.744	31.82
977.91	6.64
978.075	24.85
978.24	57.4
978.406	34.34
978.571	52.17
978.736	16.52
978.902	58.37
979.067	-3.83
979.232	-8.09
979.397	36.67
979.563	65.92
979.728	14.77
979.893	40.74
980.058	32.99
980.223	75.22
980.388	61.85
980.554	44.8
980.719	30.47
980.884	49.65
981.049	90.33
981.214	17.68
981.379	48.68
981.544	46.74
981.709	28.53
981.874	36.67
982.039	61.66
982.204	81.03
982.368	51.97
982.533	5.67
982.698	69.41
982.863	104.28
983.028	36.28
983.193	49.84
983.357	45.97
983.522	54.69
983.687	63.4
983.852	35.89
984.016	26.79
984.181	58.95
984.346	34.54
984.51	61.66
984.675	38.41
984.839	47.9
985.004	73.67
985.168	81.03
985.333	83.94
985.498	18.07
985.662	62.05
985.827	68.25
985.991	28.72
986.155	27.95
986.32	68.44
986.484	97.5
986.649	49.45
986.813	-11.96
986.977	50.04
987.142	71.73
987.306	34.34
987.47	12.64
987.634	50.62
987.799	62.44
987.963	53.52
988.127	57.59
988.291	130.05
988.455	35.7
988.62	47.52
988.784	57.59
988.948	57.59
989.112	3.54
989.276	40.54
989.44	69.41
989.604	29.89
989.768	59.14
989.932	131.8
990.096	8.57
990.26	-5.38
990.424	-12.74
990.588	20.2
990.752	108.93
990.915	59.72
991.079	17.49
991.243	11.67
991.407	81.42
991.571	18.65
991.734	33.95
991.898	79.87
992.062	128.89
992.226	40.15
992.389	42.48
992.553	-12.74
992.717	6.64
992.88	41.7
993.044	46.94
993.207	39.38
993.371	60.69
993.535	41.7
993.698	33.57
993.862	72.9
994.025	76.58
994.189	46.35
994.352	52.17
994.515	40.93
994.679	78.13
994.842	5.28
995.006	71.93
995.169	-2.86
995.332	11.67
995.496	42.48
995.659	10.9
995.822	62.24
995.985	45
996.149	81.42
996.312	43.06
996.475	67.67
996.638	36.67
996.801	67.86
996.964	101.38
997.128	32.21
997.291	9.54
997.454	71.35
997.617	13.03
997.78	80.84
997.943	34.54
998.106	75.03
998.269	24.27
998.432	47.9
998.595	45.97
998.758	0.63
998.92	-13.13
999.083	-21.07
999.246	11.67
999.409	-15.84
999.572	-37.93
999.735	13.42
999.897	34.54
1000.06	27.56
1000.223	7.02
1000.386	54.49
1000.548	61.47
1000.711	41.9
1000.874	45
1001.036	-12.35
1001.199	44.61
1001.361	7.6
1001.524	24.27
1001.687	59.53
1001.849	19.23
1002.012	24.46
1002.174	21.94
1002.337	54.49
1002.499	37.64
1002.661	49.84
1002.824	0.44
1002.986	2.95
1003.149	24.46
1003.311	3.92
1003.473	69.22
1003.636	6.05
1003.798	53.91
1003.96	50.42
1004.123	26.79
1004.285	35.5
1004.447	27.17
1004.609	46.94
1004.771	50.23
1004.933	0.05
1005.096	-7.7
1005.258	-30.18
1005.42	-5.96
1005.582	69.41
1005.744	23.88
1005.906	-29.59
1006.068	44.8
1006.23	-5.96
1006.392	-14.68
1006.554	-18.16
1006.716	50.42
1006.878	41.7
1007.04	-25.72
1007.202	36.47
1007.363	37.44
1007.525	31.44
1007.687	46.55
1007.849	62.44
1008.011	-34.63
1008.172	-0.92
1008.334	6.44
1008.496	36.67
1008.658	-24.94
1008.819	-4.21
1008.981	-34.44
1009.143	2.95
1009.304	22.14
1009.466	38.6
1009.627	79.1
1009.789	121.53
1009.95	41.51
1010.112	20.97
1010.273	15.94
1010.435	-16.61
1010.596	9.35
1010.758	-2.08
1010.919	5.67
1011.081	-25.14
1011.242	16.9
1011.403	34.15
1011.565	47.71
1011.726	38.41
1011.887	-8.09
1012.049	3.34
1012.21	56.04
1012.371	59.72
1012.532	-20.49
1012.693	13.03
1012.855	36.28
1013.016	23.3
1013.177	36.86
1013.338	13.61
1013.499	76.77
1013.66	61.08
1013.821	52.36
1013.982	41.32
1014.143	23.49
1014.304	-3.05
1014.465	12.45
1014.626	24.65
1014.787	6.05
1014.948	59.72
1015.109	-49.74
1015.27	88.4
1015.431	-11
1015.592	-11.96
1015.752	57.01
1015.913	5.28
1016.074	10.9
1016.235	23.49
1016.395	31.05
1016.556	3.73
1016.717	17.1
1016.877	26.4
1017.038	16.9
1017.199	48.49
1017.359	30.85
1017.52	34.15
1017.681	-2.86
1017.841	32.02
1018.002	-2.28
1018.162	-12.55
1018.323	45.39
1018.483	14.97
1018.644	6.83
1018.804	-42.19
1018.964	-20.88
1019.125	-3.05
1019.285	39.38
1019.446	2.57
1019.606	-29.98
1019.766	-22.04
1019.926	25.62
1020.087	25.24
1020.247	-15.45
1020.407	47.9
1020.567	43.25
1020.728	-2.86
1020.888	-27.08
1021.048	-4.6
1021.208	-19.33
1021.368	-25.33
1021.528	35.5
1021.688	42.09
1021.848	14.39
1022.008	55.85
1022.168	-4.41
1022.328	10.32
1022.488	30.27
1022.648	-18.94
1022.808	-2.66
1022.968	35.7
1023.128	-15.45
1023.288	8.57
1023.448	14.77
1023.608	35.7
1023.767	18.07
1023.927	-12.74
1024.087	-11.58
1024.247	-22.43
1024.406	13.22
1024.566	-18.55
1024.726	-5.76
1024.885	1.21
1025.045	32.99
1025.205	-1.5
1025.364	-14.68
1025.524	1.21
1025.683	4.12
1025.843	37.25
1026.003	25.04
1026.162	67.47
1026.321	48.49
1026.481	16.52
1026.64	4.89
1026.8	-0.53
1026.959	13.03
1027.119	14.19
1027.278	-15.45
1027.437	12.25
1027.597	17.29
1027.756	2.76
1027.915	26.98
1028.074	33.57
1028.234	-22.62
1028.393	18.84
1028.552	6.44
1028.711	-59.82
1028.87	60.69
1029.03	-5.96
1029.189	5.47
1029.348	-46.64
1029.507	-13.51
1029.666	2.37
1029.825	-4.8
1029.984	-9.06
1030.143	18.65
1030.302	13.22
1030.461	-54.78
1030.62	0.63
1030.779	25.24
1030.938	-9.06
1031.097	-19.52
1031.255	44.42
1031.414	47.13
1031.573	37.44
1031.732	-28.63
1031.891	-2.47
1032.049	45.97
1032.208	28.14
1032.367	-25.72
1032.525	-6.35
1032.684	-11.58
1032.843	14.58
1033.001	-41.03
1033.16	150.98
1033.319	51
1033.477	38.02
1033.636	-21.46
1033.794	-34.44
1033.953	10.7
1034.111	26.79
1034.27	-11.77
1034.428	19.23
1034.587	-23.78
1034.745	9.35
1034.903	28.14
1035.062	30.47
1035.22	-39.86
1035.378	32.02
1035.537	-30.76
1035.695	33.76
1035.853	9.93
1036.011	26.59
1036.17	45.77
1036.328	-35.02
1036.486	15.16
1036.644	22.91
1036.802	-59.04
1036.96	-3.25
1037.119	-4.8
1037.277	-22.04
1037.435	-28.63
1037.593	-6.93
1037.751	-16.61
1037.909	17.29
1038.067	17.29
