Data from oakcork_FLMT105791__42__17-27-17-056.txt Node

Date: Mon Mar 20 17:27:17 GMT 2023
User: antho
Spectrometer: FLMT10579
Trigger mode: 0
Integration Time (sec): 1.000000E-1
Scans to average: 10
Electric dark correction enabled: true
Nonlinearity correction enabled: false
Boxcar width: 0
XAxis mode: Wavelengths
Number of Pixels in Spectrum: 3648
>>>>>Begin Spectral Data<<<<<
345.248	-161.52
345.464	-161.52
345.681	-161.52
345.898	-178.38
346.114	-155.13
346.331	-33.65
346.548	32.03
346.764	-7.88
346.981	11.69
347.197	-10.01
347.414	13.05
347.631	-4.39
347.847	41.14
348.064	-13.89
348.28	3.36
348.497	-25.32
348.713	-6.14
348.93	19.63
349.146	23.51
349.363	-14.08
349.579	16.73
349.796	23.7
350.012	-7.88
350.229	35.13
350.445	29.32
350.661	-13.89
350.878	14.4
351.094	33.2
351.311	44.43
351.527	-7.1
351.743	1.42
351.96	31.06
352.176	46.37
352.392	45.79
352.609	42.11
352.825	-17.37
353.041	23.9
353.257	17.11
353.474	14.6
353.69	34.75
353.906	26.61
354.122	19.44
354.339	60.51
354.555	32.23
354.771	-5.17
354.987	72.53
355.203	74.46
355.42	3.94
355.636	-13.11
355.852	4.91
356.068	27.96
356.284	-32.1
356.5	33.2
356.716	41.91
356.932	16.92
357.148	43.08
357.364	32.61
357.58	74.85
357.796	82.99
358.012	63.61
358.228	36.49
358.444	-41.2
358.66	46.18
358.876	45.79
359.092	-16.99
359.308	40.36
359.524	40.36
359.74	22.73
359.956	11.5
360.172	23.31
360.388	39.01
360.604	15.18
360.819	85.51
361.035	26.22
361.251	34.36
361.467	8.78
361.683	78.73
361.898	49.66
362.114	52.57
362.33	49.66
362.546	52.57
362.762	27.38
362.977	57.22
363.193	-11.95
363.409	74.66
363.624	-16.4
363.84	18.28
364.056	0.65
364.271	24.67
364.487	37.26
364.703	20.21
364.918	-20.28
365.134	-6.33
365.35	13.63
365.565	110.11
365.781	32.03
365.996	23.7
366.212	93.64
366.427	55.48
366.643	35.71
366.858	6.85
367.074	-1.68
367.289	88.41
367.505	125.03
367.72	-17.37
367.936	19.05
368.151	55.28
368.367	57.22
368.582	6.07
368.798	-2.84
369.013	81.63
369.228	22.35
369.444	44.24
369.659	91.32
369.874	60.9
370.09	83.18
370.305	-24.35
370.52	9.95
370.736	75.82
370.951	38.04
371.166	96.16
371.381	82.41
371.597	37.85
371.812	-1.87
372.027	12.66
372.242	28.93
372.458	112.05
372.673	14.6
372.888	18.86
373.103	50.83
373.318	98.88
373.533	76.21
373.749	43.27
373.964	33.2
374.179	85.31
374.394	-9.04
374.609	84.93
374.824	5.49
375.039	70.2
375.254	23.7
375.469	89.38
375.684	40.56
375.899	54.7
376.114	62.26
376.329	32.23
376.544	68.46
376.759	68.07
376.974	-13.3
377.189	38.62
377.404	19.25
377.619	76.98
377.834	-6.72
378.049	-14.27
378.264	6.07
378.478	47.34
378.693	26.03
378.908	58.58
379.123	32.42
379.338	60.13
379.553	59.93
379.767	64.39
379.982	62.26
380.197	61.68
380.412	21.38
380.626	50.25
380.841	118.06
381.056	51.6
381.271	72.91
381.485	11.5
381.7	20.21
381.915	68.07
382.129	45.21
382.344	53.73
382.559	48.7
382.773	63.61
382.988	4.13
383.202	51.6
383.417	28.93
383.632	120.19
383.846	39.59
384.061	49.47
384.275	12.08
384.49	64
384.704	59.74
384.919	44.63
385.133	36.3
385.348	78.53
385.562	7.43
385.777	74.66
385.991	58.58
386.206	33.2
386.42	19.63
386.634	79.5
386.849	56.06
387.063	77.56
387.277	9.17
387.492	27.96
387.706	48.31
387.92	7.43
388.135	93.84
388.349	38.43
388.563	32.42
388.778	50.63
388.992	83.57
389.206	94.03
389.42	118.64
389.635	65.36
389.849	70.2
390.063	93.84
390.277	79.69
390.491	102.56
390.706	62.45
390.92	102.75
391.134	71.17
391.348	86.28
391.562	26.22
391.776	73.3
391.99	56.64
392.205	97.71
392.419	26.41
392.633	61.68
392.847	82.41
393.061	57.03
393.275	112.83
393.489	71.36
393.703	64
393.917	84.34
394.131	34.55
394.345	76.59
394.559	97.33
394.773	44.82
394.986	89.38
395.2	56.25
395.414	109.14
395.628	36.1
395.842	79.31
396.056	65.94
396.27	34.16
396.484	83.76
396.697	71.75
396.911	81.44
397.125	70.39
397.339	89.77
397.553	92.29
397.766	112.63
397.98	97.91
398.194	95.39
398.408	45.98
398.621	81.83
398.835	113.02
399.049	87.25
399.262	117.86
399.476	115.54
399.69	121.54
399.903	154.09
400.117	76.21
400.331	120.19
400.544	69.04
400.758	219
400.971	114.96
401.185	145.76
401.398	67.68
401.612	146.73
401.826	145.38
402.039	144.99
402.253	99.07
402.466	133.94
402.68	90.93
402.893	111.08
403.106	142.08
403.32	99.26
403.533	135.3
403.747	105.46
403.96	121.54
404.174	118.64
404.387	93.84
404.6	126.78
404.814	155.06
405.027	77.95
405.24	110.11
405.454	116.31
405.667	126.78
405.88	72.33
406.094	124.06
406.307	157.19
406.52	118.44
406.733	85.7
406.947	71.94
407.16	178.7
407.373	161.26
407.586	99.46
407.799	103.72
408.012	148.09
408.226	126.78
408.439	172.89
408.652	72.53
408.865	130.84
409.078	175.02
409.291	128.71
409.504	101.01
409.717	143.24
409.93	133.17
410.143	113.02
410.357	82.79
410.57	106.24
410.783	124.64
410.996	151.19
411.209	113.02
411.421	161.84
411.634	144.79
411.847	122.13
412.06	157.97
412.273	110.31
412.486	146.92
412.699	210.28
412.912	134.14
413.125	155.84
413.338	139.37
413.55	172.5
413.763	141.5
413.976	144.41
414.189	114.57
414.402	130.84
414.615	177.54
414.827	106.43
415.04	190.52
415.253	158.16
415.466	179.67
415.678	176.76
415.891	162.81
416.104	134.33
416.316	136.08
416.529	117.48
416.742	169.21
416.954	162.62
417.167	135.88
417.38	126.97
417.592	156.22
417.805	121.93
418.017	82.79
418.23	182.77
418.442	143.24
418.655	113.79
418.868	143.83
419.08	200.01
419.293	188.77
419.505	156.81
419.718	176.57
419.93	199.43
420.142	136.27
420.355	189.94
420.567	158.74
420.78	189.74
420.992	158.74
421.205	217.26
421.417	145.96
421.629	152.74
421.842	121.74
422.054	106.04
422.266	167.07
422.479	203.31
422.691	162.62
422.903	200.4
423.115	122.71
423.328	144.02
423.54	179.09
423.752	158.94
423.964	150.41
424.177	147.7
424.389	150.02
424.601	258.91
424.813	171.92
425.025	209.31
425.238	204.47
425.45	148.67
425.662	168.24
425.874	458.28
426.086	152.16
426.298	188
426.51	183.74
426.722	185.87
426.934	149.83
427.146	182.57
427.358	137.04
427.57	199.43
427.782	198.27
427.994	192.07
428.206	133.56
428.418	129.1
428.63	170.17
428.842	233.14
429.054	172.31
429.266	182.77
429.478	148.47
429.69	169.59
429.902	136.08
430.114	186.26
430.325	172.69
430.537	136.66
430.749	148.28
430.961	91.71
431.173	150.41
431.384	166.49
431.596	82.6
431.808	169.59
432.02	181.99
432.231	222.29
432.443	226.36
432.655	180.44
432.867	163.01
433.078	219
433.29	262.01
433.502	230.04
433.713	229.07
433.925	225.2
434.136	262.79
434.348	159.91
434.56	157.77
434.771	279.45
434.983	123.09
435.194	181.41
435.406	200.21
435.617	256
435.829	282.16
436.04	228.49
436.252	242.25
436.463	277.12
436.675	229.66
436.886	231.01
437.098	225.59
437.309	282.35
437.521	239.34
437.732	261.04
437.943	211.25
438.155	256.39
438.366	178.89
438.578	263.75
438.789	230.24
439	239.15
439.211	249.42
439.423	251.74
439.634	259.88
439.845	271.12
440.057	241.09
440.268	279.64
440.479	201.76
440.69	259.1
440.902	230.24
441.113	235.08
441.324	207.18
441.535	268.02
441.746	318.78
441.957	235.47
442.168	242.64
442.38	257.36
442.591	277.12
442.802	234.3
443.013	221.52
443.224	299.99
443.435	264.72
443.646	246.51
443.857	283.52
444.068	233.34
444.279	233.72
444.49	325.37
444.701	262.4
444.912	371.09
445.123	306.77
445.334	287.2
445.545	280.22
445.756	257.94
445.967	254.84
446.178	279.45
446.388	324.59
446.599	293.98
446.81	313.94
447.021	242.25
447.232	332.53
447.443	314.32
447.653	260.46
447.864	303.67
448.075	274.8
448.286	300.76
448.496	282.16
448.707	324.59
448.918	290.49
449.129	358.69
449.339	301.34
449.55	282.55
449.761	298.63
449.971	324.59
450.182	277.9
450.393	336.6
450.603	306.96
450.814	322.65
451.024	333.5
451.235	349
451.446	340.87
451.656	382.91
451.867	310.84
452.077	327.69
452.288	371.09
452.498	363.92
452.709	292.04
452.919	319.94
453.13	293.4
453.34	324.01
453.55	267.44
453.761	348.81
453.971	327.3
454.182	355.78
454.392	317.23
454.602	381.17
454.813	326.53
455.023	359.47
455.233	286.42
455.444	331.37
455.654	275.38
455.864	327.5
456.075	311.42
456.285	323.62
456.495	320.91
456.705	327.69
456.916	377.87
457.126	388.53
457.336	319.55
457.546	259.1
457.756	310.25
457.967	363.53
458.177	317.42
458.387	353.65
458.597	297.66
458.807	326.92
459.017	342.22
459.227	318.39
459.437	336.02
459.647	338.54
459.857	351.91
460.068	320.91
460.278	354.82
460.488	348.23
460.698	406.55
460.908	346.48
461.117	316.45
461.327	308.7
461.537	347.45
461.747	384.85
461.957	367.6
462.167	462.35
462.377	381.17
462.587	342.22
462.797	400.35
463.007	381.94
463.216	383.49
463.426	402.67
463.636	398.8
463.846	311.22
464.056	351.91
464.265	388.72
464.475	343.77
464.685	352.49
464.895	363.73
465.104	334.08
465.314	396.28
465.524	324.4
465.733	341.64
465.943	430.57
466.153	463.12
466.362	418.95
466.572	381.94
466.782	369.73
466.991	387.95
467.201	438.32
467.41	323.04
467.62	401.32
467.829	386.78
468.039	393.57
468.249	382.13
468.458	415.85
468.668	414.49
468.877	409.06
469.086	442.78
469.296	454.98
469.505	381.75
469.715	481.14
469.924	433.48
470.134	461.18
470.343	449.95
470.552	404.22
470.762	405.19
470.971	385.62
471.18	407.71
471.39	428.05
471.599	358.3
471.808	462.35
472.018	420.5
472.227	463.12
472.436	478.81
472.645	439.29
472.855	423.21
473.064	474.16
473.273	448.2
473.482	456.53
473.691	474.75
473.901	472.42
474.11	456.15
474.319	544.69
474.528	481.72
474.737	512.53
474.946	502.64
475.155	493.73
475.364	496.44
475.573	495.86
475.783	463.31
475.992	510.98
476.201	562.71
476.41	505.55
476.619	467
476.828	513.11
477.037	497.99
477.245	477.85
477.454	549.34
477.663	485.4
477.872	478.81
478.081	583.05
478.29	475.91
478.499	601.84
478.708	542.75
478.917	587.89
479.125	536.55
479.334	552.63
479.543	529.38
479.752	557.09
479.961	558.06
480.169	601.07
480.378	566.97
480.587	660.74
480.796	577.82
481.004	557.48
481.213	601.84
481.422	622.19
481.63	548.76
481.839	617.15
482.048	636.33
482.256	635.17
482.465	617.73
482.674	633.04
482.882	630.91
483.091	678.95
483.299	633.81
483.508	665.2
483.716	634.78
483.925	619.67
484.134	611.34
484.342	616.76
484.551	657.84
484.759	631.49
484.967	627.03
485.176	654.74
485.384	667.14
485.593	669.27
485.801	641.95
486.01	635.17
486.218	582.08
486.426	539.07
486.635	573.17
486.843	584.99
487.051	604.17
487.26	581.31
487.468	641.17
487.676	651.25
487.885	605.91
488.093	654.16
488.301	658.22
488.509	646.02
488.717	669.85
488.926	663.46
489.134	640.59
489.342	695.81
489.55	646.79
489.758	700.46
489.967	645.44
490.175	792.68
490.383	682.25
490.591	758.78
490.799	684.57
491.007	733.98
491.215	709.37
491.423	745.6
491.631	747.74
491.839	713.25
492.047	730.69
492.255	663.84
492.463	665.39
492.671	692.52
492.879	762.85
493.087	716.93
493.295	749.09
493.503	747.54
493.711	750.06
493.919	750.45
494.127	799.27
494.334	791.33
494.542	721
494.75	754.52
494.958	754.71
495.166	811.09
495.374	770.21
495.581	812.25
495.789	799.47
495.997	838.22
496.205	743.28
496.412	761.3
496.62	788.62
496.828	818.84
497.035	772.34
497.243	804.12
497.451	792.88
497.658	802.76
497.866	793.85
498.074	843.25
498.281	789.78
498.489	864.56
498.696	768.85
498.904	754.52
499.112	775.25
499.319	850.23
499.527	820.39
499.734	848.68
499.942	781.25
500.149	817.68
500.357	807.02
500.564	799.08
500.771	813.22
500.979	801.79
501.186	791.91
501.394	747.74
501.601	784.35
501.808	810.12
502.016	787.26
502.223	767.3
502.43	780.48
502.638	781.83
502.845	765.75
503.052	867.28
503.26	814
503.467	867.08
503.674	803.73
503.881	827.17
504.089	889.17
504.296	851
504.503	793.85
504.71	784.55
504.917	797.92
505.125	842.28
505.332	832.02
505.539	848.68
505.746	892.46
505.953	881.42
506.16	894.98
506.367	892.66
506.574	920.17
506.781	920.95
506.988	847.13
507.195	874.06
507.402	843.83
507.609	882.97
507.816	860.88
508.023	864.18
508.23	845.77
508.437	801.21
508.644	856.62
508.851	931.41
509.058	899.63
509.265	907
509.472	899.63
509.679	979.46
509.885	906.03
510.092	896.15
510.299	916.88
510.506	906.41
510.713	905.25
510.92	921.91
511.126	936.06
511.333	956.59
511.54	924.24
511.746	967.83
511.953	964.73
512.16	987.4
512.367	907
512.573	911.06
512.78	938.38
512.987	923.27
513.193	912.23
513.4	859.33
513.606	913.2
513.813	929.08
514.02	934.12
514.226	1003.09
514.433	983.91
514.639	908.55
514.846	923.08
515.052	897.31
515.259	916.49
515.465	924.05
515.672	952.91
515.878	989.34
516.085	925.6
516.291	993.41
516.497	947.68
516.704	936.83
516.91	900.41
517.117	854.49
517.323	825.04
517.529	843.45
517.736	876
517.942	847.32
518.148	836.08
518.354	906.03
518.561	889.95
518.767	936.83
518.973	966.86
519.179	958.92
519.386	927.73
519.592	915.33
519.798	928.89
520.004	992.83
520.21	968.41
520.417	979.07
520.623	1040.68
520.829	1063.74
521.035	1030.02
521.241	1055.02
521.447	1059.28
521.653	1124.57
521.859	1016.08
522.065	1059.28
522.271	1124.57
522.477	1078.46
522.683	1101.52
522.889	1057.15
523.095	1075.94
523.301	1042.62
523.507	1029.44
523.713	1091.44
523.919	1066.06
524.125	1124.77
524.331	1068.77
524.537	1195.68
524.742	1145.3
524.948	1154.41
525.154	1110.24
525.36	1244.5
525.566	1142.79
525.772	1200.33
525.977	1115.66
526.183	1157.7
526.389	1178.44
526.595	1127.48
526.8	1117.4
527.006	1067.03
527.212	1022.08
527.417	1050.37
527.623	1056.37
527.829	1127.87
528.034	1099.77
528.24	1111.98
528.446	1100.55
528.651	1212.34
528.857	1188.9
529.062	1240.43
529.268	1199.55
529.473	1224.35
529.679	1186.57
529.884	1287.13
530.09	1227.84
530.295	1270.27
530.501	1251.28
530.706	1244.31
530.912	1212.15
531.117	1253.22
531.323	1232.88
531.528	1278.02
531.733	1262.72
531.939	1239.47
532.144	1275.31
532.35	1244.5
532.555	1302.43
532.76	1294.68
532.966	1280.73
533.171	1271.05
533.376	1205.56
533.581	1206.53
533.787	1232.88
533.992	1279.18
534.197	1289.06
534.402	1254.97
534.607	1237.14
534.813	1352.61
535.018	1248.57
535.223	1246.63
535.428	1296.43
535.633	1351.45
535.838	1338.08
536.043	1310.76
536.249	1382.64
536.454	1351.84
536.659	1348.35
536.864	1292.16
537.069	1296.23
537.274	1327.04
537.479	1325.3
537.684	1338.28
537.889	1262.72
538.094	1408.22
538.299	1329.17
538.504	1337.89
538.708	1335.95
538.913	1366.18
539.118	1350.87
539.323	1331.69
539.528	1298.17
539.733	1316
539.938	1340.6
540.142	1351.26
540.347	1291.39
540.552	1300.69
540.757	1343.9
540.962	1316.38
541.166	1249.93
541.371	1241.6
541.576	1307.86
541.781	1209.63
541.985	1340.41
542.19	1348.55
542.395	1398.34
542.599	1424.3
542.804	1359.01
543.008	1412.68
543.213	1351.26
543.418	1303.6
543.622	1365.6
543.827	1287.51
544.031	1424.49
544.236	1389.43
544.44	1372.38
544.645	1439.41
544.849	1377.22
545.054	1460.72
545.258	1457.62
545.463	1432.63
545.667	1356.1
545.872	1415
546.076	1382.06
546.281	1409.19
546.485	1363.85
546.689	1404.93
546.894	1439.03
547.098	1381.87
547.302	1387.88
547.507	1403.38
547.711	1400.08
547.915	1465.37
548.119	1372.57
548.324	1345.45
548.528	1418.49
548.732	1417.52
548.936	1443.68
549.141	1457.43
549.345	1391.94
549.549	1412.68
549.753	1419.26
549.957	1481.26
550.161	1479.32
550.366	1407.25
550.57	1386.52
550.774	1427.79
550.978	1402.99
551.182	1432.83
551.386	1393.69
551.59	1397.76
551.794	1401.44
551.998	1436.7
552.202	1409.19
552.406	1381.29
552.61	1435.34
552.814	1451.43
553.018	1482.42
553.222	1386.33
553.426	1384.97
553.63	1473.71
553.833	1380.9
554.037	1344.48
554.241	1410.93
554.445	1414.42
554.649	1360.75
554.853	1356.1
555.056	1434.18
555.26	1470.8
555.464	1448.71
555.668	1441.93
555.871	1444.45
556.075	1482.62
556.279	1370.05
556.483	1360.36
556.686	1410.16
556.89	1415.39
557.094	1417.91
557.297	1347.58
557.501	1438.25
557.704	1354.75
557.908	1415.58
558.112	1364.82
558.315	1459.17
558.519	1370.24
558.722	1356.49
558.926	1376.83
559.129	1298.75
559.333	1326.46
559.536	1304.56
559.74	1335.95
559.943	1285.96
560.147	1296.43
560.35	1319.29
560.553	1333.43
560.757	1273.37
560.96	1373.15
561.164	1322
561.367	1373.15
561.57	1333.82
561.774	1353.58
561.977	1334.79
562.18	1306.11
562.384	1398.14
562.587	1302.82
562.79	1290.81
562.993	1295.65
563.197	1348.55
563.4	1371.02
563.603	1353.97
563.806	1403.18
564.009	1302.43
564.212	1330.91
564.416	1254
564.619	1336.34
564.822	1258.45
565.025	1323.36
565.228	1285
565.431	1303.4
565.634	1219.12
565.837	1272.98
566.04	1251.28
566.243	1254
566.446	1181.34
566.649	1276.08
566.852	1203.43
567.055	1209.43
567.258	1248.57
567.461	1308.25
567.664	1297.59
567.867	1199.55
568.07	1249.73
568.273	1246.44
568.475	1307.66
568.678	1229.97
568.881	1229.78
569.084	1228.03
569.287	1151.12
569.489	1129.03
569.692	1241.21
569.895	1196.07
570.098	1102.68
570.3	1181.73
570.503	1097.45
570.706	1118.18
570.909	1142.4
571.111	1098.03
571.314	1093.57
571.516	1135.42
571.719	1132.9
571.922	1147.05
572.124	1141.62
572.327	1142.01
572.529	1105.01
572.732	1087.96
572.935	1130.97
573.137	1170.88
573.34	1092.22
573.542	1177.27
573.745	1132.32
573.947	1144.92
574.15	1109.27
574.352	1104.23
574.554	1175.53
574.757	1107.91
574.959	1086.21
575.162	1082.14
575.364	1070.32
575.566	1181.15
575.769	1058.7
575.971	1083.69
576.173	1010.46
576.376	1090.67
576.578	1099.19
576.78	1163.32
576.982	990.89
577.185	1069.55
577.387	1051.72
577.589	1032.54
577.791	1071.29
577.993	1085.82
578.196	1043.97
578.398	1072.84
578.6	1085.44
578.802	1024.6
579.004	998.83
579.206	1031.96
579.408	1051.72
579.61	977.52
579.812	1091.06
580.014	1020.92
580.216	1009.1
580.418	1033.12
580.62	1042.42
580.822	1019.18
581.024	1037.58
581.226	1078.85
581.428	1012.2
581.63	1130.77
581.832	1008.13
582.034	1065.67
582.236	1033.51
582.438	1097.26
582.64	1107.91
582.841	1149.57
583.043	1152.67
583.245	1080.21
583.447	1073.23
583.649	1055.41
583.85	1058.51
584.052	1101.13
584.254	1004.84
584.456	1127.67
584.657	987.01
584.859	1048.24
585.061	1069.55
585.262	1007.36
585.464	986.63
585.666	1072.07
585.867	1011.23
586.069	1109.07
586.27	1071.87
586.472	1007.74
586.674	1036.42
586.875	1021.31
587.077	992.63
587.278	1052.5
587.48	999.61
587.681	1098.61
587.883	1033.71
588.084	973.26
588.285	1013.17
588.487	1026.73
588.688	1004.84
588.89	957.95
589.091	943.61
589.292	912.81
589.494	900.41
589.695	869.21
589.896	833.37
590.098	833.18
590.299	906.61
590.5	873.28
590.702	859.91
590.903	923.27
591.104	978.1
591.305	929.28
591.507	996.12
591.708	946.33
591.909	937.61
592.11	1007.16
592.311	980.04
592.512	917.85
592.714	876.58
592.915	919.4
593.116	894.01
593.317	953.3
593.518	940.13
593.719	936.25
593.92	947.49
594.121	975.19
594.322	944.97
594.523	920.36
594.724	903.7
594.925	912.81
595.126	939.16
595.327	957.37
595.528	944.39
595.729	931.8
595.929	946.52
596.13	911.65
596.331	944.78
596.532	945.55
596.733	1017.04
596.934	967.06
597.135	959.31
597.335	943.23
597.536	932.38
597.737	946.13
597.938	957.56
598.138	960.47
598.339	918.62
598.54	948.65
598.74	909.51
598.941	933.73
599.142	1018.79
599.342	963.96
599.543	957.95
599.744	922.3
599.944	916.1
600.145	952.72
600.345	918.62
600.546	1026.54
600.746	973.84
600.947	988.95
601.147	951.17
601.348	979.26
601.548	906.03
601.749	954.46
601.949	913.78
602.15	912.81
602.35	920.95
602.551	961.05
602.751	906.22
602.951	873.67
603.152	832.02
603.352	953.49
603.552	904.67
603.753	944.78
603.953	935.48
604.153	918.62
604.354	901.76
604.554	934.31
604.754	928.89
604.954	885.68
605.155	930.44
605.355	918.81
605.555	951.36
605.755	968.22
605.955	942.26
606.155	957.56
606.356	898.86
606.556	916.49
606.756	913
606.956	836.08
607.156	1001.54
607.356	921.72
607.556	907.38
607.756	919.01
607.956	948.07
608.156	932.57
608.356	896.34
608.556	946.13
608.756	910.48
608.956	885.3
609.156	900.99
609.356	870.38
609.556	871.73
609.755	893.82
609.955	866.11
610.155	892.46
610.355	911.45
610.555	854.3
610.755	885.3
610.954	799.08
611.154	869.8
611.354	914.75
611.554	869.99
611.753	842.09
611.953	817.1
612.153	894.98
612.352	856.62
612.552	818.26
612.752	811.87
612.951	852.75
613.151	868.63
613.351	816.52
613.55	839.38
613.75	851
613.949	851.2
614.149	878.51
614.348	857.78
614.548	811.48
614.747	791.72
614.947	816.9
615.146	810.32
615.346	874.06
615.545	836.08
615.745	850.42
615.944	843.06
616.144	840.54
616.343	836.47
616.542	828.53
616.742	802.18
616.941	801.6
617.14	765.37
617.34	815.16
617.539	827.17
617.738	785.32
617.938	876.58
618.137	809.15
618.336	768.08
618.535	851.2
618.734	784.35
618.934	824.27
619.133	831.82
619.332	850.23
619.531	794.62
619.73	814.58
619.929	871.93
620.128	822.72
620.328	877.93
620.527	804.5
620.726	815.55
620.925	773.89
621.124	800.05
621.323	812.83
621.522	777.96
621.721	759.55
621.92	737.27
622.119	801.02
622.318	777.77
622.517	806.83
622.715	792.49
622.914	747.93
623.113	769.43
623.312	741.15
623.511	784.16
623.71	727.2
623.909	730.1
624.107	822.33
624.306	695.42
624.505	763.82
624.704	720.8
624.902	767.5
625.101	822.33
625.3	759.94
625.499	727.78
625.697	744.64
625.896	742.12
626.095	740.95
626.293	716.74
626.492	727
626.69	746.96
626.889	711.89
627.088	751.61
627.286	714.8
627.485	716.15
627.683	720.03
627.882	753.74
628.08	683.41
628.279	697.17
628.477	783.97
628.676	676.82
628.874	735.34
629.073	669.46
629.271	691.94
629.469	737.66
629.668	700.46
629.866	700.65
630.065	694.07
630.263	722.94
630.461	682.64
630.66	715.19
630.858	719.45
631.056	740.18
631.254	754.52
631.453	697.94
631.651	739.21
631.849	703.95
632.047	717.7
632.245	714.99
632.444	738.63
632.642	728.36
632.84	720.61
633.038	686.51
633.236	673.53
633.434	683.99
633.632	672.56
633.83	700.07
634.028	725.26
634.227	718.48
634.425	763.43
634.623	713.25
634.821	737.85
635.019	743.67
635.216	721.39
635.414	734.37
635.612	692.52
635.81	713.44
636.008	758
636.206	671.98
636.404	733.79
636.602	679.34
636.8	685.93
636.997	731.27
637.195	744.83
637.393	704.53
637.591	766.53
637.789	754.9
637.986	678.37
638.184	725.45
638.382	742.89
638.58	749.48
638.777	761.1
638.975	700.85
639.173	711.31
639.37	724.87
639.568	714.8
639.765	753.16
639.963	698.14
640.161	746.38
640.358	711.31
640.556	678.76
640.753	696
640.951	669.07
641.148	708.6
641.346	651.83
641.543	702.01
641.741	706.66
641.938	667.52
642.136	679.92
642.333	652.22
642.531	739.99
642.728	741.15
642.925	699.88
643.123	684.19
643.32	698.72
643.517	675.08
643.715	673.14
643.912	665.2
644.109	678.76
644.306	673.34
644.504	650.28
644.701	679.92
644.898	736.11
645.095	594.67
645.293	673.72
645.49	682.25
645.687	681.86
645.884	708.99
646.081	643.89
646.278	658.42
646.475	626.84
646.672	651.83
646.87	693.1
647.067	677.21
647.264	641.95
647.461	622.19
647.658	623.93
647.855	664.42
648.052	618.51
648.249	564.26
648.446	603.39
648.642	603.39
648.839	604.56
649.036	604.75
649.233	588.47
649.43	553.79
649.627	566
649.824	576.46
650.021	598.94
650.217	606.69
650.414	579.95
650.611	627.81
650.808	619.09
651.004	609.98
651.201	634.78
651.398	655.9
651.595	597.97
651.791	591.96
651.988	604.94
652.185	598.94
652.381	642.14
652.578	581.5
652.775	606.88
652.971	596.61
653.168	602.81
653.364	640.21
653.561	541.78
653.757	612.89
653.954	611.34
654.15	589.64
654.347	655.71
654.543	577.63
654.74	562.51
654.936	566.19
655.133	585.76
655.329	567.74
655.525	587.7
655.722	610.95
655.918	573.36
656.115	587.51
656.311	496.83
656.507	474.75
656.704	465.45
656.9	492.96
657.096	521.63
657.292	477.85
657.489	575.3
657.685	544.69
657.881	521.63
658.077	552.83
658.273	542.56
658.47	605.72
658.666	546.82
658.862	555.15
659.058	534.61
659.254	617.54
659.45	536.94
659.646	566.58
659.842	582.08
660.038	616.37
660.234	544.88
660.43	573.56
660.626	639.43
660.822	596.42
661.018	574.53
661.214	587.7
661.41	521.44
661.606	607.85
661.802	604.17
661.998	575.11
662.194	544.3
662.39	615.21
662.586	566.58
662.781	588.47
662.977	603.01
663.173	586.73
663.369	561.93
663.564	596.42
663.76	619.47
663.956	550.31
664.152	620.06
664.347	503.23
664.543	563.68
664.739	567.16
664.934	503.03
665.13	492.76
665.326	585.18
665.521	601.84
665.717	540.62
665.912	525.31
666.108	482.5
666.304	549.14
666.499	545.85
666.695	497.61
666.89	550.89
667.086	590.8
667.281	553.41
667.477	610.95
667.672	544.49
667.867	566.39
668.063	540.23
668.258	509.04
668.454	538.88
668.649	609.01
668.844	551.47
669.04	596.42
669.235	526.28
669.43	531.51
669.626	508.46
669.821	519.5
670.016	489.08
670.211	542.56
670.407	517.56
670.602	539.26
670.797	532.68
670.992	568.71
671.187	510.39
671.382	582.28
671.578	507.49
671.773	554.38
671.968	484.43
672.163	530.16
672.358	530.16
672.553	510.01
672.748	478.04
672.943	578.59
673.138	515.82
673.333	533.26
673.528	498.38
673.723	528.61
673.918	524.54
674.113	470.1
674.308	603.78
674.503	556.31
674.698	539.26
674.892	547.98
675.087	577.43
675.282	567.16
675.477	497.99
675.672	538.1
675.867	498.19
676.061	484.82
676.256	488.31
676.451	503.81
676.646	522.41
676.84	488.11
677.035	474.75
677.23	462.54
677.424	545.08
677.619	532.09
677.814	546.24
678.008	543.91
678.203	451.88
678.397	464.48
678.592	521.83
678.787	529.96
678.981	481.72
679.176	476.1
679.37	496.44
679.565	466.41
679.759	469.9
679.954	511.56
680.148	543.91
680.342	556.7
680.537	525.51
680.731	495.67
680.926	510.59
681.12	499.93
681.314	473.78
681.509	495.28
681.703	487.34
681.897	529.58
682.092	484.63
682.286	483.46
682.48	560.58
682.674	541.59
682.869	490.05
683.063	484.82
683.257	555.34
683.451	471.45
683.645	497.99
683.839	503.81
684.034	474.16
684.228	550.11
684.422	443.94
684.616	478.81
684.81	507.49
685.004	486.76
685.198	487.73
685.392	521.44
685.586	472.42
685.78	522.41
685.974	532.09
686.168	507.49
686.362	576.66
686.556	479.98
686.75	433.48
686.944	423.79
687.138	464.09
687.331	370.51
687.525	382.52
687.719	341.25
687.913	427.66
688.107	422.24
688.301	361.02
688.494	429.02
688.688	336.02
688.882	330.79
689.076	348.62
689.269	377.1
689.463	464.48
689.657	385.04
689.85	426.5
690.044	377.1
690.238	413.52
690.431	411.2
690.625	411
690.818	426.31
691.012	409.84
691.205	451.5
691.399	416.81
691.593	442.97
691.786	517.76
691.98	484.24
692.173	502.26
692.366	491.41
692.56	502.06
692.753	515.43
692.947	457.31
693.14	527.25
693.333	522.02
693.527	473
693.72	508.65
693.914	486.95
694.107	487.15
694.3	509.23
694.493	489.08
694.687	522.79
694.88	489.47
695.073	560.96
695.266	532.87
695.46	510.78
695.653	554.57
695.846	549.53
696.039	482.3
696.232	508.26
696.425	590.41
696.618	538.88
696.812	552.05
697.005	586.15
697.198	660.94
697.391	586.54
697.584	614.05
697.777	616.57
697.97	639.24
698.163	631.29
698.356	613.86
698.549	691.74
698.742	677.4
698.935	599.32
699.127	649.7
699.32	595.26
699.513	599.32
699.706	657.06
699.899	679.34
700.092	655.9
700.285	679.34
700.477	625.48
700.67	670.04
700.863	699.69
701.056	750.45
701.248	739.21
701.441	722.16
701.634	690.77
701.826	768.66
702.019	676.63
702.212	756.26
702.404	713.44
702.597	704.72
702.79	712.28
702.982	747.35
703.175	783.58
703.367	761.88
703.56	796.95
703.752	872.51
703.945	807.02
704.137	834.15
704.33	850.42
704.522	838.6
704.715	854.3
704.907	873.48
705.1	896.73
705.292	902.15
705.484	877.35
705.677	894.6
705.869	896.92
706.061	958.14
706.254	959.5
706.446	915.91
706.638	904.86
706.831	1010.26
707.023	940.13
707.215	1037.77
707.407	1023.05
707.599	1018.21
707.792	1056.96
707.984	1022.66
708.176	1078.85
708.368	1010.46
708.56	1062.77
708.752	1045.14
708.944	1019.76
709.136	1067.61
709.329	1048.04
709.521	1181.92
709.713	1148.02
709.905	1131.55
710.097	1153.64
710.289	1114.5
710.481	1132.32
710.672	1145.3
710.864	1179.21
711.056	1209.63
711.248	1200.13
711.44	1207.3
711.632	1210.79
711.824	1230.36
712.016	1270.27
712.207	1284.8
712.399	1253.61
712.591	1332.08
712.783	1282.67
712.975	1328.59
713.166	1264.27
713.358	1312.9
713.55	1362.88
713.741	1331.5
713.933	1360.17
714.125	1336.53
714.316	1332.85
714.508	1433.41
714.7	1385.16
714.891	1421.01
715.083	1480.1
715.274	1390.01
715.466	1438.44
715.657	1460.92
715.849	1324.71
716.04	1414.61
716.232	1362.11
716.423	1451.04
716.615	1347.58
716.806	1362.88
716.998	1345.45
717.189	1310.57
717.381	1201.88
717.572	1201.88
717.763	1221.06
717.955	1243.92
718.146	1180.95
718.337	1161.97
718.528	1166.42
718.72	1110.04
718.911	1151.31
719.102	1124.96
719.293	1174.56
719.485	1180.37
719.676	1177.47
719.867	1137.36
720.058	1135.42
720.249	1120.31
720.44	1175.53
720.632	1187.54
720.823	1232.88
721.014	1334.01
721.205	1318.32
721.396	1417.13
721.587	1465.18
721.778	1496.96
721.969	1514.59
722.16	1596.15
722.351	1559.92
722.542	1663.97
722.733	1694.77
722.924	1558.76
723.115	1651.95
723.305	1613.4
723.496	1676.75
723.687	1540.94
723.878	1544.23
724.069	1594.41
724.26	1588.21
724.45	1548.88
724.641	1519.43
724.832	1596.54
725.023	1577.55
725.213	1547.52
725.404	1534.16
725.595	1532.22
725.785	1526.79
725.976	1608.36
726.167	1598.87
726.357	1603.32
726.548	1730.61
726.739	1649.24
726.929	1698.07
727.12	1686.63
727.31	1724.22
727.501	1654.86
727.691	1708.14
727.882	1675.59
728.072	1722.09
728.263	1739.91
728.453	1766.07
728.644	1789.71
728.834	1749.99
729.024	1747.28
729.215	1733.52
729.405	1765.1
729.596	1838.53
729.786	1857.13
729.976	1866.63
730.167	1856.94
730.357	1851.32
730.547	1860.43
730.737	1886
730.928	1965.63
731.118	1963.89
731.308	1923.2
731.498	1925.52
731.688	2013.1
731.879	2008.84
732.069	2046.04
732.259	2096.02
732.449	2113.27
732.639	2206.46
732.829	2189.41
733.019	2235.71
733.209	2287.44
733.399	2259.35
733.589	2352.35
733.779	2352.54
733.969	2328.71
734.159	2417.06
734.349	2449.8
734.539	2485.26
734.729	2483.32
734.919	2515.48
735.109	2544.16
735.299	2486.04
735.488	2551.13
735.678	2544.74
735.868	2557.72
736.058	2525.95
736.248	2536.8
736.437	2488.36
736.627	2503.28
736.817	2641.03
737.007	2577.1
737.196	2614.68
737.386	2586.4
737.576	2603.64
737.765	2660.02
737.955	2612.36
738.144	2729.38
738.334	2706.91
738.524	2637.16
738.713	2697.99
738.903	2669.71
739.092	2719.89
739.282	2680.94
739.471	2735.19
739.661	2734.81
739.85	2750.89
740.04	2804.94
740.229	2809.98
740.419	2824.12
740.608	2795.64
740.797	2822.57
740.987	2898.72
741.176	2870.04
741.365	2829.55
741.555	2761.54
741.744	2897.36
741.933	2863.07
742.123	2871.59
742.312	2903.17
742.501	2921.58
742.69	2942.89
742.88	2873.53
743.069	3008.38
743.258	2955.48
743.447	2979.7
743.636	3003.34
743.825	2943.08
744.014	2985.32
744.204	3033.95
744.393	2968.08
744.582	3062.24
744.771	3060.69
744.96	2990.36
745.149	3038.41
745.338	2970.4
745.527	3047.9
745.716	3056.43
745.905	3004.7
746.094	3053.91
746.283	3045.58
746.471	3071.93
746.66	3130.44
746.849	3088.2
747.038	3123.66
747.227	3014.19
747.416	3116.3
747.604	3066.5
747.793	3034.73
747.982	3071.15
748.171	3088.4
748.359	3094.01
748.548	3116.3
748.737	3060.5
748.926	3083.16
749.114	2970.6
749.303	3094.21
749.491	3037.44
749.68	3002.76
749.869	3113.58
750.057	3057.4
750.246	3038.41
750.434	3037.44
750.623	3072.9
750.811	3059.72
751	3094.79
751.188	3029.11
751.377	3073.86
751.565	3069.8
751.754	3014
751.942	3029.3
752.131	3074.06
752.319	3063.98
752.507	3014.97
752.696	3044.61
752.884	3087.04
753.072	3004.5
753.261	3045.96
753.449	3031.24
753.637	3016.9
753.825	3073.48
754.014	3013.8
754.202	3046.55
754.39	3052.55
754.578	3093.05
754.766	2999.47
754.955	2999.08
755.143	3086.65
755.331	3026.2
755.519	3012.06
755.707	2991.52
755.895	3030.46
756.083	3046.74
756.271	2969.24
756.459	3017.68
756.647	3035.89
756.835	2984.74
757.023	2969.82
757.211	2985.13
757.399	2986.48
757.587	2988.23
757.775	2918.87
757.963	2954.13
758.151	2935.14
758.339	2918.29
758.526	2902.59
758.714	2930.69
758.902	2799.32
759.09	2778.21
759.278	2601.7
759.465	2371.72
759.653	2096.8
759.841	1892.59
760.028	1618.44
760.216	1388.07
760.404	1326.07
760.591	1085.24
760.779	888.01
760.967	815.16
761.154	663.07
761.342	710.92
761.529	684.77
761.717	729.72
761.905	706.27
762.092	842.48
762.28	714.02
762.467	707.24
762.655	675.66
762.842	690.58
763.029	731.46
763.217	703.95
763.404	741.92
763.592	739.79
763.779	706.85
763.966	748.12
764.154	777.96
764.341	826.78
764.528	806.25
764.716	908.93
764.903	946.33
765.09	1006.39
765.277	1058.31
765.465	1189.48
765.652	1260.2
765.839	1300.3
766.026	1381.68
766.213	1452.59
766.4	1546.55
766.588	1718.99
766.775	1700.39
766.962	1839.89
767.149	1885.61
767.336	2024.92
767.523	1996.44
767.71	2137.1
767.897	2175.85
768.084	2283.76
768.271	2273.11
768.458	2339.76
768.645	2394.59
768.832	2382.19
769.019	2412.99
769.206	2432.75
769.392	2478.09
769.579	2551.33
769.766	2524.78
769.953	2546.68
770.14	2602.28
770.327	2569.93
770.513	2658.66
770.7	2684.24
770.887	2567.6
771.073	2644.52
771.26	2660.41
771.447	2673
771.634	2585.23
771.82	2703.81
772.007	2599.76
772.193	2669.13
772.38	2655.76
772.567	2643.75
772.753	2633.28
772.94	2679.98
773.126	2629.8
773.313	2690.83
773.499	2718.34
773.686	2678.23
773.872	2618.75
774.059	2682.11
774.245	2594.34
774.432	2614.1
774.618	2534.47
774.804	2659.05
774.991	2559.66
775.177	2657.89
775.363	2610.61
775.55	2645.3
775.736	2582.52
775.922	2589.5
776.109	2573.22
776.295	2608.68
776.481	2608.48
776.667	2629.21
776.853	2592.02
777.04	2547.84
777.226	2570.51
777.412	2678.04
777.598	2549.2
777.784	2506.96
777.97	2559.66
778.156	2577.29
778.342	2518
778.528	2527.11
778.715	2479.84
778.901	2536.41
779.087	2546.29
779.272	2494.75
779.458	2523.23
779.644	2507.73
779.83	2485.84
780.016	2610.23
780.202	2502.7
780.388	2490.49
780.574	2436.05
780.76	2464.53
780.946	2495.34
781.131	2519.55
781.317	2428.49
781.503	2440.7
781.689	2463.75
781.874	2563.53
782.06	2440.89
782.246	2428.88
782.432	2400.98
782.617	2425.59
782.803	2493.98
782.989	2363.01
783.174	2387.03
783.36	2344.79
783.545	2401.95
783.731	2388.58
783.916	2313.6
784.102	2392.07
784.288	2355.45
784.473	2357.77
784.659	2368.82
784.844	2422.68
785.029	2326.58
785.215	2344.02
785.4	2289.96
785.586	2368.62
785.771	2296.16
785.956	2334.72
786.142	2311.47
786.327	2290.74
786.512	2277.37
786.698	2321.54
786.883	2217.11
787.068	2272.53
787.254	2229.32
787.439	2235.33
787.624	2240.56
787.809	2227.96
787.994	2213.05
788.18	2310.31
788.365	2171.58
788.55	2203.55
788.735	2192.31
788.92	2194.45
789.105	2163.06
789.29	2212.08
789.475	2186.31
789.66	2154.92
789.845	2152.6
790.03	2127.41
790.215	2158.8
790.4	2200.06
790.585	2212.46
790.77	2175.65
790.955	2067.15
791.14	2175.07
791.325	2174.1
791.51	2062.12
791.695	2127.8
791.879	2070.83
792.064	2102.22
792.249	2173.33
792.434	2100.67
792.618	2058.44
792.803	2140.97
792.988	2100.48
793.173	2121.6
793.357	2150.08
793.542	2110.55
793.727	2110.17
793.911	2122.76
794.096	2091.57
794.281	2146.98
794.465	2260.32
794.65	2097.96
794.834	2139.81
795.019	2195.03
795.203	2166.55
795.388	2200.06
795.572	2192.7
795.757	2165.19
795.941	2163.83
796.126	2156.47
796.31	2109.58
796.494	2099.7
796.679	2096.99
796.863	2108.42
797.048	2198.32
797.232	2188.05
797.416	2141.36
797.601	2142.72
797.785	2220.8
797.969	2199.48
798.153	2152.79
798.338	2161.7
798.522	2181.46
798.706	2202.2
798.89	2227
799.074	2261.09
799.258	2224.86
799.443	2165
799.627	2203.16
799.811	2179.72
799.995	2189.02
800.179	2135.93
800.363	2151.43
800.547	2156.86
800.731	2200.26
800.915	2086.92
801.099	2121.21
801.283	2137.29
801.467	2176.04
801.651	2132.06
801.835	2211.11
802.019	2150.08
802.202	2186.5
802.386	2143.68
802.57	2090.98
802.754	2143.68
802.938	2104.93
803.121	2152.98
803.305	2201.42
803.489	2134.58
803.673	2124.7
803.856	2144.07
804.04	2151.63
804.224	2156.86
804.407	2144.65
804.591	2118.3
804.775	2103.19
804.958	2130.51
805.142	2215.18
805.326	2173.91
805.509	2176.43
805.693	2201.23
805.876	2183.21
806.06	2168.29
806.243	2216.15
806.427	2251.21
806.61	2187.47
806.794	2183.98
806.977	2206.65
807.16	2141.55
807.344	2191.15
807.527	2176.62
807.71	2160.15
807.894	2160.93
808.077	2196.58
808.26	2117.92
808.444	2088.66
808.627	2146.59
808.81	2113.46
808.993	2077.42
809.177	2113.65
809.36	2103.77
809.543	2128.96
809.726	1996.63
809.909	2022.98
810.092	2016.39
810.276	1996.05
810.459	2023.95
810.642	2009.61
810.825	1981.13
811.008	2016
811.191	1916.61
811.374	1923.97
811.557	1927.46
811.74	2014.45
811.923	1869.14
812.106	1876.7
812.289	1862.56
812.472	1889.49
812.654	1873.79
812.837	1806.95
813.02	1815.67
813.203	1766.07
813.386	1675.01
813.569	1671.91
813.751	1582.79
813.934	1689.54
814.117	1645.37
814.3	1628.7
814.482	1572.9
814.665	1532.61
814.848	1537.64
815.03	1472.16
815.213	1468.47
815.396	1453.17
815.578	1434.96
815.761	1410.54
815.943	1442.71
816.126	1383.23
816.309	1407.64
816.491	1305.92
816.674	1252.45
816.856	1317.93
817.039	1327.23
817.221	1384.78
817.403	1299.33
817.586	1345.25
817.768	1329.36
817.951	1259.42
818.133	1246.63
818.315	1315.61
818.498	1340.6
818.68	1367.73
818.862	1349.13
819.045	1391.36
819.227	1343.51
819.409	1368.5
819.591	1385.55
819.774	1350.87
819.956	1321.61
820.138	1400.47
820.32	1372.18
820.502	1421.59
820.684	1476.42
820.866	1474.87
821.048	1561.47
821.231	1554.3
821.413	1511.87
821.595	1506.26
821.777	1530.86
821.959	1511.87
822.141	1582.2
822.323	1457.43
822.505	1417.52
822.686	1353.2
822.868	1295.07
823.05	1202.27
823.232	1188.12
823.414	1134.84
823.596	1210.79
823.778	1199.17
823.96	1259.62
824.141	1231.52
824.323	1253.03
824.505	1257.68
824.687	1343.31
824.868	1347.96
825.05	1478.94
825.232	1479.32
825.413	1552.75
825.595	1509.36
825.777	1456.27
825.958	1493.66
826.14	1487.07
826.321	1511.29
826.503	1461.69
826.685	1502.19
826.866	1488.62
827.048	1501.22
827.229	1441.74
827.411	1419.84
827.592	1375.09
827.773	1351.26
827.955	1301.46
828.136	1343.12
828.318	1303.79
828.499	1378.19
828.68	1307.47
828.862	1341.76
829.043	1371.99
829.224	1310.76
829.406	1277.25
829.587	1311.35
829.768	1321.81
829.949	1352.81
830.131	1297.01
830.312	1363.85
830.493	1325.3
830.674	1349.13
830.855	1312.9
831.036	1353.39
831.218	1375.09
831.399	1430.69
831.58	1348.93
831.761	1321.81
831.942	1353.2
832.123	1314.83
832.304	1316
832.485	1328.98
832.666	1340.6
832.847	1359.59
833.028	1349.13
833.209	1332.66
833.389	1334.6
833.57	1269.5
833.751	1303.6
833.932	1350.68
834.113	1365.01
834.294	1340.41
834.475	1350.29
834.655	1380.71
834.836	1395.43
835.017	1390.78
835.198	1305.73
835.378	1375.09
835.559	1387.68
835.74	1364.43
835.92	1341.76
836.101	1340.21
836.281	1401.44
836.462	1390.39
836.643	1416.36
836.823	1407.44
837.004	1424.3
837.184	1448.13
837.365	1405.12
837.545	1446.19
837.726	1421.59
837.906	1467.89
838.087	1393.11
838.267	1399.89
838.448	1383.23
838.628	1377.99
838.808	1347.58
838.989	1421.01
839.169	1375.67
839.349	1400.08
839.53	1429.73
839.71	1430.69
839.89	1354.94
840.07	1459.37
840.251	1350.48
840.431	1455.88
840.611	1369.86
840.791	1379.93
840.971	1389.62
841.151	1392.14
841.332	1348.35
841.512	1440.77
841.692	1355.52
841.872	1414.61
842.052	1364.24
842.232	1407.25
842.412	1334.98
842.592	1363.85
842.772	1377.8
842.952	1393.88
843.132	1382.45
843.312	1355.13
843.492	1316.38
843.672	1377.41
843.851	1300.88
844.031	1334.6
844.211	1374.7
844.391	1329.17
844.571	1367.73
844.751	1385.55
844.93	1370.44
845.11	1324.52
845.29	1336.53
845.47	1347.96
845.649	1351.65
845.829	1370.05
846.009	1345.06
846.188	1365.6
846.368	1369.86
846.547	1358.04
846.727	1371.21
846.907	1298.75
847.086	1350.68
847.266	1377.61
847.445	1337.89
847.625	1325.88
847.804	1300.3
847.984	1338.66
848.163	1328.2
848.343	1318.51
848.522	1319.87
848.701	1340.6
848.881	1274.92
849.06	1305.92
849.239	1322.2
849.419	1310.76
849.598	1258.45
849.777	1249.73
849.957	1257.1
850.136	1193.74
850.315	1176.89
850.494	1192.77
850.674	1194.32
850.853	1248.57
851.032	1225.13
851.211	1300.5
851.39	1241.79
851.569	1183.28
851.748	1193.55
851.927	1218.15
852.107	1245.28
852.286	1190.25
852.465	1202.46
852.644	1270.85
852.823	1250.12
853.002	1206.53
853.181	1212.53
853.359	1242.37
853.538	1159.45
853.717	1235.59
853.896	1143.95
854.075	1092.99
854.254	1094.93
854.433	990.69
854.611	1097.06
854.79	1005.42
854.969	1085.44
855.148	1125.93
855.327	1048.24
855.505	1081.37
855.684	1068.97
855.863	1103.07
856.041	1108.88
856.22	1138.91
856.399	1103.26
856.577	1206.14
856.756	1150.92
856.934	1265.62
857.113	1257.1
857.291	1167.78
857.47	1143.56
857.648	1181.92
857.827	1192.97
858.005	1196.65
858.184	1129.8
858.362	1246.63
858.541	1185.41
858.719	1174.37
858.898	1163.32
859.076	1131.55
859.254	1234.62
859.433	1135.42
859.611	1135.62
859.789	1083.11
859.967	1184.83
860.146	1189.67
860.324	1088.92
860.502	1143.75
860.68	1066.64
860.859	1094.54
861.037	1131.16
861.215	1154.8
861.393	1102.29
861.571	1133.29
861.749	1070.52
861.927	1139.1
862.105	1144.34
862.283	1101.71
862.461	1071.68
862.639	1074.01
862.817	1071.68
862.995	1108.1
863.173	1060.64
863.351	1102.68
863.529	1089.31
863.707	1146.47
863.885	1117.99
864.063	1038.94
864.241	1102.29
864.418	1119.34
864.596	1083.89
864.774	1041.26
864.952	1083.5
865.129	1088.54
865.307	1062.77
865.485	995.54
865.663	1085.44
865.84	988.76
866.018	1041.65
866.196	916.49
866.373	931.41
866.551	942.45
866.728	857.98
866.906	950.78
867.084	928.5
867.261	952.33
867.439	993.21
867.616	1028.09
867.794	992.44
867.971	1011.62
868.149	983.72
868.326	1037.39
868.503	1041.46
868.681	1005.23
868.858	973.84
869.035	967.06
869.213	1033.12
869.39	955.43
869.567	1049.21
869.745	957.37
869.922	1017.43
870.099	998.44
870.276	1028.67
870.454	1015.11
870.631	1022.86
870.808	1000.77
870.985	1013.56
871.162	1047.85
871.339	1014.14
871.517	945.36
871.694	952.91
871.871	961.44
872.048	972.29
872.225	948.07
872.402	996.89
872.579	915.33
872.756	999.99
872.933	942.64
873.11	965.89
873.287	970.35
873.463	969.38
873.64	939.74
873.817	955.43
873.994	945.36
874.171	932.57
874.348	972.09
874.524	924.43
874.701	950.39
874.878	884.13
875.055	938.96
875.231	947.49
875.408	954.27
875.585	856.62
875.762	921.33
875.938	903.31
876.115	879.29
876.291	908.74
876.468	911.26
876.645	856.23
876.821	894.21
876.998	894.01
877.174	895.95
877.351	908.93
877.527	886.26
877.704	907.58
877.88	884.52
878.057	875.41
878.233	925.6
878.409	885.68
878.586	905.06
878.762	891.11
878.938	907.19
879.115	823.49
879.291	865.15
879.467	842.09
879.644	848.68
879.82	898.66
879.996	826.2
880.172	783.19
880.349	867.28
880.525	894.79
880.701	847.9
880.877	830.08
881.053	863.4
881.229	801.21
881.405	851.97
881.581	811.28
881.757	827.56
881.933	856.23
882.109	878.51
882.285	874.45
882.461	787.84
882.637	846.93
882.813	807.22
882.989	831.63
883.165	899.63
883.341	817.87
883.517	857.01
883.693	852.94
883.869	856.23
884.044	810.51
884.22	853.52
884.396	884.52
884.572	846.93
884.747	884.13
884.923	865.15
885.099	886.26
885.275	872.7
885.45	805.67
885.626	789.58
885.801	787.26
885.977	773.89
886.153	763.23
886.328	818.45
886.504	826.59
886.679	854.88
886.855	824.85
887.03	843.45
887.206	857.98
887.381	833.18
887.557	828.92
887.732	823.3
887.908	840.73
888.083	885.88
888.258	832.21
888.434	805.47
888.609	825.62
888.784	882.97
888.96	838.99
889.135	810.7
889.31	813.42
889.485	836.28
889.661	834.73
889.836	867.86
890.011	856.62
890.186	814.58
890.361	828.72
890.537	834.73
890.712	846.35
890.887	845.19
891.062	824.07
891.237	904.09
891.412	813.8
891.587	846.74
891.762	868.05
891.937	859.72
892.112	771.37
892.287	796.95
892.462	790.55
892.637	758.97
892.812	711.12
892.987	769.63
893.161	762.65
893.336	755.49
893.511	766.72
893.686	775.05
893.861	769.24
894.035	755.87
894.21	769.43
894.385	713.83
894.56	727.97
894.734	690.58
894.909	671.59
895.084	690.77
895.258	665.97
895.433	696.39
895.608	644.66
895.782	637.11
895.957	645.63
896.131	627.81
896.306	577.04
896.48	607.46
896.655	601.07
896.829	552.44
897.004	584.02
897.178	562.71
897.353	557.28
897.527	600.87
897.701	568.52
897.876	511.36
898.05	594.09
898.224	566.78
898.399	573.75
898.573	563.48
898.747	431.54
898.921	564.45
899.096	401.51
899.27	442
899.444	452.46
899.618	437.16
899.792	499.35
899.967	477.85
900.141	516.01
900.315	455.76
900.489	489.28
900.663	497.99
900.837	498.77
901.011	438.13
901.185	542.94
901.359	513.49
901.533	491.99
901.707	505.74
901.881	491.02
902.055	444.13
902.229	476.88
902.403	535
902.576	488.89
902.75	495.86
902.924	616.37
903.098	517.18
903.272	592.74
903.446	595.84
903.619	577.63
903.793	622.38
903.967	589.06
904.14	633.62
904.314	623.54
904.488	615.79
904.661	612.11
904.835	612.11
905.009	632.65
905.182	682.64
905.356	650.86
905.529	609.4
905.703	566.78
905.876	590.99
906.05	535.58
906.223	547.59
906.397	503.42
906.57	481.91
906.744	467.58
906.917	488.11
907.09	487.73
907.264	528.8
907.437	463.31
907.61	451.11
907.784	454.21
907.957	443.36
908.13	436.58
908.304	464.86
908.477	422.43
908.65	425.92
908.823	391.82
908.996	493.15
909.17	418.75
909.343	422.63
909.516	446.65
909.689	423.98
909.862	410.03
910.035	418.95
910.208	387.75
910.381	412.75
910.554	489.86
910.727	418.56
910.9	398.22
911.073	411.78
911.246	484.24
911.419	494.9
911.592	451.88
911.765	421.27
911.938	397.63
912.11	414.68
912.283	436.19
912.456	489.47
912.629	438.32
912.802	399.57
912.974	386.4
913.147	331.37
913.32	298.63
913.493	334.08
913.665	370.12
913.838	363.53
914.01	361.6
914.183	359.08
914.356	366.44
914.528	379.81
914.701	469.32
914.873	404.61
915.046	356.17
915.218	344.93
915.391	313.16
915.563	297.66
915.736	374.97
915.908	390.08
916.081	344.55
916.253	353.27
916.425	352.88
916.598	367.8
916.77	373.03
916.942	360.24
917.115	295.34
917.287	363.34
917.459	334.67
917.632	293.4
917.804	277.7
917.976	364.7
918.148	343.38
918.32	349.39
918.493	374.38
918.665	414.3
918.837	350.55
919.009	429.6
919.181	412.16
919.353	390.08
919.525	387.56
919.697	373.61
919.869	389.69
920.041	441.23
920.213	498.96
920.385	442.39
920.557	374.19
920.729	408.29
920.901	404.42
921.073	392.02
921.244	388.92
921.416	429.6
921.588	384.65
921.76	387.17
921.932	460.6
922.103	386.59
922.275	373.8
922.447	383.88
922.619	330.79
922.79	389.88
922.962	331.37
923.134	388.92
923.305	335.25
923.477	351.91
923.648	322.65
923.82	375.93
923.991	303.09
924.163	311.42
924.335	332.73
924.506	305.22
924.677	371.09
924.849	325.37
925.02	366.05
925.192	350.55
925.363	326.14
925.535	353.85
925.706	319.55
925.877	365.67
926.049	307.35
926.22	347.07
926.391	350.94
926.562	362.76
926.734	305.02
926.905	327.3
927.076	264.53
927.247	291.27
927.419	254.07
927.59	269.18
927.761	271.89
927.932	262.2
928.103	255.81
928.274	251.55
928.445	235.47
928.616	230.82
928.787	246.32
928.958	252.52
929.129	249.42
929.3	246.51
929.471	200.98
929.642	157.19
929.813	118.06
929.984	249.03
930.155	114.18
930.326	212.99
930.496	148.86
930.667	132.39
930.838	142.28
931.009	121.35
931.18	129.68
931.35	112.24
931.521	135.11
931.692	115.73
931.863	62.84
932.033	110.5
932.204	98.68
932.374	112.83
932.545	85.7
932.716	149.83
932.886	123.87
933.057	54.31
933.227	80.08
933.398	114.96
933.568	79.11
933.739	7.23
933.909	47.53
934.08	111.08
934.25	17.5
934.421	23.12
934.591	63.61
934.761	14.98
934.932	-24.15
935.102	41.53
935.272	39.2
935.443	37.07
935.613	35.71
935.783	46.56
935.953	-5.55
936.123	185.87
936.294	19.63
936.464	32.03
936.634	38.04
936.804	-7.49
936.974	-20.28
937.144	76.98
937.314	50.25
937.484	20.02
937.655	12.66
937.825	81.83
937.995	14.01
938.165	70.78
938.334	40.75
938.504	78.34
938.674	30.1
938.844	50.63
939.014	80.28
939.184	97.13
939.354	113.02
939.524	104.11
939.694	76.59
939.863	63.23
940.033	140.34
940.203	140.53
940.373	108.18
940.542	133.56
940.712	71.17
940.882	112.05
941.051	107.21
941.221	107.59
941.391	132.01
941.56	74.46
941.73	34.55
941.899	172.31
942.069	83.18
942.238	87.44
942.408	58
942.577	113.99
942.747	88.61
942.916	43.66
943.086	38.62
943.255	100.04
943.425	66.91
943.594	62.45
943.763	4.33
943.933	54.12
944.102	0.65
944.271	54.31
944.441	87.83
944.61	51.8
944.779	56.06
944.948	140.14
945.117	33.78
945.287	48.89
945.456	14.01
945.625	44.05
945.794	48.11
945.963	39.59
946.132	63.81
946.301	41.14
946.47	86.67
946.639	-2.07
946.808	47.34
946.977	66.71
947.146	107.21
947.315	47.34
947.484	75.82
947.653	37.07
947.822	44.24
947.991	28.55
948.16	133.17
948.329	94.81
948.498	46.56
948.666	61.87
948.835	74.85
949.004	9.36
949.173	33.39
949.341	90.35
949.51	73.11
949.679	121.16
949.847	74.66
950.016	135.88
950.185	103.53
950.353	35.52
950.522	47.15
950.69	101.59
950.859	41.72
951.028	108.37
951.196	89.96
951.365	41.72
951.533	39.01
951.701	99.46
951.87	67.29
952.038	17.11
952.207	77.95
952.375	118.06
952.543	16.34
952.712	93.64
952.88	46.95
953.048	122.32
953.217	81.05
953.385	35.71
953.553	113.99
953.721	25.45
953.89	36.1
954.058	12.66
954.226	42.5
954.394	82.02
954.562	19.25
954.73	52.57
954.898	82.02
955.067	113.79
955.235	54.12
955.403	102.75
955.571	159.52
955.739	90.35
955.907	39.98
956.075	50.25
956.243	36.3
956.41	69.04
956.578	42.3
956.746	33.39
956.914	51.99
957.082	92.87
957.25	67.88
957.418	28.35
957.585	82.02
957.753	105.08
957.921	49.47
958.089	76.79
958.256	95.58
958.424	81.24
958.592	82.79
958.759	43.27
958.927	88.99
959.095	55.48
959.262	88.61
959.43	90.35
959.597	53.35
959.765	69.62
959.932	44.63
960.1	75.04
960.267	88.03
960.435	62.84
960.602	78.14
960.77	62.06
960.937	26.22
961.104	84.34
961.272	14.6
961.439	56.06
961.606	101.59
961.774	124.84
961.941	68.65
962.108	77.76
962.275	79.11
962.443	88.22
962.61	59.93
962.777	134.91
962.944	78.14
963.111	95
963.278	96.55
963.446	66.91
963.613	53.35
963.78	118.83
963.947	95.39
964.114	108.37
964.281	173.86
964.448	82.02
964.615	54.7
964.782	87.44
964.949	123.29
965.116	82.79
965.282	131.43
965.449	58.58
965.616	64.39
965.783	124.06
965.95	99.84
966.117	43.46
966.283	79.31
966.45	91.71
966.617	68.07
966.784	113.6
966.95	110.69
967.117	129.29
967.284	65.94
967.45	50.83
967.617	128.33
967.784	104.88
967.95	137.82
968.117	62.45
968.283	120.58
968.45	188.58
968.616	104.69
968.783	130.65
968.949	108.56
969.116	123.09
969.282	87.64
969.449	122.32
969.615	104.3
969.781	60.32
969.948	74.85
970.114	43.66
970.28	162.42
970.447	113.99
970.613	133.17
970.779	80.08
970.945	102.56
971.112	84.15
971.278	106.24
971.444	78.34
971.61	137.24
971.776	81.63
971.942	87.25
972.108	106.82
972.275	98.68
972.441	120.38
972.607	161.26
972.773	67.88
972.939	91.32
973.105	67.49
973.271	62.84
973.437	94.23
973.602	80.66
973.768	107.01
973.934	76.01
974.1	100.62
974.266	27.38
974.432	78.34
974.598	76.4
974.763	106.24
974.929	80.28
975.095	170.17
975.261	61.87
975.426	53.15
975.592	85.12
975.758	148.86
975.923	19.63
976.089	62.06
976.255	106.63
976.42	120.96
976.586	103.33
976.751	109.14
976.917	177.73
977.082	95
977.248	61.48
977.413	11.88
977.579	68.07
977.744	89.58
977.91	54.31
978.075	58.38
978.24	113.6
978.406	66.71
978.571	68.46
978.736	53.35
978.902	119.8
979.067	61.09
979.232	41.14
979.397	76.4
979.563	122.13
979.728	60.9
979.893	80.47
980.058	49.28
980.223	117.48
980.388	72.91
980.554	105.08
980.719	70.2
980.884	98.29
981.049	120.77
981.214	67.49
981.379	74.08
981.544	58.58
981.709	61.09
981.874	57.61
982.039	68.84
982.204	91.32
982.368	69.43
982.533	74.27
982.698	127.74
982.863	134.14
983.028	68.07
983.193	99.65
983.357	94.81
983.522	84.54
983.687	61.48
983.852	65.74
984.016	79.89
984.181	81.24
984.346	84.73
984.51	115.15
984.675	69.43
984.839	86.28
985.004	84.93
985.168	102.75
985.333	96.55
985.498	74.08
985.662	103.91
985.827	98.29
985.991	86.09
986.155	70.78
986.32	102.17
986.484	124.64
986.649	115.73
986.813	12.85
986.977	103.53
987.142	68.65
987.306	61.68
987.47	28.55
987.634	74.27
987.799	95.19
987.963	96.36
988.127	73.49
988.291	151.19
988.455	78.53
988.62	51.41
988.784	115.73
988.948	115.93
989.112	64.19
989.276	105.66
989.44	59.35
989.604	41.33
989.768	67.1
989.932	163.78
990.096	44.63
990.26	45.21
990.424	58.58
990.588	42.3
990.752	141.11
990.915	89.38
991.079	74.85
991.243	54.31
991.407	115.54
991.571	87.44
991.734	97.52
991.898	98.88
992.062	158.36
992.226	48.31
992.389	57.8
992.553	21.76
992.717	79.69
992.88	49.86
993.044	78.92
993.207	58.77
993.371	86.86
993.535	88.8
993.698	67.1
993.862	110.5
994.025	116.7
994.189	67.29
994.352	84.54
994.515	91.9
994.679	93.64
994.842	78.53
995.006	98.1
995.169	42.3
995.332	40.75
995.496	105.27
995.659	20.02
995.822	44.05
995.985	63.03
996.149	120.58
996.312	56.06
996.475	153.12
996.638	48.5
996.801	123.87
996.964	129.1
997.128	59.35
997.291	60.51
997.454	75.82
997.617	11.11
997.78	105.85
997.943	40.56
998.106	91.71
998.269	22.73
998.432	55.48
998.595	93.26
998.758	21.38
998.92	28.74
999.083	24.09
999.246	65.94
999.409	26.8
999.572	6.46
999.735	35.33
999.897	82.02
1000.06	33.39
1000.223	36.3
1000.386	87.83
1000.548	78.14
1000.711	80.47
1000.874	90.74
1001.036	34.55
1001.199	86.48
1001.361	51.8
1001.524	63.03
1001.687	69.23
1001.849	48.5
1002.012	57.41
1002.174	74.27
1002.337	63.61
1002.499	44.82
1002.661	100.43
1002.824	36.3
1002.986	30.48
1003.149	67.49
1003.311	21.57
1003.473	108.56
1003.636	7.04
1003.798	82.6
1003.96	51.8
1004.123	61.68
1004.285	44.82
1004.447	36.49
1004.609	48.11
1004.771	99.26
1004.933	-8.07
1005.096	37.26
1005.258	9.36
1005.42	33.39
1005.582	77.95
1005.744	37.07
1005.906	21.96
1006.068	39.59
1006.23	-7.69
1006.392	-22.02
1006.554	9.17
1006.716	83.18
1006.878	64.97
1007.04	5.1
1007.202	48.31
1007.363	34.94
1007.525	63.61
1007.687	57.61
1007.849	72.91
1008.011	2
1008.172	18.47
1008.334	26.41
1008.496	60.71
1008.658	12.27
1008.819	25.45
1008.981	31.26
1009.143	5.3
1009.304	22.15
1009.466	100.04
1009.627	97.91
1009.789	132.59
1009.95	52.38
1010.112	15.56
1010.273	26.41
1010.435	28.74
1010.596	9.75
1010.758	37.07
1010.919	13.24
1011.081	16.92
1011.242	32.42
1011.403	44.05
1011.565	45.6
1011.726	58
1011.887	1.03
1012.049	2.78
1012.21	75.82
1012.371	95.78
1012.532	-38.1
1012.693	33.58
1012.855	15.56
1013.016	32.61
1013.177	76.59
1013.338	32.03
1013.499	89.38
1013.66	66.33
1013.821	76.98
1013.982	30.1
1014.143	44.05
1014.304	-6.91
1014.465	40.95
1014.626	73.3
1014.787	1.42
1014.948	100.04
1015.109	-36.94
1015.27	98.68
1015.431	22.73
1015.592	29.13
1015.752	68.84
1015.913	30.68
1016.074	38.81
1016.235	21.57
1016.395	15.76
1016.556	29.13
1016.717	51.02
1016.877	79.89
1017.038	-11.17
1017.199	58.96
1017.359	28.55
1017.52	30.48
1017.681	25.25
1017.841	18.66
1018.002	31.65
1018.162	37.65
1018.323	64.39
1018.483	29.13
1018.644	31.06
1018.804	1.03
1018.964	3.55
1019.125	21.38
1019.285	40.56
1019.446	0.06
1019.606	8.4
1019.766	-10.98
1019.926	57.8
1020.087	28.93
1020.247	0.26
1020.407	57.03
1020.567	69.23
1020.728	3.94
1020.888	26.41
1021.048	-5.75
1021.208	-4.78
1021.368	30.68
1021.528	64.19
1021.688	54.51
1021.848	46.37
1022.008	8.59
1022.168	-0.9
1022.328	36.1
1022.488	43.66
1022.648	12.66
1022.808	46.76
1022.968	71.17
1023.128	-14.27
1023.288	7.62
1023.448	29.32
1023.608	40.17
1023.767	44.82
1023.927	2.2
1024.087	3.36
1024.247	-23.96
1024.406	23.51
1024.566	-15.44
1024.726	-16.6
1024.885	21.57
1025.045	44.24
1025.205	15.76
1025.364	11.3
1025.524	33.78
1025.683	27
1025.843	25.25
1026.003	41.53
1026.162	76.98
1026.321	69.43
1026.481	13.43
1026.64	43.85
1026.8	40.56
1026.959	32.81
1027.119	41.53
1027.278	18.86
1027.437	11.5
1027.597	27
1027.756	3.94
1027.915	35.91
1028.074	21.76
1028.234	6.46
1028.393	13.82
1028.552	15.76
1028.711	-34.81
1028.87	57.8
1029.03	-45.08
1029.189	18.08
1029.348	-31.9
1029.507	1.42
1029.666	4.52
1029.825	8.01
1029.984	-2.26
1030.143	37.26
1030.302	-15.05
1030.461	-52.83
1030.62	24.67
1030.779	45.98
1030.938	-4.39
1031.097	5.1
1031.255	43.08
1031.414	46.76
1031.573	69.43
1031.732	-17.37
1031.891	27.38
1032.049	61.29
1032.208	34.55
1032.367	1.23
1032.525	5.68
1032.684	33.39
1032.843	26.41
1033.001	-15.24
1033.16	154.87
1033.319	42.11
1033.477	52.76
1033.636	7.81
1033.794	2
1033.953	34.94
1034.111	33.78
1034.27	-4.59
1034.428	45.21
1034.587	-1.49
1034.745	22.93
1034.903	10.72
1035.062	31.26
1035.22	-8.27
1035.378	60.32
1035.537	2.2
1035.695	49.86
1035.853	29.13
1036.011	26.8
1036.17	39.01
1036.328	-40.82
1036.486	56.06
1036.644	38.04
1036.802	-47.21
1036.96	-11.56
1037.119	-1.1
1037.277	17.11
1037.435	-21.05
1037.593	-10.59
1037.751	1.42
1037.909	47.73
1038.067	47.73
