Data from oakcork_FLMT105791__13__17-26-48-067.txt Node

Date: Mon Mar 20 17:26:48 GMT 2023
User: antho
Spectrometer: FLMT10579
Trigger mode: 0
Integration Time (sec): 1.000000E-1
Scans to average: 10
Electric dark correction enabled: true
Nonlinearity correction enabled: false
Boxcar width: 0
XAxis mode: Wavelengths
Number of Pixels in Spectrum: 3648
>>>>>Begin Spectral Data<<<<<
345.248	-163.01
345.464	-163.01
345.681	-163.01
345.898	-165.14
346.114	-142.86
346.331	-16.92
346.548	31.32
346.764	-5.1
346.981	-10.91
347.197	-32.61
347.414	31.52
347.631	-38.43
347.847	74.14
348.064	3.42
348.28	15.44
348.497	-39.59
348.713	-12.27
348.93	59.61
349.146	45.47
349.363	16.4
349.579	16.21
349.796	-0.84
350.012	6.33
350.229	32.87
350.445	-7.04
350.661	6.14
350.878	17.95
351.094	5.94
351.311	32.29
351.527	32.1
351.743	-1.61
351.96	59.8
352.176	52.63
352.392	31.13
352.609	26.29
352.825	3.04
353.041	-3.36
353.257	-18.28
353.474	30.16
353.69	43.92
353.906	10.79
354.122	-20.02
354.339	27.64
354.555	12.34
354.771	4
354.987	47.79
355.203	71.43
355.42	-10.91
355.636	-8.59
355.852	-33.39
356.068	2.26
356.284	-5.88
356.5	75.11
356.716	10.98
356.932	22.6
357.148	62.32
357.364	9.24
357.58	32.68
357.796	65.23
358.012	24.93
358.228	31.52
358.444	-54.51
358.66	74.53
358.876	31.71
359.092	-7.62
359.308	35
359.524	31.13
359.74	10.2
359.956	12.34
360.172	-7.81
360.388	46.05
360.604	6.14
360.819	79.95
361.035	11.37
361.251	62.13
361.467	-11.69
361.683	61.55
361.898	27.64
362.114	41.4
362.33	9.04
362.546	29.77
362.762	32.87
362.977	17.18
363.193	-14.21
363.409	41.98
363.624	-6.26
363.84	-18.08
364.056	2.45
364.271	37.52
364.487	24.15
364.703	-12.08
364.918	-32.23
365.134	-7.04
365.35	19.5
365.565	106.88
365.781	37.91
365.996	31.32
366.212	67.36
366.427	38.3
366.643	9.04
366.858	1.68
367.074	-14.01
367.289	66.2
367.505	131.88
367.72	-12.66
367.936	27.06
368.151	45.27
368.367	39.46
368.582	10.59
368.798	-1.42
369.013	68.72
369.228	38.49
369.444	29.38
369.659	66
369.874	55.35
370.09	77.05
370.305	-6.46
370.52	-5.3
370.736	62.71
370.951	17.57
371.166	76.47
371.381	94.87
371.597	67.36
371.812	10.2
372.027	16.21
372.242	10.98
372.458	101.85
372.673	20.67
372.888	23.19
373.103	45.66
373.318	122.77
373.533	46.43
373.749	21.64
373.964	-15.76
374.179	72.01
374.394	14.08
374.609	77.82
374.824	8.65
375.039	47.79
375.254	8.46
375.469	79.57
375.684	23.77
375.899	78.4
376.114	53.22
376.329	57.28
376.544	76.08
376.759	46.63
376.974	23.96
377.189	32.48
377.404	26.67
377.619	76.66
377.834	-26.22
378.049	9.62
378.264	-1.03
378.478	57.48
378.693	13.5
378.908	52.83
379.123	0.32
379.338	77.05
379.553	44.88
379.767	39.65
379.982	66.39
380.197	59.03
380.412	36.17
380.626	58.45
380.841	125.29
381.056	70.85
381.271	115.6
381.485	35.39
381.7	22.99
381.915	54.57
382.129	27.45
382.344	35.39
382.559	32.1
382.773	57.87
382.988	-10.14
383.202	58.64
383.417	9.43
383.632	121.03
383.846	17.76
384.061	57.48
384.275	17.76
384.49	63.48
384.704	75.88
384.919	57.28
385.133	22.22
385.348	77.82
385.562	-2.97
385.777	68.91
385.991	40.23
386.206	33.45
386.42	27.45
386.634	86.35
386.849	74.72
387.063	41.59
387.277	13.69
387.492	18.15
387.706	16.6
387.92	17.37
388.135	76.08
388.349	54.18
388.563	44.88
388.778	44.3
388.992	68.52
389.206	90.42
389.42	102.62
389.635	51.28
389.849	68.91
390.063	71.04
390.277	70.46
390.491	118.51
390.706	80.34
390.92	91.97
391.134	47.02
391.348	99.33
391.562	14.27
391.776	48.76
391.99	49.15
392.205	81.5
392.419	39.07
392.633	63.48
392.847	84.02
393.061	24.93
393.275	101.65
393.489	44.3
393.703	50.12
393.917	104.95
394.131	19.7
394.345	82.86
394.559	85.57
394.773	33.26
394.986	79.37
395.2	36.17
395.414	103.59
395.628	48.76
395.842	96.42
396.056	64.84
396.27	8.46
396.484	65.42
396.697	77.05
396.911	105.72
397.125	83.44
397.339	96.62
397.553	47.6
397.766	129.36
397.98	94.1
398.194	110.37
398.408	62.13
398.621	107.27
398.835	125.1
399.049	117.73
399.262	137.3
399.476	141.18
399.69	126.45
399.903	140.21
400.117	82.47
400.331	108.63
400.544	64.65
400.758	198.53
400.971	121.8
401.185	112.12
401.398	64.65
401.612	134.59
401.826	127.81
402.039	147.57
402.253	69.88
402.466	137.11
402.68	117.35
402.893	130.33
403.106	122.38
403.32	93.13
403.533	120.64
403.747	92.93
403.96	132.07
404.174	132.07
404.387	75.11
404.6	132.07
404.814	142.53
405.027	87.7
405.24	110.57
405.454	103.78
405.667	149.31
405.88	70.07
406.094	113.47
406.307	159
406.52	127.03
406.733	98.55
406.947	56.32
407.16	197.36
407.373	148.54
407.586	80.73
407.799	88.87
408.012	166.95
408.226	145.05
408.439	148.15
408.652	94.48
408.865	137.5
409.078	191.16
409.291	144.66
409.504	88.09
409.717	146.02
409.93	133.23
410.143	132.65
410.357	94.29
410.57	92.93
410.783	134.98
410.996	131.49
411.209	111.34
411.421	161.13
411.634	126.06
411.847	122.77
412.06	144.28
412.273	131.1
412.486	144.28
412.699	214.99
412.912	125.29
413.125	156.68
413.338	160.16
413.55	149.51
413.763	143.11
413.976	158.42
414.189	141.76
414.402	125.48
414.615	195.62
414.827	132.26
415.04	175.08
415.253	160.94
415.466	165.2
415.678	202.01
415.891	133.62
416.104	158.81
416.316	116.76
416.529	149.51
416.742	171.21
416.954	181.86
417.167	180.9
417.38	135.17
417.592	187.68
417.805	106.69
418.017	118.51
418.23	177.02
418.442	102.82
418.655	150.28
418.868	138.46
419.08	180.12
419.293	216.74
419.505	169.66
419.718	189.61
419.93	195.23
420.142	138.85
420.355	187.87
420.567	186.32
420.78	190.58
420.992	158.23
421.205	224.49
421.417	112.89
421.629	165.59
421.842	132.26
422.054	147.76
422.266	179.15
422.479	192.91
422.691	145.83
422.903	202.21
423.115	154.74
423.328	146.99
423.54	187.48
423.752	160.75
423.964	136.33
424.177	151.83
424.389	177.8
424.601	289.01
424.813	155.32
425.025	209.57
425.238	205.89
425.45	173.15
425.662	163.07
425.874	471.13
426.086	178.18
426.298	207.05
426.51	191.55
426.722	199.69
426.934	153.58
427.146	239.02
427.358	147.76
427.57	222.74
427.782	143.31
427.994	189.23
428.206	163.26
428.418	135.56
428.63	175.86
428.842	210.54
429.054	183.41
429.266	242.7
429.478	147.38
429.69	187.29
429.902	144.08
430.114	185.74
430.325	175.66
430.537	164.23
430.749	159
430.961	99.91
431.173	147.96
431.384	201.43
431.596	125.68
431.808	159.58
432.02	202.4
432.231	213.83
432.443	252.78
432.655	206.28
432.867	173.53
433.078	208.99
433.29	255.68
433.502	219.84
433.713	246.38
433.925	237.47
434.136	260.53
434.348	180.31
434.56	137.5
434.771	281.45
434.983	145.05
435.194	173.34
435.406	211.7
435.617	249.87
435.829	310.51
436.04	261.49
436.252	258.39
436.463	294.24
436.675	269.24
436.886	241.73
437.098	263.04
437.309	304.31
437.521	245.8
437.732	271.76
437.943	242.12
438.155	252.97
438.366	186.32
438.578	293.85
438.789	232.63
439	233.21
439.211	227.2
439.423	249.29
439.634	240.38
439.845	276.99
440.057	264.79
440.268	278.16
440.479	254.71
440.69	263.04
440.902	252
441.113	270.21
441.324	223.33
441.535	273.7
441.746	332.02
441.957	237.86
442.168	236.69
442.38	272.73
442.591	316.52
442.802	252.58
443.013	284.36
443.224	302.57
443.435	268.08
443.646	279.51
443.857	265.95
444.068	255.1
444.279	247.16
444.49	356.04
444.701	277.19
444.912	367.67
445.123	333.18
445.334	314.58
445.545	319.23
445.756	270.99
445.967	258.01
446.178	280.68
446.388	321.17
446.599	334.73
446.81	334.73
447.021	284.16
447.232	329.5
447.443	371.74
447.653	281.84
447.864	317.1
448.075	319.04
448.286	329.69
448.496	313.03
448.707	335.12
448.918	302.18
449.129	409.52
449.339	299.66
449.55	338.8
449.761	312.45
449.971	382.78
450.182	331.05
450.393	358.76
450.603	303.92
450.814	358.37
451.024	318.07
451.235	371.74
451.446	394.79
451.656	391.69
451.867	300.63
452.077	344.42
452.288	391.11
452.498	402.35
452.709	339.96
452.919	346.74
453.13	320.78
453.34	354.11
453.55	299.66
453.761	344.61
453.971	338.99
454.182	357.21
454.392	363.79
454.602	399.44
454.813	372.51
455.023	390.14
455.233	325.82
455.444	321.94
455.654	288.81
455.864	320.2
456.075	339.96
456.285	296.17
456.495	327.37
456.705	381.81
456.916	383.94
457.126	410.68
457.336	333.18
457.546	271.96
457.756	350.62
457.967	409.13
458.177	366.89
458.387	360.31
458.597	322.14
458.807	357.98
459.017	354.49
459.227	353.14
459.437	380.07
459.647	393.44
459.857	358.95
460.068	334.34
460.278	409.52
460.488	376.97
460.698	431.22
460.908	353.52
461.117	335.12
461.327	376.77
461.537	369.99
461.747	369.02
461.957	369.61
462.167	486.43
462.377	403.51
462.587	381.81
462.797	400.41
463.007	400.02
463.216	409.52
463.426	424.44
463.636	425.99
463.846	348.49
464.056	354.69
464.265	393.63
464.475	369.41
464.685	363.6
464.895	414.94
465.104	375.81
465.314	406.61
465.524	385.88
465.733	370.19
465.943	454.08
466.153	481.98
466.362	433.54
466.572	419.98
466.782	367.28
466.991	397.7
467.201	461.05
467.41	349.65
467.62	421.72
467.829	393.63
468.039	477.13
468.249	425.6
468.458	411.45
468.668	432.57
468.877	443.23
469.086	454.66
469.296	490.7
469.505	413.59
469.715	502.9
469.924	464.74
470.134	491.08
470.343	473.07
470.552	429.28
470.762	452.34
470.971	400.22
471.18	463.57
471.39	444.59
471.599	423.47
471.808	462.41
472.018	462.22
472.227	512.4
472.436	517.82
472.645	476.36
472.855	474.81
473.064	512.4
473.273	468.22
473.482	516.85
473.691	530.42
473.901	493.41
474.11	476.94
474.319	569.94
474.528	500
474.737	546.5
474.946	513.56
475.155	516.85
475.364	543.01
475.573	496.51
475.783	520.73
475.992	518.6
476.201	550.37
476.41	504.26
476.619	498.64
476.828	523.83
477.037	500.77
477.245	524.6
477.454	560.45
477.663	535.26
477.872	537.97
478.081	631.55
478.29	537.78
478.499	647.63
478.708	573.62
478.917	659.26
479.125	543.4
479.334	581.56
479.543	558.7
479.752	593.19
479.961	578.66
480.169	642.59
480.378	591.06
480.587	710.41
480.796	628.65
481.004	617.6
481.213	638.53
481.422	633.1
481.63	626.71
481.839	647.63
482.048	701.3
482.256	642.98
482.465	660.23
482.674	661.39
482.882	706.34
483.091	685.99
483.299	671.08
483.508	710.99
483.716	658.48
483.925	686.96
484.134	639.69
484.342	679.6
484.551	706.73
484.759	705.95
484.967	722.23
485.176	692.58
485.384	700.72
485.593	709.44
485.801	690.06
486.01	664.1
486.218	652.09
486.426	596.29
486.635	602.68
486.843	619.73
487.051	630
487.26	614.7
487.468	687.74
487.676	684.25
487.885	638.72
488.093	728.23
488.301	730.56
488.509	738.69
488.717	728.23
488.926	714.48
489.134	713.12
489.342	736.37
489.55	682.51
489.758	739.66
489.967	683.09
490.175	820.45
490.383	744.7
490.591	823.75
490.799	710.41
491.007	791.78
491.215	770.27
491.423	776.09
491.631	766.21
491.839	752.26
492.047	795.07
492.255	729.78
492.463	702.27
492.671	741.6
492.879	813.29
493.087	770.86
493.295	780.93
493.503	826.46
493.711	811.54
493.919	819.29
494.127	797.4
494.334	847.77
494.542	758.26
494.75	789.84
494.958	765.43
495.166	849.9
495.374	851.45
495.581	833.05
495.789	829.75
495.997	875.67
496.205	790.23
496.412	805.54
496.62	792.17
496.828	841.77
497.035	820.84
497.243	831.3
497.451	830.34
497.658	862.3
497.866	852.04
498.074	888.27
498.281	824.33
498.489	910.35
498.696	870.05
498.904	812.12
499.112	817.55
499.319	896.99
499.527	834.99
499.734	883.81
499.942	801.86
500.149	822.2
500.357	854.55
500.564	814.06
500.771	846.61
500.979	833.05
501.186	813.29
501.394	865.4
501.601	823.75
501.808	880.9
502.016	811.74
502.223	824.33
502.43	882.26
502.638	845.06
502.845	813.09
503.052	918.68
503.26	856.1
503.467	902.02
503.674	835.37
503.881	879.16
504.089	918.1
504.296	904.54
504.503	844.29
504.71	868.89
504.917	805.15
505.125	888.46
505.332	871.99
505.539	899.31
505.746	944.07
505.953	916.36
506.16	906.09
506.367	969.06
506.574	985.72
506.781	966.35
506.988	884.2
507.195	887.88
507.402	899.89
507.609	940.97
507.816	911.32
508.023	888.46
508.23	873.54
508.437	858.62
508.644	928.76
508.851	972.93
509.058	946.39
509.265	919.65
509.472	958.98
509.679	1032.03
509.885	949.88
510.092	909.58
510.299	928.76
510.506	934.18
510.713	948.52
510.92	955.88
511.126	957.24
511.333	1020.98
511.54	994.83
511.746	1002
511.953	1023.31
512.16	1005.48
512.367	983.4
512.573	981.85
512.78	963.44
512.987	971.19
513.193	980.1
513.4	891.56
513.606	957.05
513.813	964.8
514.02	949.49
514.226	1021.56
514.433	1018.46
514.639	932.25
514.846	960.15
515.052	949.68
515.259	935.73
515.465	979.72
515.672	998.9
515.878	1066.13
516.085	990.37
516.291	1005.1
516.497	958.02
516.704	944.26
516.91	911.52
517.117	892.53
517.323	854.75
517.529	897.76
517.736	909.38
517.942	895.82
518.148	886.14
518.354	957.05
518.561	948.13
518.767	935.35
518.973	988.05
519.179	990.37
519.386	947.75
519.592	931.86
519.798	936.7
520.004	1037.26
520.21	975.45
520.417	1045.78
520.623	1095.77
520.829	1064.19
521.035	1064.58
521.241	1044.81
521.447	1067.87
521.653	1146.34
521.859	1072.33
522.065	1095.38
522.271	1189.16
522.477	1118.83
522.683	1124.25
522.889	1110.3
523.095	1128.51
523.301	1077.36
523.507	1078.91
523.713	1121.15
523.919	1084.73
524.125	1154.48
524.331	1134.13
524.537	1192.84
524.742	1165.91
524.948	1184.12
525.154	1150.6
525.36	1291.26
525.566	1193.03
525.772	1261.23
525.977	1122.89
526.183	1190.12
526.389	1240.11
526.595	1163.78
526.8	1150.79
527.006	1111.46
527.212	1076.78
527.417	1069.81
527.623	1027.38
527.829	1150.21
528.034	1148.28
528.24	1144.79
528.446	1138.2
528.651	1216.86
528.857	1231.39
529.062	1292.81
529.268	1253.48
529.473	1202.91
529.679	1212.6
529.884	1307.34
530.09	1230.42
530.295	1315.09
530.501	1279.83
530.706	1291.45
530.912	1237.59
531.117	1277.89
531.323	1294.55
531.528	1313.74
531.733	1301.92
531.939	1275.37
532.144	1285.84
532.35	1297.65
532.555	1317.42
532.76	1319.94
532.966	1307.92
533.171	1282.74
533.376	1244.18
533.581	1237.79
533.787	1267.04
533.992	1296.88
534.197	1313.35
534.402	1291.26
534.607	1306.37
534.813	1370.5
535.018	1294.36
535.223	1315.87
535.428	1333.5
535.633	1362.56
535.838	1356.75
536.043	1348.42
536.249	1423.78
536.454	1363.92
536.659	1373.02
536.864	1369.15
537.069	1324.39
537.274	1352.87
537.479	1360.04
537.684	1351.9
537.889	1283.32
538.094	1436.18
538.299	1342.6
538.504	1361.4
538.708	1363.72
538.913	1411.19
539.118	1386.39
539.323	1392.2
539.528	1342.41
539.733	1367.4
539.938	1407.32
540.142	1371.47
540.347	1360.43
540.552	1335.24
540.757	1325.36
540.962	1340.67
541.166	1343.77
541.371	1318.39
541.576	1347.45
541.781	1257.94
541.985	1358.88
542.19	1376.9
542.395	1386.39
542.599	1423.98
542.804	1420.3
543.008	1444.9
543.213	1374.18
543.418	1351.32
543.622	1409.25
543.827	1314.32
544.031	1406.93
544.236	1451.68
544.44	1405.18
544.645	1484.62
544.849	1405.18
545.054	1442.77
545.258	1515.23
545.463	1465.25
545.667	1397.05
545.872	1462.15
546.076	1406.15
546.281	1384.45
546.485	1380.58
546.689	1409.45
546.894	1450.71
547.098	1404.02
547.302	1419.52
547.507	1422.62
547.711	1449.55
547.915	1488.11
548.119	1374.18
548.324	1403.83
548.528	1457.69
548.732	1422.43
548.936	1460.01
549.141	1465.83
549.345	1394.72
549.549	1424.56
549.753	1425.33
549.957	1483.85
550.161	1477.65
550.366	1445.1
550.57	1411.19
550.774	1441.03
550.978	1403.44
551.182	1463.89
551.386	1380
551.59	1393.37
551.794	1419.13
551.998	1437.54
552.202	1430.18
552.406	1397.43
552.61	1441.22
552.814	1485.4
553.018	1502.64
553.222	1448
553.426	1407.12
553.63	1517.94
553.833	1431.73
554.037	1410.03
554.241	1490.24
554.445	1456.33
554.649	1432.31
554.853	1421.07
555.056	1437.93
555.26	1489.46
555.464	1435.6
555.668	1435.8
555.871	1446.06
556.075	1452.85
556.279	1397.63
556.483	1403.83
556.686	1430.76
556.89	1399.76
557.094	1396.47
557.297	1371.67
557.501	1456.91
557.704	1367.02
557.908	1435.8
558.112	1350.74
558.315	1480.36
558.519	1402.28
558.722	1410.42
558.926	1387.17
559.129	1320.13
559.333	1315.09
559.536	1329.43
559.74	1309.28
559.943	1285.25
560.147	1312.77
560.35	1332.34
560.553	1370.5
560.757	1300.37
560.96	1396.27
561.164	1337.76
561.367	1439.48
561.57	1324.2
561.774	1357.72
561.977	1311.6
562.18	1312.96
562.384	1401.12
562.587	1341.63
562.79	1309.67
562.993	1337.18
563.197	1358.68
563.4	1386.39
563.603	1394.33
563.806	1386.58
564.009	1310.25
564.212	1357.91
564.416	1288.94
564.619	1340.47
564.822	1287.58
565.025	1340.47
565.228	1308.31
565.431	1333.89
565.634	1255.42
565.837	1307.54
566.04	1252.51
566.243	1252.32
566.446	1169.59
566.649	1293.59
566.852	1226.55
567.055	1254.64
567.258	1307.73
567.461	1351.71
567.664	1320.32
567.867	1234.3
568.07	1281.77
568.273	1300.17
568.475	1311.99
568.678	1247.86
568.881	1213.37
569.084	1244.37
569.287	1158.54
569.489	1187.8
569.692	1242.05
569.895	1232.17
570.098	1190.32
570.3	1173.07
570.503	1123.48
570.706	1152.93
570.909	1150.21
571.111	1134.33
571.314	1125.61
571.516	1158.54
571.719	1152.73
571.922	1171.91
572.124	1138.78
572.327	1165.13
572.529	1094.99
572.732	1101
572.935	1120.57
573.137	1206.98
573.34	1118.05
573.542	1154.67
573.745	1164.36
573.947	1148.66
574.15	1123.09
574.352	1123.48
574.554	1207.37
574.757	1105.26
574.959	1112.82
575.162	1115.14
575.364	1116.89
575.566	1183.54
575.769	1072.91
575.971	1126.38
576.173	1009.36
576.376	1091.12
576.578	1114.56
576.78	1142.08
576.982	1040.36
577.185	1081.04
577.387	1032.8
577.589	1064.58
577.791	1097.51
577.993	1130.06
578.196	1053.34
578.398	1076.2
578.6	1110.49
578.802	1060.9
579.004	1029.9
579.206	1029.7
579.408	1079.11
579.61	1039.78
579.812	1109.91
580.014	1048.5
580.216	1069.61
580.418	1057.8
580.62	1063.61
580.822	1009.94
581.024	1056.25
581.226	1122.12
581.428	1074.26
581.63	1131.42
581.832	1062.25
582.034	1084.92
582.236	1033.77
582.438	1107.98
582.64	1125.41
582.841	1101.39
583.043	1172.88
583.245	1112.04
583.447	1122.89
583.649	1088.02
583.85	1088.99
584.052	1095.77
584.254	1042.1
584.456	1121.93
584.657	1010.33
584.859	1059.35
585.061	1053.34
585.262	1001.41
585.464	1010.71
585.666	1111.85
585.867	1026.6
586.069	1112.63
586.27	1043.07
586.472	1058.57
586.674	1021.95
586.875	1019.24
587.077	1045.78
587.278	1096.93
587.48	1034.93
587.681	1122.51
587.883	1048.11
588.084	949.49
588.285	1013.62
588.487	995.99
588.688	1014.4
588.89	944.07
589.091	914.03
589.292	933.8
589.494	917.72
589.695	897.95
589.896	843.9
590.098	878.97
590.299	906.48
590.5	882.45
590.702	920.62
590.903	930.31
591.104	977.78
591.305	932.63
591.507	1031.25
591.708	958.98
591.909	925.27
592.11	1029.7
592.311	987.85
592.512	953.17
592.714	894.08
592.915	890.01
593.116	915.2
593.317	963.63
593.518	943.87
593.719	959.57
593.92	968.87
594.121	999.67
594.322	938.64
594.523	942.9
594.724	934.38
594.925	932.63
595.126	958.6
595.327	960.53
595.528	929.73
595.729	961.12
595.929	951.62
596.13	907.06
596.331	946.39
596.532	971.97
596.733	983.4
596.934	976.23
597.135	975.45
597.335	968.28
597.536	899.12
597.737	936.12
597.938	935.54
598.138	938.45
598.339	967.51
598.54	944.45
598.74	951.43
598.941	931.67
599.142	996.57
599.342	956.27
599.543	920.23
599.744	957.05
599.944	931.08
600.145	922.17
600.345	959.18
600.546	1029.51
600.746	993.66
600.947	1023.7
601.147	963.44
601.348	990.56
601.548	933.6
601.749	948.33
601.949	890.2
602.15	919.46
602.35	929.15
602.551	985.72
602.751	909.58
602.951	934.38
603.152	850.87
603.352	987.27
603.552	919.85
603.753	974.48
603.953	969.06
604.153	948.72
604.354	938.25
604.554	937.09
604.754	954.33
604.954	907.64
605.155	937.67
605.355	944.26
605.555	953.56
605.755	1005.68
605.955	918.3
606.155	976.62
606.356	946
606.556	953.56
606.756	973.32
606.956	854.36
607.156	981.07
607.356	925.27
607.556	942.52
607.756	932.25
607.956	1004.71
608.156	955.69
608.356	876.25
608.556	951.62
608.756	955.11
608.956	879.55
609.156	919.85
609.356	875.87
609.556	870.25
609.755	900.67
609.955	882.65
610.155	906.67
610.355	880.13
610.555	891.95
610.755	905.7
610.954	842.54
611.154	921.4
611.354	948.52
611.554	859.2
611.753	880.52
611.953	851.26
612.153	931.67
612.352	881.68
612.552	871.22
612.752	824.14
612.951	877.42
613.151	871.02
613.351	829.17
613.55	894.08
613.75	875.29
613.949	861.53
614.149	874.51
614.348	855.91
614.548	851.45
614.747	804.18
614.947	830.53
615.146	803.21
615.346	897.18
615.545	869.28
615.745	868.31
615.944	909.97
616.144	869.09
616.343	864.63
616.542	822.78
616.742	834.4
616.941	844.67
617.14	792.36
617.34	842.93
617.539	844.67
617.738	806.12
617.938	894.08
618.137	839.44
618.336	777.25
618.535	836.92
618.734	836.34
618.934	853.78
619.133	853.59
619.332	858.62
619.531	819.1
619.73	826.65
619.929	862.3
620.128	859.59
620.328	914.62
620.527	805.15
620.726	843.9
620.925	864.63
621.124	798.17
621.323	848.55
621.522	809.41
621.721	795.66
621.92	804.57
622.119	832.66
622.318	775.12
622.517	785.39
622.715	826.85
622.914	790.81
623.113	808.44
623.312	718.74
623.511	829.37
623.71	799.34
623.909	759.81
624.107	830.34
624.306	718.74
624.505	765.24
624.704	751.48
624.902	761.75
625.101	814.45
625.3	781.71
625.499	725.13
625.697	742.96
625.896	745.47
626.095	775.7
626.293	723.39
626.492	736.76
626.69	771.63
626.889	735.79
627.088	780.93
627.286	714.48
627.485	731.91
627.683	753.03
627.882	778.8
628.08	677.28
628.279	704.98
628.477	781.51
628.676	727.07
628.874	753.03
629.073	699.75
629.271	691.81
629.469	729.78
629.668	725.91
629.866	719.9
630.065	679.21
630.263	734.24
630.461	702.85
630.66	721.45
630.858	746.25
631.056	775.31
631.254	784.03
631.453	686.38
631.651	722.23
631.849	718.16
632.047	721.26
632.245	712.73
632.444	725.52
632.642	740.63
632.84	735.98
633.038	715.25
633.236	698.01
633.434	676.31
633.632	681.34
633.83	675.92
634.028	762.14
634.227	717.19
634.425	769.11
634.623	731.14
634.821	721.64
635.019	716.99
635.216	732.49
635.414	765.04
635.612	756.71
635.81	709.05
636.008	784.81
636.206	719.32
636.404	743.73
636.602	688.9
636.8	689.87
636.997	739.86
637.195	765.43
637.393	734.62
637.591	791.01
637.789	715.44
637.986	714.86
638.184	715.44
638.382	769.5
638.58	769.89
638.777	804.37
638.975	731.72
639.173	754.39
639.37	716.03
639.568	728.04
639.765	765.43
639.963	658.29
640.161	756.71
640.358	758.07
640.556	707.5
640.753	701.69
640.951	682.31
641.148	730.56
641.346	700.72
641.543	700.14
641.741	723.39
641.938	703.43
642.136	706.92
642.333	705.37
642.531	739.08
642.728	762.52
642.925	719.71
643.123	698.59
643.32	703.63
643.517	703.82
643.715	716.22
643.912	678.05
644.109	693.55
644.306	698.78
644.504	674.76
644.701	707.31
644.898	755.36
645.095	658.48
645.293	738.5
645.49	701.69
645.687	726.49
645.884	741.41
646.081	668.75
646.278	651.12
646.475	656.74
646.672	656.74
646.87	682.51
647.067	654.03
647.264	696.07
647.461	636.2
647.658	615.08
647.855	676.69
648.052	633.88
648.249	552.31
648.446	638.53
648.642	620.12
648.839	605.2
649.036	635.81
649.233	583.31
649.43	612.37
649.627	575.75
649.824	622.64
650.021	616.44
650.217	609.85
650.414	617.8
650.611	651.31
650.808	673.01
651.004	634.85
651.201	658.48
651.398	706.53
651.595	650.93
651.791	608.69
651.988	675.34
652.185	626.71
652.381	632.52
652.578	586.41
652.775	642.79
652.971	609.08
653.168	615.28
653.364	662.74
653.561	605.4
653.757	651.7
653.954	652.28
654.15	622.64
654.347	675.73
654.543	636.78
654.74	583.5
654.936	553.47
655.133	599.97
655.329	617.02
655.525	617.6
655.722	656.74
655.918	600.55
656.115	667.59
656.311	542.04
656.507	502.9
656.704	483.92
656.9	517.24
657.096	531.97
657.292	499.42
657.489	592.03
657.685	612.95
657.881	580.01
658.077	565.87
658.273	567.81
658.47	629.23
658.666	608.5
658.862	619.35
659.058	571.68
659.254	630.39
659.45	567.42
659.646	591.25
659.842	578.85
660.038	661
660.234	583.11
660.43	572.07
660.626	653.44
660.822	638.72
661.018	645.69
661.214	604.62
661.41	552.7
661.606	614.31
661.802	642.59
661.998	596.87
662.194	558.9
662.39	615.66
662.586	618.38
662.781	621.28
662.977	637.95
663.173	653.83
663.369	612.56
663.564	604.81
663.76	642.21
663.956	610.63
664.152	616.63
664.347	562.58
664.543	614.31
664.739	568.78
664.934	561.8
665.13	528.87
665.326	611.98
665.521	615.86
665.717	555.8
665.912	568.2
666.108	504.26
666.304	585.63
666.499	557.73
666.695	513.75
666.89	565.68
667.086	616.25
667.281	589.7
667.477	642.01
667.672	594.74
667.867	577.3
668.063	585.25
668.258	527.12
668.454	580.79
668.649	636.59
668.844	583.5
669.04	600.16
669.235	581.76
669.43	551.34
669.626	526.93
669.821	557.15
670.016	511.43
670.211	552.7
670.407	521.7
670.602	551.92
670.797	576.33
670.992	613.73
671.187	548.24
671.382	607.72
671.578	537.97
671.773	576.72
671.968	516.85
672.163	552.31
672.358	579.24
672.553	543.2
672.748	512.01
672.943	622.64
673.138	543.59
673.333	575.56
673.528	526.15
673.723	580.21
673.918	547.66
674.113	505.62
674.308	630.2
674.503	564.9
674.698	590.48
674.892	556.38
675.087	579.82
675.282	565.68
675.477	500.19
675.672	566.65
675.867	517.24
676.061	498.25
676.256	478.49
676.451	524.41
676.646	551.34
676.84	514.72
677.035	504.65
677.23	513.56
677.424	563.16
677.619	587.96
677.814	575.56
678.008	559.09
678.203	469.77
678.397	509.68
678.592	532.55
678.787	578.85
678.981	500.77
679.176	552.12
679.37	521.5
679.565	498.45
679.759	531.77
679.954	579.43
680.148	604.62
680.342	587.96
680.537	580.4
680.731	548.63
680.926	566.65
681.12	557.54
681.314	496.51
681.509	545.92
681.703	525.18
681.897	548.43
682.092	548.43
682.286	503.68
682.48	605.01
682.674	558.9
682.869	526.54
683.063	517.63
683.257	593.38
683.451	530.8
683.645	542.62
683.839	549.98
684.034	521.5
684.228	552.12
684.422	469
684.616	469.77
684.81	564.13
685.004	535.45
685.198	508.52
685.392	539.52
685.586	511.43
685.78	534.68
685.974	562.58
686.168	551.53
686.362	583.89
686.556	514.14
686.75	479.85
686.944	486.82
687.138	454.66
687.331	387.43
687.525	425.21
687.719	349.65
687.913	434.32
688.107	437.61
688.301	374.06
688.494	434.7
688.688	399.64
688.882	364.57
689.076	359.34
689.269	397.12
689.463	489.15
689.657	400.99
689.85	418.24
690.044	421.14
690.238	447.49
690.431	409.9
690.625	407
690.818	454.27
691.012	454.27
691.205	482.37
691.399	406.03
691.593	481.59
691.786	524.41
691.98	490.7
692.173	528.67
692.366	494.18
692.56	506.58
692.753	559.67
692.947	456.99
693.14	549.02
693.333	508.33
693.527	446.33
693.72	507.17
693.914	491.67
694.107	480.82
694.3	514.92
694.493	486.82
694.687	538.17
694.88	486.24
695.073	563.74
695.266	523.05
695.46	498.64
695.653	552.89
695.846	540.49
696.039	481.59
696.232	540.88
696.425	561.8
696.618	549.6
696.812	569.36
697.005	610.43
697.198	649.18
697.391	586.21
697.584	593.96
697.777	645.11
697.97	619.35
698.163	634.46
698.356	616.63
698.549	707.69
698.742	661
698.935	583.31
699.127	667.39
699.32	618.76
699.513	608.11
699.706	635.23
699.899	661.97
700.092	635.62
700.285	672.82
700.477	637.56
700.67	687.93
700.863	658.29
701.056	752.84
701.248	697.43
701.441	710.41
701.634	676.5
701.826	783.06
702.019	679.99
702.212	766.4
702.404	684.64
702.597	669.91
702.79	713.51
702.982	717.19
703.175	775.51
703.367	760.78
703.56	773.96
703.752	841.77
703.945	808.83
704.137	837.7
704.33	822
704.522	819.29
704.715	807.28
704.907	860.37
705.1	861.34
705.292	866.37
705.484	886.52
705.677	893.11
705.869	877.03
706.061	919.27
706.254	939.22
706.446	883.23
706.638	883.62
706.831	969.64
707.023	955.5
707.215	997.54
707.407	958.21
707.599	971.19
707.792	1005.87
707.984	1005.68
708.176	1026.6
708.368	1012.07
708.56	1029.7
708.752	1009.55
708.944	1030.28
709.136	1051.01
709.329	993.08
709.521	1168.23
709.713	1132.19
709.905	1099.06
710.097	1136.46
710.289	1084.92
710.481	1099.06
710.672	1140.53
710.864	1132.78
711.056	1213.18
711.248	1183.73
711.44	1212.6
711.632	1166.68
711.824	1196.13
712.016	1289.13
712.207	1253.48
712.399	1246.31
712.591	1301.72
712.783	1275.37
712.975	1293.2
713.166	1245.15
713.358	1272.66
713.55	1332.53
713.741	1301.72
713.933	1305.02
714.125	1343.38
714.316	1320.71
714.508	1383.87
714.7	1374.18
714.891	1360.43
715.083	1409.64
715.274	1371.67
715.466	1397.63
715.657	1409.06
715.849	1344.35
716.04	1390.85
716.232	1332.14
716.423	1442.77
716.615	1328.27
716.806	1315.48
716.998	1289.13
717.189	1275.76
717.381	1220.35
717.572	1170.75
717.763	1230.23
717.955	1182.76
718.146	1196.52
718.337	1148.66
718.528	1100.23
718.72	1069.81
718.911	1131.81
719.102	1119.79
719.293	1160.09
719.485	1141.49
719.676	1153.7
719.867	1117.08
720.058	1110.11
720.249	1094.61
720.44	1138.39
720.632	1178.89
720.823	1243.79
721.014	1294.75
721.205	1304.63
721.396	1403.05
721.587	1436.76
721.778	1457.3
721.969	1497.21
722.16	1545.46
722.351	1496.83
722.542	1592.54
722.733	1659.77
722.924	1576.84
723.115	1599.9
723.305	1603
723.496	1635.36
723.687	1502.45
723.878	1532.09
724.069	1533.83
724.26	1550.88
724.45	1529.76
724.641	1500.9
724.832	1536.35
725.023	1518.33
725.213	1534.03
725.404	1511.94
725.595	1528.02
725.785	1513.1
725.976	1595.83
726.167	1572.58
726.357	1548.36
726.548	1679.92
726.739	1545.07
726.929	1653.18
727.12	1690.57
727.31	1687.67
727.501	1641.36
727.691	1659.77
727.882	1651.82
728.072	1738.04
728.263	1746.18
728.453	1766.72
728.644	1720.99
728.834	1753.15
729.024	1735.91
729.215	1716.15
729.405	1739.79
729.596	1823.68
729.786	1820.58
729.976	1841.5
730.167	1858.36
730.357	1791.52
730.547	1821.35
730.737	1887.61
730.928	1920.16
731.118	1944.77
731.308	1887.42
731.498	1889.94
731.688	2005.61
731.879	2004.44
732.069	2042.03
732.259	2053.27
732.449	2091.05
732.639	2163.32
732.829	2196.06
733.019	2164.67
733.209	2247.4
733.399	2278.02
733.589	2308.63
733.779	2326.84
733.969	2303.59
734.159	2411.31
734.349	2439.6
734.539	2475.44
734.729	2426.62
734.919	2493.46
735.109	2504.89
735.299	2479.12
735.488	2541.51
735.678	2538.99
735.868	2535.12
736.058	2532.79
736.248	2481.06
736.437	2462.66
736.627	2467.5
736.817	2585.49
737.007	2582.59
737.196	2608.35
737.386	2599.83
737.576	2545.39
737.765	2617.07
737.955	2632.38
738.144	2709.1
738.334	2633.93
738.524	2640.13
738.713	2671.71
738.903	2688.37
739.092	2661.83
739.282	2714.14
739.471	2724.02
739.661	2678.49
739.85	2766.06
740.04	2733.32
740.229	2789.51
740.419	2849.96
740.608	2836.59
740.797	2809.27
740.987	2873.59
741.176	2829.81
741.365	2805.4
741.555	2795.9
741.744	2899.36
741.933	2852.28
742.123	2851.7
742.312	2906.14
742.501	2919.32
742.69	2893.55
742.88	2896.84
743.069	2982.48
743.258	2900.14
743.447	2991.39
743.636	2986.55
743.825	2928.04
744.014	3006.31
744.204	2993.14
744.393	2939.86
744.582	3016.58
744.771	3052.62
744.96	2945.47
745.149	2997.4
745.338	3013.87
745.527	3052.81
745.716	2997.98
745.905	2967.37
746.094	3058.62
746.283	3004.76
746.471	3034.4
746.66	3084.59
746.849	3097.37
747.038	3082.26
747.227	3053.97
747.416	3078
747.604	3012.9
747.793	3025.49
747.982	3074.51
748.171	3085.94
748.359	3057.07
748.548	3080.9
748.737	3057.27
748.926	3037.5
749.114	2986.36
749.303	3065.4
749.491	3062.89
749.68	2941.6
749.869	3121.59
750.057	3047.77
750.246	3010.96
750.434	3036.34
750.623	3034.6
750.811	3006.31
751	3068.31
751.188	3022.39
751.377	3017.55
751.565	3055.91
751.754	2988.49
751.942	3010.77
752.131	3048.94
752.319	2971.63
752.507	2965.43
752.696	3055.33
752.884	3083.04
753.072	3027.04
753.261	3047
753.449	3039.25
753.637	3011.15
753.825	3081.68
754.014	3048.55
754.202	3005.15
754.39	3078.77
754.578	3046.22
754.766	3009.8
754.955	2990.04
755.143	3048.35
755.331	2971.24
755.519	2984.22
755.707	2997.79
755.895	2994.11
756.083	2998.76
756.271	2962.91
756.459	2982.09
756.647	3017.94
756.835	2987.52
757.023	2951.09
757.211	2960.2
757.399	2935.21
757.587	2955.94
757.775	2939.27
757.963	2936.76
758.151	2945.47
758.339	2894.13
758.526	2928.23
758.714	2890.45
758.902	2803.65
759.09	2772.65
759.278	2562.05
759.465	2379.54
759.653	2040.29
759.841	1883.55
760.028	1566.38
760.216	1375.93
760.404	1321.49
760.591	1061.48
760.779	899.31
760.967	810.57
761.154	634.85
761.342	689.48
761.529	684.44
761.717	724.94
761.905	725.13
762.092	781.32
762.28	727.84
762.467	756.71
762.655	694.13
762.842	703.82
763.029	720.68
763.217	721.06
763.404	716.03
763.592	733.85
763.779	687.54
763.966	756.91
764.154	786.94
764.341	839.64
764.528	845.45
764.716	878.19
764.903	915.39
765.09	995.41
765.277	1023.5
765.465	1207.37
765.652	1225.19
765.839	1286.03
766.026	1438.51
766.213	1485.4
766.4	1560.38
766.588	1732.04
766.775	1717.89
766.962	1789.58
767.149	1880.25
767.336	2001.73
767.523	1976.54
767.71	2094.92
767.897	2206.33
768.084	2267.94
768.271	2275.5
768.458	2325.68
768.645	2417.13
768.832	2394.26
769.019	2398.14
769.206	2435.92
769.392	2477.77
769.579	2569.02
769.766	2526.21
769.953	2532.99
770.14	2599.25
770.327	2548.49
770.513	2618.82
770.7	2679.07
770.887	2623.08
771.073	2655.82
771.26	2635.29
771.447	2584.14
771.634	2593.82
771.82	2688.95
772.007	2568.83
772.193	2597.12
772.38	2671.13
772.567	2638.19
772.753	2600.6
772.94	2676.36
773.126	2623.85
773.313	2668.22
773.499	2662.41
773.686	2658.34
773.872	2593.24
774.059	2652.33
774.245	2614.17
774.432	2617.46
774.618	2531.05
774.804	2629.67
774.991	2553.14
775.177	2610.1
775.363	2580.84
775.55	2654.66
775.736	2565.34
775.922	2572.51
776.109	2591.89
776.295	2568.25
776.481	2589.75
776.667	2630.05
776.853	2567.67
777.04	2553.91
777.226	2559.14
777.412	2644.59
777.598	2524.66
777.784	2549.07
777.97	2563.21
778.156	2547.52
778.342	2555.27
778.528	2537.64
778.715	2478.54
778.901	2497.92
779.087	2495.59
779.272	2467.31
779.458	2458.78
779.644	2494.43
779.83	2462.08
780.016	2570.96
780.202	2513.03
780.388	2488.42
780.574	2410.54
780.76	2481.06
780.946	2477.19
781.131	2460.91
781.317	2475.44
781.503	2417.13
781.689	2404.34
781.874	2510.71
782.06	2430.11
782.246	2439.79
782.432	2413.83
782.617	2463.82
782.803	2457.23
782.989	2389.81
783.174	2397.75
783.36	2347.96
783.545	2373.15
783.731	2410.34
783.916	2319.86
784.102	2401.24
784.288	2357.65
784.473	2394.07
784.659	2334.01
784.844	2382.64
785.029	2326.26
785.215	2302.23
785.4	2259.42
785.586	2351.45
785.771	2287.12
785.956	2343.7
786.142	2297.39
786.327	2273.37
786.512	2298.75
786.698	2260.38
786.883	2207.69
787.068	2256.12
787.254	2245.08
787.439	2228.22
787.624	2241.01
787.809	2197.03
787.994	2225.32
788.18	2262.13
788.365	2189.47
788.55	2186.95
788.735	2177.65
788.92	2167.97
789.105	2163.9
789.29	2179.4
789.475	2153.82
789.66	2170.1
789.845	2116.62
790.03	2095.51
790.215	2155.18
790.4	2186.18
790.585	2170.87
790.77	2122.63
790.955	2056.37
791.14	2109.65
791.325	2171.45
791.51	2052.3
791.695	2091.44
791.879	2090.27
792.064	2059.47
792.249	2132.32
792.434	2068.77
792.618	2137.94
792.803	2155.76
792.988	2075.74
793.173	2089.31
793.357	2088.92
793.542	2086.98
793.727	2125.92
793.911	2113.14
794.096	2126.89
794.281	2112.56
794.465	2174.94
794.65	2123.41
794.834	2134.45
795.019	2222.02
795.203	2174.75
795.388	2138.71
795.572	2218.34
795.757	2120.5
795.941	2125.34
796.126	2167.97
796.31	2060.63
796.494	2140.84
796.679	2065.28
796.863	2093.18
797.048	2143.36
797.232	2135.8
797.416	2162.93
797.601	2091.44
797.785	2162.54
797.969	2196.64
798.153	2089.5
798.338	2184.63
798.522	2228.03
798.706	2117.4
798.89	2199.74
799.074	2285.77
799.258	2223.38
799.443	2175.52
799.627	2178.43
799.811	2192.96
799.995	2135.8
800.179	2130.96
800.363	2130.38
800.547	2143.75
800.731	2184.82
800.915	2113.91
801.099	2102.48
801.283	2123.99
801.467	2146.85
801.651	2141.81
801.835	2182.11
802.019	2161.96
802.202	2154.6
802.386	2092.21
802.57	2099.19
802.754	2103.45
802.938	2098.41
803.121	2082.14
803.305	2174.17
803.489	2112.56
803.673	2158.86
803.856	2157.12
804.04	2100.16
804.224	2143.55
804.407	2159.05
804.591	2111.78
804.775	2132.51
804.958	2165.25
805.142	2214.08
805.326	2160.41
805.509	2158.09
805.693	2188.12
805.876	2151.5
806.06	2167.77
806.243	2165.06
806.427	2205.75
806.61	2188.31
806.794	2178.24
806.977	2193.74
807.16	2175.14
807.344	2175.72
807.527	2159.44
807.71	2103.06
807.894	2166.61
808.077	2180.95
808.26	2131.54
808.444	2106.55
808.627	2138.71
808.81	2113.33
808.993	2056.56
809.177	2073.61
809.36	2080.2
809.543	2105.58
809.726	2015.88
809.909	2043.77
810.092	1998.05
810.276	1981.58
810.459	2029.83
810.642	1997.66
810.825	1984.49
811.008	1992.24
811.191	1894.98
811.374	1894.78
811.557	1924.62
811.74	1995.73
811.923	1888.2
812.106	1904.08
812.289	1813.8
812.472	1843.83
812.654	1873.66
812.837	1812.44
813.02	1788.42
813.203	1757.03
813.386	1674.3
813.569	1700.65
813.751	1636.91
813.934	1679.92
814.117	1641.75
814.3	1602.22
814.482	1551.66
814.665	1527.63
814.848	1497.99
815.03	1455.95
815.213	1467.57
815.396	1439.86
815.578	1472.03
815.761	1425.33
815.943	1454.01
816.126	1381.93
816.309	1350.74
816.491	1325.17
816.674	1249.61
816.856	1297.65
817.039	1257.55
817.221	1364.5
817.403	1318.97
817.586	1309.28
817.768	1356.36
817.951	1272.47
818.133	1216.47
818.315	1303.08
818.498	1319.94
818.68	1377.48
818.862	1347.06
819.045	1366.43
819.227	1352.48
819.409	1369.53
819.591	1375.15
819.774	1345.51
819.956	1294.94
820.138	1418.17
820.32	1372.05
820.502	1452.65
820.684	1484.81
820.866	1500.12
821.048	1494.11
821.231	1500.7
821.413	1526.86
821.595	1487.91
821.777	1540.81
821.959	1503.22
822.141	1567.35
822.323	1470.09
822.505	1389.88
822.686	1316.25
822.868	1284.09
823.05	1195.94
823.232	1168.23
823.414	1072.33
823.596	1189.16
823.778	1160.29
823.96	1233.33
824.141	1221.12
824.323	1225.58
824.505	1295.14
824.687	1358.3
824.868	1370.89
825.05	1450.52
825.232	1462.92
825.413	1491.98
825.595	1460.98
825.777	1411.19
825.958	1475.71
826.14	1450.13
826.321	1493.73
826.503	1485.2
826.685	1466.02
826.866	1504.77
827.048	1485.59
827.229	1444.32
827.411	1411.58
827.592	1363.53
827.773	1360.43
827.955	1325.17
828.136	1317.03
828.318	1309.28
828.499	1330.2
828.68	1295.91
828.862	1326.14
829.043	1331.95
829.224	1340.86
829.406	1291.45
829.587	1298.24
829.768	1294.94
829.949	1328.46
830.131	1303.66
830.312	1393.56
830.493	1330.59
830.674	1359.85
830.855	1317.03
831.036	1333.89
831.218	1392.01
831.399	1412.74
831.58	1342.02
831.761	1353.84
831.942	1341.63
832.123	1327.69
832.304	1274.99
832.485	1287.39
832.666	1324
832.847	1368.18
833.028	1342.6
833.209	1310.25
833.389	1321.29
833.57	1276.15
833.751	1261.23
833.932	1356.94
834.113	1319.94
834.294	1289.9
834.475	1350.35
834.655	1373.8
834.836	1392.98
835.017	1365.85
835.198	1311.02
835.378	1336.99
835.559	1421.07
835.74	1348.8
835.92	1331.75
836.101	1321.1
836.281	1377.87
836.462	1379.22
836.643	1394.14
836.823	1403.05
837.004	1380.97
837.184	1416.23
837.365	1407.51
837.545	1406.93
837.726	1368.95
837.906	1420.68
838.087	1375.73
838.267	1376.51
838.448	1347.06
838.628	1419.91
838.808	1411.38
838.989	1429.21
839.169	1338.15
839.349	1397.24
839.53	1418.94
839.71	1432.11
839.89	1375.15
840.07	1438.51
840.251	1366.05
840.431	1445.29
840.611	1361.98
840.791	1364.5
840.971	1351.13
841.151	1362.95
841.332	1336.4
841.512	1410.22
841.692	1320.71
841.872	1394.33
842.052	1353.07
842.232	1420.88
842.412	1341.63
842.592	1383.87
842.772	1379.22
842.952	1401.31
843.132	1354.81
843.312	1331.37
843.492	1354.23
843.672	1375.93
843.851	1321.1
844.031	1345.7
844.211	1350.74
844.391	1307.15
844.571	1337.95
844.751	1357.13
844.93	1369.92
845.11	1327.88
845.29	1343.38
845.47	1374.38
845.649	1326.91
845.829	1363.53
846.009	1339.12
846.188	1369.73
846.368	1352.48
846.547	1338.73
846.727	1360.82
846.907	1262.2
847.086	1332.72
847.266	1354.23
847.445	1320.52
847.625	1354.23
847.804	1288.74
847.984	1362.56
848.163	1313.74
848.343	1297.46
848.522	1322.26
848.701	1360.04
848.881	1283.51
849.06	1304.44
849.239	1338.34
849.419	1291.07
849.598	1273.24
849.777	1258.71
849.957	1237.79
850.136	1181.79
850.315	1159.71
850.494	1199.81
850.674	1174.62
850.853	1240.11
851.032	1202.72
851.211	1271.5
851.39	1219.77
851.569	1158.93
851.748	1195.55
851.927	1226.74
852.107	1229.46
852.286	1169.78
852.465	1171.52
852.644	1218.61
852.823	1232.36
853.002	1215.31
853.181	1209.5
853.359	1196.91
853.538	1166.29
853.717	1217.83
853.896	1147.69
854.075	1084.73
854.254	1060.9
854.433	1015.36
854.611	1057.8
854.79	1020.21
854.969	1080.66
855.148	1113.01
855.327	1048.5
855.505	1112.24
855.684	1066.13
855.863	1103.33
856.041	1067.68
856.22	1121.73
856.399	1104.29
856.577	1169.2
856.756	1157.38
856.934	1247.09
857.113	1256.97
857.291	1173.66
857.47	1125.61
857.648	1210.47
857.827	1177.34
858.005	1184.51
858.184	1142.85
858.362	1227.91
858.541	1167.46
858.719	1149.05
858.898	1121.34
859.076	1152.34
859.254	1217.25
859.433	1118.24
859.611	1129.68
859.789	1094.99
859.967	1183.54
860.146	1224.03
860.324	1103.13
860.502	1120.76
860.68	1071.94
860.859	1086.86
861.037	1103.13
861.215	1121.93
861.393	1114.37
861.571	1118.44
861.749	1057.41
861.927	1124.25
862.105	1126.77
862.283	1107.78
862.461	1041.71
862.639	1077.36
862.817	1078.53
862.995	1125.03
863.173	1061.09
863.351	1056.05
863.529	1105.46
863.707	1150.79
863.885	1100.42
864.063	1034.93
864.241	1036.68
864.418	1126.19
864.596	1051.6
864.774	1029.7
864.952	1075.62
865.129	1102.16
865.307	1008
865.485	990.37
865.663	1065.93
865.84	1008.97
866.018	1024.47
866.196	889.43
866.373	941.74
866.551	919.46
866.728	850.49
866.906	871.99
867.084	910.35
867.261	970.42
867.439	997.35
867.616	971.38
867.794	980.68
867.971	982.82
868.149	1002
868.326	1036.48
868.503	1012.26
868.681	975.45
868.858	962.08
869.035	957.43
869.213	1012.26
869.39	971.97
869.567	1034.93
869.745	953.56
869.922	996.76
870.099	1024.47
870.276	1008.97
870.454	973.13
870.631	1016.72
870.808	999.48
870.985	982.62
871.162	1010.52
871.339	1015.95
871.517	942.71
871.694	955.11
871.871	977.58
872.048	979.72
872.225	973.13
872.402	962.67
872.579	937.67
872.756	988.24
872.933	912.87
873.11	939.42
873.287	968.67
873.463	942.52
873.64	931.08
873.817	949.88
873.994	915.39
874.171	922.37
874.348	924.3
874.524	879.74
874.701	924.11
874.878	878.39
875.055	938.64
875.231	917.52
875.408	945.23
875.585	875.09
875.762	916.17
875.938	883.81
876.115	938.06
876.291	890.01
876.468	899.7
876.645	842.15
876.821	872.96
876.998	885.75
877.174	911.71
877.351	866.37
877.527	841.96
877.704	899.31
877.88	890.59
878.057	876.06
878.233	922.75
878.409	883.62
878.586	888.85
878.762	888.07
878.938	860.37
879.115	805.34
879.291	863.66
879.467	800.69
879.644	869.86
879.82	878
879.996	845.06
880.172	793.52
880.349	845.25
880.525	863.66
880.701	803.02
880.877	826.65
881.053	839.64
881.229	809.99
881.405	901.44
881.581	823.17
881.757	829.95
881.933	867.73
882.109	884.59
882.285	827.04
882.461	753.81
882.637	851.26
882.813	800.69
882.989	840.02
883.165	891.75
883.341	803.79
883.517	874.9
883.693	839.05
883.869	857.07
884.044	811.54
884.22	849.32
884.396	895.63
884.572	840.41
884.747	884.78
884.923	871.99
885.099	859.59
885.275	906.48
885.45	817.16
885.626	828.01
885.801	799.53
885.977	829.17
886.153	789.65
886.328	852.62
886.504	796.43
886.679	847.19
886.855	812.9
887.03	871.8
887.206	850.29
887.381	859.59
887.557	831.69
887.732	842.74
887.908	860.17
888.083	864.05
888.258	810.19
888.434	791.97
888.609	813.29
888.784	873.15
888.96	807.09
889.135	820.45
889.31	785
889.485	810.57
889.661	780.93
889.836	846.8
890.011	840.99
890.186	803.02
890.361	802.82
890.537	831.11
890.712	819.87
890.887	817.16
891.062	851.07
891.237	879.16
891.412	771.05
891.587	828.4
891.762	848.94
891.937	887.69
892.112	761.94
892.287	794.11
892.462	770.86
892.637	748.57
892.812	725.13
892.987	709.44
893.161	726.1
893.336	729.78
893.511	746.44
893.686	768.34
893.861	728.81
894.035	742.96
894.21	741.99
894.385	690.45
894.56	756.71
894.734	691.03
894.909	664.88
895.084	698.78
895.258	655.38
895.433	698.2
895.608	691.81
895.782	610.05
895.957	646.28
896.131	630.78
896.306	558.31
896.48	573.81
896.655	586.02
896.829	538.17
897.004	529.45
897.178	508.91
897.353	483.53
897.527	606.95
897.701	550.95
897.876	500
898.05	596.48
898.224	568.2
898.399	606.36
898.573	540.1
898.747	450.79
898.921	523.44
899.096	418.62
899.27	432.19
899.444	450.79
899.618	470.93
899.792	485.66
899.967	463.77
900.141	518.4
900.315	431.8
900.489	487.79
900.663	497.28
900.837	503.29
901.011	438
901.185	560.45
901.359	490.31
901.533	464.93
901.707	483.92
901.881	477.13
902.055	409.9
902.229	438.19
902.403	532.35
902.576	460.47
902.75	485.66
902.924	598.23
903.098	560.06
903.272	552.5
903.446	603.07
903.619	604.62
903.793	610.24
903.967	565.29
904.14	654.61
904.314	653.44
904.488	592.8
904.661	617.99
904.835	599.39
905.009	648.02
905.182	641.63
905.356	634.65
905.529	636.2
905.703	573.23
905.876	578.66
906.05	539.91
906.223	499.03
906.397	491.28
906.57	476.17
906.744	470.93
906.917	464.35
907.09	488.95
907.264	495.93
907.437	443.04
907.61	407.77
907.784	433.54
907.957	443.04
908.13	437.8
908.304	469.38
908.477	399.83
908.65	452.14
908.823	392.85
908.996	462.41
909.17	408.16
909.343	424.24
909.516	412.23
909.689	431.6
909.862	415.72
910.035	430.05
910.208	374.64
910.381	418.04
910.554	513.75
910.727	423.47
910.9	420.95
911.073	385.49
911.246	480.62
911.419	454.08
911.592	458.15
911.765	403.51
911.938	373.48
912.11	428.89
912.283	424.24
912.456	482.56
912.629	422.3
912.802	406.42
912.974	379.29
913.147	347.32
913.32	303.34
913.493	352.56
913.665	370.57
913.838	355.07
914.01	353.91
914.183	365.92
914.356	357.4
914.528	392.66
914.701	454.47
914.873	407.39
915.046	384.72
915.218	328.53
915.391	289.01
915.563	329.89
915.736	378.71
915.908	380.07
916.081	376.19
916.253	349.07
916.425	362.82
916.598	368.64
916.77	376.19
916.942	323.88
917.115	288.04
917.287	328.34
917.459	314.77
917.632	328.53
917.804	270.41
917.976	312.06
918.148	327.95
918.32	343.06
918.493	366.51
918.665	394.21
918.837	375.42
919.009	419.4
919.181	399.44
919.353	359.14
919.525	354.11
919.697	379.87
919.869	366.51
920.041	430.83
920.213	500.97
920.385	448.65
920.557	388.79
920.729	404.09
920.901	414.36
921.073	368.83
921.244	379.29
921.416	418.82
921.588	385.88
921.76	356.62
921.932	432.38
922.103	414.17
922.275	366.12
922.447	363.6
922.619	300.63
922.79	355.27
922.962	356.82
923.134	395.76
923.305	333.18
923.477	325.04
923.648	324.46
923.82	348.1
923.991	300.63
924.163	293.07
924.335	326.98
924.506	312.45
924.677	350.23
924.849	291.72
925.02	340.74
925.192	363.41
925.363	320.2
925.535	332.41
925.706	313.61
925.877	376.77
926.049	309.93
926.22	331.63
926.391	322.91
926.562	332.6
926.734	283.19
926.905	388.2
927.076	276.03
927.247	296.56
927.419	245.8
927.59	256.84
927.761	276.41
927.932	255.1
928.103	267.69
928.274	220.03
928.445	231.27
928.616	233.79
928.787	248.9
928.958	267.5
929.129	261.11
929.3	213.83
929.471	202.6
929.642	153.96
929.813	117.15
929.984	214.61
930.155	135.75
930.326	185.93
930.496	150.86
930.667	94.48
930.838	145.44
931.009	106.11
931.18	134.78
931.35	115.8
931.521	135.75
931.692	76.08
931.863	48.95
932.033	120.06
932.204	132.85
932.374	91
932.545	44.88
932.716	107.66
932.886	114.25
933.057	38.68
933.227	41.4
933.398	134.01
933.568	33.65
933.739	17.18
933.909	24.54
934.08	99.91
934.25	-14.79
934.421	10.01
934.591	78.98
934.761	12.72
934.932	-1.42
935.102	35.58
935.272	39.85
935.443	37.91
935.613	30.16
935.783	44.88
935.953	22.02
936.123	165.01
936.294	12.14
936.464	4.78
936.634	29.97
936.804	-2.97
936.974	-9.56
937.144	44.3
937.314	38.1
937.484	21.25
937.655	-0.45
937.825	69.1
937.995	14.27
938.165	57.67
938.334	31.52
938.504	72.98
938.674	22.41
938.844	47.4
939.014	102.43
939.184	46.43
939.354	141.18
939.524	120.25
939.694	79.95
939.863	41.98
940.033	135.95
940.203	118.51
940.373	69.68
940.542	102.04
940.712	76.08
940.882	75.3
941.051	109.79
941.221	117.35
941.391	130.91
941.56	55.93
941.73	46.24
941.899	156.29
942.069	45.85
942.238	94.87
942.408	59.42
942.577	123.35
942.747	77.63
942.916	28.03
943.086	39.65
943.255	98.94
943.425	87.51
943.594	36.17
943.763	14.66
943.933	24.74
944.102	-3.55
944.271	35.97
944.441	70.85
944.61	41.78
944.779	55.54
944.948	142.53
945.117	16.6
945.287	28.42
945.456	-9.75
945.625	30.16
945.794	32.29
945.963	23.96
946.132	68.72
946.301	10.2
946.47	106.88
946.639	-7.23
946.808	10.98
946.977	44.3
947.146	94.1
947.315	61.35
947.484	93.71
947.653	26.09
947.822	11.95
947.991	29.97
948.16	88.09
948.329	110.57
948.498	61.55
948.666	57.87
948.835	75.69
949.004	20.28
949.173	20.28
949.341	58.25
949.51	57.48
949.679	105.14
949.847	102.62
950.016	140.01
950.185	100.88
950.353	22.22
950.522	51.67
950.69	114.25
950.859	22.41
951.028	102.82
951.196	48.76
951.365	45.66
951.533	73.56
951.701	65.81
951.87	89.64
952.038	22.41
952.207	73.95
952.375	107.85
952.543	35.78
952.712	30.55
952.88	23.77
953.048	127.23
953.217	70.27
953.385	78.4
953.553	96.03
953.721	14.08
953.89	56.7
954.058	-7.04
954.226	13.3
954.394	60.38
954.562	27.84
954.73	59.03
954.898	74.53
955.067	74.92
955.235	40.23
955.403	99.33
955.571	108.05
955.739	75.69
955.907	31.9
956.075	44.3
956.243	29.38
956.41	68.33
956.578	2.45
956.746	-1.42
956.914	44.88
957.082	90.03
957.25	82.47
957.418	40.04
957.585	52.44
957.753	102.04
957.921	36.17
958.089	66.97
958.256	86.15
958.424	70.27
958.592	70.85
958.759	24.74
958.927	82.08
959.095	28.8
959.262	34.81
959.43	84.02
959.597	45.08
959.765	73.56
959.932	29.77
960.1	106.69
960.267	60.19
960.435	61.16
960.602	85.18
960.77	35
960.937	8.46
961.104	61.55
961.272	13.69
961.439	36.75
961.606	95.07
961.774	85.57
961.941	47.79
962.108	75.69
962.275	72.2
962.443	118.9
962.61	87.9
962.777	127.03
962.944	87.7
963.111	79.57
963.278	85.38
963.446	86.54
963.613	89.25
963.78	81.12
963.947	97.2
964.114	67.55
964.281	158.03
964.448	121.03
964.615	55.15
964.782	99.72
964.949	109.4
965.116	107.08
965.282	130.91
965.449	56.51
965.616	38.3
965.783	83.05
965.95	82.08
966.117	51.86
966.283	43.33
966.45	100.3
966.617	65.42
966.784	137.11
966.95	103.78
967.117	101.27
967.284	50.5
967.45	62.9
967.617	152.61
967.784	124.9
967.95	125.87
968.117	79.37
968.283	122.58
968.45	161.52
968.616	97.78
968.783	113.67
968.949	94.1
969.116	134.4
969.282	101.07
969.449	98.36
969.615	118.7
969.781	55.15
969.948	106.5
970.114	39.27
970.28	128.39
970.447	94.29
970.613	154.35
970.779	68.91
970.945	112.7
971.112	78.21
971.278	84.8
971.444	71.43
971.61	115.8
971.776	69.88
971.942	95.07
972.108	96.62
972.275	86.73
972.441	92.35
972.607	139.63
972.773	58.45
972.939	113.47
973.105	88.48
973.271	59.61
973.437	71.23
973.602	74.14
973.768	110.18
973.934	90.42
974.1	86.35
974.266	13.69
974.432	69.3
974.598	72.4
974.763	95.26
974.929	86.15
975.095	115.41
975.261	63.68
975.426	37.91
975.592	75.69
975.758	149.9
975.923	27.45
976.089	59.03
976.255	96.23
976.42	115.22
976.586	82.08
976.751	89.25
976.917	169.08
977.082	82.67
977.248	40.43
977.413	19.7
977.579	61.93
977.744	87.51
977.91	29.19
978.075	38.68
978.24	105.53
978.406	78.6
978.571	82.08
978.736	33.07
978.902	110.76
979.067	11.95
979.232	26.29
979.397	67.36
979.563	126.06
979.728	40.82
979.893	66.97
980.058	49.53
980.223	110.37
980.388	83.05
980.554	76.08
980.719	79.76
980.884	83.83
981.049	116.18
981.214	46.82
981.379	130.13
981.544	62.32
981.709	62.52
981.874	55.35
982.039	66.97
982.204	110.95
982.368	57.87
982.533	24.15
982.698	115.99
982.863	134.4
983.028	64.84
983.193	106.11
983.357	72.78
983.522	86.54
983.687	61.55
983.852	69.68
984.016	57.67
984.181	81.7
984.346	82.28
984.51	103.59
984.675	81.31
984.839	80.73
985.004	97.58
985.168	109.02
985.333	90.61
985.498	73.75
985.662	93.9
985.827	69.1
985.991	65.03
986.155	54.18
986.32	121.41
986.484	117.35
986.649	84.22
986.813	13.11
986.977	73.75
987.142	126.06
987.306	36.94
987.47	30.74
987.634	76.27
987.799	81.89
987.963	94.87
988.127	86.73
988.291	186.51
988.455	88.09
988.62	35.2
988.784	93.71
988.948	111.92
989.112	57.67
989.276	90.8
989.44	92.93
989.604	59.61
989.768	62.32
989.932	131.1
990.096	30.74
990.26	22.02
990.424	6.52
990.588	69.68
990.752	128.39
990.915	71.62
991.079	62.13
991.243	62.71
991.407	87.7
991.571	79.37
991.734	86.54
991.898	84.6
992.062	156.87
992.226	58.25
992.389	55.73
992.553	10.79
992.717	46.24
992.88	74.33
993.044	62.9
993.207	72.59
993.371	75.5
993.535	83.63
993.698	61.93
993.862	96.23
994.025	104.56
994.189	88.67
994.352	61.16
994.515	56.32
994.679	105.72
994.842	33.26
995.006	83.63
995.169	42.56
995.332	37.91
995.496	98.17
995.659	6.33
995.822	60.58
995.985	77.05
996.149	128
996.312	62.52
996.475	131.1
996.638	64.26
996.801	108.63
996.964	83.44
997.128	70.07
997.291	31.32
997.454	94.1
997.617	-2.97
997.78	73.37
997.943	41.01
998.106	86.73
998.269	18.34
998.432	49.73
998.595	56.12
998.758	18.73
998.92	9.04
999.083	15.44
999.246	63.1
999.409	19.31
999.572	18.15
999.735	38.49
999.897	78.02
1000.06	37.52
1000.223	36.75
1000.386	63.29
1000.548	94.68
1000.711	84.99
1000.874	81.7
1001.036	-0.06
1001.199	87.51
1001.361	27.06
1001.524	57.09
1001.687	50.31
1001.849	3.23
1002.012	64.65
1002.174	70.65
1002.337	79.18
1002.499	37.33
1002.661	83.05
1002.824	32.87
1002.986	-1.61
1003.149	69.1
1003.311	23.57
1003.473	85.57
1003.636	23.38
1003.798	73.17
1003.96	50.5
1004.123	65.81
1004.285	37.91
1004.447	58.83
1004.609	32.87
1004.771	101.85
1004.933	-1.81
1005.096	16.21
1005.258	-30.1
1005.42	35.97
1005.582	85.57
1005.744	46.43
1005.906	-17.31
1006.068	50.31
1006.23	6.33
1006.392	-2.39
1006.554	-3.16
1006.716	55.54
1006.878	62.9
1007.04	-9.95
1007.202	36.94
1007.363	78.79
1007.525	53.8
1007.687	54.18
1007.849	73.75
1008.011	-3.55
1008.172	6.72
1008.334	5.94
1008.496	85.18
1008.658	-22.35
1008.819	7.3
1008.981	-9.36
1009.143	16.02
1009.304	16.21
1009.466	66.2
1009.627	100.1
1009.789	111.92
1009.95	37.13
1010.112	14.47
1010.273	45.08
1010.435	10.79
1010.596	27.45
1010.758	10.59
1010.919	39.65
1011.081	10.4
1011.242	16.6
1011.403	44.69
1011.565	31.52
1011.726	20.09
1011.887	-5.68
1012.049	29.58
1012.21	60.97
1012.371	97.58
1012.532	-56.06
1012.693	53.6
1012.855	10.98
1013.016	5.55
1013.177	67.17
1013.338	33.84
1013.499	69.49
1013.66	54.38
1013.821	26.29
1013.982	31.9
1014.143	42.56
1014.304	10.2
1014.465	53.02
1014.626	48.95
1014.787	24.74
1014.948	98.55
1015.109	-15.56
1015.27	51.28
1015.431	22.99
1015.592	-14.6
1015.752	48.37
1015.913	37.52
1016.074	52.44
1016.235	12.14
1016.395	1.49
1016.556	14.47
1016.717	43.14
1016.877	83.44
1017.038	-1.42
1017.199	15.63
1017.359	48.76
1017.52	18.73
1017.681	22.41
1017.841	30.55
1018.002	29
1018.162	15.44
1018.323	67.36
1018.483	22.8
1018.644	12.34
1018.804	-19.05
1018.964	-17.31
1019.125	-6.65
1019.285	39.46
1019.446	-7.04
1019.606	-16.53
1019.766	-14.4
1019.926	38.1
1020.087	30.74
1020.247	-23.51
1020.407	60
1020.567	51.67
1020.728	9.43
1020.888	-29.51
1021.048	-4.52
1021.208	-15.18
1021.368	-1.03
1021.528	68.91
1021.688	50.89
1021.848	16.79
1022.008	22.99
1022.168	4.78
1022.328	29.58
1022.488	66.58
1022.648	-6.46
1022.808	13.3
1022.968	45.27
1023.128	-1.23
1023.288	2.45
1023.448	35.2
1023.608	53.99
1023.767	49.53
1023.927	11.95
1024.087	-21.96
1024.247	-20.02
1024.406	1.68
1024.566	-20.02
1024.726	-19.83
1024.885	11.56
1025.045	48.37
1025.205	8.85
1025.364	-3.75
1025.524	35.58
1025.683	16.4
1025.843	8.27
1026.003	8.85
1026.162	71.04
1026.321	48.18
1026.481	19.5
1026.64	-10.91
1026.8	44.3
1026.959	39.65
1027.119	37.91
1027.278	6.14
1027.437	5.94
1027.597	21.83
1027.756	28.22
1027.915	23.57
1028.074	47.02
1028.234	6.14
1028.393	11.17
1028.552	22.41
1028.711	-69.62
1028.87	66.97
1029.03	-31.65
1029.189	21.25
1029.348	-37.85
1029.507	-14.21
1029.666	-4.13
1029.825	-18.86
1029.984	-5.88
1030.143	24.74
1030.302	-13.05
1030.461	-35.13
1030.62	-12.66
1030.779	16.21
1030.938	-31.65
1031.097	-45.79
1031.255	37.72
1031.414	59.61
1031.573	77.24
1031.732	-36.68
1031.891	17.18
1032.049	82.86
1032.208	15.05
1032.367	5.55
1032.525	-7.43
1032.684	1.87
1032.843	26.29
1033.001	-17.31
1033.16	155.32
1033.319	62.9
1033.477	35.2
1033.636	-6.65
1033.794	-45.98
1033.953	53.8
1034.111	13.5
1034.27	9.62
1034.428	24.54
1034.587	-28.35
1034.745	2.65
1034.903	5.36
1035.062	44.5
1035.22	-28.55
1035.378	45.66
1035.537	-24.86
1035.695	28.61
1035.853	0.13
1036.011	45.47
1036.17	13.69
1036.328	-48.89
1036.486	7.69
1036.644	6.72
1036.802	-65.16
1036.96	-20.6
1037.119	12.14
1037.277	-14.21
1037.435	-40.95
1037.593	-33.58
1037.751	19.31
1037.909	22.41
1038.067	22.41
