Data from oakcork_FLMT105791__295__17-34-41-052.txt Node

Date: Mon Mar 20 17:34:41 GMT 2023
User: antho
Spectrometer: FLMT10579
Trigger mode: 0
Integration Time (sec): 1.000000E-1
Scans to average: 10
Electric dark correction enabled: true
Nonlinearity correction enabled: false
Boxcar width: 0
XAxis mode: Wavelengths
Number of Pixels in Spectrum: 3648
>>>>>Begin Spectral Data<<<<<
345.248	-156.79
345.464	-156.79
345.681	-156.79
345.898	-166.28
346.114	-151.95
346.331	-34.73
346.548	14.1
346.764	-3.54
346.981	-31.63
347.197	-11.67
347.414	21.07
347.631	-20.78
347.847	59.24
348.064	0.92
348.28	1.7
348.497	-26.2
348.713	31.53
348.93	31.73
349.146	49.16
349.363	12.93
349.579	23.59
349.796	3.63
350.012	-16.13
350.229	16.61
350.445	29.59
350.661	-10.9
350.878	8.28
351.094	-4.12
351.311	10.8
351.527	27.27
351.743	0.53
351.96	26.3
352.176	32.5
352.392	35.79
352.609	26.11
352.825	17.58
353.041	22.62
353.257	-1.21
353.474	5.57
353.69	29.79
353.906	3.83
354.122	-26.98
354.339	54.78
354.555	1.5
354.771	2.86
354.987	63.69
355.203	72.22
355.42	-14.77
355.636	-7.8
355.852	-14.19
356.068	27.66
356.284	-17.68
356.5	52.07
356.716	21.07
356.932	11.19
357.148	9.45
357.364	11.96
357.58	66.6
357.796	39.67
358.012	25.53
358.228	12.16
358.444	-24.07
358.66	32.69
358.876	33.86
359.092	-22.91
359.308	16.03
359.524	17.2
359.74	-1.02
359.956	-3.15
360.172	26.3
360.388	32.5
360.604	-3.73
360.819	82.88
361.035	23.98
361.251	29.59
361.467	-39.77
361.683	42.19
361.898	8.28
362.114	37.15
362.33	-0.24
362.546	34.63
362.762	21.84
362.977	14.68
363.193	-23.69
363.409	48.39
363.624	-11.87
363.84	2.47
364.056	-1.79
364.271	36.96
364.487	42.58
364.703	9.25
364.918	-20.97
365.134	-5.86
365.35	8.86
365.565	77.26
365.781	1.31
365.996	16.42
366.212	61.56
366.427	29.21
366.643	-14.97
366.858	17
367.074	-26.01
367.289	52.07
367.505	107.29
367.72	-34.92
367.936	-23.69
368.151	36.38
368.367	10.03
368.582	32.89
368.798	21.26
369.013	49.36
369.228	16.23
369.444	15.45
369.659	45.68
369.874	25.72
370.09	69.51
370.305	-12.84
370.52	-17.87
370.736	44.51
370.951	0.34
371.166	45.09
371.381	70.67
371.597	49.36
371.812	5.76
372.027	-11.87
372.242	26.49
372.458	86.56
372.673	11.96
372.888	10.61
373.103	35.02
373.318	80.36
373.533	59.43
373.749	37.93
373.964	-36.28
374.179	60.21
374.394	-20.97
374.609	45.29
374.824	-4.7
375.039	40.83
375.254	14.29
375.469	72.03
375.684	19.91
375.899	40.25
376.114	0.73
376.329	30.18
376.544	33.28
376.759	52.07
376.974	7.51
377.189	-0.82
377.404	-0.05
377.619	48.97
377.834	-30.47
378.049	-39.57
378.264	-5.28
378.478	35.21
378.693	-10.32
378.908	31.92
379.123	14.87
379.338	23.98
379.553	27.46
379.767	6.54
379.982	14.48
380.197	22.23
380.412	12.16
380.626	36.96
380.841	60.59
381.056	36.76
381.271	78.42
381.485	15.06
381.7	-15.94
381.915	11.77
382.129	16.61
382.344	19.52
382.559	13.13
382.773	50.52
382.988	-13.03
383.202	25.14
383.417	6.93
383.632	104.38
383.846	13.13
384.061	14.29
384.275	21.65
384.49	72.41
384.704	29.4
384.919	22.43
385.133	26.69
385.348	62.92
385.562	-17.68
385.777	58.85
385.991	17.97
386.206	-3.15
386.42	-0.63
386.634	52.84
386.849	31.53
387.063	17.39
387.277	-2.37
387.492	4.21
387.706	-3.73
387.92	-15.35
388.135	36.38
388.349	29.59
388.563	27.66
388.778	5.96
388.992	44.51
389.206	28.43
389.42	97.41
389.635	1.7
389.849	45.87
390.063	60.01
390.277	53.04
390.491	67.18
390.706	47.42
390.92	55.36
391.134	41.41
391.348	72.22
391.562	-26.4
391.776	23.2
391.99	3.05
392.205	59.63
392.419	1.5
392.633	1.89
392.847	65.63
393.061	2.86
393.275	71.06
393.489	53.04
393.703	41.03
393.917	80.36
394.131	16.03
394.345	53.81
394.559	56.72
394.773	28.24
394.986	20.88
395.2	26.49
395.414	43.74
395.628	0.92
395.842	38.7
396.056	8.28
396.27	-35.89
396.484	32.31
396.697	35.99
396.911	69.12
397.125	59.43
397.339	54.78
397.553	39.09
397.766	82.88
397.98	58.08
398.194	51.88
398.408	25.91
398.621	38.51
398.835	23.98
399.049	50.91
399.262	78.42
399.476	69.31
399.69	48.19
399.903	94.31
400.117	40.83
400.331	64.66
400.544	6.93
400.758	141.39
400.971	44.71
401.185	64.28
401.398	6.15
401.612	50.91
401.826	50.91
402.039	57.69
402.253	5.38
402.466	60.4
402.68	43.35
402.893	54.78
403.106	45.48
403.32	39.86
403.533	48.19
403.747	35.21
403.96	42.77
404.174	48.19
404.387	10.22
404.6	32.31
404.814	81.33
405.027	72.41
405.24	34.83
405.454	41.03
405.667	73.96
405.88	-8.77
406.094	16.42
406.307	79.58
406.52	60.01
406.733	1.31
406.947	-6.64
407.16	101.86
407.373	68.73
407.586	32.5
407.799	30.95
408.012	80.36
408.226	36.57
408.439	80.55
408.652	-3.92
408.865	62.92
409.078	78.61
409.291	61.37
409.504	-3.54
409.717	82.1
409.93	42.96
410.143	39.67
410.357	-40.54
410.57	12.74
410.783	28.24
410.996	45.68
411.209	43.35
411.421	88.11
411.634	48.78
411.847	31.14
412.06	78.03
412.273	32.31
412.486	62.53
412.699	141.97
412.912	42.96
413.125	47.42
413.338	59.24
413.55	80.36
413.763	51.29
413.976	58.85
414.189	46.06
414.402	34.63
414.615	79
414.827	44.13
415.04	81.71
415.253	64.47
415.466	76.29
415.678	101.09
415.891	60.21
416.104	35.6
416.316	49.36
416.529	36.76
416.742	74.93
416.954	89.08
417.167	52.84
417.38	33.08
417.592	91.4
417.805	41.22
418.017	9.64
418.23	70.09
418.442	41.99
418.655	67.57
418.868	45.29
419.08	80.74
419.293	89.27
419.505	53.23
419.718	58.85
419.93	103.03
420.142	63.31
420.355	120.27
420.567	121.04
420.78	92.76
420.992	73.58
421.205	99.15
421.417	27.08
421.629	41.8
421.842	33.28
422.054	23.78
422.266	103.99
422.479	108.26
422.691	26.3
422.903	112.13
423.115	18.36
423.328	39.48
423.54	66.41
423.752	76.09
423.964	23.78
424.177	60.4
424.389	56.14
424.601	133.64
424.813	47.42
425.025	84.43
425.238	82.88
425.45	54.39
425.662	61.18
425.874	340.95
426.086	57.69
426.298	57.88
426.51	72.22
426.722	65.05
426.934	41.41
427.146	84.81
427.358	12.35
427.57	97.79
427.782	43.93
427.994	62.92
428.206	46.64
428.418	31.92
428.63	63.89
428.842	89.46
429.054	81.33
429.266	75.9
429.478	44.9
429.69	64.86
429.902	26.49
430.114	86.17
430.325	91.21
430.537	44.71
430.749	51.49
430.961	47.23
431.173	61.95
431.384	57.11
431.596	3.05
431.808	39.09
432.02	74.54
432.231	87.14
432.443	76.68
432.655	82.88
432.867	39.67
433.078	81.91
433.29	139.45
433.502	96.44
433.713	75.51
433.925	80.36
434.136	90.43
434.348	34.83
434.56	6.15
434.771	155.72
434.983	16.03
435.194	33.08
435.406	55.75
435.617	80.16
435.829	122.79
436.04	78.23
436.252	93.53
436.463	107.09
436.675	74.16
436.886	54.39
437.098	92.76
437.309	103.8
437.521	72.03
437.732	66.21
437.943	87.33
438.155	73.58
438.366	25.14
438.578	116.97
438.789	68.15
439	68.34
439.211	81.33
439.423	96.83
439.634	99.15
439.845	108.06
440.057	78.03
440.268	113.1
440.479	52.65
440.69	83.07
440.902	57.3
441.113	72.41
441.324	54.2
441.535	93.92
441.746	142.74
441.957	42.96
442.168	58.46
442.38	111.94
442.591	104.19
442.802	65.63
443.013	53.62
443.224	96.44
443.435	64.86
443.646	87.53
443.857	86.94
444.068	65.24
444.279	70.09
444.49	134.99
444.701	104.19
444.912	157.08
445.123	95.08
445.334	93.53
445.545	83.07
445.756	74.93
445.967	42.58
446.178	83.65
446.388	128.6
446.599	127.24
446.81	117.36
447.021	63.11
447.232	124.92
447.443	114.65
447.653	87.14
447.864	128.41
448.075	84.23
448.286	108.06
448.496	105.35
448.707	116.78
448.918	70.28
449.129	179.56
449.339	71.64
449.55	109.22
449.761	83.07
449.971	135.19
450.182	75.71
450.393	125.31
450.603	71.64
450.814	130.92
451.024	97.21
451.235	139.84
451.446	126.86
451.656	129.57
451.867	82.68
452.077	105.16
452.288	172.58
452.498	146.23
452.709	107.29
452.919	117.94
453.13	94.11
453.34	150.49
453.55	71.64
453.761	125.5
453.971	120.85
454.182	136.74
454.392	126.47
454.602	154.37
454.813	99.15
455.023	141.58
455.233	71.44
455.444	131.7
455.654	45.29
455.864	98.96
456.075	96.83
456.285	85.98
456.495	77.45
456.705	105.93
456.916	128.79
457.126	158.24
457.336	113.87
457.546	65.63
457.756	85.59
457.967	137.12
458.177	91.01
458.387	117.94
458.597	104.96
458.807	103.61
459.017	113.87
459.227	90.63
459.437	111.36
459.647	124.53
459.857	141.19
460.068	73.77
460.278	154.95
460.488	136.93
460.698	143.91
460.908	111.36
461.117	70.48
461.327	81.33
461.537	99.93
461.747	101.48
461.957	88.69
462.167	212.49
462.377	148.75
462.587	111.74
462.797	152.62
463.007	122.4
463.216	159.79
463.426	167.74
463.636	151.07
463.846	60.98
464.056	103.22
464.265	135.96
464.475	102.64
464.685	116.39
464.895	135.96
465.104	88.11
465.314	150.49
465.524	137.9
465.733	123.95
465.943	173.94
466.153	166.19
466.362	164.06
466.572	131.51
466.782	119.3
466.991	111.36
467.201	171.61
467.41	86.75
467.62	155.53
467.829	103.22
468.039	149.33
468.249	117.94
468.458	110.58
468.668	132.86
468.877	116.78
469.086	173.16
469.296	172.58
469.505	98.57
469.715	187.5
469.924	145.46
470.134	175.29
470.343	175.87
470.552	126.66
470.762	128.02
470.971	114.65
471.18	118.91
471.39	130.73
471.599	76.48
471.808	168.12
472.018	114.84
472.227	162.51
472.436	143.32
472.645	122.01
472.855	101.67
473.064	170.26
473.273	123.56
473.482	127.63
473.691	166.19
473.901	154.95
474.11	141.58
474.319	206.68
474.528	178.78
474.737	168.32
474.946	153.59
475.155	141
475.364	159.02
475.573	157.47
475.783	146.23
475.992	177.23
476.201	198.35
476.41	145.84
476.619	125.31
476.828	166.77
477.037	130.34
477.245	136.35
477.454	172.97
477.663	160.76
477.872	150.11
478.081	187.31
478.29	139.84
478.499	221.02
478.708	155.53
478.917	231.29
479.125	170.45
479.334	160.18
479.543	164.83
479.752	186.72
479.961	194.67
480.169	190.41
480.378	149.52
480.587	269.84
480.796	187.5
481.004	159.02
481.213	214.43
481.422	175.49
481.63	175.29
481.839	155.72
482.048	232.64
482.256	189.44
482.465	170.84
482.674	178.78
482.882	210.17
483.091	264.42
483.299	174.13
483.508	230.7
483.716	177.04
483.925	188.47
484.134	161.54
484.342	172.19
484.551	209.78
484.759	203.19
484.967	226.44
485.176	253.57
485.384	220.05
485.593	225.86
485.801	189.24
486.01	199.32
486.218	191.96
486.426	161.92
486.635	187.5
486.843	195.64
487.051	195.83
487.26	157.47
487.468	234
487.676	217.72
487.885	177.62
488.093	195.06
488.301	194.86
488.509	205.52
488.717	244.07
488.926	204.55
489.134	199.32
489.342	205.71
489.55	187.31
489.758	193.12
489.967	195.25
490.175	271.59
490.383	181.11
490.591	254.92
490.799	171.22
491.007	247.17
491.215	219.27
491.423	215.79
491.631	205.71
491.839	209.59
492.047	278.37
492.255	201.06
492.463	143.91
492.671	218.11
492.879	258.99
493.087	223.34
493.295	221.6
493.503	236.13
493.711	243.49
493.919	257.05
494.127	259.19
494.334	269.07
494.542	180.33
494.75	208.04
494.958	229.15
495.166	262.87
495.374	252.4
495.581	237.49
495.789	224.89
495.997	264.42
496.205	249.69
496.412	234.19
496.62	251.05
496.828	253.57
497.035	224.31
497.243	230.12
497.451	242.14
497.658	227.6
497.866	263.25
498.074	278.75
498.281	219.47
498.489	307.23
498.696	263.06
498.904	236.52
499.112	240.78
499.319	302.78
499.527	224.5
499.734	274.49
499.942	198.35
500.149	219.27
500.357	238.07
500.564	240.39
500.771	254.15
500.979	224.89
501.186	235.16
501.394	271
501.601	235.16
501.808	276.43
502.016	278.17
502.223	242.91
502.43	224.31
502.638	243.3
502.845	234.19
503.052	325.06
503.26	254.92
503.467	295.03
503.674	240.97
503.881	273.91
504.089	315.57
504.296	298.9
504.503	212.3
504.71	258.8
504.917	217.53
505.125	251.05
505.332	241.94
505.539	272.17
505.746	311.11
505.953	291.35
506.16	278.95
506.367	294.06
506.574	289.02
506.781	320.6
506.988	267.71
507.195	274.88
507.402	260.35
507.609	293.48
507.816	245.43
508.023	264.8
508.23	253.95
508.437	236.52
508.644	296.19
508.851	353.35
509.058	311.69
509.265	270.81
509.472	289.6
509.679	360.9
509.885	239.81
510.092	272.17
510.299	291.15
510.506	294.83
510.713	305.68
510.92	290.77
511.126	300.45
511.333	317.7
511.54	282.24
511.746	325.06
511.953	342.11
512.16	326.22
512.367	296.58
512.573	265
512.78	309.75
512.987	300.84
513.193	309.75
513.4	240.59
513.606	264.8
513.813	302.58
514.02	309.56
514.226	385.7
514.433	333.78
514.639	270.62
514.846	308.2
515.052	264.42
515.259	300.65
515.465	305.1
515.672	320.41
515.878	383.38
516.085	291.15
516.291	321.96
516.497	277.2
516.704	323.12
516.91	279.72
517.117	272.17
517.323	269.26
517.529	298.52
517.736	271.2
517.942	313.43
518.148	270.62
518.354	323.51
518.561	322.15
518.767	295.03
518.973	343.66
519.179	319.25
519.386	279.92
519.592	296.97
519.798	283.21
520.004	327.58
520.21	308.4
520.417	341.72
520.623	343.85
520.829	343.47
521.035	311.69
521.241	345.6
521.447	327.58
521.653	428.71
521.859	328.74
522.065	359.16
522.271	433.95
522.477	356.25
522.683	386.09
522.889	372.91
523.095	358
523.301	353.93
523.507	334.55
523.713	367.3
523.919	339.2
524.125	359.93
524.331	360.52
524.537	400.04
524.742	368.07
524.948	387.64
525.154	400.04
525.36	454.1
525.566	382.02
525.772	432.4
525.977	320.22
526.183	395.39
526.389	407.21
526.595	360.71
526.8	368.46
527.006	347.73
527.212	356.83
527.417	323.9
527.623	316.15
527.829	382.99
528.034	369.43
528.24	390.74
528.446	337.27
528.651	434.72
528.857	404.11
529.062	456.61
529.268	399.65
529.473	386.48
529.679	366.33
529.884	440.73
530.09	402.17
530.295	461.84
530.501	436.27
530.706	404.5
530.912	372.91
531.117	395.97
531.323	416.12
531.528	425.03
531.733	431.81
531.939	392.29
532.144	440.15
532.35	416.51
532.555	440.53
532.76	422.32
532.966	453.51
533.171	452.16
533.376	394.81
533.581	413.99
533.787	455.26
533.992	436.27
534.197	477.93
534.402	436.08
534.607	425.03
534.813	494.78
535.018	425.81
535.223	392.68
535.428	459.91
535.633	464.75
535.838	456.23
536.043	428.52
536.249	508.34
536.454	449.83
536.659	458.16
536.864	429.3
537.069	425.03
537.274	462.43
537.479	464.17
537.684	465.91
537.889	418.25
538.094	514.74
538.299	436.85
538.504	462.43
538.708	482.19
538.913	481.22
539.118	441.11
539.323	467.27
539.528	464.17
539.733	441.31
539.938	453.9
540.142	491.68
540.347	453.51
540.552	437.24
540.757	472.69
540.962	473.08
541.166	427.75
541.371	416.31
541.576	462.43
541.781	346.95
541.985	446.54
542.19	448.67
542.395	481.8
542.599	511.06
542.804	509.7
543.008	473.28
543.213	444.21
543.418	424.26
543.622	474.83
543.827	435.11
544.031	502.73
544.236	490.13
544.44	470.37
544.645	553.87
544.849	461.84
545.054	483.35
545.258	534.11
545.463	511.44
545.667	455.26
545.872	495.17
546.076	505.24
546.281	465.72
546.485	456.61
546.689	492.07
546.894	533.73
547.098	479.67
547.302	435.88
547.507	470.18
547.711	464.17
547.915	529.27
548.119	456.61
548.324	475.41
548.528	564.92
548.732	480.44
548.936	505.05
549.141	517.06
549.345	455.06
549.549	486.26
549.753	464.75
549.957	557.75
550.161	526.56
550.366	492.07
550.57	443.44
550.774	512.41
550.978	487.42
551.182	533.34
551.386	485.48
551.59	498.27
551.794	491.49
551.998	493.43
552.202	466.69
552.406	468.24
552.61	479.86
552.814	504.28
553.018	539.15
553.222	506.02
553.426	488.58
553.63	584.29
553.833	468.04
554.037	438.6
554.241	498.85
554.445	478.31
554.649	477.54
554.853	466.49
555.056	498.85
555.26	537.79
555.464	513.96
555.668	491.1
555.871	506.41
556.075	503.5
556.279	466.69
556.483	447.51
556.686	497.49
556.89	473.66
557.094	510.48
557.297	465.91
557.501	478.31
557.704	461.07
557.908	518.03
558.112	463.78
558.315	532.56
558.519	481.8
558.722	490.52
558.926	487.03
559.129	472.31
559.333	416.12
559.536	443.05
559.74	456.81
559.943	447.51
560.147	434.91
560.35	454.29
560.553	455.45
560.757	406.24
560.96	492.26
561.164	430.85
561.367	494.2
561.57	436.27
561.774	462.23
561.977	444.99
562.18	453.71
562.384	551.74
562.587	464.56
562.79	439.37
562.993	475.79
563.197	470.95
563.4	517.26
563.603	475.02
563.806	525.59
564.009	435.5
564.212	469.01
564.416	431.04
564.619	486.84
564.822	425.03
565.025	509.51
565.228	445.76
565.431	441.5
565.634	387.06
565.837	433.75
566.04	429.3
566.243	419.8
566.446	384.93
566.649	453.9
566.852	406.63
567.055	411.86
567.258	432.2
567.461	487.61
567.664	493.23
567.867	363.62
568.07	433.75
568.273	429.88
568.475	499.24
568.678	425.03
568.881	432.59
569.084	460.29
569.287	363.81
569.489	377.76
569.692	422.9
569.895	416.12
570.098	386.48
570.3	351.99
570.503	317.7
570.706	384.35
570.909	374.08
571.111	354.51
571.314	321.77
571.516	373.88
571.719	398.49
571.922	373.3
572.124	367.49
572.327	409.73
572.529	314.79
572.732	342.5
572.935	385.7
573.137	411.47
573.34	359.35
573.542	389.77
573.745	407.4
573.947	391.71
574.15	352.57
574.352	341.14
574.554	432.01
574.757	363.23
574.959	371.75
575.162	335.91
575.364	345.4
575.566	438.79
575.769	328.55
575.971	348.31
576.173	300.65
576.376	365.94
576.578	383.96
576.78	420.96
576.982	320.6
577.185	347.15
577.387	324.48
577.589	308.01
577.791	365.75
577.993	360.32
578.196	321.96
578.398	364.2
578.6	415.15
578.802	317.89
579.004	336.49
579.206	330.48
579.408	358.58
579.61	345.02
579.812	355.09
580.014	302.78
580.216	308.59
580.418	315.76
580.62	308.78
580.822	288.63
581.024	336.1
581.226	345.6
581.428	310.14
581.63	403.14
581.832	311.3
582.034	378.53
582.236	345.02
582.438	365.36
582.64	391.13
582.841	396.94
583.043	428.13
583.245	364.2
583.447	368.85
583.649	340.95
583.85	356.64
584.052	385.31
584.254	316.15
584.456	379.11
584.657	296.97
584.859	370.4
585.061	327.77
585.262	288.25
585.464	335.13
585.666	362.45
585.867	325.06
586.069	394.23
586.27	349.47
586.472	371.17
586.674	322.15
586.875	353.73
587.077	274.3
587.278	355.48
587.48	304.33
587.681	426.97
587.883	347.15
588.084	273.33
588.285	335.52
588.487	328.93
588.688	321.38
588.89	310.92
589.091	288.83
589.292	335.72
589.494	309.56
589.695	316.53
589.896	266.35
590.098	280.89
590.299	298.52
590.5	254.15
590.702	264.22
590.903	296.97
591.104	352.77
591.305	318.28
591.507	347.34
591.708	319.44
591.909	311.5
592.11	360.13
592.311	340.56
592.512	301.23
592.714	272.55
592.915	281.08
593.116	295.8
593.317	291.35
593.518	287.86
593.719	271
593.92	321.18
594.121	356.45
594.322	315.18
594.523	327.19
594.724	270.81
594.925	303.75
595.126	322.15
595.327	326.03
595.528	305.68
595.729	328.93
595.929	296.58
596.13	299.68
596.331	288.63
596.532	305.49
596.733	368.07
596.934	329.32
597.135	336.88
597.335	296.38
597.536	290.38
597.737	323.9
597.938	277.79
598.138	337.65
598.339	289.99
598.54	312.08
598.74	316.73
598.941	334.75
599.142	344.24
599.342	310.33
599.543	287.67
599.744	314.6
599.944	310.53
600.145	306.46
600.345	306.27
600.546	364.2
600.746	327.19
600.947	382.21
601.147	343.27
601.348	339.98
601.548	271.39
601.749	327.97
601.949	274.3
602.15	283.21
602.35	307.04
602.551	346.95
602.751	276.24
602.951	299.1
603.152	244.65
603.352	325.06
603.552	295.42
603.753	325.83
603.953	310.72
604.153	299.1
604.354	270.81
604.554	288.63
604.754	288.63
604.954	244.46
605.155	335.91
605.355	288.83
605.555	356.25
605.755	350.83
605.955	297.74
606.155	351.8
606.356	316.15
606.556	321.57
606.756	276.43
606.956	258.41
607.156	374.08
607.356	272.36
607.556	310.14
607.756	299.29
607.956	334.36
608.156	312.66
608.356	274.88
608.556	340.95
608.756	281.08
608.956	290.38
609.156	271.78
609.356	275.65
609.556	286.89
609.755	297.16
609.955	269.65
610.155	305.3
610.355	305.49
610.555	256.47
610.755	294.06
610.954	256.86
611.154	310.72
611.354	315.57
611.554	274.3
611.753	275.07
611.953	258.8
612.153	332.23
612.352	314.4
612.552	239.42
612.752	226.44
612.951	246.59
613.151	277.4
613.351	262.09
613.55	285.92
613.75	315.95
613.949	275.27
614.149	307.62
614.348	280.89
614.548	278.17
614.747	202.22
614.947	251.63
615.146	186.14
615.346	301.81
615.545	275.65
615.745	280.5
615.944	301.23
616.144	285.34
616.343	323.12
616.542	248.72
616.742	271.97
616.941	284.57
617.14	231.09
617.34	283.02
617.539	284.57
617.738	241.94
617.938	316.92
618.137	262.29
618.336	240
618.535	281.85
618.734	251.82
618.934	283.21
619.133	255.12
619.332	282.05
619.531	251.44
619.73	268.68
619.929	282.63
620.128	306.07
620.328	297.16
620.527	253.18
620.726	267.9
620.925	259.57
621.124	239.42
621.323	285.15
621.522	216.17
621.721	246.01
621.92	208.23
622.119	283.02
622.318	239.42
622.517	243.3
622.715	227.6
622.914	224.31
623.113	239.23
623.312	207.65
623.511	265.97
623.71	229.93
623.909	230.32
624.107	290.77
624.306	219.27
624.505	229.15
624.704	231.67
624.902	253.95
625.101	288.25
625.3	260.15
625.499	225.86
625.697	207.65
625.896	205.52
626.095	245.82
626.293	217.72
626.492	216.56
626.69	268.29
626.889	211.91
627.088	263.25
627.286	203.19
627.485	204.16
627.683	218.11
627.882	280.89
628.08	171.81
628.279	208.04
628.477	299.68
628.676	224.31
628.874	265.19
629.073	223.54
629.271	205.71
629.469	227.02
629.668	198.35
629.866	246.4
630.065	227.22
630.263	240.78
630.461	205.32
630.66	241.94
630.858	234.39
631.056	278.75
631.254	268.68
631.453	214.24
631.651	275.27
631.849	231.09
632.047	250.27
632.245	216.56
632.444	242.52
632.642	251.24
632.84	235.16
633.038	203
633.236	204.16
633.434	190.21
633.632	205.13
633.83	191.37
634.028	257.44
634.227	218.69
634.425	286.31
634.623	211.91
634.821	241.55
635.019	202.42
635.216	184.01
635.414	274.3
635.612	233.03
635.81	211.72
636.008	302
636.206	206.68
636.404	273.72
636.602	190.6
636.8	211.52
636.997	237.87
637.195	268.29
637.393	237.29
637.591	283.98
637.789	221.02
637.986	212.3
638.184	217.14
638.382	274.3
638.58	236.13
638.777	292.32
638.975	215.79
639.173	234.58
639.37	239.04
639.568	262.48
639.765	239.81
639.963	212.49
640.161	282.05
640.358	242.52
640.556	233.03
640.753	197.77
640.951	174.71
641.148	244.46
641.346	198.35
641.543	240.2
641.741	259.19
641.938	184.21
642.136	196.99
642.333	191.37
642.531	254.54
642.728	294.06
642.925	221.21
643.123	212.49
643.32	230.7
643.517	211.72
643.715	192.54
643.912	208.81
644.109	228.96
644.306	215.01
644.504	182.46
644.701	211.72
644.898	276.43
645.095	221.21
645.293	211.33
645.49	228.96
645.687	206.87
645.884	255.89
646.081	191.57
646.278	192.92
646.475	232.84
646.672	220.24
646.87	245.62
647.067	225.47
647.264	225.67
647.461	192.54
647.658	153.79
647.855	248.34
648.052	216.17
648.249	148.36
648.446	185.17
648.642	167.93
648.839	172.58
649.036	196.8
649.233	178.97
649.43	153.59
649.627	154.76
649.824	200.67
650.021	188.86
650.217	172.97
650.414	177.81
650.611	231.09
650.808	215.79
651.004	179.56
651.201	202.03
651.398	230.7
651.595	183.43
651.791	183.43
651.988	205.52
652.185	183.62
652.381	193.51
652.578	159.41
652.775	193.89
652.971	146.81
653.168	162.7
653.364	210.94
653.561	114.26
653.757	179.17
653.954	191.37
654.15	183.04
654.347	237.68
654.543	209
654.74	145.07
654.936	147.39
655.133	182.46
655.329	177.42
655.525	196.6
655.722	203.39
655.918	158.63
656.115	210.94
656.311	130.34
656.507	178.97
656.704	83.07
656.9	186.53
657.096	157.66
657.292	159.6
657.489	208.42
657.685	164.83
657.881	151.27
658.077	164.25
658.273	161.15
658.47	230.51
658.666	180.33
658.862	204.55
659.058	134.99
659.254	191.96
659.45	137.51
659.646	201.84
659.842	165.22
660.038	218.69
660.234	136.74
660.43	169.09
660.626	206.49
660.822	178.97
661.018	200.09
661.214	187.69
661.41	146.23
661.606	193.7
661.802	192.92
661.998	166.19
662.194	150.69
662.39	208.62
662.586	173.16
662.781	201.45
662.977	191.76
663.173	220.24
663.369	189.44
663.564	172.97
663.76	219.47
663.956	165.41
664.152	241.94
664.347	148.36
664.543	180.33
664.739	164.83
664.934	140.61
665.13	140.03
665.326	177.62
665.521	194.47
665.717	139.06
665.912	152.24
666.108	112.71
666.304	144.1
666.499	167.54
666.695	108.06
666.89	156.69
667.086	195.44
667.281	212.3
667.477	232.45
667.672	216.37
667.867	184.01
668.063	192.34
668.258	149.33
668.454	166.77
668.649	218.11
668.844	164.25
669.04	168.32
669.235	155.92
669.43	145.84
669.626	147.39
669.821	141.58
670.016	126.66
670.211	158.44
670.407	140.42
670.602	189.24
670.797	172.77
670.992	189.63
671.187	143.32
671.382	203.97
671.578	172.19
671.773	184.01
671.968	110.97
672.163	164.44
672.358	205.71
672.553	120.66
672.748	167.35
672.943	213.07
673.138	192.92
673.333	176.84
673.528	161.54
673.723	190.6
673.918	166.38
674.113	106.32
674.308	255.7
674.503	178.97
674.698	146.62
674.892	177.42
675.087	214.43
675.282	181.49
675.477	138.67
675.672	157.66
675.867	141.58
676.061	120.66
676.256	128.02
676.451	141.58
676.646	151.27
676.84	134.99
677.035	140.61
677.23	105.16
677.424	180.91
677.619	185.56
677.814	190.41
678.008	193.12
678.203	83.07
678.397	159.21
678.592	162.51
678.787	194.86
678.981	165.61
679.176	162.89
679.37	149.91
679.565	129.57
679.759	136.54
679.954	167.35
680.148	222.18
680.342	199.51
680.537	176.26
680.731	148.17
680.926	176.84
681.12	174.91
681.314	117.75
681.509	148.94
681.703	152.24
681.897	179.94
682.092	123.37
682.286	153.4
682.48	218.89
682.674	177.81
682.869	132.67
683.063	159.21
683.257	207.26
683.451	124.14
683.645	155.14
683.839	156.31
684.034	143.52
684.228	191.96
684.422	136.54
684.616	134.41
684.81	177.62
685.004	151.66
685.198	145.65
685.392	188.66
685.586	144.49
685.78	180.33
685.974	175.49
686.168	151.85
686.362	221.02
686.556	155.92
686.75	132.47
686.944	131.7
687.138	193.7
687.331	112.13
687.525	141.58
687.719	86.94
687.913	117.36
688.107	139.06
688.301	90.43
688.494	126.86
688.688	117.94
688.882	105.35
689.076	91.59
689.269	127.24
689.463	211.33
689.657	125.89
689.85	136.35
690.044	127.44
690.238	127.63
690.431	112.52
690.625	93.14
690.818	134.02
691.012	143.13
691.205	182.07
691.399	81.33
691.593	150.69
691.786	178.2
691.98	150.3
692.173	201.84
692.366	126.66
692.56	169.09
692.753	201.45
692.947	140.22
693.14	204.55
693.333	179.17
693.527	143.91
693.72	182.07
693.914	147.97
694.107	154.17
694.3	181.3
694.493	147.2
694.687	204.16
694.88	136.74
695.073	193.7
695.266	193.89
695.46	150.69
695.653	203.97
695.846	196.41
696.039	126.86
696.232	149.33
696.425	184.98
696.618	169.87
696.812	162.31
697.005	214.43
697.198	250.85
697.391	211.52
697.584	189.05
697.777	227.02
697.97	216.75
698.163	256.47
698.356	216.95
698.549	272.55
698.742	239.23
698.935	189.24
699.127	230.32
699.32	209
699.513	217.72
699.706	244.27
699.899	239.42
700.092	227.41
700.285	276.24
700.477	184.59
700.67	263.84
700.863	245.82
701.056	313.82
701.248	289.99
701.441	309.75
701.634	239.62
701.826	338.62
702.019	262.67
702.212	285.53
702.404	255.12
702.597	261.32
702.79	255.5
702.982	283.21
703.175	281.27
703.367	315.18
703.56	315.18
703.752	378.53
703.945	317.89
704.137	346.76
704.33	326.42
704.522	306.07
704.715	334.75
704.907	343.47
705.1	365.36
705.292	347.15
705.484	364.97
705.677	356.64
705.869	321.57
706.061	409.92
706.254	402.17
706.446	346.37
706.638	363.42
706.831	431.23
707.023	360.71
707.215	457.2
707.407	402.56
707.599	397.33
707.792	445.18
707.984	395
708.176	469.01
708.368	401.01
708.56	440.92
708.752	380.86
708.944	417.09
709.136	462.04
709.329	405.46
709.521	494.98
709.713	471.53
709.905	461.07
710.097	474.05
710.289	467.85
710.481	492.46
710.672	480.64
710.864	479.86
711.056	521.71
711.248	541.86
711.44	520.55
711.632	503.5
711.824	485.87
712.016	563.17
712.207	534.69
712.399	533.34
712.591	573.64
712.783	549.42
712.975	566.47
713.166	522.29
713.358	554.84
713.55	596.31
713.741	628.66
713.933	580.81
714.125	578.09
714.316	574.8
714.508	628.86
714.7	643
714.891	598.82
715.083	682.52
715.274	610.64
715.466	603.86
715.657	634.86
715.849	596.11
716.04	610.26
716.232	546.51
716.423	682.33
716.615	600.57
716.806	594.17
716.998	596.89
717.189	587.39
717.381	526.94
717.572	497.69
717.763	571.7
717.955	578.09
718.146	529.08
718.337	525.98
718.528	524.43
718.72	460.49
718.911	564.92
719.102	515.51
719.293	601.34
719.485	553.68
719.676	550
719.867	506.21
720.058	497.88
720.249	544.77
720.44	551.55
720.632	571.89
720.823	575.19
721.014	625.17
721.205	604.44
721.396	613.55
721.587	695.12
721.778	678.26
721.969	695.5
722.16	717.01
722.351	678.65
722.542	808.85
722.733	782.69
722.924	748.4
723.115	769.52
723.305	766.22
723.496	776.88
723.687	722.05
723.878	733.67
724.069	751.69
724.26	772.03
724.45	727.28
724.641	703.06
724.832	748.78
725.023	726.5
725.213	742.97
725.404	715.85
725.595	763.51
725.785	713.72
725.976	766.03
726.167	753.63
726.357	757.5
726.548	849.15
726.739	774.94
726.929	840.43
727.12	839.07
727.31	866.39
727.501	810.2
727.691	864.84
727.882	841.98
728.072	868.91
728.263	846.05
728.453	861.16
728.644	889.25
728.834	864.84
729.024	850.7
729.215	886.73
729.405	911.92
729.596	947.57
729.786	939.63
729.976	931.1
730.167	955.51
730.357	883.83
730.547	920.83
730.737	945.44
730.928	1002.59
731.118	1027.39
731.308	946.79
731.498	965.78
731.688	1060.72
731.879	1002.01
732.069	1072.34
732.259	1050.84
732.449	1050.84
732.639	1128.72
732.829	1113.22
733.019	1146.55
733.209	1195.57
733.399	1167.08
733.589	1208.93
733.779	1243.23
733.969	1184.52
734.159	1225.6
734.349	1239.55
734.539	1279.65
734.729	1258.15
734.919	1320.73
735.109	1311.23
735.299	1318.4
735.488	1342.23
735.678	1309.88
735.868	1324.99
736.058	1350.37
736.248	1293.21
736.437	1281.01
736.627	1285.46
736.817	1356.18
737.007	1331.58
737.196	1374.98
737.386	1355.79
737.576	1333.9
737.765	1357.93
737.955	1363.35
738.144	1421.09
738.334	1408.69
738.524	1377.49
738.713	1414.31
738.903	1423.41
739.092	1460.03
739.282	1439.88
739.471	1452.28
739.661	1433.68
739.85	1444.14
740.04	1499.36
740.229	1488.9
740.419	1519.9
740.608	1519.7
740.797	1493.74
740.987	1582.48
741.176	1534.43
741.365	1497.81
741.555	1462.94
741.744	1544.31
741.933	1528.42
742.123	1574.34
742.312	1554.39
742.501	1584.61
742.69	1604.95
742.88	1557.68
743.069	1616.77
743.258	1557.49
743.447	1644.67
743.636	1643.32
743.825	1585.77
744.014	1614.45
744.204	1641.77
744.393	1600.3
744.582	1656.1
744.771	1676.64
744.96	1602.24
745.149	1671.99
745.338	1599.33
745.527	1664.24
745.716	1607.28
745.905	1602.24
746.094	1666.76
746.283	1647.97
746.471	1676.45
746.66	1705.9
746.849	1705.9
747.038	1733.99
747.227	1625.3
747.416	1690.98
747.604	1672.38
747.793	1651.45
747.982	1682.26
748.171	1681.48
748.359	1709.77
748.548	1669.67
748.737	1707.25
748.926	1726.82
749.114	1640.8
749.303	1689.62
749.491	1715.78
749.68	1622.97
749.869	1697.76
750.057	1668.12
750.246	1678.58
750.434	1649.71
750.623	1681.29
750.811	1672.96
751	1682.84
751.188	1675.48
751.377	1685.36
751.565	1650.29
751.754	1642.73
751.942	1674.32
752.131	1703.38
752.319	1690.98
752.507	1613.48
752.696	1682.45
752.884	1703.76
753.072	1638.08
753.261	1691.36
753.449	1653.78
753.637	1643.7
753.825	1761.31
754.014	1668.31
754.202	1695.05
754.39	1756.08
754.578	1705.51
754.766	1664.82
754.955	1656.88
755.143	1715.78
755.331	1646.61
755.519	1631.11
755.707	1665.6
755.895	1645.25
756.083	1689.04
756.271	1664.82
756.459	1642.54
756.647	1677.61
756.835	1672.96
757.023	1607.86
757.211	1640.22
757.399	1621.42
757.587	1640.8
757.775	1601.08
757.963	1625.1
758.151	1621.62
758.339	1598.75
758.526	1617.74
758.714	1640.8
758.902	1571.82
759.09	1516.41
759.278	1443.37
759.465	1319.56
759.653	1102.37
759.841	1048.12
760.028	865.23
760.216	755.95
760.404	780.17
760.591	568.21
760.779	513.38
760.967	446.93
761.154	325.83
761.342	382.02
761.529	376.01
761.717	408.18
761.905	380.28
762.092	413.41
762.28	378.53
762.467	369.43
762.655	317.5
762.842	365.36
763.029	387.83
763.217	356.06
763.404	371.56
763.592	413.99
763.779	356.45
763.966	387.25
764.154	414.96
764.341	449.25
764.528	427.36
764.716	447.51
764.903	538.38
765.09	548.84
765.277	529.66
765.465	679.04
765.652	648.81
765.839	705.19
766.026	753.24
766.213	790.05
766.4	825.31
766.588	968.88
766.775	916.76
766.962	1019.64
767.149	1010.15
767.336	1135.7
767.523	1063.82
767.71	1176.38
767.897	1224.63
768.084	1232.96
768.271	1276.75
768.458	1258.92
768.645	1346.88
768.832	1295.54
769.019	1325.38
769.206	1322.08
769.392	1383.89
769.579	1455.57
769.766	1419.54
769.953	1371.88
770.14	1435.62
770.327	1455.77
770.513	1468.75
770.7	1504.21
770.887	1423.02
771.073	1515.05
771.26	1443.76
771.447	1447.05
771.634	1445.5
771.82	1510.6
772.007	1428.26
772.193	1476.31
772.38	1519.51
772.567	1472.04
772.753	1485.41
772.94	1516.22
773.126	1517.77
773.313	1491.61
773.499	1507.5
773.686	1530.36
773.872	1458.09
774.059	1490.45
774.245	1427.87
774.432	1425.54
774.618	1419.15
774.804	1481.92
774.991	1468.17
775.177	1497.62
775.363	1448.99
775.55	1486.96
775.736	1424.77
775.922	1467.01
776.109	1453.44
776.295	1461.97
776.481	1455.19
776.667	1478.44
776.853	1447.24
777.04	1425.54
777.226	1404.04
777.412	1504.4
777.598	1428.26
777.784	1410.04
777.97	1437.94
778.156	1433.1
778.342	1470.11
778.528	1439.69
778.715	1345.14
778.901	1413.92
779.087	1421.09
779.272	1367.81
779.458	1342.81
779.644	1413.92
779.83	1374.59
780.016	1437.56
780.202	1420.89
780.388	1385.05
780.574	1333.71
780.76	1326.73
780.946	1405.59
781.131	1389.12
781.317	1381.95
781.503	1340.68
781.689	1383.89
781.874	1461.97
782.06	1388.34
782.246	1382.14
782.432	1364.13
782.617	1337.19
782.803	1450.15
782.989	1293.21
783.174	1336.23
783.36	1289.53
783.545	1295.35
783.731	1367.81
783.916	1271.71
784.102	1348.43
784.288	1298.64
784.473	1366.84
784.659	1275
784.844	1368.78
785.029	1286.63
785.215	1318.01
785.4	1267.83
785.586	1327.51
785.771	1279.07
785.956	1296.9
786.142	1304.84
786.327	1291.08
786.512	1305.81
786.698	1279.65
786.883	1213.58
787.068	1290.89
787.254	1291.08
787.439	1263.96
787.624	1254.27
787.809	1234.9
787.994	1230.44
788.18	1303.29
788.365	1189.17
788.55	1211.26
788.735	1231.8
788.92	1218.04
789.105	1233.93
789.29	1256.79
789.475	1217.46
789.66	1221.33
789.845	1215.13
790.03	1154.1
790.215	1246.13
790.4	1231.22
790.585	1232.38
790.77	1223.47
790.955	1142.09
791.14	1185.68
791.325	1244.97
791.51	1122.72
791.695	1146.16
791.879	1147.52
792.064	1108.19
792.249	1227.92
792.434	1156.43
792.618	1160.11
792.803	1213.97
792.988	1189.17
793.173	1213.97
793.357	1203.9
793.542	1143.84
793.727	1163.6
793.911	1208.93
794.096	1175.22
794.281	1175.03
794.465	1235.28
794.65	1190.14
794.834	1182.2
795.019	1216.49
795.203	1171.73
795.388	1243.81
795.572	1257.56
795.757	1219.98
795.941	1182.58
796.126	1240.32
796.31	1186.27
796.494	1192.47
796.679	1177.74
796.863	1170.38
797.048	1256.21
797.232	1224.63
797.416	1180.84
797.601	1167.67
797.785	1243.62
797.969	1219.59
798.153	1160.69
798.338	1217.07
798.522	1205.64
798.706	1182.97
798.89	1205.45
799.074	1293.02
799.258	1227.53
799.443	1203.7
799.627	1205.25
799.811	1232.57
799.995	1224.63
800.179	1205.06
800.363	1198.28
800.547	1205.45
800.731	1224.05
800.915	1152.94
801.099	1207.77
801.283	1197.12
801.467	1193.24
801.651	1179.87
801.835	1245.55
802.019	1212.23
802.202	1233.93
802.386	1178.32
802.57	1184.33
802.754	1171.35
802.938	1195.95
803.121	1161.27
803.305	1203.32
803.489	1196.15
803.673	1189.95
803.856	1204.09
804.04	1204.48
804.224	1189.95
804.407	1168.63
804.591	1168.63
804.775	1180.45
804.958	1194.4
805.142	1313.36
805.326	1202.73
805.509	1219.2
805.693	1216.88
805.876	1255.63
806.06	1211.84
806.243	1229.08
806.427	1253.5
806.61	1259.89
806.794	1175.61
806.977	1226.76
807.16	1205.45
807.344	1213.2
807.527	1225.21
807.71	1181.62
807.894	1200.99
808.077	1258.92
808.26	1157.59
808.444	1195.76
808.627	1200.02
808.81	1191.5
808.993	1166.7
809.177	1131.05
809.36	1177.16
809.543	1204.87
809.726	1098.3
809.909	1119.81
810.092	1115.74
810.276	1110.9
810.459	1143.45
810.642	1125.82
810.825	1102.57
811.008	1099.08
811.191	1035.72
811.374	1054.91
811.557	1099.85
811.74	1141.12
811.923	1013.64
812.106	1055.29
812.289	994.07
812.472	1039.99
812.654	1079.32
812.837	1014.8
813.02	998.72
813.203	983.22
813.386	946.41
813.569	914.44
813.751	874.91
813.934	946.02
814.117	903.78
814.3	866
814.482	871.62
814.665	871.62
814.848	838.1
815.03	812.14
815.213	808.26
815.396	825.12
815.578	788.31
815.761	785.98
815.943	814.46
816.126	757.31
816.309	728.44
816.491	721.66
816.674	676.32
816.856	734.64
817.039	667.99
817.221	796.83
817.403	722.63
817.586	759.44
817.768	736.97
817.951	681.75
818.133	671.48
818.315	684.07
818.498	761.18
818.68	781.33
818.862	784.05
819.045	783.85
819.227	756.73
819.409	734.25
819.591	760.6
819.774	749.37
819.956	733.48
820.138	785.98
820.32	795.87
820.502	779.2
820.684	816.21
820.866	822.02
821.048	843.53
821.231	841.78
821.413	844.88
821.595	873.95
821.777	843.53
821.959	838.88
822.141	894.1
822.323	784.24
822.505	736.77
822.686	754.02
822.868	722.43
823.05	668.38
823.232	669.93
823.414	607.54
823.596	677.1
823.778	623.62
823.96	687.56
824.141	673.8
824.323	657.34
824.505	706.94
824.687	749.17
824.868	748.59
825.05	818.15
825.232	800.32
825.413	883.63
825.595	857.09
825.777	755.57
825.958	782.69
826.14	793.73
826.321	812.33
826.503	783.08
826.685	822.99
826.866	833.45
827.048	833.84
827.229	779.4
827.411	776.88
827.592	751.3
827.773	762.54
827.955	729.22
828.136	722.63
828.318	722.43
828.499	775.91
828.68	713.33
828.862	747.04
829.043	755.76
829.224	733.28
829.406	714.1
829.587	738.52
829.768	698.22
829.949	736.19
830.131	728.83
830.312	787.73
830.493	705.39
830.674	748.2
830.855	701.7
831.036	723.98
831.218	788.12
831.399	780.95
831.58	719.34
831.761	746.65
831.942	773.97
832.123	713.14
832.304	725.73
832.485	723.79
832.666	715.85
832.847	737.35
833.028	727.47
833.209	738.9
833.389	719.72
833.57	681.94
833.751	731.15
833.932	782.5
834.113	744.52
834.294	694.54
834.475	768.74
834.655	767
834.836	783.27
835.017	751.11
835.198	704.61
835.378	723.4
835.559	797.22
835.74	733.28
835.92	722.43
836.101	709.65
836.281	763.12
836.462	740.07
836.643	782.88
836.823	749.95
837.004	764.09
837.184	807.49
837.365	792.38
837.545	763.32
837.726	764.67
837.906	806.52
838.087	793.54
838.267	751.3
838.448	723.79
838.628	761.96
838.808	741.03
838.989	798.58
839.169	742.97
839.349	801.68
839.53	795.67
839.71	787.92
839.89	743.94
840.07	788.31
840.251	762.35
840.431	794.32
840.611	771.26
840.791	731.35
840.971	762.35
841.151	774.94
841.332	757.89
841.512	804.58
841.692	720.69
841.872	768.74
842.052	775.52
842.232	803.62
842.412	703.25
842.592	747.04
842.772	753.63
842.952	772.42
843.132	779.4
843.312	723.4
843.492	700.15
843.672	770.87
843.851	697.25
844.031	723.6
844.211	748.78
844.391	742.2
844.571	752.27
844.751	758.08
844.93	783.85
845.11	705.97
845.29	745.49
845.47	755.76
845.649	736.77
845.829	771.26
846.009	739.48
846.188	743.36
846.368	712.36
846.547	753.63
846.727	770.48
846.907	710.23
847.086	774.55
847.266	753.05
847.445	732.32
847.625	720.88
847.804	745.49
847.984	711.39
848.163	698.8
848.343	730.96
848.522	710.04
848.701	760.02
848.881	703.64
849.06	726.5
849.239	736.97
849.419	735.03
849.598	668.77
849.777	697.83
849.957	713.14
850.136	648.81
850.315	640.29
850.494	672.25
850.674	660.44
850.853	693.95
851.032	668.57
851.211	742.97
851.39	689.5
851.569	651.33
851.748	653.65
851.927	715.46
852.107	690.27
852.286	633.12
852.465	621.49
852.644	677.1
852.823	663.73
853.002	660.24
853.181	666.44
853.359	672.06
853.538	608.12
853.717	718.17
853.896	643.97
854.075	594.76
854.254	606.38
854.433	588.94
854.611	606.19
854.79	540.89
854.969	589.72
855.148	606.96
855.327	582.36
855.505	620.33
855.684	573.83
855.863	606.57
856.041	553.29
856.22	597.27
856.399	579.64
856.577	655.79
856.756	627.11
856.934	741.42
857.113	724.57
857.291	647.45
857.47	593.21
857.648	632.73
857.827	638.93
858.005	694.34
858.184	661.02
858.362	723.6
858.541	619.56
858.719	649.97
858.898	634.47
859.076	643.77
859.254	698.8
859.433	619.36
859.611	644.74
859.789	583.91
859.967	668.96
860.146	712.94
860.324	590.11
860.502	615.29
860.68	564.34
860.859	610.26
861.037	628.08
861.215	645.52
861.393	597.47
861.571	624.79
861.749	596.5
861.927	651.52
862.105	629.05
862.283	630.41
862.461	577.9
862.639	545.93
862.817	608.12
862.995	599.02
863.173	583.32
863.351	593.79
863.529	626.92
863.707	623.04
863.885	598.05
864.063	565.11
864.241	551.94
864.418	638.54
864.596	550.58
864.774	556.97
864.952	616.65
865.129	621.11
865.307	564.34
865.485	565.31
865.663	614.52
865.84	538.57
866.018	573.64
866.196	489.36
866.373	550.39
866.551	490.13
866.728	448.67
866.906	471.14
867.084	499.04
867.261	537.6
867.439	543.8
867.616	558.72
867.794	546.9
867.971	544.38
868.149	524.62
868.326	594.76
868.503	578.48
868.681	551.55
868.858	545.54
869.035	528.69
869.213	575.57
869.39	520.36
869.567	611.22
869.745	533.53
869.922	538.96
870.099	553.49
870.276	564.14
870.454	586.62
870.631	558.52
870.808	537.41
870.985	561.62
871.162	609.87
871.339	560.27
871.517	532.95
871.694	508.93
871.871	517.26
872.048	540.7
872.225	504.86
872.402	565.89
872.579	505.24
872.756	520.16
872.933	493.62
873.11	516.68
873.287	536.83
873.463	498.85
873.64	530.04
873.817	553.49
873.994	529.08
874.171	513.96
874.348	509.31
874.524	467.08
874.701	506.21
874.878	460.29
875.055	525.39
875.231	504.66
875.408	551.16
875.585	480.44
875.762	513.58
875.938	512.41
876.115	523.84
876.291	466.88
876.468	529.27
876.645	461.84
876.821	482.77
876.998	478.89
877.174	523.26
877.351	469.59
877.527	487.42
877.704	520.55
877.88	509.31
878.057	473.86
878.233	514.35
878.409	469.4
878.586	524.81
878.762	495.56
878.938	454.48
879.115	423.29
879.291	482.77
879.467	426.78
879.644	459.71
879.82	491.1
879.996	451.58
880.172	378.15
880.349	465.72
880.525	491.88
880.701	450.8
880.877	436.46
881.053	468.82
881.229	469.01
881.405	509.31
881.581	442.66
881.757	449.45
881.933	476.38
882.109	481.03
882.285	455.84
882.461	409.15
882.637	465.72
882.813	427.75
882.989	446.93
883.165	474.05
883.341	425.42
883.517	472.11
883.693	451.38
883.869	475.99
884.044	455.65
884.22	468.82
884.396	522.49
884.572	463.01
884.747	497.11
884.923	464.94
885.099	486.45
885.275	492.26
885.45	458.74
885.626	426.58
885.801	403.91
885.977	425.23
886.153	401.78
886.328	468.82
886.504	439.76
886.679	476.57
886.855	417.28
887.03	485.48
887.206	496.53
887.381	467.85
887.557	469.21
887.732	456.42
887.908	475.02
888.083	483.74
888.258	449.25
888.434	452.74
888.609	434.14
888.784	487.81
888.96	442.47
889.135	418.45
889.31	410.11
889.485	452.93
889.661	415.93
889.836	458.36
890.011	445.76
890.186	413.8
890.361	434.72
890.537	438.4
890.712	417.86
890.887	465.91
891.062	467.66
891.237	498.27
891.412	425.61
891.587	425.81
891.762	495.17
891.937	490.13
892.112	446.73
892.287	450.22
892.462	408.95
892.637	391.32
892.812	371.56
892.987	432.4
893.161	387.06
893.336	419.03
893.511	402.95
893.686	408.37
893.861	397.91
894.035	416.9
894.21	401.98
894.385	364
894.56	371.56
894.734	361.48
894.909	380.47
895.084	382.41
895.258	335.72
895.433	401.98
895.608	369.04
895.782	330.48
895.957	325.25
896.131	332.62
896.306	289.8
896.48	331.45
896.655	329.13
896.829	270.42
897.004	287.28
897.178	276.24
897.353	268.68
897.527	326.03
897.701	303.36
897.876	217.92
898.05	327
898.224	328.93
898.399	319.05
898.573	313.43
898.747	251.82
898.921	291.93
899.096	245.62
899.27	260.35
899.444	243.69
899.618	256.47
899.792	272.17
899.967	240
900.141	284.18
900.315	226.05
900.489	248.14
900.663	272.55
900.837	268.68
901.011	236.71
901.185	342.5
901.359	279.53
901.533	273.72
901.707	265.19
901.881	233.61
902.055	202.03
902.229	259.77
902.403	330.29
902.576	267.13
902.75	271.78
902.924	354.32
903.098	276.82
903.272	299.87
903.446	335.33
903.619	313.82
903.793	338.62
903.967	310.33
904.14	337.65
904.314	332.23
904.488	329.13
904.661	362.07
904.835	330.1
905.009	350.25
905.182	395.78
905.356	351.02
905.529	342.5
905.703	292.12
905.876	321.38
906.05	273.33
906.223	280.5
906.397	255.5
906.57	252.02
906.744	251.63
906.917	258.6
907.09	277.01
907.264	246.98
907.437	272.36
907.61	238.84
907.784	263.06
907.957	260.74
908.13	213.46
908.304	298.71
908.477	235.35
908.65	241.36
908.823	204.94
908.996	289.99
909.17	221.4
909.343	218.3
909.516	229.35
909.689	273.91
909.862	208.42
910.035	264.42
910.208	221.79
910.381	198.93
910.554	319.63
910.727	229.54
910.9	191.37
911.073	227.6
911.246	261.9
911.419	269.65
911.592	244.46
911.765	204.74
911.938	220.05
912.11	241.94
912.283	232.06
912.456	277.98
912.629	221.79
912.802	203.58
912.974	199.51
913.147	161.54
913.32	170.06
913.493	180.14
913.665	178.59
913.838	200.67
914.01	175.87
914.183	200.67
914.356	159.99
914.528	205.13
914.701	254.92
914.873	248.72
915.046	184.01
915.218	169.09
915.391	151.07
915.563	147.2
915.736	203.58
915.908	199.51
916.081	169.29
916.253	166.19
916.425	183.04
916.598	201.45
916.77	205.71
916.942	185.17
917.115	110.39
917.287	184.98
917.459	183.43
917.632	139.64
917.804	109.81
917.976	214.43
918.148	161.34
918.32	180.91
918.493	194.67
918.665	217.53
918.837	222.76
919.009	233.61
919.181	230.32
919.353	199.7
919.525	176.46
919.697	201.25
919.869	179.56
920.041	220.05
920.213	270.04
920.385	208.23
920.557	203.19
920.729	222.76
920.901	188.08
921.073	208.81
921.244	186.72
921.416	234.39
921.588	191.96
921.76	210.55
921.932	283.02
922.103	210.75
922.275	213.65
922.447	218.3
922.619	146.62
922.79	204.94
922.962	208.62
923.134	215.01
923.305	165.8
923.477	156.69
923.648	146.62
923.82	212.3
923.991	166.19
924.163	127.63
924.335	144.49
924.506	183.43
924.677	235.74
924.849	146.81
925.02	184.21
925.192	190.99
925.363	192.15
925.535	195.64
925.706	139.45
925.877	201.06
926.049	149.33
926.22	193.51
926.391	162.7
926.562	206.87
926.734	125.31
926.905	182.85
927.076	132.28
927.247	153.98
927.419	108.45
927.59	144.68
927.761	137.51
927.932	152.04
928.103	175.68
928.274	91.79
928.445	112.91
928.616	150.11
928.787	127.63
928.958	158.44
929.129	145.07
929.3	135.19
929.471	112.52
929.642	57.88
929.813	55.36
929.984	132.09
930.155	38.12
930.326	110.39
930.496	83.07
930.667	14.1
930.838	78.23
931.009	66.41
931.18	82.29
931.35	50.13
931.521	68.54
931.692	39.86
931.863	14.1
932.033	30.76
932.204	61.37
932.374	78.42
932.545	18.16
932.716	79
932.886	69.51
933.057	-20.59
933.227	42.96
933.398	102.83
933.568	32.31
933.739	10.8
933.909	13.71
934.08	60.21
934.25	-26.4
934.421	-35.89
934.591	47.81
934.761	5.57
934.932	-5.67
935.102	25.53
935.272	8.09
935.443	4.21
935.613	19.13
935.783	38.7
935.953	-29.5
936.123	131.51
936.294	-20.2
936.464	10.8
936.634	21.07
936.804	-10.7
936.974	-35.12
937.144	11
937.314	29.01
937.484	-1.79
937.655	-32.79
937.825	47.03
937.995	-26.98
938.165	47.42
938.334	-6.83
938.504	26.69
938.674	-19.62
938.844	8.48
939.014	34.44
939.184	12.35
939.354	71.64
939.524	52.46
939.694	18.36
939.863	29.59
940.033	87.33
940.203	75.32
940.373	74.16
940.542	63.89
940.712	2.66
940.882	70.28
941.051	53.81
941.221	74.54
941.391	79.58
941.56	25.53
941.73	14.87
941.899	138.87
942.069	58.66
942.238	43.35
942.408	31.14
942.577	70.09
942.747	35.02
942.916	-9.74
943.086	22.62
943.255	67.76
943.425	20.88
943.594	4.99
943.763	-32.4
943.933	10.61
944.102	-25.04
944.271	27.46
944.441	44.51
944.61	7.51
944.779	38.12
944.948	97.99
945.117	-0.63
945.287	22.23
945.456	-10.7
945.625	12.16
945.794	39.48
945.963	5.38
946.132	52.46
946.301	-14
946.47	49.55
946.639	-11.67
946.808	9.25
946.977	53.43
947.146	57.49
947.315	25.91
947.484	35.6
947.653	23.2
947.822	7.31
947.991	2.28
948.16	87.14
948.329	40.06
948.498	26.3
948.666	14.1
948.835	52.46
949.004	-20.78
949.173	-3.54
949.341	26.11
949.51	61.56
949.679	68.54
949.847	46.64
950.016	85.01
950.185	84.23
950.353	-23.3
950.522	-1.02
950.69	69.89
950.859	8.09
951.028	53.62
951.196	36.57
951.365	6.54
951.533	26.88
951.701	42.77
951.87	39.28
952.038	10.8
952.207	19.91
952.375	94.89
952.543	9.06
952.712	-12.45
952.88	-17.1
953.048	61.76
953.217	23.98
953.385	13.32
953.553	71.44
953.721	-10.9
953.89	16.61
954.058	-6.25
954.226	-8.38
954.394	22.62
954.562	-16.13
954.73	38.51
954.898	27.66
955.067	61.37
955.235	9.83
955.403	62.14
955.571	94.5
955.739	29.79
955.907	11
956.075	14.29
956.243	3.05
956.41	35.21
956.578	-11.87
956.746	-12.25
956.914	11.38
957.082	51.1
957.25	30.37
957.418	-6.44
957.585	20.49
957.753	60.79
957.921	-14.39
958.089	29.4
958.256	29.79
958.424	43.16
958.592	28.43
958.759	-9.15
958.927	43.16
959.095	-16.13
959.262	37.93
959.43	35.99
959.597	-10.32
959.765	17.97
959.932	16.42
960.1	43.74
960.267	9.64
960.435	45.29
960.602	46.84
960.77	-0.44
960.937	-46.35
961.104	14.1
961.272	-16.52
961.439	-0.82
961.606	21.65
961.774	60.59
961.941	27.27
962.108	34.05
962.275	30.56
962.443	75.13
962.61	41.99
962.777	93.53
962.944	65.05
963.111	41.41
963.278	66.79
963.446	28.63
963.613	34.83
963.78	56.91
963.947	55.36
964.114	61.95
964.281	116.39
964.448	46.26
964.615	18.55
964.782	26.3
964.949	60.01
965.116	33.66
965.282	65.44
965.449	33.47
965.616	15.45
965.783	34.24
965.95	39.09
966.117	14.68
966.283	52.26
966.45	51.88
966.617	41.99
966.784	60.4
966.95	58.27
967.117	71.83
967.284	23.01
967.45	5.76
967.617	91.21
967.784	61.37
967.95	90.63
968.117	18.55
968.283	81.13
968.45	118.52
968.616	47.23
968.783	85.78
968.949	35.02
969.116	45.29
969.282	51.68
969.449	69.7
969.615	30.95
969.781	-7.6
969.948	13.51
970.114	-14.58
970.28	102.25
970.447	69.12
970.613	101.09
970.779	48.58
970.945	35.21
971.112	34.44
971.278	36.18
971.444	34.24
971.61	93.53
971.776	8.86
971.942	50.91
972.108	76.48
972.275	40.83
972.441	59.43
972.607	103.8
972.773	25.33
972.939	51.68
973.105	48.39
973.271	24.94
973.437	28.43
973.602	0.92
973.768	42.58
973.934	24.36
974.1	29.79
974.266	-18.26
974.432	46.84
974.598	18.55
974.763	83.07
974.929	19.52
975.095	109.61
975.261	25.53
975.426	23.2
975.592	44.71
975.758	77.64
975.923	-14
976.089	17.58
976.255	67.38
976.42	52.84
976.586	72.22
976.751	50.52
976.917	116.78
977.082	66.02
977.248	-5.47
977.413	-10.9
977.579	28.63
977.744	25.91
977.91	-3.34
978.075	10.22
978.24	63.31
978.406	53.04
978.571	25.91
978.736	18.75
978.902	59.63
979.067	6.15
979.232	-0.82
979.397	5.76
979.563	71.83
979.728	-1.79
979.893	26.69
980.058	15.06
980.223	73.77
980.388	67.38
980.554	40.06
980.719	23.39
980.884	55.36
981.049	57.3
981.214	10.41
981.379	31.92
981.544	-17.49
981.709	48
981.874	52.65
982.039	39.86
982.204	59.24
982.368	46.26
982.533	31.92
982.698	58.66
982.863	56.91
983.028	28.43
983.193	48
983.357	66.21
983.522	71.06
983.687	23.59
983.852	23.78
984.016	14.87
984.181	23.98
984.346	50.91
984.51	31.53
984.675	37.54
984.839	61.56
985.004	60.79
985.168	81.52
985.333	35.41
985.498	28.63
985.662	51.29
985.827	55.17
985.991	32.11
986.155	20.88
986.32	80.16
986.484	69.31
986.649	60.59
986.813	-0.44
986.977	42.77
987.142	48.19
987.306	-18.84
987.47	11.19
987.634	24.94
987.799	50.91
987.963	28.04
988.127	62.92
988.291	97.79
988.455	18.94
988.62	30.18
988.784	50.33
988.948	65.05
989.112	6.35
989.276	28.43
989.44	42.77
989.604	-0.24
989.768	19.33
989.932	109.22
990.096	29.21
990.26	42.58
990.424	10.22
990.588	47.61
990.752	106.71
990.915	82.88
991.079	17
991.243	1.7
991.407	74.93
991.571	41.8
991.734	39.67
991.898	59.43
992.062	118.14
992.226	46.45
992.389	4.99
992.553	-12.64
992.717	4.6
992.88	22.81
993.044	33.28
993.207	30.76
993.371	35.21
993.535	60.79
993.698	-1.79
993.862	60.98
994.025	56.91
994.189	48.39
994.352	46.06
994.515	52.26
994.679	72.99
994.842	46.64
995.006	58.08
995.169	13.32
995.332	19.13
995.496	50.52
995.659	-4.89
995.822	53.43
995.985	37.54
996.149	45.29
996.312	31.92
996.475	93.53
996.638	35.6
996.801	82.88
996.964	84.62
997.128	21.46
997.291	28.43
997.454	41.8
997.617	-29.3
997.78	38.31
997.943	20.1
998.106	88.88
998.269	7.7
998.432	44.9
998.595	18.75
998.758	-20.39
998.92	17.2
999.083	-3.92
999.246	61.76
999.409	-1.6
999.572	-24.46
999.735	21.26
999.897	17
1000.06	-2.76
1000.223	2.47
1000.386	40.64
1000.548	41.22
1000.711	49.55
1000.874	18.94
1001.036	-17.1
1001.199	61.76
1001.361	22.04
1001.524	23.39
1001.687	37.34
1001.849	17.58
1002.012	63.31
1002.174	22.62
1002.337	46.45
1002.499	39.09
1002.661	49.55
1002.824	-0.63
1002.986	4.6
1003.149	33.86
1003.311	0.73
1003.473	67.57
1003.636	15.65
1003.798	28.24
1003.96	50.91
1004.123	39.09
1004.285	1.89
1004.447	16.42
1004.609	43.35
1004.771	89.85
1004.933	-26.59
1005.096	4.99
1005.258	-36.67
1005.42	7.31
1005.582	54.39
1005.744	69.12
1005.906	-16.32
1006.068	36.38
1006.23	-1.6
1006.392	-20.59
1006.554	-4.12
1006.716	61.56
1006.878	61.95
1007.04	-25.62
1007.202	16.03
1007.363	29.59
1007.525	16.81
1007.687	3.83
1007.849	52.46
1008.011	-22.33
1008.172	-12.64
1008.334	-1.79
1008.496	21.84
1008.658	-33.57
1008.819	4.6
1008.981	-11.29
1009.143	-1.99
1009.304	7.12
1009.466	25.72
1009.627	58.08
1009.789	87.53
1009.95	38.12
1010.112	17.39
1010.273	13.71
1010.435	-4.5
1010.596	13.51
1010.758	9.64
1010.919	-18.26
1011.081	-8.96
1011.242	-17.49
1011.403	25.33
1011.565	20.3
1011.726	6.15
1011.887	-11.48
1012.049	-1.02
1012.21	27.27
1012.371	75.9
1012.532	-34.15
1012.693	39.09
1012.855	-12.45
1013.016	19.71
1013.177	57.88
1013.338	0.73
1013.499	55.56
1013.66	28.04
1013.821	61.56
1013.982	43.16
1014.143	16.81
1014.304	12.74
1014.465	29.79
1014.626	50.13
1014.787	21.46
1014.948	63.5
1015.109	-32.99
1015.27	56.33
1015.431	-22.72
1015.592	-4.89
1015.752	48.78
1015.913	36.38
1016.074	-0.44
1016.235	5.38
1016.395	2.08
1016.556	38.12
1016.717	10.03
1016.877	63.31
1017.038	-2.37
1017.199	52.46
1017.359	22.62
1017.52	17.2
1017.681	9.45
1017.841	17.2
1018.002	-4.7
1018.162	3.25
1018.323	66.6
1018.483	21.46
1018.644	1.11
1018.804	-4.89
1018.964	13.13
1019.125	6.93
1019.285	26.3
1019.446	-12.84
1019.606	-14
1019.766	-22.33
1019.926	55.36
1020.087	29.79
1020.247	-20.78
1020.407	33.47
1020.567	41.8
1020.728	8.48
1020.888	-22.72
1021.048	1.11
1021.208	10.61
1021.368	-9.93
1021.528	36.76
1021.688	36.96
1021.848	42.96
1022.008	15.06
1022.168	-0.05
1022.328	4.6
1022.488	32.11
1022.648	-0.63
1022.808	28.24
1022.968	26.11
1023.128	3.63
1023.288	-14.39
1023.448	11
1023.608	22.23
1023.767	54.39
1023.927	-4.7
1024.087	-2.57
1024.247	-21.36
1024.406	-12.64
1024.566	-42.09
1024.726	-10.12
1024.885	10.61
1025.045	27.66
1025.205	4.41
1025.364	23.59
1025.524	15.65
1025.683	-12.45
1025.843	1.7
1026.003	22.23
1026.162	52.65
1026.321	38.89
1026.481	29.01
1026.64	0.92
1026.8	17.58
1026.959	0.53
1027.119	13.71
1027.278	3.05
1027.437	-8.19
1027.597	-3.73
1027.756	-7.41
1027.915	34.44
1028.074	45.09
1028.234	-21.17
1028.393	-24.65
1028.552	-22.33
1028.711	-51.97
1028.87	39.48
1029.03	-25.82
1029.189	16.23
1029.348	-41.12
1029.507	-1.02
1029.666	47.42
1029.825	-17.29
1029.984	1.11
1030.143	32.5
1030.302	8.67
1030.461	-61.27
1030.62	-1.4
1030.779	32.5
1030.938	-34.54
1031.097	-20
1031.255	25.33
1031.414	47.03
1031.573	34.63
1031.732	-25.62
1031.891	-1.6
1032.049	34.63
1032.208	16.61
1032.367	-5.47
1032.525	-10.7
1032.684	-11.87
1032.843	24.94
1033.001	-34.34
1033.16	139.06
1033.319	35.99
1033.477	39.48
1033.636	-1.21
1033.794	-34.34
1033.953	43.54
1034.111	15.06
1034.27	1.5
1034.428	28.04
1034.587	-2.95
1034.745	9.64
1034.903	-10.9
1035.062	21.84
1035.22	-34.54
1035.378	15.84
1035.537	-0.63
1035.695	7.9
1035.853	-14.58
1036.011	34.24
1036.17	4.6
1036.328	-24.46
1036.486	-4.89
1036.644	6.54
1036.802	-74.83
1036.96	-22.14
1037.119	10.61
1037.277	-16.71
1037.435	-29.11
1037.593	-33.18
1037.751	7.7
1037.909	1.7
1038.067	1.7
