Data from oakcork_FLMT105791__287__17-34-33-052.txt Node

Date: Mon Mar 20 17:34:33 GMT 2023
User: antho
Spectrometer: FLMT10579
Trigger mode: 0
Integration Time (sec): 1.000000E-1
Scans to average: 10
Electric dark correction enabled: true
Nonlinearity correction enabled: false
Boxcar width: 0
XAxis mode: Wavelengths
Number of Pixels in Spectrum: 3648
>>>>>Begin Spectral Data<<<<<
345.248	-145.26
345.464	-145.26
345.681	-145.26
345.898	-169.67
346.114	-161.15
346.331	-10.22
346.548	23.1
346.764	-5.38
346.981	0.05
347.197	-20.1
347.414	-5.18
347.631	-18.36
347.847	54.3
348.064	-13.13
348.28	32.99
348.497	-33.28
348.713	-4.8
348.93	21.36
349.146	32.4
349.363	-18.36
349.579	28.92
349.796	8.96
350.012	-27.08
350.229	14
350.445	-6.54
350.661	-9.06
350.878	9.15
351.094	46.35
351.311	25.04
351.527	7.02
351.743	-13.71
351.96	7.22
352.176	42.48
352.392	24.27
352.609	36.47
352.825	3.73
353.041	11.87
353.257	-27.85
353.474	-0.53
353.69	19.04
353.906	-10.61
354.122	-6.15
354.339	57.2
354.555	1.4
354.771	1.02
354.987	33.95
355.203	46.16
355.42	3.73
355.636	-7.51
355.852	14.19
356.068	-9.25
356.284	-24.17
356.5	58.95
356.716	19.04
356.932	9.54
357.148	32.21
357.364	2.57
357.58	36.47
357.796	45.77
358.012	58.56
358.228	20.97
358.444	-60.98
358.66	27.37
358.876	9.93
359.092	-16.42
359.308	1.21
359.524	15.35
359.74	22.91
359.956	-30.76
360.172	13.22
360.388	57.79
360.604	5.67
360.819	87.82
361.035	25.24
361.251	59.53
361.467	0.05
361.683	39.57
361.898	5.47
362.114	44.42
362.33	21.55
362.546	34.92
362.762	-8.28
362.977	12.84
363.193	-29.98
363.409	39.38
363.624	-33.86
363.84	-6.93
364.056	-21.46
364.271	27.17
364.487	20.78
364.703	-4.41
364.918	-26.11
365.134	-1.5
365.35	20.59
365.565	104.09
365.781	5.86
365.996	31.44
366.212	55.27
366.427	44.22
366.643	-9.06
366.858	-3.63
367.074	-31.92
367.289	35.31
367.505	108.93
367.72	-26.88
367.936	-7.9
368.151	38.02
368.367	-1.7
368.582	28.53
368.798	-16.23
369.013	55.27
369.228	22.33
369.444	26.79
369.659	43.25
369.874	19.23
370.09	55.27
370.305	-27.08
370.52	7.41
370.736	31.44
370.951	21.75
371.166	63.99
371.381	29.3
371.597	62.82
371.812	-29.98
372.027	-24.17
372.242	15.74
372.458	58.56
372.673	-8.67
372.888	19.42
373.103	9.74
373.318	105.45
373.533	33.37
373.749	9.35
373.964	-26.3
374.179	52.75
374.394	-15.84
374.609	45
374.824	-19.91
375.039	63.79
375.254	11.87
375.469	53.72
375.684	-16.23
375.899	63.99
376.114	-2.47
376.329	15.16
376.544	52.55
376.759	70.96
376.974	14.19
377.189	16.52
377.404	-2.28
377.619	30.08
377.834	-20.88
378.049	-23.78
378.264	-49.16
378.478	31.05
378.693	-11.19
378.908	79.48
379.123	6.64
379.338	42.67
379.553	25.43
379.767	38.99
379.982	55.65
380.197	28.72
380.412	17.68
380.626	23.1
380.841	82.58
381.056	43.84
381.271	73.48
381.485	-7.51
381.7	-26.49
381.915	50.04
382.129	0.82
382.344	12.84
382.559	23.1
382.773	43.25
382.988	-28.82
383.202	10.12
383.417	-13.71
383.632	95.37
383.846	15.55
384.061	22.91
384.275	17.68
384.49	27.37
384.704	26.59
384.919	44.03
385.133	43.45
385.348	46.16
385.562	-9.25
385.777	53.72
385.991	27.56
386.206	-19.52
386.42	27.37
386.634	45.58
386.849	31.24
387.063	16.52
387.277	-6.35
387.492	-26.49
387.706	-5.96
387.92	-7.51
388.135	20.59
388.349	-0.15
388.563	31.05
388.778	30.08
388.992	64.18
389.206	44.8
389.42	80.07
389.635	29.5
389.849	67.67
390.063	42.48
390.277	41.32
390.491	69.6
390.706	51.97
390.92	52.17
391.134	19.04
391.348	39.38
391.562	-17.39
391.776	22.91
391.99	-0.34
392.205	51.97
392.419	26.01
392.633	31.82
392.847	71.54
393.061	6.25
393.275	59.14
393.489	14.97
393.703	21.75
393.917	73.09
394.131	17.87
394.345	66.89
394.559	58.17
394.773	17.1
394.986	28.92
395.2	18.65
395.414	57.2
395.628	-0.73
395.842	16.52
396.056	20.78
396.27	-11.77
396.484	41.51
396.697	41.32
396.911	68.63
397.125	51.59
397.339	58.17
397.553	36.28
397.766	92.27
397.98	82.78
398.194	91.88
398.408	-18.16
398.621	52.75
398.835	51
399.049	33.57
399.262	90.14
399.476	57.01
399.69	58.95
399.903	76
400.117	18.84
400.331	58.37
400.544	18.45
400.758	127.92
400.971	34.34
401.185	78.13
401.398	13.22
401.612	106.03
401.826	71.73
402.039	61.47
402.253	43.25
402.466	66.7
402.68	38.99
402.893	58.37
403.106	47.32
403.32	51.78
403.533	66.5
403.747	45.58
403.96	37.83
404.174	56.82
404.387	-0.15
404.6	29.69
404.814	114.17
405.027	52.17
405.24	38.22
405.454	16.13
405.667	67.08
405.88	-18.55
406.094	60.11
406.307	79.1
406.52	71.54
406.733	12.25
406.947	18.26
407.16	100.41
407.373	67.08
407.586	38.41
407.799	17.87
408.012	71.73
408.226	59.72
408.439	79.29
408.652	15.16
408.865	61.27
409.078	80.65
409.291	59.34
409.504	21.36
409.717	74.83
409.93	61.66
410.143	95.37
410.357	9.93
410.57	4.5
410.783	45.19
410.996	61.66
411.209	47.13
411.421	93.63
411.634	60.11
411.847	47.52
412.06	57.59
412.273	63.99
412.486	46.55
412.699	138.77
412.912	46.16
413.125	72.7
413.338	44.22
413.55	86.85
413.763	41.7
413.976	65.92
414.189	36.47
414.402	34.54
414.615	89.95
414.827	14
415.04	63.4
415.253	80.45
415.466	83.17
415.678	114.94
415.891	53.14
416.104	55.85
416.316	48.87
416.529	38.8
416.742	81.81
416.954	103.12
417.167	56.43
417.38	69.22
417.592	114.36
417.805	21.55
418.017	33.37
418.23	116.3
418.442	41.12
418.655	57.4
418.868	72.12
419.08	85.88
419.293	99.25
419.505	67.47
419.718	76.19
419.93	100.99
420.142	25.82
420.355	105.06
420.567	108.74
420.78	59.92
420.992	45.19
421.205	103.12
421.417	13.61
421.629	61.66
421.842	39.38
422.054	22.72
422.266	71.35
422.479	79.1
422.691	57.2
422.903	86.46
423.115	57.59
423.328	42.67
423.54	81.03
423.752	44.8
423.964	68.63
424.177	72.12
424.389	56.24
424.601	149.04
424.813	64.57
425.025	86.65
425.238	76.38
425.45	29.5
425.662	45.97
425.874	309.08
426.086	63.4
426.298	76.58
426.51	71.54
426.722	63.79
426.934	45.39
427.146	80.45
427.358	39.19
427.57	100.41
427.782	59.14
427.994	63.4
428.206	48.1
428.418	36.47
428.63	92.27
428.842	100.8
429.054	75.42
429.266	106.8
429.478	74.25
429.69	34.73
429.902	32.02
430.114	109.9
430.325	57.79
430.537	51.39
430.749	44.03
430.961	19.81
431.173	56.62
431.384	81.42
431.596	23.49
431.808	21.36
432.02	57.59
432.231	70.57
432.443	112.81
432.655	86.27
432.867	28.72
433.078	76.58
433.29	130.05
433.502	78.71
433.713	92.85
433.925	72.32
434.136	105.64
434.348	46.16
434.56	28.34
434.771	155.82
434.983	47.13
435.194	44.22
435.406	72.12
435.617	77.16
435.829	119.59
436.04	77.74
436.252	91.3
436.463	125.98
436.675	114.55
436.886	78.9
437.098	100.02
437.309	132.18
437.521	80.26
437.732	69.99
437.943	85.68
438.155	60.11
438.366	39.19
438.578	107
438.789	67.28
439	112.23
439.211	68.83
439.423	76.58
439.634	95.57
439.845	114.36
440.057	96.53
440.268	104.87
440.479	35.5
440.69	97.5
440.902	83.17
441.113	68.83
441.324	67.86
441.535	92.66
441.746	123.66
441.957	55.65
442.168	67.67
442.38	99.44
442.591	113.2
442.802	42.67
443.013	64.95
443.224	86.07
443.435	73.48
443.646	103.7
443.857	84.72
444.068	47.71
444.279	40.74
444.49	138.58
444.701	87.43
444.912	150.01
445.123	99.83
445.334	100.22
445.545	109.32
445.756	96.92
445.967	76.58
446.178	106.03
446.388	119.59
446.599	116.49
446.81	114.55
447.021	103.7
447.232	123.08
447.443	126.57
447.653	67.86
447.864	112.81
448.075	76.97
448.286	122.11
448.496	92.08
448.707	107.19
448.918	106.03
449.129	187.6
449.339	84.72
449.55	131.41
449.761	91.88
449.971	132.57
450.182	72.12
450.393	118.43
450.603	105.83
450.814	128.89
451.024	130.05
451.235	133.35
451.446	172.48
451.656	149.23
451.867	63.6
452.077	114.75
452.288	160.66
452.498	143.62
452.709	110.87
452.919	115.91
453.13	113.78
453.34	143.42
453.55	75.8
453.761	139.74
453.971	121.72
454.182	150.2
454.392	114.36
454.602	151.37
454.813	118.23
455.023	166.86
455.233	70.96
455.444	122.3
455.654	60.5
455.864	126.37
456.075	100.22
456.285	97.12
456.495	116.3
456.705	122.5
456.916	174.23
457.126	150.59
457.336	125.98
457.546	49.84
457.756	84.91
457.967	155.82
458.177	85.49
458.387	128.7
458.597	94.21
458.807	114.36
459.017	90.92
459.227	125.4
459.437	94.02
459.647	120.75
459.857	134.7
460.068	99.05
460.278	151.75
460.488	129.08
460.698	186.82
460.908	126.95
461.117	44.61
461.327	95.57
461.537	103.51
461.747	121.53
461.957	92.27
462.167	183.72
462.377	128.5
462.587	123.66
462.797	150.01
463.007	112.81
463.216	141.87
463.426	164.54
463.636	145.55
463.846	97.89
464.056	99.44
464.265	154.66
464.475	110.48
464.685	106.22
464.895	143.03
465.104	126.57
465.314	151.37
465.524	112.03
465.733	94.98
465.943	192.44
466.153	161.83
466.362	173.84
466.572	134.7
466.782	141.48
466.991	126.37
467.201	184.88
467.41	86.07
467.62	109.9
467.829	123.66
468.039	169.58
468.249	133.54
468.458	123.47
468.668	156.21
468.877	137.8
469.086	172.68
469.296	192.83
469.505	107.77
469.715	211.43
469.924	177.71
470.134	194.18
470.343	198.64
470.552	131.8
470.762	143.62
470.971	109.13
471.18	139.16
471.39	123.85
471.599	82
471.808	169.96
472.018	130.63
472.227	174.61
472.436	166.28
472.645	121.92
472.855	115.52
473.064	173.06
473.273	137.03
473.482	152.33
473.691	201.55
473.901	169.96
474.11	152.53
474.319	228.28
474.528	155.82
474.737	177.13
474.946	151.56
475.155	153.3
475.364	190.89
475.573	162.41
475.783	170.16
475.992	168.61
476.201	155.05
476.41	168.8
476.619	124.63
476.828	145.75
477.037	131.6
477.245	163.38
477.454	195.54
477.663	150.2
477.872	146.52
478.081	206.58
478.29	123.85
478.499	228.67
478.708	184.69
478.917	224.02
479.125	186.24
479.334	182.36
479.543	150.01
479.752	168.03
479.961	179.26
480.169	181.01
480.378	144.78
480.587	267.61
480.796	189.15
481.004	175.78
481.213	186.63
481.422	186.82
481.63	162.02
481.839	203.87
482.048	247.46
482.256	191.86
482.465	195.54
482.674	212.59
482.882	201.93
483.091	236.42
483.299	204.45
483.508	221.11
483.716	173.06
483.925	192.25
484.134	186.82
484.342	187.21
484.551	230.22
484.759	227.51
484.967	218.6
485.176	222.86
485.384	226.35
485.593	204.65
485.801	215.11
486.01	210.46
486.218	192.44
486.426	172.29
486.635	205.61
486.843	183.33
487.051	203.68
487.26	196.51
487.468	220.92
487.676	235.84
487.885	186.05
488.093	207.55
488.301	204.84
488.509	214.14
488.717	231.58
488.926	195.93
489.134	215.5
489.342	207.75
489.55	201.16
489.758	212.4
489.967	165.12
490.175	320.12
490.383	186.05
490.591	258.89
490.799	191.28
491.007	232.35
491.215	228.48
491.423	218.01
491.631	231
491.839	229.25
492.047	263.54
492.255	196.9
492.463	212.78
492.671	223.44
492.879	249.59
493.087	242.81
493.295	236.81
493.503	244.56
493.711	253.28
493.919	259.86
494.127	258.31
494.334	274.01
494.542	179.85
494.75	215.5
494.958	230.61
495.166	286.02
495.374	246.3
495.581	237.78
495.789	245.91
495.997	287.18
496.205	262.19
496.412	245.72
496.62	231.96
496.828	264.32
497.035	247.08
497.243	271.88
497.451	210.85
497.658	268.39
497.866	247.85
498.074	296.48
498.281	233.71
498.489	292.41
498.696	226.93
498.904	233.51
499.112	225.76
499.319	312.56
499.527	257.34
499.734	279.43
499.942	211.81
500.149	230.8
500.357	268.78
500.564	192.44
500.771	272.84
500.979	235.84
501.186	233.51
501.394	282.34
501.601	248.24
501.808	304.62
502.016	256.57
502.223	261.99
502.43	254.24
502.638	253.08
502.845	270.71
503.052	308.49
503.26	243.2
503.467	296.68
503.674	258.89
503.881	250.37
504.089	333.87
504.296	268.39
504.503	239.91
504.71	270.33
504.917	212.59
505.125	304.23
505.332	261.8
505.539	272.84
505.746	332.52
505.953	290.09
506.16	275.56
506.367	310.24
506.574	311.79
506.781	310.63
506.988	239.52
507.195	275.56
507.402	262.96
507.609	298.81
507.816	288.15
508.023	277.11
508.23	288.34
508.437	246.69
508.644	294.16
508.851	345.5
509.058	314.69
509.265	288.34
509.472	301.52
509.679	355.77
509.885	282.14
510.092	291.64
510.299	281.76
510.506	311.59
510.713	329.03
510.92	293.58
511.126	278.27
511.333	331.55
511.54	324.96
511.746	343.17
511.953	352.28
512.16	350.34
512.367	278.85
512.573	303.65
512.78	313.14
512.987	294.93
513.193	299.19
513.4	265.68
513.606	302.88
513.813	333.68
514.02	274.98
514.226	369.72
514.433	367.78
514.639	289.7
514.846	289.89
515.052	278.27
515.259	283.11
515.465	315.66
515.672	332.91
515.878	371.07
516.085	284.86
516.291	337.75
516.497	293.58
516.704	294.35
516.91	305.39
517.117	267.61
517.323	257.34
517.529	289.7
517.736	300.55
517.942	309.85
518.148	305.2
518.354	305.39
518.561	308.49
518.767	287.76
518.973	339.49
519.179	327.09
519.386	298.03
519.592	287.18
519.798	310.04
520.004	336.2
520.21	305.01
520.417	344.14
520.623	379.21
520.829	324.96
521.035	370.49
521.241	321.86
521.447	355.19
521.653	412.73
521.859	340.85
522.065	366.04
522.271	437.92
522.477	365.26
522.683	391.42
522.889	377.66
523.095	375.72
523.301	381.73
523.507	345.69
523.713	393.74
523.919	335.81
524.125	406.53
524.331	360.81
524.537	385.8
524.742	387.93
524.948	382.51
525.154	378.24
525.36	484.61
525.566	389.09
525.772	409.63
525.977	363.52
526.183	441.02
526.389	393.74
526.595	362.36
526.8	364.68
527.006	367.78
527.212	343.56
527.417	378.05
527.623	350.34
527.829	380.18
528.034	419.12
528.24	410.99
528.446	370.3
528.651	437.14
528.857	433.65
529.062	445.28
529.268	399.94
529.473	394.91
529.679	383.47
529.884	436.95
530.09	433.27
530.295	468.92
530.501	438.5
530.706	438.69
530.912	375.92
531.117	402.27
531.323	411.96
531.528	423.19
531.733	417.19
531.939	386.96
532.144	436.37
532.35	405.56
532.555	444.12
532.76	451.67
532.966	471.82
533.171	458.26
533.376	423.77
533.581	389.67
533.787	433.27
533.992	426.29
534.197	483.45
534.402	412.54
534.607	449.93
534.813	510.96
535.018	451.48
535.223	420.87
535.428	429.78
535.633	476.09
535.838	458.07
536.043	425.52
536.249	522.2
536.454	408.66
536.659	465.82
536.864	422.03
537.069	432.69
537.274	483.06
537.479	459.62
537.684	478.41
537.889	439.08
538.094	528.59
538.299	465.24
538.504	478.41
538.708	463.49
538.913	487.32
539.118	444.12
539.323	474.73
539.528	435.4
539.733	479.77
539.938	479.57
540.142	495.46
540.347	472.02
540.552	445.67
540.757	456.13
540.962	470.66
541.166	429.39
541.371	429.59
541.576	492.94
541.781	376.11
541.985	446.05
542.19	468.92
542.395	496.62
542.599	525.1
542.804	522
543.008	504.76
543.213	435.2
543.418	428.23
543.622	474.15
543.827	444.89
544.031	526.27
544.236	535.95
544.44	473.76
544.645	529.37
544.849	470.47
545.054	494.3
545.258	532.27
545.463	514.83
545.667	480.54
545.872	504.37
546.076	495.07
546.281	508.63
546.485	443.92
546.689	453.8
546.894	529.75
547.098	468.14
547.302	461.17
547.507	463.1
547.711	510.38
547.915	548.74
548.119	426.68
548.324	504.57
548.528	546.8
548.732	498.56
548.936	493.52
549.141	525.1
549.345	466.2
549.549	476.28
549.753	492.36
549.957	561.72
550.161	539.63
550.366	470.47
550.57	474.34
550.774	495.85
550.978	469.69
551.182	503.21
551.386	500.11
551.59	486.16
551.794	452.25
551.998	501.47
552.202	489.07
552.406	456.9
552.61	473.18
552.814	489.84
553.018	527.43
553.222	476.09
553.426	514.83
553.63	564.24
553.833	485.39
554.037	462.52
554.241	537.7
554.445	501.66
554.649	489.65
554.853	468.34
555.056	519.48
555.26	522
555.464	503.02
555.668	526.46
555.871	549.13
556.075	529.95
556.279	505.15
556.483	455.94
556.686	486.16
556.89	482.09
557.094	515.8
557.297	460.39
557.501	516.19
557.704	461.75
557.908	496.62
558.112	457.29
558.315	539.83
558.519	472.02
558.722	502.44
558.926	494.49
559.129	467.75
559.333	411.57
559.536	467.75
559.74	451.29
559.943	425.32
560.147	437.14
560.35	470.85
560.553	447.41
560.757	412.73
560.96	521.03
561.164	431.33
561.367	493.52
561.57	435.01
561.774	488.49
561.977	459.23
562.18	434.62
562.384	524.13
562.587	461.94
562.79	411.76
562.993	447.41
563.197	488.87
563.4	516.58
563.603	507.28
563.806	545.83
564.009	439.47
564.212	467.95
564.416	440.44
564.619	465.43
564.822	437.72
565.025	492.17
565.228	457.68
565.431	462.91
565.634	378.05
565.837	450.12
566.04	427.84
566.243	454
566.446	385.8
566.649	460.78
566.852	397.62
567.055	408.86
567.258	445.28
567.461	481.7
567.664	494.3
567.867	371.85
568.07	469.11
568.273	429
568.475	489.84
568.678	407.5
568.881	439.47
569.084	440.63
569.287	361.19
569.489	398.97
569.692	460
569.895	440.24
570.098	374.95
570.3	395.1
570.503	331.16
570.706	378.24
570.909	374.76
571.111	337.94
571.314	378.44
571.516	385.8
571.719	410.79
571.922	375.53
572.124	377.66
572.327	398.2
572.529	335.04
572.732	374.95
572.935	387.35
573.137	437.14
573.34	372.82
573.542	399.56
573.745	391.22
573.947	386.19
574.15	407.69
574.352	344.53
574.554	401.49
574.757	324.19
574.959	379.21
575.162	349.76
575.364	348.99
575.566	444.31
575.769	335.04
575.971	368.36
576.173	304.23
576.376	374.17
576.578	413.12
576.78	436.95
576.982	295.9
577.185	346.86
577.387	335.62
577.589	309.46
577.791	383.86
577.993	362.94
578.196	338.91
578.398	423
578.6	393.36
578.802	319.54
579.004	288.15
579.206	341.62
579.408	356.35
579.61	321.48
579.812	348.79
580.014	338.33
580.216	339.11
580.418	338.33
580.62	333.87
580.822	300.74
581.024	350.54
581.226	371.46
581.428	304.62
581.63	415.05
581.832	330
582.034	386.77
582.236	325.35
582.438	371.07
582.64	384.44
582.841	389.48
583.043	424.16
583.245	336.78
583.447	384.06
583.649	355.57
583.85	362.74
584.052	408.47
584.254	365.26
584.456	373.4
584.657	316.05
584.859	349.96
585.061	338.14
585.262	323.22
585.464	324.58
585.666	399.94
585.867	346.08
586.069	399.75
586.27	389.09
586.472	341.04
586.674	340.85
586.875	357.32
587.077	307.72
587.278	353.64
587.48	308.49
587.681	425.9
587.883	362.36
588.084	294.93
588.285	346.86
588.487	344.14
588.688	350.34
588.89	286.21
589.091	293.58
589.292	331.94
589.494	325.54
589.695	305.2
589.896	281.18
590.098	247.08
590.299	332.13
590.5	299.97
590.702	292.61
590.903	313.53
591.104	349.96
591.305	314.69
591.507	359.26
591.708	315.86
591.909	296.09
592.11	382.51
592.311	330.39
592.512	309.66
592.714	255.02
592.915	255.41
593.116	294.54
593.317	304.43
593.518	312.95
593.719	294.74
593.92	341.24
594.121	357.71
594.322	326.32
594.523	334.26
594.724	296.68
594.925	314.11
595.126	307.14
595.327	344.92
595.528	306.56
595.729	310.43
595.929	298.42
596.13	334.07
596.331	336.78
596.532	337.94
596.733	367.2
596.934	336.78
597.135	356.93
597.335	335.04
597.536	277.88
597.737	312.95
597.938	296.68
598.138	330.39
598.339	316.63
598.54	322.64
598.74	324.19
598.941	311.98
599.142	345.89
599.342	333.1
599.543	315.47
599.744	306.75
599.944	307.91
600.145	280.01
600.345	325.16
600.546	370.11
600.746	366.23
600.947	376.69
601.147	347.82
601.348	363.91
601.548	303.46
601.749	321.28
601.949	286.79
602.15	270.33
602.35	336.01
602.551	357.12
602.751	312.18
602.951	283.31
603.152	252.31
603.352	338.33
603.552	308.49
603.753	329.42
603.953	327.87
604.153	318.18
604.354	305.01
604.554	287.38
604.754	313.34
604.954	297.84
605.155	301.71
605.355	310.04
605.555	317.99
605.755	365.07
605.955	296.09
606.155	342.4
606.356	310.43
606.556	323.41
606.756	323.61
606.956	268
607.156	350.73
607.356	289.12
607.556	314.89
607.756	317.99
607.956	343.76
608.156	305.78
608.356	288.34
608.556	316.24
608.756	313.14
608.956	274.98
609.156	316.05
609.356	288.93
609.556	273.62
609.755	298.23
609.955	284.47
610.155	320.31
610.355	326.71
610.555	267.81
610.755	299.97
610.954	278.08
611.154	309.85
611.354	342.01
611.554	278.46
611.753	272.84
611.953	221.7
612.153	302.1
612.352	308.88
612.552	255.21
612.752	239.71
612.951	299.19
613.151	314.69
613.351	259.48
613.55	286.99
613.75	285.44
613.949	304.04
614.149	318.57
614.348	282.73
614.548	264.13
614.747	237.78
614.947	271.29
615.146	223.05
615.346	311.4
615.545	287.76
615.745	288.93
615.944	334.84
616.144	274.98
616.343	347.05
616.542	252.31
616.742	280.59
616.941	272.26
617.14	226.35
617.34	282.53
617.539	309.46
617.738	236.81
617.938	328.06
618.137	262.19
618.336	237.97
618.535	284.28
618.734	276.72
618.934	297.64
619.133	257.15
619.332	282.34
619.531	244.94
619.73	272.46
619.929	302.88
620.128	315.08
620.328	340.07
620.527	261.22
620.726	269.74
620.925	291.83
621.124	242.43
621.323	295.71
621.522	256.18
621.721	225.96
621.92	243.39
622.119	293.77
622.318	260.64
622.517	258.12
622.715	259.67
622.914	213.95
623.113	254.83
623.312	220.92
623.511	270.13
623.71	268.39
623.909	236.81
624.107	312.56
624.306	210.85
624.505	195.35
624.704	243.59
624.902	243.59
625.101	289.89
625.3	268.78
625.499	235.45
625.697	253.86
625.896	250.37
626.095	243.2
626.293	229.06
626.492	222.86
626.69	269.55
626.889	229.83
627.088	287.96
627.286	207.94
627.485	237.39
627.683	228.28
627.882	279.82
628.08	183.33
628.279	248.82
628.477	310.63
628.676	211.04
628.874	259.67
629.073	219.76
629.271	217.63
629.469	273.23
629.668	250.76
629.866	255.41
630.065	237.97
630.263	240.88
630.461	200.38
630.66	214.72
630.858	279.82
631.056	271.68
631.254	275.56
631.453	208.91
631.651	261.99
631.849	231.96
632.047	254.63
632.245	229.25
632.444	235.06
632.642	271.68
632.84	253.66
633.038	236.61
633.236	241.84
633.434	207.94
633.632	205.81
633.83	224.02
634.028	258.51
634.227	231.58
634.425	280.59
634.623	234.29
634.821	235.26
635.019	225.96
635.216	200.58
635.414	240.29
635.612	225.96
635.81	225.96
636.008	261.99
636.206	211.43
636.404	249.98
636.602	199.8
636.8	236.42
636.997	260.06
637.195	279.43
637.393	233.71
637.591	268.58
637.789	254.24
637.986	222.28
638.184	230.61
638.382	259.86
638.58	270.33
638.777	290.28
638.975	233.51
639.173	217.63
639.37	249.98
639.568	210.07
639.765	256.18
639.963	238.75
640.161	279.63
640.358	289.51
640.556	230.41
640.753	191.08
640.951	193.99
641.148	274.2
641.346	220.15
641.543	240.1
641.741	250.37
641.938	212.78
642.136	247.66
642.333	200.96
642.531	277.49
642.728	289.31
642.925	233.71
643.123	236.03
643.32	232.93
643.517	248.04
643.715	237.97
643.912	222.28
644.109	252.89
644.306	247.27
644.504	195.15
644.701	220.15
644.898	249.4
645.095	212.59
645.293	230.03
645.49	224.02
645.687	243.01
645.884	262.38
646.081	159.89
646.278	198.83
646.475	205.23
646.672	206
646.87	230.61
647.067	217.63
647.264	224.6
647.461	203.48
647.658	190.5
647.855	246.11
648.052	195.73
648.249	152.91
648.446	204.45
648.642	186.82
648.839	203.48
649.036	196.31
649.233	183.91
649.43	191.08
649.627	182.36
649.824	184.69
650.021	197.09
650.217	200.58
650.414	193.99
650.611	187.21
650.808	193.21
651.004	224.8
651.201	220.92
651.398	250.37
651.595	205.03
651.791	187.21
651.988	211.62
652.185	189.34
652.381	233.32
652.578	180.23
652.775	204.45
652.971	185.27
653.168	199.8
653.364	205.81
653.561	147.88
653.757	186.82
653.954	186.05
654.15	150.01
654.347	256.38
654.543	186.82
654.74	168.61
654.936	165.31
655.133	187.21
655.329	201.74
655.525	194.18
655.722	217.24
655.918	174.03
656.115	236.03
656.311	177.52
656.507	144.78
656.704	127.92
656.9	164.73
657.096	154.66
657.292	162.8
657.489	181.98
657.685	181.98
657.881	166.09
658.077	196.7
658.273	161.63
658.47	227.31
658.666	161.05
658.862	198.06
659.058	151.17
659.254	245.72
659.45	154.66
659.646	205.23
659.842	164.54
660.038	219.18
660.234	171.9
660.43	196.51
660.626	263.35
660.822	217.24
661.018	204.65
661.214	182.17
661.41	141.29
661.606	215.5
661.802	206
661.998	169.19
662.194	147.88
662.39	199.22
662.586	195.15
662.781	198.83
662.977	198.83
663.173	208.91
663.369	182.75
663.564	189.34
663.76	231.38
663.956	177.33
664.152	224.6
664.347	176.55
664.543	194.57
664.739	173.45
664.934	117.46
665.13	143.42
665.326	215.5
665.521	195.15
665.717	160.47
665.912	136.83
666.108	126.57
666.304	154.66
666.499	204.45
666.695	126.57
666.89	172.48
667.086	213.75
667.281	174.42
667.477	230.03
667.672	166.86
667.867	198.64
668.063	169.77
668.258	144.97
668.454	160.86
668.649	273.04
668.844	190.89
669.04	225.18
669.235	171.9
669.43	172.87
669.626	145.94
669.821	134.32
670.016	143.03
670.211	172.1
670.407	139.55
670.602	177.13
670.797	162.21
670.992	221.7
671.187	179.07
671.382	184.5
671.578	157.56
671.773	201.35
671.968	141.87
672.163	192.05
672.358	201.35
672.553	165.31
672.748	173.06
672.943	223.05
673.138	170.35
673.333	198.06
673.528	151.95
673.723	155.24
673.918	181.98
674.113	130.25
674.308	249.98
674.503	206
674.698	203.68
674.892	177.91
675.087	190.89
675.282	171.71
675.477	158.92
675.672	208.71
675.867	179.26
676.061	147.1
676.256	144.2
676.451	171.71
676.646	174.81
676.84	137.42
677.035	119.4
677.23	132.18
677.424	186.82
677.619	162.99
677.814	191.66
678.008	206.2
678.203	131.99
678.397	124.82
678.592	168.03
678.787	204.26
678.981	170.35
679.176	181.4
679.37	144.58
679.565	131.99
679.759	172.1
679.954	162.41
680.148	206
680.342	188.18
680.537	177.33
680.731	141.29
680.926	168.8
681.12	164.54
681.314	161.25
681.509	159.7
681.703	173.84
681.897	168.41
682.092	148.65
682.286	154.66
682.48	221.7
682.674	199.41
682.869	150.98
683.063	151.37
683.257	228.09
683.451	156.79
683.645	191.08
683.839	151.17
684.034	150.4
684.228	194.18
684.422	134.12
684.616	135.87
684.81	176.16
685.004	171.71
685.198	165.12
685.392	221.31
685.586	147.49
685.78	165.31
685.974	161.63
686.168	189.73
686.362	229.64
686.556	153.69
686.75	127.34
686.944	169.38
687.138	173.06
687.331	124.24
687.525	141.1
687.719	112.03
687.913	156.79
688.107	165.31
688.301	153.69
688.494	179.85
688.688	133.73
688.882	95.57
689.076	89.75
689.269	118.23
689.463	197.48
689.657	130.83
689.85	144.78
690.044	146.72
690.238	136.45
690.431	138.38
690.625	152.33
690.818	157.56
691.012	150.4
691.205	170.74
691.399	99.25
691.593	143.42
691.786	189.15
691.98	202.51
692.173	210.85
692.366	168.8
692.56	193.6
692.753	189.34
692.947	139.35
693.14	215.5
693.333	171.51
693.527	116.68
693.72	189.15
693.914	170.93
694.107	184.3
694.3	172.1
694.493	170.74
694.687	210.65
694.88	149.43
695.073	218.79
695.266	220.15
695.46	171.13
695.653	209.88
695.846	202.71
696.039	119.98
696.232	169.19
696.425	192.25
696.618	202.9
696.812	191.86
697.005	215.3
697.198	286.41
697.391	227.31
697.584	215.5
697.777	269.16
697.97	262.38
698.163	241.26
698.356	219.56
698.549	281.37
698.742	256.76
698.935	218.6
699.127	248.63
699.32	204.26
699.513	207.55
699.706	247.66
699.899	256.18
700.092	241.46
700.285	220.92
700.477	209.3
700.67	267.42
700.863	265.48
701.056	313.34
701.248	276.14
701.441	300.55
701.634	249.79
701.826	345.5
702.019	265.29
702.212	304.81
702.404	238.55
702.597	245.72
702.79	276.72
702.982	296.48
703.175	316.83
703.367	294.74
703.56	321.86
703.752	357.12
703.945	362.16
704.137	334.07
704.33	340.85
704.522	339.49
704.715	350.34
704.907	351.51
705.1	385.99
705.292	359.45
705.484	324.58
705.677	368.36
705.869	352.67
706.061	395.29
706.254	424.74
706.446	373.98
706.638	344.92
706.831	412.54
707.023	375.72
707.215	439.66
707.407	416.41
707.599	418.74
707.792	442.76
707.984	430.94
708.176	459.23
708.368	415.25
708.56	427.07
708.752	411.76
708.944	447.22
709.136	448.57
709.329	416.6
709.521	505.92
709.713	477.25
709.905	499.72
710.097	474.92
710.289	479.19
710.481	471.44
710.672	492.94
710.864	467.37
711.056	526.46
711.248	546.22
711.44	508.25
711.632	482.09
711.824	479.77
712.016	573.54
712.207	549.71
712.399	559.78
712.591	579.74
712.783	532.85
712.975	586.52
713.166	507.86
713.358	559.01
713.55	605.51
713.741	583.42
713.933	566.95
714.125	578.77
714.316	563.47
714.508	637.48
714.7	628.95
714.891	620.23
715.083	657.43
715.274	623.14
715.466	614.81
715.657	645.42
715.849	551.26
716.04	612.48
716.232	573.73
716.423	660.15
716.615	600.47
716.806	618.49
716.998	633.8
717.189	574.32
717.381	523.36
717.572	526.07
717.763	585.55
717.955	566.95
718.146	543.9
718.337	511.93
718.528	503.98
718.72	484.8
718.911	559.4
719.102	529.17
719.293	576.45
719.485	551.84
719.676	531.69
719.867	526.27
720.058	525.3
720.249	535.57
720.44	549.13
720.632	553.39
720.823	598.73
721.014	614.81
721.205	617.33
721.396	652.78
721.587	719.82
721.778	737.06
721.969	711.49
722.16	762.44
722.351	697.15
722.542	789.76
722.733	808.17
722.924	743.84
723.115	749.66
723.305	804.87
723.496	812.43
723.687	712.46
723.878	745.78
724.069	736.48
724.26	773.68
724.45	723.89
724.641	729.7
724.832	756.24
725.023	742.49
725.213	716.33
725.404	713.04
725.595	750.82
725.785	711.1
725.976	779.3
726.167	774.07
726.357	772.71
726.548	835.49
726.739	769.22
726.929	817.66
727.12	836.84
727.31	852.73
727.501	825.61
727.691	843.62
727.882	835.1
728.072	848.86
728.263	868.04
728.453	905.24
728.644	881.02
728.834	898.07
729.024	861.06
729.215	851.76
729.405	901.17
729.596	918.99
729.786	929.84
729.976	932.94
730.167	954.45
730.357	871.52
730.547	917.64
730.737	990.87
730.928	975.57
731.118	1021.48
731.308	956.19
731.498	971.3
731.688	1044.54
731.879	1005.4
732.069	1107.7
732.259	1063.72
732.449	1064.11
732.639	1109.83
732.829	1086.97
733.019	1134.44
733.209	1200.12
733.399	1142.19
733.589	1198.57
733.779	1163.5
733.969	1181.33
734.159	1259.79
734.349	1272
734.539	1291.76
734.729	1252.24
734.919	1295.44
735.109	1299.51
735.299	1320.63
735.488	1324.7
735.678	1339.62
735.868	1327.41
736.058	1341.94
736.248	1299.7
736.437	1272
736.627	1257.27
736.817	1354.54
737.007	1340.78
737.196	1375.85
737.386	1330.7
737.576	1342.52
737.765	1394.83
737.955	1371.59
738.144	1465.16
738.334	1422.15
738.524	1362.48
738.713	1427.58
738.903	1410.72
739.092	1448.7
739.282	1439.59
739.471	1427
739.661	1421.57
739.85	1452.57
740.04	1464.58
740.229	1503.33
740.419	1496.55
740.608	1512.83
740.797	1542.86
740.987	1570.37
741.176	1522.71
741.365	1486.86
741.555	1469.23
741.744	1554.87
741.933	1547.31
742.123	1547.12
742.312	1569.59
742.501	1587.42
742.69	1611.83
742.88	1542.66
743.069	1621.91
743.258	1550.22
743.447	1619.78
743.636	1642.25
743.825	1594.98
744.014	1593.62
744.204	1634.89
744.393	1587.23
744.582	1640.12
744.771	1671.89
744.96	1610.09
745.149	1669.96
745.338	1629.66
745.527	1640.89
745.716	1610.86
745.905	1621.71
746.094	1651.94
746.283	1686.42
746.471	1660.46
746.66	1733.5
746.849	1673.64
747.038	1717.23
747.227	1637.21
747.416	1688.75
747.604	1649.22
747.793	1695.53
747.982	1695.53
748.171	1662.98
748.359	1698.44
748.548	1689.91
748.737	1693.01
748.926	1688.56
749.114	1635.28
749.303	1690.69
749.491	1662.01
749.68	1649.03
749.869	1699.79
750.057	1688.17
750.246	1643.22
750.434	1665.11
750.623	1676.74
750.811	1676.16
751	1720.14
751.188	1658.72
751.377	1673.44
751.565	1662.01
751.754	1660.27
751.942	1623.07
752.131	1663.37
752.319	1649.81
752.507	1636.24
752.696	1721.11
752.884	1731.57
753.072	1645.16
753.261	1667.82
753.449	1636.83
753.637	1663.37
753.825	1731.95
754.014	1629.27
754.202	1650.58
754.39	1733.31
754.578	1691.66
754.766	1684.29
754.955	1640.31
755.143	1762.76
755.331	1661.82
755.519	1650.77
755.707	1661.62
755.895	1665.5
756.083	1657.36
756.271	1611.44
756.459	1630.63
756.647	1694.95
756.835	1656.97
757.023	1632.95
757.211	1617.06
757.399	1616.09
757.587	1606.79
757.775	1603.5
757.963	1674.61
758.151	1629.66
758.339	1614.35
758.526	1600.21
758.714	1603.11
758.902	1558.55
759.09	1513.21
759.278	1413.82
759.465	1310.55
759.653	1104.41
759.841	1037.76
760.028	872.88
760.216	755.66
760.404	767.09
760.591	573.15
760.779	498.75
760.967	434.24
761.154	340.27
761.342	387.93
761.529	380.37
761.717	399.36
761.905	375.14
762.092	444.89
762.28	389.09
762.467	395.29
762.655	360.42
762.842	386.57
763.029	378.63
763.217	377.66
763.404	367.59
763.592	389.48
763.779	336.01
763.966	392.39
764.154	406.72
764.341	449.15
764.528	447.41
764.716	471.05
764.903	499.53
765.09	563.08
765.277	528.98
765.465	659.95
765.652	694.44
765.839	720.59
766.026	798.67
766.213	786.47
766.4	811.66
766.588	964.91
766.775	929.26
766.962	1000.75
767.149	1000.56
767.336	1113.51
767.523	1079.61
767.71	1164.86
767.897	1219.69
768.084	1253.59
768.271	1280.52
768.458	1329.93
768.645	1345.04
768.832	1296.99
769.019	1332.25
769.206	1357.64
769.392	1379.72
769.579	1441.92
769.766	1422.93
769.953	1397.93
770.14	1474.46
770.327	1453.73
770.513	1456.64
770.7	1499.65
770.887	1432.42
771.073	1465.94
771.26	1483.38
771.447	1435.91
771.634	1447.15
771.82	1514.76
772.007	1453.93
772.193	1479.89
772.38	1499.85
772.567	1461.87
772.753	1462.84
772.94	1490.93
773.126	1510.5
773.313	1478.53
773.499	1522.32
773.686	1533.36
773.872	1463.81
774.059	1469.04
774.245	1423.7
774.432	1445.21
774.618	1443.66
774.804	1477.56
774.991	1420.22
775.177	1517.86
775.363	1445.79
775.55	1491.13
775.736	1402.58
775.922	1432.62
776.109	1460.71
776.295	1490.93
776.481	1460.71
776.667	1440.56
776.853	1413.24
777.04	1417.5
777.226	1413.82
777.412	1484.35
777.598	1441.53
777.784	1410.53
777.97	1429.52
778.156	1432.42
778.342	1405.49
778.528	1431.84
778.715	1361.51
778.901	1369.84
779.087	1460.71
779.272	1368.49
779.458	1366.35
779.644	1399.68
779.83	1406.46
780.016	1468.65
780.202	1388.25
780.388	1359.38
780.574	1330.9
780.76	1352.02
780.946	1414.98
781.131	1392.51
781.317	1363.25
781.503	1390.57
781.689	1352.4
781.874	1469.23
782.06	1337.49
782.246	1365.39
782.432	1354.73
782.617	1375.27
782.803	1412.85
782.989	1309.39
783.174	1335.94
783.36	1355.12
783.545	1365.19
783.731	1325.47
783.916	1281.11
784.102	1357.83
784.288	1284.01
784.473	1311.52
784.659	1270.84
784.844	1363.45
785.029	1265.02
785.215	1300.87
785.4	1262.12
785.586	1371.78
785.771	1263.86
785.956	1296.8
786.142	1283.82
786.327	1255.34
786.512	1307.65
786.698	1296.8
786.883	1246.04
787.068	1255.53
787.254	1271.22
787.439	1271.42
787.624	1249.33
787.809	1255.92
787.994	1238.48
788.18	1295.44
788.365	1212.91
788.55	1254.95
788.735	1193.73
788.92	1231.51
789.105	1227.24
789.29	1241.77
789.475	1191.4
789.66	1221.62
789.845	1194.5
790.03	1214.65
790.215	1221.43
790.4	1239.64
790.585	1247.01
790.77	1197.99
790.955	1148.58
791.14	1184.04
791.325	1242.74
791.51	1104.6
791.695	1190.43
791.879	1165.44
792.064	1142.77
792.249	1252.43
792.434	1164.47
792.618	1199.54
792.803	1195.28
792.988	1141.61
793.173	1160.79
793.357	1209.03
793.542	1122.43
793.727	1175.13
793.911	1219.88
794.096	1164.47
794.281	1190.63
794.465	1257.27
794.65	1203.41
794.834	1225.89
795.019	1232.67
795.203	1226.27
795.388	1225.11
795.572	1246.04
795.757	1215.81
795.941	1198.38
796.126	1182.49
796.31	1155.17
796.494	1185.98
796.679	1182.88
796.863	1152.65
797.048	1245.07
797.232	1197.41
797.416	1202.64
797.601	1169.31
797.785	1238.09
797.969	1232.67
798.153	1168.93
798.338	1260.57
798.522	1223.17
798.706	1241
798.89	1221.04
799.074	1308.81
799.258	1226.08
799.443	1191.21
799.627	1209.22
799.811	1260.57
799.995	1216.01
800.179	1170.67
800.363	1177.45
800.547	1217.56
800.731	1216.78
800.915	1135.6
801.099	1199.54
801.283	1205.74
801.467	1185.39
801.651	1184.04
801.835	1268.71
802.019	1198.76
802.202	1213.29
802.386	1163.31
802.57	1167.76
802.754	1168.73
802.938	1126.49
803.121	1165.24
803.305	1230.92
803.489	1191.59
803.673	1189.66
803.856	1214.46
804.04	1175.71
804.224	1188.3
804.407	1162.34
804.591	1153.23
804.775	1197.79
804.958	1208.64
805.142	1273.94
805.326	1208.45
805.509	1184.43
805.693	1233.44
805.876	1232.86
806.06	1195.28
806.243	1201.47
806.427	1252.04
806.61	1245.46
806.794	1170.67
806.977	1281.49
807.16	1212.32
807.344	1182.88
807.527	1204.38
807.71	1191.98
807.894	1222.79
808.077	1247.78
808.26	1196.83
808.444	1149.55
808.627	1227.63
808.81	1184.81
808.993	1155.75
809.177	1144.9
809.36	1141.41
809.543	1197.21
809.726	1118.16
809.909	1119.13
810.092	1112.55
810.276	1146.84
810.459	1096.46
810.642	1105.38
810.825	1080.96
811.008	1093.95
811.191	1058.49
811.374	1042.99
811.557	1091.23
811.74	1150.71
811.923	1024.2
812.106	1014.12
812.289	1018.58
812.472	1023.42
812.654	1048.22
812.837	1043.57
813.02	984.67
813.203	960.45
813.386	906.01
813.569	897.1
813.751	884.31
813.934	951.93
814.117	940.69
814.3	893.61
814.482	851.18
814.665	863.97
814.848	865.32
815.03	819.02
815.213	832.39
815.396	797.51
815.578	773.1
815.761	767.67
815.943	834.52
816.126	771.94
816.309	746.75
816.491	706.45
816.674	652.2
816.856	728.73
817.039	701.41
817.221	764.77
817.403	711.1
817.586	726.21
817.768	760.89
817.951	720.21
818.133	690.37
818.315	705.29
818.498	740.55
818.68	788.21
818.862	735.9
819.045	735.13
819.227	730.28
819.409	744.43
819.591	749.66
819.774	752.18
819.956	712.46
820.138	794.8
820.32	764.57
820.502	781.04
820.684	821.92
820.866	832.58
821.048	839.75
821.231	840.33
821.413	852.34
821.595	843.62
821.777	830.84
821.959	815.14
822.141	870.17
822.323	784.14
822.505	757.79
822.686	737.26
822.868	738.61
823.05	661.89
823.232	649.68
823.414	617.71
823.596	652.4
823.778	661.31
823.96	652.4
824.141	666.35
824.323	684.75
824.505	702.96
824.687	749.08
824.868	720.59
825.05	839.56
825.232	812.04
825.413	863.77
825.595	842.46
825.777	765.93
825.958	817.66
826.14	817.08
826.321	872.49
826.503	831.22
826.685	813.79
826.866	823.67
827.048	821.73
827.229	818.05
827.411	759.93
827.592	762.06
827.773	775.81
827.955	721.76
828.136	768.06
828.318	721.37
828.499	763.99
828.68	676.81
828.862	731.06
829.043	759.73
829.224	736.48
829.406	734.93
829.587	710.91
829.768	708.39
829.949	726.21
830.131	703.16
830.312	784.34
830.493	723.89
830.674	753.14
830.855	739.78
831.036	733.77
831.218	777.75
831.399	793.83
831.58	746.36
831.761	764.96
831.942	760.89
832.123	732.99
832.304	693.08
832.485	706.06
832.666	747.72
832.847	747.91
833.028	726.99
833.209	751.79
833.389	706.84
833.57	710.33
833.751	725.63
833.932	745.78
834.113	738.23
834.294	716.14
834.475	754.89
834.655	794.8
834.836	806.04
835.017	750.43
835.198	712.84
835.378	732.99
835.559	786.86
835.74	721.18
835.92	714.2
836.101	712.07
836.281	757.02
836.462	746.56
836.643	832
836.823	797.32
837.004	782.01
837.184	801.58
837.365	808.75
837.545	790.92
837.726	750.82
837.906	829.48
838.087	757.21
838.267	762.83
838.448	737.64
838.628	775.42
838.808	747.14
838.989	819.41
839.169	735.32
839.349	766.32
839.53	781.24
839.71	792.28
839.89	725.24
840.07	831.22
840.251	764.77
840.431	800.42
840.611	776.78
840.791	753.73
840.971	761.67
841.151	749.66
841.332	711.68
841.512	777.75
841.692	732.8
841.872	769.42
842.052	771.16
842.232	762.25
842.412	724.66
842.592	736.68
842.772	763.99
842.952	761.86
843.132	732.99
843.312	765.54
843.492	721.37
843.672	771.16
843.851	714.59
844.031	716.91
844.211	756.44
844.391	748.3
844.571	755.86
844.751	766.71
844.93	757.21
845.11	718.08
845.29	736.48
845.47	758.18
845.649	744.23
845.829	762.25
846.009	744.43
846.188	751.01
846.368	758.96
846.547	727.76
846.727	770.58
846.907	743.26
847.086	737.26
847.266	774.65
847.445	763.22
847.625	717.88
847.804	700.83
847.984	706.26
848.163	682.81
848.343	716.53
848.522	724.86
848.701	743.84
848.881	704.9
849.06	724.86
849.239	726.99
849.419	742.68
849.598	705.87
849.777	686.88
849.957	695.41
850.136	635.73
850.315	651.62
850.494	659.56
850.674	644.65
850.853	707.81
851.032	666.35
851.211	715.94
851.39	701.61
851.569	652.98
851.748	627.98
851.927	713.81
852.107	672.93
852.286	638.45
852.465	640.96
852.644	668.67
852.823	689.4
853.002	666.93
853.181	654.33
853.359	682.23
853.538	613.84
853.717	705.48
853.896	617.71
854.075	594.46
854.254	602.99
854.433	565.98
854.611	626.63
854.79	577.03
854.969	588.07
855.148	602.6
855.327	584.78
855.505	614.03
855.684	590.59
855.863	636.9
856.041	593.5
856.22	616.55
856.399	594.85
856.577	648.71
856.756	655.11
856.934	733.96
857.113	730.09
857.291	652.4
857.47	618.1
857.648	659.95
857.827	641.93
858.005	662.28
858.184	616.36
858.362	714.78
858.541	639.41
858.719	647.94
858.898	637.09
859.076	626.24
859.254	691.73
859.433	664.21
859.611	620.81
859.789	611.71
859.967	710.33
860.146	684.75
860.324	635.35
860.502	606.67
860.68	571.02
860.859	570.44
861.037	630.89
861.215	637.09
861.393	632.05
861.571	616.16
861.749	578.97
861.927	627.01
862.105	638.06
862.283	609.96
862.461	587.88
862.639	591.56
862.817	570.25
862.995	586.72
863.173	578.19
863.351	583.23
863.529	596.79
863.707	655.88
863.885	614.23
864.063	540.6
864.241	575.48
864.418	651.23
864.596	578
864.774	543.9
864.952	593.11
865.129	591.56
865.307	594.46
865.485	528.98
865.663	620.04
865.84	559.59
866.018	568.31
866.196	486.35
866.373	522
866.551	511.93
866.728	460.97
866.906	496.04
867.084	512.12
867.261	551.65
867.439	532.85
867.616	560.95
867.794	538.67
867.971	550.68
868.149	524.91
868.326	600.08
868.503	567.15
868.681	564.43
868.858	526.65
869.035	497.2
869.213	550.1
869.39	532.27
869.567	630.31
869.745	548.35
869.922	518.71
870.099	559.98
870.276	565.02
870.454	558.23
870.631	563.27
870.808	489.84
870.985	552.03
871.162	602.99
871.339	558.82
871.517	515.03
871.694	517.93
871.871	558.82
872.048	548.35
872.225	476.47
872.402	517.16
872.579	484.03
872.756	540.41
872.933	494.3
873.11	519.29
873.287	546.22
873.463	527.23
873.64	493.91
873.817	539.05
873.994	514.83
874.171	498.37
874.348	518.9
874.524	485.39
874.701	527.82
874.878	494.1
875.055	532.66
875.231	508.05
875.408	578
875.585	467.56
875.762	497.98
875.938	510.38
876.115	489.45
876.291	452.45
876.468	499.92
876.645	449.54
876.821	497.2
876.998	460.78
877.174	523.17
877.351	498.37
877.527	484.61
877.704	486.94
877.88	499.53
878.057	490.04
878.233	515.42
878.409	472.02
878.586	502.24
878.762	491
878.938	475.12
879.115	435.98
879.291	486.16
879.467	422.8
879.644	451.48
879.82	505.53
879.996	452.45
880.172	408.66
880.349	475.89
880.525	482.87
880.701	445.47
880.877	447.22
881.053	500.3
881.229	458.07
881.405	499.72
881.581	449.35
881.757	476.28
881.933	475.12
882.109	476.86
882.285	449.15
882.461	430.36
882.637	447.6
882.813	424.35
882.989	437.53
883.165	513.28
883.341	435.98
883.517	511.15
883.693	466.2
883.869	497.4
884.044	433.85
884.22	493.14
884.396	490.04
884.572	481.32
884.747	491
884.923	471.24
885.099	479.96
885.275	510.18
885.45	437.34
885.626	436.37
885.801	414.47
885.977	443.34
886.153	401.49
886.328	455.55
886.504	450.12
886.679	480.93
886.855	420.67
887.03	480.74
887.206	497.2
887.381	474.73
887.557	465.62
887.732	474.92
887.908	488.49
888.083	510.18
888.258	440.24
888.434	455.94
888.609	418.74
888.784	475.7
888.96	445.09
889.135	437.34
889.31	435.79
889.485	440.82
889.661	430.55
889.836	479.96
890.011	453.42
890.186	429.39
890.361	429.59
890.537	453.42
890.712	474.34
890.887	436.37
891.062	447.6
891.237	477.25
891.412	423.58
891.587	464.07
891.762	510.57
891.937	503.02
892.112	430.75
892.287	447.22
892.462	428.23
892.637	390.45
892.812	372.43
892.987	411.96
893.161	402.66
893.336	394.13
893.511	412.92
893.686	416.6
893.861	404.01
894.035	408.08
894.21	406.53
894.385	389.48
894.56	402.66
894.734	361.77
894.909	369.72
895.084	376.11
895.258	370.49
895.433	392
895.608	358.87
895.782	337.94
895.957	332.91
896.131	350.54
896.306	286.02
896.48	299.97
896.655	332.52
896.829	289.51
897.004	290.09
897.178	309.27
897.353	309.46
897.527	345.31
897.701	312.56
897.876	250.95
898.05	341.04
898.224	319.93
898.399	340.27
898.573	291.64
898.747	223.63
898.921	287.76
899.096	230.41
899.27	263.35
899.444	244.36
899.618	225.96
899.792	236.23
899.967	264.9
900.141	289.89
900.315	228.28
900.489	250.56
900.663	270.91
900.837	280.4
901.011	205.03
901.185	308.69
901.359	243.59
901.533	284.66
901.707	281.37
901.881	285.24
902.055	236.03
902.229	260.64
902.403	295.51
902.576	262.96
902.75	268.39
902.924	353.44
903.098	280.4
903.272	305.78
903.446	319.15
903.619	309.66
903.793	301.13
903.967	315.47
904.14	348.99
904.314	332.13
904.488	336.78
904.661	359.84
904.835	308.3
905.009	362.16
905.182	376.31
905.356	342.79
905.529	343.17
905.703	289.7
905.876	320.31
906.05	303.65
906.223	300.16
906.397	264.13
906.57	267.81
906.744	232.74
906.917	276.33
907.09	258.7
907.264	274.59
907.437	240.88
907.61	232.93
907.784	242.43
907.957	249.79
908.13	237.2
908.304	273.62
908.477	218.98
908.65	228.48
908.823	178.49
908.996	302.1
909.17	234.1
909.343	231
909.516	221.11
909.689	245.33
909.862	221.7
910.035	242.62
910.208	224.8
910.381	238.55
910.554	279.04
910.727	241.26
910.9	195.93
911.073	184.88
911.246	252.11
911.419	281.95
911.592	253.86
911.765	222.08
911.938	198.06
912.11	213.75
912.283	226.15
912.456	265.29
912.629	247.08
912.802	221.5
912.974	212.98
913.147	156.4
913.32	164.73
913.493	155.05
913.665	202.32
913.838	235.84
914.01	185.66
914.183	192.44
914.356	171.32
914.528	244.36
914.701	267.81
914.873	223.63
915.046	174.42
915.218	159.31
915.391	140.32
915.563	157.95
915.736	214.53
915.908	218.01
916.081	208.71
916.253	165.7
916.425	182.17
916.598	187.6
916.77	196.9
916.942	184.11
917.115	139.35
917.287	216.08
917.459	190.5
917.632	162.21
917.804	108.55
917.976	178.88
918.148	168.8
918.32	177.71
918.493	201.35
918.665	234.87
918.837	184.3
919.009	253.47
919.181	225.96
919.353	205.61
919.525	209.88
919.697	219.56
919.869	196.51
920.041	290.28
920.213	293.19
920.385	216.46
920.557	209.88
920.729	225.57
920.901	220.34
921.073	206.39
921.244	206.78
921.416	211.23
921.588	204.45
921.76	190.31
921.932	246.49
922.103	210.26
922.275	204.65
922.447	197.09
922.619	146.13
922.79	218.79
922.962	184.5
923.134	220.15
923.305	166.86
923.477	160.66
923.648	176.55
923.82	174.61
923.991	142.26
924.163	137.42
924.335	158.73
924.506	179.26
924.677	210.85
924.849	174.81
925.02	189.73
925.192	194.76
925.363	168.61
925.535	185.08
925.706	145.36
925.877	186.82
926.049	154.27
926.22	205.23
926.391	157.56
926.562	209.88
926.734	153.69
926.905	186.05
927.076	151.95
927.247	157.56
927.419	133.15
927.59	136.83
927.761	149.43
927.932	139.55
928.103	173.65
928.274	133.93
928.445	118.43
928.616	107.97
928.787	146.52
928.958	160.66
929.129	167.45
929.3	138
929.471	125.4
929.642	91.5
929.813	32.02
929.984	138.19
930.155	42.09
930.326	119.59
930.496	80.65
930.667	48.29
930.838	99.83
931.009	38.41
931.18	76.58
931.35	70.96
931.521	63.99
931.692	49.45
931.863	8.57
932.033	70.18
932.204	51.78
932.374	59.92
932.545	16.9
932.716	64.76
932.886	102.15
933.057	10.12
933.227	14.77
933.398	92.66
933.568	17.29
933.739	20.2
933.909	8.77
934.08	57.79
934.25	-25.33
934.421	6.25
934.591	30.27
934.761	16.32
934.932	-28.63
935.102	-7.9
935.272	4.31
935.443	19.04
935.613	23.3
935.783	19.81
935.953	-16.23
936.123	141.29
936.294	-52.46
936.464	-3.63
936.634	-3.83
936.804	-10.61
936.974	-14.68
937.144	12.25
937.314	26.98
937.484	-15.06
937.655	-6.73
937.825	48.68
937.995	7.6
938.165	17.29
938.334	-8.86
938.504	23.1
938.674	-3.83
938.844	13.42
939.014	50.04
939.184	19.42
939.354	56.43
939.524	68.25
939.694	24.85
939.863	9.15
940.033	82
940.203	64.18
940.373	61.08
940.542	82.97
940.712	32.79
940.882	54.1
941.051	94.6
941.221	75.22
941.391	71.35
941.56	19.81
941.73	9.93
941.899	107.38
942.069	25.43
942.238	58.95
942.408	34.34
942.577	63.79
942.747	38.6
942.916	2.37
943.086	13.22
943.255	86.85
943.425	48.49
943.594	-1.5
943.763	-23.01
943.933	0.24
944.102	-11.19
944.271	49.84
944.441	57.01
944.61	1.99
944.779	23.3
944.948	97.89
945.117	3.73
945.287	15.16
945.456	-16.03
945.625	-11.96
945.794	37.44
945.963	-9.83
946.132	42.87
946.301	19.42
946.47	57.98
946.639	-32.69
946.808	6.05
946.977	36.28
947.146	42.29
947.315	0.44
947.484	37.05
947.653	14.19
947.822	-13.51
947.991	-1.89
948.16	94.4
948.329	67.47
948.498	13.03
948.666	56.43
948.835	63.79
949.004	-31.34
949.173	15.94
949.341	31.63
949.51	40.93
949.679	76.77
949.847	49.45
950.016	77.74
950.185	86.07
950.353	2.37
950.522	18.84
950.69	63.6
950.859	36.28
951.028	46.74
951.196	2.76
951.365	-1.7
951.533	34.54
951.701	54.1
951.87	39.96
952.038	-4.6
952.207	9.15
952.375	80.26
952.543	7.99
952.712	10.7
952.88	-3.25
953.048	69.41
953.217	27.37
953.385	18.26
953.553	66.7
953.721	8.57
953.89	34.54
954.058	-0.53
954.226	2.37
954.394	31.44
954.562	-13.32
954.73	38.02
954.898	29.11
955.067	71.73
955.235	2.95
955.403	48.29
955.571	84.72
955.739	67.08
955.907	4.7
956.075	19.04
956.243	3.34
956.41	34.92
956.578	-31.92
956.746	-9.45
956.914	-12.74
957.082	54.88
957.25	55.85
957.418	-1.31
957.585	27.56
957.753	43.25
957.921	-0.34
958.089	31.44
958.256	36.47
958.424	32.21
958.592	53.14
958.759	19.62
958.927	51.78
959.095	-7.12
959.262	23.88
959.43	28.53
959.597	14.58
959.765	5.28
959.932	-7.12
960.1	75.61
960.267	38.22
960.435	42.29
960.602	46.94
960.77	8.19
960.937	-33.08
961.104	30.47
961.272	-4.41
961.439	21.94
961.606	16.9
961.774	67.86
961.941	12.25
962.108	20.97
962.275	21.36
962.443	63.79
962.61	20.78
962.777	92.85
962.944	38.8
963.111	30.27
963.278	57.4
963.446	44.22
963.613	14.77
963.78	26.98
963.947	42.29
964.114	26.59
964.281	127.15
964.448	72.32
964.615	35.12
964.782	46.74
964.949	66.89
965.116	54.69
965.282	82.2
965.449	20.39
965.616	1.99
965.783	74.64
965.95	48.87
966.117	17.87
966.283	25.04
966.45	32.4
966.617	43.64
966.784	64.95
966.95	48.29
967.117	43.06
967.284	-5.76
967.45	13.8
967.617	71.73
967.784	53.33
967.95	65.73
968.117	51.39
968.283	79.87
968.45	144.78
968.616	64.76
968.783	59.53
968.949	77.74
969.116	63.99
969.282	29.89
969.449	54.49
969.615	34.73
969.781	-17
969.948	8.57
970.114	-3.25
970.28	78.9
970.447	45.39
970.613	77.55
970.779	7.99
970.945	74.25
971.112	62.44
971.278	25.24
971.444	44.03
971.61	91.5
971.776	43.64
971.942	75.03
972.108	55.07
972.275	72.7
972.441	32.79
972.607	93.82
972.773	14
972.939	44.42
973.105	53.14
973.271	29.3
973.437	32.6
973.602	27.75
973.768	36.47
973.934	45.19
974.1	69.02
974.266	-39.67
974.432	42.29
974.598	42.09
974.763	49.65
974.929	23.88
975.095	101.18
975.261	4.31
975.426	-16.81
975.592	26.79
975.758	106.22
975.923	-22.04
976.089	23.69
976.255	81.81
976.42	61.08
976.586	50.42
976.751	24.46
976.917	119.2
977.082	43.64
977.248	0.63
977.413	-15.26
977.579	19.62
977.744	48.29
977.91	-6.73
978.075	31.63
978.24	79.68
978.406	14.19
978.571	8.38
978.736	10.32
978.902	42.29
979.067	-2.66
979.232	14
979.397	55.07
979.563	69.99
979.728	-7.7
979.893	30.27
980.058	5.67
980.223	60.5
980.388	45
980.554	32.99
980.719	27.75
980.884	25.43
981.049	66.31
981.214	20.59
981.379	65.15
981.544	29.5
981.709	29.89
981.874	29.89
982.039	27.95
982.204	59.34
982.368	44.22
982.533	12.64
982.698	48.29
982.863	82
983.028	27.17
983.193	49.45
983.357	44.61
983.522	40.35
983.687	51.2
983.852	5.86
984.016	28.72
984.181	40.54
984.346	53.72
984.51	55.27
984.675	39.96
984.839	70.38
985.004	42.09
985.168	80.65
985.333	25.62
985.498	40.35
985.662	67.08
985.827	12.45
985.991	28.34
986.155	39.38
986.32	57.59
986.484	86.65
986.649	55.27
986.813	20.97
986.977	48.29
987.142	45.39
987.306	8.38
987.47	17.87
987.634	28.72
987.799	48.68
987.963	29.3
988.127	54.49
988.291	106.8
988.455	58.95
988.62	24.07
988.784	81.42
988.948	81.23
989.112	8.38
989.276	50.04
989.44	48.49
989.604	22.14
989.768	28.14
989.932	90.53
990.096	13.03
990.26	23.69
990.424	18.45
990.588	14.39
990.752	93.63
990.915	71.15
991.079	40.15
991.243	10.51
991.407	58.17
991.571	18.84
991.734	60.3
991.898	48.1
992.062	101.38
992.226	24.65
992.389	-7.9
992.553	-27.66
992.717	47.13
992.88	27.95
993.044	50.23
993.207	14.97
993.371	37.05
993.535	66.5
993.698	29.3
993.862	45.19
994.025	92.66
994.189	45.58
994.352	53.33
994.515	27.95
994.679	91.69
994.842	18.45
995.006	41.7
995.169	11.29
995.332	21.55
995.496	67.47
995.659	0.82
995.822	34.15
995.985	28.92
996.149	63.21
996.312	28.34
996.475	54.1
996.638	35.31
996.801	61.27
996.964	95.95
997.128	22.52
997.291	45
997.454	47.32
997.617	-21.85
997.78	40.74
997.943	10.9
998.106	73.28
998.269	8.19
998.432	19.42
998.595	30.47
998.758	-14.48
998.92	-3.83
999.083	-21.85
999.246	26.79
999.409	-1.31
999.572	-19.91
999.735	25.62
999.897	45.39
1000.06	23.69
1000.223	2.76
1000.386	58.95
1000.548	50.04
1000.711	43.84
1000.874	54.69
1001.036	-0.15
1001.199	51.39
1001.361	-4.99
1001.524	6.64
1001.687	69.22
1001.849	-10.03
1002.012	37.25
1002.174	14.19
1002.337	46.35
1002.499	-8.09
1002.661	65.92
1002.824	-13.32
1002.986	-0.53
1003.149	17.49
1003.311	0.82
1003.473	72.32
1003.636	17.29
1003.798	46.94
1003.96	46.55
1004.123	39.19
1004.285	13.22
1004.447	15.55
1004.609	39.38
1004.771	63.02
1004.933	-11.96
1005.096	20.39
1005.258	-40.64
1005.42	1.6
1005.582	50.04
1005.744	40.35
1005.906	-14.1
1006.068	19.04
1006.23	-7.9
1006.392	-36.38
1006.554	-0.53
1006.716	58.56
1006.878	38.6
1007.04	-57.69
1007.202	3.73
1007.363	26.4
1007.525	37.05
1007.687	32.4
1007.849	60.11
1008.011	-24.36
1008.172	-14.87
1008.334	25.04
1008.496	45.39
1008.658	-41.8
1008.819	20.39
1008.981	-24.75
1009.143	-1.7
1009.304	13.61
1009.466	37.44
1009.627	53.14
1009.789	87.04
1009.95	32.4
1010.112	2.57
1010.273	18.84
1010.435	-1.7
1010.596	-14.1
1010.758	-0.92
1010.919	13.03
1011.081	-7.9
1011.242	9.74
1011.403	46.55
1011.565	-4.41
1011.726	31.44
1011.887	-25.72
1012.049	9.35
1012.21	14.97
1012.371	66.7
1012.532	-48
1012.693	12.25
1012.855	-27.66
1013.016	20.39
1013.177	43.64
1013.338	13.8
1013.499	56.24
1013.66	47.52
1013.821	34.54
1013.982	12.45
1014.143	8.19
1014.304	14
1014.465	28.34
1014.626	57.01
1014.787	-12.55
1014.948	83.17
1015.109	-37.93
1015.27	60.89
1015.431	-7.9
1015.592	-21.46
1015.752	41.32
1015.913	14.58
1016.074	53.52
1016.235	32.21
1016.395	-0.92
1016.556	10.32
1016.717	3.54
1016.877	52.36
1017.038	6.05
1017.199	38.02
1017.359	20.39
1017.52	30.27
1017.681	-5.18
1017.841	36.09
1018.002	19.04
1018.162	-17.78
1018.323	33.18
1018.483	7.22
1018.644	19.42
1018.804	-5.18
1018.964	-10.03
1019.125	1.79
1019.285	29.3
1019.446	-26.69
1019.606	-13.71
1019.766	-37.73
1019.926	34.15
1020.087	6.83
1020.247	-27.08
1020.407	26.98
1020.567	49.26
1020.728	-6.54
1020.888	-22.23
1021.048	-2.08
1021.208	-33.08
1021.368	-17.2
1021.528	46.94
1021.688	33.18
1021.848	35.5
1022.008	32.4
1022.168	-12.74
1022.328	-9.25
1022.488	-4.41
1022.648	-4.02
1022.808	27.95
1022.968	21.36
1023.128	7.02
1023.288	-18.94
1023.448	1.6
1023.608	14
1023.767	12.25
1023.927	-13.71
1024.087	-11
1024.247	-30.18
1024.406	25.62
1024.566	-42.38
1024.726	-17.2
1024.885	13.61
1025.045	32.4
1025.205	-8.48
1025.364	-22.43
1025.524	0.63
1025.683	-3.63
1025.843	-9.06
1026.003	14.39
1026.162	66.12
1026.321	32.6
1026.481	-0.15
1026.64	-1.31
1026.8	0.82
1026.959	29.11
1027.119	15.16
1027.278	1.79
1027.437	-25.33
1027.597	6.83
1027.756	16.9
1027.915	27.37
1028.074	39.57
1028.234	-29.21
1028.393	10.12
1028.552	13.22
1028.711	-69.89
1028.87	45.39
1029.03	-4.6
1029.189	-16.03
1029.348	-35.41
1029.507	-16.42
1029.666	-3.05
1029.825	-28.43
1029.984	-18.75
1030.143	31.05
1030.302	5.09
1030.461	-57.49
1030.62	-4.41
1030.779	29.69
1030.938	-16.42
1031.097	-21.46
1031.255	27.95
1031.414	46.16
1031.573	34.34
1031.732	-42.96
1031.891	-23.78
1032.049	36.86
1032.208	23.3
1032.367	-10.41
1032.525	-13.13
1032.684	-15.45
1032.843	-9.06
1033.001	-41.22
1033.16	117.65
1033.319	69.02
1033.477	32.21
1033.636	-4.99
1033.794	-38.12
1033.953	31.82
1034.111	47.13
1034.27	-0.15
1034.428	1.21
1034.587	-20.49
1034.745	7.99
1034.903	0.24
1035.062	-2.28
1035.22	-42.19
1035.378	33.95
1035.537	-19.13
1035.695	31.05
1035.853	-7.12
1036.011	28.34
1036.17	13.61
1036.328	-77.26
1036.486	17.29
1036.644	21.17
1036.802	-64.08
1036.96	-26.88
1037.119	10.32
1037.277	-2.47
1037.435	-18.16
1037.593	-12.93
1037.751	15.94
1037.909	22.91
1038.067	22.91
