Data from oakcork_FLMT105791__286__17-34-32-052.txt Node

Date: Mon Mar 20 17:34:32 GMT 2023
User: antho
Spectrometer: FLMT10579
Trigger mode: 0
Integration Time (sec): 1.000000E-1
Scans to average: 10
Electric dark correction enabled: true
Nonlinearity correction enabled: false
Boxcar width: 0
XAxis mode: Wavelengths
Number of Pixels in Spectrum: 3648
>>>>>Begin Spectral Data<<<<<
345.248	-135.41
345.464	-135.41
345.681	-135.41
345.898	-161.96
346.114	-131.54
346.331	-21.3
346.548	2.92
346.764	13.58
346.981	36.44
347.197	-7.73
347.414	-4.63
347.631	-19.94
347.847	30.82
348.064	-3.47
348.28	23.07
348.497	-36.8
348.713	-12.96
348.93	31.98
349.146	18.62
349.363	-12
349.579	11.25
349.796	-6.57
350.012	8.15
350.229	13.97
350.445	-11.03
350.661	-34.66
350.878	-5.02
351.094	37.8
351.311	22.3
351.527	14.55
351.743	-32.92
351.96	34.31
352.176	25.59
352.392	13.38
352.609	42.83
352.825	-8.9
353.041	13.19
353.257	1.76
353.474	13.77
353.69	14.74
353.906	33.73
354.122	-13.74
354.339	49.42
354.555	22.49
354.771	-18.58
354.987	31.4
355.203	58.72
355.42	-13.35
355.636	-27.11
355.852	-14.71
356.068	4.67
356.284	-26.53
356.5	24.62
356.716	12.42
356.932	-5.6
357.148	20.36
357.364	2.34
357.58	31.02
357.796	73.83
358.012	34.5
358.228	23.07
358.444	-51.91
358.66	47.87
358.876	33.73
359.092	0.6
359.308	12.03
359.524	21.13
359.74	4.47
359.956	-12.96
360.172	17.26
360.388	43.03
360.604	13.77
360.819	83.13
361.035	18.03
361.251	33.15
361.467	-6.18
361.683	20.94
361.898	-3.08
362.114	33.34
362.33	9.51
362.546	35.28
362.762	-3.47
362.977	30.82
363.193	-28.08
363.409	21.52
363.624	-21.1
363.84	-15.68
364.056	-1.73
364.271	14.16
364.487	3.5
364.703	-18.78
364.918	-49.58
365.134	-14.13
365.35	0.02
365.565	101.93
365.781	18.81
365.996	30.24
366.212	70.73
366.427	24.62
366.643	4.08
366.858	25.59
367.074	-14.9
367.289	47.68
367.505	78.29
367.72	-27.5
367.936	0.6
368.151	61.05
368.367	14.35
368.582	13.19
368.798	-20.91
369.013	55.43
369.228	7.96
369.444	15.52
369.659	41.67
369.874	19.97
370.09	76.16
370.305	-53.46
370.52	5.83
370.736	39.93
370.951	-1.34
371.166	46.13
371.381	90.11
371.597	19.58
371.812	-11.22
372.027	-17.23
372.242	16.29
372.458	73.06
372.673	-3.28
372.888	-10.25
373.103	19.39
373.318	103.67
373.533	6.8
373.749	12.8
373.964	-18
374.179	38.77
374.394	6.8
374.609	51.17
374.824	-15.29
375.039	44.77
375.254	-10.64
375.469	58.33
375.684	24.23
375.899	36.83
376.114	14.55
376.329	3.5
376.544	53.88
376.759	43.03
376.974	-4.44
377.189	12.61
377.404	29.85
377.619	31.98
377.834	-49.78
378.049	-28.27
378.264	-5.41
378.478	22.49
378.693	-8.51
378.908	18.81
379.123	-8.31
379.338	50.97
379.553	-0.18
379.767	19.78
379.982	33.15
380.197	34.89
380.412	22.88
380.626	26.95
380.841	70.15
381.056	22.3
381.271	59.3
381.485	14.93
381.7	-9.09
381.915	0.6
382.129	8.15
382.344	-2.31
382.559	22.1
382.773	54.27
382.988	-40.86
383.202	46.32
383.417	4.28
383.632	91.66
383.846	25.4
384.061	44.77
384.275	1.57
384.49	11.83
384.704	38.77
384.919	45.55
385.133	13.97
385.348	28.3
385.562	17.45
385.777	42.06
385.991	-6.77
386.206	-6.38
386.42	-7.35
386.634	52.91
386.849	24.62
387.063	19.97
387.277	-33.89
387.492	22.49
387.706	-20.71
387.92	15.71
388.135	68.99
388.349	34.12
388.563	26.37
388.778	33.15
388.992	50.58
389.206	29.08
389.42	79.26
389.635	18.42
389.849	34.31
390.063	49.23
390.277	32.37
390.491	72.67
390.706	24.62
390.92	73.45
391.134	14.16
391.348	45.74
391.562	-9.67
391.776	15.71
391.99	13.58
392.205	31.98
392.419	25.98
392.633	27.53
392.847	69.77
393.061	-2.12
393.275	58.33
393.489	20.36
393.703	34.7
393.917	43.03
394.131	0.02
394.345	48.84
394.559	43.22
394.773	8.73
394.986	55.82
395.2	27.14
395.414	47.48
395.628	-14.32
395.842	42.25
396.056	19.97
396.27	-26.53
396.484	23.65
396.697	26.37
396.911	49.42
397.125	50.58
397.339	55.82
397.553	48.65
397.766	106.38
397.98	47.87
398.194	72.67
398.408	25.2
398.621	63.76
398.835	43.61
399.049	36.25
399.262	77.71
399.476	78.87
399.69	63.18
399.903	109.1
400.117	46.52
400.331	67.05
400.544	18.62
400.758	153.08
400.971	37.02
401.185	53.49
401.398	22.68
401.612	66.67
401.826	53.68
402.039	68.99
402.253	16.29
402.466	55.82
402.68	40.51
402.893	45.35
403.106	50.58
403.32	36.44
403.533	42.25
403.747	75.38
403.96	25.59
404.174	64.73
404.387	-0.95
404.6	69.77
404.814	77.32
405.027	58.92
405.24	39.35
405.454	44.97
405.667	95.15
405.88	-4.25
406.094	69.96
406.307	69.96
406.52	69.57
406.733	20.75
406.947	-17.81
407.16	138.55
407.373	89.33
407.586	41.87
407.799	39.35
408.012	53.68
408.226	48.45
408.439	108.13
408.652	-0.76
408.865	64.73
409.078	89.14
409.291	81.78
409.504	25.78
409.717	62.98
409.93	70.73
410.143	52.91
410.357	21.91
410.57	20.36
410.783	30.43
410.996	65.5
411.209	43.22
411.421	99.6
411.634	37.02
411.847	47.68
412.06	55.04
412.273	74.03
412.486	36.44
412.699	134.48
412.912	46.52
413.125	66.86
413.338	61.05
413.55	85.65
413.763	33.73
413.976	70.15
414.189	35.08
414.402	33.53
414.615	113.75
414.827	22.1
415.04	76.35
415.253	53.88
415.466	93.79
415.678	111.42
415.891	53.1
416.104	53.68
416.316	54.85
416.529	39.73
416.742	55.82
416.954	97.86
417.167	56.2
417.38	62.4
417.592	96.5
417.805	7.18
418.017	9.12
418.23	78.29
418.442	54.46
418.655	74.22
418.868	90.11
419.08	90.88
419.293	70.73
419.505	43.61
419.718	73.83
419.93	74.61
420.142	46.13
420.355	88.95
420.567	119.36
420.78	75.77
420.992	55.04
421.205	111.81
421.417	44
421.629	43.42
421.842	27.72
422.054	6.99
422.266	69.96
422.479	81.2
422.691	39.73
422.903	90.3
423.115	19.78
423.328	54.65
423.54	62.98
423.752	78.68
423.964	49.23
424.177	65.12
424.389	61.63
424.601	139.13
424.813	52.52
425.025	83.71
425.238	67.25
425.45	76.55
425.662	62.6
425.874	326.87
426.086	77.9
426.298	105.8
426.51	86.81
426.722	68.02
426.934	66.47
427.146	102.31
427.358	69.96
427.57	106
427.782	71.12
427.994	79.65
428.206	54.46
428.418	24.04
428.63	103.86
428.842	110.26
429.054	85.26
429.266	84.1
429.478	50.2
429.69	70.15
429.902	9.51
430.114	91.46
430.325	79.65
430.537	34.12
430.749	54.07
430.961	18.81
431.173	72.67
431.384	93.21
431.596	-5.22
431.808	45.74
432.02	83.33
432.231	87.98
432.443	106.38
432.655	91.08
432.867	35.67
433.078	77.32
433.29	111.42
433.502	108.51
433.713	112.39
433.925	71.32
434.136	119.75
434.348	45.74
434.56	40.9
434.771	165.67
434.983	25.01
435.194	70.35
435.406	54.46
435.617	122.08
435.829	119.17
436.04	93.79
436.252	115.49
436.463	119.56
436.675	109.87
436.886	89.33
437.098	106.77
437.309	130.99
437.521	87.2
437.732	105.41
437.943	95.53
438.155	96.89
438.366	57.95
438.578	121.88
438.789	85.65
439	102.7
439.211	105.61
439.423	111.03
439.634	109.1
439.845	132.54
440.057	88.36
440.268	109.87
440.479	74.03
440.69	120.33
440.902	50.78
441.113	80.23
441.324	84.68
441.535	92.43
441.746	141.45
441.957	68.41
442.168	80.03
442.38	124.21
442.591	114.91
442.802	92.24
443.013	91.66
443.224	92.24
443.435	91.46
443.646	67.25
443.857	101.93
444.068	66.47
444.279	62.98
444.49	153.27
444.701	99.8
444.912	178.65
445.123	121.3
445.334	138.55
445.545	105.61
445.756	91.85
445.967	74.42
446.178	122.66
446.388	147.26
446.599	141.06
446.81	120.53
447.021	60.27
447.232	147.65
447.443	150.56
447.653	89.53
447.864	153.66
448.075	83.33
448.286	121.69
448.496	130.6
448.707	145.13
448.918	106.96
449.129	176.13
449.339	64.34
449.55	117.23
449.761	86.62
449.971	149.59
450.182	104.45
450.393	124.01
450.603	80.81
450.814	127.89
451.024	124.79
451.235	132.54
451.446	163.35
451.656	164.9
451.867	114.71
452.077	132.35
452.288	172.26
452.498	166.83
452.709	116.07
452.919	130.99
453.13	101.73
453.34	135.06
453.55	69.77
453.761	151.72
453.971	130.8
454.182	132.73
454.392	143.78
454.602	184.46
454.813	107.74
455.023	176.52
455.233	99.02
455.444	142.81
455.654	76.35
455.864	113.75
456.075	125.37
456.285	120.72
456.495	113.55
456.705	169.35
456.916	160.44
457.126	171.09
457.336	134.09
457.546	48.65
457.756	85.65
457.967	184.46
458.177	118.98
458.387	107.35
458.597	98.05
458.807	115.68
459.017	129.25
459.227	133.12
459.437	111.81
459.647	161.8
459.857	168.38
460.068	105.22
460.278	166.06
460.488	156.56
460.698	185.63
460.908	120.72
461.117	102.9
461.327	106.77
461.537	150.17
461.747	150.17
461.957	135.64
462.167	252.86
462.377	140.87
462.587	151.91
462.797	147.46
463.007	138.74
463.216	171.29
463.426	182.72
463.636	166.45
463.846	119.17
464.056	112
464.265	197.25
464.475	108.13
464.685	148.04
464.895	145.71
465.104	144.75
465.314	184.66
465.524	121.3
465.733	112.58
465.943	190.08
466.153	192.6
466.362	141.84
466.572	165.28
466.782	149.2
466.991	147.26
467.201	203.45
467.41	96.11
467.62	174.19
467.829	122.46
468.039	152.3
468.249	154.82
468.458	141.65
468.668	159.47
468.877	181.94
469.086	195.89
469.296	189.5
469.505	131.76
469.715	239.29
469.924	171.09
470.134	215.85
470.343	208.49
470.552	139.13
470.762	153.46
470.971	142.42
471.18	170.51
471.39	180.2
471.599	122.08
471.808	208.68
472.018	132.15
472.227	195.12
472.436	199.96
472.645	144.55
472.855	139.13
473.064	214.11
473.273	174.97
473.482	192.6
473.691	231.74
473.901	204.03
474.11	147.85
474.319	268.16
474.528	184.66
474.737	203.84
474.946	199.77
475.155	217.98
475.364	223.21
475.573	192.41
475.783	179.81
475.992	204.61
476.201	242.78
476.41	176.13
476.619	152.3
476.828	205.97
477.037	162.18
477.245	172.84
477.454	210.62
477.663	185.04
477.872	192.02
478.081	235.23
478.29	164.9
478.499	262.35
478.708	198.22
478.917	244.14
479.125	209.26
479.334	207.13
479.543	170.32
479.752	223.99
479.961	198.8
480.169	250.34
480.378	206.36
480.587	298.77
480.796	239.88
481.004	207.52
481.213	226.7
481.422	228.64
481.63	194.15
481.839	255.37
482.048	277.85
482.256	228.64
482.465	216.04
482.674	250.14
482.882	256.54
483.091	267.19
483.299	250.92
483.508	271.07
483.716	218.95
483.925	238.71
484.134	195.89
484.342	215.85
484.551	273.39
484.759	253.24
484.967	262.16
485.176	259.64
485.384	248.4
485.593	292.19
485.801	260.8
486.01	250.34
486.218	256.34
486.426	207.33
486.635	260.02
486.843	243.75
487.051	232.32
487.26	214.88
487.468	272.04
487.676	276.69
487.885	209.65
488.093	271.07
488.301	264.48
488.509	270.68
488.717	290.25
488.926	267.77
489.134	231.16
489.342	256.15
489.55	236.19
489.758	258.28
489.967	231.93
490.175	340.04
490.383	262.35
490.591	314.27
490.799	252.08
491.007	304.97
491.215	260.41
491.423	247.43
491.631	261.77
491.839	274.56
492.047	317.76
492.255	239.29
492.463	215.66
492.671	276.49
492.879	284.63
493.087	264.09
493.295	281.53
493.503	315.24
493.711	320.47
493.919	301.87
494.127	319.89
494.334	327.84
494.542	260.99
494.75	300.32
494.958	281.92
495.166	328.42
495.374	288.31
495.581	287.92
495.789	298.39
495.997	331.71
496.205	302.07
496.412	271.84
496.62	272.23
496.828	318.15
497.035	306.52
497.243	346.24
497.451	326.67
497.658	317.37
497.866	314.27
498.074	358.45
498.281	298.19
498.489	390.42
498.696	326.29
498.904	299.55
499.112	292.77
499.319	368.72
499.527	286.57
499.734	318.92
499.942	235.61
500.149	324.54
500.357	275.33
500.564	279.01
500.771	295.87
500.979	278.04
501.186	279.21
501.394	302.07
501.601	325.32
501.808	318.54
502.016	280.56
502.223	287.54
502.43	275.72
502.638	303.42
502.845	268.74
503.052	347.79
503.26	267
503.467	351.67
503.674	296.84
503.881	327.64
504.089	408.63
504.296	354.38
504.503	267.19
504.71	336.36
504.917	277.66
505.125	310.01
505.332	281.72
505.539	358.06
505.746	384.6
505.953	340.24
506.16	322.02
506.367	359.8
506.574	365.23
506.781	371.43
506.988	288.51
507.195	349.92
507.402	335.01
507.609	378.21
507.816	329.39
508.023	347.99
508.23	364.07
508.437	325.32
508.644	335.59
508.851	393.52
509.058	356.9
509.265	363.29
509.472	345.27
509.679	400.88
509.885	355.35
510.092	342.75
510.299	352.83
510.506	360.77
510.713	360.39
510.92	371.24
511.126	359.42
511.333	391.58
511.54	368.52
511.746	399.33
511.953	402.24
512.16	379.18
512.367	361.16
512.573	360.58
512.78	370.27
512.987	379.95
513.193	378.6
513.4	308.46
513.606	363.29
513.813	362.13
514.02	385.77
514.226	424.9
514.433	427.23
514.639	330.36
514.846	372.01
515.052	351.86
515.259	381.89
515.465	386.54
515.672	378.4
515.878	471.02
516.085	363.87
516.291	439.43
516.497	360.97
516.704	376.08
516.91	358.25
517.117	346.24
517.323	314.27
517.529	360.19
517.736	358.25
517.942	386.54
518.148	353.02
518.354	388.87
518.561	387.32
518.767	390.22
518.973	396.04
519.179	413.47
519.386	349.73
519.592	362.52
519.798	375.11
520.004	446.22
520.21	379.95
520.417	413.86
520.623	458.23
520.829	431.1
521.035	425.49
521.241	407.47
521.447	443.12
521.653	503.76
521.859	405.92
522.065	400.69
522.271	530.88
522.477	423.74
522.683	493.49
522.889	463.85
523.095	440.6
523.301	427.81
523.507	433.04
523.713	474.5
523.919	435.75
524.125	488.84
524.331	411.54
524.537	525.46
524.742	506.47
524.948	507.25
525.154	504.15
525.36	554.91
525.566	484.38
525.772	508.02
525.977	434.78
526.183	506.47
526.389	535.92
526.595	471.79
526.8	472.76
527.006	446.8
527.212	427.23
527.417	432.46
527.623	430.33
527.829	479.15
528.034	469.08
528.24	477.6
528.446	462.49
528.651	516.55
528.857	515.58
529.062	553.55
529.268	462.88
529.473	516.16
529.679	516.93
529.884	566.53
530.09	527.01
530.295	564.21
530.501	539.8
530.706	546.77
530.912	494.85
531.117	519.84
531.323	530.11
531.528	558.78
531.733	567.7
531.939	515
532.144	589.98
532.35	545.22
532.555	567.11
532.76	557.23
532.966	553.36
533.171	571.38
533.376	536.7
533.581	489.81
533.787	554.33
533.992	565.18
534.197	593.08
534.402	543.09
534.607	565.76
534.813	627.37
535.018	531.66
535.223	530.88
535.428	556.07
535.633	584.94
535.838	589.01
536.043	522.36
536.249	644.23
536.454	558.01
536.659	556.65
536.864	543.28
537.069	547.74
537.274	597.34
537.479	575.83
537.684	577.77
537.889	553.75
538.094	659.14
538.299	596.76
538.504	594.24
538.708	573.31
538.913	597.53
539.118	563.63
539.323	606.64
539.528	571.76
539.733	593.66
539.938	603.35
540.142	634.54
540.347	571.18
540.552	568.47
540.757	587.07
540.962	608.77
541.166	527.2
541.371	554.71
541.576	598.5
541.781	495.23
541.985	559.17
542.19	579.51
542.395	623.3
542.599	646.36
542.804	609.93
543.008	648.1
543.213	552.39
543.418	546.38
543.622	616.52
543.827	556.46
544.031	641.51
544.236	667.48
544.44	581.84
544.645	683.94
544.849	624.27
545.054	613.81
545.258	683.75
545.463	675.03
545.667	605.09
545.872	607.8
546.076	612.06
546.281	621.36
546.485	601.99
546.689	621.56
546.894	645.39
547.098	626.59
547.302	581.45
547.507	611.09
547.711	612.45
547.915	659.53
548.119	588.43
548.324	606.64
548.528	681.81
548.732	612.84
548.936	637.25
549.141	669.03
549.345	603.54
549.549	604.31
549.753	617.1
549.957	689.37
550.161	656.63
550.366	625.04
550.57	579.9
550.774	619.23
550.978	585.52
551.182	643.84
551.386	623.49
551.59	608.96
551.794	638.41
551.998	625.63
552.202	591.53
552.406	572.93
552.61	619.43
552.814	604.89
553.018	734.12
553.222	604.89
553.426	591.72
553.63	685.49
553.833	589.01
554.037	562.27
554.241	657.21
554.445	616.71
554.649	632.79
554.853	600.44
555.056	658.56
555.26	638.8
555.464	632.41
555.668	623.49
555.871	654.88
556.075	662.44
556.279	607.61
556.483	565.18
556.686	658.37
556.89	618.46
557.094	666.89
557.297	569.44
557.501	674.64
557.704	563.24
557.908	653.72
558.112	599.66
558.315	673.09
558.519	592.11
558.722	601.02
558.926	604.7
559.129	604.51
559.333	570.99
559.536	570.02
559.74	563.63
559.943	565.56
560.147	553.16
560.35	584.16
560.553	568.28
560.757	522.75
560.96	636.86
561.164	569.05
561.367	634.73
561.57	561.69
561.774	604.31
561.977	566.92
562.18	561.69
562.384	658.56
562.587	612.84
562.79	560.14
562.993	593.66
563.197	601.21
563.4	661.28
563.603	629.69
563.806	672.13
564.009	567.5
564.212	600.83
564.416	537.86
564.619	611.68
564.822	542.12
565.025	599.86
565.228	574.09
565.431	572.35
565.634	509.18
565.837	547.93
566.04	511.12
566.243	557.62
566.446	493.68
566.649	575.06
566.852	486.71
567.055	533.79
567.258	559.56
567.461	599.66
567.664	571.57
567.867	522.36
568.07	553.75
568.273	538.63
568.475	618.46
568.678	524.49
568.881	537.28
569.084	535.15
569.287	460.17
569.489	501.43
569.692	564.6
569.895	543.67
570.098	473.15
570.3	481.87
570.503	444.47
570.706	474.7
570.909	469.66
571.111	464.62
571.314	447.96
571.516	491.17
571.719	493.3
571.922	491.94
572.124	478.38
572.327	513.06
572.529	420.64
572.732	467.33
572.935	504.15
573.137	542.31
573.34	467.92
573.542	513.83
573.745	481.28
573.947	509.77
574.15	472.37
574.352	460.55
574.554	497.95
574.757	464.82
574.959	455.71
575.162	463.85
575.364	456.68
575.566	553.75
575.769	471.98
575.971	469.47
576.173	398.36
576.376	462.1
576.578	485.55
576.78	533.21
576.982	396.04
577.185	424.52
577.387	411.15
577.589	428.59
577.791	466.37
577.993	487.87
578.196	425.68
578.398	471.21
578.6	510.73
578.802	409.79
579.004	402.82
579.206	426.07
579.408	440.79
579.61	424.71
579.812	480.12
580.014	444.08
580.216	437.88
580.418	416.96
580.62	409.99
580.822	376.08
581.024	419.09
581.226	468.5
581.428	448.15
581.63	489.23
581.832	413.47
582.034	487.48
582.236	450.28
582.438	450.67
582.64	467.92
582.841	503.95
583.043	501.05
583.245	453.77
583.447	482.25
583.649	429.55
583.85	433.23
584.052	466.37
584.254	399.33
584.456	501.24
584.657	377.82
584.859	456.87
585.061	431.3
585.262	423.74
585.464	414.44
585.666	470.43
585.867	392.16
586.069	474.31
586.27	432.85
586.472	461.33
586.674	424.9
586.875	418.12
587.077	428.78
587.278	444.28
587.48	412.31
587.681	517.13
587.883	457.26
588.084	402.82
588.285	422.39
588.487	391.39
588.688	455.32
588.89	372.59
589.091	362.52
589.292	418.32
589.494	381.12
589.695	377.24
589.896	339.27
590.098	334.81
590.299	383.83
590.5	357.09
590.702	349.92
590.903	378.4
591.104	425.68
591.305	392.55
591.507	428.97
591.708	411.15
591.909	385.19
592.11	464.23
592.311	415.99
592.512	386.15
592.714	375.69
592.915	371.62
593.116	375.69
593.317	382.67
593.518	391.97
593.719	383.83
593.92	395.65
594.121	422.39
594.322	352.25
594.523	409.79
594.724	342.56
594.925	392.55
595.126	424.71
595.327	380.15
595.528	395.65
595.729	385.96
595.929	380.34
596.13	389.64
596.331	387.12
596.532	408.05
596.733	417.54
596.934	406.3
597.135	408.63
597.335	430.33
597.536	371.62
597.737	403.4
597.938	407.08
598.138	415.8
598.339	364.84
598.54	390.03
598.74	370.65
598.941	418.7
599.142	398.36
599.342	391.77
599.543	370.65
599.744	367.36
599.944	398.36
600.145	390.22
600.345	409.79
600.546	436.14
600.746	435.56
600.947	452.8
601.147	392.55
601.348	437.69
601.548	337.72
601.749	390.61
601.949	362.13
602.15	335.78
602.35	402.62
602.551	444.08
602.751	352.44
602.951	374.34
603.152	343.14
603.352	401.07
603.552	353.99
603.753	411.34
603.953	398.75
604.153	377.44
604.354	366.2
604.554	381.12
604.754	404.37
604.954	326.87
605.155	397.59
605.355	361.94
605.555	422.97
605.755	426.84
605.955	396.04
606.155	417.74
606.356	382.47
606.556	409.99
606.756	393.71
606.956	340.43
607.156	431.68
607.356	362.71
607.556	398.55
607.756	385.77
607.956	423.74
608.156	406.11
608.356	342.56
608.556	426.84
608.756	401.65
608.956	352.44
609.156	373.37
609.356	345.47
609.556	342.37
609.755	366
609.955	377.44
610.155	390.03
610.355	384.02
610.555	347.4
610.755	356.32
610.954	315.05
611.154	354.19
611.354	399.33
611.554	310.79
611.753	354.19
611.953	321.64
612.153	377.63
612.352	377.24
612.552	318.34
612.752	318.73
612.951	351.09
613.151	356.7
613.351	324.93
613.55	364.65
613.75	368.52
613.949	386.74
614.149	366.97
614.348	383.83
614.548	313.5
614.747	315.63
614.947	337.33
615.146	308.07
615.346	369.69
615.545	344.69
615.745	369.3
615.944	365.42
616.144	350.31
616.343	379.95
616.542	298.58
616.742	332.29
616.941	345.08
617.14	301.87
617.34	348.57
617.539	352.64
617.738	330.16
617.938	403.4
618.137	338.11
618.336	269.91
618.535	372.01
618.734	321.44
618.934	351.09
619.133	336.17
619.332	369.69
619.531	324.74
619.73	323.77
619.929	346.82
620.128	338.69
620.328	358.45
620.527	330.74
620.726	317.96
620.925	317.18
621.124	307.88
621.323	368.91
621.522	303.23
621.721	268.16
621.92	276.11
622.119	344.11
622.318	291.99
622.517	306.33
622.715	302.84
622.914	280.56
623.113	315.05
623.312	279.21
623.511	343.92
623.71	300.91
623.909	299.55
624.107	341.4
624.306	275.14
624.505	279.4
624.704	307.11
624.902	288.89
625.101	363.29
625.3	310.59
625.499	289.47
625.697	262.54
625.896	279.01
626.095	302.84
626.293	257.12
626.492	287.34
626.69	318.34
626.889	298
627.088	345.47
627.286	245.88
627.485	270.68
627.683	296.06
627.882	311.76
628.08	242.39
628.279	280.76
628.477	341.21
628.676	281.53
628.874	315.05
629.073	262.93
629.271	247.82
629.469	322.22
629.668	289.86
629.866	300.91
630.065	266.61
630.263	297.42
630.461	278.04
630.66	267.77
630.858	323.77
631.056	320.47
631.254	317.18
631.453	246.08
631.651	312.72
631.849	293.93
632.047	296.26
632.245	287.92
632.444	333.65
632.642	301.29
632.84	309.24
633.038	264.29
633.236	276.88
633.434	246.46
633.632	253.44
633.83	248.98
634.028	321.44
634.227	280.56
634.425	339.27
634.623	278.04
634.821	304.59
635.019	230.19
635.216	266.61
635.414	319.89
635.612	259.83
635.81	247.43
636.008	336.75
636.206	286.76
636.404	297.81
636.602	265.84
636.8	296.64
636.997	290.64
637.195	308.85
637.393	289.86
637.591	335.2
637.789	307.69
637.986	272.42
638.184	283.66
638.382	343.53
638.58	322.8
638.777	351.09
638.975	292.96
639.173	295.29
639.37	303.23
639.568	300.91
639.765	326.48
639.963	286.57
640.161	340.04
640.358	306.72
640.556	245.49
640.753	252.28
640.951	265.84
641.148	302.84
641.346	247.43
641.543	281.72
641.741	298.97
641.938	245.69
642.136	281.72
642.333	241.04
642.531	305.36
642.728	318.34
642.925	289.47
643.123	277.46
643.32	302.84
643.517	260.41
643.715	286.18
643.912	273.01
644.109	270.68
644.306	254.21
644.504	243.75
644.701	271.65
644.898	324.35
645.095	250.14
645.293	289.28
645.49	318.92
645.687	278.82
645.884	323.57
646.081	219.73
646.278	246.27
646.475	227.09
646.672	265.64
646.87	286.37
647.067	273.39
647.264	276.3
647.461	237.16
647.658	219.34
647.855	293.35
648.052	264.09
648.249	219.73
648.446	250.92
648.642	233.87
648.839	251.31
649.036	243.56
649.233	220.5
649.43	210.62
649.627	206.36
649.824	231.35
650.021	227.86
650.217	213.33
650.414	229.41
650.611	249.56
650.808	259.64
651.004	218.37
651.201	250.53
651.398	288.12
651.595	256.73
651.791	230.58
651.988	256.73
652.185	221.66
652.381	244.72
652.578	204.23
652.775	227.28
652.971	197.25
653.168	219.92
653.364	254.6
653.561	197.44
653.757	205
653.954	249.18
654.15	186.01
654.347	267.58
654.543	238.33
654.74	184.46
654.936	185.24
655.133	250.53
655.329	230.77
655.525	229.22
655.722	267.97
655.918	226.31
656.115	239.29
656.311	187.18
656.507	181.17
656.704	172.26
656.9	203.26
657.096	174.19
657.292	177.29
657.489	231.93
657.685	223.79
657.881	186.21
658.077	227.67
658.273	208.1
658.47	292.77
658.666	166.06
658.862	246.08
659.058	179.81
659.254	223.79
659.45	176.91
659.646	217.98
659.842	221.47
660.038	237.94
660.234	195.89
660.43	215.85
660.626	252.86
660.822	271.07
661.018	215.08
661.214	204.42
661.41	195.31
661.606	225.93
661.802	229.8
661.998	230.19
662.194	172.45
662.39	229.03
662.586	217.21
662.781	240.26
662.977	257.31
663.173	273.59
663.369	243.56
663.564	238.71
663.76	248.98
663.956	228.44
664.152	256.54
664.347	194.73
664.543	253.05
664.739	200.54
664.934	173.42
665.13	143
665.326	225.54
665.521	237.16
665.717	166.83
665.912	164.7
666.108	170.32
666.304	191.05
666.499	208.88
666.695	166.64
666.89	207.13
667.086	224.38
667.281	232.51
667.477	263.32
667.672	234.64
667.867	218.56
668.063	238.91
668.258	165.09
668.454	210.04
668.649	286.37
668.844	224.57
669.04	216.04
669.235	198.03
669.43	202.29
669.626	183.11
669.821	169.93
670.016	169.54
670.211	210.81
670.407	191.63
670.602	204.42
670.797	210.04
670.992	247.04
671.187	180.39
671.382	192.21
671.578	202.68
671.773	208.88
671.968	166.45
672.163	218.18
672.358	201.9
672.553	197.44
672.748	178.65
672.943	271.07
673.138	205.58
673.333	222.63
673.528	199.58
673.723	222.24
673.918	191.05
674.113	156.37
674.308	266.42
674.503	229.61
674.698	222.83
674.892	208.1
675.087	237.55
675.282	218.18
675.477	180.59
675.672	219.34
675.867	174.19
676.061	165.28
676.256	154.43
676.451	169.35
676.646	186.4
676.84	170.13
677.035	161.6
677.23	170.32
677.424	198.03
677.619	205.19
677.814	222.63
678.008	207.33
678.203	138.55
678.397	162.57
678.592	197.64
678.787	238.13
678.981	159.86
679.176	205.97
679.37	182.72
679.565	172.45
679.759	170.13
679.954	213.14
680.148	249.37
680.342	240.46
680.537	228.44
680.731	194.73
680.926	209.84
681.12	212.17
681.314	154.24
681.509	182.33
681.703	195.31
681.897	233.87
682.092	180.98
682.286	147.26
682.48	228.64
682.674	211.59
682.869	185.63
683.063	193.76
683.257	244.14
683.451	169.93
683.645	217.4
683.839	178.46
684.034	216.82
684.228	235.03
684.422	178.07
684.616	178.46
684.81	195.89
685.004	196.86
685.198	184.85
685.392	206.55
685.586	166.06
685.78	189.5
685.974	216.04
686.168	214.88
686.362	254.02
686.556	189.89
686.75	174.19
686.944	197.25
687.138	223.6
687.331	148.04
687.525	189.89
687.719	117.62
687.913	155.79
688.107	173.03
688.301	141.45
688.494	190.08
688.688	140.29
688.882	116.26
689.076	130.21
689.269	149.4
689.463	226.12
689.657	123.05
689.85	154.43
690.044	184.85
690.238	177.68
690.431	162.38
690.625	132.35
690.818	178.07
691.012	182.53
691.205	190.08
691.399	143
691.593	192.02
691.786	187.18
691.98	214.49
692.173	226.7
692.366	205.19
692.56	207.52
692.753	271.84
692.947	177.29
693.14	224.38
693.333	235.81
693.527	155.6
693.72	227.67
693.914	193.57
694.107	218.18
694.3	200.54
694.493	210.81
694.687	220.31
694.88	181.56
695.073	248.01
695.266	232.9
695.46	203.84
695.653	250.53
695.846	236.97
696.039	166.06
696.232	189.31
696.425	248.59
696.618	234.26
696.812	238.33
697.005	281.53
697.198	337.14
697.391	239.68
697.584	277.46
697.777	302.26
697.97	276.49
698.163	313.11
698.356	298.58
698.549	377.05
698.742	295.09
698.935	268.36
699.127	336.75
699.32	283.27
699.513	293.93
699.706	307.88
699.899	335.39
700.092	281.14
700.285	324.93
700.477	272.04
700.67	295.67
700.863	310.79
701.056	408.63
701.248	372.01
701.441	347.79
701.634	298.19
701.826	400.88
702.019	297.61
702.212	398.36
702.404	316.21
702.597	315.63
702.79	331.91
702.982	369.49
703.175	400.3
703.367	365.81
703.56	413.28
703.752	447.18
703.945	419.87
704.137	429.94
704.33	426.65
704.522	421.22
704.715	421.42
704.907	437.69
705.1	444.67
705.292	442.73
705.484	426.26
705.677	466.37
705.869	468.11
706.061	492.72
706.254	522.16
706.446	472.57
706.638	454.74
706.831	513.64
707.023	471.02
707.215	526.04
707.407	538.05
707.599	516.74
707.792	531.27
707.984	526.62
708.176	571.38
708.368	497.56
708.56	530.5
708.752	544.64
708.944	516.55
709.136	581.06
709.329	549.29
709.521	663.41
709.713	604.7
709.905	593.27
710.097	629.89
710.289	557.04
710.481	597.92
710.672	604.31
710.864	592.88
711.056	663.02
711.248	665.73
711.44	647.52
711.632	652.56
711.824	657.59
712.016	709.32
712.207	669.41
712.399	713.39
712.591	725.02
712.783	682.78
712.975	720.37
713.166	677.74
713.358	699.64
713.55	754.86
713.741	750.98
713.933	734.32
714.125	736.06
714.316	712.81
714.508	799.03
714.7	802.9
714.891	787.02
715.083	835.26
715.274	790.12
715.466	777.14
715.657	822.28
715.849	736.64
716.04	742.84
716.232	739.94
716.423	805.42
716.615	747.88
716.806	771.32
716.998	700.02
717.189	711.07
717.381	664.96
717.572	649.26
717.763	723.08
717.955	700.61
718.146	672.13
718.337	598.11
718.528	630.28
718.72	616.13
718.911	680.65
719.102	650.43
719.293	684.91
719.485	651.01
719.676	685.3
719.867	642.29
720.058	652.56
720.249	648.49
720.44	654.69
720.632	678.71
720.823	676.58
721.014	759.89
721.205	737.42
721.396	816.47
721.587	841.46
721.778	852.12
721.969	831.97
722.16	905.2
722.351	858.7
722.542	977.47
722.733	977.86
722.924	914.31
723.115	952.48
723.305	972.63
723.496	967.4
723.687	858.9
723.878	878.08
724.069	927.29
724.26	921.87
724.45	884.67
724.641	854.44
724.832	926.71
725.023	899.2
725.213	870.52
725.404	878.27
725.595	906.75
725.785	868.2
725.976	934.65
726.167	911.02
726.357	908.5
726.548	993.16
726.739	905.78
726.929	965.85
727.12	960.03
727.31	1003.82
727.501	980.57
727.691	1028.43
727.882	1031.33
728.072	1041.99
728.263	999.95
728.453	1053.81
728.644	1075.31
728.834	1040.83
729.024	1056.13
729.215	985.61
729.405	1044.51
729.596	1104.76
729.786	1109.99
729.976	1103.21
730.167	1110.38
730.357	1085
730.547	1100.89
730.737	1126.85
730.928	1148.36
731.118	1195.44
731.308	1121.62
731.498	1157.46
731.688	1208.22
731.879	1202.61
732.069	1233.8
732.259	1257.63
732.449	1244.45
732.639	1270.22
732.829	1309.75
733.019	1328.15
733.209	1381.05
733.399	1418.05
733.589	1389.38
733.779	1430.06
733.969	1391.9
734.159	1442.46
734.349	1487.41
734.539	1522.29
734.729	1528.68
734.919	1557.94
735.109	1569.95
735.299	1509.69
735.488	1549.8
735.678	1502.91
735.868	1513.96
736.058	1522.87
736.248	1541.86
736.437	1510.66
736.627	1500.01
736.817	1608.51
737.007	1579.25
737.196	1605.79
737.386	1579.06
737.576	1551.74
737.765	1603.86
737.955	1571.5
738.144	1666.82
738.334	1637.18
738.524	1597.27
738.713	1645.51
738.903	1620.71
739.092	1682.13
739.282	1668.18
739.471	1679.42
739.661	1655
739.85	1707.7
740.04	1695.3
740.229	1728.05
740.419	1711.39
740.608	1736.96
740.797	1726.69
740.987	1785.2
741.176	1793.34
741.365	1733.67
741.555	1648.03
741.744	1771.25
741.933	1754.59
742.123	1789.27
742.312	1805.35
742.501	1798.77
742.69	1823.76
742.88	1794.12
743.069	1848.56
743.258	1797.22
743.447	1844.3
743.636	1845.85
743.825	1788.69
744.014	1843.33
744.204	1868.9
744.393	1800.51
744.582	1878.4
744.771	1883.82
744.96	1825.7
745.149	1914.82
745.338	1851.66
745.527	1893.31
745.716	1865.03
745.905	1861.54
746.094	1897.96
746.283	1892.73
746.471	1890.21
746.66	1941.75
746.849	1921.99
747.038	1985.54
747.227	1906.3
747.416	1901.65
747.604	1827.63
747.793	1894.09
747.982	1896.03
748.171	1934.19
748.359	1926.83
748.548	1953.18
748.737	1898.55
748.926	1914.82
749.114	1875.49
749.303	1892.54
749.491	1885.95
749.68	1838.87
749.869	1940.01
750.057	1898.16
750.246	1866.19
750.434	1884.6
750.623	1915.79
750.811	1909.98
751	1926.44
751.188	1903
751.377	1938.84
751.565	1864.06
751.754	1868.71
751.942	1867.55
752.131	1912.88
752.319	1853.4
752.507	1855.92
752.696	1908.23
752.884	1923.15
753.072	1861.93
753.261	1878.78
753.449	1878.78
753.637	1869.87
753.825	1916.76
754.014	1859.8
754.202	1867.16
754.39	1942.33
754.578	1917.34
754.766	1868.32
754.955	1868.13
755.143	1971.2
755.331	1865.03
755.519	1861.35
755.707	1833.64
755.895	1863.28
756.083	1888.66
756.271	1832.09
756.459	1845.85
756.647	1897.19
756.835	1872.39
757.023	1814.65
757.211	1854.37
757.399	1844.88
757.587	1823.37
757.775	1816.01
757.963	1833.64
758.151	1846.43
758.339	1806.9
758.526	1788.69
758.714	1827.63
758.902	1748.39
759.09	1714.87
759.278	1594.17
759.465	1458.35
759.653	1238.25
759.841	1194.66
760.028	973.6
760.216	845.34
760.404	825.77
760.591	639.38
760.779	546.38
760.967	492.13
761.154	379.95
761.342	471.4
761.529	401.85
761.717	455.9
761.905	437.5
762.092	482.83
762.28	454.35
762.467	440.02
762.655	404.95
762.842	435.75
763.029	436.72
763.217	446.99
763.404	431.88
763.592	464.04
763.779	388.67
763.966	444.08
764.154	439.05
764.341	499.88
764.528	483.22
764.716	550.06
764.903	546.19
765.09	581.26
765.277	610.9
765.465	719.79
765.652	751.37
765.839	787.4
766.026	858.51
766.213	923.8
766.4	943.57
766.588	1073.96
766.775	1068.73
766.962	1119.49
767.149	1126.66
767.336	1252.2
767.523	1197.76
767.71	1287.47
767.897	1330.48
768.084	1405.26
768.271	1394.03
768.458	1438.4
768.645	1505.43
768.832	1472.3
769.019	1452.93
769.206	1497.68
769.392	1525.97
769.579	1651.91
769.766	1589.91
769.953	1574.99
770.14	1630.59
770.327	1582.16
770.513	1658.49
770.7	1702.28
770.887	1594.56
771.073	1644.93
771.26	1631.76
771.447	1603.27
771.634	1619.36
771.82	1696.47
772.007	1615.87
772.193	1653.26
772.38	1712.35
772.567	1626.14
772.753	1655.2
772.94	1723.98
773.126	1684.65
773.313	1681.74
773.499	1694.72
773.686	1705.57
773.872	1655.39
774.059	1642.8
774.245	1596.88
774.432	1624.39
774.618	1564.14
774.804	1669.73
774.991	1589.52
775.177	1691.43
775.363	1621.68
775.55	1650.16
775.736	1616.64
775.922	1601.14
776.109	1642.02
776.295	1630.01
776.481	1640.28
776.667	1657.14
776.853	1621.29
777.04	1604.24
777.226	1590.68
777.412	1701.31
777.598	1597.46
777.784	1567.43
777.97	1556.97
778.156	1634.86
778.342	1592.04
778.528	1591.46
778.715	1540.31
778.901	1571.31
779.087	1582.54
779.272	1530.81
779.458	1537.98
779.644	1604.82
779.83	1526.74
780.016	1632.53
780.202	1558.91
780.388	1533.53
780.574	1485.67
780.76	1543.79
780.946	1560.26
781.131	1536.04
781.317	1517.64
781.503	1514.93
781.689	1500.98
781.874	1592.62
782.06	1502.53
782.246	1530.43
782.432	1510.66
782.617	1532.56
782.803	1583.32
782.989	1490.13
783.174	1534.11
783.36	1477.73
783.545	1465.13
783.731	1523.84
783.916	1439.36
784.102	1495.74
784.288	1474.24
784.473	1438.98
784.659	1494.19
784.844	1502.33
785.029	1429.87
785.215	1450.41
785.4	1420.38
785.586	1499.62
785.771	1432.78
785.956	1425.8
786.142	1437.62
786.327	1400.42
786.512	1445.18
786.698	1434.33
786.883	1385.5
787.068	1423.67
787.254	1408.95
787.439	1390.54
787.624	1413.79
787.809	1397.13
787.994	1374.85
788.18	1452.35
788.365	1356.25
788.55	1394.22
788.735	1401.97
788.92	1354.5
789.105	1349.85
789.29	1377.17
789.475	1345.98
789.66	1349.27
789.845	1295.6
790.03	1332.22
790.215	1367.87
790.4	1356.05
790.585	1410.5
790.77	1368.45
790.955	1258.4
791.14	1363.42
791.325	1373.49
791.51	1257.82
791.695	1330.09
791.879	1289.02
792.064	1280.49
792.249	1380.85
792.434	1294.05
792.618	1302.39
792.803	1324.47
792.988	1297.93
793.173	1311.88
793.357	1336.87
793.542	1300.45
793.727	1287.47
793.911	1351.4
794.096	1314.2
794.281	1346.95
794.465	1348.88
794.65	1317.11
794.834	1334.35
795.019	1402.36
795.203	1344.82
795.388	1361.67
795.572	1370
795.757	1332.22
795.941	1329.9
796.126	1364.97
796.31	1283.79
796.494	1340.36
796.679	1305.29
796.863	1301.03
797.048	1380.27
797.232	1382.79
797.416	1370.2
797.601	1315.37
797.785	1382.21
797.969	1384.34
798.153	1311.88
798.338	1344.04
798.522	1372.72
798.706	1354.89
798.89	1379.3
799.074	1435.3
799.258	1406.43
799.443	1336.29
799.627	1334.74
799.811	1382.02
799.995	1347.72
800.179	1314.01
800.363	1329.51
800.547	1376.78
800.731	1358.18
800.915	1323.5
801.099	1310.13
801.283	1316.33
801.467	1334.35
801.651	1320.79
801.835	1385.89
802.019	1331.25
802.202	1348.88
802.386	1260.73
802.57	1315.17
802.754	1326.8
802.938	1288.05
803.121	1295.6
803.305	1328.35
803.489	1345.4
803.673	1343.27
803.856	1336.87
804.04	1316.92
804.224	1359.15
804.407	1313.43
804.591	1304.71
804.775	1326.02
804.958	1318.47
805.142	1412.05
805.326	1296.57
805.509	1320.98
805.693	1365.35
805.876	1384.73
806.06	1351.6
806.243	1383.18
806.427	1401.97
806.61	1390.54
806.794	1338.81
806.977	1380.08
807.16	1328.93
807.344	1356.25
807.527	1329.12
807.71	1346.95
807.894	1365.16
808.077	1378.92
808.26	1314.78
808.444	1289.4
808.627	1366.9
808.81	1338.23
808.993	1293.09
809.177	1293.86
809.36	1283.4
809.543	1332.8
809.726	1244.84
809.909	1267.7
810.092	1243.1
810.276	1266.74
810.459	1260.73
810.642	1247.17
810.825	1201.44
811.008	1247.17
811.191	1183.42
811.374	1182.65
811.557	1180.13
811.74	1291.34
811.923	1165.21
812.106	1168.89
812.289	1144.29
812.472	1173.16
812.654	1169.09
812.837	1130.92
813.02	1106.51
813.203	1087.52
813.386	1018.93
813.569	1026.3
813.751	975.53
813.934	1045.67
814.117	1022.42
814.3	983.28
814.482	966.43
814.665	964.3
814.848	942.6
815.03	897.84
815.213	908.5
815.396	923.22
815.578	908.3
815.761	841.07
815.943	919.15
816.126	846.3
816.309	836.42
816.491	802.32
816.674	720.56
816.856	798.84
817.039	803.68
817.221	848.82
817.403	802.9
817.586	819.95
817.768	864.52
817.951	759.12
818.133	766.09
818.315	803.68
818.498	800.77
818.68	890.87
818.862	826.15
819.045	858.7
819.227	842.82
819.409	799.42
819.591	838.94
819.774	815.69
819.956	782.17
820.138	847.47
820.32	833.9
820.502	898.81
820.684	908.11
820.866	905.2
821.048	946.47
821.231	933.1
821.413	908.5
821.595	924.97
821.777	906.17
821.959	943.57
822.141	976.5
822.323	930
822.505	841.07
822.686	835.84
822.868	799.03
823.05	716.3
823.232	739.74
823.414	692.08
823.596	751.37
823.778	707.58
823.96	747.69
824.141	714.94
824.323	755.63
824.505	814.14
824.687	835.26
824.868	840.1
825.05	903.27
825.232	923.61
825.413	975.15
825.595	932.13
825.777	851.54
825.958	924.38
826.14	877.3
826.321	935.62
826.503	894.16
826.685	919.15
826.866	935.43
827.048	951.32
827.229	896.29
827.411	905.59
827.592	816.27
827.773	816.85
827.955	834.1
828.136	824.99
828.318	784.3
828.499	813.95
828.68	772.1
828.862	830.03
829.043	828.87
829.224	840.1
829.406	807.36
829.587	774.42
829.768	804.07
829.949	818.4
830.131	834.1
830.312	851.34
830.493	814.14
830.674	853.28
830.855	807.75
831.036	803.1
831.218	846.3
831.399	896.29
831.58	805.04
831.761	812.98
831.942	844.95
832.123	815.89
832.304	761.06
832.485	806
832.666	820.54
832.847	824.22
833.028	797.29
833.209	815.5
833.389	784.5
833.57	762.8
833.751	783.53
833.932	850.76
834.113	829.64
834.294	772.29
834.475	858.32
834.655	896.1
834.836	869.75
835.017	828.67
835.198	776.17
835.378	825.19
835.559	826.54
835.74	816.85
835.92	822.86
836.101	785.47
836.281	843.98
836.462	828.67
836.643	866.84
836.823	878.85
837.004	843.4
837.184	906.37
837.365	899.2
837.545	908.69
837.726	855.8
837.906	903.65
838.087	863.16
838.267	854.44
838.448	840.3
838.628	850.37
838.808	877.11
838.989	911.6
839.169	854.64
839.349	888.54
839.53	896.48
839.71	854.05
839.89	844.75
840.07	920.7
840.251	850.95
840.431	860.25
840.611	855.99
840.791	811.04
840.971	871.49
841.151	852.12
841.332	793.41
841.512	896.48
841.692	794.19
841.872	867.42
842.052	843.79
842.232	892.61
842.412	812.4
842.592	830.42
842.772	845.72
842.952	857.54
843.132	819.95
843.312	812.4
843.492	842.04
843.672	821.7
843.851	782.37
844.031	834.1
844.211	830.42
844.391	813.37
844.571	835.45
844.751	866.45
844.93	857.54
845.11	797.48
845.29	857.74
845.47	853.47
845.649	826.74
845.829	874.98
846.009	797.87
846.188	845.14
846.368	835.84
846.547	813.56
846.727	835.45
846.907	800.39
847.086	819.57
847.266	853.28
847.445	814.92
847.625	808.91
847.804	797.29
847.984	839.91
848.163	800
848.343	781.98
848.522	812.79
848.701	790.89
848.881	779.27
849.06	780.82
849.239	816.66
849.419	822.47
849.598	755.44
849.777	768.22
849.957	753.89
850.136	713.2
850.315	714.94
850.494	723.66
850.674	738.19
850.853	800.39
851.032	763.19
851.211	806.78
851.39	750.4
851.569	727.54
851.748	726.37
851.927	761.64
852.107	759.12
852.286	704.29
852.465	692.08
852.644	777.14
852.823	757.96
853.002	759.31
853.181	760.09
853.359	784.89
853.538	711.65
853.717	808.72
853.896	687.82
854.075	673.48
854.254	658.18
854.433	607.22
854.611	664.38
854.79	619.43
854.969	637.44
855.148	681.62
855.327	646.74
855.505	685.49
855.684	660.5
855.863	698.67
856.041	677.16
856.22	680.46
856.399	658.56
856.577	742.65
856.756	693.05
856.934	824.41
857.113	800.58
857.291	692.66
857.47	690.53
857.648	685.69
857.827	719.79
858.005	772.49
858.184	688.79
858.362	767.26
858.541	721.72
858.719	679.68
858.898	699.83
859.076	700.8
859.254	762.8
859.433	695.96
859.611	695.37
859.789	665.34
859.967	759.31
860.146	767.45
860.324	654.3
860.502	696.34
860.68	649.26
860.859	673.87
861.037	681.81
861.215	703.71
861.393	663.6
861.571	707.39
861.749	661.47
861.927	710.1
862.105	697.51
862.283	698.09
862.461	644.42
862.639	645
862.817	665.34
862.995	666.89
863.173	661.28
863.351	673.48
863.529	680.07
863.707	726.37
863.885	678.71
864.063	651.78
864.241	644.23
864.418	722.5
864.596	637.83
864.774	596.18
864.952	680.65
865.129	679.88
865.307	631.44
865.485	628.92
865.663	674.26
865.84	615.74
866.018	646.16
866.196	537.66
866.373	571.76
866.551	566.34
866.728	521.39
866.906	560.33
867.084	560.72
867.261	599.86
867.439	608.38
867.616	623.49
867.794	591.91
867.971	630.47
868.149	590.17
868.326	676.58
868.503	632.79
868.681	629.69
868.858	567.31
869.035	586.1
869.213	633.57
869.39	600.83
869.567	677.55
869.745	598.5
869.922	638.41
870.099	617.1
870.276	623.3
870.454	640.54
870.631	621.17
870.808	591.53
870.985	670.96
871.162	689.18
871.339	620.39
871.517	586.68
871.694	557.43
871.871	607.61
872.048	604.51
872.225	569.83
872.402	637.06
872.579	552.58
872.756	593.66
872.933	541.15
873.11	600.63
873.287	622.14
873.463	565.37
873.64	589.59
873.817	629.31
873.994	569.63
874.171	562.27
874.348	597.73
874.524	536.11
874.701	546.38
874.878	498.14
875.055	581.06
875.231	553.16
875.408	584.55
875.585	527.4
875.762	542.51
875.938	560.72
876.115	535.92
876.291	531.66
876.468	536.31
876.645	515.97
876.821	546.96
876.998	553.75
877.174	561.3
877.351	555.49
877.527	505.5
877.704	587.65
877.88	562.66
878.057	546.19
878.233	572.15
878.409	561.3
878.586	526.23
878.762	501.82
878.938	532.43
879.115	456.68
879.291	513.83
879.467	468.3
879.644	528.36
879.82	567.89
879.996	504.92
880.172	486.32
880.349	506.86
880.525	540.76
880.701	475.67
880.877	497.56
881.053	515.38
881.229	499.11
881.405	586.88
881.581	499.11
881.757	497.75
881.933	503.76
882.109	531.27
882.285	510.93
882.461	468.69
882.637	478.77
882.813	501.63
882.989	495.82
883.165	560.33
883.341	454.74
883.517	533.21
883.693	517.51
883.869	526.04
884.044	506.28
884.22	538.05
884.396	560.91
884.572	524.1
884.747	552.2
884.923	511.7
885.099	521.39
885.275	518.68
885.45	497.95
885.626	488.07
885.801	477.6
885.977	479.35
886.153	434.78
886.328	499.69
886.504	473.73
886.679	524.68
886.855	462.3
887.03	519.84
887.206	537.86
887.381	512.87
887.557	512.09
887.732	515.77
887.908	533.4
888.083	525.85
888.258	482.83
888.434	461.13
888.609	508.6
888.784	516.55
888.96	501.05
889.135	483.8
889.31	493.1
889.485	494.46
889.661	495.62
889.836	526.23
890.011	527.2
890.186	496.78
890.361	459.39
890.537	503.76
890.712	500.47
890.887	510.73
891.062	494.07
891.237	553.94
891.412	458.03
891.587	502.21
891.762	558.4
891.937	546.19
892.112	470.43
892.287	512.87
892.462	453.97
892.637	451.83
892.812	457.26
892.987	438.27
893.161	433.04
893.336	456.87
893.511	464.04
893.686	448.93
893.861	465.59
894.035	491.36
894.21	455.52
894.385	421.42
894.56	441.95
894.734	381.5
894.909	418.12
895.084	418.51
895.258	412.31
895.433	447.57
895.608	382.67
895.782	349.73
895.957	398.75
896.131	379.95
896.306	313.11
896.48	362.71
896.655	366.39
896.829	311.37
897.004	315.24
897.178	347.6
897.353	309.04
897.527	358.84
897.701	339.66
897.876	276.11
898.05	370.46
898.224	351.86
898.399	388.87
898.573	342.17
898.747	259.83
898.921	323.38
899.096	269.13
899.27	265.06
899.444	245.88
899.618	292.38
899.792	263.12
899.967	296.84
900.141	300.13
900.315	262.35
900.489	282.11
900.663	297.03
900.837	298.97
901.011	252.47
901.185	336.75
901.359	304.78
901.533	263.32
901.707	275.52
901.881	284.05
902.055	233.09
902.229	260.02
902.403	330.55
902.576	279.59
902.75	310.01
902.924	372.59
903.098	290.44
903.272	334.04
903.446	356.9
903.619	309.62
903.793	341.21
903.967	336.36
904.14	374.34
904.314	369.3
904.488	361.94
904.661	411.34
904.835	360.19
905.009	417.54
905.182	400.69
905.356	366.59
905.529	385.19
905.703	343.92
905.876	337.91
906.05	313.89
906.223	320.09
906.397	282.5
906.57	268.55
906.744	263.32
906.917	310.4
907.09	274.75
907.264	267.58
907.437	264.87
907.61	246.27
907.784	258.47
907.957	265.06
908.13	259.83
908.304	286.37
908.477	255.96
908.65	260.22
908.823	231.54
908.996	337.33
909.17	241.62
909.343	257.51
909.516	273.39
909.689	238.33
909.862	210.81
910.035	237.36
910.208	227.48
910.381	261.57
910.554	322.61
910.727	272.04
910.9	242.59
911.073	232.13
911.246	279.98
911.419	277.66
911.592	273.78
911.765	228.44
911.938	230.96
912.11	254.6
912.283	248.59
912.456	296.45
912.629	263.32
912.802	263.9
912.974	196.09
913.147	195.31
913.32	156.18
913.493	191.24
913.665	214.11
913.838	218.95
914.01	220.89
914.183	209.26
914.356	200.74
914.528	238.33
914.701	268.94
914.873	286.18
915.046	213.72
915.218	213.72
915.391	171.48
915.563	195.31
915.736	220.69
915.908	241.23
916.081	217.01
916.253	199.19
916.425	209.07
916.598	206.74
916.77	211.2
916.942	192.41
917.115	130.99
917.287	212.17
917.459	214.49
917.632	167.03
917.804	130.8
917.976	214.88
918.148	205.78
918.32	209.65
918.493	210.43
918.665	233.87
918.837	185.43
919.009	274.56
919.181	229.03
919.353	235.81
919.525	205.39
919.697	216.63
919.869	201.9
920.041	272.23
920.213	290.64
920.385	246.27
920.557	233.29
920.729	229.03
920.901	197.83
921.073	208.68
921.244	219.73
921.416	254.99
921.588	227.86
921.76	221.28
921.932	258.47
922.103	213.33
922.275	217.59
922.447	223.02
922.619	169.93
922.79	211.39
922.962	186.21
923.134	237.16
923.305	145.52
923.477	176.71
923.648	163.35
923.82	185.43
923.991	170.13
924.163	157.15
924.335	186.21
924.506	178.65
924.677	222.05
924.849	168.77
925.02	198.8
925.192	197.44
925.363	166.83
925.535	214.3
925.706	162.76
925.877	236.58
926.049	167.99
926.22	188.53
926.391	186.4
926.562	213.14
926.734	179.43
926.905	216.43
927.076	123.24
927.247	181.56
927.419	152.88
927.59	122.85
927.761	156.56
927.932	145.33
928.103	187.95
928.274	88.75
928.445	128.08
928.616	134.86
928.787	113.94
928.958	178.07
929.129	170.13
929.3	143.78
929.471	117.62
929.642	83.71
929.813	51.36
929.984	150.56
930.155	75
930.326	126.92
930.496	61.82
930.667	35.86
930.838	89.14
931.009	33.15
931.18	108.51
931.35	32.57
931.521	80.42
931.692	57.17
931.863	19
932.033	70.15
932.204	68.41
932.374	76.35
932.545	17.84
932.716	90.3
932.886	89.53
933.057	-4.63
933.227	24.82
933.398	115.1
933.568	12.61
933.739	0.79
933.909	14.16
934.08	59.69
934.25	-8.51
934.421	0.02
934.591	32.37
934.761	1.18
934.932	-19.55
935.102	-0.76
935.272	6.22
935.443	-2.12
935.613	14.74
935.783	37.8
935.953	-38.73
936.123	117.43
936.294	12.8
936.464	-9.09
936.634	-12.38
936.804	-27.88
936.974	4.28
937.144	30.24
937.314	25.4
937.484	-1.53
937.655	-10.25
937.825	42.83
937.995	1.57
938.165	24.62
938.334	-8.31
938.504	-0.76
938.674	-12.19
938.844	16.87
939.014	48.84
939.184	29.85
939.354	64.34
939.524	59.11
939.694	31.21
939.863	25.2
940.033	70.35
940.203	68.02
940.373	51.17
940.542	68.99
940.712	14.55
940.882	63.95
941.051	67.25
941.221	82.55
941.391	58.33
941.56	16.68
941.73	10.48
941.899	99.99
942.069	33.73
942.238	63.18
942.408	24.82
942.577	69.38
942.747	36.83
942.916	3.7
943.086	6.8
943.255	66.47
943.425	29.66
943.594	10.48
943.763	-13.93
943.933	-4.63
944.102	-17.03
944.271	36.25
944.441	42.25
944.61	11.64
944.779	13.38
944.948	88.17
945.117	4.08
945.287	26.17
945.456	-27.88
945.625	-9.48
945.794	37.6
945.963	4.28
946.132	50.39
946.301	1.95
946.47	53.88
946.639	-20.71
946.808	-16.45
946.977	50.2
947.146	60.08
947.315	-9.86
947.484	36.25
947.653	35.47
947.822	12.42
947.991	1.37
948.16	99.21
948.329	54.27
948.498	13.19
948.666	40.9
948.835	32.37
949.004	-16.65
949.173	-5.22
949.341	39.15
949.51	33.92
949.679	58.92
949.847	61.05
950.016	113.94
950.185	79.45
950.353	4.47
950.522	12.22
950.69	55.62
950.859	-8.31
951.028	55.43
951.196	20.17
951.365	-4.83
951.533	1.37
951.701	58.92
951.87	26.95
952.038	-7.35
952.207	14.55
952.375	104.45
952.543	12.22
952.712	18.62
952.88	28.69
953.048	80.03
953.217	34.31
953.385	16.87
953.553	53.68
953.721	-14.9
953.89	17.84
954.058	7.77
954.226	41.67
954.394	19.2
954.562	-3.86
954.73	3.31
954.898	44
955.067	60.08
955.235	16.87
955.403	55.43
955.571	93.4
955.739	31.6
955.907	11.06
956.075	-22.46
956.243	8.35
956.41	47.87
956.578	-13.35
956.746	-27.5
956.914	28.11
957.082	80.03
957.25	39.93
957.418	-4.25
957.585	36.25
957.753	42.45
957.921	6.22
958.089	25.01
958.256	41.48
958.424	46.9
958.592	29.47
958.759	-16.26
958.927	50
959.095	-1.34
959.262	20.94
959.43	40.7
959.597	1.76
959.765	31.02
959.932	-16.26
960.1	48.07
960.267	-5.99
960.435	7.96
960.602	67.05
960.77	32.95
960.937	-3.86
961.104	14.16
961.272	-9.67
961.439	11.45
961.606	31.02
961.774	52.72
961.941	0.6
962.108	43.03
962.275	18.42
962.443	59.69
962.61	61.24
962.777	83.52
962.944	63.18
963.111	41.48
963.278	68.22
963.446	42.64
963.613	23.65
963.78	57.17
963.947	58.72
964.114	25.01
964.281	104.25
964.448	61.82
964.615	28.5
964.782	47.48
964.949	52.33
965.116	64.15
965.282	77.32
965.449	22.49
965.616	10.87
965.783	68.6
965.95	41.28
966.117	-4.83
966.283	27.53
966.45	21.72
966.617	41.48
966.784	77.13
966.95	56.01
967.117	60.85
967.284	-5.02
967.45	8.35
967.617	56.4
967.784	47.1
967.95	75
968.117	27.53
968.283	81
968.45	114.13
968.616	48.65
968.783	76.74
968.949	32.95
969.116	96.89
969.282	65.31
969.449	55.62
969.615	57.56
969.781	31.6
969.948	-3.08
970.114	-5.6
970.28	120.33
970.447	29.47
970.613	75
970.779	29.85
970.945	43.42
971.112	52.72
971.278	45.16
971.444	59.5
971.61	67.44
971.776	20.36
971.942	28.88
972.108	62.02
972.275	19.97
972.441	74.8
972.607	119.56
972.773	-9.09
972.939	37.41
973.105	43.22
973.271	14.55
973.437	32.95
973.602	29.66
973.768	49.62
973.934	32.18
974.1	49.62
974.266	-43.77
974.432	32.76
974.598	22.49
974.763	66.08
974.929	35.86
975.095	104.06
975.261	1.57
975.426	8.54
975.592	41.87
975.758	92.24
975.923	9.7
976.089	26.95
976.255	42.45
976.42	57.75
976.586	65.7
976.751	60.47
976.917	113.94
977.082	52.91
977.248	18.62
977.413	-15.68
977.579	33.34
977.744	32.76
977.91	29.85
978.075	34.7
978.24	39.15
978.406	37.8
978.571	20.94
978.736	0.98
978.902	52.13
979.067	7.57
979.232	-11.41
979.397	38.77
979.563	86.04
979.728	14.55
979.893	28.88
980.058	31.79
980.223	70.15
980.388	51.75
980.554	37.99
980.719	10.48
980.884	67.44
981.049	67.25
981.214	13.77
981.379	38.57
981.544	31.98
981.709	-3.28
981.874	37.02
982.039	35.86
982.204	80.81
982.368	16.48
982.533	-5.02
982.698	82.75
982.863	93.01
983.028	29.66
983.193	35.08
983.357	62.4
983.522	49.42
983.687	33.34
983.852	26.56
984.016	35.28
984.181	48.84
984.346	60.47
984.51	32.76
984.675	64.92
984.839	50.2
985.004	50.97
985.168	70.54
985.333	57.75
985.498	33.34
985.662	61.24
985.827	63.18
985.991	46.9
986.155	36.25
986.32	31.79
986.484	89.72
986.649	51.75
986.813	-27.5
986.977	57.75
987.142	74.8
987.306	-5.22
987.47	13
987.634	14.55
987.799	41.87
987.963	64.53
988.127	50.97
988.291	112.2
988.455	39.73
988.62	37.6
988.784	25.4
988.948	45.55
989.112	12.61
989.276	46.9
989.44	48.84
989.604	4.28
989.768	38.57
989.932	98.83
990.096	6.8
990.26	-5.02
990.424	-8.9
990.588	29.66
990.752	90.11
990.915	42.83
991.079	12.61
991.243	-5.6
991.407	50.2
991.571	17.84
991.734	71.7
991.898	50.97
992.062	102.7
992.226	37.02
992.389	17.07
992.553	-21.68
992.717	7.96
992.88	21.13
993.044	41.28
993.207	28.88
993.371	69.57
993.535	48.45
993.698	29.27
993.862	73.83
994.025	65.89
994.189	38.77
994.352	42.06
994.515	59.88
994.679	72.87
994.842	9.7
995.006	43.03
995.169	29.66
995.332	18.03
995.496	53.88
995.659	-18.97
995.822	30.82
995.985	30.82
996.149	99.21
996.312	45.35
996.475	92.43
996.638	25.01
996.801	89.53
996.964	81.39
997.128	26.17
997.291	-10.06
997.454	57.75
997.617	-3.08
997.78	79.65
997.943	7.77
998.106	59.11
998.269	13.97
998.432	29.27
998.595	33.15
998.758	-10.25
998.92	-0.18
999.083	-1.53
999.246	23.85
999.409	11.64
999.572	-21.49
999.735	1.95
999.897	42.06
1000.06	3.89
1000.223	33.53
1000.386	38.77
1000.548	30.05
1000.711	50
1000.874	54.27
1001.036	-15.87
1001.199	52.13
1001.361	6.8
1001.524	41.48
1001.687	59.11
1001.849	19.97
1002.012	16.48
1002.174	11.25
1002.337	69.96
1002.499	19.39
1002.661	42.06
1002.824	-22.85
1002.986	18.42
1003.149	25.4
1003.311	8.73
1003.473	90.88
1003.636	-8.31
1003.798	32.37
1003.96	30.43
1004.123	9.51
1004.285	-1.34
1004.447	39.54
1004.609	29.66
1004.771	46.32
1004.933	-34.28
1005.096	-10.83
1005.258	-18.97
1005.42	3.89
1005.582	48.26
1005.744	24.23
1005.906	-6.57
1006.068	4.47
1006.23	-1.73
1006.392	-14.9
1006.554	-2.5
1006.716	55.04
1006.878	34.31
1007.04	-32.15
1007.202	-8.12
1007.363	24.43
1007.525	5.44
1007.687	39.93
1007.849	52.33
1008.011	-25.75
1008.172	-12.38
1008.334	1.18
1008.496	16.48
1008.658	-36.6
1008.819	-1.73
1008.981	-36.21
1009.143	-1.34
1009.304	4.08
1009.466	34.12
1009.627	85.26
1009.789	91.85
1009.95	28.5
1010.112	24.43
1010.273	29.27
1010.435	1.18
1010.596	0.6
1010.758	17.07
1010.919	-0.18
1011.081	-22.46
1011.242	12.03
1011.403	36.05
1011.565	-6.38
1011.726	41.48
1011.887	-12.77
1012.049	-4.25
1012.21	21.13
1012.371	64.15
1012.532	-31.76
1012.693	-5.41
1012.855	-22.46
1013.016	27.33
1013.177	25.4
1013.338	-5.6
1013.499	49.42
1013.66	49.62
1013.821	26.56
1013.982	-2.5
1014.143	21.52
1014.304	-0.18
1014.465	33.92
1014.626	34.31
1014.787	-6.57
1014.948	92.43
1015.109	-57.91
1015.27	34.89
1015.431	4.67
1015.592	6.8
1015.752	73.83
1015.913	46.71
1016.074	30.24
1016.235	-0.18
1016.395	13
1016.556	12.22
1016.717	-12.58
1016.877	47.48
1017.038	-11.61
1017.199	13.77
1017.359	23.65
1017.52	14.35
1017.681	1.76
1017.841	10.48
1018.002	10.09
1018.162	-12
1018.323	69.18
1018.483	-11.61
1018.644	-25.17
1018.804	-18.58
1018.964	-30.79
1019.125	14.74
1019.285	18.81
1019.446	-24.98
1019.606	-21.49
1019.766	-53.46
1019.926	36.83
1020.087	-4.05
1020.247	-16.65
1020.407	28.69
1020.567	50.97
1020.728	15.9
1020.888	-23.43
1021.048	7.38
1021.208	-8.9
1021.368	-29.43
1021.528	51.94
1021.688	19.2
1021.848	1.37
1022.008	34.5
1022.168	-8.9
1022.328	-4.44
1022.488	31.6
1022.648	-21.68
1022.808	18.03
1022.968	42.25
1023.128	-18.78
1023.288	3.31
1023.448	16.87
1023.608	38.38
1023.767	5.44
1023.927	-18.97
1024.087	-37.96
1024.247	-24.4
1024.406	-3.67
1024.566	-23.43
1024.726	-29.82
1024.885	26.56
1025.045	11.64
1025.205	-0.95
1025.364	-12.96
1025.524	12.42
1025.683	-13.74
1025.843	-10.06
1026.003	5.25
1026.162	56.59
1026.321	7.38
1026.481	21.52
1026.64	-4.83
1026.8	1.57
1026.959	7.57
1027.119	-5.22
1027.278	-17.61
1027.437	-42.41
1027.597	2.34
1027.756	34.5
1027.915	-2.12
1028.074	30.05
1028.234	-5.8
1028.393	35.28
1028.552	-10.64
1028.711	-58.3
1028.87	35.28
1029.03	-41.45
1029.189	14.35
1029.348	-30.4
1029.507	5.63
1029.666	15.71
1029.825	-40.28
1029.984	-8.12
1030.143	-11.41
1030.302	-22.85
1030.461	-54.23
1030.62	10.87
1030.779	21.52
1030.938	-20.91
1031.097	-16.84
1031.255	37.8
1031.414	58.92
1031.573	51.36
1031.732	-22.85
1031.891	-0.95
1032.049	25.98
1032.208	13
1032.367	-19.36
1032.525	-12.96
1032.684	32.37
1032.843	28.88
1033.001	-43.58
1033.16	124.21
1033.319	49.42
1033.477	4.08
1033.636	-26.33
1033.794	-61.6
1033.953	14.35
1034.111	26.56
1034.27	-6.77
1034.428	12.8
1034.587	-24.98
1034.745	3.12
1034.903	-1.92
1035.062	36.05
1035.22	-25.75
1035.378	14.16
1035.537	-36.6
1035.695	24.62
1035.853	-19.55
1036.011	36.25
1036.17	4.67
1036.328	-59.85
1036.486	26.37
1036.644	28.3
1036.802	-59.27
1036.96	-38.73
1037.119	-4.44
1037.277	-19.55
1037.435	-32.34
1037.593	-19.94
1037.751	4.08
1037.909	31.79
1038.067	31.79
