Data from oakcork_FLMT105791__284__17-34-30-052.txt Node

Date: Mon Mar 20 17:34:30 GMT 2023
User: antho
Spectrometer: FLMT10579
Trigger mode: 0
Integration Time (sec): 1.000000E-1
Scans to average: 10
Electric dark correction enabled: true
Nonlinearity correction enabled: false
Boxcar width: 0
XAxis mode: Wavelengths
Number of Pixels in Spectrum: 3648
>>>>>Begin Spectral Data<<<<<
345.248	-146.81
345.464	-146.81
345.681	-146.81
345.898	-167.54
346.114	-136.16
346.331	-31.34
346.548	18.65
346.764	-12.35
346.981	-24.56
347.197	-8.48
347.414	-8.48
347.631	-0.15
347.847	58.37
348.064	14.58
348.28	36.86
348.497	-34.44
348.713	-8.67
348.93	26.79
349.146	20.78
349.363	10.51
349.579	17.87
349.796	-7.31
350.012	-13.71
350.229	3.15
350.445	0.63
350.661	-7.31
350.878	-13.32
351.094	1.79
351.311	-2.28
351.527	15.55
351.743	-9.64
351.96	27.37
352.176	44.8
352.392	35.89
352.609	49.65
352.825	-8.09
353.041	-4.6
353.257	-3.44
353.474	24.65
353.69	5.28
353.906	13.22
354.122	-8.86
354.339	37.44
354.555	-6.93
354.771	-3.05
354.987	26.98
355.203	52.36
355.42	-13.9
355.636	10.12
355.852	-16.03
356.068	22.72
356.284	-20.1
356.5	55.46
356.716	21.36
356.932	-1.5
357.148	39.96
357.364	10.12
357.58	33.37
357.796	70.18
358.012	30.47
358.228	26.79
358.444	-41.41
358.66	41.7
358.876	-14.29
359.092	-15.26
359.308	26.2
359.524	32.79
359.74	-4.02
359.956	-26.88
360.172	27.75
360.388	45.77
360.604	-1.5
360.819	75.61
361.035	37.05
361.251	57.4
361.467	10.51
361.683	25.82
361.898	34.73
362.114	32.02
362.33	23.49
362.546	60.69
362.762	-7.31
362.977	3.73
363.193	-42.38
363.409	25.04
363.624	-11
363.84	-11.19
364.056	-2.08
364.271	39.96
364.487	26.98
364.703	20
364.918	-16.03
365.134	0.82
365.35	-5.76
365.565	105.06
365.781	-4.6
365.996	34.73
366.212	64.18
366.427	27.37
366.643	7.02
366.858	10.9
367.074	-4.8
367.289	51.39
367.505	91.5
367.72	-21.46
367.936	-11.38
368.151	42.67
368.367	16.52
368.582	15.16
368.798	3.73
369.013	70.96
369.228	-1.89
369.444	24.27
369.659	55.07
369.874	22.91
370.09	53.52
370.305	-25.91
370.52	-27.27
370.736	34.54
370.951	15.94
371.166	70.57
371.381	39.57
371.597	49.26
371.812	9.54
372.027	-4.6
372.242	13.42
372.458	56.43
372.673	-18.36
372.888	20.39
373.103	38.99
373.318	117.07
373.533	26.79
373.749	25.24
373.964	-30.37
374.179	42.09
374.394	4.5
374.609	75.8
374.824	-11.58
375.039	61.08
375.254	-10.03
375.469	80.07
375.684	38.22
375.899	62.44
376.114	1.4
376.329	20.39
376.544	70.57
376.759	53.33
376.974	-37.93
377.189	-0.15
377.404	8.19
377.619	33.18
377.834	-21.84
378.049	-29.01
378.264	-27.85
378.478	36.09
378.693	-3.83
378.908	56.62
379.123	17.49
379.338	46.35
379.553	15.94
379.767	8.38
379.982	39.19
380.197	35.31
380.412	8.38
380.626	35.5
380.841	65.73
381.056	36.28
381.271	61.85
381.485	6.05
381.7	-4.99
381.915	41.51
382.129	-7.31
382.344	28.72
382.559	24.65
382.773	38.6
382.988	-42.96
383.202	29.5
383.417	-3.25
383.632	88.98
383.846	37.83
384.061	22.91
384.275	30.08
384.49	22.52
384.704	40.35
384.919	8.38
385.133	6.44
385.348	26.79
385.562	-18.16
385.777	51.78
385.991	-2.08
386.206	14.97
386.42	-4.6
386.634	57.79
386.849	30.27
387.063	26.59
387.277	-31.73
387.492	4.7
387.706	-23.78
387.92	13.61
388.135	33.18
388.349	17.1
388.563	41.51
388.778	7.02
388.992	50.62
389.206	50.04
389.42	106.03
389.635	22.33
389.849	30.66
390.063	56.82
390.277	16.71
390.491	80.84
390.706	42.67
390.92	29.89
391.134	23.69
391.348	64.37
391.562	-25.14
391.776	14
391.99	-0.53
392.205	17.68
392.419	14.19
392.633	33.18
392.847	60.11
393.061	-17.39
393.275	97.89
393.489	31.05
393.703	31.05
393.917	57.98
394.131	-3.05
394.345	46.35
394.559	66.89
394.773	30.47
394.986	43.06
395.2	29.89
395.414	57.01
395.628	-4.8
395.842	54.69
396.056	24.27
396.27	-19.13
396.484	18.45
396.697	27.56
396.911	81.81
397.125	62.82
397.339	72.7
397.553	47.71
397.766	70.18
397.98	61.85
398.194	57.98
398.408	35.5
398.621	55.27
398.835	62.63
399.049	38.41
399.262	99.05
399.476	57.79
399.69	69.02
399.903	104.67
400.117	31.05
400.331	76.77
400.544	19.62
400.758	147.68
400.971	40.54
401.185	74.45
401.398	27.17
401.612	74.45
401.826	55.46
402.039	88.78
402.253	18.84
402.466	60.3
402.68	35.5
402.893	65.92
403.106	49.26
403.32	56.82
403.533	41.7
403.747	37.64
403.96	61.85
404.174	72.51
404.387	4.12
404.6	79.87
404.814	94.4
405.027	49.45
405.24	41.9
405.454	31.24
405.667	72.51
405.88	-3.05
406.094	61.47
406.307	92.27
406.52	55.27
406.733	23.88
406.947	1.99
407.16	79.87
407.373	104.28
407.586	16.32
407.799	5.47
408.012	72.7
408.226	63.21
408.439	119.98
408.652	22.72
408.865	59.72
409.078	90.72
409.291	76.38
409.504	13.22
409.717	42.48
409.93	80.84
410.143	59.53
410.357	4.31
410.57	30.85
410.783	44.42
410.996	76.97
411.209	65.15
411.421	88.2
411.634	74.64
411.847	5.47
412.06	67.86
412.273	56.43
412.486	51.78
412.699	133.35
412.912	61.08
413.125	70.57
413.338	44.8
413.55	97.89
413.763	39.19
413.976	63.99
414.189	28.92
414.402	42.29
414.615	100.41
414.827	29.89
415.04	84.13
415.253	65.34
415.466	111.07
415.678	121.72
415.891	53.14
416.104	57.59
416.316	47.13
416.529	39.38
416.742	82.97
416.954	91.3
417.167	39.57
417.38	62.63
417.592	85.49
417.805	55.85
418.017	43.45
418.23	97.12
418.442	26.98
418.655	39.57
418.868	72.7
419.08	83.94
419.293	107.19
419.505	59.72
419.718	81.62
419.93	106.61
420.142	81.42
420.355	100.99
420.567	113.97
420.78	63.4
420.992	65.92
421.205	96.92
421.417	24.07
421.629	40.15
421.842	64.76
422.054	24.85
422.266	76.58
422.479	106.8
422.691	67.08
422.903	88.98
423.115	63.21
423.328	71.15
423.54	75.8
423.752	66.12
423.964	57.4
424.177	70.18
424.389	46.35
424.601	173.26
424.813	91.69
425.025	74.25
425.238	83.55
425.45	81.03
425.662	57.01
425.874	285.83
426.086	68.63
426.298	95.76
426.51	88.98
426.722	64.57
426.934	51.78
427.146	113.58
427.358	52.17
427.57	86.27
427.782	73.28
427.994	77.16
428.206	46.74
428.418	28.34
428.63	112.42
428.842	85.3
429.054	78.9
429.266	102.54
429.478	69.41
429.69	73.48
429.902	33.76
430.114	79.87
430.325	92.66
430.537	54.49
430.749	47.13
430.961	34.73
431.173	59.53
431.384	92.66
431.596	9.35
431.808	64.76
432.02	80.45
432.231	93.63
432.443	106.8
432.655	51.59
432.867	39.38
433.078	99.05
433.29	144
433.502	74.83
433.713	97.7
433.925	55.46
434.136	99.05
434.348	53.33
434.56	13.61
434.771	160.28
434.983	50.81
435.194	39.57
435.406	49.26
435.617	114.75
435.829	154.46
436.04	107
436.252	122.88
436.463	134.9
436.675	117.85
436.886	109.71
437.098	98.47
437.309	149.62
437.521	92.08
437.732	97.12
437.943	88.78
438.155	101.96
438.366	43.06
438.578	151.56
438.789	103.12
439	105.06
439.211	87.04
439.423	113.39
439.634	132.96
439.845	108.74
440.057	98.08
440.268	118.43
440.479	65.15
440.69	120.37
440.902	69.99
441.113	103.9
441.324	82.78
441.535	110.68
441.746	133.93
441.957	78.9
442.168	78.71
442.38	93.43
442.591	115.72
442.802	80.26
443.013	94.21
443.224	115.72
443.435	68.44
443.646	89.37
443.857	76
444.068	77.55
444.279	95.18
444.49	148.65
444.701	100.02
444.912	185.27
445.123	131.41
445.334	123.27
445.545	107.97
445.756	93.63
445.967	90.53
446.178	105.64
446.388	155.05
446.599	115.33
446.81	140.32
447.021	117.07
447.232	131.99
447.443	156.01
447.653	91.3
447.864	125.79
448.075	108.16
448.286	151.17
448.496	106.61
448.707	143.81
448.918	96.73
449.129	187.6
449.339	81.62
449.55	134.9
449.761	110.48
449.971	148.27
450.182	93.82
450.393	134.9
450.603	110.48
450.814	149.43
451.024	113.58
451.235	136.25
451.446	197.28
451.656	148.27
451.867	104.09
452.077	132.96
452.288	169.38
452.498	180.04
452.709	122.5
452.919	143.42
453.13	90.33
453.34	164.54
453.55	125.6
453.761	161.44
453.971	125.21
454.182	155.43
454.392	142.84
454.602	188.56
454.813	137.8
455.023	152.91
455.233	84.52
455.444	148.07
455.654	88.98
455.864	137.61
456.075	131.02
456.285	108.16
456.495	117.65
456.705	133.15
456.916	177.52
457.126	183.14
457.336	128.89
457.546	105.25
457.756	121.72
457.967	180.23
458.177	110.29
458.387	136.06
458.597	108.55
458.807	119.98
459.017	113.39
459.227	159.7
459.437	144.2
459.647	159.11
459.857	178.3
460.068	113.58
460.278	170.35
460.488	142.07
460.698	199.8
460.908	122.88
461.117	130.63
461.327	82.97
461.537	119.2
461.747	152.91
461.957	119.2
462.167	244.94
462.377	196.9
462.587	139.55
462.797	176.16
463.007	144.78
463.216	153.69
463.426	182.36
463.636	163.57
463.846	98.28
464.056	121.33
464.265	183.14
464.475	111.84
464.685	154.08
464.895	158.73
465.104	131.41
465.314	153.11
465.524	144.58
465.733	106.61
465.943	217.05
466.153	196.51
466.362	177.52
466.572	177.13
466.782	154.66
466.991	149.62
467.201	210.46
467.41	106.22
467.62	170.55
467.829	145.36
468.039	169.58
468.249	130.25
468.458	142.45
468.668	218.98
468.877	186.43
469.086	215.3
469.296	205.42
469.505	108.74
469.715	231
469.924	175.58
470.134	211.62
470.343	211.81
470.552	183.14
470.762	176.16
470.971	135.48
471.18	174.23
471.39	167.25
471.599	162.21
471.808	193.6
472.018	152.14
472.227	202.9
472.436	185.85
472.645	134.51
472.855	144.39
473.064	208.91
473.273	166.67
473.482	174.61
473.691	222.66
473.901	186.24
474.11	179.46
474.319	258.51
474.528	185.46
474.737	234.48
474.946	199.22
475.155	193.8
475.364	235.65
475.573	161.83
475.783	206
475.992	199.8
476.201	238.94
476.41	217.24
476.619	138.97
476.828	211.81
477.037	187.01
477.245	222.47
477.454	233.51
477.663	204.65
477.872	197.48
478.081	241.65
478.29	200
478.499	263.93
478.708	206.97
478.917	255.02
479.125	218.01
479.334	231.19
479.543	195.93
479.752	246.88
479.961	221.11
480.169	241.07
480.378	169.38
480.587	303.07
480.796	229.64
481.004	243.98
481.213	256.76
481.422	221.89
481.63	207.16
481.839	231.77
482.048	266.45
482.256	261.61
482.465	249.21
482.674	254.44
482.882	229.64
483.091	294.93
483.299	240.3
483.508	241.65
483.716	237.2
483.925	263.54
484.134	239.91
484.342	238.36
484.551	267.61
484.759	245.33
484.967	252.89
485.176	303.07
485.384	268.19
485.593	291.83
485.801	256.57
486.01	242.04
486.218	246.3
486.426	206.58
486.635	250.18
486.843	241.46
487.051	282.34
487.26	242.43
487.468	255.79
487.676	280.01
487.885	264.32
488.093	267.61
488.301	251.34
488.509	270.33
488.717	295.32
488.926	274.59
489.134	248.82
489.342	259.48
489.55	255.02
489.758	281.37
489.967	237
490.175	348.79
490.383	265.29
490.591	312.37
490.799	225.96
491.007	311.79
491.215	297.06
491.423	297.26
491.631	254.24
491.839	272.65
492.047	290.86
492.255	253.66
492.463	231
492.671	284.86
492.879	309.46
493.087	283.31
493.295	301.52
493.503	300.16
493.711	278.27
493.919	308.11
494.127	298.81
494.334	320.7
494.542	282.73
494.75	294.35
494.958	296.48
495.166	358.87
495.374	299
495.581	318.38
495.789	284.86
495.997	360.61
496.205	302.29
496.412	286.6
496.62	266.26
496.828	330.58
497.035	282.14
497.243	336.39
497.451	293.96
497.658	348.99
497.866	314.89
498.074	337.36
498.281	288.15
498.489	377.66
498.696	306.56
498.904	290.67
499.112	281.37
499.319	390.64
499.527	310.04
499.734	349.18
499.942	279.63
500.149	292.99
500.357	319.15
500.564	249.4
500.771	321.67
500.979	286.02
501.186	289.12
501.394	328.06
501.601	328.64
501.808	352.09
502.016	302.68
502.223	317.79
502.43	341.82
502.638	306.75
502.845	275.75
503.052	362.16
503.26	322.06
503.467	361.58
503.674	318.57
503.881	312.95
504.089	392.39
504.296	343.95
504.503	288.34
504.71	334.65
504.917	296.09
505.125	334.65
505.332	321.09
505.539	326.32
505.746	400.72
505.953	373.21
506.16	360.61
506.367	398.78
506.574	405.37
506.781	378.05
506.988	285.63
507.195	341.04
507.402	339.11
507.609	360.42
507.816	335.23
508.023	342.59
508.23	362.74
508.437	311.59
508.644	370.11
508.851	378.24
509.058	376.69
509.265	347.05
509.472	373.59
509.679	439.08
509.885	355.57
510.092	376.11
510.299	354.61
510.506	387.16
510.713	362.36
510.92	379.21
511.126	367.59
511.333	390.45
511.54	424.55
511.746	420.67
511.953	435.2
512.16	389.29
512.367	370.69
512.573	382.31
512.78	357.51
512.987	370.3
513.193	364.1
513.4	346.27
513.606	375.72
513.813	393.74
514.02	390.84
514.226	467.56
514.433	421.84
514.639	353.83
514.846	364.87
515.052	366.23
515.259	389.87
515.465	385.22
515.672	398.39
515.878	480.54
516.085	386.96
516.291	429.97
516.497	368.56
516.704	378.44
516.91	345.89
517.117	356.93
517.323	339.69
517.529	366.04
517.736	362.55
517.942	367.59
518.148	353.25
518.354	380.18
518.561	398.97
518.767	376.89
518.973	432.1
519.179	401.49
519.386	390.84
519.592	396.84
519.798	383.47
520.004	433.65
520.21	381.92
520.417	443.92
520.623	437.14
520.829	442.18
521.035	481.12
521.241	462.14
521.447	468.72
521.653	523.75
521.859	451.67
522.065	439.27
522.271	500.3
522.477	485
522.683	485
522.889	485.58
523.095	468.72
523.301	476.09
523.507	452.06
523.713	516.97
523.919	446.64
524.125	496.24
524.331	460
524.537	514.25
524.742	514.64
524.948	521.81
525.154	468.72
525.36	596.01
525.566	520.65
525.772	546.8
525.977	451.87
526.183	496.24
526.389	523.36
526.595	490.81
526.8	508.83
527.006	461.75
527.212	475.31
527.417	454.39
527.623	426.87
527.829	510.57
528.034	493.72
528.24	483.25
528.446	486.16
528.651	533.43
528.857	526.85
529.062	571.22
529.268	503.02
529.473	528.98
529.679	483.64
529.884	574.51
530.09	567.92
530.295	604.15
530.501	554.36
530.706	552.03
530.912	500.69
531.117	550.29
531.323	544.87
531.528	570.25
531.733	553.2
531.939	504.18
532.144	578.77
532.35	552.03
532.555	571.6
532.76	607.25
532.966	591.17
533.171	585.94
533.376	535.95
533.581	509.22
533.787	574.32
533.992	587.49
534.197	607.83
534.402	542.54
534.607	572.77
534.813	648.91
535.018	567.53
535.223	539.63
535.428	585.36
535.633	606.86
535.838	613.84
536.043	590.59
536.249	673.9
536.454	583.03
536.659	607.83
536.864	559.4
537.069	588.07
537.274	618.1
537.479	611.71
537.684	619.07
537.889	530.33
538.094	658.4
538.299	595.05
538.504	638.83
538.708	613.45
538.913	591.95
539.118	581.48
539.323	625.66
539.528	583.62
539.733	619.65
539.938	617.52
540.142	621.98
540.347	637.86
540.552	585.55
540.757	619.85
540.962	599.11
541.166	562.69
541.371	558.04
541.576	584.2
541.781	509.22
541.985	602.41
542.19	602.8
542.395	648.71
542.599	670.03
542.804	664.02
543.008	649.68
543.213	613.26
543.418	574.9
543.622	608.22
543.827	572.77
544.031	632.83
544.236	652.98
544.44	622.17
544.645	689.59
544.849	612.48
545.054	666.15
545.258	677.78
545.463	652.4
545.667	620.23
545.872	622.36
546.076	653.36
546.281	629.15
546.485	614.61
546.689	633.02
546.894	674.87
547.098	646.78
547.302	583.03
547.507	643.68
547.711	655.3
547.915	709.36
548.119	607.06
548.324	649.1
548.528	682.81
548.732	650.65
548.936	701.8
549.141	691.34
549.345	626.24
549.549	636.31
549.753	624.69
549.957	703.16
550.161	700.25
550.366	641.16
550.57	619.26
550.774	680.29
550.978	648.91
551.182	657.24
551.386	614.81
551.59	649.3
551.794	623.72
551.998	652.98
552.202	612.1
552.406	588.85
552.61	654.91
552.814	658.98
553.018	721.18
553.222	632.05
553.426	620.62
553.63	700.06
553.833	660.53
554.037	624.88
554.241	665.96
554.445	659.18
554.649	625.66
554.853	637.48
555.056	654.91
555.26	701.03
555.464	676.03
555.668	656.66
555.871	658.6
556.075	683.39
556.279	622.75
556.483	610.35
556.686	644.65
556.89	653.56
557.094	683.78
557.297	583.03
557.501	681.26
557.704	607.06
557.908	652.78
558.112	637.48
558.315	672.35
558.519	592.72
558.722	611.71
558.926	639.8
559.129	595.43
559.333	569.28
559.536	598.53
559.74	578.19
559.943	582.84
560.147	601.83
560.35	602.6
560.553	578
560.757	542.15
560.96	649.1
561.164	600.47
561.367	678.55
561.57	597.95
561.774	634.57
561.977	597.18
562.18	601.63
562.384	661.7
562.587	602.41
562.79	584
562.993	603.96
563.197	640.58
563.4	646.2
563.603	672.93
563.806	699.48
564.009	565.79
564.212	603.38
564.416	587.3
564.619	631.28
564.822	585.75
565.025	615.78
565.228	591.17
565.431	584.58
565.634	519.48
565.837	553.58
566.04	571.8
566.243	575.28
566.446	522.2
566.649	563.47
566.852	506.7
567.055	533.63
567.258	578.58
567.461	624.11
567.664	621.98
567.867	507.28
568.07	565.21
568.273	584.97
568.475	586.33
568.678	533.24
568.881	532.47
569.084	552.03
569.287	466.59
569.489	505.73
569.692	553
569.895	581.1
570.098	494.88
570.3	526.07
570.503	467.17
570.706	481.9
570.909	482.29
571.111	474.73
571.314	505.15
571.516	507.67
571.719	515.22
571.922	483.84
572.124	488.87
572.327	510.96
572.529	451.67
572.732	423.58
572.935	488.49
573.137	520.45
573.34	490.62
573.542	502.24
573.745	519.1
573.947	497.79
574.15	477.44
574.352	443.73
574.554	530.72
574.757	457.68
574.959	484.61
575.162	486.74
575.364	443.15
575.566	558.82
575.769	459.42
575.971	484.42
576.173	405.37
576.376	455.55
576.578	495.27
576.78	529.95
576.982	412.54
577.185	457.68
577.387	438.11
577.589	412.34
577.791	488.1
577.993	473.57
578.196	433.27
578.398	478.6
578.6	471.44
578.802	433.65
579.004	448.96
579.206	430.75
579.408	469.3
579.61	442.95
579.812	442.95
580.014	446.05
580.216	448.38
580.418	427.45
580.62	408.66
580.822	390.06
581.024	441.99
581.226	454.58
581.428	450.9
581.63	517.55
581.832	408.27
582.034	481.32
582.236	441.02
582.438	477.05
582.64	491.2
582.841	488.68
583.043	523.94
583.245	463.69
583.447	467.75
583.649	450.12
583.85	440.05
584.052	508.83
584.254	408.08
584.456	505.53
584.657	430.75
584.859	415.64
585.061	415.44
585.262	437.14
585.464	413.51
585.666	472.4
585.867	393.55
586.069	510.18
586.27	443.73
586.472	449.15
586.674	428.23
586.875	448.77
587.077	418.15
587.278	425.32
587.48	425.71
587.681	518.32
587.883	459.04
588.084	387.16
588.285	395.1
588.487	428.04
588.688	437.14
588.89	383.47
589.091	372.82
589.292	390.64
589.494	405.37
589.695	380.96
589.896	374.37
590.098	355.96
590.299	408.08
590.5	374.76
590.702	373.79
590.903	404.98
591.104	456.13
591.305	395.1
591.507	488.1
591.708	416.6
591.909	379.41
592.11	476.28
592.311	435.4
592.512	406.92
592.714	354.02
592.915	350.15
593.116	367.2
593.317	393.94
593.518	394.13
593.719	367.59
593.92	435.2
594.121	440.44
594.322	416.41
594.523	422.42
594.724	350.15
594.925	394.32
595.126	416.02
595.327	405.56
595.528	412.15
595.729	405.56
595.929	409.63
596.13	401.69
596.331	404.21
596.532	412.34
596.733	451.48
596.934	410.6
597.135	436.37
597.335	429.97
597.536	363.52
597.737	392.77
597.938	391.03
598.138	419.9
598.339	401.11
598.54	408.47
598.74	392
598.941	428.04
599.142	426.87
599.342	435.79
599.543	370.49
599.744	398.59
599.944	377.27
600.145	393.94
600.345	397.23
600.546	476.09
600.746	429.39
600.947	447.8
601.147	430.17
601.348	413.51
601.548	373.79
601.749	409.24
601.949	362.74
602.15	362.74
602.35	398.01
602.551	416.6
602.751	383.67
602.951	398.59
603.152	332.71
603.352	412.73
603.552	381.73
603.753	424.16
603.953	456.52
604.153	428.04
604.354	413.7
604.554	389.87
604.754	416.22
604.954	361.77
605.155	402.27
605.355	358.48
605.555	437.14
605.755	425.32
605.955	375.72
606.155	431.14
606.356	392.77
606.556	430.17
606.756	413.7
606.956	350.15
607.156	425.32
607.356	370.88
607.556	412.34
607.756	416.02
607.956	427.45
608.156	411.37
608.356	394.32
608.556	438.69
608.756	400.14
608.956	350.54
609.156	406.14
609.356	374.56
609.556	371.46
609.755	392.77
609.955	343.37
610.155	389.87
610.355	378.24
610.555	372.82
610.755	390.06
610.954	337.94
611.154	404.01
611.354	425.32
611.554	356.16
611.753	377.86
611.953	334.84
612.153	386.96
612.352	379.6
612.552	348.79
612.752	323.03
612.951	362.16
613.151	373.4
613.351	327.68
613.55	339.69
613.75	380.76
613.949	362.55
614.149	410.41
614.348	384.44
614.548	339.88
614.747	327.87
614.947	355.19
615.146	287.18
615.346	385.8
615.545	346.47
615.745	369.52
615.944	400.52
616.144	363.52
616.343	390.64
616.542	334.07
616.742	349.18
616.941	368.75
617.14	319.15
617.34	347.82
617.539	354.99
617.738	314.5
617.938	388.12
618.137	343.56
618.336	300.16
618.535	347.63
618.734	321.28
618.934	363.91
619.133	351.31
619.332	336.78
619.531	328.45
619.73	342.21
619.929	365.84
620.128	359.64
620.328	420.29
620.527	307.53
620.726	343.37
620.925	367.39
621.124	325.74
621.323	346.47
621.522	284.08
621.721	291.44
621.92	303.84
622.119	379.21
622.318	301.71
622.517	349.57
622.715	343.95
622.914	273.23
623.113	310.82
623.312	272.46
623.511	340.27
623.71	312.18
623.909	308.49
624.107	364.29
624.306	280.01
624.505	306.94
624.704	318.18
624.902	313.14
625.101	352.86
625.3	341.82
625.499	300.94
625.697	308.69
625.896	280.01
626.095	297.64
626.293	267.61
626.492	280.21
626.69	342.98
626.889	292.8
627.088	345.11
627.286	268.19
627.485	271.49
627.683	285.24
627.882	318.76
628.08	231.77
628.279	297.45
628.477	382.7
628.676	283.5
628.874	351.7
629.073	280.01
629.271	267.42
629.469	325.54
629.668	273.81
629.866	308.49
630.065	268.78
630.263	292.22
630.461	250.76
630.66	307.53
630.858	319.34
631.056	316.83
631.254	339.3
631.453	282.92
631.651	304.43
631.849	307.14
632.047	314.31
632.245	295.32
632.444	296.87
632.642	279.43
632.84	312.95
633.038	285.24
633.236	234.29
633.434	256.76
633.632	276.72
633.83	284.86
634.028	324.58
634.227	298.61
634.425	339.11
634.623	322.83
634.821	305.98
635.019	289.31
635.216	282.34
635.414	286.79
635.612	299.39
635.81	271.88
636.008	326.51
636.206	264.13
636.404	330
636.602	253.47
636.8	276.33
636.997	323.03
637.195	304.62
637.393	286.6
637.591	344.53
637.789	319.54
637.986	262.19
638.184	282.14
638.382	326.9
638.58	311.98
638.777	338.52
638.975	298.42
639.173	278.08
639.37	296.48
639.568	324.38
639.765	315.47
639.963	285.83
640.161	336.2
640.358	323.61
640.556	261.03
640.753	267.23
640.951	277.88
641.148	316.24
641.346	288.15
641.543	278.46
641.741	295.32
641.938	257.73
642.136	274.01
642.333	261.03
642.531	328.84
642.728	330.39
642.925	287.57
643.123	281.76
643.32	290.67
643.517	276.33
643.715	284.47
643.912	268.78
644.109	274.78
644.306	272.46
644.504	232.93
644.701	301.33
644.898	306.36
645.095	277.3
645.293	305.98
645.49	280.59
645.687	302.1
645.884	292.22
646.081	236.23
646.278	268.58
646.475	275.17
646.672	264.71
646.87	277.11
647.067	274.01
647.264	295.71
647.461	253.86
647.658	215.88
647.855	288.54
648.052	250.95
648.249	184.5
648.446	273.04
648.642	250.56
648.839	229.83
649.036	266.26
649.233	201.93
649.43	238.36
649.627	222.66
649.824	248.04
650.021	242.04
650.217	239.13
650.414	248.04
650.611	263.93
650.808	240.88
651.004	274.78
651.201	256.38
651.398	271.49
651.595	260.64
651.791	193.6
651.988	275.75
652.185	249.98
652.381	258.51
652.578	197.48
652.775	250.95
652.971	223.44
653.168	232.74
653.364	258.89
653.561	189.15
653.757	218.79
653.954	223.63
654.15	189.73
654.347	284.08
654.543	247.27
654.74	176.16
654.936	197.67
655.133	266.26
655.329	226.93
655.525	237.2
655.722	284.28
655.918	193.02
656.115	236.61
656.311	166.48
656.507	179.85
656.704	185.66
656.9	198.64
657.096	185.66
657.292	193.41
657.489	247.08
657.685	240.68
657.881	213.95
658.077	213.36
658.273	203.29
658.47	298.81
658.666	198.45
658.862	265.29
659.058	212.98
659.254	255.99
659.45	180.04
659.646	206.39
659.842	208.71
660.038	264.32
660.234	218.6
660.43	209.3
660.626	266.84
660.822	249.01
661.018	265.87
661.214	247.08
661.41	169.58
661.606	268.39
661.802	247.85
661.998	229.25
662.194	192.05
662.39	244.36
662.586	224.02
662.781	226.93
662.977	237.2
663.173	234.68
663.369	244.17
663.564	237.58
663.76	258.7
663.956	207.55
664.152	261.8
664.347	186.05
664.543	204.26
664.739	196.12
664.934	195.73
665.13	164.73
665.326	231.19
665.521	250.95
665.717	185.85
665.912	200
666.108	162.21
666.304	201.74
666.499	205.61
666.695	168.41
666.89	217.43
667.086	256.38
667.281	232.55
667.477	253.08
667.672	228.28
667.867	222.28
668.063	245.14
668.258	164.35
668.454	208.91
668.649	288.34
668.844	197.67
669.04	231.77
669.235	190.11
669.43	190.5
669.626	150.78
669.821	206.58
670.016	208.91
670.211	212.01
670.407	185.85
670.602	200.96
670.797	185.66
670.992	238.94
671.187	179.07
671.382	235.06
671.578	189.53
671.773	224.6
671.968	166.28
672.163	194.57
672.358	237.2
672.553	203.68
672.748	208.52
672.943	268.19
673.138	200.19
673.333	217.63
673.528	186.05
673.723	239.52
673.918	205.23
674.113	179.46
674.308	278.66
674.503	216.46
674.698	225.57
674.892	220.15
675.087	230.41
675.282	221.5
675.477	194.57
675.672	240.29
675.867	210.07
676.061	158.15
676.256	170.93
676.451	176.16
676.646	205.81
676.84	174.81
677.035	148.65
677.23	188.56
677.424	221.5
677.619	255.02
677.814	266.84
678.008	248.43
678.203	137.8
678.397	161.05
678.592	239.33
678.787	247.46
678.981	188.18
679.176	224.99
679.37	209.88
679.565	176.36
679.759	170.74
679.954	205.03
680.148	234.1
680.342	229.25
680.537	220.34
680.731	210.46
680.926	230.41
681.12	234.29
681.314	197.48
681.509	181.01
681.703	190.31
681.897	215.11
682.092	194.76
682.286	147.3
682.48	252.31
682.674	235.06
682.869	187.98
683.063	192.44
683.257	264.51
683.451	173.06
683.645	218.79
683.839	212.01
684.034	191.66
684.228	243.39
684.422	176.16
684.616	159.89
684.81	199.22
685.004	191.28
685.198	193.6
685.392	226.15
685.586	172.48
685.78	230.22
685.974	225.96
686.168	236.42
686.362	241.07
686.556	193.99
686.75	171.13
686.944	193.99
687.138	211.04
687.331	122.5
687.525	188.56
687.719	146.13
687.913	183.53
688.107	193.02
688.301	156.79
688.494	179.07
688.688	169.77
688.882	122.3
689.076	99.83
689.269	177.71
689.463	246.69
689.657	175.58
689.85	164.35
690.044	178.68
690.238	164.35
690.431	159.89
690.625	134.7
690.818	208.91
691.012	177.13
691.205	201.93
691.399	133.15
691.593	196.9
691.786	222.28
691.98	212.78
692.173	239.13
692.366	208.91
692.56	200.38
692.753	274.01
692.947	178.1
693.14	244.75
693.333	226.35
693.527	175.97
693.72	205.23
693.914	212.01
694.107	201.16
694.3	203.87
694.493	202.13
694.687	223.63
694.88	205.03
695.073	254.44
695.266	261.99
695.46	237.2
695.653	271.29
695.846	261.8
696.039	188.37
696.232	219.76
696.425	228.86
696.618	249.21
696.812	257.15
697.005	281.56
697.198	311.59
697.391	284.86
697.584	243.2
697.777	329.81
697.97	299
698.163	280.01
698.356	276.53
698.549	356.54
698.742	298.42
698.935	288.93
699.127	315.66
699.32	275.36
699.513	274.59
699.706	290.86
699.899	330.97
700.092	303.07
700.285	330
700.477	254.83
700.67	326.51
700.863	349.37
701.056	391.81
701.248	395.1
701.441	373.01
701.634	351.51
701.826	404.4
702.019	329.22
702.212	404.21
702.404	338.91
702.597	354.22
702.79	365.46
702.982	392.58
703.175	404.79
703.367	401.88
703.56	379.79
703.752	438.89
703.945	418.74
704.137	422.42
704.33	438.3
704.522	462.52
704.715	419.32
704.907	454.58
705.1	462.52
705.292	437.53
705.484	445.09
705.677	488.87
705.869	476.86
706.061	505.53
706.254	521.81
706.446	487.71
706.638	476.09
706.831	561.14
707.023	481.9
707.215	531.69
707.407	529.37
707.599	530.33
707.792	570.25
707.984	544.28
708.176	618.1
708.368	535.37
708.56	556.49
708.752	559.78
708.944	548.93
709.136	592.33
709.329	536.15
709.521	654.33
709.713	636.31
709.905	642.71
710.097	664.99
710.289	614.03
710.481	632.25
710.672	636.12
710.864	640
711.056	671.19
711.248	695.02
711.44	667.31
711.632	662.47
711.824	698.12
712.016	726.21
712.207	690.95
712.399	718.46
712.591	743.84
712.783	712.65
712.975	742.49
713.166	702.77
713.358	723.5
713.55	776.39
713.741	797.71
713.933	750.24
714.125	754.31
714.316	743.65
714.508	781.62
714.7	831.81
714.891	766.51
715.083	825.99
715.274	787.05
715.466	798.09
715.657	864.16
715.849	759.15
716.04	807.78
716.232	757.79
716.423	840.91
716.615	772.71
716.806	785.89
716.998	762.06
717.189	755.47
717.381	691.53
717.572	675.65
717.763	736.29
717.955	722.53
718.146	699.67
718.337	668.67
718.528	649.1
718.72	619.85
718.911	687.66
719.102	629.53
719.293	685.53
719.485	681.26
719.676	659.56
719.867	627.4
720.058	649.68
720.249	670.61
720.44	701.41
720.632	719.04
720.823	743.26
721.014	776.2
721.205	748.69
721.396	792.09
721.587	853.31
721.778	877.92
721.969	877.72
722.16	952.7
722.351	904.65
722.542	998.62
722.733	1002.88
722.924	923.25
723.115	993
723.305	1011.8
723.496	993.2
723.687	897.49
723.878	920.35
724.069	923.25
724.26	927.32
724.45	909.5
724.641	875.2
724.832	965.88
725.023	913.37
725.213	894.58
725.404	900.2
725.595	907.75
725.785	869.78
725.976	947.86
726.167	933.72
726.357	967.62
726.548	1021.29
726.739	975.18
726.929	997.85
727.12	1024
727.31	1044.73
727.501	1017.8
727.691	1017.61
727.882	1024.2
728.072	1051.13
728.263	1047.83
728.453	1063.14
728.644	1056.94
728.834	1075.15
729.024	1023.42
729.215	1058.1
729.405	1062.75
729.596	1132.31
729.786	1127.27
729.976	1144.51
730.167	1137.93
730.357	1151.1
730.547	1102.47
730.737	1172.99
730.928	1203.8
731.118	1211.16
731.308	1144.9
731.498	1163.31
731.688	1222.59
731.879	1231.51
732.069	1237.12
732.259	1284.01
732.449	1297.19
732.639	1334.19
732.829	1317.72
733.019	1362.09
733.209	1403.55
733.399	1392.9
733.589	1427
733.779	1463.81
733.969	1402.39
734.159	1492.1
734.349	1508.18
734.539	1525.23
734.729	1508.56
734.919	1546.15
735.109	1588.19
735.299	1567.08
735.488	1542.66
735.678	1564.75
735.868	1543.83
736.058	1596.14
736.248	1529.1
736.437	1539.95
736.627	1526.39
736.817	1631.79
737.007	1569.59
737.196	1623.65
737.386	1628.11
737.576	1553.71
737.765	1631.01
737.955	1616.68
738.144	1708.12
738.334	1681.19
738.524	1652.32
738.713	1650.19
738.903	1687.2
739.092	1706.38
739.282	1712.77
739.471	1730.79
739.661	1689.33
739.85	1708.9
740.04	1705.61
740.229	1729.63
740.419	1723.43
740.608	1788.14
740.797	1768.38
740.987	1794.34
741.176	1783.69
741.365	1747.45
741.555	1730.21
741.744	1792.02
741.933	1765.67
742.123	1819.72
742.312	1792.6
742.501	1822.43
742.69	1836.97
742.88	1780.97
743.069	1877.46
743.258	1851.11
743.447	1862.35
743.636	1854.98
743.825	1860.6
744.014	1910.98
744.204	1860.99
744.393	1853.63
744.582	1869.32
744.771	1915.63
744.96	1880.37
745.149	1901.68
745.338	1885.6
745.527	1913.69
745.716	1881.72
745.905	1877.07
746.094	1954.38
746.283	1952.05
746.471	1942.56
746.66	1989.83
746.849	1942.17
747.038	1955.93
747.227	1915.63
747.416	1958.06
747.604	1893.93
747.793	1909.04
747.982	1949.53
748.171	1968.52
748.359	1970.46
748.548	1948.95
748.737	1927.45
748.926	1906.71
749.114	1867.19
749.303	1904.97
749.491	1911.95
749.68	1855.95
749.869	1944.11
750.057	1927.25
750.246	1902.45
750.434	1922.41
750.623	1888.5
750.811	1878.23
751	1919.7
751.188	1907.68
751.377	1925.51
751.565	1924.15
751.754	1878.04
751.942	1888.89
752.131	1923.38
752.319	1872.42
752.507	1885.6
752.696	1954.18
752.884	1971.04
753.072	1901.87
753.261	1914.08
753.449	1902.06
753.637	1917.37
753.825	1966.78
754.014	1897.8
754.202	1920.08
754.39	1954.38
754.578	1962.51
754.766	1886.18
754.955	1868.16
755.143	1937.33
755.331	1856.92
755.519	1916.01
755.707	1902.26
755.895	1848.4
756.083	1890.63
756.271	1874.55
756.459	1864.67
756.647	1917.76
756.835	1874.36
757.023	1868.55
757.211	1878.82
757.399	1854.6
757.587	1876.49
757.775	1821.47
757.963	1844.72
758.151	1867.19
758.339	1787.37
758.526	1817.2
758.714	1838.9
758.902	1775.16
759.09	1749.97
759.278	1611.83
759.465	1515.93
759.653	1277.62
759.841	1185.01
760.028	979.44
760.216	837.04
760.404	849.82
760.591	647.75
760.779	575.67
760.967	492.17
761.154	385.8
761.342	425.52
761.529	447.02
761.717	471.24
761.905	440.05
762.092	466.59
762.28	452.06
762.467	455.94
762.655	392
762.842	415.64
763.029	435.98
763.217	442.95
763.404	432.3
763.592	430.36
763.779	409.05
763.966	425.52
764.154	485.19
764.341	499.72
764.528	503.98
764.716	528.4
764.903	545.25
765.09	576.45
765.277	641.16
765.465	746.36
765.652	765.74
765.839	793.25
766.026	854.09
766.213	887.8
766.4	959.87
766.588	1107.31
766.775	1033.5
766.962	1116.61
767.149	1154.01
767.336	1264.06
767.523	1194.5
767.71	1275.29
767.897	1360.93
768.084	1444.63
768.271	1443.08
768.458	1442.5
768.645	1484.93
768.832	1462.84
769.019	1493.84
769.206	1516.51
769.392	1592.07
769.579	1668.79
769.766	1564.75
769.953	1563.98
770.14	1638.57
770.327	1642.44
770.513	1652.52
770.7	1714.71
770.887	1622.29
771.073	1662.4
771.26	1647.29
771.447	1598.27
771.634	1601.76
771.82	1695.53
772.007	1636.63
772.193	1654.26
772.38	1685.46
772.567	1663.17
772.753	1668.41
772.94	1694.76
773.126	1695.34
773.313	1691.07
773.499	1665.89
773.686	1728.66
773.872	1659.3
774.059	1662.4
774.245	1625.01
774.432	1670.54
774.618	1628.69
774.804	1669.37
774.991	1604.08
775.177	1674.8
775.363	1669.57
775.55	1674.99
775.736	1591.49
775.922	1646.12
776.109	1632.76
776.295	1658.14
776.481	1622.68
776.667	1662.79
776.853	1627.14
777.04	1604.86
777.226	1601.37
777.412	1727.11
777.598	1572.5
777.784	1598.27
777.97	1582.38
778.156	1642.06
778.342	1607.38
778.528	1585.87
778.715	1542.08
778.901	1570.56
779.087	1565.53
779.272	1569.98
779.458	1564.36
779.644	1570.37
779.83	1549.45
780.016	1651.94
780.202	1587.03
780.388	1559.52
780.574	1517.86
780.76	1541.11
780.946	1615.71
781.131	1556.42
781.317	1527.55
781.503	1515.73
781.689	1524.84
781.874	1688.17
782.06	1541.11
782.246	1513.99
782.432	1520.19
782.617	1556.03
782.803	1613.38
782.989	1481.63
783.174	1507.4
783.36	1475.43
783.545	1530.85
783.731	1534.53
783.916	1447.53
784.102	1511.08
784.288	1468.85
784.473	1503.33
784.659	1505.66
784.844	1530.65
785.029	1471.56
785.215	1473.3
785.4	1427
785.586	1503.33
785.771	1438.04
785.956	1471.36
786.142	1467.49
786.327	1430.1
786.512	1443.85
786.698	1432.23
786.883	1431.07
787.068	1402.39
787.254	1446.57
787.439	1409.56
787.624	1418.08
787.809	1386.7
787.994	1386.7
788.18	1467.68
788.365	1408.98
788.55	1413.43
788.735	1401.03
788.92	1386.5
789.105	1389.02
789.29	1413.24
789.475	1352.79
789.66	1381.27
789.845	1342.91
790.03	1344.65
790.215	1376.82
790.4	1386.12
790.585	1401.42
790.77	1360.35
790.955	1300.87
791.14	1360.74
791.325	1404.52
791.51	1288.08
791.695	1329.93
791.879	1314.82
792.064	1318.5
792.249	1373.91
792.434	1333.03
792.618	1330.12
792.803	1372.75
792.988	1322.37
793.173	1308.42
793.357	1377.98
793.542	1303.39
793.727	1332.45
793.911	1366.35
794.096	1309.59
794.281	1350.47
794.465	1416.73
794.65	1350.47
794.834	1378.37
795.019	1414.6
795.203	1397.16
795.388	1344.85
795.572	1415.76
795.757	1344.65
795.941	1360.15
796.126	1371.78
796.31	1308.62
796.494	1332.45
796.679	1299.51
796.863	1301.06
797.048	1397.35
797.232	1343.69
797.416	1357.05
797.601	1341.75
797.785	1415.76
797.969	1386.7
798.153	1310.36
798.338	1355.89
798.522	1371.97
798.706	1351.24
798.89	1375.85
799.074	1458.19
799.258	1365.19
799.443	1348.14
799.627	1343.3
799.811	1380.69
799.995	1354.34
800.179	1333.03
800.363	1340.2
800.547	1403.17
800.731	1391.15
800.915	1312.1
801.099	1347.37
801.283	1332.84
801.467	1395.03
801.651	1338.07
801.835	1361.9
802.019	1354.73
802.202	1363.06
802.386	1319.08
802.57	1306.87
802.754	1341.17
802.938	1302.8
803.121	1323.73
803.305	1398.32
803.489	1324.12
803.673	1358.6
803.856	1380.11
804.04	1336.71
804.224	1377.59
804.407	1337.68
804.591	1303.77
804.775	1351.44
804.958	1348.92
805.142	1453.35
805.326	1348.14
805.509	1342.52
805.693	1383.21
805.876	1383.6
806.06	1404.52
806.243	1373.72
806.427	1387.67
806.61	1410.92
806.794	1337.29
806.977	1391.35
807.16	1381.85
807.344	1363.25
807.527	1361.9
807.71	1327.41
807.894	1365.77
808.077	1394.64
808.26	1336.71
808.444	1319.85
808.627	1375.85
808.81	1324.89
808.993	1323.92
809.177	1305.32
809.36	1317.14
809.543	1352.02
809.726	1265.8
809.909	1256.69
810.092	1259.99
810.276	1255.53
810.459	1278.78
810.642	1252.43
810.825	1230.54
811.008	1241.19
811.191	1180.94
811.374	1211.55
811.557	1206.9
811.74	1282.66
811.923	1192.76
812.106	1196.63
812.289	1148
812.472	1143.16
812.654	1213.29
812.837	1154.78
813.02	1143.54
813.203	1116.61
813.386	1039.89
813.569	1033.88
813.751	1016.25
813.934	1049.19
814.117	1040.86
814.3	990.87
814.482	968.2
814.665	954.45
814.848	957.93
815.03	885.67
815.213	915.7
815.396	920.54
815.578	892.45
815.761	857.19
815.943	962.97
816.126	869.2
816.309	858.35
816.491	801.58
816.674	734.54
816.856	802.55
817.039	814.37
817.221	864.16
817.403	835.49
817.586	837.62
817.768	861.25
817.951	801.58
818.133	786.08
818.315	805.26
818.498	840.72
818.68	878.3
818.862	852.73
819.045	888.38
819.227	843.04
819.409	827.74
819.591	883.15
819.774	819.79
819.956	825.8
820.138	885.67
820.32	856.99
820.502	875.4
820.684	938.17
820.866	908.53
821.048	960.84
821.231	956
821.413	936.82
821.595	929.45
821.777	899.81
821.959	949.02
822.141	981.38
822.323	864.94
822.505	850.79
822.686	844.98
822.868	838.59
823.05	765.54
823.232	775.62
823.414	695.21
823.596	761.48
823.778	720.98
823.96	764.77
824.141	744.81
824.323	751.98
824.505	805.46
824.687	825.8
824.868	871.33
825.05	915.31
825.232	918.6
825.413	982.54
825.595	928.68
825.777	903.49
825.958	919.57
826.14	890.7
826.321	972.47
826.503	929.26
826.685	927.52
826.866	943.02
827.048	938.75
827.229	910.47
827.411	852.73
827.592	866.87
827.773	877.53
827.955	816.89
828.136	843.82
828.318	833.36
828.499	851.96
828.68	827.54
828.862	820.96
829.043	852.92
829.224	830.84
829.406	797.32
829.587	804.49
829.768	820.96
829.949	820.37
830.131	792.67
830.312	860.87
830.493	839.56
830.674	807.78
830.855	800.42
831.036	821.15
831.218	861.64
831.399	881.79
831.58	816.89
831.761	827.54
831.942	846.34
832.123	814.17
832.304	793.83
832.485	821.92
832.666	823.67
832.847	856.99
833.028	815.72
833.209	829.67
833.389	808.94
833.57	779.88
833.751	806.04
833.932	876.56
834.113	827.35
834.294	804.68
834.475	871.91
834.655	864.35
834.836	884.89
835.017	831.61
835.198	794.61
835.378	834.52
835.559	866.68
835.74	844.21
835.92	833.16
836.101	798.48
836.281	835.29
836.462	871.72
836.643	859.9
836.823	887.6
837.004	871.72
837.184	910.66
837.365	900
837.545	890.51
837.726	877.14
837.906	894
838.087	856.41
838.267	877.72
838.448	832.19
838.628	839.36
838.808	897.29
838.989	933.72
839.169	853.12
839.349	903.88
839.53	878.89
839.71	891.48
839.89	829.67
840.07	918.99
840.251	827.54
840.431	904.85
840.611	880.44
840.791	855.05
840.971	876.37
841.151	841.11
841.332	843.82
841.512	933.91
841.692	835.87
841.872	864.94
842.052	873.65
842.232	901.75
842.412	819.21
842.592	872.88
842.772	877.72
842.952	878.69
843.132	832.77
843.312	832.97
843.492	825.41
843.672	866.29
843.851	801.39
844.031	843.24
844.211	837.62
844.391	839.94
844.571	835.49
844.751	849.63
844.93	809.52
845.11	813.4
845.29	850.02
845.47	873.46
845.649	854.09
845.829	868.81
846.009	830.06
846.188	846.92
846.368	856.99
846.547	820.57
846.727	858.15
846.907	784.72
847.086	845.95
847.266	854.86
847.445	828.51
847.625	816.5
847.804	809.14
847.984	859.32
848.163	807.78
848.343	838.2
848.522	824.06
848.701	843.04
848.881	778.52
849.06	809.72
849.239	827.54
849.419	837.23
849.598	762.44
849.777	800.61
849.957	787.63
850.136	726.99
850.315	732.8
850.494	726.99
850.674	761.67
850.853	802.94
851.032	753.34
851.211	797.9
851.39	739.58
851.569	734.16
851.748	738.81
851.927	790.54
852.107	779.69
852.286	741.52
852.465	724.08
852.644	763.99
852.823	754.69
853.002	763.99
853.181	743.07
853.359	775.04
853.538	703.54
853.717	804.87
853.896	708.58
854.075	689.79
854.254	678.36
854.433	639.41
854.611	710.71
854.79	643.48
854.969	648.91
855.148	697.93
855.327	639.8
855.505	689.4
855.684	644.45
855.863	693.28
856.041	645.61
856.22	667.12
856.399	656.08
856.577	751.4
856.756	714.39
856.934	841.49
857.113	829.09
857.291	709.94
857.47	701.99
857.648	730.48
857.827	756.44
858.005	725.05
858.184	728.15
858.362	776.97
858.541	735.71
858.719	701.22
858.898	710.33
859.076	733.38
859.254	754.11
859.433	689.01
859.611	708.97
859.789	682.62
859.967	770.58
860.146	756.05
860.324	658.6
860.502	695.02
860.68	665.57
860.859	688.63
861.037	689.01
861.215	698.31
861.393	712.46
861.571	708
861.749	681.07
861.927	717.3
862.105	690.76
862.283	701.22
862.461	682.04
862.639	668.48
862.817	683.39
862.995	658.98
863.173	673.13
863.351	696.96
863.529	679.13
863.707	728.15
863.885	676.23
864.063	608.03
864.241	620.23
864.418	717.11
864.596	652.59
864.774	642.51
864.952	680.88
865.129	680.49
865.307	621.2
865.485	592.33
865.663	686.3
865.84	611.9
866.018	631.28
866.196	540.02
866.373	555.52
866.551	568.12
866.728	539.25
866.906	570.44
867.084	569.86
867.261	606.67
867.439	587.3
867.616	609
867.794	603.76
867.971	611.51
868.149	608.03
868.326	646.78
868.503	646.2
868.681	643.29
868.858	601.44
869.035	579.16
869.213	679.13
869.39	601.44
869.567	683.78
869.745	621.4
869.922	613.45
870.099	655.69
870.276	654.53
870.454	645.03
870.631	638.45
870.808	602.6
870.985	622.36
871.162	671
871.339	609.19
871.517	573.73
871.694	529.75
871.871	609.96
872.048	615.39
872.225	572.57
872.402	617.33
872.579	550.87
872.756	640
872.933	553.58
873.11	596.01
873.287	613.65
873.463	570.25
873.64	582.26
873.817	606.28
873.994	575.48
874.171	547.58
874.348	594.85
874.524	546.03
874.701	574.12
874.878	551.84
875.055	618.68
875.231	612.87
875.408	623.14
875.585	529.37
875.762	567.92
875.938	563.85
876.115	578.58
876.291	549.32
876.468	597.18
876.645	535.76
876.821	544.48
876.998	546.03
877.174	551.65
877.351	560.17
877.527	526.65
877.704	552.42
877.88	563.08
878.057	553
878.233	593.69
878.409	559.4
878.586	529.37
878.762	527.23
878.938	537.5
879.115	484.22
879.291	519.87
879.467	479.77
879.644	510.18
879.82	553.97
879.996	510.18
880.172	509.02
880.349	492.36
880.525	559.2
880.701	484.42
880.877	518.71
881.053	514.83
881.229	530.92
881.405	547
881.581	471.82
881.757	507.28
881.933	533.43
882.109	536.73
882.285	491.39
882.461	491.2
882.637	497.59
882.813	498.75
882.989	508.44
883.165	564.05
883.341	482.29
883.517	519.1
883.693	541.96
883.869	530.14
884.044	511.73
884.22	552.03
884.396	553.39
884.572	506.12
884.747	532.27
884.923	508.83
885.099	544.28
885.275	579.55
885.45	488.49
885.626	493.52
885.801	508.25
885.977	496.04
886.153	479.57
886.328	517.93
886.504	457.1
886.679	528.01
886.855	500.3
887.03	512.32
887.206	525.49
887.381	516.58
887.557	529.17
887.732	516.19
887.908	543.51
888.083	557.46
888.258	498.17
888.434	489.07
888.609	503.21
888.784	530.33
888.96	513.48
889.135	474.15
889.31	497.2
889.485	516
889.661	500.89
889.836	515.03
890.011	537.7
890.186	483.06
890.361	515.03
890.537	493.91
890.712	509.99
890.887	515.42
891.062	507.67
891.237	557.07
891.412	466.2
891.587	511.73
891.762	524.33
891.937	569.47
892.112	462.72
892.287	492.17
892.462	472.21
892.637	464.46
892.812	455.55
892.987	477.64
893.161	467.75
893.336	466.59
893.511	472.99
893.686	470.66
893.861	433.46
894.035	451.67
894.21	446.25
894.385	412.54
894.56	439.08
894.734	389.67
894.909	425.9
895.084	396.07
895.258	419.51
895.433	428.23
895.608	423.19
895.782	386.38
895.957	383.28
896.131	395.1
896.306	356.74
896.48	343.76
896.655	364.29
896.829	295.13
897.004	334.46
897.178	349.18
897.353	331.16
897.527	338.72
897.701	348.79
897.876	301.33
898.05	362.55
898.224	328.84
898.399	396.84
898.573	319.15
898.747	277.88
898.921	324.58
899.096	240.1
899.27	265.68
899.444	261.03
899.618	289.12
899.792	297.45
899.967	285.63
900.141	294.54
900.315	250.18
900.489	274.39
900.663	307.91
900.837	279.24
901.011	265.68
901.185	339.3
901.359	316.05
901.533	300.94
901.707	317.21
901.881	284.08
902.055	251.14
902.229	298.81
902.403	336.97
902.576	293.38
902.75	301.13
902.924	379.21
903.098	320.12
903.272	367.2
903.446	381.73
903.619	356.74
903.793	364.68
903.967	345.5
904.14	391.61
904.314	381.15
904.488	389.09
904.661	377.27
904.835	392.58
905.009	402.07
905.182	436.95
905.356	393.94
905.529	362.55
905.703	360.81
905.876	337.17
906.05	311.98
906.223	341.43
906.397	259.48
906.57	314.89
906.744	272.26
906.917	274.2
907.09	296.09
907.264	303.46
907.437	256.96
907.61	249.21
907.784	274.78
907.957	290.86
908.13	237.97
908.304	309.27
908.477	254.83
908.65	264.71
908.823	225.18
908.996	303.65
909.17	257.34
909.343	238.55
909.516	273.62
909.689	261.22
909.862	243.39
910.035	261.41
910.208	231
910.381	224.41
910.554	303.46
910.727	259.48
910.9	256.18
911.073	231.77
911.246	282.53
911.419	278.85
911.592	267.23
911.765	243.39
911.938	230.8
912.11	233.9
912.283	247.85
912.456	285.44
912.629	261.03
912.802	242.81
912.974	222.28
913.147	196.51
913.32	169.77
913.493	185.08
913.665	206.58
913.838	203.48
914.01	211.43
914.183	212.2
914.356	201.93
914.528	241.46
914.701	265.68
914.873	265.68
915.046	213.56
915.218	186.82
915.391	158.92
915.563	172.29
915.736	246.3
915.908	244.36
916.081	209.3
916.253	212.2
916.425	192.05
916.598	243.59
916.77	226.54
916.942	174.81
917.115	162.41
917.287	244.75
917.459	215.69
917.632	195.93
917.804	143.62
917.976	210.85
918.148	211.81
918.32	182.95
918.493	214.14
918.665	277.49
918.837	209.49
919.009	237.97
919.181	257.34
919.353	212.01
919.525	220.15
919.697	218.21
919.869	228.28
920.041	291.25
920.213	330.77
920.385	226.73
920.557	211.04
920.729	249.21
920.901	248.43
921.073	232.35
921.244	210.46
921.416	246.88
921.588	226.54
921.76	199.61
921.932	310.63
922.103	218.6
922.275	234.48
922.447	255.79
922.619	169.38
922.79	211.23
922.962	190.5
923.134	258.12
923.305	186.63
923.477	182.36
923.648	200.58
923.82	207.75
923.991	181.4
924.163	159.5
924.335	207.55
924.506	172.1
924.677	231.96
924.849	180.81
925.02	212.2
925.192	210.26
925.363	170.35
925.535	207.55
925.706	189.92
925.877	222.08
926.049	158.73
926.22	221.7
926.391	198.25
926.562	242.81
926.734	175.58
926.905	216.85
927.076	149.23
927.247	184.69
927.419	178.68
927.59	146.13
927.761	162.41
927.932	168.8
928.103	181.78
928.274	137.8
928.445	146.33
928.616	134.7
928.787	171.32
928.958	188.56
929.129	154.46
929.3	176.16
929.471	93.43
929.642	90.72
929.813	58.37
929.984	123.85
930.155	69.02
930.326	123.85
930.496	67.67
930.667	20.78
930.838	70.96
931.009	56.62
931.18	98.47
931.35	74.64
931.521	86.07
931.692	22.91
931.863	-3.63
932.033	69.41
932.204	78.9
932.374	69.41
932.545	32.99
932.716	81.62
932.886	57.98
933.057	-6.54
933.227	34.54
933.398	98.08
933.568	38.6
933.739	5.86
933.909	12.64
934.08	85.49
934.25	-28.04
934.421	16.71
934.591	27.56
934.761	-10.03
934.932	-41.41
935.102	6.25
935.272	-10.61
935.443	23.49
935.613	13.42
935.783	27.37
935.953	-8.09
936.123	108.93
936.294	-1.7
936.464	-22.23
936.634	2.76
936.804	-38.51
936.974	-31.34
937.144	32.99
937.314	24.46
937.484	0.63
937.655	-37.15
937.825	42.09
937.995	-2.28
938.165	34.54
938.334	-8.09
938.504	16.32
938.674	8.38
938.844	-6.35
939.014	38.8
939.184	36.09
939.354	82.97
939.524	76.97
939.694	15.55
939.863	8.19
940.033	86.65
940.203	76.77
940.373	70.38
940.542	69.22
940.712	29.89
940.882	64.95
941.051	63.21
941.221	48.87
941.391	82.39
941.56	17.49
941.73	17.49
941.899	108.74
942.069	1.6
942.238	51.39
942.408	14.77
942.577	70.18
942.747	20.78
942.916	-0.73
943.086	10.51
943.255	62.44
943.425	35.5
943.594	6.83
943.763	-20.68
943.933	-17.58
944.102	-42.19
944.271	16.9
944.441	38.99
944.61	18.84
944.779	28.72
944.948	93.63
945.117	-26.88
945.287	2.95
945.456	-45.87
945.625	4.5
945.794	24.27
945.963	8.19
946.132	37.25
946.301	32.02
946.47	63.4
946.639	-15.65
946.808	2.18
946.977	48.49
947.146	79.1
947.315	-3.05
947.484	58.56
947.653	1.4
947.822	-7.31
947.991	9.54
948.16	75.42
948.329	65.15
948.498	9.74
948.666	45.58
948.835	53.72
949.004	-30.18
949.173	-10.61
949.341	21.55
949.51	58.75
949.679	63.21
949.847	42.67
950.016	83.17
950.185	73.67
950.353	20.2
950.522	24.65
950.69	41.12
950.859	-6.15
951.028	58.17
951.196	14.97
951.365	19.81
951.533	7.6
951.701	73.67
951.87	64.57
952.038	6.44
952.207	67.47
952.375	80.45
952.543	10.9
952.712	19.62
952.88	-7.12
953.048	94.4
953.217	35.31
953.385	64.37
953.553	32.99
953.721	19.62
953.89	17.68
954.058	-22.62
954.226	14.19
954.394	34.73
954.562	-5.18
954.73	17.49
954.898	20.2
955.067	75.42
955.235	10.12
955.403	57.4
955.571	68.25
955.739	33.18
955.907	-11.77
956.075	-1.31
956.243	23.69
956.41	27.56
956.578	-9.45
956.746	-10.8
956.914	12.84
957.082	51.97
957.25	30.66
957.418	6.64
957.585	45.77
957.753	57.4
957.921	-18.75
958.089	14.58
958.256	42.87
958.424	54.69
958.592	50.04
958.759	7.99
958.927	54.88
959.095	-1.31
959.262	32.6
959.43	45
959.597	-1.11
959.765	36.86
959.932	-28.63
960.1	58.56
960.267	36.28
960.435	24.65
960.602	60.3
960.77	28.72
960.937	-4.8
961.104	52.94
961.272	-19.52
961.439	20.39
961.606	57.4
961.774	67.08
961.941	15.55
962.108	44.22
962.275	47.71
962.443	74.64
962.61	34.92
962.777	78.71
962.944	52.36
963.111	45
963.278	48.1
963.446	25.43
963.613	47.52
963.78	62.24
963.947	57.79
964.114	32.21
964.281	117.07
964.448	56.24
964.615	20
964.782	43.25
964.949	82.58
965.116	70.77
965.282	89.95
965.449	45.77
965.616	24.85
965.783	61.08
965.95	37.83
966.117	15.16
966.283	42.09
966.45	45.97
966.617	27.56
966.784	83.17
966.95	68.05
967.117	87.23
967.284	23.69
967.45	11.67
967.617	58.17
967.784	33.76
967.95	105.06
968.117	33.95
968.283	50.42
968.45	125.21
968.616	52.94
968.783	90.53
968.949	33.76
969.116	87.04
969.282	21.75
969.449	55.07
969.615	57.01
969.781	14.97
969.948	-11.38
970.114	-0.53
970.28	93.63
970.447	13.42
970.613	78.9
970.779	53.33
970.945	44.61
971.112	62.05
971.278	30.85
971.444	35.5
971.61	85.49
971.776	31.82
971.942	74.25
972.108	76.58
972.275	37.44
972.441	50.81
972.607	122.69
972.773	2.95
972.939	45.39
973.105	67.67
973.271	16.32
973.437	33.76
973.602	21.36
973.768	73.67
973.934	49.07
974.1	66.89
974.266	-23.39
974.432	54.49
974.598	35.7
974.763	67.86
974.929	25.82
975.095	79.48
975.261	8.96
975.426	10.12
975.592	38.22
975.758	101.38
975.923	24.07
976.089	5.86
976.255	71.93
976.42	42.87
976.586	64.57
976.751	51
976.917	115.52
977.082	59.92
977.248	5.09
977.413	-40.44
977.579	13.22
977.744	44.61
977.91	-24.75
978.075	29.3
978.24	47.32
978.406	53.14
978.571	18.84
978.736	19.62
978.902	42.87
979.067	0.44
979.232	-5.38
979.397	66.31
979.563	75.8
979.728	7.02
979.893	42.87
980.058	9.74
980.223	65.15
980.388	39.38
980.554	34.54
980.719	34.73
980.884	26.01
981.049	83.36
981.214	-3.05
981.379	68.05
981.544	19.81
981.709	10.51
981.874	28.92
982.039	14.19
982.204	61.47
982.368	53.91
982.533	49.26
982.698	65.15
982.863	88.78
983.028	13.61
983.193	38.8
983.357	42.87
983.522	49.26
983.687	26.79
983.852	30.08
984.016	2.18
984.181	63.79
984.346	50.42
984.51	74.83
984.675	34.73
984.839	50.04
985.004	32.21
985.168	66.89
985.333	50.23
985.498	23.88
985.662	47.32
985.827	61.27
985.991	39.96
986.155	46.55
986.32	58.95
986.484	76.19
986.649	69.22
986.813	-19.91
986.977	28.34
987.142	55.27
987.306	1.02
987.47	34.73
987.634	57.79
987.799	51.2
987.963	36.86
988.127	69.41
988.291	113
988.455	63.79
988.62	51.78
988.784	47.52
988.948	72.51
989.112	29.5
989.276	52.36
989.44	35.7
989.604	24.07
989.768	7.22
989.932	116.49
990.096	8.57
990.26	21.36
990.424	4.7
990.588	26.4
990.752	113.78
990.915	64.57
991.079	38.02
991.243	22.52
991.407	60.11
991.571	32.21
991.734	38.6
991.898	66.31
992.062	115.91
992.226	26.4
992.389	28.14
992.553	-9.25
992.717	34.15
992.88	24.07
993.044	38.99
993.207	9.15
993.371	43.84
993.535	36.86
993.698	35.5
993.862	46.16
994.025	65.54
994.189	37.05
994.352	60.89
994.515	41.51
994.679	66.89
994.842	42.29
995.006	53.14
995.169	-13.32
995.332	19.04
995.496	63.02
995.659	-25.33
995.822	40.74
995.985	15.16
996.149	88.98
996.312	26.59
996.475	103.9
996.638	13.61
996.801	63.6
996.964	68.44
997.128	12.84
997.291	15.35
997.454	12.64
997.617	-15.65
997.78	63.79
997.943	17.68
998.106	43.64
998.269	15.74
998.432	34.73
998.595	17.68
998.758	-12.55
998.92	-5.57
999.083	-11.96
999.246	17.68
999.409	-4.41
999.572	-16.61
999.735	17.68
999.897	46.94
1000.06	7.99
1000.223	7.02
1000.386	46.16
1000.548	62.44
1000.711	55.27
1000.874	41.12
1001.036	-21.07
1001.199	64.76
1001.361	10.7
1001.524	1.4
1001.687	66.89
1001.849	15.74
1002.012	50.23
1002.174	59.92
1002.337	56.43
1002.499	18.84
1002.661	77.16
1002.824	-8.28
1002.986	10.32
1003.149	51
1003.311	22.72
1003.473	74.06
1003.636	-15.45
1003.798	56.62
1003.96	48.68
1004.123	39.19
1004.285	6.25
1004.447	11.48
1004.609	23.69
1004.771	57.4
1004.933	-15.84
1005.096	-12.16
1005.258	-42.19
1005.42	8.77
1005.582	37.44
1005.744	40.54
1005.906	-30.76
1006.068	13.03
1006.23	-12.74
1006.392	-36.18
1006.554	-15.65
1006.716	62.44
1006.878	35.89
1007.04	-21.65
1007.202	-7.31
1007.363	26.01
1007.525	13.22
1007.687	34.34
1007.849	33.57
1008.011	-27.66
1008.172	-28.04
1008.334	16.9
1008.496	18.65
1008.658	-42.19
1008.819	-0.15
1008.981	-35.21
1009.143	-8.67
1009.304	8.57
1009.466	18.45
1009.627	73.48
1009.789	111.65
1009.95	28.92
1010.112	-17.2
1010.273	35.12
1010.435	-21.07
1010.596	-1.5
1010.758	-3.25
1010.919	4.31
1011.081	-5.18
1011.242	20.59
1011.403	17.49
1011.565	16.71
1011.726	28.14
1011.887	-16.81
1012.049	-8.86
1012.21	53.14
1012.371	68.83
1012.532	-54.01
1012.693	26.79
1012.855	-5.38
1013.016	2.37
1013.177	33.57
1013.338	8.38
1013.499	72.7
1013.66	40.15
1013.821	23.69
1013.982	23.1
1014.143	14
1014.304	13.42
1014.465	38.8
1014.626	25.24
1014.787	-10.03
1014.948	62.63
1015.109	-48.39
1015.27	48.87
1015.431	-20.49
1015.592	7.22
1015.752	51.2
1015.913	26.98
1016.074	38.8
1016.235	7.99
1016.395	12.06
1016.556	12.84
1016.717	12.45
1016.877	27.56
1017.038	-15.06
1017.199	22.33
1017.359	28.34
1017.52	21.17
1017.681	-7.31
1017.841	20.97
1018.002	18.65
1018.162	2.18
1018.323	54.3
1018.483	35.31
1018.644	7.6
1018.804	-31.53
1018.964	-15.06
1019.125	3.92
1019.285	9.15
1019.446	0.05
1019.606	-8.09
1019.766	-46.45
1019.926	27.56
1020.087	32.02
1020.247	-45.68
1020.407	1.4
1020.567	35.5
1020.728	12.06
1020.888	-15.26
1021.048	-16.23
1021.208	-28.24
1021.368	-13.32
1021.528	32.99
1021.688	33.76
1021.848	58.75
1022.008	26.98
1022.168	1.02
1022.328	19.81
1022.488	23.1
1022.648	-7.7
1022.808	14.58
1022.968	16.13
1023.128	-6.73
1023.288	-4.99
1023.448	3.34
1023.608	58.17
1023.767	35.12
1023.927	-25.53
1024.087	-12.55
1024.247	-28.82
1024.406	-28.82
1024.566	-16.61
1024.726	-14.87
1024.885	14.58
1025.045	34.34
1025.205	7.6
1025.364	25.43
1025.524	8.19
1025.683	-15.06
1025.843	0.82
1026.003	14.58
1026.162	76.77
1026.321	44.22
1026.481	7.99
1026.64	-7.31
1026.8	-8.86
1026.959	-10.61
1027.119	6.25
1027.278	16.32
1027.437	-29.4
1027.597	10.51
1027.756	5.28
1027.915	18.65
1028.074	30.66
1028.234	-8.28
1028.393	4.12
1028.552	-5.38
1028.711	-53.23
1028.87	28.92
1029.03	-56.53
1029.189	6.25
1029.348	-21.26
1029.507	-16.61
1029.666	-22.23
1029.825	-36.18
1029.984	-27.27
1030.143	10.7
1030.302	-24.17
1030.461	-31.14
1030.62	-6.35
1030.779	12.64
1030.938	1.99
1031.097	-40.83
1031.255	15.16
1031.414	66.5
1031.573	24.65
1031.732	-23.01
1031.891	-37.93
1032.049	50.23
1032.208	29.3
1032.367	-32.69
1032.525	8.77
1032.684	-27.85
1032.843	12.84
1033.001	-28.82
1033.16	123.66
1033.319	48.87
1033.477	13.61
1033.636	-18.36
1033.794	-39.67
1033.953	34.34
1034.111	37.83
1034.27	-10.22
1034.428	29.89
1034.587	-7.9
1034.745	15.16
1034.903	-4.6
1035.062	44.8
1035.22	-55.36
1035.378	23.3
1035.537	-29.21
1035.695	16.9
1035.853	-15.84
1036.011	20.78
1036.17	10.9
1036.328	-43.74
1036.486	17.29
1036.644	16.9
1036.802	-85.78
1036.96	0.44
1037.119	-1.5
1037.277	-16.23
1037.435	-45.29
1037.593	-29.21
1037.751	5.67
1037.909	36.86
1038.067	36.86
