Data from oakcork_FLMT105791__6__17-26-41-067.txt Node

Date: Mon Mar 20 17:26:41 GMT 2023
User: antho
Spectrometer: FLMT10579
Trigger mode: 0
Integration Time (sec): 1.000000E-1
Scans to average: 10
Electric dark correction enabled: true
Nonlinearity correction enabled: false
Boxcar width: 0
XAxis mode: Wavelengths
Number of Pixels in Spectrum: 3648
>>>>>Begin Spectral Data<<<<<
345.248	-191.23
345.464	-191.23
345.681	-191.23
345.898	-188.13
346.114	-178.44
346.331	-15.89
346.548	32.94
346.764	5.04
346.981	-25.96
347.197	-17.44
347.414	9.11
347.631	-16.27
347.847	56.38
348.064	-2.13
348.28	12.59
348.497	-48.63
348.713	10.27
348.93	43.21
349.146	40.88
349.363	12.59
349.579	-6.39
349.796	-10.07
350.012	-10.85
350.229	26.35
350.445	1.74
350.661	-20.34
350.878	2.13
351.094	-0.19
351.311	17.24
351.527	26.54
351.743	-12.4
351.96	28.67
352.176	33.91
352.392	27.51
352.609	42.04
352.825	-12.01
353.041	-6.01
353.257	1.94
353.474	-22.09
353.69	15.11
353.906	24.02
354.122	-13.17
354.339	70.91
354.555	2.91
354.771	12.21
354.987	33.13
355.203	60.64
355.42	1.36
355.636	-7.17
355.852	-4.65
356.068	-16.27
356.284	-49.6
356.5	69.17
356.716	9.49
356.932	6.97
357.148	34.1
357.364	-15.69
357.58	46.69
357.796	62.58
358.012	54.83
358.228	23.64
358.444	-42.04
358.66	83.31
358.876	36.42
359.092	-29.06
359.308	4.07
359.524	21.12
359.74	7.94
359.956	1.55
360.172	7.36
360.388	39.52
360.604	0.19
360.819	90.09
361.035	13.76
361.251	18.79
361.467	-5.62
361.683	48.82
361.898	18.02
362.114	38.36
362.33	20.73
362.546	45.53
362.762	-4.65
362.977	15.31
363.193	-1.55
363.409	39.33
363.624	-44.56
363.84	26.54
364.056	-14.53
364.271	21.89
364.487	49.02
364.703	-15.69
364.918	-54.83
365.134	12.21
365.35	4.46
365.565	125.35
365.781	-10.27
365.996	29.45
366.212	78.66
366.427	30.03
366.643	1.94
366.858	9.88
367.074	-25.38
367.289	39.14
367.505	106.95
367.72	-41.85
367.936	6.01
368.151	62.58
368.367	55.99
368.582	27.32
368.798	-11.62
369.013	56.77
369.228	33.32
369.444	15.89
369.659	60.84
369.874	61.61
370.09	82.15
370.305	-44.56
370.52	-6.59
370.736	62.19
370.951	12.21
371.166	75.56
371.381	73.24
371.597	35.46
371.812	-24.41
372.027	5.04
372.242	23.06
372.458	65.29
372.673	6.78
372.888	8.72
373.103	18.02
373.318	108.11
373.533	46.69
373.749	42.24
373.964	-18.02
374.179	74.01
374.394	-24.61
374.609	70.91
374.824	-32.16
375.039	47.66
375.254	-0.39
375.469	92.8
375.684	6.01
375.899	70.91
376.114	10.66
376.329	30.22
376.544	67.81
376.759	60.06
376.974	27.9
377.189	14.53
377.404	25.77
377.619	74.01
377.834	-23.64
378.049	-12.98
378.264	-15.5
378.478	37.01
378.693	10.27
378.908	53.67
379.123	8.72
379.338	92.8
379.553	35.26
379.767	34.29
379.982	41.46
380.197	58.71
380.412	4.84
380.626	65.1
380.841	108.5
381.056	42.04
381.271	84.09
381.485	23.44
381.7	1.94
381.915	30.03
382.129	23.44
382.344	60.45
382.559	34.68
382.773	82.92
382.988	-21.7
383.202	0.97
383.417	8.91
383.632	117.99
383.846	18.99
384.061	53.86
384.275	21.51
384.49	29.84
384.704	64.13
384.919	41.27
385.133	27.51
385.348	37.59
385.562	-7.94
385.777	79.44
385.991	44.95
386.206	25.77
386.42	2.52
386.634	52.89
386.849	64.71
387.063	46.89
387.277	2.71
387.492	3.29
387.706	5.81
387.92	36.04
388.135	71.69
388.349	55.99
388.563	22.67
388.778	47.66
388.992	65.87
389.206	83.7
389.42	100.55
389.635	44.17
389.849	45.72
390.063	69.94
390.277	72.07
390.491	100.36
390.706	62.77
390.92	83.7
391.134	65.29
391.348	70.72
391.562	15.69
391.776	24.99
391.99	36.62
392.205	130.39
392.419	31.77
392.633	44.95
392.847	93.58
393.061	26.54
393.275	99.39
393.489	31
393.703	50.57
393.917	72.66
394.131	24.22
394.345	51.92
394.559	76.34
394.773	32.55
394.986	37.59
395.2	53.86
395.414	87.38
395.628	18.6
395.842	45.14
396.056	68.01
396.27	7.56
396.484	46.89
396.697	65.49
396.911	82.15
397.125	74.21
397.339	79.63
397.553	63.16
397.766	81.96
397.98	102.88
398.194	101.33
398.408	60.84
398.621	78.66
398.835	118.77
399.049	93.97
399.262	120.7
399.476	103.27
399.69	146.86
399.903	160.81
400.117	83.89
400.331	116.25
400.544	51.73
400.758	195.3
400.971	117.22
401.185	133.49
401.398	51.34
401.612	162.17
401.826	102.49
402.039	121.87
402.253	71.3
402.466	117.41
402.68	105.79
402.893	119.93
403.106	114.89
403.32	92.8
403.533	124.39
403.747	95.9
403.96	99
404.174	146.09
404.387	59.09
404.6	127.68
404.814	142.21
405.027	113.92
405.24	81.18
405.454	100.94
405.667	132.72
405.88	43.4
406.094	109.47
406.307	158.49
406.52	125.55
406.733	73.62
406.947	86.99
407.16	162.17
407.373	139.3
407.586	78.47
407.799	71.88
408.012	160.23
408.226	130.39
408.439	167.01
408.652	68.59
408.865	147.25
409.078	172.05
409.291	116.25
409.504	120.12
409.717	154.42
409.93	112.37
410.143	117.6
410.357	57.16
410.57	91.64
410.783	101.52
410.996	126.13
411.209	144.15
411.421	174.95
411.634	124.97
411.847	110.63
412.06	127.29
412.273	119.35
412.486	151.12
412.699	214.67
412.912	153.45
413.125	164.49
413.338	123.03
413.55	146.28
413.763	132.52
413.976	176.31
414.189	103.85
414.402	151.7
414.615	161.97
414.827	73.43
415.04	158.49
415.253	169.92
415.466	151.32
415.678	203.43
415.891	171.85
416.104	125.74
416.316	139.11
416.529	117.6
416.742	182.12
416.954	167.98
417.167	135.82
417.38	137.37
417.592	177.86
417.805	97.84
418.017	77.31
418.23	179.22
418.442	123.42
418.655	132.33
418.868	162.55
419.08	188.52
419.293	194.13
419.505	155.19
419.718	190.07
419.93	181.93
420.142	144.15
420.355	194.52
420.567	178.25
420.78	168.56
420.992	155.77
421.205	198.78
421.417	123.8
421.629	142.79
421.842	125.55
422.054	130.78
422.266	169.53
422.479	177.47
422.691	125.55
422.903	176.5
423.115	136.4
423.328	182.51
423.54	153.84
423.752	120.51
423.964	143.95
424.177	191.81
424.389	145.7
424.601	252.07
424.813	181.15
425.025	192.78
425.238	198.2
425.45	168.56
425.662	148.41
425.874	452.59
426.086	169.53
426.298	188.9
426.51	172.44
426.722	177.47
426.934	131.75
427.146	187.16
427.358	152.48
427.57	206.53
427.782	141.82
427.994	172.44
428.206	144.34
428.418	112.37
428.63	199.75
428.842	208.47
429.054	190.26
429.266	190.26
429.478	124.19
429.69	184.64
429.902	127.1
430.114	195.49
430.325	175.73
430.537	123.42
430.749	145.5
430.961	88.54
431.173	147.64
431.384	177.67
431.596	67.23
431.808	133.3
432.02	181.15
432.231	195.68
432.443	246.45
432.655	184.25
432.867	141.24
433.078	215.45
433.29	259.43
433.502	243.93
433.713	228.62
433.925	203.24
434.136	251.29
434.348	166.82
434.56	154.22
434.771	279.77
434.983	146.86
435.194	178.83
435.406	205.37
435.617	225.91
435.829	272.99
436.04	265.43
436.252	261.95
436.463	265.82
436.675	250.32
436.886	229.2
437.098	234.43
437.309	267.76
437.521	221.84
437.732	245.67
437.943	242.18
438.155	232.88
438.366	166.62
438.578	292.56
438.789	232.11
439	254
439.211	225.33
439.423	228.43
439.634	256.72
439.845	263.3
440.057	253.42
440.268	315.81
440.479	242.96
440.69	287.13
440.902	232.11
441.113	241.99
441.324	235.98
441.535	274.93
441.746	313.48
441.957	212.73
442.168	242.57
442.38	300.31
442.591	297.21
442.802	231.92
443.013	262.33
443.224	275.51
443.435	227.07
443.646	283.84
443.857	264.46
444.068	245.48
444.279	209.63
444.49	325.5
444.701	285.78
444.912	344.29
445.123	298.56
445.334	306.51
445.545	275.9
445.756	273.76
445.967	277.06
446.178	279.19
446.388	316.39
446.599	305.35
446.81	308.25
447.021	273.18
447.232	353.01
447.443	340.41
447.653	256.52
447.864	325.5
448.075	290.81
448.286	326.46
448.496	301.28
448.707	322.98
448.918	269.11
449.129	364.05
449.339	266.6
449.55	319.49
449.761	326.85
449.971	331.89
450.182	290.81
450.393	344.1
450.603	297.21
450.814	341.96
451.024	327.43
451.235	347.58
451.446	379.36
451.656	383.43
451.867	302.63
452.077	350.29
452.288	382.46
452.498	359.98
452.709	327.05
452.919	340.8
453.13	309.8
453.34	354.56
453.55	251.1
453.761	332.08
453.971	319.49
454.182	345.26
454.392	351.46
454.602	413.65
454.813	342.55
455.023	357.85
455.233	300.5
455.444	320.85
455.654	288.68
455.864	329.37
456.075	344.29
456.285	292.36
456.495	335.18
456.705	349.13
456.916	402.41
457.126	378.58
457.336	357.27
457.546	283.84
457.756	309.8
457.967	377.03
458.177	344.68
458.387	353.98
458.597	339.64
458.807	323.56
459.017	335.57
459.227	339.83
459.437	327.05
459.647	353.59
459.857	372.38
460.068	334.41
460.278	409.78
460.488	354.75
460.698	410.16
460.908	329.56
461.117	296.82
461.327	333.05
461.537	394.86
461.747	348.36
461.957	346.42
462.167	456.08
462.377	393.5
462.587	370.44
462.797	402.99
463.007	364.63
463.216	417.53
463.426	430.7
463.636	392.34
463.846	330.73
464.056	360.37
464.265	423.73
464.475	370.83
464.685	374.32
464.895	402.22
465.104	350.49
465.314	421.01
465.524	362.31
465.733	349.71
465.943	423.92
466.153	444.65
466.362	430.51
466.572	428.38
466.782	410.36
466.991	392.73
467.201	432.83
467.41	324.33
467.62	396.6
467.829	380.33
468.039	419.46
468.249	391.56
468.458	388.66
468.668	421.01
468.877	417.33
469.086	443.49
469.296	456.86
469.505	386.53
469.715	476.04
469.924	425.28
470.134	464.22
470.343	462.28
470.552	402.03
470.762	423.73
470.971	386.53
471.18	450.46
471.39	416.75
471.599	377.23
471.808	447.75
472.018	415.39
472.227	464.99
472.436	488.05
472.645	486.5
472.855	425.86
473.064	506.26
473.273	478.94
473.482	458.99
473.691	527.96
473.901	489.99
474.11	460.15
474.319	549.08
474.528	481.85
474.737	528.74
474.946	500.06
475.155	481.66
475.364	543.07
475.573	479.91
475.783	502.97
475.992	495.99
476.201	531.25
476.41	496.77
476.619	464.41
476.828	526.02
477.037	509.94
477.245	496.57
477.454	539
477.663	507.62
477.872	517.5
478.081	579.11
478.29	485.53
478.499	603.91
478.708	552.57
478.917	607.79
479.125	557.99
479.334	557.6
479.543	543.07
479.752	567.49
479.961	542.1
480.169	576.98
480.378	557.99
480.587	712.41
480.796	598.87
481.004	608.37
481.213	615.15
481.422	592.29
481.63	602.55
481.839	619.6
482.048	657.38
482.256	605.65
482.465	618.44
482.674	653.12
482.882	647.5
483.091	668.04
483.299	638.01
483.508	643.05
483.716	639.56
483.925	660.29
484.134	625.42
484.342	632.97
484.551	685.87
484.759	661.26
484.967	665.52
485.176	701.56
485.384	674.43
485.593	701.36
485.801	649.05
486.01	646.73
486.218	616.5
486.426	546.95
486.635	595.19
486.843	579.69
487.051	632
487.26	609.14
487.468	619.22
487.676	657.19
487.885	632.78
488.093	670.17
488.301	705.82
488.509	661.65
488.717	713.96
488.926	703.69
489.134	678.12
489.342	708.53
489.55	649.05
489.758	721.32
489.967	686.25
490.175	824.78
490.383	705.82
490.591	813.93
490.799	673.08
491.007	763.17
491.215	742.83
491.423	729.65
491.631	780.61
491.839	776.15
492.047	788.16
492.255	678.89
492.463	709.11
492.671	674.05
492.879	800.37
493.087	712.8
493.295	752.51
493.503	749.61
493.711	780.22
493.919	792.04
494.127	782.74
494.334	827.88
494.542	735.27
494.75	777.12
494.958	792.43
495.166	841.44
495.374	812.77
495.581	819.94
495.789	798.82
495.997	829.63
496.205	812.96
496.412	787.39
496.62	779.64
496.828	824.78
497.035	809.86
497.243	817.03
497.451	827.49
497.658	837.57
497.866	811.22
498.074	868.76
498.281	815.29
498.489	889.69
498.696	830.98
498.904	782.35
499.112	779.83
499.319	909.26
499.527	813.54
499.734	851.33
499.942	816.06
500.149	803.28
500.357	854.81
500.564	809.28
500.771	834.66
500.979	784.48
501.186	797.85
501.394	830.59
501.601	808.31
501.808	844.93
502.016	805.21
502.223	793.39
502.43	850.55
502.638	847.26
502.845	808.12
503.052	921.66
503.26	834.47
503.467	910.22
503.674	854.62
503.881	873.41
504.089	919.72
504.296	896.08
504.503	813.93
504.71	832.14
504.917	826.53
505.125	864.69
505.332	864.89
505.539	867.79
505.746	919.72
505.953	907.71
506.16	904.99
506.367	967.38
506.574	923.98
506.781	934.06
506.988	876.32
507.195	914.29
507.402	911.39
507.609	935.99
507.816	895.89
508.023	885.62
508.23	874.19
508.437	841.83
508.644	900.34
508.851	944.32
509.058	899.57
509.265	933.09
509.472	936.77
509.679	1024.92
509.885	936.38
510.092	920.49
510.299	930.76
510.506	925.14
510.713	925.34
510.92	924.56
511.126	959.05
511.333	978.04
511.54	985.79
511.746	1019.5
511.953	1015.04
512.16	1027.25
512.367	952.66
512.573	926.31
512.78	964.67
512.987	960.41
513.193	963.7
513.4	898.21
513.606	925.34
513.813	977.07
514.02	943.36
514.226	1017.75
514.433	1013.88
514.639	934.25
514.846	960.6
515.052	956.34
515.259	978.62
515.465	960.6
515.672	952.27
515.878	1077.23
516.085	949.36
516.291	1031.9
516.497	972.03
516.704	954.4
516.91	949.56
517.117	896.66
517.323	862.76
517.529	888.91
517.736	898.41
517.942	927.86
518.148	896.08
518.354	917.01
518.561	928.63
518.767	941.81
518.973	979.2
519.179	1001.09
519.386	987.53
519.592	944.91
519.798	959.63
520.004	1039.65
520.21	1010.78
520.417	1056.89
520.623	1072.2
520.829	1059.22
521.035	1093.32
521.241	1065.61
521.447	1085.18
521.653	1187.09
521.859	1044.49
522.065	1105.33
522.271	1179.73
522.477	1139.62
522.683	1148.73
522.889	1093.9
523.095	1112.88
523.301	1090.8
523.507	1110.37
523.713	1117.92
523.919	1071.42
524.125	1158.8
524.331	1115.98
524.537	1216.93
524.742	1179.53
524.948	1170.23
525.154	1207.43
525.36	1271.76
525.566	1191.16
525.772	1225.64
525.977	1166.75
526.183	1227.97
526.389	1199.49
526.595	1141.95
526.8	1108.23
527.006	1098.35
527.212	1049.72
527.417	1094.48
527.623	1082.27
527.829	1126.25
528.034	1150.66
528.24	1150.86
528.446	1164.81
528.651	1250.06
528.857	1227.58
529.062	1267.3
529.268	1220.8
529.473	1264.39
529.679	1233.98
529.884	1291.91
530.09	1245.02
530.295	1301.59
530.501	1271.76
530.706	1273.31
530.912	1229.71
531.117	1271.37
531.323	1277.18
531.528	1315.93
531.733	1321.36
531.939	1269.24
532.144	1287.45
532.35	1269.24
532.555	1326.39
532.76	1289.97
532.966	1297.91
533.171	1275.83
533.376	1222.55
533.581	1222.35
533.787	1268.08
533.992	1318.26
534.197	1318.26
534.402	1283.58
534.607	1297.33
534.813	1422.3
535.018	1302.37
535.223	1306.63
535.428	1334.34
535.633	1351.97
535.838	1362.04
536.043	1359.52
536.249	1471.7
536.454	1338.21
536.659	1354.49
536.864	1328.52
537.069	1317.29
537.274	1357.97
537.479	1378.71
537.684	1378.51
537.889	1348.48
538.094	1426.37
538.299	1378.32
538.504	1370.57
538.708	1364.17
538.913	1364.76
539.118	1352.36
539.323	1384.32
539.528	1338.6
539.733	1334.92
539.938	1406.22
540.142	1395.37
540.347	1333.76
540.552	1336.08
540.757	1377.54
540.962	1322.32
541.166	1262.84
541.371	1301.01
541.576	1315.16
541.781	1262.84
541.985	1356.42
542.19	1376.38
542.395	1410.29
542.599	1431.4
542.804	1388.2
543.008	1410.87
543.213	1340.15
543.418	1339.18
543.622	1408.93
543.827	1321.36
544.031	1459.5
544.236	1443.42
544.44	1389.36
544.645	1488.95
544.849	1403.5
545.054	1441.09
545.258	1496.5
545.463	1482.36
545.667	1403.12
545.872	1437.8
546.076	1433.92
546.281	1431.79
546.485	1411.25
546.689	1447.29
546.894	1456.4
547.098	1448.65
547.302	1399.05
547.507	1395.17
547.711	1453.3
547.915	1477.32
548.119	1393.82
548.324	1405.25
548.528	1462.99
548.732	1407.77
548.936	1433.15
549.141	1466.67
549.345	1429.08
549.549	1406.8
549.753	1429.66
549.957	1513.36
550.161	1506.58
550.366	1453.69
550.57	1417.45
550.774	1455.43
550.978	1435.47
551.182	1447.49
551.386	1412.61
551.59	1439.74
551.794	1439.35
551.998	1460.47
552.202	1446.9
552.406	1409.32
552.61	1428.89
552.814	1444.97
553.018	1521.3
553.222	1453.88
553.426	1432.18
553.63	1533.9
553.833	1435.67
554.037	1389.17
554.241	1467.64
554.445	1436.64
554.649	1436.25
554.853	1412.03
555.056	1475.39
555.26	1504.64
555.464	1468.99
555.668	1444
555.871	1472.29
556.075	1493.79
556.279	1463.18
556.483	1398.27
556.686	1413
556.89	1417.26
557.094	1426.56
557.297	1351.58
557.501	1458.14
557.704	1399.82
557.908	1428.3
558.112	1378.9
558.315	1495.34
558.519	1403.89
558.722	1406.99
558.926	1375.41
559.129	1330.46
559.333	1308.38
559.536	1325.23
559.74	1332.79
559.943	1312.44
560.147	1291.91
560.35	1370.76
560.553	1348.09
560.757	1303.73
560.96	1396.14
561.164	1313.41
561.367	1420.36
561.57	1377.16
561.774	1379.29
561.977	1336.66
562.18	1317.87
562.384	1433.34
562.587	1335.89
562.79	1318.45
562.993	1319.03
563.197	1348.29
563.4	1409.12
563.603	1404.86
563.806	1437.8
564.009	1302.18
564.212	1405.05
564.416	1276.21
564.619	1339.96
564.822	1284.54
565.025	1369.02
565.228	1318.45
565.431	1342.09
565.634	1245.21
565.837	1302.37
566.04	1257.81
566.243	1243.47
566.446	1173.33
566.649	1312.06
566.852	1239.79
567.055	1248.12
567.258	1283.96
567.461	1345.38
567.664	1325.62
567.867	1218.67
568.07	1302.18
568.273	1297.72
568.475	1288.03
568.678	1240.18
568.881	1255.09
569.084	1242.11
569.287	1171.4
569.489	1199.88
569.692	1273.5
569.895	1275.05
570.098	1199.1
570.3	1153.76
570.503	1114.24
570.706	1136.71
570.909	1139.23
571.111	1120.25
571.314	1120.83
571.516	1153.96
571.719	1171.59
571.922	1145.24
572.124	1134.97
572.327	1179.73
572.529	1078.59
572.732	1104.36
572.935	1159.38
573.137	1222.93
573.34	1131.48
573.542	1201.43
573.745	1174.3
573.947	1189.41
574.15	1122.57
574.352	1145.63
574.554	1186.9
574.757	1094.28
574.959	1125.28
575.162	1117.92
575.364	1099.52
575.566	1211.11
575.769	1096.22
575.971	1115.98
576.173	1011.94
576.376	1098.93
576.578	1129.16
576.78	1193.87
576.982	1019.11
577.185	1074.52
577.387	1057.28
577.589	1056.5
577.791	1122.96
577.993	1121.99
578.196	1066.97
578.398	1127.42
578.6	1135.94
578.802	1012.14
579.004	1073.17
579.206	1051.66
579.408	1086.73
579.61	1053.98
579.812	1076.27
580.014	1051.85
580.216	1065.22
580.418	1047.98
580.62	1057.47
580.822	1005.94
581.024	1067.16
581.226	1134.39
581.428	1041.97
581.63	1130.71
581.832	1040.23
582.034	1072
582.236	1068.32
582.438	1115.98
582.64	1115.21
582.841	1131.29
583.043	1145.43
583.245	1101.07
583.447	1088.86
583.649	1087.89
583.85	1081.69
584.052	1120.83
584.254	1075.1
584.456	1115.21
584.657	1053.98
584.859	1095.45
585.061	1087.5
585.262	1050.11
585.464	1070.45
585.666	1113.08
585.867	1071.03
586.069	1136.13
586.27	1079.56
586.472	1079.75
586.674	1035
586.875	1033.25
587.077	1019.3
587.278	1057.67
587.48	1048.17
587.681	1188.64
587.883	1095.25
588.084	962.34
588.285	1021.05
588.487	1039.07
588.688	1013.69
588.89	964.67
589.091	940.64
589.292	961.57
589.494	928.63
589.695	920.69
589.896	867.41
590.098	844.74
590.299	947.81
590.5	890.27
590.702	917.78
590.903	977.84
591.104	981.52
591.305	960.79
591.507	1019.11
591.708	965.05
591.909	973.58
592.11	1018.72
592.311	985.01
592.512	949.17
592.714	931.34
592.915	935.41
593.116	922.04
593.317	926.31
593.518	970.67
593.719	961.95
593.92	960.6
594.121	983.65
594.322	962.54
594.523	972.42
594.724	903.25
594.925	933.09
595.126	980.94
595.327	982.88
595.528	955.76
595.729	964.86
595.929	961.57
596.13	943.74
596.331	958.66
596.532	965.64
596.733	1009.23
596.934	1036.94
597.135	1018.53
597.335	984.62
597.536	920.3
597.737	951.69
597.938	940.84
598.138	957.5
598.339	957.31
598.54	980.17
598.74	944.91
598.941	962.34
599.142	984.04
599.342	991.21
599.543	910.22
599.744	958.86
599.944	954.59
600.145	942.58
600.345	958.27
600.546	1000.9
600.746	978.04
600.947	1010
601.147	963.31
601.348	991.21
601.548	931.34
601.749	939.48
601.949	925.72
602.15	921.27
602.35	953.62
602.551	987.72
602.751	891.04
602.951	941.03
603.152	842.61
603.352	990.05
603.552	943.16
603.753	955.76
603.953	977.45
604.153	945.49
604.354	934.83
604.554	960.79
604.754	929.79
604.954	899.57
605.155	965.05
605.355	940.26
605.555	986.56
605.755	1013.3
605.955	920.69
606.155	971.25
606.356	938.12
606.556	942
606.756	949.94
606.956	862.95
607.156	1009.42
607.356	927.08
607.556	966.22
607.756	922.82
607.956	989.85
608.156	974.94
608.356	896.08
608.556	965.25
608.756	933.47
608.956	909.06
609.156	942.19
609.356	893.56
609.556	877.67
609.755	932.31
609.955	903.44
610.155	920.49
610.355	925.14
610.555	884.46
610.755	910.22
610.954	854.43
611.154	928.82
611.354	904.8
611.554	855.59
611.753	886.59
611.953	844.16
612.153	932.51
612.352	924.56
612.552	881.74
612.752	804.05
612.951	865.08
613.151	890.46
613.351	854.23
613.55	888.33
613.75	889.69
613.949	845.51
614.149	898.41
614.348	870.51
614.548	866.63
614.747	807.73
614.947	844.74
615.146	809.67
615.346	876.71
615.545	845.32
615.745	876.51
615.944	883.1
616.144	853.65
616.343	877.09
616.542	837.96
616.742	838.15
616.941	849.78
617.14	774.02
617.34	854.62
617.539	828.27
617.738	799.59
617.938	883.1
618.137	840.09
618.336	796.49
618.535	846.68
618.734	829.04
618.934	863.92
619.133	835.83
619.332	856.17
619.531	800.18
619.73	837.38
619.929	869.34
620.128	846.87
620.328	868.57
620.527	813.54
620.726	810.44
620.925	841.83
621.124	831.95
621.323	858.88
621.522	782.35
621.721	764.72
621.92	784.1
622.119	832.73
622.318	759.68
622.517	808.51
622.715	777.7
622.914	754.06
623.113	782.55
623.312	733.53
623.511	808.31
623.71	795.53
623.909	794.17
624.107	838.15
624.306	723.06
624.505	765.11
624.704	759.68
624.902	757.55
625.101	833.11
625.3	776.15
625.499	755.42
625.697	734.69
625.896	710.47
626.095	774.8
626.293	716.86
626.492	743.99
626.69	785.45
626.889	742.83
627.088	787.39
627.286	748.06
627.485	755.61
627.683	719.58
627.882	758.71
628.08	700.78
628.279	706.6
628.477	779.64
628.676	700.2
628.874	770.34
629.073	703.5
629.271	686.64
629.469	752.71
629.668	679.47
629.866	719.77
630.065	686.64
630.263	765.5
630.461	694.78
630.66	730.04
630.858	735.66
631.056	775.57
631.254	775.76
631.453	708.73
631.651	759.3
631.849	742.44
632.047	773.05
632.245	730.23
632.444	723.26
632.642	736.82
632.84	744.38
633.038	715.12
633.236	675.21
633.434	715.51
633.632	688.97
633.83	688
634.028	777.31
634.227	700.01
634.425	797.66
634.623	698.65
634.821	724.03
635.019	735.85
635.216	736.63
635.414	735.27
635.612	738.18
635.81	716.28
636.008	761.04
636.206	723.84
636.404	750.58
636.602	694
636.8	701.56
636.997	756.58
637.195	714.73
637.393	734.69
637.591	790.1
637.789	726.36
637.986	700.4
638.184	712.6
638.382	767.05
638.58	726.36
638.777	795.14
638.975	718.8
639.173	749.41
639.37	769.37
639.568	749.03
639.765	744.38
639.963	722.68
640.161	782.16
640.358	753.1
640.556	661.07
640.753	695.36
640.951	689.74
641.148	743.02
641.346	660.87
641.543	729.46
641.741	712.02
641.938	687.61
642.136	725.78
642.333	642.27
642.531	756.39
642.728	773.83
642.925	680.83
643.123	685.09
643.32	727.13
643.517	672.88
643.715	705.43
643.912	667.65
644.109	706.79
644.306	681.8
644.504	613.98
644.701	700.01
644.898	724.61
645.095	690.9
645.293	694.97
645.49	685.28
645.687	702.14
645.884	723.26
646.081	660.29
646.278	647.89
646.475	643.82
646.672	685.87
646.87	715.12
647.067	688.19
647.264	665.13
647.461	607.2
647.658	601.2
647.855	687.61
648.052	651.18
648.249	575.62
648.446	622.51
648.642	638.98
648.839	620.57
649.036	646.53
649.233	578.72
649.43	615.15
649.627	587.05
649.824	633.36
650.021	611.08
650.217	620.38
650.414	601.97
650.611	625.42
650.808	649.05
651.004	650.99
651.201	634.91
651.398	685.67
651.595	628.32
651.791	608.56
651.988	649.63
652.185	573.49
652.381	622.12
652.578	557.6
652.775	615.73
652.971	631.42
653.168	609.53
653.364	668.43
653.561	566.71
653.757	582.02
653.954	613.6
654.15	589.38
654.347	667.07
654.543	611.08
654.74	572.33
654.936	546.37
655.133	614.57
655.329	622.12
655.525	597.32
655.722	603.91
655.918	558.96
656.115	617.28
656.311	511.88
656.507	507.42
656.704	516.14
656.9	520.21
657.096	539.78
657.292	524.28
657.489	596.74
657.685	575.82
657.881	560.32
658.077	556.44
658.273	554.31
658.47	619.02
658.666	572.14
658.862	576.01
659.058	568.07
659.254	629.1
659.45	536.29
659.646	600.81
659.842	571.36
660.038	630.65
660.234	550.24
660.43	569.04
660.626	643.82
660.822	612.63
661.018	616.89
661.214	589.19
661.41	548.5
661.606	605.65
661.802	629.48
661.998	604.1
662.194	562.25
662.39	597.9
662.586	601.59
662.781	619.41
662.977	587.64
663.173	621.54
663.369	601.2
663.564	614.18
663.76	611.27
663.956	592.67
664.152	650.22
664.347	557.41
664.543	562.45
664.739	587.83
664.934	503.36
665.13	515.76
665.326	610.5
665.521	592.09
665.717	529.9
665.912	530.48
666.108	496.77
666.304	530.67
666.499	547.92
666.695	525.64
666.89	565.16
667.086	579.11
667.281	612.43
667.477	621.35
667.672	579.69
667.867	553.54
668.063	588.02
668.258	503.74
668.454	535.52
668.649	639.37
668.844	569.62
669.04	587.44
669.235	545.01
669.43	530.29
669.626	525.25
669.821	540.17
670.016	509.36
670.211	554.31
670.407	502.19
670.602	537.07
670.797	532.8
670.992	569.42
671.187	527.38
671.382	551.21
671.578	530.48
671.773	570.78
671.968	484.56
672.163	543.65
672.358	543.65
672.553	525.83
672.748	525.25
672.943	611.66
673.138	505.29
673.333	575.82
673.528	517.11
673.723	542.69
673.918	520.99
674.113	486.89
674.308	601.39
674.503	546.37
674.698	544.43
674.892	556.25
675.087	532.22
675.282	532.61
675.477	537.45
675.672	560.12
675.867	535.32
676.061	488.63
676.256	482.43
676.451	511.11
676.646	536.29
676.84	482.62
677.035	479.91
677.23	496.57
677.424	506.07
677.619	566.71
677.814	552.95
678.008	549.27
678.203	493.09
678.397	508.01
678.592	531.06
678.787	560.51
678.981	516.34
679.176	494.64
679.37	489.6
679.565	487.66
679.759	508.97
679.954	543.27
680.148	567.68
680.342	562.25
680.537	520.21
680.731	499.67
680.926	540.94
681.12	547.72
681.314	492.7
681.509	529.51
681.703	524.09
681.897	556.05
682.092	500.06
682.286	477.2
682.48	585.89
682.674	555.67
682.869	504.13
683.063	514.98
683.257	589.57
683.451	492.89
683.645	533.19
683.839	523.89
684.034	513.82
684.228	562.06
684.422	489.99
684.616	470.22
684.81	521.37
685.004	508.97
685.198	494.44
685.392	516.14
685.586	505.29
685.78	508.59
685.974	536.68
686.168	531.45
686.362	578.14
686.556	459.96
686.75	436.71
686.944	471.77
687.138	481.85
687.331	395.63
687.525	392.34
687.719	363.86
687.913	427.02
688.107	420.24
688.301	349.52
688.494	437.67
688.688	383.81
688.882	370.64
689.076	344.48
689.269	420.82
689.463	480.69
689.657	431.09
689.85	414.81
690.044	434.58
690.238	402.61
690.431	391.18
690.625	409
690.818	431.67
691.012	417.53
691.205	486.5
691.399	429.93
691.593	457.24
691.786	485.92
691.98	488.82
692.173	526.22
692.366	497.54
692.56	510.72
692.753	555.86
692.947	429.73
693.14	533
693.333	512.07
693.527	461.31
693.72	505.68
693.914	484.17
694.107	479.52
694.3	514.98
694.493	475.26
694.687	533.19
694.88	477.39
695.073	568.84
695.266	546.37
695.46	509.56
695.653	545.79
695.846	577.17
696.039	481.46
696.232	508.39
696.425	555.67
696.618	560.7
696.812	542.3
697.005	622.12
697.198	706.79
697.391	605.07
697.584	618.44
697.777	669.4
697.97	638.01
698.163	649.83
698.356	627.74
698.549	721.51
698.742	676.18
698.935	620.57
699.127	667.27
699.32	626.77
699.513	620.77
699.706	670.37
699.899	648.86
700.092	656.61
700.285	674.05
700.477	614.76
700.67	690.32
700.863	666.3
701.056	764.33
701.248	746.9
701.441	751.35
701.634	695.17
701.826	790.29
702.019	696.13
702.212	783.51
702.404	714.93
702.597	693.03
702.79	722.1
702.982	734.3
703.175	802.69
703.367	790.88
703.56	794.56
703.752	884.07
703.945	810.25
704.137	834.66
704.33	851.91
704.522	863.53
704.715	846.68
704.907	867.6
705.1	890.46
705.292	905.19
705.484	861.01
705.677	929.02
705.869	884.07
706.061	958.27
706.254	950.33
706.446	954.4
706.638	933.67
706.831	989.27
707.023	950.72
707.215	1036.55
707.407	1016.4
707.599	1002.64
707.792	1078.2
707.984	1021.82
708.176	1113.27
708.368	1038.68
708.56	1053.21
708.752	1024.73
708.944	1031.12
709.136	1109.98
709.329	1089.05
709.521	1191.16
709.713	1126.45
709.905	1149.89
710.097	1173.14
710.289	1131.87
710.481	1162.48
710.672	1201.43
710.864	1187.09
711.056	1210.73
711.248	1177.01
711.44	1207.24
711.632	1194.65
711.824	1241.92
712.016	1287.45
712.207	1268.66
712.399	1270.01
712.591	1319.81
712.783	1261.29
712.975	1329.69
713.166	1268.46
713.358	1297.91
713.55	1377.54
713.741	1355.84
713.933	1351.77
714.125	1340.34
714.316	1337.82
714.508	1420.17
714.7	1419.59
714.891	1381.81
715.083	1492.05
715.274	1414.94
715.466	1414.74
715.657	1450
715.849	1393.62
716.04	1423.85
716.232	1374.83
716.423	1423.65
716.615	1394.4
716.806	1339.76
716.998	1353.13
717.189	1275.63
717.381	1211.89
717.572	1187.86
717.763	1280.86
717.955	1249.09
718.146	1203.56
718.337	1182.25
718.528	1122.38
718.72	1115.02
718.911	1159.58
719.102	1134
719.293	1187.48
719.485	1157.06
719.676	1165.97
719.867	1131.29
720.058	1129.55
720.249	1124.7
720.44	1152.41
720.632	1182.44
720.823	1252.77
721.014	1324.26
721.205	1326.39
721.396	1392.46
721.587	1472.09
721.778	1460.66
721.969	1542.42
722.16	1556.18
722.351	1523.43
722.542	1657.51
722.733	1647.63
722.924	1580.01
723.115	1669.91
723.305	1674.75
723.496	1636
723.687	1556.76
723.878	1544.75
724.069	1576.71
724.26	1573.61
724.45	1541.26
724.641	1539.32
724.832	1571.1
725.023	1572.26
725.213	1557.15
725.404	1558.7
725.595	1607.91
725.785	1510.65
725.976	1601.32
726.167	1620.11
726.357	1573.23
726.548	1695.29
726.739	1617.79
726.929	1698.39
727.12	1701.49
727.31	1740.24
727.501	1643.75
727.691	1697.03
727.882	1690.25
728.072	1758.64
728.263	1722.8
728.453	1805.92
728.644	1792.94
728.834	1776.86
729.024	1727.64
729.215	1786.74
729.405	1776.66
729.596	1859.97
729.786	1838.27
729.976	1868.89
730.167	1916.16
730.357	1827.23
730.547	1867.92
730.737	1915.19
730.928	1949.48
731.118	1990.56
731.308	1913.84
731.498	1945.61
731.688	2003.73
731.879	2022.53
732.069	2054.11
732.259	2129.86
732.449	2041.9
732.639	2195.74
732.829	2167.06
733.019	2195.35
733.209	2342.4
733.399	2263.74
733.589	2333.3
733.779	2337.95
733.969	2308.3
734.159	2432.69
734.349	2465.63
734.539	2490.23
734.729	2454.58
734.919	2517.75
735.109	2547.97
735.299	2497.21
735.488	2542.54
735.678	2565.6
735.868	2588.85
736.058	2536.34
736.248	2538.09
736.437	2456.91
736.627	2501.66
736.817	2625.47
737.007	2556.69
737.196	2610.55
737.386	2607.26
737.576	2577.42
737.765	2670.61
737.955	2587.11
738.144	2770.2
738.334	2706.46
738.524	2656.08
738.713	2704.13
738.903	2671.19
739.092	2697.93
739.282	2735.71
739.471	2758.19
739.661	2738.81
739.85	2746.37
740.04	2780.08
740.229	2808.56
740.419	2817.08
740.608	2840.53
740.797	2825.03
740.987	2869.2
741.176	2878.89
741.365	2843.43
741.555	2812.82
741.744	2903.69
741.933	2861.26
742.123	2905.05
742.312	2925.78
742.501	2924.61
742.69	2950
742.88	2856.8
743.069	2960.07
743.258	2946.12
743.447	2995.53
743.636	3007.15
743.825	2976.54
744.014	2978.86
744.204	2989.33
744.393	2956.58
744.582	3026.91
744.771	3039.12
744.96	3022.26
745.149	3023.43
745.338	3013.16
745.527	3055.59
745.716	3028.46
745.905	3005.79
746.094	3085.23
746.283	3073.99
746.471	3029.43
746.66	3113.32
746.849	3098.02
747.038	3124.76
747.227	3060.24
747.416	3069.73
747.604	3058.11
747.793	3057.14
747.982	3062.17
748.171	3058.49
748.359	3110.81
748.548	3103.64
748.737	3074.38
748.926	3071.09
749.114	3043.96
749.303	3084.84
749.491	3061.21
749.68	3020.91
749.869	3089.11
750.057	3068.57
750.246	3078.06
750.434	3065.66
750.623	3081.74
750.811	3055.2
751	3098.41
751.188	3056.94
751.377	3056.94
751.565	3055.78
751.754	2985.64
751.942	3045.32
752.131	3088.52
752.319	3024.39
752.507	3005.6
752.696	3057.33
752.884	3083.68
753.072	3016.06
753.261	3076.71
753.449	3020.13
753.637	2985.06
753.825	3125.34
754.014	3001.92
754.202	3031.76
754.39	3100.54
754.578	3038.15
754.766	3010.83
754.955	2980.22
755.143	3095.11
755.331	3020.91
755.519	3011.03
755.707	3046.09
755.895	3037.18
756.083	3033.31
756.271	2961.04
756.459	3008.51
756.647	3040.86
756.835	3019.94
757.023	2976.73
757.211	2999.98
757.399	2953.48
757.587	3001.92
757.775	2898.46
757.963	2964.91
758.151	2960.46
758.339	2907.95
758.526	2890.71
758.714	2957.16
758.902	2831.81
759.09	2787.44
759.278	2614.04
759.465	2371.85
759.653	2061.66
759.841	1864.43
760.028	1607.71
760.216	1388.59
760.404	1328.52
760.591	1074.91
760.779	927.08
760.967	831.56
761.154	657.19
761.342	686.45
761.529	686.83
761.717	750.96
761.905	751.74
762.092	802.31
762.28	695.17
762.467	719.77
762.655	674.82
762.842	707.37
763.029	728.3
763.217	710.08
763.404	709.7
763.592	743.99
763.779	718.41
763.966	765.88
764.154	752.9
764.341	836.6
764.528	860.63
764.716	942.39
764.903	962.54
765.09	985.98
765.277	1062.12
765.465	1169.85
765.652	1235.91
765.839	1317.87
766.026	1423.85
766.213	1448.45
766.4	1523.24
766.588	1732.68
766.775	1716.6
766.962	1815.22
767.149	1868.5
767.336	2028.53
767.523	1980.1
767.71	2122.89
767.897	2210.46
768.084	2273.04
768.271	2305.98
768.458	2354.03
768.645	2421.26
768.832	2382.32
769.019	2392.78
769.206	2458.85
769.392	2516.39
769.579	2591.56
769.766	2565.21
769.953	2536.54
770.14	2586.33
770.327	2560.76
770.513	2629.54
770.7	2703.55
770.887	2573.74
771.073	2640.97
771.26	2682.82
771.447	2604.35
771.634	2593.69
771.82	2694.44
772.007	2601.44
772.193	2690.76
772.38	2682.82
772.567	2620.43
772.753	2661.12
772.94	2689.6
773.126	2697.35
773.313	2698.12
773.499	2684.95
773.686	2731.06
773.872	2642.13
774.059	2669.06
774.245	2607.26
774.432	2639.42
774.618	2574.13
774.804	2685.53
774.991	2580.52
775.177	2671.19
775.363	2615.39
775.55	2650.85
775.736	2569.09
775.922	2565.21
776.109	2601.44
776.295	2600.67
776.481	2626.44
776.667	2630.31
776.853	2570.06
777.04	2553.78
777.226	2577.81
777.412	2630.89
777.598	2542.74
777.784	2541.58
777.97	2530.92
778.156	2558.24
778.342	2565.02
778.528	2508.25
778.715	2485
778.901	2493.91
779.087	2543.51
779.272	2483.65
779.458	2506.7
779.644	2516.2
779.83	2499.15
780.016	2616.56
780.202	2485.2
780.388	2509.61
780.574	2421.84
780.76	2473.96
780.946	2484.23
781.131	2481.32
781.317	2460.01
781.503	2482.68
781.689	2443.35
781.874	2585.17
782.06	2462.91
782.246	2480.35
782.432	2449.93
782.617	2487.52
782.803	2486.16
782.989	2419.32
783.174	2433.08
783.36	2361.2
783.545	2395.1
783.731	2427.46
783.916	2345.89
784.102	2416.22
784.288	2374.18
784.473	2381.15
784.659	2323.61
784.844	2381.93
785.029	2337.17
785.215	2352.29
785.4	2291.64
785.586	2374.57
785.771	2278.85
785.956	2315.67
786.142	2337.37
786.327	2317.02
786.512	2289.32
786.698	2278.66
786.883	2244.76
787.068	2259.87
787.254	2233.32
787.439	2227.9
787.624	2237.97
787.809	2231
787.994	2234.49
788.18	2308.89
788.365	2223.64
788.55	2211.43
788.735	2212.98
788.92	2240.11
789.105	2186.44
789.29	2231.58
789.475	2150.21
789.66	2148.85
789.845	2135.68
790.03	2121.53
790.215	2206.39
790.4	2214.72
790.585	2217.63
790.77	2180.63
790.955	2081.04
791.14	2170.74
791.325	2164.16
791.51	2063.21
791.695	2127.93
791.879	2116.49
792.064	2095.57
792.249	2169.97
792.434	2162.61
792.618	2108.94
792.803	2190.7
792.988	2125.99
793.173	2126.38
793.357	2137.81
793.542	2111.07
793.727	2143.62
793.911	2139.94
794.096	2119.59
794.281	2129.86
794.465	2246.31
794.65	2156.79
794.834	2180.24
795.019	2187.79
795.203	2225.77
795.388	2181.79
795.572	2204.46
795.757	2192.64
795.941	2170.36
796.126	2169.39
796.31	2118.24
796.494	2155.63
796.679	2166.68
796.863	2112.81
797.048	2212.4
797.232	2160.67
797.416	2165.13
797.601	2140.33
797.785	2237.2
797.969	2214.72
798.153	2125.79
798.338	2165.9
798.522	2203.49
798.706	2192.83
798.89	2197.87
799.074	2283.89
799.258	2197.48
799.443	2177.33
799.627	2183.14
799.811	2213.17
799.995	2203.87
800.179	2128.31
800.363	2149.04
800.547	2204.07
800.731	2191.67
800.915	2112.62
801.099	2109.33
801.283	2148.08
801.467	2163.77
801.651	2144.78
801.835	2215.11
802.019	2157.18
802.202	2171.71
802.386	2119.59
802.57	2093.63
802.754	2130.06
802.938	2119.79
803.121	2117.46
803.305	2164.93
803.489	2146.72
803.673	2170.74
803.856	2167.45
804.04	2151.18
804.224	2141.88
804.407	2132.58
804.591	2125.99
804.775	2138.39
804.958	2173.46
805.142	2270.14
805.326	2169.78
805.509	2192.83
805.693	2198.45
805.876	2194.77
806.06	2162.61
806.243	2209.69
806.427	2217.05
806.61	2250.57
806.794	2156.21
806.977	2175.98
807.16	2191.86
807.344	2175.39
807.527	2207.36
807.71	2134.51
807.894	2191.09
808.077	2193.41
808.26	2115.91
808.444	2137.42
808.627	2182.76
808.81	2127.34
808.993	2094.6
809.177	2091.7
809.36	2095.57
809.543	2147.11
809.726	2004.9
809.909	1999.67
810.092	2018.46
810.276	2041.71
810.459	2047.33
810.642	2032.8
810.825	1989.78
811.008	1992.5
811.191	1912.48
811.374	1921.78
811.557	1954.91
811.74	1986.68
811.923	1891.17
812.106	1910.74
812.289	1833.24
812.472	1870.24
812.654	1886.13
812.837	1829.94
813.02	1785.77
813.203	1785.19
813.386	1695.29
813.569	1686.57
813.751	1643.75
813.934	1678.82
814.117	1658.48
814.3	1592.99
814.482	1566.25
814.665	1574
814.848	1501.54
815.03	1478.49
815.213	1462.21
815.396	1433.54
815.578	1472.48
815.761	1402.54
815.943	1467.05
816.126	1379.87
816.309	1381.03
816.491	1295.01
816.674	1241.73
816.856	1313.02
817.039	1321.36
817.221	1426.17
817.403	1313.02
817.586	1343.06
817.768	1338.79
817.951	1249.09
818.133	1266.91
818.315	1295.39
818.498	1323.87
818.68	1408.54
818.862	1351.19
819.045	1389.75
819.227	1373.86
819.409	1355.26
819.591	1369.6
819.774	1360.11
819.956	1325.81
820.138	1395.37
820.32	1398.66
820.502	1417.84
820.684	1503.28
820.866	1476.94
821.048	1560.83
821.231	1538.74
821.413	1515.88
821.595	1506.97
821.777	1503.67
821.959	1538.74
822.141	1575.75
822.323	1457.75
822.505	1396.92
822.686	1363.4
822.868	1312.83
823.05	1205.88
823.232	1196.39
823.414	1155.31
823.596	1217.9
823.778	1194.06
823.96	1210.53
824.141	1224.29
824.323	1248.7
824.505	1283.58
824.687	1290.16
824.868	1393.82
825.05	1457.75
825.232	1497.47
825.413	1560.25
825.595	1482.94
825.777	1423.85
825.958	1493.4
826.14	1442.84
826.321	1517.62
826.503	1465.12
826.685	1486.82
826.866	1517.43
827.048	1505.03
827.229	1466.67
827.411	1439.35
827.592	1389.94
827.773	1370.96
827.955	1336.27
828.136	1339.37
828.318	1344.22
828.499	1379.67
828.68	1280.67
828.862	1345.96
829.043	1385.1
829.224	1306.63
829.406	1315.35
829.587	1322.52
829.768	1295.01
829.949	1333.95
830.131	1341.31
830.312	1391.49
830.493	1329.88
830.674	1325.04
830.855	1344.41
831.036	1303.53
831.218	1388.78
831.399	1393.62
831.58	1344.22
831.761	1326.01
831.942	1338.41
832.123	1317.67
832.304	1298.88
832.485	1311.28
832.666	1313.02
832.847	1359.14
833.028	1339.96
833.209	1354.68
833.389	1305.86
833.57	1305.28
833.751	1298.11
833.932	1370.57
834.113	1324.26
834.294	1315.16
834.475	1338.99
834.655	1352.74
834.836	1358.75
835.017	1384.52
835.198	1323.87
835.378	1357.01
835.559	1422.49
835.74	1329.49
835.92	1338.99
836.101	1306.83
836.281	1353.13
836.462	1365.14
836.643	1442.64
836.823	1421.91
837.004	1420.55
837.184	1418.42
837.365	1425.01
837.545	1420.36
837.726	1369.02
837.906	1455.43
838.087	1407.77
838.267	1400.02
838.448	1354.1
838.628	1390.52
838.808	1383.16
838.989	1450.59
839.169	1347.9
839.349	1399.44
839.53	1414.35
839.71	1418.04
839.89	1364.17
840.07	1465.7
840.251	1398.85
840.431	1414.94
840.611	1415.71
840.791	1376.57
840.971	1429.85
841.151	1377.35
841.332	1382.58
841.512	1425.4
841.692	1349.45
841.872	1407.96
842.052	1354.49
842.232	1395.76
842.412	1309.93
842.592	1385.87
842.772	1385.87
842.952	1401.18
843.132	1354.29
843.312	1366.31
843.492	1343.25
843.672	1376.38
843.851	1315.93
844.031	1385.1
844.211	1349.84
844.391	1318.64
844.571	1363.21
844.751	1390.91
844.93	1369.21
845.11	1332.21
845.29	1368.82
845.47	1366.5
845.649	1370.57
845.829	1357.2
846.009	1353.52
846.188	1372.31
846.368	1350.03
846.547	1360.88
846.727	1381.22
846.907	1292.49
847.086	1354.1
847.266	1383.55
847.445	1357.97
847.625	1305.47
847.804	1307.41
847.984	1365.14
848.163	1321.55
848.343	1306.24
848.522	1342.86
848.701	1320.58
848.881	1275.05
849.06	1291.91
849.239	1305.86
849.419	1320.58
849.598	1279.51
849.777	1280.67
849.957	1230.88
850.136	1187.09
850.315	1221.96
850.494	1161.71
850.674	1166.36
850.853	1248.7
851.032	1210.73
851.211	1282.22
851.39	1233.39
851.569	1179.73
851.748	1207.24
851.927	1266.14
852.107	1236.69
852.286	1196.58
852.465	1204.14
852.644	1255.68
852.823	1238.24
853.002	1203.75
853.181	1213.63
853.359	1232.81
853.538	1145.43
853.717	1225.64
853.896	1141.75
854.075	1104.94
854.254	1089.05
854.433	1016.98
854.611	1088.67
854.79	997.02
854.969	1082.08
855.148	1112.11
855.327	1045.27
855.505	1112.88
855.684	1073.94
855.863	1125.87
856.041	1084.6
856.22	1136.33
856.399	1093.12
856.577	1210.92
856.756	1134
856.934	1262.07
857.113	1261.49
857.291	1166.36
857.47	1144.08
857.648	1191.16
857.827	1182.63
858.005	1206.08
858.184	1134
858.362	1269.43
858.541	1186.9
858.719	1188.64
858.898	1126.06
859.076	1141.75
859.254	1229.33
859.433	1143.3
859.611	1126.25
859.789	1093.9
859.967	1179.92
860.146	1209.37
860.324	1085.18
860.502	1129.55
860.68	1103.97
860.859	1091.18
861.037	1111.92
861.215	1139.43
861.393	1162.68
861.571	1109.98
861.749	1079.17
861.927	1107.85
862.105	1099.13
862.283	1095.06
862.461	1085.18
862.639	1057.47
862.817	1076.46
862.995	1125.09
863.173	1115.21
863.351	1108.43
863.529	1100.48
863.707	1122.38
863.885	1128.58
864.063	1047.98
864.241	1085.57
864.418	1137.3
864.596	1070.65
864.774	1034.42
864.952	1037.9
865.129	1101.07
865.307	1060.38
865.485	976.49
865.663	1083.63
865.84	1013.49
866.018	1005.94
866.196	946.65
866.373	948.39
866.551	920.88
866.728	879.61
866.906	912.16
867.084	952.85
867.261	975.9
867.439	956.53
867.616	1023.57
867.794	960.99
867.971	990.63
868.149	988.5
868.326	1062.32
868.503	1011.55
868.681	1011.75
868.858	974.74
869.035	984.82
869.213	1009.04
869.39	982.88
869.567	1029.19
869.745	1004
869.922	1022.99
870.099	1029.77
870.276	1042.36
870.454	1003.8
870.631	1024.15
870.808	997.99
870.985	1035.58
871.162	1058.44
871.339	1009.62
871.517	956.14
871.694	942.97
871.871	982.3
872.048	942.19
872.225	967.77
872.402	982.3
872.579	954.01
872.756	991.99
872.933	924.17
873.11	954.4
873.287	965.64
873.463	927.86
873.64	932.7
873.817	967.77
873.994	927.86
874.171	939.67
874.348	946.84
874.524	869.34
874.701	927.47
874.878	890.07
875.055	949.56
875.231	924.17
875.408	928.82
875.585	880.77
875.762	922.82
875.938	901.31
876.115	927.27
876.291	874.96
876.468	924.37
876.645	878.26
876.821	883.49
876.998	885.81
877.174	900.15
877.351	854.62
877.527	866.44
877.704	895.69
877.88	901.7
878.057	866.44
878.233	926.5
878.409	885.42
878.586	900.73
878.762	887.94
878.938	884.26
879.115	805.02
879.291	841.25
879.467	829.82
879.644	828.66
879.82	883.87
879.996	840.09
880.172	799.59
880.349	852.29
880.525	897.24
880.701	823.43
880.877	799.21
881.053	835.24
881.229	825.94
881.405	893.56
881.581	834.86
881.757	820.52
881.933	834.28
882.109	873.61
882.285	841.64
882.461	802.31
882.637	843.38
882.813	788.55
882.989	803.28
883.165	863.92
883.341	795.33
883.517	866.83
883.693	847.45
883.869	875.54
884.044	849.78
884.22	822.07
884.396	873.99
884.572	840.28
884.747	866.83
884.923	859.46
885.099	860.04
885.275	890.66
885.45	808.7
885.626	809.09
885.801	812.96
885.977	806.38
886.153	760.46
886.328	832.92
886.504	807.93
886.679	837.76
886.855	806.96
887.03	861.01
887.206	858.88
887.381	822.65
887.557	863.92
887.732	857.14
887.908	852.49
888.083	866.24
888.258	831.56
888.434	813.54
888.609	815.48
888.784	846.48
888.96	764.91
889.135	827.11
889.31	788.16
889.485	815.48
889.661	804.24
889.836	833.5
890.011	793.78
890.186	811.22
890.361	800.95
890.537	837.18
890.712	829.63
890.887	812.96
891.062	821.29
891.237	868.96
891.412	792.62
891.587	817.03
891.762	864.89
891.937	890.46
892.112	760.65
892.287	822.84
892.462	760.26
892.637	741.47
892.812	715.9
892.987	765.69
893.161	733.33
893.336	734.5
893.511	761.81
893.686	774.99
893.861	761.04
894.035	744.38
894.21	710.28
894.385	701.75
894.56	748.45
894.734	687.03
894.909	673.08
895.084	675.21
895.258	676.76
895.433	698.65
895.608	682.18
895.782	609.34
895.957	648.47
896.131	650.02
896.306	557.6
896.48	602.75
896.655	632
896.829	528.54
897.004	530.48
897.178	556.83
897.353	541.33
897.527	576.4
897.701	530.67
897.876	512.27
898.05	587.44
898.224	568.84
898.399	604.3
898.573	569.62
898.747	449.49
898.921	530.87
899.096	414.43
899.27	449.88
899.444	440.19
899.618	440.19
899.792	495.41
899.967	475.84
900.141	532.22
900.315	446.78
900.489	467.12
900.663	504.13
900.837	499.67
901.011	434.38
901.185	530.48
901.359	484.56
901.533	477.97
901.707	474.29
901.881	480.69
902.055	430.7
902.229	433.41
902.403	535.9
902.576	471.97
902.75	489.99
902.924	593.45
903.098	530.48
903.272	556.44
903.446	580.27
903.619	550.82
903.793	599.84
903.967	612.43
904.14	625.22
904.314	609.34
904.488	597.71
904.661	630.26
904.835	613.6
905.009	629.29
905.182	682.77
905.356	620.18
905.529	613.02
905.703	566.9
905.876	571.17
906.05	547.72
906.223	559.35
906.397	496.57
906.57	481.27
906.744	491.54
906.917	481.66
907.09	495.8
907.264	461.51
907.437	434.58
907.61	406.48
907.784	444.07
907.957	452.59
908.13	429.54
908.304	473.13
908.477	425.08
908.65	419.27
908.823	396.6
908.996	486.11
909.17	413.07
909.343	431.67
909.516	441.36
909.689	424.89
909.862	393.89
910.035	403.58
910.208	374.13
910.381	382.26
910.554	502.19
910.727	409
910.9	395.44
911.073	380.71
911.246	443.87
911.419	488.44
911.592	450.27
911.765	404.35
911.938	383.04
912.11	423.53
912.283	420.82
912.456	447.36
912.629	422.56
912.802	391.56
912.974	384.39
913.147	338.86
913.32	270.66
913.493	345.84
913.665	389.63
913.838	380.33
914.01	349.13
914.183	358.43
914.356	352.81
914.528	392.53
914.701	432.44
914.873	418.69
915.046	325.88
915.218	312.32
915.391	291.59
915.563	301.86
915.736	348.75
915.908	377.03
916.081	376.84
916.253	328.6
916.425	357.85
916.598	365.6
916.77	363.28
916.942	335.96
917.115	275.51
917.287	376.45
917.459	306.51
917.632	301.47
917.804	259.82
917.976	307.48
918.148	316.2
918.32	327.82
918.493	382.46
918.665	397.96
918.837	343.32
919.009	406.09
919.181	427.41
919.353	382.07
919.525	389.82
919.697	386.14
919.869	369.09
920.041	434.77
920.213	484.56
920.385	409.19
920.557	381.88
920.729	391.56
920.901	414.81
921.073	387.49
921.244	362.31
921.416	434.77
921.588	389.43
921.76	364.83
921.932	430.89
922.103	390.4
922.275	364.83
922.447	388.66
922.619	323.17
922.79	381.29
922.962	371.99
923.134	406.09
923.305	331.7
923.477	314.06
923.648	315.23
923.82	335.18
923.991	311.93
924.163	285.39
924.335	327.63
924.506	329.76
924.677	372.96
924.849	318.71
925.02	338.86
925.192	353.98
925.363	318.52
925.535	329.18
925.706	322.78
925.877	353.59
926.049	309.61
926.22	335.57
926.391	319.88
926.562	355.14
926.734	286.75
926.905	353.78
927.076	260.01
927.247	317.94
927.419	266.4
927.59	238.31
927.761	257.49
927.932	262.33
928.103	271.83
928.274	225.52
928.445	243.73
928.616	229.4
928.787	233.47
928.958	253.42
929.129	242.38
929.3	206.92
929.471	203.63
929.642	160.62
929.813	124.58
929.984	191.03
930.155	137.56
930.326	178.05
930.496	168.17
930.667	77.31
930.838	117.99
931.009	104.43
931.18	140.85
931.35	131.75
931.521	135.24
931.692	101.72
931.863	67.23
932.033	107.53
932.204	112.76
932.374	100.17
932.545	60.64
932.716	134.07
932.886	74.59
933.057	23.44
933.227	31.19
933.398	116.25
933.568	47.86
933.739	-9.49
933.909	33.91
934.08	56.96
934.25	27.12
934.421	5.62
934.591	52.31
934.761	7.17
934.932	-10.07
935.102	40.49
935.272	28.48
935.443	22.86
935.613	15.31
935.783	21.12
935.953	11.82
936.123	161.97
936.294	-15.11
936.464	5.81
936.634	-7.36
936.804	-6.59
936.974	8.33
937.144	36.23
937.314	49.6
937.484	-7.75
937.655	12.21
937.825	75.37
937.995	5.23
938.165	72.46
938.334	17.44
938.504	28.48
938.674	38.94
938.844	48.24
939.014	99.97
939.184	64.32
939.354	99.59
939.524	99.97
939.694	61.03
939.863	77.69
940.033	133.88
940.203	91.25
940.373	91.45
940.542	100.75
940.712	74.98
940.882	83.12
941.051	124.39
941.221	84.28
941.391	87.19
941.56	25.38
941.73	60.26
941.899	162.55
942.069	64.13
942.238	79.82
942.408	50.18
942.577	97.07
942.747	61.81
942.916	11.04
943.086	24.22
943.255	94.94
943.425	110.24
943.594	56.77
943.763	-10.66
943.933	36.04
944.102	-4.46
944.271	47.86
944.441	66.65
944.61	54.44
944.779	31.39
944.948	122.45
945.117	-6.01
945.287	42.43
945.456	0.39
945.625	25.38
945.794	67.42
945.963	18.41
946.132	69.75
946.301	30.22
946.47	78.08
946.639	-4.65
946.808	30.61
946.977	78.86
947.146	99.2
947.315	27.12
947.484	62.19
947.653	35.84
947.822	28.29
947.991	17.44
948.16	105.4
948.329	71.3
948.498	61.03
948.666	46.89
948.835	89.12
949.004	-7.94
949.173	-3.87
949.341	45.34
949.51	95.52
949.679	78.86
949.847	96.68
950.016	129.42
950.185	114.31
950.353	45.72
950.522	55.8
950.69	89.9
950.859	12.4
951.028	65.1
951.196	92.61
951.365	50.96
951.533	70.52
951.701	65.29
951.87	72.27
952.038	24.41
952.207	30.81
952.375	116.25
952.543	29.84
952.712	56.19
952.88	27.51
953.048	100.75
953.217	56.19
953.385	68.01
953.553	87.38
953.721	23.83
953.89	57.16
954.058	35.84
954.226	54.64
954.394	77.89
954.562	15.89
954.73	68.59
954.898	42.62
955.067	79.63
955.235	60.45
955.403	97.84
955.571	107.72
955.739	77.5
955.907	39.14
956.075	50.18
956.243	40.69
956.41	89.32
956.578	3.49
956.746	-3.87
956.914	31
957.082	75.76
957.25	75.76
957.418	50.57
957.585	60.84
957.753	106.95
957.921	22.67
958.089	64.13
958.256	61.42
958.424	61.61
958.592	62.39
958.759	31.97
958.927	56.57
959.095	62.97
959.262	59.09
959.43	72.46
959.597	26.93
959.765	52.12
959.932	19.37
960.1	69.17
960.267	66.46
960.435	66.26
960.602	67.62
960.77	54.44
960.937	34.29
961.104	69.56
961.272	32.36
961.439	36.62
961.606	72.46
961.774	77.31
961.941	58.32
962.108	62.97
962.275	77.31
962.443	79.05
962.61	55.8
962.777	150.93
962.944	103.46
963.111	56.57
963.278	60.06
963.446	69.36
963.613	62.39
963.78	84.86
963.947	74.01
964.114	76.34
964.281	147.64
964.448	91.06
964.615	38.94
964.782	75.17
964.949	93.39
965.116	98.04
965.282	103.65
965.449	56.57
965.616	30.22
965.783	90.48
965.95	74.79
966.117	42.82
966.283	78.47
966.45	62
966.617	92.61
966.784	125.94
966.95	120.7
967.117	126.71
967.284	65.87
967.45	50.76
967.617	80.99
967.784	113.54
967.95	155.77
968.117	85.64
968.283	109.08
968.45	172.44
968.616	100.36
968.783	135.82
968.949	87.77
969.116	131.36
969.282	71.69
969.449	94.55
969.615	83.31
969.781	30.42
969.948	90.67
970.114	45.34
970.28	162.55
970.447	78.08
970.613	150.15
970.779	87.57
970.945	111.21
971.112	77.31
971.278	84.47
971.444	84.47
971.61	113.15
971.776	84.09
971.942	120.32
972.108	99.59
972.275	71.69
972.441	82.54
972.607	155.58
972.773	57.74
972.939	97.07
973.105	84.67
973.271	76.72
973.437	64.13
973.602	81.37
973.768	104.24
973.934	80.6
974.1	111.4
974.266	23.44
974.432	88.93
974.598	57.54
974.763	119.35
974.929	62
975.095	163.91
975.261	86.22
975.426	64.71
975.592	79.63
975.758	127.1
975.923	41.85
976.089	61.81
976.255	104.82
976.42	83.7
976.586	82.73
976.751	87.57
976.917	158.49
977.082	71.3
977.248	40.11
977.413	44.95
977.579	64.13
977.744	107.14
977.91	61.81
978.075	78.08
978.24	107.72
978.406	66.46
978.571	56.38
978.736	54.83
978.902	94.35
979.067	31
979.232	36.23
979.397	74.98
979.563	97.26
979.728	16.27
979.893	73.43
980.058	36.42
980.223	108.89
980.388	74.21
980.554	83.7
980.719	39.33
980.884	90.09
981.049	137.95
981.214	40.49
981.379	94.55
981.544	52.89
981.709	77.5
981.874	67.62
982.039	82.54
982.204	103.46
982.368	71.88
982.533	25.96
982.698	104.43
982.863	106.17
983.028	49.21
983.193	83.31
983.357	76.14
983.522	89.12
983.687	74.79
983.852	47.27
984.016	54.64
984.181	74.79
984.346	74.98
984.51	89.51
984.675	77.11
984.839	105.79
985.004	92.03
985.168	104.43
985.333	105.2
985.498	69.56
985.662	82.34
985.827	125.94
985.991	75.95
986.155	56.19
986.32	89.32
986.484	125.35
986.649	92.61
986.813	27.71
986.977	68.01
987.142	93
987.306	42.24
987.47	55.61
987.634	41.46
987.799	98.42
987.963	90.09
988.127	86.8
988.291	149.19
988.455	88.54
988.62	37.01
988.784	88.93
988.948	102.49
989.112	46.89
989.276	68.59
989.44	71.49
989.604	57.54
989.768	57.54
989.932	154.42
990.096	26.54
990.26	47.27
990.424	6.97
990.588	32.55
990.752	150.74
990.915	90.09
991.079	46.11
991.243	15.89
991.407	77.11
991.571	53.86
991.734	89.51
991.898	78.66
992.062	129.42
992.226	76.14
992.389	13.76
992.553	27.12
992.717	40.88
992.88	41.66
993.044	56.57
993.207	42.43
993.371	83.89
993.535	76.72
993.698	70.52
993.862	93.19
994.025	75.37
994.189	73.04
994.352	48.82
994.515	53.28
994.679	88.74
994.842	24.41
995.006	103.27
995.169	49.6
995.332	51.15
995.496	87.96
995.659	18.6
995.822	52.51
995.985	49.79
996.149	108.11
996.312	56.57
996.475	109.27
996.638	61.22
996.801	111.6
996.964	125.16
997.128	78.66
997.291	73.82
997.454	84.09
997.617	15.31
997.78	103.27
997.943	32.36
998.106	100.36
998.269	30.42
998.432	24.02
998.595	56.57
998.758	13.17
998.92	18.6
999.083	11.04
999.246	49.6
999.409	5.23
999.572	9.88
999.735	14.34
999.897	67.23
1000.06	29.26
1000.223	47.27
1000.386	64.71
1000.548	87.96
1000.711	69.75
1000.874	66.07
1001.036	13.56
1001.199	82.73
1001.361	41.85
1001.524	24.61
1001.687	68.39
1001.849	17.82
1002.012	45.92
1002.174	67.04
1002.337	61.03
1002.499	16.27
1002.661	90.09
1002.824	33.71
1002.986	13.37
1003.149	65.49
1003.311	16.27
1003.473	106.95
1003.636	49.6
1003.798	48.05
1003.96	56.77
1004.123	41.27
1004.285	22.09
1004.447	42.82
1004.609	33.32
1004.771	103.27
1004.933	-2.13
1005.096	2.91
1005.258	-4.26
1005.42	10.07
1005.582	87.19
1005.744	39.72
1005.906	-15.31
1006.068	58.32
1006.23	-11.43
1006.392	-1.74
1006.554	21.51
1006.716	77.69
1006.878	53.86
1007.04	-12.59
1007.202	4.65
1007.363	21.31
1007.525	64.13
1007.687	40.49
1007.849	72.85
1008.011	-12.01
1008.172	6.01
1008.334	36.23
1008.496	30.22
1008.658	-3.68
1008.819	14.92
1008.981	-11.82
1009.143	14.53
1009.304	33.91
1009.466	43.59
1009.627	49.41
1009.789	107.72
1009.95	42.62
1010.112	33.71
1010.273	45.72
1010.435	30.03
1010.596	21.31
1010.758	16.08
1010.919	25.96
1011.081	6.2
1011.242	42.43
1011.403	43.4
1011.565	29.64
1011.726	45.34
1011.887	12.21
1012.049	31.77
1012.21	72.46
1012.371	74.79
1012.532	-14.92
1012.693	22.09
1012.855	10.85
1013.016	51.15
1013.177	61.22
1013.338	9.11
1013.499	93.19
1013.66	51.73
1013.821	19.37
1013.982	30.03
1014.143	61.22
1014.304	-11.82
1014.465	43.59
1014.626	39.14
1014.787	22.47
1014.948	75.17
1015.109	-42.43
1015.27	69.94
1015.431	-0.19
1015.592	-26.54
1015.752	72.07
1015.913	31.58
1016.074	30.81
1016.235	8.14
1016.395	19.76
1016.556	7.94
1016.717	12.4
1016.877	65.29
1017.038	-6.39
1017.199	42.04
1017.359	16.47
1017.52	30.22
1017.681	31.19
1017.841	37.78
1018.002	3.49
1018.162	-1.55
1018.323	63.74
1018.483	14.92
1018.644	15.69
1018.804	-3.68
1018.964	-12.21
1019.125	15.5
1019.285	20.73
1019.446	-17.05
1019.606	-8.91
1019.766	-37.2
1019.926	35.46
1020.087	20.15
1020.247	-37.97
1020.407	23.44
1020.567	61.61
1020.728	16.86
1020.888	-19.76
1021.048	18.79
1021.208	17.44
1021.368	8.52
1021.528	76.34
1021.688	41.66
1021.848	41.07
1022.008	28.48
1022.168	-0.58
1022.328	21.31
1022.488	35.26
1022.648	-1.74
1022.808	12.79
1022.968	21.12
1023.128	-29.06
1023.288	14.14
1023.448	22.67
1023.608	38.36
1023.767	39.91
1023.927	-1.55
1024.087	-18.21
1024.247	-14.14
1024.406	6.39
1024.566	-25.77
1024.726	-13.76
1024.885	2.32
1025.045	42.82
1025.205	9.88
1025.364	2.32
1025.524	-0.19
1025.683	-8.91
1025.843	28.67
1026.003	9.49
1026.162	75.95
1026.321	42.62
1026.481	21.89
1026.64	31.19
1026.8	24.22
1026.959	22.86
1027.119	42.62
1027.278	-12.59
1027.437	-20.34
1027.597	15.89
1027.756	32.74
1027.915	21.51
1028.074	28.87
1028.234	7.36
1028.393	15.69
1028.552	5.04
1028.711	-65.49
1028.87	40.3
1029.03	-51.54
1029.189	6.39
1029.348	-55.8
1029.507	-36.42
1029.666	28.67
1029.825	-37.2
1029.984	-34.49
1030.143	21.12
1030.302	-20.34
1030.461	-49.79
1030.62	9.11
1030.779	16.27
1030.938	2.13
1031.097	-24.02
1031.255	8.52
1031.414	34.1
1031.573	46.69
1031.732	-70.72
1031.891	6.59
1032.049	45.53
1032.208	28.29
1032.367	-10.27
1032.525	-8.52
1032.684	-12.21
1032.843	5.04
1033.001	-42.62
1033.16	141.63
1033.319	50.37
1033.477	39.14
1033.636	0.58
1033.794	-27.32
1033.953	30.42
1034.111	46.5
1034.27	-2.13
1034.428	6.2
1034.587	-36.23
1034.745	32.16
1034.903	-4.46
1035.062	42.04
1035.22	-28.09
1035.378	28.29
1035.537	-28.67
1035.695	25.77
1035.853	-8.33
1036.011	2.91
1036.17	5.23
1036.328	-62.97
1036.486	28.29
1036.644	3.87
1036.802	-64.32
1036.96	-18.99
1037.119	-1.94
1037.277	-16.86
1037.435	-18.41
1037.593	-21.51
1037.751	-9.69
1037.909	24.61
1038.067	24.61
