Data from oakcork_FLMT105791__39__17-27-14-066.txt Node

Date: Mon Mar 20 17:27:14 GMT 2023
User: antho
Spectrometer: FLMT10579
Trigger mode: 0
Integration Time (sec): 1.000000E-1
Scans to average: 10
Electric dark correction enabled: true
Nonlinearity correction enabled: false
Boxcar width: 0
XAxis mode: Wavelengths
Number of Pixels in Spectrum: 3648
>>>>>Begin Spectral Data<<<<<
345.248	-179.49
345.464	-179.49
345.681	-179.49
345.898	-176.2
346.114	-183.95
346.331	-30.5
346.548	22.59
346.764	-10.93
346.981	5.93
347.197	-13.84
347.414	17.94
347.631	-24.49
347.847	70.44
348.064	2.63
348.28	27.82
348.497	-48.32
348.713	-19.26
348.93	23.56
349.146	1.86
349.363	4.96
349.579	23.94
349.796	16.39
350.012	-22.36
350.229	32.28
350.445	-2.02
350.661	-14.03
350.878	2.24
351.094	-2.02
351.311	14.84
351.527	39.83
351.743	5.93
351.96	21.04
352.176	38.67
352.392	32.86
352.609	32.86
352.825	-0.08
353.041	-1.82
353.257	5.73
353.474	9.22
353.69	11.74
353.906	5.34
354.122	-27.59
354.339	46.61
354.555	20.07
354.771	2.24
354.987	51.84
355.203	79.74
355.42	3.41
355.636	-19.84
355.852	5.54
356.068	7.67
356.284	-33.99
356.5	54.94
356.716	7.48
356.932	-0.66
357.148	36.73
357.364	30.92
357.58	31.11
357.796	46.81
358.012	48.16
358.228	22.98
358.444	-56.46
358.66	50.49
358.876	-0.27
359.092	-15.39
359.308	24.53
359.524	34.6
359.74	7.67
359.956	-11.12
360.172	11.74
360.388	53.59
360.604	-3.96
360.819	99.31
361.035	29.76
361.251	62.69
361.467	-7.44
361.683	60.17
361.898	14.06
362.114	38.28
362.33	25.69
362.546	53.59
362.762	6.51
362.977	19.1
363.193	18.13
363.409	46.22
363.624	-3.37
363.84	-4.15
364.056	-12.29
364.271	30.34
364.487	34.79
364.703	8.25
364.918	-15.77
365.134	2.24
365.35	60.76
365.565	134.57
365.781	6.12
365.996	40.41
366.212	87.49
366.427	36.73
366.643	2.63
366.858	17.16
367.074	-34.37
367.289	69.86
367.505	114.42
367.72	-16.55
367.936	23.94
368.151	39.06
368.367	19.1
368.582	38.28
368.798	10.19
369.013	46.22
369.228	28.21
369.444	15.61
369.659	68.7
369.874	60.17
370.09	87.49
370.305	-22.75
370.52	-6.86
370.736	77.42
370.951	16.97
371.166	60.17
371.381	87.49
371.597	47.97
371.812	0.31
372.027	3.02
372.242	7.86
372.458	89.62
372.673	-16.74
372.888	25.49
373.103	59.79
373.318	107.45
373.533	31.69
373.749	45.84
373.964	-20.04
374.179	78.39
374.394	-16.16
374.609	58.43
374.824	17.36
375.039	86.52
375.254	3.6
375.469	78.39
375.684	25.49
375.899	51.26
376.114	17.16
376.329	41.96
376.544	69.28
376.759	51.65
376.974	16.97
377.189	26.27
377.404	28.01
377.619	58.82
377.834	-2.6
378.049	-9.77
378.264	-0.66
378.478	49.71
378.693	20.65
378.908	30.14
379.123	41.57
379.338	73.54
379.553	31.31
379.767	26.08
379.982	66.57
380.197	62.69
380.412	36.34
380.626	33.44
380.841	109
381.056	40.22
381.271	119.27
381.485	0.11
381.7	-0.86
381.915	34.99
382.129	21.04
382.344	48.94
382.559	14.26
382.773	55.72
382.988	-11.32
383.202	27.63
383.417	20.84
383.632	96.79
383.846	26.08
384.061	50.29
384.275	14.84
384.49	39.25
384.704	49.71
384.919	27.63
385.133	42.54
385.348	70.44
385.562	-9.77
385.777	84.2
385.991	36.73
386.206	11.74
386.42	20.26
386.634	53.39
386.849	55.91
387.063	44.48
387.277	17.36
387.492	23.94
387.706	22.01
387.92	11.93
388.135	76.06
388.349	42.74
388.563	39.25
388.778	66.37
388.992	81.68
389.206	57.07
389.42	114.62
389.635	36.15
389.849	68.51
390.063	81.29
390.277	54.56
390.491	88.27
390.706	81.87
390.92	65.41
391.134	45.45
391.348	79.55
391.562	20.26
391.776	34.41
391.99	34.99
392.205	84.39
392.419	40.02
392.633	48.55
392.847	94.86
393.061	32.86
393.275	103.77
393.489	45.45
393.703	51.46
393.917	65.21
394.131	6.12
394.345	77.42
394.559	82.84
394.773	28.4
394.986	75.87
395.2	75.67
395.414	84.78
395.628	44.29
395.842	47.58
396.056	48.55
396.27	-8.99
396.484	59.59
396.697	72.96
396.911	108.81
397.125	82.07
397.339	72.19
397.553	82.65
397.766	110.74
397.98	111.13
398.194	91.37
398.408	51.26
398.621	109.97
398.835	102.61
399.049	98.92
399.262	109.97
399.476	120.04
399.69	116.75
399.903	151.82
400.117	106.87
400.331	87.11
400.544	68.51
400.758	194.83
400.971	94.86
401.185	115.97
401.398	78
401.612	155.89
401.826	124.11
402.039	135.35
402.253	61.92
402.466	139.22
402.68	95.63
402.893	109.19
403.106	116.56
403.32	73.74
403.533	119.85
403.747	93.89
403.96	107.45
404.174	131.09
404.387	97.37
404.6	106.29
404.814	144.26
405.027	117.72
405.24	87.69
405.454	95.82
405.667	145.04
405.88	38.28
406.094	118.49
406.307	147.17
406.52	126.82
406.733	60.17
406.947	49.91
407.16	134.19
407.373	164.22
407.586	76.45
407.799	82.07
408.012	139.03
408.226	123.14
408.439	153.75
408.652	64.44
408.865	112.87
409.078	157.82
409.291	129.92
409.504	116.36
409.717	151.04
409.93	126.82
410.143	124.89
410.357	64.24
410.57	73.54
410.783	111.52
410.996	137.09
411.209	103.38
411.421	167.7
411.634	97.76
411.847	101.64
412.06	134.77
412.273	116.94
412.486	152.2
412.699	227.96
412.912	127.4
413.125	184.56
413.338	160.34
413.55	151.82
413.763	107.26
413.976	127.21
414.189	138.45
414.402	119.66
414.615	188.44
414.827	112.49
415.04	115.59
415.253	156.85
415.466	193.67
415.678	197.35
415.891	147.36
416.104	160.15
416.316	124.69
416.529	111.52
416.742	171.39
416.954	195.22
417.167	142.13
417.38	137.48
417.592	181.85
417.805	131.28
418.017	77.03
418.23	165.19
418.442	120.04
418.655	122.76
418.868	151.43
419.08	173.71
419.293	162.47
419.505	131.47
419.718	164.99
419.93	198.7
420.142	149.1
420.355	189.99
420.567	211.49
420.78	147.94
420.992	128.95
421.205	198.7
421.417	115.2
421.629	147.75
421.842	114.04
422.054	130.12
422.266	159.95
422.479	181.46
422.691	126.82
422.903	184.95
423.115	124.11
423.328	157.05
423.54	170.8
423.752	143.68
423.964	133.99
424.177	152.59
424.389	118.49
424.601	275.82
424.813	162.28
425.025	205.68
425.238	210.91
425.45	167.12
425.662	155.69
425.874	463.56
426.086	153.37
426.298	169.64
426.51	163.83
426.722	166.15
426.934	146
427.146	176.42
427.358	122.37
427.57	200.64
427.782	178.36
427.994	156.66
428.206	157.63
428.418	139.03
428.63	171.19
428.842	203.16
429.054	193.09
429.266	176.81
429.478	131.86
429.69	169.06
429.902	111.91
430.114	168.48
430.325	175.65
430.537	145.81
430.749	141.74
430.961	110.94
431.173	123.92
431.384	176.04
431.596	66.76
431.808	171.97
432.02	202.39
432.231	196.57
432.443	220.98
432.655	212.65
432.867	112.87
433.078	181.65
433.29	261.48
433.502	212.27
433.713	235.9
433.925	210.72
434.136	223.31
434.348	152.4
434.56	148.72
434.771	276.2
434.983	167.51
435.194	173.52
435.406	174.87
435.617	256.63
435.829	240.94
436.04	225.83
436.252	215.17
436.463	264.77
436.675	249.66
436.886	233
437.098	235.52
437.309	273.1
437.521	228.35
437.732	245.98
437.943	231.06
438.155	204.52
438.366	171.39
438.578	292.28
438.789	226.99
439	227.38
439.211	228.35
439.423	230.48
439.634	265.55
439.845	238.03
440.057	223.12
440.268	282.6
440.479	231.06
440.69	269.23
440.902	222.92
441.113	223.5
441.324	206.45
441.535	253.92
441.746	309.53
441.957	234.74
442.168	223.31
442.38	242.3
442.591	287.44
442.802	247.53
443.013	233.19
443.224	270.97
443.435	251.6
443.646	239.78
443.857	266.71
444.068	227.96
444.279	237.84
444.49	335.68
444.701	255.47
444.912	336.07
445.123	275.23
445.334	282.98
445.545	286.47
445.756	247.14
445.967	230.67
446.178	273.3
446.388	296.93
446.599	282.21
446.81	287.63
447.021	235.13
447.232	305.85
447.443	321.93
447.653	249.08
447.864	318.83
448.075	294.03
448.286	308.95
448.496	293.83
448.707	336.85
448.918	279.88
449.129	382.96
449.339	253.15
449.55	284.73
449.761	281.43
449.971	348.08
450.182	303.13
450.393	313.4
450.603	284.92
450.814	341.88
451.024	341.3
451.235	350.8
451.446	357.77
451.656	395.16
451.867	303.91
452.077	309.53
452.288	388.38
452.498	375.4
452.709	277.17
452.919	325.41
453.13	276.98
453.34	331.61
453.55	264
453.761	350.41
453.971	316.7
454.182	349.44
454.392	333.75
454.602	391.09
454.813	328.51
455.023	355.25
455.233	291.12
455.444	328.32
455.654	267.87
455.864	319.8
456.075	302.36
456.285	326.38
456.495	299.26
456.705	309.14
456.916	387.8
457.126	376.56
457.336	340.14
457.546	288.22
457.756	304.68
457.967	379.28
458.177	321.54
458.387	351.76
458.597	296.74
458.807	324.64
459.017	306.62
459.227	324.45
459.437	336.07
459.647	371.91
459.857	351.96
460.068	333.94
460.278	369.2
460.488	350.41
460.698	420.93
460.908	331.42
461.117	291.51
461.327	324.25
461.537	331.61
461.747	356.41
461.957	331.42
462.167	422.09
462.377	370.75
462.587	341.11
462.797	374.82
463.007	387.8
463.216	366.68
463.426	412.79
463.636	390.9
463.846	337.04
464.056	398.26
464.265	413.38
464.475	346.92
464.685	341.3
464.895	396.52
465.104	354.28
465.314	415.7
465.524	357.19
465.733	349.63
465.943	443.99
466.153	434.3
466.362	407.18
466.572	419.96
466.782	371.14
466.991	383.73
467.201	442.63
467.41	356.22
467.62	383.73
467.829	362.81
468.039	423.26
468.249	374.82
468.458	383.15
468.668	414.93
468.877	427.52
469.086	443.6
469.296	435.27
469.505	368.81
469.715	466.27
469.924	405.82
470.134	463.75
470.343	475.18
470.552	379.47
470.762	421.71
470.971	376.56
471.18	416.67
471.39	409.31
471.599	375.01
471.808	415.7
472.018	380.44
472.227	456.19
472.436	452.71
472.645	450.38
472.855	416.67
473.064	479.64
473.273	470.73
473.482	457.74
473.691	457.74
473.901	441.28
474.11	448.25
474.319	520.71
474.528	459.29
474.737	515.87
474.946	470.14
475.155	481.77
475.364	549.77
475.573	476.54
475.783	451.54
475.992	510.06
476.201	529.43
476.41	474.6
476.619	452.51
476.828	475.76
477.037	472.28
477.245	490.49
477.454	509.28
477.663	500.95
477.872	481.57
478.081	537.57
478.29	491.65
478.499	570.5
478.708	527.69
478.917	600.54
479.125	512.19
479.334	549.77
479.543	509.86
479.752	537.96
479.961	530.4
480.169	567.99
480.378	559.27
480.587	671.45
480.796	578.84
481.004	542.41
481.213	597.44
481.422	557.14
481.63	553.84
481.839	616.62
482.048	645.1
482.256	594.92
482.465	589.1
482.674	602.67
482.882	615.45
483.091	657.88
483.299	642.39
483.508	626.3
483.716	623.4
483.925	630.57
484.134	599.95
484.342	601.31
484.551	631.34
484.759	624.75
484.967	639.48
485.176	646.45
485.384	660.4
485.593	649.75
485.801	648
486.01	637.93
486.218	600.54
486.426	525.75
486.635	549.19
486.843	564.69
487.051	582.13
487.26	564.5
487.468	646.07
487.676	626.11
487.885	597.44
488.093	636.38
488.301	618.55
488.509	654.01
488.717	685.59
488.926	656.14
489.134	663.89
489.342	657.69
489.55	640.84
489.758	660.79
489.967	654.98
490.175	787.31
490.383	668.54
490.591	765.41
490.799	673.97
491.007	722.6
491.215	714.27
491.423	700.51
491.631	717.56
491.839	705.16
492.047	711.55
492.255	679.2
492.463	674.74
492.671	678.62
492.879	739.65
493.087	711.17
493.295	719.3
493.503	744.49
493.711	731.12
493.919	785.18
494.127	745.07
494.334	744.1
494.542	699.54
494.75	732.87
494.958	746.81
495.166	782.46
495.374	767.93
495.581	788.47
495.789	778.98
495.997	822.18
496.205	754.56
496.412	760.18
496.62	755.53
496.828	788.66
497.035	754.37
497.243	811.91
497.451	784.79
497.658	802.23
497.866	774.71
498.074	832.26
498.281	724.53
498.489	869.26
498.696	769.48
498.904	753.98
499.112	764.25
499.319	822.96
499.527	796.41
499.734	835.16
499.942	756.7
500.149	795.83
500.357	801.06
500.564	754.95
500.771	829.16
500.979	749.72
501.186	772
501.394	802.61
501.601	766.58
501.808	792.73
502.016	788.28
502.223	774.91
502.43	786.34
502.638	761.73
502.845	743.91
503.052	862.68
503.26	790.21
503.467	878.18
503.674	828.96
503.881	823.54
504.089	891.93
504.296	823.54
504.503	770.84
504.71	782.66
504.917	756.5
505.125	816.37
505.332	825.09
505.539	851.24
505.746	892.13
505.953	857.83
506.16	863.64
506.367	884.18
506.574	900.65
506.781	923.71
506.988	835.74
507.195	864.03
507.402	857.25
507.609	880.11
507.816	826.06
508.023	848.53
508.23	818.89
508.437	799.13
508.644	862.48
508.851	892.51
509.058	896.78
509.265	851.05
509.472	869.26
509.679	983.38
509.885	874.49
510.092	862.09
510.299	910.92
510.506	878.76
510.713	896
510.92	881.47
511.126	918.28
511.333	920.8
511.54	935.52
511.746	976.79
511.953	946.18
512.16	979.12
512.367	890.58
512.573	893.48
512.78	914.99
512.987	898.13
513.193	919.25
513.4	851.83
513.606	916.54
513.813	934.94
514.02	904.91
514.226	1001.2
514.433	970.98
514.639	873.72
514.846	896.78
515.052	890.58
515.259	907.04
515.465	930.87
515.672	913.05
515.878	1006.05
516.085	943.08
516.291	982.02
516.497	902.01
516.704	904.33
516.91	870.23
517.117	851.83
517.323	819.86
517.529	831.48
517.736	866.36
517.942	828.96
518.148	855.51
518.354	907.43
518.561	905.3
518.767	907.43
518.973	936.69
519.179	946.18
519.386	906.66
519.592	906.66
519.798	917.31
520.004	980.47
520.21	930.87
520.417	989.58
520.623	1001.98
520.829	1050.61
521.035	1026.78
521.241	978.15
521.447	1017.87
521.653	1103.5
521.859	1031.24
522.065	1033.56
522.271	1091.1
522.477	1025.62
522.683	1064.17
522.889	1068.05
523.095	1048.67
523.301	1049.06
523.507	995.01
523.713	1029.88
523.919	1001.4
524.125	1092.65
524.331	1011.28
524.537	1117.45
524.742	1109.7
524.948	1127.14
525.154	1105.05
525.36	1220.72
525.566	1136.25
525.772	1174.41
525.977	1095.75
526.183	1138.57
526.389	1129.66
526.595	1086.84
526.8	1093.62
527.006	1037.63
527.212	988.22
527.417	1007.02
527.623	994.62
527.829	1106.41
528.034	1072.89
528.24	1093.82
528.446	1080.06
528.651	1164.92
528.857	1162.98
529.062	1203.48
529.268	1133.92
529.473	1163.37
529.679	1136.63
529.884	1256.56
530.09	1212.78
530.295	1230.41
530.501	1202.31
530.706	1208.71
530.912	1150
531.117	1208.32
531.323	1201.73
531.528	1252.69
531.733	1282.53
531.939	1194.18
532.144	1251.72
532.35	1206.38
532.555	1263.34
532.76	1240.87
532.966	1260.24
533.171	1225.95
533.376	1182.55
533.581	1186.04
533.787	1220.33
533.992	1237
534.197	1247.26
534.402	1196.11
534.607	1204.25
534.813	1321.47
535.018	1210.26
535.223	1242.61
535.428	1245.71
535.633	1271.29
535.838	1271.87
536.043	1296.67
536.249	1375.52
536.454	1248.43
536.659	1283.69
536.864	1238.74
537.069	1260.44
537.274	1280.01
537.479	1304.81
537.684	1282.53
537.889	1248.43
538.094	1327.09
538.299	1274
538.504	1303.45
538.708	1296.28
538.913	1306.16
539.118	1297.64
539.323	1317.79
539.528	1288.73
539.733	1277.29
539.938	1297.64
540.142	1280.98
540.347	1286.79
540.552	1253.08
540.757	1273.03
540.962	1260.05
541.166	1228.28
541.371	1260.24
541.576	1281.56
541.781	1179.45
541.985	1278.65
542.19	1284.27
542.395	1338.33
542.599	1362.74
542.804	1287.76
543.008	1350.92
543.213	1268.96
543.418	1266.44
543.622	1333.87
543.827	1225.18
544.031	1352.08
544.236	1349.95
544.44	1321.08
544.645	1405.17
544.849	1327.86
545.054	1338.52
545.258	1430.94
545.463	1390.44
545.667	1308.29
545.872	1355.18
546.076	1358.47
546.281	1328.06
546.485	1323.99
546.689	1367.58
546.894	1389.28
547.098	1345.11
547.302	1326.51
547.507	1330.96
547.711	1342.01
547.915	1374.17
548.119	1319.14
548.324	1314.11
548.528	1364.09
548.732	1337.16
548.936	1375.14
549.141	1366.03
549.345	1329.99
549.549	1360.99
549.753	1359.64
549.957	1424.74
550.161	1422.22
550.366	1355.37
550.57	1330.58
550.774	1353.24
550.978	1359.64
551.182	1391.8
551.386	1343.17
551.59	1355.76
551.794	1346.66
551.998	1358.09
552.202	1365.26
552.406	1328.06
552.61	1362.35
552.814	1374.17
553.018	1430.74
553.222	1357.31
553.426	1334.45
553.63	1449.73
553.833	1353.44
554.037	1337.16
554.241	1394.12
554.445	1411.95
554.649	1355.18
554.853	1334.64
555.056	1419.89
555.26	1405.94
555.464	1397.81
555.668	1373.01
555.871	1405.56
556.075	1400.13
556.279	1327.86
556.483	1323.6
556.686	1356.54
556.89	1354.41
557.094	1357.12
557.297	1290.86
557.501	1406.33
557.704	1275.74
557.908	1373.97
558.112	1302.09
558.315	1392.77
558.519	1335.03
558.722	1298.41
558.926	1310.62
559.129	1243.39
559.333	1270.13
559.536	1271.29
559.74	1240.87
559.943	1241.26
560.147	1249.78
560.35	1269.54
560.553	1251.72
560.757	1216.26
560.96	1320.89
561.164	1277.88
561.367	1363.51
561.57	1270.13
561.774	1302.68
561.977	1259.86
562.18	1250.95
562.384	1314.69
562.587	1283.49
562.79	1236.22
562.993	1237.58
563.197	1286.79
563.4	1328.06
563.603	1301.51
563.806	1341.23
564.009	1274.39
564.212	1261.6
564.416	1187.2
564.619	1252.69
564.822	1216.46
565.025	1280.39
565.228	1259.28
565.431	1221.69
565.634	1148.84
565.837	1208.71
566.04	1218.78
566.243	1187.01
566.446	1076.38
566.649	1226.34
566.852	1147.87
567.055	1198.25
567.258	1205.22
567.461	1237.77
567.664	1259.28
567.867	1128.11
568.07	1219.95
568.273	1217.04
568.475	1248.43
568.678	1184.68
568.881	1131.79
569.084	1171.51
569.287	1072.89
569.489	1127.53
569.692	1169.96
569.895	1198.44
570.098	1108.93
570.3	1118.23
570.503	1072.12
570.706	1075.99
570.909	1092.27
571.111	1058.55
571.314	1063.79
571.516	1068.63
571.719	1114.74
571.922	1083.94
572.124	1097.69
572.327	1095.95
572.529	1052.16
572.732	1042.86
572.935	1068.63
573.137	1171.51
573.34	1063.4
573.542	1113.58
573.745	1092.65
573.947	1099.43
574.15	1096.33
574.352	1071.54
574.554	1106.02
574.757	1066.3
574.959	1038.99
575.162	1027.36
575.364	1023.1
575.566	1170.73
575.769	1015.93
575.971	1036.27
576.173	956.84
576.376	1017.67
576.578	1063.79
576.78	1095.75
576.982	975.82
577.185	1028.72
577.387	986.09
577.589	1003.34
577.791	1063.4
577.993	1024.26
578.196	1013.99
578.398	1015.74
578.6	1051.97
578.802	948.51
579.004	980.86
579.206	974.08
579.408	1018.45
579.61	990.55
579.812	1061.65
580.014	978.15
580.216	1000.43
580.418	973.89
580.62	973.89
580.822	928.36
581.024	999.07
581.226	1022.13
581.428	1000.24
581.63	1035.3
581.832	965.36
582.034	1029.3
582.236	1002.37
582.438	1020.58
582.64	1068.24
582.841	1083.16
583.043	1099.24
583.245	1036.27
583.447	1042.86
583.649	1004.89
583.85	1038.02
584.052	1040.15
584.254	999.85
584.456	1025.81
584.657	960.52
584.859	1001.98
585.061	1001.79
585.262	990.55
585.464	963.42
585.666	1027.94
585.867	972.14
586.069	1048.09
586.27	1016.32
586.472	995.2
586.674	994.42
586.875	970.59
587.077	974.08
587.278	982.61
587.48	983.57
587.681	1075.6
587.883	985.9
588.084	919.83
588.285	946.18
588.487	941.72
588.688	977.37
588.89	913.24
589.091	883.79
589.292	899.29
589.494	872.75
589.695	862.09
589.896	794.67
590.098	795.45
590.299	834.97
590.5	825.67
590.702	867.33
590.903	871.78
591.104	898.52
591.305	901.43
591.507	934.17
591.708	912.47
591.909	876.43
592.11	973.89
592.311	923.32
592.512	893.87
592.714	819.66
592.915	851.83
593.116	884.96
593.317	885.15
593.518	877.59
593.719	896.97
593.92	946.96
594.121	926.22
594.322	890.58
594.523	903.56
594.724	871.59
594.925	868.1
595.126	880.31
595.327	895.61
595.528	909.95
595.729	916.15
595.929	881.66
596.13	925.06
596.331	914.02
596.532	895.03
596.733	945.99
596.934	928.16
597.135	938.24
597.335	906.66
597.536	880.5
597.737	907.63
597.938	872.56
598.138	914.6
598.339	880.69
598.54	907.04
598.74	909.76
598.941	884.38
599.142	952.19
599.342	906.08
599.543	887.86
599.744	901.81
599.944	934.75
600.145	874.11
600.345	892.13
600.546	969.24
600.746	942.69
600.947	957.03
601.147	911.5
601.348	925.26
601.548	849.69
601.749	917.89
601.949	836.33
602.15	888.64
602.35	899.1
602.551	916.15
602.751	816.37
602.951	871.98
603.152	811.33
603.352	904.33
603.552	877.59
603.753	886.12
603.953	912.27
604.153	878.18
604.354	860.74
604.554	876.43
604.754	871.59
604.954	851.44
605.155	888.25
605.355	863.64
605.555	913.05
605.755	942.5
605.955	891.74
606.155	904.33
606.356	875.27
606.556	899.29
606.756	880.31
606.956	858.03
607.156	919.83
607.356	856.48
607.556	910.92
607.756	883.99
607.956	919.44
608.156	904.91
608.356	856.67
608.556	885.73
608.756	873.33
608.956	824.89
609.156	866.16
609.356	837.88
609.556	830.71
609.755	875.66
609.955	830.51
610.155	849.89
610.355	845.82
610.555	828.38
610.755	833.81
610.954	817.92
611.154	846.79
611.354	883.02
611.554	808.81
611.753	816.37
611.953	761.35
612.153	848.92
612.352	871.01
612.552	790.8
612.752	759.8
612.951	828.96
613.151	817.92
613.351	775.49
613.55	830.32
613.75	826.83
613.949	818.11
614.149	829.16
614.348	816.56
614.548	769.48
614.747	759.99
614.947	809.01
615.146	742.75
615.346	834.39
615.545	798.55
615.745	809.2
615.944	852.41
616.144	815.21
616.343	812.69
616.542	769.87
616.742	796.8
616.941	765.8
617.14	717.75
617.34	791.57
617.539	800.68
617.738	750.11
617.938	850.86
618.137	789.05
618.336	761.93
618.535	803.39
618.734	793.9
618.934	811.33
619.133	790.8
619.332	784.21
619.531	771.23
619.73	787.5
619.929	792.54
620.128	778.01
620.328	823.34
620.527	743.71
620.726	782.08
620.925	780.53
621.124	757.08
621.323	796.03
621.522	742.36
621.721	754.76
621.92	722.79
622.119	785.37
622.318	735.19
622.517	754.56
622.715	738.1
622.914	697.41
623.113	740.03
623.312	701.28
623.511	746.62
623.71	709.23
623.909	721.43
624.107	783.82
624.306	669.12
624.505	698.18
624.704	724.53
624.902	699.54
625.101	797.38
625.3	742.36
625.499	688.11
625.697	694.5
625.896	685.01
626.095	729.38
626.293	649.94
626.492	709.23
626.69	764.06
626.889	723.18
627.088	734.42
627.286	674.55
627.485	685.01
627.683	656.53
627.882	734.03
628.08	622.24
628.279	680.55
628.477	735.19
628.676	657.5
628.874	710.78
629.073	666.22
629.271	662.92
629.469	710.39
629.668	670.09
629.866	694.7
630.065	656.72
630.263	725.89
630.461	681.52
630.66	701.09
630.858	690.82
631.056	713.68
631.254	699.93
631.453	627.47
631.651	720.47
631.849	676.1
632.047	684.04
632.245	712.13
632.444	688.3
632.642	718.92
632.84	701.48
633.038	675.52
633.236	634.05
633.434	668.93
633.632	639.09
633.83	642.97
634.028	691.02
634.227	672.8
634.425	749.72
634.623	685.2
634.821	692.95
635.019	683.07
635.216	694.7
635.414	702.64
635.612	693.34
635.81	674.55
636.008	714.85
636.206	655.95
636.404	700.7
636.602	634.64
636.8	688.88
636.997	713.1
637.195	710.97
637.393	689.85
637.591	747.2
637.789	699.93
637.986	646.84
638.184	668.54
638.382	714.27
638.58	727.83
638.777	739.65
638.975	688.69
639.173	681.33
639.37	697.99
639.568	678.42
639.765	694.5
639.963	685.01
640.161	755.73
640.358	705.55
640.556	674.55
640.753	633.47
640.951	617.39
641.148	681.33
641.346	670.48
641.543	703.8
641.741	725.31
641.938	660.79
642.136	674.55
642.333	634.83
642.531	708.07
642.728	718.14
642.925	677.84
643.123	677.26
643.32	672.42
643.517	645.29
643.715	686.17
643.912	669.12
644.109	677.07
644.306	670.28
644.504	598.6
644.701	671.83
644.898	686.37
645.095	657.5
645.293	637.35
645.49	687.72
645.687	669.12
645.884	691.79
646.081	608.29
646.278	628.24
646.475	641.61
646.672	624.56
646.87	679
647.067	629.6
647.264	648
647.461	583.87
647.658	585.62
647.855	679
648.052	625.92
648.249	544.35
648.446	612.35
648.642	580.19
648.839	599.95
649.036	586.59
649.233	578.45
649.43	562.37
649.627	533.69
649.824	566.44
650.021	568.95
650.217	573.41
650.414	562.75
650.611	614.1
650.808	633.09
651.004	593.75
651.201	610.42
651.398	658.08
651.595	581.55
651.791	568.76
651.988	604.41
652.185	572.44
652.381	598.6
652.578	551.71
652.775	583.68
652.971	589.49
653.168	576.9
653.364	570.31
653.561	526.52
653.757	558.88
653.954	573.8
654.15	561.59
654.347	646.07
654.543	573.41
654.74	521.49
654.936	548.22
655.133	537.18
655.329	596.47
655.525	559.85
655.722	583.87
655.918	512.57
656.115	574.96
656.311	508.31
656.507	491.26
656.704	457.36
656.9	503.47
657.096	466.27
657.292	488.16
657.489	541.44
657.685	535.82
657.881	524.59
658.077	491.26
658.273	534.86
658.47	604.02
658.666	532.14
658.862	547.64
659.058	549.77
659.254	588.52
659.45	515.29
659.646	564.11
659.842	518.97
660.038	582.32
660.234	555.2
660.43	547.26
660.626	629.02
660.822	589.1
661.018	570.31
661.214	547.45
661.41	518.77
661.606	564.5
661.802	569.34
661.998	537.76
662.194	511.99
662.39	530.79
662.586	562.56
662.781	584.45
662.977	554.42
663.173	578.25
663.369	534.47
663.564	589.69
663.76	601.31
663.956	534.47
664.152	585.42
664.347	516.64
664.543	555.39
664.739	518.19
664.934	500.56
665.13	520.71
665.326	564.5
665.521	539.7
665.717	526.52
665.912	485.26
666.108	487.77
666.304	513.16
666.499	540.47
666.695	483.51
666.89	533.69
667.086	578.64
667.281	572.44
667.477	573.8
667.672	506.96
667.867	496.11
668.063	547.84
668.258	527.49
668.454	523.23
668.649	570.7
668.844	501.53
669.04	543.96
669.235	530.4
669.43	488.16
669.626	476.54
669.821	517.81
670.016	489.91
670.211	537.37
670.407	503.86
670.602	536.99
670.797	511.8
670.992	533.31
671.187	509.28
671.382	555.2
671.578	483.51
671.773	545.9
671.968	467.43
672.163	489.91
672.358	524.39
672.553	493.01
672.748	491.84
672.943	606.54
673.138	516.26
673.333	523.81
673.528	475.18
673.723	519.55
673.918	504.63
674.113	469.18
674.308	580.77
674.503	508.51
674.698	555.01
674.892	521.49
675.087	554.23
675.282	524.78
675.477	455.23
675.672	512.77
675.867	473.05
676.061	447.09
676.256	446.31
676.451	478.47
676.646	499.01
676.84	454.26
677.035	456.19
677.23	466.66
677.424	508.89
677.619	513.74
677.814	505.02
678.008	507.92
678.203	450.58
678.397	463.75
678.592	482.16
678.787	555.01
678.981	465.69
679.176	482.16
679.37	468.98
679.565	463.94
679.759	484.87
679.954	505.41
680.148	530.01
680.342	560.82
680.537	502.5
680.731	501.14
680.926	503.08
681.12	530.79
681.314	439.34
681.509	467.24
681.703	498.04
681.897	505.6
682.092	476.73
682.286	441.66
682.48	513.54
682.674	526.91
682.869	466.08
683.063	466.46
683.257	592.59
683.451	435.66
683.645	487.58
683.839	476.54
684.034	493.39
684.228	521.68
684.422	447.09
684.616	462.78
684.81	505.6
685.004	480.02
685.198	483.32
685.392	518.58
685.586	461.04
685.78	499.4
685.974	482.74
686.168	518.19
686.362	540.86
686.556	445.93
686.75	400.2
686.944	424.61
687.138	443.79
687.331	343.63
687.525	366.88
687.719	318.44
687.913	356.41
688.107	384.7
688.301	377.92
688.494	416.67
688.688	355.45
688.882	344.21
689.076	340.53
689.269	349.25
689.463	451.16
689.657	373.85
689.85	387.22
690.044	413.38
690.238	377.73
690.431	380.83
690.625	382.57
690.818	408.53
691.012	400.98
691.205	438.76
691.399	385.09
691.593	421.71
691.786	470.92
691.98	442.05
692.173	475.18
692.366	468.59
692.56	479.25
692.753	521.49
692.947	409.5
693.14	487.97
693.333	493.2
693.527	403.49
693.72	464.33
693.914	434.88
694.107	450.38
694.3	476.54
694.493	452.32
694.687	481.19
694.88	456
695.073	495.52
695.266	464.72
695.46	482.16
695.653	530.79
695.846	527.69
696.039	439.14
696.232	495.72
696.425	519.74
696.618	523.62
696.812	513.54
697.005	579.61
697.198	606.74
697.391	538.15
697.584	572.05
697.777	628.05
697.97	630.18
698.163	596.66
698.356	567.79
698.549	663.7
698.742	635.6
698.935	561.4
699.127	615.84
699.32	593.56
699.513	591.62
699.706	616.04
699.899	648.78
700.092	587.36
700.285	636.38
700.477	564.11
700.67	622.62
700.863	646.84
701.056	696.83
701.248	677.65
701.441	695.47
701.634	643.16
701.826	745.46
702.019	635.99
702.212	709.81
702.404	648.97
702.597	666.8
702.79	700.51
702.982	697.02
703.175	738.87
703.367	755.53
703.56	754.76
703.752	797.96
703.945	772.58
704.137	771.42
704.33	798.35
704.522	824.12
704.715	838.84
704.907	818.5
705.1	863.06
705.292	857.44
705.484	836.33
705.677	833.42
705.869	876.82
706.061	892.9
706.254	946.57
706.446	899.1
706.638	851.83
706.831	949.28
707.023	898.71
707.215	990.16
707.407	973.5
707.599	939.01
707.792	979.31
707.984	948.12
708.176	983.19
708.368	967.3
708.56	1001.79
708.752	977.37
708.944	954.12
709.136	1001.4
709.329	1002.75
709.521	1115.32
709.713	1069.99
709.905	1061.65
710.097	1098.66
710.289	1052.16
710.481	1086.65
710.672	1091.49
710.864	1092.07
711.056	1160.66
711.248	1145.16
711.44	1119.2
711.632	1128.69
711.824	1163.76
712.016	1197.08
712.207	1180.61
712.399	1223.05
712.591	1262.57
712.783	1223.63
712.975	1223.43
713.166	1202.51
713.358	1242.42
713.55	1301.9
713.741	1288.14
713.933	1297.06
714.125	1294.73
714.316	1279.62
714.508	1381.53
714.7	1345.3
714.891	1318.95
715.083	1379.21
715.274	1364.87
715.466	1348.79
715.657	1377.27
715.849	1314.3
716.04	1383.47
716.232	1306.36
716.423	1358.67
716.615	1303.64
716.806	1283.11
716.998	1278.84
717.189	1245.13
717.381	1127.33
717.572	1152.72
717.763	1209.68
717.955	1188.56
718.146	1162.21
718.337	1131.4
718.528	1099.82
718.72	1052.94
718.911	1100.02
719.102	1065.92
719.293	1125.78
719.485	1102.73
719.676	1116.48
719.867	1086.65
720.058	1052.74
720.249	1065.14
720.44	1118.03
720.632	1171.32
720.823	1185.85
721.014	1277.68
721.205	1273.81
721.396	1334.26
721.587	1401.68
721.778	1456.51
721.969	1449.15
722.16	1488.48
722.351	1506.11
722.542	1599.69
722.733	1620.61
722.924	1505.92
723.115	1600.85
723.305	1571.98
723.496	1580.7
723.687	1474.14
723.878	1471.62
724.069	1501.27
724.26	1523.35
724.45	1490.61
724.641	1463.68
724.832	1479.95
725.023	1475.11
725.213	1474.53
725.404	1473.95
725.595	1483.05
725.785	1487.32
725.976	1528.2
726.167	1511.15
726.357	1502.82
726.548	1621.39
726.739	1563.85
726.929	1605.89
727.12	1646.38
727.31	1638.44
727.501	1587.87
727.691	1617.51
727.882	1635.73
728.072	1644.64
728.263	1668.66
728.453	1690.75
728.644	1712.45
728.834	1662.46
729.024	1688.43
729.215	1700.44
729.405	1714
729.596	1774.64
729.786	1782.01
729.976	1764.76
730.167	1798.86
730.357	1784.72
730.547	1815.91
730.737	1803.32
730.928	1848.85
731.118	1912.4
731.308	1854.47
731.498	1885.47
731.688	1932.74
731.879	1959.87
732.069	2002.68
732.259	2019.15
732.449	2051.12
732.639	2106.92
732.829	2092.58
733.019	2161.17
733.209	2190.62
733.399	2210.77
733.589	2255.72
733.779	2294.27
733.969	2252.04
734.159	2355.3
734.349	2378.75
734.539	2389.79
734.729	2399.48
734.919	2434.16
735.109	2462.45
735.299	2387.08
735.488	2448.3
735.678	2455.47
735.868	2481.05
736.058	2438.23
736.248	2451.98
736.437	2402.58
736.627	2398.12
736.817	2521.54
737.007	2504.68
737.196	2548.28
737.386	2513.4
737.576	2476.98
737.765	2568.81
737.955	2541.88
738.144	2658.91
738.334	2602.91
738.524	2522.31
738.713	2609.69
738.903	2588.58
739.092	2675.76
739.282	2609.31
739.471	2661.04
739.661	2643.02
739.85	2671.89
740.04	2703.86
740.229	2721.1
740.419	2704.82
740.608	2749.19
740.797	2767.02
740.987	2779.42
741.176	2769.34
741.365	2768.57
741.555	2707.15
741.744	2800.34
741.933	2768.37
742.123	2828.24
742.312	2822.43
742.501	2853.62
742.69	2870.87
742.88	2782.71
743.069	2895.47
743.258	2818.36
743.447	2916.78
743.636	2891.98
743.825	2873.19
744.014	2887.53
744.204	2919.3
744.393	2868.93
744.582	2968.71
744.771	2972.58
744.96	2931.31
745.149	2968.9
745.338	2919.11
745.527	2975.3
745.716	2921.24
745.905	2938.48
746.094	2984.01
746.283	2965.03
746.471	2955.53
746.66	2972.97
746.849	3018.69
747.038	3044.46
747.227	2950.11
747.416	2990.6
747.604	2983.05
747.793	2988.08
747.982	2994.86
748.171	3015.79
748.359	2982.08
748.548	3000.87
748.737	2994.48
748.926	2980.91
749.114	2923.76
749.303	2991.76
749.491	2952.05
749.68	2927.05
749.869	3034.58
750.057	2987.31
750.246	2985.56
750.434	2945.85
750.623	2969.87
750.811	2934.8
751	2994.09
751.188	2990.21
751.377	2981.5
751.565	2971.23
751.754	2947.2
751.942	2966.77
752.131	2989.25
752.319	2916.2
752.507	2901.48
752.696	2966.58
752.884	2970.26
753.072	2946.23
753.261	2966.77
753.449	2953.6
753.637	2922.01
753.825	3015.79
754.014	2903.03
754.202	2968.32
754.39	2976.46
754.578	2996.22
754.766	2950.5
754.955	2931.51
755.143	3026.25
755.331	2929.76
755.519	2941
755.707	2917.17
755.895	2917.95
756.083	2914.07
756.271	2897.6
756.459	2877.26
756.647	2932.86
756.835	2875.13
757.023	2899.54
757.211	2913.88
757.399	2903.8
757.587	2864.47
757.775	2841.42
757.963	2885.98
758.151	2858.08
758.339	2816.23
758.526	2841.03
758.714	2811.97
758.902	2776.12
759.09	2683.9
759.278	2509.72
759.465	2345.04
759.653	1993.97
759.841	1821.14
760.028	1535.56
760.216	1333.68
760.404	1282.91
760.591	1039.76
760.779	882.24
760.967	781.3
761.154	641.61
761.342	646.84
761.529	657.3
761.717	724.53
761.905	694.89
762.092	791.76
762.28	704.38
762.467	714.65
762.655	684.04
762.842	697.6
763.029	698.18
763.217	671.45
763.404	691.4
763.592	720.66
763.779	693.92
763.966	715.43
764.154	777.04
764.341	816.18
764.528	809.59
764.716	866.36
764.903	907.63
765.09	965.56
765.277	1010.12
765.465	1164.73
765.652	1195.15
765.839	1265.28
766.026	1389.28
766.213	1427.26
766.4	1486.15
766.588	1667.11
766.775	1640.76
766.962	1784.33
767.149	1813.39
767.336	1958.32
767.523	1892.64
767.71	1991.83
767.897	2177.44
768.084	2162.72
768.271	2194.3
768.458	2255.14
768.645	2351.43
768.832	2288.46
769.019	2318.49
769.206	2366.35
769.392	2420.02
769.579	2529.48
769.766	2458.18
769.953	2469.42
770.14	2534.91
770.327	2497.13
770.513	2562.23
770.7	2592.06
770.887	2522.31
771.073	2578.31
771.26	2590.32
771.447	2512.05
771.634	2544.21
771.82	2636.82
772.007	2525.22
772.193	2554.09
772.38	2598.46
772.567	2578.31
772.753	2529.29
772.94	2632.75
773.126	2577.92
773.313	2634.88
773.499	2612.02
773.686	2632.17
773.872	2558.74
774.059	2580.63
774.245	2548.28
774.432	2529.48
774.618	2469.81
774.804	2547.7
774.991	2502.16
775.177	2548.47
775.363	2602.72
775.55	2593.42
775.736	2496.35
775.922	2491.31
776.109	2514.56
776.295	2536.46
776.481	2559.51
776.667	2547.11
776.853	2492.86
777.04	2475.62
777.226	2507.98
777.412	2545.76
777.598	2491.51
777.784	2502.55
777.97	2461.67
778.156	2483.56
778.342	2484.53
778.528	2466.32
778.715	2421.95
778.901	2450.82
779.087	2474.85
779.272	2437.45
779.458	2426.99
779.644	2447.72
779.83	2421.76
780.016	2500.42
780.202	2431.06
780.388	2443.07
780.574	2365.38
780.76	2371.58
780.946	2448.88
781.131	2435.32
781.317	2404.52
781.503	2351.62
781.689	2380.1
781.874	2482.79
782.06	2357.24
782.246	2363.64
782.432	2381.85
782.617	2373.13
782.803	2482.02
782.989	2326.24
783.174	2349.1
783.36	2316.94
783.545	2344.26
783.731	2340.58
783.916	2261.34
784.102	2334.19
784.288	2270.83
784.473	2306.48
784.659	2309.77
784.844	2319.46
785.029	2297.57
785.215	2262.11
785.4	2176.67
785.586	2340.19
785.771	2240.8
785.956	2256.88
786.142	2260.17
786.327	2252.81
786.512	2229.56
786.698	2227.82
786.883	2185.39
787.068	2167.95
787.254	2232.86
787.439	2182.48
787.624	2195.46
787.809	2181.71
787.994	2157.88
788.18	2194.11
788.365	2106.53
788.55	2157.88
788.735	2143.34
788.92	2134.24
789.105	2137.14
789.29	2155.36
789.475	2079.6
789.66	2116.61
789.845	2052.67
790.03	2070.5
790.215	2128.43
790.4	2114.67
790.585	2091.61
790.77	2097.43
790.955	2035.23
791.14	2081.35
791.325	2132.5
791.51	2028.45
791.695	2087.16
791.879	2042.21
792.064	2014.12
792.249	2079.6
792.434	2039.5
792.618	2027.48
792.803	2091.81
792.988	2049.38
793.173	2048.21
793.357	2088.32
793.542	2011.6
793.727	2065.07
793.911	2087.16
794.096	2074.56
794.281	2089.29
794.465	2166.59
794.65	2074.95
794.834	2098.78
795.019	2137.14
795.203	2133.85
795.388	2107.89
795.572	2131.53
795.757	2088.71
795.941	2150.71
796.126	2107.31
796.31	2033.1
796.494	2063.52
796.679	2047.05
796.863	2066.04
797.048	2134.24
797.232	2088.51
797.416	2080.57
797.601	2085.41
797.785	2152.06
797.969	2138.31
798.153	2098.59
798.338	2066.04
798.522	2106.53
798.706	2124.75
798.89	2146.64
799.074	2185.97
799.258	2174.73
799.443	2103.24
799.627	2116.8
799.811	2145.48
799.995	2088.13
800.179	2069.91
800.363	2084.25
800.547	2115.83
800.731	2133.46
800.915	2052.28
801.099	2083.48
801.283	2053.45
801.467	2122.23
801.651	2080.57
801.835	2089.87
802.019	2097.62
802.202	2123.58
802.386	2070.5
802.57	2039.5
802.754	2047.05
802.938	2044.92
803.121	2067.01
803.305	2109.63
803.489	2085.22
803.673	2099.36
803.856	2113.7
804.04	2076.31
804.224	2087.55
804.407	2067.78
804.591	2068.75
804.775	2085.61
804.958	2109.05
805.142	2200.5
805.326	2090.06
805.509	2090.45
805.693	2135.01
805.876	2122.03
806.06	2102.85
806.243	2132.88
806.427	2143.73
806.61	2188.29
806.794	2059.84
806.977	2144.51
807.16	2120.87
807.344	2106.73
807.527	2098.4
807.71	2079.21
807.894	2101.3
808.077	2110.02
808.26	2068.75
808.444	2052.48
808.627	2143.54
808.81	2048.02
808.993	2016.05
809.177	2010.82
809.36	2067.98
809.543	2065.85
809.726	1951.54
809.909	1964.9
810.092	1993.38
810.276	1977.69
810.459	1983.31
810.642	1966.07
810.825	1904.07
811.008	1960.06
811.191	1850.79
811.374	1831.41
811.557	1879.85
811.74	1979.63
811.923	1832.57
812.106	1854.27
812.289	1811.65
812.472	1795.76
812.654	1814.94
812.837	1779.68
813.02	1745
813.203	1748.29
813.386	1562.3
813.569	1627.78
813.751	1583.42
813.934	1605.12
814.117	1596.98
814.3	1532.85
814.482	1505.72
814.665	1510.76
814.848	1436.55
815.03	1405.17
815.213	1445.27
815.396	1423.57
815.578	1387.34
815.761	1331.74
815.943	1442.75
816.126	1366.03
816.309	1293.76
816.491	1261.02
816.674	1237.96
816.856	1270.9
817.039	1229.25
817.221	1314.11
817.403	1291.24
817.586	1305.78
817.768	1318.56
817.951	1225.18
818.133	1231.38
818.315	1260.05
818.498	1278.26
818.68	1341.04
818.862	1314.3
819.045	1332.9
819.227	1337.36
819.409	1296.86
819.591	1360.22
819.774	1290.86
819.956	1270.51
820.138	1368.36
820.32	1360.22
820.502	1369.91
820.684	1458.45
820.866	1455.54
821.048	1495.45
821.231	1465.81
821.413	1486.35
821.595	1494.87
821.777	1495.26
821.959	1463.1
822.141	1528.39
822.323	1419.89
822.505	1365.64
822.686	1329.22
822.868	1261.02
823.05	1176.93
823.232	1144.58
823.414	1100.6
823.596	1148.07
823.778	1146.32
823.96	1178.87
824.141	1184.68
824.323	1188.95
824.505	1248.04
824.687	1305.39
824.868	1345.11
825.05	1405.94
825.232	1436.55
825.413	1469.69
825.595	1423.19
825.777	1382.69
825.958	1452.05
826.14	1407.3
826.321	1494.49
826.503	1437.52
826.685	1464.84
826.866	1472.98
827.048	1462.9
827.229	1415.44
827.411	1363.71
827.592	1346.08
827.773	1338.71
827.955	1310.62
828.136	1323.21
828.318	1274.19
828.499	1303.06
828.68	1263.15
828.862	1329.61
829.043	1311.2
829.224	1315.08
829.406	1236.41
829.587	1274.78
829.768	1285.04
829.949	1305
830.131	1278.07
830.312	1365.84
830.493	1297.64
830.674	1295.7
830.855	1312.36
831.036	1271.68
831.218	1336
831.399	1349.76
831.58	1322.05
831.761	1319.14
831.942	1325.73
832.123	1271.09
832.304	1248.04
832.485	1247.65
832.666	1292.41
832.847	1300.16
833.028	1289.31
833.209	1311.78
833.389	1296.48
833.57	1210.65
833.751	1247.26
833.932	1294.34
834.113	1293.38
834.294	1284.85
834.475	1311.39
834.655	1322.83
834.836	1357.12
835.017	1338.91
835.198	1255.6
835.378	1332.51
835.559	1363.32
835.74	1282.91
835.92	1286.98
836.101	1288.73
836.281	1353.44
836.462	1312.36
836.643	1343.94
836.823	1351.11
837.004	1358.86
837.184	1416.79
837.365	1385.21
837.545	1403.62
837.726	1371.26
837.906	1377.07
838.087	1362.74
838.267	1363.71
838.448	1297.83
838.628	1375.33
838.808	1334.06
838.989	1418.73
839.169	1317.79
839.349	1387.54
839.53	1372.23
839.71	1398
839.89	1359.64
840.07	1425.12
840.251	1338.52
840.431	1394.51
840.611	1361.19
840.791	1337.36
840.971	1342.78
841.151	1359.06
841.332	1312.56
841.512	1392.96
841.692	1286.79
841.872	1368.74
842.052	1346.08
842.232	1363.12
842.412	1300.74
842.592	1311.59
842.772	1348.79
842.952	1361.77
843.132	1311.2
843.312	1311.01
843.492	1298.61
843.672	1372.23
843.851	1268.38
844.031	1348.01
844.211	1310.43
844.391	1279.62
844.571	1298.99
844.751	1328.06
844.93	1340.26
845.11	1268.58
845.29	1306.74
845.47	1364.29
845.649	1304.61
845.829	1298.99
846.009	1275.74
846.188	1333.09
846.368	1305
846.547	1309.46
846.727	1358.67
846.907	1279.43
847.086	1315.66
847.266	1347.24
847.445	1310.23
847.625	1293.38
847.804	1255.6
847.984	1279.04
848.163	1285.63
848.343	1279.23
848.522	1278.26
848.701	1266.25
848.881	1258.11
849.06	1272.84
849.239	1277.29
849.419	1284.27
849.598	1213.75
849.777	1225.37
849.957	1211.61
850.136	1147.68
850.315	1165.89
850.494	1165.31
850.674	1169.57
850.853	1204.06
851.032	1190.5
851.211	1206.58
851.39	1209.29
851.569	1193.79
851.748	1179.06
851.927	1200.76
852.107	1183.52
852.286	1130.05
852.465	1137.8
852.644	1202.12
852.823	1219.75
853.002	1156.4
853.181	1200.76
853.359	1203.86
853.538	1100.79
853.717	1187.78
853.896	1088
854.075	1043.05
854.254	1061.65
854.433	972.92
854.611	1044.6
854.79	1005.85
854.969	1043.64
855.148	1067.47
855.327	1012.44
855.505	1057.78
855.684	1050.61
855.863	1088.58
856.041	1049.64
856.22	1115.52
856.399	1048.09
856.577	1137.02
856.756	1119.78
856.934	1238.55
857.113	1235.25
857.291	1138.57
857.47	1115.9
857.648	1126.37
857.827	1154.85
858.005	1167.25
858.184	1096.14
858.362	1200.96
858.541	1095.56
858.719	1112.61
858.898	1134.12
859.076	1111.83
859.254	1187.01
859.433	1115.13
859.611	1114.74
859.789	1077.93
859.967	1160.66
860.146	1181.78
860.324	1085.68
860.502	1110.48
860.68	1037.05
860.859	1084.52
861.037	1072.12
861.215	1132.95
861.393	1077.54
861.571	1097.11
861.749	1072.7
861.927	1110.48
862.105	1099.82
862.283	1100.98
862.461	1075.02
862.639	1038.02
862.817	1077.15
862.995	1064.56
863.173	1065.34
863.351	1040.92
863.529	1063.2
863.707	1123.27
863.885	1082.97
864.063	1004.11
864.241	1010.31
864.418	1094.2
864.596	1024.84
864.774	1023.1
864.952	1045.57
865.129	1055.84
865.307	1037.05
865.485	972.92
865.663	1059.33
865.84	981.64
866.018	1018.06
866.196	900.26
866.373	940.76
866.551	907.04
866.728	839.23
866.906	893.29
867.084	929.52
867.261	953.54
867.439	962.84
867.616	965.17
867.794	946.18
867.971	948.89
868.149	993.46
868.326	1035.89
868.503	1010.89
868.681	970.01
868.858	968.66
869.035	939.79
869.213	961.1
869.39	972.92
869.567	1020
869.745	951.02
869.922	989.58
870.099	997.72
870.276	972.53
870.454	1009.73
870.631	1008.95
870.808	961.29
870.985	967.3
871.162	1017.67
871.339	977.18
871.517	935.91
871.694	937.46
871.871	960.32
872.048	947.54
872.225	915.18
872.402	946.76
872.579	898.91
872.756	984.93
872.933	881.08
873.11	922.74
873.287	949.09
873.463	914.21
873.64	893.68
873.817	963.04
873.994	929.91
874.171	912.47
874.348	941.72
874.524	856.48
874.701	887.48
874.878	869.46
875.055	926.03
875.231	898.71
875.408	908.01
875.585	826.25
875.762	878.76
875.938	872.36
876.115	873.72
876.291	853.38
876.468	903.56
876.645	813.46
876.821	861.71
876.998	874.49
877.174	886.12
877.351	862.09
877.527	809.98
877.704	867.71
877.88	855.12
878.057	850.08
878.233	894.84
878.409	824.89
878.586	877.59
878.762	827.99
878.938	832.26
879.115	778.2
879.291	828.77
879.467	797.38
879.644	805.91
879.82	854.93
879.996	783.43
880.172	820.25
880.349	811.72
880.525	841.17
880.701	800.87
880.877	780.53
881.053	821.02
881.229	853.38
881.405	868.68
881.581	795.06
881.757	832.06
881.933	813.66
882.109	846.01
882.285	816.95
882.461	784.01
882.637	794.67
882.813	784.79
882.989	790.8
883.165	862.68
883.341	761.93
883.517	836.91
883.693	825.28
883.869	861.51
884.044	773.94
884.22	826.44
884.396	852.99
884.572	848.73
884.747	860.54
884.923	832.45
885.099	840.78
885.275	860.16
885.45	788.66
885.626	772.39
885.801	787.5
885.977	781.11
886.153	740.61
886.328	826.06
886.504	773.36
886.679	798.74
886.855	786.53
887.03	817.15
887.206	842.91
887.381	832.84
887.557	822.96
887.732	818.5
887.908	836.91
888.083	856.09
888.258	811.91
888.434	774.33
888.609	793.31
888.784	836.71
888.96	777.23
889.135	756.5
889.31	776.65
889.485	829.93
889.661	802.03
889.836	822.57
890.011	826.64
890.186	785.37
890.361	789.05
890.537	803.78
890.712	814.24
890.887	781.3
891.062	784.01
891.237	863.26
891.412	747.98
891.587	821.99
891.762	812.11
891.937	842.33
892.112	761.93
892.287	783.05
892.462	735.96
892.637	730.15
892.812	708.26
892.987	756.11
893.161	715.04
893.336	718.53
893.511	733.83
893.686	749.33
893.861	718.33
894.035	714.65
894.21	735.77
894.385	681.72
894.56	729.57
894.734	671.25
894.909	680.55
895.084	686.95
895.258	675.9
895.433	663.89
895.608	639.09
895.782	588.52
895.957	609.25
896.131	604.22
896.306	563.72
896.48	563.14
896.655	576.32
896.829	523.62
897.004	525.94
897.178	525.36
897.353	520.32
897.527	577.67
897.701	579.61
897.876	483.51
898.05	586.39
898.224	561.79
898.399	581.16
898.573	507.92
898.747	419.77
898.921	503.47
899.096	411.24
899.27	465.49
899.444	441.66
899.618	476.15
899.792	455.03
899.967	452.32
900.141	515.09
900.315	442.24
900.489	422.48
900.663	509.09
900.837	470.14
901.011	404.85
901.185	520.32
901.359	473.44
901.533	473.63
901.707	491.84
901.881	454.45
902.055	390.32
902.229	455.03
902.403	517.22
902.576	466.08
902.75	469.56
902.924	580
903.098	539.12
903.272	522.65
903.446	573.8
903.619	554.62
903.793	557.52
903.967	531.95
904.14	612.74
904.314	608.48
904.488	578.84
904.661	586.39
904.835	597.05
905.009	621.27
905.182	650.13
905.356	598.21
905.529	566.82
905.703	551.13
905.876	567.4
906.05	551.52
906.223	541.06
906.397	489.71
906.57	480.8
906.744	446.12
906.917	473.05
907.09	458.13
907.264	470.92
907.437	438.37
907.61	407.76
907.784	419.77
907.957	461.62
908.13	425.39
908.304	463.17
908.477	401.94
908.65	419.58
908.823	366.49
908.996	463.36
909.17	427.52
909.343	400.98
909.516	414.93
909.689	425.78
909.862	392.06
910.035	381.02
910.208	375.79
910.381	382.38
910.554	474.79
910.727	404.27
910.9	385.48
911.073	384.51
911.246	438.95
911.419	445.73
911.592	451.54
911.765	382.18
911.938	381.6
912.11	420.16
912.283	425.58
912.456	426.36
912.629	393.23
912.802	380.83
912.974	321.15
913.147	339.17
913.32	308.56
913.493	326.19
913.665	358.16
913.838	345.95
914.01	325.22
914.183	357.77
914.356	345.37
914.528	386.64
914.701	437.59
914.873	399.23
915.046	345.56
915.218	342.46
915.391	279.88
915.563	288.22
915.736	347.89
915.908	370.56
916.081	344.21
916.253	336.26
916.425	340.14
916.598	391.29
916.77	362.61
916.942	331.61
917.115	268.84
917.287	372.5
917.459	328.32
917.632	305.65
917.804	255.67
917.976	316.7
918.148	313.01
918.32	334.71
918.493	374.82
918.665	424.03
918.837	362.42
919.009	402.53
919.181	393.03
919.353	389.16
919.525	386.83
919.697	384.51
919.869	381.99
920.041	424.03
920.213	455.61
920.385	418.8
920.557	382.57
920.729	407.37
920.901	360.87
921.073	350.6
921.244	352.93
921.416	393.81
921.588	369.98
921.76	350.02
921.932	416.67
922.103	382.18
922.275	358.55
922.447	369.98
922.619	326.19
922.79	371.91
922.962	338.4
923.134	374.82
923.305	311.08
923.477	303.13
923.648	317.66
923.82	328.32
923.991	257.6
924.163	274.46
924.335	312.43
924.506	316.11
924.677	318.05
924.849	307.59
925.02	325.41
925.192	366.3
925.363	314.37
925.535	342.08
925.706	308.56
925.877	375.4
926.049	306.23
926.22	332
926.391	346.34
926.562	339.36
926.734	299.06
926.905	338.2
927.076	280.27
927.247	284.53
927.419	271.55
927.59	245.98
927.761	278.53
927.932	247.92
928.103	259.35
928.274	215.56
928.445	214.59
928.616	242.88
928.787	223.31
928.958	249.85
929.129	232.03
929.3	224.86
929.471	176.04
929.642	140.97
929.813	113.46
929.984	189.79
930.155	135.74
930.326	169.25
930.496	109.77
930.667	98.15
930.838	112.68
931.009	93.31
931.18	130.7
931.35	113.84
931.521	113.07
931.692	79.94
931.863	20.07
932.033	102.61
932.204	94.27
932.374	106.09
932.545	71.41
932.716	104.35
932.886	101.64
933.057	20.26
933.227	60.37
933.398	129.92
933.568	40.61
933.739	10.77
933.909	22.39
934.08	111.32
934.25	-1.63
934.421	38.86
934.591	60.95
934.761	25.88
934.932	-20.04
935.102	38.86
935.272	1.66
935.443	10.19
935.613	9.8
935.783	72.19
935.953	14.45
936.123	152.01
936.294	5.73
936.464	18.71
936.634	25.88
936.804	-8.8
936.974	4.96
937.144	35.38
937.314	3.02
937.484	3.99
937.655	-0.08
937.825	70.44
937.995	11.74
938.165	56.11
938.334	14.84
938.504	53.97
938.674	25.69
938.844	49.32
939.014	85.17
939.184	63.66
939.354	129.15
939.524	90.4
939.694	91.17
939.863	49.71
940.033	128.18
940.203	127.6
940.373	98.73
940.542	109.58
940.712	64.24
940.882	89.04
941.051	122.37
941.221	100.28
941.391	108.03
941.56	63.27
941.73	31.11
941.899	150.85
942.069	71.99
942.238	69.86
942.408	37.89
942.577	81.1
942.747	68.51
942.916	15.23
943.086	42.74
943.255	83.62
943.425	68.7
943.594	56.3
943.763	-4.34
943.933	2.05
944.102	-16.74
944.271	41.57
944.441	80.13
944.61	22.59
944.779	50.49
944.948	129.92
945.117	12.51
945.287	40.61
945.456	4.57
945.625	30.14
945.794	54.56
945.963	13.29
946.132	65.79
946.301	44.48
946.47	78.19
946.639	-14.81
946.808	20.65
946.977	67.92
947.146	87.69
947.315	12.9
947.484	82.26
947.653	41.19
947.822	21.23
947.991	17.36
948.16	86.33
948.329	100.28
948.498	46.22
948.666	48.36
948.835	67.15
949.004	12.32
949.173	13.87
949.341	54.17
949.51	63.66
949.679	111.91
949.847	84.59
950.016	141.94
950.185	109.97
950.353	26.08
950.522	60.76
950.69	96.41
950.859	36.73
951.028	86.91
951.196	72.57
951.365	34.21
951.533	48.74
951.701	69.28
951.87	76.64
952.038	19.1
952.207	25.88
952.375	102.41
952.543	42.54
952.712	44.09
952.88	24.14
953.048	103.77
953.217	64.24
953.385	40.41
953.553	103.77
953.721	19.88
953.89	60.56
954.058	14.45
954.226	34.02
954.394	43.12
954.562	16.19
954.73	56.88
954.898	51.84
955.067	74.71
955.235	40.99
955.403	68.51
955.571	108.03
955.739	66.96
955.907	48.94
956.075	30.92
956.243	39.83
956.41	66.76
956.578	-15
956.746	-6.09
956.914	16.39
957.082	73.74
957.25	71.8
957.418	28.59
957.585	68.7
957.753	119.66
957.921	22.39
958.089	22.98
958.256	66.96
958.424	68.31
958.592	62.69
958.759	33.44
958.927	59.4
959.095	38.09
959.262	60.95
959.43	59.4
959.597	1.08
959.765	41.96
959.932	28.01
960.1	76.84
960.267	74.32
960.435	56.49
960.602	104.35
960.77	39.64
960.937	-2.21
961.104	35.96
961.272	5.15
961.439	38.67
961.606	79.94
961.774	103.57
961.941	41.96
962.108	78.19
962.275	39.83
962.443	89.43
962.61	97.37
962.777	117.33
962.944	104.74
963.111	69.47
963.278	80.13
963.446	59.01
963.613	48.94
963.78	96.02
963.947	65.79
964.114	59.21
964.281	121.79
964.448	87.11
964.615	30.14
964.782	47.97
964.949	94.27
965.116	61.14
965.282	104.16
965.449	69.47
965.616	32.08
965.783	84.39
965.95	74.71
966.117	66.96
966.283	55.72
966.45	95.05
966.617	68.12
966.784	138.84
966.95	96.21
967.117	74.9
967.284	43.51
967.45	34.21
967.617	94.47
967.784	77.42
967.95	146
968.117	50.87
968.283	123.34
968.45	194.44
968.616	91.76
968.783	115.2
968.949	117.91
969.116	131.47
969.282	100.86
969.449	103.96
969.615	66.96
969.781	31.89
969.948	45.06
970.114	53.39
970.28	133.41
970.447	67.73
970.613	133.41
970.779	75.87
970.945	82.26
971.112	90.79
971.278	81.68
971.444	84.78
971.61	118.11
971.776	85.94
971.942	72.38
972.108	105.9
972.275	96.41
972.441	103.19
972.607	156.47
972.773	58.04
972.939	93.89
973.105	63.66
973.271	48.74
973.437	52.81
973.602	43.9
973.768	95.82
973.934	75.67
974.1	88.27
974.266	11.16
974.432	86.72
974.598	80.91
974.763	105.12
974.929	52.04
975.095	142.9
975.261	52.62
975.426	31.11
975.592	69.47
975.758	135.93
975.923	46.61
976.089	49.52
976.255	112.68
976.42	102.02
976.586	108.22
976.751	102.22
976.917	157.44
977.082	107.06
977.248	48.55
977.413	18.91
977.579	49.32
977.744	86.72
977.91	51.46
978.075	71.99
978.24	107.06
978.406	62.31
978.571	75.87
978.736	53.97
978.902	98.34
979.067	37.31
979.232	29.37
979.397	70.64
979.563	136.12
979.728	13.09
979.893	60.17
980.058	40.02
980.223	99.89
980.388	101.25
980.554	45.06
980.719	46.22
980.884	85.17
981.049	105.32
981.214	66.37
981.379	87.11
981.544	64.82
981.709	57.27
981.874	72.77
982.039	64.05
982.204	118.3
982.368	51.65
982.533	67.92
982.698	101.83
982.863	108.03
983.028	41.38
983.193	60.17
983.357	73.35
983.522	72.19
983.687	44.67
983.852	62.89
984.016	75.67
984.181	66.76
984.346	87.49
984.51	97.57
984.675	66.18
984.839	90.4
985.004	100.09
985.168	98.73
985.333	70.83
985.498	67.15
985.662	81.49
985.827	86.33
985.991	65.79
986.155	48.94
986.32	98.73
986.484	144.45
986.649	107.26
986.813	32.08
986.977	80.13
987.142	113.07
987.306	21.43
987.47	52.81
987.634	70.25
987.799	50.49
987.963	79.36
988.127	94.47
988.291	129.34
988.455	83.23
988.62	86.72
988.784	119.07
988.948	93.69
989.112	53.2
989.276	71.99
989.44	76.06
989.604	40.99
989.768	66.76
989.932	128.37
990.096	47.39
990.26	53.39
990.424	58.62
990.588	64.82
990.752	161.7
990.915	80.52
991.079	46.42
991.243	46.03
991.407	90.79
991.571	56.49
991.734	89.82
991.898	83.23
992.062	143.49
992.226	63.27
992.389	51.07
992.553	29.56
992.717	45.26
992.88	46.42
993.044	62.69
993.207	61.53
993.371	59.98
993.535	88.85
993.698	56.88
993.862	111.52
994.025	103.96
994.189	63.66
994.352	68.12
994.515	50.68
994.679	101.83
994.842	44.09
995.006	85.94
995.169	38.86
995.332	48.94
995.496	83.62
995.659	10.77
995.822	66.18
995.985	53.2
996.149	118.3
996.312	81.29
996.475	122.17
996.638	47.58
996.801	95.44
996.964	112.1
997.128	57.66
997.291	39.64
997.454	74.12
997.617	19.1
997.78	89.82
997.943	34.99
998.106	101.83
998.269	46.42
998.432	55.91
998.595	59.01
998.758	38.28
998.92	37.12
999.083	-13.45
999.246	37.89
999.409	6.89
999.572	-25.27
999.735	43.32
999.897	85.36
1000.06	31.5
1000.223	30.53
1000.386	75.48
1000.548	56.69
1000.711	91.95
1000.874	69.86
1001.036	17.55
1001.199	90.21
1001.361	19.68
1001.524	65.99
1001.687	70.06
1001.849	25.69
1002.012	66.76
1002.174	44.09
1002.337	54.36
1002.499	44.48
1002.661	72.19
1002.824	11.74
1002.986	33.44
1003.149	63.47
1003.311	10.58
1003.473	87.88
1003.636	35.96
1003.798	63.27
1003.96	42.16
1004.123	48.94
1004.285	24.72
1004.447	35.18
1004.609	43.12
1004.771	99.89
1004.933	-15.58
1005.096	15.61
1005.258	2.05
1005.42	12.71
1005.582	76.84
1005.744	65.99
1005.906	21.04
1006.068	62.69
1006.23	8.06
1006.392	-6.47
1006.554	37.89
1006.716	69.67
1006.878	40.41
1007.04	-4.73
1007.202	19.49
1007.363	35.76
1007.525	28.79
1007.687	16.58
1007.849	70.83
1008.011	-22.75
1008.172	-8.02
1008.334	29.95
1008.496	38.86
1008.658	-20.04
1008.819	-3.57
1008.981	-13.06
1009.143	-18.87
1009.304	0.89
1009.466	50.68
1009.627	100.28
1009.789	142.52
1009.95	32.66
1010.112	13.29
1010.273	56.3
1010.435	22.2
1010.596	3.21
1010.758	5.34
1010.919	29.56
1011.081	4.96
1011.242	14.26
1011.403	42.16
1011.565	16.39
1011.726	34.79
1011.887	21.62
1012.049	19.88
1012.21	40.02
1012.371	78.19
1012.532	-39.8
1012.693	9.03
1012.855	11.54
1013.016	28.21
1013.177	56.88
1013.338	25.88
1013.499	84.01
1013.66	33.24
1013.821	65.41
1013.982	31.11
1014.143	44.67
1014.304	24.72
1014.465	22.98
1014.626	57.27
1014.787	14.45
1014.948	87.88
1015.109	-41.54
1015.27	76.84
1015.431	17.55
1015.592	-11.12
1015.752	66.57
1015.913	31.89
1016.074	33.05
1016.235	33.83
1016.395	8.25
1016.556	31.31
1016.717	22.01
1016.877	64.44
1017.038	16.78
1017.199	23.36
1017.359	47
1017.52	6.89
1017.681	3.41
1017.841	10.96
1018.002	10.58
1018.162	-0.47
1018.323	65.02
1018.483	13.09
1018.644	10.58
1018.804	-46
1018.964	-9.38
1019.125	-12.09
1019.285	36.34
1019.446	-4.15
1019.606	-37.47
1019.766	-14.81
1019.926	47
1020.087	-4.34
1020.247	-27.21
1020.407	24.14
1020.567	50.68
1020.728	-9.77
1020.888	-12.67
1021.048	6.89
1021.208	-8.22
1021.368	-23.91
1021.528	73.16
1021.688	48.16
1021.848	53.39
1022.008	25.88
1022.168	21.62
1022.328	22.01
1022.488	48.55
1022.648	4.18
1022.808	37.89
1022.968	51.46
1023.128	21.23
1023.288	2.83
1023.448	9.8
1023.608	47.19
1023.767	35.38
1023.927	-8.02
1024.087	3.21
1024.247	-16.55
1024.406	-6.86
1024.566	-26.62
1024.726	-11.51
1024.885	46.61
1025.045	22.98
1025.205	8.83
1025.364	-18.29
1025.524	18.33
1025.683	-7.44
1025.843	28.01
1026.003	-1.63
1026.162	71.41
1026.321	49.71
1026.481	32.47
1026.64	8.64
1026.8	-4.34
1026.959	21.62
1027.119	28.01
1027.278	9.41
1027.437	7.09
1027.597	11.93
1027.756	20.26
1027.915	36.92
1028.074	41.96
1028.234	12.51
1028.393	15.61
1028.552	10.58
1028.711	-77.58
1028.87	36.34
1029.03	-23.14
1029.189	-10.35
1029.348	-36.12
1029.507	-19.07
1029.666	-2.02
1029.825	-34.37
1029.984	-26.24
1030.143	35.38
1030.302	13.48
1030.461	-39.8
1030.62	7.48
1030.779	16.58
1030.938	-26.82
1031.097	-22.17
1031.255	26.46
1031.414	78.77
1031.573	43.71
1031.732	-58.4
1031.891	-0.27
1032.049	51.65
1032.208	1.47
1032.367	-5.89
1032.525	4.38
1032.684	-8.22
1032.843	17.55
1033.001	-53.17
1033.16	149.1
1033.319	42.93
1033.477	35.18
1033.636	-12.09
1033.794	-19.46
1033.953	56.69
1034.111	48.16
1034.27	12.13
1034.428	32.47
1034.587	-9.38
1034.745	30.14
1034.903	16.97
1035.062	-2.6
1035.22	-23.14
1035.378	40.41
1035.537	-21.39
1035.695	31.69
1035.853	4.18
1036.011	37.7
1036.17	29.56
1036.328	-49.29
1036.486	27.82
1036.644	10.96
1036.802	-71.77
1036.96	-17.32
1037.119	-10.74
1037.277	-15
1037.435	-24.49
1037.593	-27.98
1037.751	9.61
1037.909	64.63
1038.067	64.63
