Data from oakcork_FLMT105791__302__17-34-48-052.txt Node

Date: Mon Mar 20 17:34:48 GMT 2023
User: antho
Spectrometer: FLMT10579
Trigger mode: 0
Integration Time (sec): 1.000000E-1
Scans to average: 10
Electric dark correction enabled: true
Nonlinearity correction enabled: false
Boxcar width: 0
XAxis mode: Wavelengths
Number of Pixels in Spectrum: 3648
>>>>>Begin Spectral Data<<<<<
345.248	-141.47
345.464	-141.47
345.681	-141.47
345.898	-154.26
346.114	-131.01
346.331	-19.6
346.548	14.69
346.764	-14.76
346.981	20.7
347.197	-23.09
347.414	3.07
347.631	-22.31
347.847	51.5
348.064	12.95
348.28	20.31
348.497	-35.1
348.713	-8.36
348.93	12.17
349.146	39.3
349.363	17.02
349.579	21.28
349.796	12.95
350.012	-19.79
350.229	35.04
350.445	25.74
350.661	-12.82
350.878	11.4
351.094	19.34
351.311	30.39
351.527	21.09
351.743	-3.71
351.96	49.18
352.176	26.9
352.392	26.12
352.609	14.31
352.825	-8.17
353.041	16.05
353.257	2.29
353.474	-6.04
353.69	22.64
353.906	23.41
354.122	-0.42
354.339	87.54
354.555	3.26
354.771	-16.89
354.987	57.32
355.203	51.31
355.42	19.54
355.636	-4.88
355.852	-6.23
356.068	20.5
356.284	-36.26
356.5	45.3
356.716	29.42
356.932	16.05
357.148	39.3
357.364	7.91
357.58	30.58
357.796	61.39
358.012	53.25
358.228	34.84
358.444	-37.04
358.66	66.62
358.876	22.44
359.092	-11.66
359.308	12.17
359.524	16.63
359.74	0.16
359.956	19.15
360.172	7.14
360.388	33.29
360.604	35.62
360.819	87.93
361.035	33.87
361.251	27.29
361.467	4.81
361.683	34.26
361.898	27.09
362.114	21.67
362.33	49.18
362.546	47.44
362.762	8.69
362.977	11.01
363.193	-20.38
363.409	42.98
363.624	-8.75
363.84	-1.58
364.056	-17.08
364.271	26.12
364.487	8.49
364.703	-8.75
364.918	-14.76
365.134	29.03
365.35	13.92
365.565	105.75
365.781	23.22
365.996	27.87
366.212	60.42
366.427	5.2
366.643	-4.68
366.858	-7.78
367.074	-27.93
367.289	72.82
367.505	103.43
367.72	-16.31
367.936	13.72
368.151	38.33
368.367	64.1
368.582	11.21
368.798	12.95
369.013	66.04
369.228	15.27
369.444	28.25
369.659	57.32
369.874	36.59
370.09	78.63
370.305	-48.28
370.52	7.91
370.736	60.61
370.951	10.62
371.166	59.25
371.381	65.26
371.597	34.26
371.812	1.52
372.027	0.94
372.242	20.31
372.458	61
372.673	21.67
372.888	38.52
373.103	47.24
373.318	94.13
373.533	37.94
373.749	8.69
373.964	-12.43
374.179	48.02
374.394	-1.19
374.609	81.54
374.824	16.05
375.039	60.03
375.254	7.14
375.469	72.82
375.684	19.15
375.899	25.54
376.114	10.62
376.329	29.61
376.544	64.87
376.759	46.66
376.974	-6.04
377.189	29.8
377.404	18.95
377.619	35.04
377.834	-39.17
378.049	-7.98
378.264	-8.17
378.478	37.55
378.693	16.82
378.908	40.85
379.123	6.56
379.338	58.48
379.553	27.09
379.767	36.97
379.982	57.12
380.197	31.35
380.412	-0.03
380.626	61.58
380.841	94.13
381.056	32.71
381.271	65.07
381.485	7.52
381.7	-16.5
381.915	34.45
382.129	5.01
382.344	46.27
382.559	26.9
382.773	82.12
382.988	-34.52
383.202	35.81
383.417	-9.14
383.632	108.47
383.846	27.29
384.061	30.19
384.275	21.28
384.49	74.37
384.704	30.97
384.919	7.14
385.133	-5.84
385.348	45.3
385.562	-5.26
385.777	73.98
385.991	17.6
386.206	9.27
386.42	29.61
386.634	59.45
386.849	39.88
387.063	36.2
387.277	-13.21
387.492	23.8
387.706	9.27
387.92	8.3
388.135	45.69
388.349	38.52
388.563	24.96
388.778	21.67
388.992	43.95
389.206	63.13
389.42	104.78
389.635	26.7
389.849	29.61
390.063	65.26
390.277	15.27
390.491	84.25
390.706	48.02
390.92	72.04
391.134	26.7
391.348	81.15
391.562	-36.26
391.776	30.39
391.99	8.11
392.205	42.98
392.419	-1.19
392.633	21.67
392.847	61.58
393.061	-4.68
393.275	103.23
393.489	34.65
393.703	47.05
393.917	67
394.131	2.29
394.345	41.82
394.559	65.07
394.773	23.41
394.986	33.68
395.2	17.21
395.414	78.63
395.628	6.94
395.842	24.77
396.056	30.58
396.27	-34.13
396.484	36
396.697	44.53
396.911	53.05
397.125	29.03
397.339	77.66
397.553	60.22
397.766	84.25
397.98	79.02
398.194	85.22
398.408	14.69
398.621	56.93
398.835	48.02
399.049	34.84
399.262	79.21
399.476	67
399.69	69.14
399.903	89.09
400.117	58.09
400.331	64.1
400.544	34.84
400.758	127.65
400.971	44.72
401.185	59.06
401.398	22.64
401.612	97.42
401.826	74.95
402.039	60.8
402.253	24.38
402.466	68.55
402.68	10.82
402.893	49.57
403.106	51.5
403.32	36.59
403.533	52.86
403.747	51.31
403.96	60.42
404.174	74.95
404.387	22.83
404.6	49.18
404.814	86.57
405.027	51.31
405.24	58.67
405.454	34.84
405.667	115.63
405.88	10.04
406.094	30.77
406.307	104.4
406.52	59.84
406.733	30.58
406.947	-7.39
407.16	96.45
407.373	88.9
407.586	39.3
407.799	29.61
408.012	99.55
408.226	57.7
408.439	80.18
408.652	12.37
408.865	92.39
409.078	80.57
409.291	67.2
409.504	8.3
409.717	92.58
409.93	34.45
410.143	36.78
410.357	11.79
410.57	2.68
410.783	54.6
410.996	71.46
411.209	10.04
411.421	82.5
411.634	41.04
411.847	49.95
412.06	67.39
412.273	53.83
412.486	46.08
412.699	116.6
412.912	35.62
413.125	98
413.338	69.52
413.55	96.45
413.763	51.7
413.976	88.32
414.189	34.65
414.402	39.3
414.615	111.57
414.827	25.15
415.04	88.7
415.253	86.57
415.466	71.07
415.678	110.21
415.891	65.65
416.104	73.4
416.316	53.05
416.529	35.42
416.742	92.77
416.954	102.85
417.167	62.55
417.38	59.84
417.592	79.99
417.805	44.34
418.017	15.08
418.23	85.41
418.442	26.32
418.655	43.75
418.868	75.14
419.08	93.94
419.293	103.23
419.505	77.47
419.718	91.03
419.93	97.62
420.142	58.48
420.355	92.19
420.567	117.96
420.78	59.06
420.992	51.12
421.205	126.87
421.417	23.02
421.629	36.78
421.842	48.21
422.054	37.36
422.266	105.56
422.479	85.02
422.691	42.59
422.903	62.94
423.115	44.53
423.328	55.19
423.54	79.79
423.752	64.29
423.964	46.47
424.177	61.77
424.389	24.77
424.601	174.73
424.813	79.6
425.025	99.75
425.238	93.35
425.45	60.8
425.662	55.96
425.874	329.53
426.086	50.54
426.298	96.65
426.51	72.24
426.722	85.8
426.934	37.94
427.146	85.41
427.358	12.76
427.57	91.61
427.782	82.12
427.994	69.33
428.206	54.22
428.418	9.46
428.63	90.25
428.842	73.98
429.054	71.85
429.266	114.08
429.478	69.14
429.69	62.74
429.902	19.15
430.114	101.88
430.325	83.09
430.537	75.92
430.749	70.1
430.961	28.06
431.173	60.22
431.384	98.97
431.596	-7.01
431.808	57.51
432.02	75.14
432.231	80.57
432.443	116.99
432.655	90.84
432.867	70.1
433.078	114.28
433.29	129.2
433.502	134.23
433.713	114.47
433.925	85.22
434.136	126.68
434.348	51.12
434.56	31.55
434.771	148.77
434.983	30.19
435.194	49.18
435.406	52.47
435.617	126.1
435.829	143.73
436.04	91.8
436.252	128.62
436.463	136.17
436.675	87.54
436.886	99.36
437.098	98.78
437.309	129.39
437.521	80.37
437.732	117.96
437.943	70.3
438.155	72.82
438.366	51.89
438.578	144.89
438.789	69.72
439	116.22
439.211	80.18
439.423	115.63
439.634	107.5
439.845	103.43
440.057	96.07
440.268	115.05
440.479	66.04
440.69	85.99
440.902	55.77
441.113	101.1
441.324	98.2
441.535	84.44
441.746	122.03
441.957	67.2
442.168	89.67
442.38	96.84
442.591	116.99
442.802	60.03
443.013	81.34
443.224	90.25
443.435	86.57
443.646	86.96
443.857	94.71
444.068	84.44
444.279	91.8
444.49	153.61
444.701	94.9
444.912	163.1
445.123	124.35
445.334	114.47
445.545	110.21
445.756	88.32
445.967	71.65
446.178	97.81
446.388	144.31
446.599	125.32
446.81	113.89
447.021	107.5
447.232	127.45
447.443	170.85
447.653	63.71
447.864	131.91
448.075	123.19
448.286	117.77
448.496	113.5
448.707	127.84
448.918	77.85
449.129	202.43
449.339	73.4
449.55	112.15
449.761	115.83
449.971	153.8
450.182	101.1
450.393	124.93
450.603	103.82
450.814	139.27
451.024	120.48
451.235	125.13
451.446	174.34
451.656	154.77
451.867	129.78
452.077	126.87
452.288	184.22
452.498	188.29
452.709	108.27
452.919	149.93
453.13	106.53
453.34	156.71
453.55	66.04
453.761	154.58
453.971	149.15
454.182	143.73
454.392	135.59
454.602	189.07
454.813	150.7
455.023	185.58
455.233	72.62
455.444	119.7
455.654	56.93
455.864	136.17
456.075	128.62
456.285	141.4
456.495	109.05
456.705	144.5
456.916	176.86
457.126	182.67
457.336	128.81
457.546	69.33
457.756	98.97
457.967	162.13
458.177	103.43
458.387	118.73
458.597	87.93
458.807	89.48
459.017	99.75
459.227	109.82
459.437	97.04
459.647	167.95
459.857	161.94
460.068	91.22
460.278	186.55
460.488	156.71
460.698	201.66
460.908	128.42
461.117	96.26
461.327	87.35
461.537	148.38
461.747	119.12
461.957	160.39
462.167	231.69
462.377	171.43
462.587	146.63
462.797	162.91
463.007	128.81
463.216	151.09
463.426	169.88
463.636	160.97
463.846	100.72
464.056	130.94
464.265	179.18
464.475	132.49
464.685	153.22
464.895	142.76
465.104	141.02
465.314	172.6
465.524	141.21
465.733	107.5
465.943	223.75
466.153	197.59
466.362	161.75
466.572	146.05
466.782	128.81
466.991	154.77
467.201	190.61
467.41	107.3
467.62	163.3
467.829	157.29
468.039	150.12
468.249	151.67
468.458	159.81
468.668	153.03
468.877	150.9
469.086	200.88
469.296	189.45
469.505	133.07
469.715	189.65
469.924	176.47
470.134	194.68
470.343	176.28
470.552	158.26
470.762	169.69
470.971	163.3
471.18	167.75
471.39	158.45
471.599	111.76
471.808	163.68
472.018	146.05
472.227	190.42
472.436	212.51
472.645	160
472.855	135.01
473.064	192.94
473.273	186.74
473.482	197.78
473.691	199.33
473.901	196.23
474.11	177.63
474.319	262.5
474.528	158.84
474.737	202.05
474.946	204.18
475.155	171.43
475.364	230.53
475.573	180.15
475.783	148.77
475.992	205.53
476.201	228.78
476.41	183.25
476.619	176.08
476.828	188.1
477.037	180.35
477.245	193.91
477.454	203.98
477.663	185.19
477.872	167.17
478.081	242.35
478.29	153.8
478.499	252.61
478.708	198.56
478.917	232.27
479.125	184.42
479.334	209.41
479.543	177.05
479.752	213.48
479.961	195.26
480.169	225.68
480.378	178.99
480.587	302.21
480.796	210.38
481.004	186.16
481.213	244.67
481.422	218.71
481.63	197.59
481.839	228.78
482.048	282.64
482.256	205.73
482.465	220.65
482.674	229.95
482.882	239.63
483.091	278.19
483.299	237.7
483.508	238.66
483.716	220.65
483.925	242.73
484.134	197.98
484.342	192.75
484.551	240.6
484.759	268.89
484.967	250.48
485.176	265.98
485.384	259.98
485.593	270.83
485.801	243.7
486.01	250.29
486.218	220.84
486.426	177.63
486.635	227.62
486.843	213.67
487.051	216.38
487.26	226.07
487.468	251.06
487.676	275.86
487.885	204.37
488.093	247.96
488.301	224.71
488.509	244.67
488.717	262.11
488.926	234.98
489.134	242.15
489.342	252.03
489.55	229.17
489.758	256.49
489.967	204.37
490.175	327.01
490.383	220.84
490.591	297.76
490.799	198.95
491.007	290.2
491.215	288.26
491.423	273.93
491.631	245.45
491.839	265.6
492.047	273.93
492.255	225.88
492.463	231.5
492.671	242.35
492.879	307.83
493.087	258.62
493.295	292.91
493.503	280.13
493.711	278.19
493.919	288.84
494.127	314.42
494.334	313.26
494.542	248.16
494.75	280.13
494.958	260.56
495.166	286.52
495.374	292.14
495.581	290.39
495.789	297.18
495.997	343.29
496.205	290.98
496.412	272.38
496.62	264.82
496.828	294.08
497.035	286.52
497.243	268.89
497.451	296.01
497.658	278.77
497.866	282.84
498.074	331.28
498.281	282.06
498.489	356.46
498.696	304.15
498.904	269.66
499.112	279.54
499.319	357.24
499.527	315.19
499.734	336.51
499.942	248.16
500.149	287.29
500.357	299.11
500.564	240.8
500.771	325.08
500.979	270.25
501.186	290.2
501.394	299.31
501.601	309.58
501.808	328.18
502.016	312.48
502.223	275.28
502.43	295.43
502.638	332.24
502.845	254.55
503.052	348.91
503.26	287.68
503.467	359.37
503.674	285.94
503.881	316.36
504.089	394.05
504.296	322.94
504.503	284.78
504.71	296.59
504.917	271.21
505.125	314.81
505.332	299.89
505.539	308.03
505.746	367.31
505.953	358.01
506.16	322.36
506.367	374.48
506.574	359.76
506.781	382.04
506.988	292.53
507.195	301.63
507.402	306.09
507.609	367.89
507.816	333.41
508.023	314.61
508.23	327.4
508.437	322.17
508.644	377
508.851	395.21
509.058	375.45
509.265	330.5
509.472	358.01
509.679	424.66
509.885	335.54
510.092	342.32
510.299	321.2
510.506	345.03
510.713	313.26
510.92	356.85
511.126	371.96
511.333	383.78
511.54	367.31
511.746	387.66
511.953	386.88
512.16	392.11
512.367	351.23
512.573	339.61
512.78	369.25
512.987	338.44
513.193	348.91
513.4	321.01
513.606	333.21
513.813	370.22
514.02	379.91
514.226	443.46
514.433	401.61
514.639	350.26
514.846	362.08
515.052	350.65
515.259	362.86
515.465	340.77
515.672	387.07
515.878	430.67
516.085	357.43
516.291	403.74
516.497	353.56
516.704	385.72
516.91	365.18
517.117	336.89
517.323	304.73
517.529	342.32
517.736	365.57
517.942	361.5
518.148	327.79
518.354	373.71
518.561	377.97
518.767	390.95
518.973	387.66
519.179	395.21
519.386	346.97
519.592	372.35
519.798	380.1
520.004	433.77
520.21	343.87
520.417	396.18
520.623	425.24
520.829	448.11
521.035	400.83
521.241	430.28
521.447	440.94
521.653	516.3
521.859	416.72
522.065	430.28
522.271	513.98
522.477	440.55
522.683	466.9
522.889	451.98
523.095	449.85
523.301	425.24
523.507	401.61
523.713	472.32
523.919	413.42
524.125	464.57
524.331	433.38
524.537	518.24
524.742	470.39
524.948	497.12
525.154	475.23
525.36	549.63
525.566	479.49
525.772	519.4
525.977	452.56
526.183	495.38
526.389	485.69
526.595	459.15
526.8	469.03
527.006	439.39
527.212	447.52
527.417	430.28
527.623	457.02
527.829	500.22
528.034	501.58
528.24	478.72
528.446	411.1
528.651	508.75
528.857	482.79
529.062	537.81
529.268	484.92
529.473	502.55
529.679	451.21
529.884	541.68
530.09	523.86
530.295	558.15
530.501	549.43
530.706	521.34
530.912	490.34
531.117	485.3
531.323	503.9
531.528	529.29
531.733	546.53
531.939	491.89
532.144	544.01
532.35	518.24
532.555	558.15
532.76	562.8
532.966	565.13
533.171	501.39
533.376	523.86
533.581	516.69
533.787	532.77
533.992	553.5
534.197	597.1
534.402	502.55
534.607	536.07
534.813	620.54
535.018	519.4
535.223	516.89
535.428	536.84
535.633	602.52
535.838	573.27
536.043	525.02
536.249	629.06
536.454	536.45
536.659	574.82
536.864	513.59
537.069	547.69
537.274	591.28
537.479	571.72
537.684	567.65
537.889	530.06
538.094	608.92
538.299	590.32
538.504	561.83
538.708	585.08
538.913	593.42
539.118	563.97
539.323	601.36
539.528	566.1
539.733	592.45
539.938	594.58
540.142	603.3
540.347	568.81
540.552	536.65
540.757	551.76
540.962	569
541.166	506.42
541.371	547.3
541.576	560.87
541.781	487.82
541.985	568.23
542.19	596.32
542.395	595.35
542.599	632.94
542.804	584.31
543.008	624.03
543.213	532
543.418	534.52
543.622	620.35
543.827	534.13
544.031	618.02
544.236	634.68
544.44	556.8
544.645	651.54
544.849	555.05
545.054	620.35
545.258	649.6
545.463	626.93
545.667	573.27
545.872	618.02
546.076	606.59
546.281	583.34
546.485	625.58
546.689	604.85
546.894	619.18
547.098	598.45
547.302	572.1
547.507	617.44
547.711	616.08
547.915	676.92
548.119	558.73
548.324	595.93
548.528	667.62
548.732	613.95
548.936	615.7
549.141	645.92
549.345	568.42
549.549	594.58
549.753	595.35
549.957	690.1
550.161	663.75
550.366	602.91
550.57	589.35
550.774	614.73
550.978	602.91
551.182	619.18
551.386	567.65
551.59	577.14
551.794	623.06
551.998	606.78
552.202	592.06
552.406	585.86
552.61	595.93
552.814	601.17
553.018	681.76
553.222	612.6
553.426	603.49
553.63	662.78
553.833	583.92
554.037	581.98
554.241	670.72
554.445	600.78
554.649	603.68
554.853	609.11
555.056	655.03
555.26	625
555.464	620.93
555.668	632.16
555.871	652.51
556.075	639.33
556.279	602.33
556.483	594.19
556.686	581.21
556.89	594.19
557.094	621.32
557.297	559.12
557.501	650.96
557.704	556.6
557.908	629.45
558.112	574.82
558.315	649.21
558.519	610.66
558.722	605.23
558.926	564.55
559.129	555.83
559.333	501.58
559.536	527.54
559.74	572.88
559.943	563.38
560.147	545.75
560.35	592.25
560.553	582.37
560.757	504.29
560.96	604.85
561.164	554.28
561.367	608.14
561.57	575.59
561.774	608.14
561.977	561.06
562.18	556.22
562.384	640.88
562.587	553.31
562.79	555.05
562.993	564.93
563.197	614.15
563.4	649.8
563.603	606.4
563.806	658.71
564.009	527.74
564.212	600.78
564.416	517.27
564.619	584.89
564.822	536.84
565.025	587.22
565.228	562.03
565.431	555.63
565.634	498.29
565.837	558.54
566.04	510.69
566.243	531.8
566.446	444.81
566.649	577.53
566.852	476.59
567.055	529.48
567.258	549.63
567.461	596.13
567.664	575.59
567.867	502.94
568.07	568.23
568.273	537.62
568.475	553.5
568.678	515.72
568.881	534.9
569.084	545.95
569.287	431.06
569.489	476.97
569.692	536.84
569.895	540.52
570.098	454.11
570.3	486.08
570.503	440.74
570.706	451.4
570.909	480.85
571.111	442.49
571.314	433.19
571.516	468.06
571.719	460.12
571.922	463.02
572.124	454.3
572.327	485.11
572.529	420.21
572.732	449.66
572.935	450.62
573.137	506.42
573.34	474.07
573.542	475.81
573.745	488.99
573.947	470
574.15	430.86
574.352	446.36
574.554	505.45
574.757	450.82
574.959	447.14
575.162	433.38
575.364	434.35
575.566	514.56
575.769	434.93
575.971	461.28
576.173	373.51
576.376	431.44
576.578	452.95
576.78	513.01
576.982	377.39
577.185	430.67
577.387	396.96
577.589	431.25
577.791	464.38
577.993	453.92
578.196	429.89
578.398	451.01
578.6	478.72
578.802	424.47
579.004	424.66
579.206	400.25
579.408	440.74
579.61	438.42
579.812	438.61
580.014	450.43
580.216	379.13
580.418	432.02
580.62	373.71
580.822	387.27
581.024	397.15
581.226	443.84
581.428	371.19
581.63	462.64
581.832	410.32
582.034	453.53
582.236	408.97
582.438	438.42
582.64	480.07
582.841	456.44
583.043	470.97
583.245	441.91
583.447	472.13
583.649	414.2
583.85	433.38
584.052	477.75
584.254	408.97
584.456	489.57
584.657	350.07
584.859	422.14
585.061	428.34
585.262	404.32
585.464	399.28
585.666	476.78
585.867	415.75
586.069	478.33
586.27	410.71
586.472	428.54
586.674	409.94
586.875	398.31
587.077	397.54
587.278	435.51
587.48	408.19
587.681	484.34
587.883	432.41
588.084	375.06
588.285	394.63
588.487	403.74
588.688	422.34
588.89	372.16
589.091	366.92
589.292	396.18
589.494	365.57
589.695	379.13
589.896	341.93
590.098	329.14
590.299	365.37
590.5	324.49
590.702	354.14
590.903	369.06
591.104	425.82
591.305	365.18
591.507	427.57
591.708	422.14
591.909	387.85
592.11	417.49
592.311	431.44
592.512	391.72
592.714	351.81
592.915	350.07
593.116	354.33
593.317	369.06
593.518	377.58
593.719	379.71
593.92	408.19
594.121	430.47
594.322	374.09
594.523	377.97
594.724	349.88
594.925	360.53
595.126	396.37
595.327	376.61
595.528	388.24
595.729	376.61
595.929	393.47
596.13	357.24
596.331	390.95
596.532	418.27
596.733	421.76
596.934	432.61
597.135	401.41
597.335	377.97
597.536	332.05
597.737	380.1
597.938	338.06
598.138	389.4
598.339	353.17
598.54	390.17
598.74	382.04
598.941	394.63
599.142	403.93
599.342	399.28
599.543	340.96
599.744	358.21
599.944	364.21
600.145	361.69
600.345	402.96
600.546	471.74
600.746	405.09
600.947	459.73
601.147	393.66
601.348	426.21
601.548	367.31
601.749	381.07
601.949	337.86
602.15	334.57
602.35	378.74
602.551	419.04
602.751	345.23
602.951	380.87
603.152	287.29
603.352	377.97
603.552	360.73
603.753	407.22
603.953	399.47
604.153	371.38
604.354	363.83
604.554	370.02
604.754	361.89
604.954	339.8
605.155	380.29
605.355	392.5
605.555	400.64
605.755	416.14
605.955	383.59
606.155	380.49
606.356	365.18
606.556	389.79
606.756	396.96
606.956	313.84
607.156	419.24
607.356	350.26
607.556	381.84
607.756	365.37
607.956	429.89
608.156	370.8
608.356	361.89
608.556	405.29
608.756	374.87
608.956	343.87
609.156	372.35
609.356	363.24
609.556	346.39
609.755	380.29
609.955	348.52
610.155	371.19
610.355	339.99
610.555	350.84
610.755	363.05
610.954	319.84
611.154	364.21
611.354	428.54
611.554	341.93
611.753	366.92
611.953	294.46
612.153	384.56
612.352	385.52
612.552	342.51
612.752	291.56
612.951	339.41
613.151	342.9
613.351	294.46
613.55	341.16
613.75	340.77
613.949	342.13
614.149	361.5
614.348	345.81
614.548	308.99
614.747	276.83
614.947	352.78
615.146	298.14
615.346	358.98
615.545	366.92
615.745	355.49
615.944	346.97
616.144	350.46
616.343	360.14
616.542	330.31
616.742	333.79
616.941	324.49
617.14	284.58
617.34	345.03
617.539	319.84
617.738	298.73
617.938	382.04
618.137	327.01
618.336	283.81
618.535	350.26
618.734	311.71
618.934	338.64
619.133	335.93
619.332	321.01
619.531	292.33
619.73	311.32
619.929	353.75
620.128	358.21
620.328	357.04
620.527	318.88
620.726	308.61
620.925	331.08
621.124	300.86
621.323	354.72
621.522	302.41
621.721	291.17
621.92	263.27
622.119	319.65
622.318	300.66
622.517	296.01
622.715	314.61
622.914	278.38
623.113	290.98
623.312	288.26
623.511	300.86
623.71	300.86
623.909	280.9
624.107	341.35
624.306	297.18
624.505	268.7
624.704	276.83
624.902	286.91
625.101	332.24
625.3	297.76
625.499	282.06
625.697	264.82
625.896	286.91
626.095	319.46
626.293	280.32
626.492	288.26
626.69	306.86
626.889	264.24
627.088	302.02
627.286	263.46
627.485	276.83
627.683	268.31
627.882	327.98
628.08	231.3
628.279	279.16
628.477	320.43
628.676	260.36
628.874	303.76
629.073	259.2
629.271	242.54
629.469	303.96
629.668	253.97
629.866	256.1
630.065	270.25
630.263	313.64
630.461	239.05
630.66	286.52
630.858	267.73
631.056	303.38
631.254	315.78
631.453	238.66
631.651	307.06
631.849	268.5
632.047	309.38
632.245	290.2
632.444	292.91
632.642	309.77
632.84	314.23
633.038	281.87
633.236	236.34
633.434	255.52
633.632	252.03
633.83	257.26
634.028	293.3
634.227	303.96
634.425	315.19
634.623	267.53
634.821	274.12
635.019	243.12
635.216	255.33
635.414	302.41
635.612	294.85
635.81	271.02
636.008	313.84
636.206	252.42
636.404	311.51
636.602	231.3
636.8	287.68
636.997	280.32
637.195	279.16
637.393	260.36
637.591	308.03
637.789	285.16
637.986	261.33
638.184	297.37
638.382	309.58
638.58	300.47
638.777	307.25
638.975	272.38
639.173	281.48
639.37	317.52
639.568	292.53
639.765	338.83
639.963	281.68
640.161	305.31
640.358	298.34
640.556	263.08
640.753	234.79
640.951	243.51
641.148	259.4
641.346	274.31
641.543	262.69
641.741	256.88
641.938	244.86
642.136	238.66
642.333	237.11
642.531	284
642.728	307.44
642.925	262.5
643.123	247.19
643.32	272.96
643.517	231.88
643.715	261.53
643.912	252.81
644.109	283.81
644.306	256.88
644.504	258.62
644.701	269.28
644.898	282.26
645.095	242.73
645.293	262.3
645.49	282.45
645.687	249.71
645.884	286.71
646.081	198.36
646.278	229.95
646.475	240.8
646.672	243.51
646.87	284.19
647.067	260.75
647.264	265.01
647.461	233.82
647.658	210.57
647.855	283.81
648.052	216
648.249	178.02
648.446	246.61
648.642	201.66
648.839	246.61
649.036	220.45
649.233	218.13
649.43	227.23
649.627	197.4
649.824	217.74
650.021	240.02
650.217	230.33
650.414	207.08
650.611	234.21
650.808	218.13
651.004	234.01
651.201	248.55
651.398	257.65
651.595	244.48
651.791	224.91
651.988	258.43
652.185	222.39
652.381	231.5
652.578	164.46
652.775	232.66
652.971	222.58
653.168	222.97
653.364	251.84
653.561	185.97
653.757	195.46
653.954	250.68
654.15	199.33
654.347	267.92
654.543	210.18
654.74	188.29
654.936	230.72
655.133	223.16
655.329	235.56
655.525	204.76
655.722	254.75
655.918	205.92
656.115	248.55
656.311	171.82
656.507	170.27
656.704	154.77
656.9	194.1
657.096	174.34
657.292	161.75
657.489	218.71
657.685	203.79
657.881	208.44
658.077	174.15
658.273	216.38
658.47	247.96
658.666	193.91
658.862	204.95
659.058	185.19
659.254	241.18
659.45	180.15
659.646	205.15
659.842	224.13
660.038	240.21
660.234	199.91
660.43	211.35
660.626	271.8
660.822	231.5
661.018	224.91
661.214	211.15
661.41	170.47
661.606	202.82
661.802	221.61
661.998	199.72
662.194	178.6
662.39	232.27
662.586	201.46
662.781	213.67
662.977	215.22
663.173	236.73
663.369	228.78
663.564	215.22
663.76	254.75
663.956	194.88
664.152	265.21
664.347	179.96
664.543	201.85
664.739	188.48
664.934	160.78
665.13	177.44
665.326	237.31
665.521	230.91
665.717	204.18
665.912	153.61
666.108	136.95
666.304	210.38
666.499	193.33
666.695	119.7
666.89	184.42
667.086	227.43
667.281	222.2
667.477	248.55
667.672	199.72
667.867	201.66
668.063	225.49
668.258	202.24
668.454	185.77
668.649	263.66
668.844	200.5
669.04	209.8
669.235	206.11
669.43	164.07
669.626	154.77
669.821	162.52
670.016	177.63
670.211	200.88
670.407	165.82
670.602	185.77
670.797	199.91
670.992	230.91
671.187	177.25
671.382	235.76
671.578	179.38
671.773	184.42
671.968	151.48
672.163	174.92
672.358	188.68
672.553	188.29
672.748	161.36
672.943	265.79
673.138	195.65
673.333	230.33
673.528	168.92
673.723	200.5
673.918	177.63
674.113	170.85
674.308	258.23
674.503	204.37
674.698	196.81
674.892	201.27
675.087	235.95
675.282	217.55
675.477	185
675.672	179.38
675.867	177.63
676.061	161.17
676.256	140.24
676.451	182.87
676.646	191.97
676.84	174.92
677.035	170.66
677.23	156.71
677.424	222.58
677.619	195.46
677.814	215.61
678.008	225.88
678.203	131.52
678.397	168.72
678.592	198.56
678.787	196.23
678.981	175.7
679.176	198.56
679.37	204.18
679.565	127.45
679.759	153.61
679.954	226.85
680.148	236.92
680.342	223.16
680.537	197.01
680.731	176.67
680.926	198.75
681.12	206.89
681.314	178.6
681.509	190.81
681.703	193.13
681.897	196.62
682.092	179.57
682.286	169.3
682.48	237.7
682.674	200.88
682.869	177.44
683.063	189.65
683.257	247
683.451	164.07
683.645	182.87
683.839	168.53
684.034	185.77
684.228	210.76
684.422	147.22
684.616	167.75
684.81	218.71
685.004	178.22
685.198	160.2
685.392	233.24
685.586	162.13
685.78	222.39
685.974	200.69
686.168	200.3
686.362	253.2
686.556	180.93
686.75	159.03
686.944	155.93
687.138	203.98
687.331	141.21
687.525	160.2
687.719	92.58
687.913	149.54
688.107	185.19
688.301	142.37
688.494	179.18
688.688	133.85
688.882	135.98
689.076	136.75
689.269	143.53
689.463	213.86
689.657	129.39
689.85	149.54
690.044	154.97
690.238	143.15
690.431	145.67
690.625	127.45
690.818	157.1
691.012	174.34
691.205	170.27
691.399	122.42
691.593	157.87
691.786	211.73
691.98	185.19
692.173	225.1
692.366	182.48
692.56	198.36
692.753	256.1
692.947	146.44
693.14	237.89
693.333	213.86
693.527	147.02
693.72	204.76
693.914	174.92
694.107	177.44
694.3	200.5
694.493	187.9
694.687	231.5
694.88	198.56
695.073	229.95
695.266	221.03
695.46	190.23
695.653	249.51
695.846	220.84
696.039	119.51
696.232	193.52
696.425	235.56
696.618	219.29
696.812	235.37
697.005	271.8
697.198	314.42
697.391	237.31
697.584	256.3
697.777	298.73
697.97	302.6
698.163	270.83
698.356	272.76
698.549	343.48
698.742	299.11
698.935	266.95
699.127	300.08
699.32	239.83
699.513	256.3
699.706	285.55
699.899	290.59
700.092	258.04
700.285	305.7
700.477	266.56
700.67	307.83
700.863	316.55
701.056	396.96
701.248	365.76
701.441	350.26
701.634	344.64
701.826	364.02
702.019	314.61
702.212	349.49
702.404	319.65
702.597	302.79
702.79	322.36
702.982	348.13
703.175	354.33
703.367	390.37
703.56	384.56
703.752	428.54
703.945	383.2
704.137	387.66
704.33	381.65
704.522	390.37
704.715	387.27
704.907	402.19
705.1	432.22
705.292	448.3
705.484	418.85
705.677	440.36
705.869	440.36
706.061	466.12
706.254	481.82
706.446	424.66
706.638	451.4
706.831	510.3
707.023	464.77
707.215	523.47
707.407	519.79
707.599	496.74
707.792	513.2
707.984	497.51
708.176	547.88
708.368	479.49
708.56	545.37
708.752	490.54
708.944	522.5
709.136	541.49
709.329	541.1
709.521	615.7
709.713	577.53
709.905	578.69
710.097	633.52
710.289	585.28
710.481	612.02
710.672	612.6
710.864	578.3
711.056	667.62
711.248	631.97
711.44	640.69
711.632	645.15
711.824	622.28
712.016	691.65
712.207	645.92
712.399	684.09
712.591	745.7
712.783	680.8
712.975	703.46
713.166	661.61
713.358	680.99
713.55	743.57
713.741	712.18
713.933	720.9
714.125	706.18
714.316	701.91
714.508	775.54
714.7	761.98
714.891	761.98
715.083	802.27
715.274	739.31
715.466	749.19
715.657	780.96
715.849	708.11
716.04	759.26
716.232	706.76
716.423	810.8
716.615	774.96
716.806	735.43
716.998	711.99
717.189	675.56
717.381	662.78
717.572	636.62
717.763	706.37
717.955	687.77
718.146	681.38
718.337	619.57
718.528	605.23
718.72	563.19
718.911	632.55
719.102	617.44
719.293	668.2
719.485	620.35
719.676	660.06
719.867	613.95
720.058	603.68
720.249	638.36
720.44	662.97
720.632	655.41
720.823	687.38
721.014	745.7
721.205	717.41
721.396	774.96
721.587	824.56
721.778	814.87
721.969	825.72
722.16	846.26
722.351	839.67
722.542	945.65
722.733	957.27
722.924	870.47
723.115	946.23
723.305	941.19
723.496	913.1
723.687	852.84
723.878	867.37
724.069	898.76
724.26	883.65
724.45	870.09
724.641	820.68
724.832	908.64
725.023	905.54
725.213	850.91
725.404	860.4
725.595	864.66
725.785	858.66
725.976	900.12
726.167	896.05
726.357	916.97
726.548	1003
726.739	916.78
726.929	943.52
727.12	983.04
727.31	964.83
727.501	944.68
727.691	959.21
727.882	971.61
728.072	1003.19
728.263	1008.42
728.453	1029.15
728.644	1007.65
728.834	1007.84
729.024	1021.4
729.215	989.24
729.405	1011.52
729.596	1058.99
729.786	1095.03
729.976	1071.97
730.167	1073.33
730.357	1055.7
730.547	1071.78
730.737	1088.83
730.928	1111.69
731.118	1177.56
731.308	1076.04
731.498	1111.11
731.688	1181.24
731.879	1162.84
732.069	1203.14
732.259	1203.33
732.449	1192.48
732.639	1284.51
732.829	1317.45
733.019	1274.05
733.209	1346.7
733.399	1330.24
733.589	1373.25
733.779	1390.49
733.969	1379.64
734.159	1378.48
734.349	1439.32
734.539	1476.32
734.729	1446.48
734.919	1475.35
735.109	1510.42
735.299	1445.9
735.488	1502.48
735.678	1533.67
735.868	1494.92
736.058	1497.05
736.248	1498.8
736.437	1445.9
736.627	1439.51
736.817	1581.53
737.007	1507.32
737.196	1542.97
737.386	1558.47
737.576	1511.39
737.765	1555.95
737.955	1553.24
738.144	1615.82
738.334	1593.73
738.524	1541.23
738.713	1568.55
738.903	1556.15
739.092	1610.59
739.282	1617.95
739.471	1635.97
739.661	1588.11
739.85	1622.21
740.04	1643.33
740.229	1698.55
740.419	1688.86
740.608	1662.71
740.797	1675.49
740.987	1743.31
741.176	1733.23
741.365	1675.3
741.555	1666.19
741.744	1698.74
741.933	1709.21
742.123	1732.84
742.312	1748.34
742.501	1776.24
742.69	1768.3
742.88	1712.5
743.069	1765.97
743.258	1755.51
743.447	1799.1
743.636	1786.9
743.825	1738.46
744.014	1800.07
744.204	1794.65
744.393	1752.8
744.582	1842.31
744.771	1834.56
744.96	1771.98
745.149	1837.47
745.338	1779.15
745.527	1830.88
745.716	1791.16
745.905	1820.22
746.094	1818.48
746.283	1858.2
746.471	1838.44
746.66	1873.31
746.849	1867.69
747.038	1865.37
747.227	1783.6
747.416	1877.57
747.604	1821.97
747.793	1846.96
747.982	1846.57
748.171	1852.97
748.359	1874.08
748.548	1883
748.737	1862.46
748.926	1865.56
749.114	1801.82
749.303	1858.39
749.491	1855.1
749.68	1784.57
749.869	1911.09
750.057	1830.3
750.246	1819.06
750.434	1867.11
750.623	1824.49
750.811	1845.6
751	1875.05
751.188	1824.29
751.377	1863.04
751.565	1822.74
751.754	1797.75
751.942	1799.49
752.131	1881.83
752.319	1801.24
752.507	1791.55
752.696	1830.3
752.884	1894.82
753.072	1808.6
753.261	1841.73
753.449	1819.64
753.637	1825.26
753.825	1873.12
754.014	1834.17
754.202	1810.92
754.39	1899.66
754.578	1859.94
754.766	1792.32
754.955	1807.24
755.143	1886.68
755.331	1808.02
755.519	1806.66
755.707	1817.9
755.895	1820.42
756.083	1809.76
756.271	1789.42
756.459	1800.85
756.647	1854.13
756.835	1781.47
757.023	1779.34
757.211	1799.69
757.399	1787.87
757.587	1756.67
757.775	1744.66
757.963	1772.17
758.151	1787.09
758.339	1765.59
758.526	1730.52
758.714	1785.54
758.902	1720.25
759.09	1685.18
759.278	1531.15
759.465	1436.02
759.653	1212.83
759.841	1132.23
760.028	938.67
760.216	827.46
760.404	824.56
760.591	633.91
760.779	554.47
760.967	475.04
761.154	372.35
761.342	430.47
761.529	397.15
761.717	451.01
761.905	405.48
762.092	468.45
762.28	415.75
762.467	424.47
762.655	387.07
762.842	406.64
763.029	398.89
763.217	413.23
763.404	419.62
763.592	448.69
763.779	378.36
763.966	428.54
764.154	458.76
764.341	509.91
764.528	444.62
764.716	526.19
764.903	571.91
765.09	574.82
765.277	598.84
765.465	721.68
765.652	721.68
765.839	745.7
766.026	837.73
766.213	834.44
766.4	932.09
766.588	1054.53
766.775	1020.82
766.962	1096.58
767.149	1099.1
767.336	1230.26
767.523	1156.25
767.71	1247.7
767.897	1318.42
768.084	1329.65
768.271	1354.07
768.458	1389.14
768.645	1448.81
768.832	1414.9
769.019	1420.72
769.206	1436.6
769.392	1498.8
769.579	1561.57
769.766	1528.44
769.953	1500.54
770.14	1562.35
770.327	1563.7
770.513	1581.91
770.7	1667.36
770.887	1564.86
771.073	1634.03
771.26	1562.54
771.447	1550.33
771.634	1556.34
771.82	1653.02
772.007	1575.52
772.193	1602.26
772.38	1632.48
772.567	1602.64
772.753	1562.73
772.94	1622.6
773.126	1637.52
773.313	1605.74
773.499	1632.87
773.686	1628.22
773.872	1617.95
774.059	1636.36
774.245	1589.28
774.432	1577.65
774.618	1526.5
774.804	1597.03
774.991	1566.03
775.177	1618.53
775.363	1610.39
775.55	1609.62
775.736	1572.03
775.922	1596.06
776.109	1555.56
776.295	1541.03
776.481	1606.33
776.667	1611.36
776.853	1577.26
777.04	1557.31
777.226	1562.15
777.412	1612.91
777.598	1538.32
777.784	1501.7
777.97	1533.67
778.156	1578.04
778.342	1520.11
778.528	1550.14
778.715	1502.67
778.901	1535.8
779.087	1557.11
779.272	1526.31
779.458	1498.8
779.644	1577.07
779.83	1492.4
780.016	1574.94
780.202	1498.41
780.388	1491.63
780.574	1457.33
780.76	1464.89
780.946	1531.73
781.131	1534.45
781.317	1480
781.503	1486.98
781.689	1502.09
781.874	1575.71
782.06	1506.93
782.246	1509.65
782.432	1490.27
782.617	1516.23
782.803	1538.32
782.989	1418.2
783.174	1461.79
783.36	1436.99
783.545	1455.4
783.731	1457.33
783.916	1421.68
784.102	1485.62
784.288	1419.55
784.473	1437.38
784.659	1438.35
784.844	1494.53
785.029	1417.81
785.215	1441.64
785.4	1353.29
785.586	1473.22
785.771	1362.79
785.956	1435.83
786.142	1423.62
786.327	1390.3
786.512	1401.15
786.698	1375.38
786.883	1362.2
787.068	1372.28
787.254	1393.4
787.439	1359.3
787.624	1376.54
787.809	1341.09
787.994	1347.67
788.18	1399.4
788.365	1316.67
788.55	1337.99
788.735	1329.65
788.92	1368.6
789.105	1312.41
789.29	1341.86
789.475	1305.82
789.66	1305.63
789.845	1307.37
790.03	1316.87
790.215	1342.05
790.4	1326.55
790.585	1365.89
790.77	1292.26
790.955	1227.55
791.14	1317.06
791.325	1372.47
791.51	1245.76
791.695	1300.59
791.879	1273.47
792.064	1259.91
792.249	1295.56
792.434	1268.82
792.618	1277.34
792.803	1315.71
792.988	1237.82
793.173	1282.77
793.357	1315.12
793.542	1238.98
793.727	1269.4
793.911	1345.93
794.096	1300.79
794.281	1293.62
794.465	1348.45
794.65	1265.14
794.834	1294.59
795.019	1344.19
795.203	1359.49
795.388	1340.5
795.572	1370.73
795.757	1314.35
795.941	1336.44
796.126	1308.92
796.31	1253.71
796.494	1277.73
796.679	1292.46
796.863	1246.73
797.048	1350.97
797.232	1312.99
797.416	1316.67
797.601	1239.76
797.785	1322.49
797.969	1355.04
798.153	1230.65
798.338	1298.07
798.522	1306.6
798.706	1299.04
798.89	1331.79
799.074	1430.4
799.258	1348.06
799.443	1299.24
799.627	1303.5
799.811	1362.4
799.995	1308.92
800.179	1311.64
800.363	1299.62
800.547	1336.44
800.731	1334.11
800.915	1271.14
801.099	1279.28
801.283	1294.39
801.467	1285.67
801.651	1272.31
801.835	1356.97
802.019	1292.46
802.202	1332.17
802.386	1294.01
802.57	1242.47
802.754	1256.22
802.938	1249.83
803.121	1295.75
803.305	1312.41
803.489	1299.82
803.673	1292.26
803.856	1330.82
804.04	1299.04
804.224	1337.4
804.407	1306.79
804.591	1259.13
804.775	1292.84
804.958	1334.89
805.142	1370.54
805.326	1263.2
805.509	1302.72
805.693	1341.28
805.876	1354.26
806.06	1326.36
806.243	1329.46
806.427	1344.19
806.61	1333.53
806.794	1293.23
806.977	1345.93
807.16	1276.76
807.344	1318.81
807.527	1310.67
807.71	1290.52
807.894	1315.12
808.077	1330.82
808.26	1276.76
808.444	1278.51
808.627	1332.75
808.81	1292.84
808.993	1241.89
809.177	1280.25
809.36	1262.42
809.543	1316.87
809.726	1196.94
809.909	1229.68
810.092	1198.68
810.276	1223.29
810.459	1214.18
810.642	1228.71
810.825	1179.11
811.008	1188.8
811.191	1143.85
811.374	1157.61
811.557	1142.11
811.74	1220.58
811.923	1129.51
812.106	1122.35
812.289	1105.1
812.472	1117.89
812.654	1117.31
812.837	1094.64
813.02	1089.6
813.203	1064.03
813.386	983.82
813.569	1002.8
813.751	972.39
813.934	1032.25
814.117	1002.22
814.3	945.26
814.482	970.06
814.665	924.92
814.848	936.35
815.03	891.59
815.213	884.81
815.396	869.12
815.578	866.02
815.761	837.92
815.943	902.44
816.126	823.59
816.309	806.54
816.491	774.76
816.674	728.65
816.856	794.53
817.039	766.24
817.221	849.74
817.403	776.31
817.586	803.44
817.768	833.08
817.951	739.5
818.133	720.71
818.315	768.56
818.498	785.81
818.68	864.08
818.862	779.03
819.045	866.02
819.227	812.54
819.409	821.84
819.591	797.24
819.774	823.2
819.956	777.48
820.138	838.89
820.32	824.36
820.502	874.16
820.684	887.14
820.866	891.4
821.048	915.42
821.231	928.02
821.413	916.97
821.595	881.71
821.777	916.59
821.959	882.87
822.141	947
822.323	850.91
822.505	828.82
822.686	835.6
822.868	763.91
823.05	716.25
823.232	737.95
823.414	674.6
823.596	722.64
823.778	721.09
823.96	705.21
824.141	713.73
824.323	736.01
824.505	775.73
824.687	814.09
824.868	787.16
825.05	882.68
825.232	869.51
825.413	976.26
825.595	911.94
825.777	857.88
825.958	883.65
826.14	876.87
826.321	893.92
826.503	845.09
826.685	894.69
826.866	889.65
827.048	915.23
827.229	839.86
827.411	824.56
827.592	791.62
827.773	809.06
827.955	797.63
828.136	794.14
828.318	772.63
828.499	822.04
828.68	767.79
828.862	808.09
829.043	806.15
829.224	806.54
829.406	766.63
829.587	780.38
829.768	795.3
829.949	802.66
830.131	783.48
830.312	852.26
830.493	799.76
830.674	808.09
830.855	823.97
831.036	806.15
831.218	815.26
831.399	844.9
831.58	801.11
831.761	773.79
831.942	801.69
832.123	799.76
832.304	743.76
832.485	770.11
832.666	787.94
832.847	792.39
833.028	806.54
833.209	807.31
833.389	789.49
833.57	749.38
833.751	786
833.932	818.55
834.113	797.24
834.294	801.5
834.475	819.91
834.655	845.48
834.836	858.46
835.017	794.72
835.198	751.71
835.378	797.24
835.559	860.4
835.74	808.09
835.92	804.79
836.101	785.03
836.281	819.52
836.462	803.24
836.643	847.03
836.823	836.57
837.004	861.17
837.184	891.01
837.365	840.44
837.545	852.84
837.726	805.76
837.906	854.2
838.087	852.46
838.267	838.7
838.448	787.74
838.628	843.93
838.808	803.05
838.989	887.14
839.169	795.3
839.349	875.12
839.53	852.46
839.71	891.2
839.89	811.38
840.07	889.65
840.251	796.66
840.431	845.29
840.611	852.26
840.791	793.75
840.971	847.42
841.151	817.19
841.332	805.76
841.512	879.58
841.692	770.5
841.872	848.97
842.052	802.66
842.232	848.39
842.412	790.84
842.592	820.49
842.772	842.19
842.952	840.06
843.132	833.86
843.312	830.56
843.492	793.17
843.672	829.98
843.851	729.23
844.031	827.46
844.211	791.81
844.391	797.04
844.571	799.76
844.751	821.84
844.93	788.13
845.11	810.22
845.29	817
845.47	809.64
845.649	798.21
845.829	851.68
846.009	788.13
846.188	820.87
846.368	795.3
846.547	789.88
846.727	838.31
846.907	765.85
847.086	792.01
847.266	834.05
847.445	784.45
847.625	792.59
847.804	783.87
847.984	768.76
848.163	752.09
848.343	787.55
848.522	816.42
848.701	831.14
848.881	760.81
849.06	758.49
849.239	804.79
849.419	814.09
849.598	739.5
849.777	792.01
849.957	748.99
850.136	714.89
850.315	712.96
850.494	691.26
850.674	696.1
850.853	777.48
851.032	722.26
851.211	749.96
851.39	753.45
851.569	690.87
851.748	710.25
851.927	749.77
852.107	734.27
852.286	669.17
852.465	713.93
852.644	757.71
852.823	734.85
853.002	695.91
853.181	742.6
853.359	759.46
853.538	684.86
853.717	749.58
853.896	690.29
854.075	651.35
854.254	639.14
854.433	638.75
854.611	658.71
854.79	633.52
854.969	649.21
855.148	647.66
855.327	639.14
855.505	646.5
855.684	628.48
855.863	672.66
856.041	614.34
856.22	662.39
856.399	675.37
856.577	723.03
856.756	687.38
856.934	807.12
857.113	786.39
857.291	708.7
857.47	674.98
857.648	689.9
857.827	691.26
858.005	764.11
858.184	663.16
858.362	763.53
858.541	715.86
858.719	687
858.898	665.49
859.076	683.9
859.254	764.88
859.433	672.08
859.611	673.43
859.789	668.4
859.967	719.35
860.146	761.39
860.324	654.25
860.502	693.58
860.68	638.95
860.859	641.85
861.037	659.48
861.215	693.78
861.393	679.83
861.571	680.21
861.749	673.63
861.927	696.88
862.105	689.13
862.283	679.63
862.461	638.95
862.639	637.78
862.817	674.01
862.995	673.05
863.173	641.08
863.351	656.19
863.529	672.46
863.707	699.59
863.885	672.08
864.063	599.23
864.241	631.2
864.418	686.22
864.596	627.13
864.774	616.67
864.952	637.2
865.129	646.31
865.307	630.23
865.485	598.26
865.663	658.51
865.84	617.44
866.018	629.06
866.196	525.02
866.373	578.88
866.551	542.46
866.728	502.16
866.906	541.49
867.084	571.13
867.261	579.08
867.439	590.51
867.616	642.63
867.794	579.08
867.971	601.94
868.149	589.73
868.326	616.86
868.503	622.87
868.681	591.67
868.858	575.01
869.035	556.02
869.213	628.29
869.39	586.63
869.567	648.25
869.745	570.17
869.922	590.12
870.099	621.12
870.276	615.31
870.454	615.7
870.631	616.67
870.808	561.45
870.985	610.08
871.162	660.65
871.339	587.02
871.517	563.77
871.694	583.34
871.871	611.05
872.048	588.96
872.225	565.32
872.402	594.19
872.579	550.4
872.756	566.29
872.933	529.29
873.11	566.48
873.287	574.82
873.463	562.8
873.64	544.59
873.817	560.48
873.994	554.28
874.171	553.7
874.348	575.59
874.524	510.69
874.701	560.87
874.878	494.02
875.055	557.18
875.231	543.04
875.408	591.28
875.585	523.09
875.762	547.69
875.938	539.55
876.115	524.25
876.291	558.73
876.468	515.72
876.645	491.31
876.821	527.35
876.998	530.45
877.174	560.48
877.351	540.91
877.527	511.46
877.704	553.5
877.88	543.04
878.057	517.66
878.233	566.68
878.409	527.74
878.586	566.1
878.762	516.11
878.938	522.5
879.115	464.38
879.291	510.1
879.467	451.21
879.644	498.87
879.82	511.85
879.996	493.83
880.172	459.54
880.349	493.64
880.525	518.63
880.701	469.42
880.877	477.55
881.053	525.41
881.229	490.73
881.405	551.95
881.581	477.55
881.757	502.55
881.933	505.84
882.109	560.48
882.285	488.6
882.461	464.77
882.637	514.95
882.813	462.64
882.989	483.17
883.165	527.74
883.341	458.18
883.517	519.4
883.693	511.46
883.869	510.49
884.044	470
884.22	504.68
884.396	543.82
884.572	497.51
884.747	548.66
884.923	513.79
885.099	514.75
885.275	529.87
885.45	486.66
885.626	493.64
885.801	475.62
885.977	492.28
886.153	449.66
886.328	504.29
886.504	441.32
886.679	511.65
886.855	461.86
887.03	524.05
887.206	521.15
887.381	497.51
887.557	500.42
887.732	520.57
887.908	506.04
888.083	553.31
888.258	481.43
888.434	505.07
888.609	498.67
888.784	536.26
888.96	493.25
889.135	455.66
889.31	449.66
889.485	488.6
889.661	454.3
889.836	529.67
890.011	501
890.186	481.82
890.361	476.59
890.537	513.98
890.712	475.04
890.887	482.79
891.062	492.09
891.237	546.92
891.412	445.01
891.587	489.76
891.762	487.24
891.937	509.52
892.112	441.91
892.287	464.57
892.462	456.63
892.637	414.59
892.812	457.6
892.987	451.59
893.161	424.27
893.336	445.78
893.511	471.16
893.686	454.5
893.861	453.14
894.035	422.14
894.21	457.02
894.385	383.2
894.56	428.15
894.734	397.34
894.909	395.21
895.084	421.95
895.258	392.11
895.433	434.16
895.608	411.68
895.782	368.86
895.957	371.96
896.131	392.89
896.306	313.45
896.48	366.92
896.655	377.58
896.829	300.47
897.004	313.64
897.178	316.55
897.353	325.85
897.527	376.03
897.701	330.31
897.876	304.93
898.05	331.28
898.224	321.2
898.399	359.95
898.573	335.34
898.747	266.37
898.921	340.77
899.096	262.69
899.27	247.19
899.444	233.24
899.618	277.22
899.792	286.33
899.967	273.54
900.141	298.92
900.315	225.68
900.489	271.99
900.663	277.8
900.837	301.05
901.011	270.83
901.185	328.95
901.359	279.16
901.533	284.78
901.707	284.97
901.881	273.15
902.055	219.29
902.229	252.42
902.403	304.54
902.576	267.73
902.75	298.73
902.924	397.15
903.098	313.84
903.272	340.58
903.446	349.88
903.619	334.18
903.793	369.83
903.967	316.36
904.14	390.17
904.314	381.46
904.488	340.19
904.661	355.69
904.835	367.89
905.009	394.63
905.182	421.17
905.356	360.14
905.529	355.69
905.703	323.91
905.876	331.08
906.05	293.88
906.223	319.07
906.397	268.7
906.57	291.75
906.744	271.41
906.917	279.93
907.09	268.31
907.264	283.81
907.437	261.53
907.61	222
907.784	256.88
907.957	256.1
908.13	255.13
908.304	275.48
908.477	247
908.65	238.47
908.823	206.11
908.996	302.41
909.17	250.48
909.343	254.16
909.516	250.87
909.689	248.16
909.862	244.86
910.035	266.95
910.208	221.03
910.381	222
910.554	290.78
910.727	255.91
910.9	228.98
911.073	249.71
911.246	296.79
911.419	270.44
911.592	270.05
911.765	222.97
911.938	229.75
912.11	250.1
912.283	237.11
912.456	288.07
912.629	243.9
912.802	259.01
912.974	227.62
913.147	192.36
913.32	130.75
913.493	180.35
913.665	200.5
913.838	207.28
914.01	218.32
914.183	223.36
914.356	179.38
914.528	234.21
914.701	264.43
914.873	234.98
915.046	197.59
915.218	197.01
915.391	158.45
915.563	164.65
915.736	235.37
915.908	219.29
916.081	204.56
916.253	195.26
916.425	194.68
916.598	233.63
916.77	219.1
916.942	186.93
917.115	136.56
917.287	228.01
917.459	212.12
917.632	202.24
917.804	153.61
917.976	172.21
918.148	198.95
918.32	191.2
918.493	216
918.665	256.88
918.837	197.98
919.009	253.58
919.181	227.81
919.353	233.05
919.525	224.52
919.697	212.51
919.869	222.2
920.041	252.61
920.213	318.49
920.385	255.13
920.557	243.31
920.729	233.82
920.901	230.14
921.073	200.5
921.244	207.86
921.416	251.84
921.588	225.68
921.76	204.37
921.932	269.28
922.103	217.55
922.275	229.56
922.447	238.66
922.619	183.25
922.79	215.22
922.962	173.37
923.134	200.69
923.305	189.26
923.477	177.44
923.648	195.46
923.82	206.11
923.991	156.52
924.163	157.48
924.335	200.5
924.506	185.97
924.677	225.49
924.849	162.33
925.02	209.41
925.192	178.02
925.363	183.83
925.535	198.95
925.706	178.02
925.877	211.35
926.049	171.05
926.22	203.98
926.391	189.07
926.562	212.51
926.734	169.3
926.905	209.8
927.076	153.22
927.247	153.03
927.419	149.15
927.59	127.07
927.761	145.08
927.932	149.35
928.103	158.45
928.274	130.36
928.445	118.15
928.616	165.43
928.787	130.94
928.958	187.13
929.129	156.52
929.3	129.97
929.471	105.56
929.642	69.14
929.813	55.57
929.984	145.08
930.155	44.53
930.326	100.52
930.496	84.44
930.667	46.85
930.838	93.55
931.009	35.81
931.18	82.5
931.35	59.25
931.521	72.82
931.692	47.24
931.863	17.6
932.033	84.64
932.204	61.58
932.374	49.37
932.545	37.94
932.716	58.67
932.886	81.54
933.057	30.19
933.227	27.48
933.398	78.63
933.568	42.79
933.739	5.2
933.909	37.17
934.08	67.59
934.25	5.39
934.421	-8.36
934.591	15.27
934.761	-10.49
934.932	-27.74
935.102	20.89
935.272	13.53
935.443	10.24
935.613	22.05
935.783	43.75
935.953	-2.55
936.123	146.25
936.294	-15.53
936.464	2.29
936.634	39.69
936.804	-18.05
936.974	-25.61
937.144	39.49
937.314	4.62
937.484	13.92
937.655	-35.1
937.825	62.55
937.995	-29.48
938.165	49.18
938.334	27.29
938.504	37.36
938.674	-11.85
938.844	10.43
939.014	44.34
939.184	30
939.354	44.34
939.524	54.02
939.694	5.59
939.863	-1.19
940.033	79.6
940.203	64.29
940.373	61.77
940.542	72.04
940.712	38.52
940.882	44.53
941.051	81.34
941.221	47.44
941.391	79.02
941.56	28.25
941.73	23.02
941.899	120.87
942.069	23.41
942.238	60.8
942.408	21.67
942.577	79.4
942.747	28.84
942.916	1.71
943.086	13.53
943.255	77.27
943.425	43.17
943.594	32.52
943.763	-24.25
943.933	-9.72
944.102	-15.53
944.271	16.24
944.441	15.08
944.61	15.47
944.779	39.69
944.948	105.95
945.117	-16.11
945.287	37.36
945.456	-10.69
945.625	22.64
945.794	48.4
945.963	1.52
946.132	46.27
946.301	39.1
946.47	25.54
946.639	-21.73
946.808	31.55
946.977	57.9
947.146	59.06
947.315	2.1
947.484	43.17
947.653	20.12
947.822	-9.91
947.991	6.17
948.16	92.77
948.329	56.35
948.498	15.85
948.666	46.08
948.835	57.7
949.004	-26.19
949.173	8.3
949.341	29.61
949.51	34.84
949.679	46.47
949.847	32.71
950.016	85.41
950.185	65.26
950.353	4.23
950.522	6.94
950.69	58.87
950.859	-19.79
951.028	65.65
951.196	48.99
951.365	20.12
951.533	44.34
951.701	50.34
951.87	51.89
952.038	-12.63
952.207	19.15
952.375	86.38
952.543	27.87
952.712	39.1
952.88	3.07
953.048	65.45
953.217	39.88
953.385	32.9
953.553	60.22
953.721	-7.39
953.89	32.9
954.058	-27.16
954.226	-0.81
954.394	41.04
954.562	-29.68
954.73	49.57
954.898	24.77
955.067	45.5
955.235	37.36
955.403	62.74
955.571	111.76
955.739	40.07
955.907	5.01
956.075	12.95
956.243	20.5
956.41	50.34
956.578	-6.43
956.746	-9.53
956.914	14.89
957.082	37.75
957.25	33.29
957.418	13.72
957.585	36.97
957.753	43.37
957.921	13.72
958.089	52.09
958.256	51.12
958.424	50.54
958.592	43.56
958.759	-0.23
958.927	38.72
959.095	0.55
959.262	10.24
959.43	50.92
959.597	-5.26
959.765	55.57
959.932	-18.63
960.1	36.97
960.267	30.39
960.435	29.42
960.602	44.14
960.77	2.1
960.937	-17.47
961.104	35.04
961.272	-9.91
961.439	13.72
961.606	28.45
961.774	49.37
961.941	23.41
962.108	46.66
962.275	52.86
962.443	68.55
962.61	53.44
962.777	92.39
962.944	61
963.111	56.15
963.278	46.27
963.446	59.06
963.613	34.45
963.78	59.45
963.947	58.29
964.114	23.8
964.281	70.49
964.448	67.97
964.615	32.71
964.782	56.54
964.949	77.66
965.116	40.65
965.282	72.24
965.449	47.05
965.616	12.17
965.783	73.79
965.95	47.82
966.117	4.23
966.283	32.9
966.45	32.32
966.617	41.82
966.784	71.46
966.95	55.19
967.117	64.1
967.284	-23.86
967.45	41.24
967.617	65.65
967.784	72.04
967.95	103.82
968.117	16.05
968.283	80.76
968.45	121.83
968.616	78.05
968.783	91.42
968.949	52.28
969.116	83.47
969.282	46.08
969.449	58.67
969.615	43.95
969.781	18.95
969.948	15.08
970.114	12.95
970.28	107.5
970.447	22.44
970.613	64.87
970.779	43.37
970.945	74.95
971.112	72.62
971.278	56.74
971.444	54.22
971.61	70.49
971.776	55.19
971.942	69.33
972.108	64.68
972.275	45.5
972.441	65.45
972.607	94.52
972.773	24.57
972.939	51.7
973.105	51.12
973.271	24.96
973.437	42.4
973.602	15.08
973.768	48.99
973.934	50.73
974.1	61.39
974.266	-22.31
974.432	50.73
974.598	25.54
974.763	62.94
974.929	32.9
975.095	63.52
975.261	28.25
975.426	-8.36
975.592	9.85
975.758	89.67
975.923	2.87
976.089	45.11
976.255	76.89
976.42	52.86
976.586	51.5
976.751	75.72
976.917	119.9
977.082	83.09
977.248	16.44
977.413	-34.71
977.579	36
977.744	36.39
977.91	24.96
978.075	27.29
978.24	61.97
978.406	50.15
978.571	21.86
978.736	31.55
978.902	53.44
979.067	6.56
979.232	-14.37
979.397	29.42
979.563	93.16
979.728	2.49
979.893	52.09
980.058	25.74
980.223	59.25
980.388	38.52
980.554	65.26
980.719	18.57
980.884	8.69
981.049	66.04
981.214	18.18
981.379	47.24
981.544	16.44
981.709	31.35
981.874	31.55
982.039	28.84
982.204	94.71
982.368	18.18
982.533	13.53
982.698	61.97
982.863	77.85
983.028	2.49
983.193	48.4
983.357	51.12
983.522	41.04
983.687	38.52
983.852	18.95
984.016	38.52
984.181	25.35
984.346	30.77
984.51	62.55
984.675	15.66
984.839	75.72
985.004	15.47
985.168	90.84
985.333	59.84
985.498	34.45
985.662	81.15
985.827	62.74
985.991	51.89
986.155	29.03
986.32	61.58
986.484	111.37
986.649	64.68
986.813	-22.7
986.977	35.04
987.142	71.65
987.306	2.29
987.47	21.86
987.634	63.9
987.799	46.66
987.963	57.32
988.127	98.2
988.291	94.32
988.455	48.6
988.62	32.52
988.784	41.24
988.948	85.02
989.112	30.39
989.276	49.37
989.44	34.45
989.604	13.72
989.768	23.99
989.932	140.82
990.096	23.6
990.26	19.92
990.424	15.47
990.588	21.09
990.752	81.54
990.915	70.1
991.079	17.99
991.243	23.02
991.407	38.72
991.571	17.79
991.734	59.25
991.898	67.59
992.062	115.44
992.226	44.53
992.389	5.2
992.553	-14.18
992.717	21.67
992.88	30.39
993.044	27.87
993.207	21.09
993.371	50.34
993.535	44.14
993.698	42.98
993.862	85.22
994.025	73.98
994.189	17.02
994.352	35.42
994.515	31.55
994.679	63.71
994.842	26.9
995.006	81.15
995.169	20.5
995.332	33.29
995.496	61.58
995.659	-1
995.822	48.21
995.985	40.07
996.149	82.5
996.312	35.42
996.475	92.77
996.638	-0.42
996.801	97.62
996.964	72.82
997.128	15.66
997.291	24.77
997.454	62.55
997.617	-13.01
997.78	74.56
997.943	13.14
998.106	64.68
998.269	2.29
998.432	8.3
998.595	48.21
998.758	-7.01
998.92	33.68
999.083	-0.03
999.246	18.95
999.409	-28.71
999.572	-20.96
999.735	22.83
999.897	31.16
1000.06	31.16
1000.223	27.67
1000.386	68.94
1000.548	55.77
1000.711	10.43
1000.874	54.41
1001.036	-16.31
1001.199	59.45
1001.361	17.02
1001.524	30.97
1001.687	57.32
1001.849	20.89
1002.012	51.12
1002.174	32.9
1002.337	63.71
1002.499	41.04
1002.661	54.99
1002.824	21.47
1002.986	26.51
1003.149	35.42
1003.311	12.56
1003.473	77.47
1003.636	8.88
1003.798	42.98
1003.96	28.25
1004.123	48.79
1004.285	22.44
1004.447	24.38
1004.609	33.49
1004.771	57.32
1004.933	-13.98
1005.096	-14.56
1005.258	-34.13
1005.42	25.74
1005.582	66.04
1005.744	43.56
1005.906	-2.36
1006.068	33.49
1006.23	8.69
1006.392	-4.49
1006.554	-20.96
1006.716	44.53
1006.878	41.62
1007.04	23.22
1007.202	-17.47
1007.363	27.09
1007.525	19.54
1007.687	51.31
1007.849	49.37
1008.011	-19.21
1008.172	-13.21
1008.334	16.82
1008.496	35.04
1008.658	-40.14
1008.819	8.3
1008.981	-25.22
1009.143	0.94
1009.304	4.23
1009.466	28.25
1009.627	35.04
1009.789	98.2
1009.95	39.1
1010.112	-0.81
1010.273	25.93
1010.435	14.5
1010.596	8.69
1010.758	24.96
1010.919	1.91
1011.081	4.62
1011.242	19.34
1011.403	34.45
1011.565	23.02
1011.726	46.47
1011.887	-17.28
1012.049	20.7
1012.21	25.93
1012.371	67.59
1012.532	-55.44
1012.693	36.97
1012.855	-22.51
1013.016	35.42
1013.177	50.15
1013.338	12.37
1013.499	66.81
1013.66	29.8
1013.821	25.54
1013.982	49.18
1014.143	25.15
1014.304	7.33
1014.465	28.25
1014.626	36.39
1014.787	-1.97
1014.948	102.46
1015.109	-14.76
1015.27	45.5
1015.431	3.07
1015.592	-11.85
1015.752	48.21
1015.913	13.72
1016.074	17.79
1016.235	3.46
1016.395	-0.03
1016.556	13.92
1016.717	-10.69
1016.877	57.9
1017.038	12.95
1017.199	31.35
1017.359	30.77
1017.52	13.92
1017.681	-1.78
1017.841	-6.04
1018.002	-3.33
1018.162	27.67
1018.323	69.52
1018.483	5.78
1018.644	-1
1018.804	-24.83
1018.964	-50.41
1019.125	-12.04
1019.285	32.71
1019.446	1.52
1019.606	5.39
1019.766	-24.83
1019.926	16.63
1020.087	17.6
1020.247	-20.57
1020.407	36.78
1020.567	49.95
1020.728	10.04
1020.888	-22.7
1021.048	-6.23
1021.208	-10.11
1021.368	-2.16
1021.528	63.13
1021.688	41.62
1021.848	21.47
1022.008	19.34
1022.168	-7.98
1022.328	18.18
1022.488	40.46
1022.648	10.82
1022.808	21.67
1022.968	9.07
1023.128	-18.05
1023.288	-6.23
1023.448	8.3
1023.608	61.58
1023.767	23.41
1023.927	-12.63
1024.087	-22.12
1024.247	-1
1024.406	-12.82
1024.566	-13.79
1024.726	21.09
1024.885	5.97
1025.045	38.52
1025.205	9.66
1025.364	9.85
1025.524	18.37
1025.683	27.29
1025.843	18.95
1026.003	0.74
1026.162	54.22
1026.321	26.9
1026.481	7.91
1026.64	-6.62
1026.8	28.06
1026.959	23.02
1027.119	25.15
1027.278	-12.43
1027.437	-17.28
1027.597	27.29
1027.756	4.81
1027.915	20.89
1028.074	51.12
1028.234	-28.13
1028.393	11.59
1028.552	-10.3
1028.711	-81.02
1028.87	37.36
1029.03	-9.14
1029.189	-2.36
1029.348	-36.84
1029.507	12.76
1029.666	-5.46
1029.825	-15.53
1029.984	-28.32
1030.143	18.37
1030.302	-18.44
1030.461	-40.91
1030.62	36.2
1030.779	29.42
1030.938	19.54
1031.097	-37.23
1031.255	18.57
1031.414	50.73
1031.573	40.27
1031.732	-41.3
1031.891	7.14
1032.049	45.69
1032.208	6.17
1032.367	-25.99
1032.525	1.32
1032.684	1.32
1032.843	11.59
1033.001	-44.59
1033.16	148.18
1033.319	68.36
1033.477	9.85
1033.636	27.09
1033.794	-32.97
1033.953	23.99
1034.111	40.46
1034.27	3.07
1034.428	37.36
1034.587	-19.79
1034.745	19.15
1034.903	4.62
1035.062	47.44
1035.22	-50.79
1035.378	45.69
1035.537	-7.98
1035.695	43.75
1035.853	0.36
1036.011	5.01
1036.17	25.93
1036.328	-36.65
1036.486	9.66
1036.644	21.47
1036.802	-58.16
1036.96	-34.52
1037.119	-5.46
1037.277	-8.94
1037.435	-23.28
1037.593	-43.04
1037.751	-16.89
1037.909	20.12
1038.067	20.12
