Data from oakcork_FLMT105791__22__17-26-57-066.txt Node

Date: Mon Mar 20 17:26:57 GMT 2023
User: antho
Spectrometer: FLMT10579
Trigger mode: 0
Integration Time (sec): 1.000000E-1
Scans to average: 10
Electric dark correction enabled: true
Nonlinearity correction enabled: false
Boxcar width: 0
XAxis mode: Wavelengths
Number of Pixels in Spectrum: 3648
>>>>>Begin Spectral Data<<<<<
345.248	-165.93
345.464	-165.93
345.681	-165.93
345.898	-167.67
346.114	-151.4
346.331	-17.52
346.548	17.55
346.764	-20.04
346.981	4.57
347.197	-21.97
347.414	30.14
347.631	-23.33
347.847	70.83
348.064	3.6
348.28	17.36
348.497	-51.42
348.713	-9.77
348.93	37.89
349.146	19.88
349.363	-12.48
349.579	3.6
349.796	-3.37
350.012	-25.66
350.229	41.19
350.445	-0.08
350.661	-35.73
350.878	-1.63
351.094	40.8
351.311	-6.09
351.527	26.46
351.743	-12.67
351.96	3.6
352.176	28.98
352.392	15.23
352.609	32.08
352.825	-19.84
353.041	21.04
353.257	-22.17
353.474	24.33
353.69	42.35
353.906	3.99
354.122	-23.52
354.339	72.77
354.555	19.1
354.771	-14.22
354.987	59.79
355.203	57.66
355.42	3.21
355.636	2.24
355.852	-17.52
356.068	16.58
356.284	-22.94
356.5	52.04
356.716	13.68
356.932	6.12
357.148	43.51
357.364	-19.07
357.58	46.61
357.796	45.06
358.012	29.95
358.228	24.91
358.444	-52.59
358.66	59.59
358.876	39.83
359.092	-30.31
359.308	20.26
359.524	36.15
359.74	-14.81
359.956	15.03
360.172	26.85
360.388	46.81
360.604	-23.52
360.819	92.14
361.035	37.31
361.251	25.49
361.467	6.51
361.683	34.99
361.898	31.89
362.114	36.73
362.33	16.19
362.546	38.86
362.762	-7.83
362.977	-0.27
363.193	-24.3
363.409	59.21
363.624	-15.97
363.84	6.89
364.056	-25.27
364.271	42.93
364.487	21.04
364.703	-6.67
364.918	-23.91
365.134	-13.84
365.35	44.09
365.565	104.93
365.781	25.11
365.996	12.71
366.212	59.01
366.427	19.88
366.643	-6.28
366.858	-12.29
367.074	-13.26
367.289	61.34
367.505	88.46
367.72	-16.74
367.936	-5.31
368.151	50.49
368.367	37.89
368.582	19.29
368.798	-0.27
369.013	35.76
369.228	30.14
369.444	4.38
369.659	63.47
369.874	41.19
370.09	68.7
370.305	-32.63
370.52	2.24
370.736	68.7
370.951	-3.57
371.166	72.77
371.381	87.69
371.597	45.06
371.812	-35.73
372.027	0.31
372.242	36.92
372.458	102.8
372.673	20.65
372.888	2.44
373.103	24.91
373.318	115.01
373.533	38.09
373.749	40.99
373.964	-13.84
374.179	56.3
374.394	-1.63
374.609	75.48
374.824	-10.35
375.039	55.52
375.254	-8.22
375.469	82.65
375.684	28.4
375.899	83.04
376.114	17.16
376.329	6.89
376.544	57.46
376.759	70.06
376.974	-0.66
377.189	-4.34
377.404	17.36
377.619	76.06
377.834	-3.37
378.049	10.77
378.264	-8.8
378.478	29.76
378.693	-0.47
378.908	54.36
379.123	57.07
379.338	77.03
379.553	32.66
379.767	42.93
379.982	48.55
380.197	38.86
380.412	40.8
380.626	29.76
380.841	97.37
381.056	69.67
381.271	79.55
381.485	16.97
381.7	2.24
381.915	48.74
382.129	22.98
382.344	52.42
382.559	14.64
382.773	58.62
382.988	10.58
383.202	43.32
383.417	-10.35
383.632	106.29
383.846	40.61
384.061	45.06
384.275	0.11
384.49	39.06
384.704	49.91
384.919	38.86
385.133	45.64
385.348	64.24
385.562	3.99
385.777	83.23
385.991	35.57
386.206	25.11
386.42	18.71
386.634	60.76
386.849	80.52
387.063	51.84
387.277	-16.55
387.492	17.16
387.706	-9.19
387.92	21.81
388.135	72.96
388.349	55.52
388.563	22.59
388.778	26.85
388.992	53.2
389.206	70.25
389.42	81.68
389.635	56.3
389.849	71.41
390.063	81.1
390.277	56.69
390.491	96.99
390.706	53.2
390.92	90.98
391.134	24.72
391.348	82.26
391.562	16.39
391.776	42.54
391.99	42.54
392.205	66.57
392.419	19.68
392.633	42.35
392.847	107.84
393.061	19.1
393.275	111.32
393.489	44.67
393.703	42.74
393.917	64.05
394.131	25.88
394.345	59.01
394.559	71.02
394.773	42.16
394.986	63.66
395.2	37.7
395.414	81.87
395.628	8.06
395.842	70.83
396.056	54.75
396.27	9.22
396.484	53.2
396.697	82.84
396.911	90.59
397.125	62.11
397.339	96.79
397.553	57.66
397.766	131.67
397.98	85.36
398.194	94.27
398.408	67.15
398.621	86.14
398.835	118.11
399.049	80.32
399.262	126.44
399.476	119.46
399.69	97.76
399.903	160.92
400.117	86.72
400.331	110.74
400.544	73.93
400.758	205.1
400.971	97.37
401.185	115.39
401.398	54.94
401.612	139.22
401.826	88.85
402.039	145.04
402.253	89.24
402.466	123.14
402.68	99.12
402.893	103.38
403.106	101.83
403.32	85.75
403.533	114.23
403.747	75.67
403.96	131.86
404.174	136.7
404.387	71.02
404.6	120.24
404.814	135.93
405.027	94.08
405.24	123.14
405.454	86.72
405.667	157.24
405.88	34.99
406.094	130.89
406.307	140.77
406.52	129.73
406.733	85.56
406.947	69.86
407.16	163.83
407.373	142.13
407.586	71.99
407.799	82.65
408.012	144.07
408.226	144.26
408.439	166.54
408.652	69.47
408.865	148.14
409.078	133.41
409.291	116.75
409.504	69.09
409.717	142.9
409.93	101.06
410.143	136.51
410.357	75.67
410.57	74.32
410.783	91.56
410.996	148.72
411.209	118.49
411.421	149.3
411.634	128.37
411.847	93.11
412.06	105.12
412.273	127.4
412.486	134.38
412.699	210.91
412.912	121.98
413.125	137.87
413.338	136.7
413.55	141.16
413.763	123.53
413.976	164.8
414.189	103.57
414.402	112.29
414.615	183.59
414.827	83.42
415.04	160.34
415.253	141.16
415.466	167.12
415.678	192.12
415.891	139.22
416.104	119.46
416.316	142.13
416.529	113.84
416.742	170.22
416.954	173.13
417.167	159.57
417.38	117.14
417.592	174.87
417.805	132.25
418.017	102.61
418.23	158.4
418.442	121.4
418.655	135.15
418.868	140
419.08	179.14
419.293	168.09
419.505	135.74
419.718	155.89
419.93	187.85
420.142	162.09
420.355	194.25
420.567	202.39
420.78	163.64
420.992	143.87
421.205	205.68
421.417	118.3
421.629	122.95
421.842	121.01
422.054	101.25
422.266	159.95
422.479	187.85
422.691	140.19
422.903	195.22
423.115	127.21
423.328	119.07
423.54	152.98
423.752	156.27
423.964	116.75
424.177	178.36
424.389	152.01
424.601	262.83
424.813	159.76
425.025	191.54
425.238	203.35
425.45	152.79
425.662	143.49
425.874	457.94
426.086	150.46
426.298	183.4
426.51	185.14
426.722	188.82
426.934	171.19
427.146	192.89
427.358	111.13
427.57	215.95
427.782	167.32
427.994	145.23
428.206	115.97
428.418	130.31
428.63	174.87
428.842	228.93
429.054	152.4
429.266	206.26
429.478	164.8
429.69	183.79
429.902	121.21
430.114	174.1
430.325	177.97
430.537	108.61
430.749	147.75
430.961	102.8
431.173	127.99
431.384	194.64
431.596	86.72
431.808	165.96
432.02	183.2
432.231	192.12
432.443	219.82
432.655	189.99
432.867	162.09
433.078	170.42
433.29	252.95
433.502	220.4
433.713	243.07
433.925	208.59
434.136	239
434.348	132.64
434.56	118.49
434.771	256.63
434.983	158.21
435.194	191.34
435.406	209.36
435.617	238.42
435.829	271.36
436.04	234.55
436.252	220.4
436.463	272.52
436.675	249.85
436.886	266.71
437.098	228.35
437.309	278.53
437.521	239.39
437.732	240.94
437.943	209.55
438.155	244.82
438.366	194.05
438.578	309.91
438.789	227.57
439	243.85
439.211	192.89
439.423	226.6
439.634	260.12
439.845	272.91
440.057	228.73
440.268	252.76
440.479	228.54
440.69	246.95
440.902	200.25
441.113	251.21
441.324	218.08
441.535	253.34
441.746	284.53
441.957	220.6
442.168	223.89
442.38	228.15
442.591	267.48
442.802	233.77
443.013	210.91
443.224	241.52
443.435	252.57
443.646	259.15
443.857	270.97
444.068	241.33
444.279	250.82
444.49	330.84
444.701	266.9
444.912	359.32
445.123	316.89
445.334	295.38
445.545	262.25
445.756	236.68
445.967	228.15
446.178	246.95
446.388	301.58
446.599	309.14
446.81	314.37
447.021	255.67
447.232	299.26
447.443	333.16
447.653	283.57
447.864	318.25
448.075	285.5
448.286	299.84
448.496	310.5
448.707	314.37
448.918	282.4
449.129	375.01
449.339	254.31
449.55	320.57
449.761	276.78
449.971	356.03
450.182	284.73
450.393	332.58
450.603	280.47
450.814	331.61
451.024	301
451.235	365.13
451.446	357.38
451.656	359.9
451.867	279.3
452.077	306.04
452.288	375.98
452.498	350.8
452.709	291.51
452.919	334.52
453.13	282.98
453.34	344.01
453.55	245.4
453.761	334.33
453.971	332.2
454.182	342.85
454.392	325.41
454.602	402.53
454.813	353.7
455.023	341.88
455.233	285.7
455.444	313.6
455.654	256.83
455.864	308.36
456.075	346.73
456.285	306.23
456.495	345.56
456.705	357.96
456.916	352.15
457.126	388.19
457.336	352.93
457.546	283.76
457.756	298.1
457.967	373.46
458.177	306.23
458.387	324.25
458.597	319.21
458.807	332
459.017	320.96
459.227	315.73
459.437	320.96
459.647	348.66
459.857	355.64
460.068	318.44
460.278	400.59
460.488	339.75
460.698	400.2
460.908	338.98
461.117	325.61
461.327	334.52
461.537	372.3
461.747	357.77
461.957	363.2
462.167	456.78
462.377	381.21
462.587	363.58
462.797	379.08
463.007	354.48
463.216	387.22
463.426	392.06
463.636	366.88
463.846	332.97
464.056	367.26
464.265	373.46
464.475	357.38
464.685	373.08
464.895	387.22
465.104	345.76
465.314	371.33
465.524	374.05
465.733	313.4
465.943	437.01
466.153	432.94
466.362	408.92
466.572	383.73
466.782	384.51
466.991	390.13
467.201	455.81
467.41	345.95
467.62	419.77
467.829	367.46
468.039	431.2
468.249	401.94
468.458	402.33
468.668	427.91
468.877	426.74
469.086	437.21
469.296	428.29
469.505	373.08
469.715	472.47
469.924	428.1
470.134	429.46
470.343	445.54
470.552	393.61
470.762	413.57
470.971	383.15
471.18	414.15
471.39	420.54
471.599	407.18
471.808	443.41
472.018	405.63
472.227	479.25
472.436	452.32
472.645	430.62
472.855	418.61
473.064	494.56
473.273	485.84
473.482	475.57
473.691	508.89
473.901	488.36
474.11	461.81
474.319	503.86
474.528	476.54
474.737	519.94
474.946	491.65
475.155	490.29
475.364	512.38
475.573	495.72
475.783	491.07
475.992	490.29
476.201	532.14
476.41	495.91
476.619	474.21
476.828	481.77
477.037	455.03
477.245	459.88
477.454	554.81
477.663	497.27
477.872	492.04
478.081	566.24
478.29	489.91
478.499	599.37
478.708	499.01
478.917	609.25
479.125	531.56
479.334	555.39
479.543	520.71
479.752	574.96
479.961	562.56
480.169	596.66
480.378	544.54
480.587	665.44
480.796	595.3
481.004	580.39
481.213	583.49
481.422	608.09
481.63	569.92
481.839	614.68
482.048	626.89
482.256	598.4
482.465	604.22
482.674	629.99
482.882	658.85
483.091	700.32
483.299	650.91
483.508	649.55
483.716	637.15
483.925	653.23
484.134	613.71
484.342	607.7
484.551	665.63
484.759	659.24
484.967	674.93
485.176	669.51
485.384	677.65
485.593	676.48
485.801	655.17
486.01	629.02
486.218	599.57
486.426	555.97
486.635	576.9
486.843	585.81
487.051	622.04
487.26	582.52
487.468	660.4
487.676	653.82
487.885	621.27
488.093	659.24
488.301	682.1
488.509	682.49
488.717	705.55
488.926	668.93
489.134	658.47
489.342	702.83
489.55	643.94
489.758	682.1
489.967	696.63
490.175	797.58
490.383	682.88
490.591	780.33
490.799	676.48
491.007	765.03
491.215	733.06
491.423	746.23
491.631	744.3
491.839	724.92
492.047	778.4
492.255	667.77
492.463	675.13
492.671	713.88
492.879	735.19
493.087	748.36
493.295	752.82
493.503	750.69
493.711	784.4
493.919	811.14
494.127	771.03
494.334	826.64
494.542	711.94
494.75	776.85
494.958	758.83
495.166	796.03
495.374	791.18
495.581	797.58
495.789	786.73
495.997	813.85
496.205	757.47
496.412	782.08
496.62	787.5
496.828	809.78
497.035	781.88
497.243	810.56
497.451	774.71
497.658	790.21
497.866	822.18
498.074	840.98
498.281	790.21
498.489	875.66
498.696	802.42
498.904	779.75
499.112	799.51
499.319	877.01
499.527	798.35
499.734	832.84
499.942	764.64
500.149	787.11
500.357	812.69
500.564	748.95
500.771	816.76
500.979	754.18
501.186	779.75
501.394	808.81
501.601	795.06
501.808	838.46
502.016	791.96
502.223	816.37
502.43	818.11
502.638	799.51
502.845	777.43
503.052	857.64
503.26	826.06
503.467	902.59
503.674	795.06
503.881	846.21
504.089	896.39
504.296	893.29
504.503	773.16
504.71	822.38
504.917	782.46
505.125	843.11
505.332	831.87
505.539	868.88
505.746	907.82
505.953	871.01
506.16	895.42
506.367	913.63
506.574	940.76
506.781	928.55
506.988	881.47
507.195	890.38
507.402	879.92
507.609	913.44
507.816	862.87
508.023	875.08
508.23	883.79
508.437	837.88
508.644	910.72
508.851	929.13
509.058	916.34
509.265	911.89
509.472	922.35
509.679	982.61
509.885	878.37
510.092	904.14
510.299	946.76
510.506	907.24
510.713	905.88
510.92	918.09
511.126	923.9
511.333	978.34
511.54	962.26
511.746	998.3
511.953	953.16
512.16	1012.44
512.367	939.4
512.573	939.98
512.78	945.41
512.987	931.07
513.193	925.84
513.4	906.46
513.606	925.26
513.813	948.7
514.02	941.53
514.226	1024.26
514.433	989.97
514.639	926.22
514.846	935.72
515.052	927.58
515.259	951.22
515.465	975.05
515.672	949.47
515.878	1052.55
516.085	952.96
516.291	1015.35
516.497	961.87
516.704	917.51
516.91	930.1
517.117	846.79
517.323	839.81
517.529	883.79
517.736	902.01
517.942	910.53
518.148	899.1
518.354	922.74
518.561	935.72
518.767	933.78
518.973	982.99
519.179	989.19
519.386	915.18
519.592	941.34
519.798	956.26
520.004	1010.5
520.21	1002.37
520.417	1017.87
520.623	1057.2
520.829	1017.67
521.035	1019.22
521.241	1043.83
521.447	1044.41
521.653	1147.48
521.859	1044.6
522.065	1100.79
522.271	1163.57
522.477	1098.08
522.683	1146.52
522.889	1077.15
523.095	1093.23
523.301	1115.9
523.507	1046.93
523.713	1119.97
523.919	1056.81
524.125	1136.44
524.331	1100.6
524.537	1201.73
524.742	1166.67
524.948	1178.87
525.154	1167.83
525.36	1274
525.566	1194.18
525.772	1237.19
525.977	1133.53
526.183	1173.06
526.389	1185.85
526.595	1140.7
526.8	1125.59
527.006	1063.4
527.212	1047.12
527.417	1075.8
527.623	1053.9
527.829	1110.67
528.034	1131.98
528.24	1152.91
528.446	1118.23
528.651	1203.67
528.857	1197.08
529.062	1262.18
529.268	1223.05
529.473	1231.57
529.679	1218.98
529.884	1276.52
530.09	1264.31
530.295	1267.99
530.501	1277.88
530.706	1244.16
530.912	1222.46
531.117	1259.66
531.323	1271.68
531.528	1288.14
531.733	1283.69
531.939	1266.25
532.144	1298.03
532.35	1298.99
532.555	1303.64
532.76	1278.26
532.966	1297.25
533.171	1266.06
533.376	1243.2
533.581	1197.66
533.787	1244.75
533.992	1289.69
534.197	1339.1
534.402	1267.61
534.607	1257.73
534.813	1388.31
535.018	1282.53
535.223	1264.89
535.428	1294.15
535.633	1334.64
535.838	1347.43
536.043	1350.34
536.249	1416.02
536.454	1332.32
536.659	1341.04
536.864	1324.38
537.069	1321.28
537.274	1340.84
537.479	1341.04
537.684	1319.92
537.889	1294.15
538.094	1416.79
538.299	1316.43
538.504	1367.58
538.708	1362.54
538.913	1366.03
539.118	1319.73
539.323	1381.53
539.528	1315.85
539.733	1361.96
539.938	1390.06
540.142	1370.87
540.347	1333.48
540.552	1317.21
540.757	1304.81
540.962	1322.63
541.166	1283.11
541.371	1294.15
541.576	1326.31
541.781	1249.59
541.985	1340.84
542.19	1374.75
542.395	1390.25
542.599	1432.1
542.804	1392.38
543.008	1415.05
543.213	1341.23
543.418	1322.24
543.622	1376.69
543.827	1309.07
544.031	1410.79
544.236	1445.08
544.44	1405.56
544.645	1444.69
544.849	1400.32
545.054	1426.87
545.258	1449.92
545.463	1448.57
545.667	1354.02
545.872	1418.54
546.076	1422.41
546.281	1413.5
546.485	1363.12
546.689	1395.09
546.894	1445.85
547.098	1420.09
547.302	1373.59
547.507	1397.42
547.711	1424.74
547.915	1453.99
548.119	1378.43
548.324	1409.04
548.528	1473.95
548.732	1424.74
548.936	1450.5
549.141	1454.19
549.345	1390.25
549.549	1446.63
549.753	1435.2
549.957	1506.11
550.161	1495.07
550.366	1380.37
550.57	1373.2
550.774	1424.35
550.978	1416.79
551.182	1449.54
551.386	1396.45
551.59	1414.86
551.794	1428.61
551.998	1424.93
552.202	1407.11
552.406	1372.04
552.61	1457.09
552.814	1445.66
553.018	1464.65
553.222	1392.57
553.426	1430.36
553.63	1508.24
553.833	1436.94
554.037	1365.26
554.241	1464.84
554.445	1441.2
554.649	1443.92
554.853	1414.66
555.056	1463.68
555.26	1461.55
555.464	1436.94
555.668	1445.85
555.871	1455.15
556.075	1466.78
556.279	1425.32
556.483	1348.01
556.686	1383.86
556.89	1405.56
557.094	1423.38
557.297	1352.66
557.501	1462.13
557.704	1363.12
557.908	1432.49
558.112	1350.72
558.315	1441.4
558.519	1398.97
558.722	1358.28
558.926	1368.74
559.129	1316.43
559.333	1303.45
559.536	1321.08
559.74	1330.58
559.943	1327.09
560.147	1283.88
560.35	1303.45
560.553	1319.53
560.757	1272.64
560.96	1394.12
561.164	1330.77
561.367	1433.84
561.57	1339.1
561.774	1358.86
561.977	1317.59
562.18	1317.01
562.384	1383.47
562.587	1340.26
562.79	1325.34
562.993	1318.18
563.197	1353.44
563.4	1386.76
563.603	1393.93
563.806	1394.12
564.009	1328.06
564.212	1328.25
564.416	1245.13
564.619	1353.63
564.822	1268.77
565.025	1322.83
565.228	1314.88
565.431	1334.26
565.634	1205.22
565.837	1284.27
566.04	1238.55
566.243	1249.98
566.446	1186.62
566.649	1264.51
566.852	1195.73
567.055	1257.73
567.258	1279.43
567.461	1312.36
567.664	1338.13
567.867	1224.79
568.07	1268.96
568.273	1277.68
568.475	1270.13
568.678	1208.13
568.881	1252.69
569.084	1233.51
569.287	1149.23
569.489	1192.24
569.692	1247.85
569.895	1232.73
570.098	1176.35
570.3	1175
570.503	1125.78
570.706	1126.37
570.909	1158.33
571.111	1135.86
571.314	1107.96
571.516	1125.98
571.719	1175.96
571.922	1130.82
572.124	1125.59
572.327	1124.62
572.529	1090.52
572.732	1119.97
572.935	1160.27
573.137	1185.85
573.34	1122.1
573.542	1152.72
573.745	1180.81
573.947	1149.81
574.15	1119.2
574.352	1103.89
574.554	1169.57
574.757	1097.11
574.959	1114.93
575.162	1095.17
575.364	1075.8
575.566	1214.52
575.769	1050.03
575.971	1099.63
576.173	998.88
576.376	1073.86
576.578	1098.66
576.78	1158.14
576.982	1015.74
577.185	1055.45
577.387	1040.92
577.589	1074.25
577.791	1085.68
577.993	1097.3
578.196	1054.49
578.398	1088.39
578.6	1085.29
578.802	1033.75
579.004	1004.5
579.206	1035.11
579.408	1061.65
579.61	1005.27
579.812	1076.96
580.014	1018.45
580.216	1034.14
580.418	1019.8
580.62	1012.05
580.822	979.89
581.024	1033.75
581.226	1102.53
581.428	1039.76
581.63	1130.63
581.832	1026.78
582.034	1099.43
582.236	1061.07
582.438	1107.38
582.64	1118.03
582.841	1118.03
583.043	1161.05
583.245	1119
583.447	1098.85
583.649	1060.88
583.85	1094.4
584.052	1148.65
584.254	1052.16
584.456	1097.69
584.657	1042.67
584.859	1067.85
585.061	1049.64
585.262	1068.82
585.464	1004.89
585.666	1075.22
585.867	1026.39
586.069	1100.98
586.27	1070.57
586.472	1050.22
586.674	1036.08
586.875	1032.01
587.077	1014.19
587.278	1060.69
587.48	1046.54
587.681	1127.92
587.883	1043.83
588.084	951.99
588.285	1000.82
588.487	979.12
588.688	999.65
588.89	954.32
589.091	909.37
589.292	929.13
589.494	933.2
589.695	878.76
589.896	830.71
590.098	846.4
590.299	912.86
590.5	878.95
590.702	919.64
590.903	908.21
591.104	979.51
591.305	930.29
591.507	997.14
591.708	992.29
591.909	915.18
592.11	1019.8
592.311	981.83
592.512	954.12
592.714	889.41
592.915	927
593.116	887.86
593.317	924.67
593.518	941.34
593.719	939.01
593.92	972.14
594.121	1023.49
594.322	954.9
594.523	963.04
594.724	913.82
594.925	940.37
595.126	914.99
595.327	952.96
595.528	960.13
595.729	937.66
595.929	947.34
596.13	934.75
596.331	963.04
596.532	931.84
596.733	993.65
596.934	964.78
597.135	969.43
597.335	931.84
597.536	910.34
597.737	932.04
597.938	918.86
598.138	957.22
598.339	952.77
598.54	958.77
598.74	924.67
598.941	924.87
599.142	990.16
599.342	937.27
599.543	901.43
599.744	904.91
599.944	933.97
600.145	941.14
600.345	946.57
600.546	997.72
600.746	967.11
600.947	1007.21
601.147	940.17
601.348	986.48
601.548	934.36
601.749	906.66
601.949	882.63
602.15	899.68
602.35	924.48
602.551	959.16
602.751	889.22
602.951	928.55
603.152	834.78
603.352	931.26
603.552	902.2
603.753	982.22
603.953	981.83
604.153	923.12
604.354	940.76
604.554	885.73
604.754	922.93
604.954	899.68
605.155	939.01
605.355	886.12
605.555	964.39
605.755	987.45
605.955	952.96
606.155	963.23
606.356	920.02
606.556	912.86
606.756	921.57
606.956	880.69
607.156	978.92
607.356	908.21
607.556	932.81
607.756	907.43
607.956	1003.72
608.156	929.52
608.356	897.36
608.556	904.53
608.756	899.49
608.956	873.14
609.156	903.94
609.356	870.81
609.556	868.68
609.755	905.3
609.955	853.76
610.155	873.53
610.355	878.76
610.555	842.91
610.755	874.69
610.954	827.99
611.154	895.42
611.354	936.49
611.554	847.37
611.753	859.38
611.953	824.51
612.153	905.49
612.352	897.36
612.552	847.76
612.752	800.29
612.951	871.98
613.151	875.66
613.351	831.48
613.55	847.76
613.75	861.9
613.949	837.68
614.149	845.43
614.348	843.69
614.548	831.09
614.747	810.95
614.947	822.76
615.146	799.51
615.346	873.14
615.545	852.02
615.745	839.62
615.944	874.69
616.144	840.59
616.343	878.56
616.542	816.95
616.742	850.28
616.941	815.4
617.14	795.83
617.34	800.87
617.539	838.26
617.738	778.01
617.938	870.23
618.137	836.13
618.336	773.94
618.535	827.41
618.734	790.99
618.934	867.71
619.133	846.79
619.332	816.56
619.531	793.9
619.73	831.87
619.929	852.41
620.128	833.03
620.328	866.55
620.527	789.63
620.726	824.89
620.925	834.78
621.124	812.69
621.323	811.53
621.522	779.95
621.721	790.02
621.92	778.59
622.119	826.25
622.318	756.89
622.517	786.53
622.715	771.42
622.914	746.23
623.113	769.1
623.312	739.06
623.511	785.56
623.71	763.48
623.909	751.66
624.107	840.78
624.306	720.66
624.505	741.39
624.704	742.36
624.902	769.68
625.101	808.04
625.3	770.45
625.499	756.31
625.697	735.38
625.896	732.28
626.095	776.07
626.293	714.65
626.492	721.43
626.69	781.5
626.889	735
627.088	802.81
627.286	748.95
627.485	719.3
627.683	712.91
627.882	744.68
628.08	678.81
628.279	709.81
628.477	771.42
628.676	691.98
628.874	770.65
629.073	692.18
629.271	675.32
629.469	743.71
629.668	681.52
629.866	705.55
630.065	675.71
630.263	747.01
630.461	687.14
630.66	737.71
630.858	728.6
631.056	766.58
631.254	745.07
631.453	687.53
631.651	739.06
631.849	731.12
632.047	711.17
632.245	702.64
632.444	735
632.642	764.64
632.84	730.15
633.038	727.83
633.236	674.35
633.434	707.48
633.632	687.53
633.83	685.01
634.028	735.77
634.227	697.22
634.425	781.5
634.623	727.44
634.821	732.67
635.019	723.57
635.216	700.9
635.414	726.28
635.612	729.77
635.81	718.14
636.008	768.9
636.206	717.75
636.404	717.37
636.602	654.59
636.8	703.03
636.997	754.56
637.195	741.39
637.393	712.13
637.591	770.84
637.789	740.03
637.986	717.75
638.184	721.05
638.382	755.34
638.58	740.61
638.777	795.25
638.975	722.21
639.173	731.9
639.37	725.7
639.568	721.05
639.765	746.62
639.963	681.33
640.161	755.92
640.358	757.28
640.556	682.88
640.753	667.38
640.951	662.34
641.148	730.54
641.346	674.74
641.543	699.54
641.741	710.97
641.938	672.8
642.136	718.33
642.333	676.48
642.531	730.35
642.728	763.67
642.925	705.74
643.123	697.8
643.32	698.18
643.517	679.2
643.715	658.27
643.912	659.63
644.109	720.47
644.306	683.07
644.504	660.79
644.701	684.62
644.898	727.83
645.095	679.58
645.293	681.33
645.49	714.27
645.687	687.92
645.884	715.82
646.081	657.5
646.278	685.98
646.475	657.11
646.672	660.4
646.87	696.63
647.067	665.44
647.264	693.15
647.461	621.65
647.658	596.47
647.855	667.96
648.052	649.17
648.249	569.92
648.446	624.95
648.642	603.83
648.839	604.99
649.036	610.61
649.233	601.31
649.43	593.17
649.627	581.55
649.824	604.22
650.021	590.07
650.217	622.82
650.414	607.9
650.611	629.79
650.808	636.57
651.004	620.3
651.201	633.09
651.398	702.45
651.595	633.47
651.791	609.06
651.988	639.48
652.185	593.37
652.381	656.14
652.578	552.87
652.775	623.98
652.971	594.14
653.168	628.05
653.364	648.39
653.561	568.37
653.757	625.34
653.954	612.35
654.15	583.87
654.347	668.15
654.543	608.67
654.74	551.32
654.936	563.72
655.133	591.62
655.329	584.07
655.525	581.16
655.722	632.12
655.918	553.46
656.115	603.44
656.311	518.77
656.507	499.4
656.704	481.19
656.9	516.45
657.096	537.57
657.292	493.78
657.489	580.97
657.685	548.81
657.881	549
658.077	545.71
658.273	552.68
658.47	622.43
658.666	551.32
658.862	581.94
659.058	567.4
659.254	600.54
659.45	560.82
659.646	604.8
659.842	582.13
660.038	611
660.234	532.53
660.43	558.69
660.626	621.07
660.822	612.94
661.018	594.34
661.214	622.82
661.41	517.61
661.606	616.81
661.802	626.89
661.998	596.85
662.194	560.62
662.39	588.72
662.586	600.73
662.781	631.92
662.977	611.39
663.173	612.55
663.369	590.27
663.564	585.62
663.76	621.46
663.956	567.99
664.152	634.64
664.347	540.47
664.543	577.29
664.739	575.35
664.934	527.49
665.13	505.6
665.326	571.28
665.521	589.69
665.717	520.13
665.912	530.59
666.108	493.2
666.304	544.35
666.499	538.34
666.695	465.69
666.89	523.62
667.086	561.2
667.281	581.94
667.477	610.22
667.672	561.01
667.867	567.21
668.063	554.62
668.258	502.89
668.454	523.42
668.649	612.74
668.844	559.66
669.04	589.88
669.235	528.07
669.43	539.12
669.626	509.09
669.821	562.95
670.016	507.92
670.211	523.62
670.407	510.06
670.602	554.04
670.797	536.02
670.992	562.37
671.187	511.41
671.382	580.58
671.578	528.27
671.773	542.8
671.968	473.44
672.163	539.89
672.358	572.25
672.553	493.01
672.748	502.69
672.943	609.25
673.138	514.12
673.333	552.1
673.528	521.1
673.723	547.26
673.918	515.29
674.113	509.67
674.308	598.99
674.503	554.04
674.698	570.31
674.892	527.49
675.087	554.23
675.282	537.96
675.477	520.13
675.672	566.24
675.867	504.24
676.061	490.29
676.256	477.7
676.451	506.96
676.646	511.61
676.84	497.85
677.035	506.57
677.23	461.04
677.424	522.26
677.619	576.12
677.814	544.35
678.008	540.86
678.203	496.11
678.397	480.8
678.592	492.42
678.787	574.38
678.981	480.8
679.176	514.9
679.37	519.94
679.565	469.56
679.759	506.96
679.954	535.63
680.148	556.94
680.342	557.33
680.537	539.7
680.731	492.62
680.926	539.89
681.12	551.91
681.314	483.71
681.509	479.64
681.703	527.11
681.897	535.82
682.092	487.19
682.286	503.08
682.48	563.72
682.674	554.62
682.869	486.03
683.063	499.59
683.257	559.66
683.451	478.67
683.645	567.99
683.839	505.41
684.034	541.25
684.228	535.05
684.422	451.35
684.616	465.49
684.81	505.6
685.004	485.26
685.198	500.76
685.392	533.89
685.586	455.42
685.78	521.1
685.974	536.41
686.168	511.02
686.362	562.95
686.556	483.71
686.75	430.62
686.944	443.79
687.138	471.31
687.331	384.7
687.525	413.96
687.719	337.23
687.913	385.48
688.107	404.66
688.301	363.39
688.494	420.54
688.688	373.08
688.882	359.9
689.076	336.46
689.269	395.94
689.463	487.19
689.657	414.73
689.85	373.66
690.044	385.86
690.238	383.15
690.431	413.76
690.625	424.81
690.818	446.12
691.012	430.81
691.205	450.58
691.399	401.17
691.593	453.68
691.786	485.26
691.98	468.59
692.173	514.71
692.366	486.81
692.56	492.42
692.753	540.47
692.947	449.41
693.14	556.94
693.333	513.54
693.527	460.46
693.72	490.1
693.914	503.47
694.107	486.22
694.3	484.29
694.493	484.67
694.687	540.09
694.88	466.85
695.073	543.57
695.266	517.81
695.46	508.31
695.653	532.53
695.846	545.32
696.039	478.86
696.232	513.16
696.425	556.75
696.618	544.16
696.812	532.34
697.005	606.35
697.198	681.52
697.391	597.82
697.584	591.62
697.777	645.1
697.97	644.32
698.163	649.17
698.356	619.14
698.549	717.37
698.742	642.77
698.935	611.19
699.127	672.42
699.32	609.64
699.513	628.44
699.706	670.48
699.899	652.85
700.092	644.52
700.285	661.57
700.477	594.14
700.67	653.62
700.863	705.16
701.056	767.16
701.248	720.08
701.441	729.57
701.634	695.28
701.826	782.85
702.019	684.04
702.212	751.85
702.404	703.61
702.597	707.68
702.79	698.57
702.982	774.52
703.175	740.03
703.367	781.3
703.56	776.85
703.752	839.62
703.945	808.81
704.137	823.73
704.33	821.41
704.522	849.89
704.715	860.16
704.907	857.06
705.1	894.64
705.292	922.54
705.484	888.44
705.677	892.51
705.869	901.23
706.061	932.81
706.254	959.36
706.446	920.02
706.638	927.97
706.831	987.45
707.023	939.98
707.215	1039.76
707.407	975.24
707.599	997.72
707.792	1078.12
707.984	1031.24
708.176	1037.44
708.368	982.41
708.56	1071.15
708.752	1042.86
708.944	1045.57
709.136	1059.14
709.329	1069.02
709.521	1196.31
709.713	1138.96
709.905	1158.92
710.097	1185.07
710.289	1108.93
710.481	1129.08
710.672	1199.6
710.864	1158.92
711.056	1213.55
711.248	1192.24
711.44	1174.41
711.632	1217.04
711.824	1233.51
712.016	1262.57
712.207	1266.64
712.399	1243.39
712.591	1326.12
712.783	1307.52
712.975	1292.02
713.166	1256.37
713.358	1306.36
713.55	1337.16
713.741	1347.82
713.933	1347.82
714.125	1347.43
714.316	1314.88
714.508	1409.62
714.7	1430.36
714.891	1370.49
715.083	1432.29
715.274	1399.74
715.466	1431.91
715.657	1438.88
715.849	1359.44
716.04	1404.59
716.232	1365.45
716.423	1455.15
716.615	1381.34
716.806	1334.26
716.998	1329.8
717.189	1293.38
717.381	1221.5
717.572	1213.36
717.763	1275.16
717.955	1210.65
718.146	1202.51
718.337	1173.25
718.528	1161.43
718.72	1076.77
718.911	1184.3
719.102	1119.39
719.293	1160.08
719.485	1130.82
719.676	1172.48
719.867	1152.91
720.058	1118.81
720.249	1129.47
720.44	1139.15
720.632	1200.57
720.823	1247.07
721.014	1311.2
721.205	1327.86
721.396	1421.83
721.587	1459.8
721.778	1478.6
721.969	1508.24
722.16	1536.92
722.351	1541.95
722.542	1642.7
722.733	1657.43
722.924	1593.3
723.115	1632.82
723.305	1642.12
723.496	1658.2
723.687	1542.34
723.878	1565.2
724.069	1559.97
724.26	1570.24
724.45	1548.15
724.641	1511.15
724.832	1545.83
725.023	1554.55
725.213	1518.7
725.404	1539.05
725.595	1560.94
725.785	1509.6
725.976	1588.07
726.167	1565.98
726.357	1579.54
726.548	1692.5
726.739	1558.23
726.929	1668.66
727.12	1671.57
727.31	1719.62
727.501	1652.97
727.691	1691.72
727.882	1677.38
728.072	1733.18
728.263	1769.99
728.453	1790.72
728.644	1769.41
728.834	1755.85
729.024	1694.63
729.215	1733.96
729.405	1747.13
729.596	1852.92
729.786	1843.23
729.976	1873.84
730.167	1875.39
730.357	1851.95
730.547	1852.53
730.737	1896.32
730.928	1945.72
731.118	1966.26
731.308	1924.02
731.498	1934.29
731.688	2019.54
731.879	2018.57
732.069	2056.55
732.259	2094.52
732.449	2087.93
732.639	2174.15
732.829	2223.36
733.019	2227.24
733.209	2268.89
733.399	2275.29
733.589	2297.37
733.779	2333.02
733.969	2346.78
734.159	2426.22
734.349	2414.98
734.539	2506.23
734.729	2487.44
734.919	2507.98
735.109	2542.46
735.299	2493.45
735.488	2524.45
735.678	2542.27
735.868	2535.3
736.058	2538.2
736.248	2481.43
736.437	2479.88
736.627	2482.4
736.817	2629.46
737.007	2557.77
737.196	2639.92
737.386	2588.38
737.576	2556.8
737.765	2651.74
737.955	2586.44
738.144	2713.16
738.334	2662.01
738.524	2629.46
738.713	2660.07
738.903	2654.06
739.092	2684.29
739.282	2693.39
739.471	2730.98
739.661	2720.13
739.85	2740.28
740.04	2755.97
740.229	2794.53
740.419	2840.45
740.608	2799.76
740.797	2820.3
740.987	2912.52
741.176	2840.06
741.365	2811.58
741.555	2778.45
741.744	2847.23
741.933	2836.38
742.123	2889.27
742.312	2902.25
742.501	2906.52
742.69	2922.6
742.88	2891.98
743.069	2967.35
743.258	2883.65
743.447	2979.56
743.636	2985.95
743.825	2920.85
744.014	2960.18
744.204	2974.33
744.393	2937.32
744.582	3029.74
744.771	3042.33
744.96	2967.74
745.149	2993.12
745.338	2972.2
745.527	3009.2
745.716	3023.73
745.905	2960.76
746.094	3074.11
746.283	3072.94
746.471	3072.56
746.66	3122.54
746.849	3122.16
747.038	3095.22
747.227	3002.81
747.416	3096
747.604	3062.09
747.793	3033.42
747.982	3079.53
748.171	3082.24
748.359	3092.71
748.548	3106.07
748.737	3083.6
748.926	3047.56
749.114	2977.04
749.303	3041.36
749.491	3050.47
749.68	3007.07
749.869	3071.39
750.057	3026.64
750.246	3022.38
750.434	3036.91
750.623	3016.56
750.811	3011.72
751	3065.58
751.188	3057.25
751.377	3059.77
751.565	3026.64
751.754	3018.89
751.942	2975.68
752.131	3075.08
752.319	2992.73
752.507	2949.33
752.696	3062.68
752.884	3039.43
753.072	3050.28
753.261	3008.23
753.449	3033.03
753.637	3038.65
753.825	3131.26
754.014	3035.16
754.202	3034.78
754.39	3072.75
754.578	3061.71
754.766	2969.48
754.955	2998.35
755.143	3064.81
755.331	2993.9
755.519	3001.26
755.707	3020.44
755.895	2956.31
756.083	3002.42
756.271	2942.75
756.459	2959.99
756.647	2982.27
756.835	2975.3
757.023	3011.53
757.211	2971.61
757.399	2923.56
757.587	2915.04
757.775	2917.17
757.963	2868.54
758.151	2920.85
758.339	2883.07
758.526	2864.47
758.714	2911.17
758.902	2815.84
759.09	2767.99
759.278	2592.45
759.465	2356.08
759.653	2042.4
759.841	1858.73
760.028	1600.08
760.216	1406.33
760.404	1306.16
760.591	1086.45
760.779	890.58
760.967	794.09
761.154	624.75
761.342	701.67
761.529	714.85
761.717	718.14
761.905	702.06
762.092	796.03
762.28	718.14
762.467	730.93
762.655	652.85
762.842	683.65
763.029	714.07
763.217	695.67
763.404	714.07
763.592	742.75
763.779	676.1
763.966	763.67
764.154	788.66
764.341	807.07
764.528	836.33
764.716	868.29
764.903	946.76
765.09	977.18
765.277	1013.99
765.465	1193.4
765.652	1224.79
765.839	1295.12
766.026	1407.49
766.213	1457.29
766.4	1541.57
766.588	1698.31
766.775	1689.4
766.962	1812.81
767.149	1861.44
767.336	2002.1
767.523	1964.9
767.71	2082.9
767.897	2216.39
768.084	2258.04
768.271	2312.87
768.458	2340.19
768.645	2381.07
768.832	2342.71
769.019	2368.67
769.206	2423.7
769.392	2504.49
769.579	2546.53
769.766	2533.55
769.953	2519.8
770.14	2587.61
770.327	2552.54
770.513	2607.56
770.7	2662.78
770.887	2575.79
771.073	2649.8
771.26	2620.74
771.447	2590.9
771.634	2572.49
771.82	2680.99
772.007	2575.01
772.193	2622.48
772.38	2671.31
772.567	2632.94
772.753	2605.82
772.94	2645.15
773.126	2674.41
773.313	2646.7
773.499	2652.32
773.686	2694.75
773.872	2614.34
774.059	2640.31
774.245	2590.13
774.432	2597.1
774.618	2518.63
774.804	2647.09
774.991	2561.45
775.177	2628.88
775.363	2591.09
775.55	2634.3
775.736	2527.16
775.922	2584.12
776.109	2618.41
776.295	2592.84
776.481	2618.8
776.667	2605.82
776.853	2560.68
777.04	2560.87
777.226	2580.83
777.412	2627.91
777.598	2543.05
777.784	2537.62
777.97	2546.53
778.156	2528.9
778.342	2500.61
778.528	2499.26
778.715	2464.58
778.901	2516.89
779.087	2537.04
779.272	2441.52
779.458	2476.78
779.644	2490.15
779.83	2507.4
780.016	2554.86
780.202	2492.09
780.388	2455.86
780.574	2422.15
780.76	2432.61
780.946	2476.98
781.131	2459.73
781.317	2470.58
781.503	2419.82
781.689	2474.27
781.874	2494.61
782.06	2416.92
782.246	2425.25
782.432	2431.45
782.617	2446.37
782.803	2490.15
782.989	2378.94
783.174	2411.68
783.36	2344.65
783.545	2427.96
783.731	2398.7
783.916	2321.98
784.102	2346.59
784.288	2297.18
784.473	2368.09
784.659	2370.61
784.844	2395.02
785.029	2315.2
785.215	2327.02
785.4	2270.06
785.586	2370.61
785.771	2246.22
785.956	2333.22
786.142	2292.72
786.327	2278.77
786.512	2303.77
786.698	2258.82
786.883	2222.97
787.068	2244.67
787.254	2262.89
787.439	2233.44
787.624	2246.22
787.809	2236.15
787.994	2227.24
788.18	2259.59
788.365	2178.99
788.55	2187.13
788.735	2185.58
788.92	2173.76
789.105	2167.56
789.29	2232.27
789.475	2169.5
789.66	2164.66
789.845	2152.84
790.03	2116.22
790.215	2153.81
790.4	2170.08
790.585	2156.52
790.77	2128.81
790.955	2070.88
791.14	2100.14
791.325	2124.16
791.51	2022.83
791.695	2090.26
791.879	2095.3
792.064	2048.02
792.249	2153.23
792.434	2134.63
792.618	2091.61
792.803	2106.92
792.988	2114.48
793.173	2086.96
793.357	2143.54
793.542	2058.48
793.727	2071.85
793.911	2139.47
794.096	2101.3
794.281	2144.89
794.465	2171.05
794.65	2128.23
794.834	2160.98
795.019	2169.69
795.203	2127.65
795.388	2165.82
795.572	2194.88
795.757	2135.01
795.941	2146.64
796.126	2111.57
796.31	2100.91
796.494	2130.36
796.679	2111.38
796.863	2104.79
797.048	2179.38
797.232	2123.58
797.416	2129.59
797.601	2108.66
797.785	2197.21
797.969	2164.08
798.153	2087.35
798.338	2157.1
798.522	2190.04
798.706	2219.1
798.89	2162.14
799.074	2235.37
799.258	2202.44
799.443	2158.65
799.627	2172.79
799.811	2197.59
799.995	2143.93
800.179	2132.11
800.363	2136.76
800.547	2144.51
800.731	2193.91
800.915	2106.53
801.099	2118.74
801.283	2117.96
801.467	2144.12
801.651	2099.75
801.835	2130.56
802.019	2167.76
802.202	2101.88
802.386	2097.81
802.57	2089.1
802.754	2110.41
802.938	2080.18
803.121	2097.62
803.305	2183.26
803.489	2137.53
803.673	2128.43
803.856	2142.38
804.04	2127.07
804.224	2124.75
804.407	2113.9
804.591	2097.81
804.775	2162.91
804.958	2143.34
805.142	2229.56
805.326	2147.61
805.509	2128.23
805.693	2169.69
805.876	2163.69
806.06	2172.02
806.243	2164.08
806.427	2195.85
806.61	2202.63
806.794	2144.89
806.977	2186.94
807.16	2141.41
807.344	2187.13
807.527	2169.31
807.71	2142.38
807.894	2176.48
808.077	2153.42
808.26	2103.24
808.444	2079.6
808.627	2197.4
808.81	2065.26
808.993	2072.05
809.177	2073.21
809.36	2082.7
809.543	2081.73
809.726	2001.72
809.909	2004.82
810.092	2013.53
810.276	2004.04
810.459	2025.93
810.642	2025.93
810.825	1956.77
811.008	1991.06
811.191	1920.54
811.374	1926.35
811.557	1942.43
811.74	1995.9
811.923	1917.63
812.106	1870.94
812.289	1827.54
812.472	1841.87
812.654	1857.96
812.837	1802.74
813.02	1790.53
813.203	1746.36
813.386	1665.95
813.569	1657.04
813.751	1613.83
813.934	1665.95
814.117	1607.83
814.3	1587.29
814.482	1569.66
814.665	1543.89
814.848	1505.53
815.03	1436.94
815.213	1456.32
815.396	1455.35
815.578	1454.96
815.761	1408.46
815.943	1477.82
816.126	1357.31
816.309	1378.24
816.491	1290.28
816.674	1282.14
816.856	1298.22
817.039	1306.16
817.221	1400.91
817.403	1318.76
817.586	1318.56
817.768	1328.44
817.951	1285.43
818.133	1244.75
818.315	1268.19
818.498	1328.64
818.68	1372.62
818.862	1352.47
819.045	1391.41
819.227	1362.54
819.409	1341.81
819.591	1346.08
819.774	1340.26
819.956	1346.27
820.138	1398.58
820.32	1381.53
820.502	1429.19
820.684	1479.95
820.866	1489.84
821.048	1534.98
821.231	1504.95
821.413	1515.6
821.595	1516.77
821.777	1522.19
821.959	1510.18
822.141	1555.71
822.323	1433.26
822.505	1382.89
822.686	1360.22
822.868	1318.56
823.05	1206.77
823.232	1147.48
823.414	1118.62
823.596	1187.78
823.778	1161.24
823.96	1194.95
824.141	1232.54
824.323	1225.95
824.505	1293.96
824.687	1320.31
824.868	1374.75
825.05	1423.38
825.232	1464.26
825.413	1566.95
825.595	1467.94
825.777	1402.65
825.958	1452.83
826.14	1445.66
826.321	1454.96
826.503	1454.19
826.685	1488.67
826.866	1498.94
827.048	1505.34
827.229	1445.08
827.411	1442.37
827.592	1353.24
827.773	1362.74
827.955	1355.57
828.136	1340.65
828.318	1328.06
828.499	1344.14
828.68	1275.94
828.862	1300.93
829.043	1349.76
829.224	1286.79
829.406	1271.48
829.587	1270.71
829.768	1268.77
829.949	1330.58
830.131	1333.68
830.312	1384.24
830.493	1347.62
830.674	1333.48
830.855	1329.03
831.036	1341.62
831.218	1374.36
831.399	1391.22
831.58	1334.84
831.761	1352.27
831.942	1352.47
832.123	1347.62
832.304	1278.26
832.485	1315.08
832.666	1326.51
832.847	1327.67
833.028	1327.48
833.209	1351.31
833.389	1303.26
833.57	1262.57
833.751	1286.4
833.932	1353.44
834.113	1317.79
834.294	1309.84
834.475	1320.69
834.655	1386.76
834.836	1362.74
835.017	1330.19
835.198	1313.53
835.378	1315.08
835.559	1404.59
835.74	1314.11
835.92	1321.47
836.101	1313.72
836.281	1351.31
836.462	1334.06
836.643	1396.45
836.823	1417.37
837.004	1394.32
837.184	1447.02
837.365	1419.89
837.545	1412.72
837.726	1370.49
837.906	1442.56
838.087	1397.61
838.267	1377.46
838.448	1339.88
838.628	1381.14
838.808	1418.92
838.989	1452.64
839.169	1362.16
839.349	1411.37
839.53	1406.33
839.71	1404.59
839.89	1376.3
840.07	1429.77
840.251	1345.11
840.431	1411.56
840.611	1370.49
840.791	1337.16
840.971	1384.82
841.151	1378.62
841.332	1358.09
841.512	1404.59
841.692	1359.25
841.872	1346.85
842.052	1387.34
842.232	1385.41
842.412	1328.44
842.592	1373.2
842.772	1400.13
842.952	1392.38
843.132	1353.24
843.312	1351.11
843.492	1317.4
843.672	1345.69
843.851	1295.31
844.031	1366.22
844.211	1318.95
844.391	1326.89
844.571	1363.71
844.751	1389.47
844.93	1328.44
845.11	1271.48
845.29	1322.63
845.47	1361.77
845.649	1345.11
845.829	1319.92
846.009	1302.68
846.188	1330.58
846.368	1305.39
846.547	1331.35
846.727	1350.92
846.907	1328.83
847.086	1335.23
847.266	1356.54
847.445	1337.55
847.625	1317.4
847.804	1303.26
847.984	1277.68
848.163	1332.71
848.343	1298.03
848.522	1295.31
848.701	1314.88
848.881	1266.83
849.06	1310.23
849.239	1298.03
849.419	1315.27
849.598	1282.33
849.777	1251.72
849.957	1237.19
850.136	1176.35
850.315	1148.84
850.494	1190.5
850.674	1189.14
850.853	1255.4
851.032	1206.38
851.211	1287.95
851.39	1225.18
851.569	1167.63
851.748	1184.88
851.927	1244.94
852.107	1203.86
852.286	1165.89
852.465	1124.43
852.644	1212.2
852.823	1222.85
853.002	1214.33
853.181	1204.25
853.359	1231.18
853.538	1161.43
853.717	1251.53
853.896	1143.8
854.075	1052.35
854.254	1043.05
854.433	981.44
854.611	1054.1
854.79	1008.76
854.969	1054.49
855.148	1064.95
855.327	1051.39
855.505	1125.78
855.684	1065.72
855.863	1106.41
856.041	1086.07
856.22	1123.85
856.399	1071.15
856.577	1186.04
856.756	1144.77
856.934	1247.07
857.113	1250.36
857.291	1164.73
857.47	1141.09
857.648	1167.25
857.827	1149.23
858.005	1195.34
858.184	1171.9
858.362	1215.68
858.541	1174.03
858.719	1151.94
858.898	1141.48
859.076	1148.65
859.254	1198.25
859.433	1161.43
859.611	1128.88
859.789	1109.9
859.967	1201.15
860.146	1192.05
860.324	1078.51
860.502	1114.93
860.68	1068.82
860.859	1095.17
861.037	1139.73
861.215	1131.4
861.393	1143.03
861.571	1113.97
861.749	1083.94
861.927	1114.55
862.105	1107.57
862.283	1090.72
862.461	1061.46
862.639	1079.48
862.817	1097.69
862.995	1121.72
863.173	1059.72
863.351	1086.84
863.529	1068.82
863.707	1144
863.885	1113.19
864.063	1020.77
864.241	1044.41
864.418	1127.53
864.596	1050.22
864.774	1035.11
864.952	1026.59
865.129	1085.29
865.307	1037.24
865.485	1024.07
865.663	1099.24
865.84	979.89
866.018	1027.55
866.196	915.57
866.373	935.14
866.551	913.24
866.728	843.69
866.906	886.89
867.084	931.65
867.261	953.35
867.439	952.77
867.616	965.94
867.794	983.19
867.971	970.01
868.149	957.61
868.326	1034.34
868.503	1011.09
868.681	995.97
868.858	979.89
869.035	943.86
869.213	1029.1
869.39	966.33
869.567	1085.48
869.745	1004.11
869.922	954.9
870.099	1022.71
870.276	1019.42
870.454	1027.75
870.631	1013.99
870.808	965.56
870.985	988.81
871.162	1072.31
871.339	986.67
871.517	942.69
871.694	947.15
871.871	1001.59
872.048	967.88
872.225	960.71
872.402	1000.62
872.579	907.63
872.756	976.79
872.933	942.69
873.11	933.01
873.287	946.76
873.463	919.06
873.64	904.33
873.817	981.06
873.994	914.21
874.171	916.34
874.348	954.12
874.524	877.21
874.701	908.4
874.878	858.22
875.055	924.48
875.231	922.16
875.408	973.5
875.585	872.75
875.762	913.24
875.938	917.31
876.115	898.71
876.291	907.43
876.468	905.49
876.645	859.38
876.821	896.97
876.998	903.56
877.174	891.54
877.351	887.09
877.527	870.04
877.704	874.49
877.88	893.48
878.057	846.01
878.233	898.91
878.409	869.07
878.586	907.04
878.762	893.09
878.938	866.16
879.115	796.61
879.291	882.24
879.467	810.95
879.644	835.55
879.82	884.38
879.996	838.65
880.172	775.1
880.349	837.68
880.525	840.78
880.701	813.85
880.877	769.29
881.053	824.31
881.229	828.77
881.405	869.07
881.581	784.4
881.757	825.67
881.933	843.69
882.109	821.21
882.285	834
882.461	783.82
882.637	809.98
882.813	799.32
882.989	792.93
883.165	859.19
883.341	786.92
883.517	845.43
883.693	855.12
883.869	815.6
884.044	810.75
884.22	855.51
884.396	886.89
884.572	842.91
884.747	878.76
884.923	838.84
885.099	868.68
885.275	867.13
885.45	799.9
885.626	820.05
885.801	807.07
885.977	807.65
886.153	743.13
886.328	828.38
886.504	799.51
886.679	840.01
886.855	782.27
887.03	807.65
887.206	866.55
887.381	825.67
887.557	845.43
887.732	823.54
887.908	814.82
888.083	842.14
888.258	825.09
888.434	789.83
888.609	822.76
888.784	844.85
888.96	821.8
889.135	777.43
889.31	795.83
889.485	830.32
889.661	789.83
889.836	847.18
890.011	815.6
890.186	789.05
890.361	815.79
890.537	831.68
890.712	850.28
890.887	816.95
891.062	836.91
891.237	845.63
891.412	756.31
891.587	816.95
891.762	835.94
891.937	850.08
892.112	777.04
892.287	812.5
892.462	744.1
892.637	713.49
892.812	737.71
892.987	723.57
893.161	738.1
893.336	761.54
893.511	749.91
893.686	754.76
893.861	723.18
894.035	727.05
894.21	737.51
894.385	695.86
894.56	713.1
894.734	698.38
894.909	658.66
895.084	672.8
895.258	652.85
895.433	662.15
895.608	677.84
895.782	593.75
895.957	613.52
896.131	643.55
896.306	551.32
896.48	575.93
896.655	556.56
896.829	522.84
897.004	526.52
897.178	516.45
897.353	519.74
897.527	549.97
897.701	574.38
897.876	498.43
898.05	595.89
898.224	579.22
898.399	610.03
898.573	543.77
898.747	443.79
898.921	514.32
899.096	419.96
899.27	409.69
899.444	455.42
899.618	474.6
899.792	463.36
899.967	467.63
900.141	529.24
900.315	458.91
900.489	457.55
900.663	519.94
900.837	442.05
901.011	429.65
901.185	516.64
901.359	462.59
901.533	485.06
901.707	475.18
901.881	461.04
902.055	416.09
902.229	431.39
902.403	532.72
902.576	453.29
902.75	499.98
902.924	576.9
903.098	520.13
903.272	544.93
903.446	573.99
903.619	555.59
903.793	598.21
903.967	576.7
904.14	617.97
904.314	615.84
904.488	593.37
904.661	604.02
904.835	602.28
905.009	617.2
905.182	657.69
905.356	633.67
905.529	608.87
905.703	561.98
905.876	577.09
906.05	578.25
906.223	527.11
906.397	471.31
906.57	503.08
906.744	451.54
906.917	474.99
907.09	467.43
907.264	472.66
907.437	411.83
907.61	390.9
907.784	454.26
907.957	453.48
908.13	400.59
908.304	458.13
908.477	403.11
908.65	440.31
908.823	411.83
908.996	451.74
909.17	393.42
909.343	400.98
909.516	419.38
909.689	398.07
909.862	387.61
910.035	423.64
910.208	401.94
910.381	408.14
910.554	475.57
910.727	403.3
910.9	402.33
911.073	386.25
911.246	464.33
911.419	459.49
911.592	423.45
911.765	412.99
911.938	390.71
912.11	424.81
912.283	441.86
912.456	471.89
912.629	411.83
912.802	386.64
912.974	345.76
913.147	340.72
913.32	291.7
913.493	353.9
913.665	362.61
913.838	362.42
914.01	360.1
914.183	369.4
914.356	361.65
914.528	404.85
914.701	440.69
914.873	371.14
915.046	368.43
915.218	307.59
915.391	259.73
915.563	300.61
915.736	365.71
915.908	357.96
916.081	359.9
916.253	336.26
916.425	354.09
916.598	363.39
916.77	343.24
916.942	330.45
917.115	283.76
917.287	336.46
917.459	312.24
917.632	285.89
917.804	271.36
917.976	308.36
918.148	323.28
918.32	318.05
918.493	351.18
918.665	409.89
918.837	339.17
919.009	431.59
919.181	399.04
919.353	382.18
919.525	389.16
919.697	369.98
919.869	347.7
920.041	444.57
920.213	472.47
920.385	412.79
920.557	374.05
920.729	363.97
920.901	371.14
921.073	380.05
921.244	370.95
921.416	411.44
921.588	372.5
921.76	346.53
921.932	418.8
922.103	362.23
922.275	386.25
922.447	383.54
922.619	326.96
922.79	348.66
922.962	341.5
923.134	409.31
923.305	318.44
923.477	298.1
923.648	313.98
923.82	328.71
923.991	279.3
924.163	294.61
924.335	324.45
924.506	292.28
924.677	366.1
924.849	290.15
925.02	345.76
925.192	320.18
925.363	319.6
925.535	314.37
925.706	310.5
925.877	369.59
926.049	294.8
926.22	331.42
926.391	316.31
926.562	355.45
926.734	290.15
926.905	357.96
927.076	288.8
927.247	296.55
927.419	244.62
927.59	254.12
927.761	263.03
927.932	279.88
928.103	265.93
928.274	217.3
928.445	218.85
928.616	219.24
928.787	205.87
928.958	257.6
929.129	242.3
929.3	229.51
929.471	176.81
929.642	158.6
929.813	140.97
929.984	218.27
930.155	107.26
930.326	176.62
930.496	150.65
930.667	108.03
930.838	146.97
931.009	99.12
931.18	119.66
931.35	128.95
931.521	103.38
931.692	83.81
931.863	27.04
932.033	105.12
932.204	94.47
932.374	100.28
932.545	66.96
932.716	126.44
932.886	96.41
933.057	50.87
933.227	42.16
933.398	115.59
933.568	18.52
933.739	-0.66
933.909	24.33
934.08	79.55
934.25	-12.09
934.421	8.64
934.591	75.48
934.761	14.06
934.932	-16.55
935.102	43.32
935.272	8.64
935.443	23.94
935.613	20.65
935.783	56.49
935.953	13.87
936.123	165.19
936.294	-12.09
936.464	17.36
936.634	18.33
936.804	-27.21
936.974	-19.07
937.144	34.02
937.314	0.31
937.484	0.31
937.655	-0.08
937.825	58.82
937.995	-0.86
938.165	77.81
938.334	32.08
938.504	60.37
938.674	12.9
938.844	13.29
939.014	80.32
939.184	53.01
939.354	119.27
939.524	96.79
939.694	80.32
939.863	42.35
940.033	130.31
940.203	115.97
940.373	82.26
940.542	124.89
940.712	78.77
940.882	58.43
941.051	101.25
941.221	91.17
941.391	126.44
941.56	69.47
941.73	34.6
941.899	146.2
942.069	48.16
942.238	78.77
942.408	47.58
942.577	70.06
942.747	54.17
942.916	4.18
943.086	54.94
943.255	97.96
943.425	92.14
943.594	32.47
943.763	11.93
943.933	13.29
944.102	-24.69
944.271	35.38
944.441	50.1
944.61	33.24
944.779	53.97
944.948	115.59
945.117	30.92
945.287	51.65
945.456	11.74
945.625	-22.75
945.794	64.05
945.963	3.99
946.132	57.66
946.301	17.36
946.47	72.77
946.639	3.21
946.808	43.51
946.977	41.19
947.146	103.19
947.315	58.62
947.484	61.72
947.653	6.12
947.822	24.72
947.991	18.13
948.16	110.55
948.329	99.89
948.498	46.61
948.666	41.57
948.835	77.61
949.004	14.45
949.173	12.9
949.341	51.46
949.51	57.46
949.679	81.87
949.847	42.93
950.016	120.04
950.185	121.21
950.353	8.44
950.522	35.18
950.69	93.31
950.859	72.57
951.028	98.54
951.196	79.94
951.365	6.89
951.533	53.39
951.701	93.69
951.87	68.89
952.038	31.5
952.207	56.49
952.375	84.2
952.543	42.93
952.712	28.01
952.88	26.08
953.048	116.56
953.217	71.8
953.385	56.3
953.553	102.41
953.721	34.02
953.89	43.71
954.058	24.14
954.226	33.83
954.394	45.06
954.562	0.31
954.73	59.98
954.898	19.29
955.067	86.33
955.235	16.19
955.403	80.91
955.571	94.27
955.739	78.19
955.907	25.69
956.075	-0.47
956.243	15.42
956.41	59.21
956.578	-2.6
956.746	15.23
956.914	41.57
957.082	79.16
957.25	77.42
957.418	36.34
957.585	52.62
957.753	100.09
957.921	24.72
958.089	50.29
958.256	82.84
958.424	46.03
958.592	59.21
958.759	19.1
958.927	59.4
959.095	41.57
959.262	17.36
959.43	36.54
959.597	30.53
959.765	65.02
959.932	17.55
960.1	82.46
960.267	68.51
960.435	37.12
960.602	83.23
960.77	19.88
960.937	9.22
961.104	65.41
961.272	-15.19
961.439	40.99
961.606	53.59
961.774	93.11
961.941	44.09
962.108	67.54
962.275	62.89
962.443	76.26
962.61	80.52
962.777	128.18
962.944	71.99
963.111	69.86
963.278	80.91
963.446	84.2
963.613	66.37
963.78	62.11
963.947	87.3
964.114	58.82
964.281	133.8
964.448	117.33
964.615	35.38
964.782	86.14
964.949	81.29
965.116	72.19
965.282	99.12
965.449	48.74
965.616	47
965.783	88.07
965.95	92.34
966.117	56.3
966.283	39.83
966.45	75.48
966.617	55.14
966.784	118.88
966.95	106.67
967.117	103.77
967.284	65.99
967.45	26.27
967.617	115.97
967.784	80.52
967.95	138.06
968.117	64.24
968.283	107.64
968.45	170.22
968.616	107.45
968.783	129.15
968.949	97.96
969.116	109.77
969.282	81.49
969.449	118.49
969.615	81.29
969.781	33.05
969.948	67.73
970.114	23.94
970.28	132.25
970.447	104.74
970.613	114.23
970.779	75.48
970.945	94.08
971.112	61.92
971.278	68.51
971.444	85.56
971.61	112.68
971.776	70.44
971.942	84.59
972.108	87.3
972.275	73.16
972.441	73.93
972.607	160.73
972.773	50.1
972.939	98.54
973.105	93.5
973.271	22.78
973.437	62.11
973.602	52.42
973.768	94.27
973.934	59.01
974.1	104.16
974.266	9.41
974.432	102.61
974.598	40.22
974.763	95.44
974.929	75.29
975.095	123.72
975.261	52.81
975.426	33.44
975.592	65.41
975.758	156.47
975.923	38.47
976.089	43.71
976.255	101.44
976.42	101.44
976.586	94.86
976.751	80.13
976.917	147.17
977.082	90.4
977.248	26.85
977.413	15.03
977.579	50.49
977.744	80.91
977.91	36.92
978.075	41.77
978.24	123.34
978.406	65.99
978.571	47.97
978.736	61.53
978.902	94.66
979.067	34.99
979.232	22.39
979.397	69.67
979.563	113.26
979.728	34.21
979.893	73.35
980.058	36.34
980.223	93.5
980.388	84.59
980.554	84.59
980.719	55.72
980.884	56.49
981.049	87.69
981.214	53.97
981.379	80.91
981.544	64.24
981.709	66.18
981.874	38.28
982.039	84.2
982.204	98.54
982.368	63.08
982.533	56.69
982.698	87.49
982.863	95.44
983.028	70.83
983.193	78.77
983.357	82.46
983.522	61.53
983.687	48.36
983.852	45.06
984.016	54.36
984.181	67.34
984.346	60.76
984.51	94.08
984.675	62.11
984.839	83.62
985.004	81.87
985.168	89.43
985.333	87.88
985.498	47.77
985.662	96.41
985.827	90.59
985.991	74.9
986.155	44.67
986.32	108.03
986.484	121.21
986.649	53.01
986.813	28.98
986.977	59.21
987.142	82.26
987.306	31.31
987.47	39.83
987.634	56.11
987.799	81.49
987.963	82.84
988.127	89.82
988.291	146
988.455	97.37
988.62	47.19
988.784	84.39
988.948	76.06
989.112	43.12
989.276	56.3
989.44	59.01
989.604	37.7
989.768	39.83
989.932	124.11
990.096	39.06
990.26	-1.24
990.424	16
990.588	51.65
990.752	119.27
990.915	86.91
991.079	27.63
991.243	61.14
991.407	89.43
991.571	72.19
991.734	86.14
991.898	69.67
992.062	158.4
992.226	34.6
992.389	28.4
992.553	12.13
992.717	37.89
992.88	43.32
993.044	75.29
993.207	61.72
993.371	41.38
993.535	79.94
993.698	65.79
993.862	95.05
994.025	78.39
994.189	61.53
994.352	58.24
994.515	62.89
994.679	100.09
994.842	45.06
995.006	77.42
995.169	24.91
995.332	28.59
995.496	88.07
995.659	0.31
995.822	57.85
995.985	47.19
996.149	108.03
996.312	75.87
996.475	121.21
996.638	43.12
996.801	81.29
996.964	127.99
997.128	53.2
997.291	15.03
997.454	71.61
997.617	41.57
997.78	114.42
997.943	41.96
998.106	93.5
998.269	29.76
998.432	51.65
998.595	42.16
998.758	3.6
998.92	34.02
999.083	8.83
999.246	20.84
999.409	35.18
999.572	-1.24
999.735	21.04
999.897	77.81
1000.06	46.22
1000.223	39.83
1000.386	77.22
1000.548	59.59
1000.711	64.44
1000.874	59.01
1001.036	0.69
1001.199	85.36
1001.361	39.44
1001.524	50.29
1001.687	84.2
1001.849	9.99
1002.012	41.96
1002.174	44.48
1002.337	65.02
1002.499	21.62
1002.661	74.9
1002.824	29.76
1002.986	5.15
1003.149	40.8
1003.311	35.57
1003.473	93.89
1003.636	11.54
1003.798	54.17
1003.96	53.39
1004.123	73.93
1004.285	38.67
1004.447	26.85
1004.609	22.2
1004.771	100.47
1004.933	-3.57
1005.096	15.23
1005.258	-3.37
1005.42	20.26
1005.582	70.44
1005.744	53.01
1005.906	2.44
1006.068	30.92
1006.23	-13.26
1006.392	-54.14
1006.554	0.31
1006.716	69.47
1006.878	31.5
1007.04	-5.31
1007.202	4.96
1007.363	25.69
1007.525	29.37
1007.687	43.12
1007.849	55.91
1008.011	-12.87
1008.172	13.09
1008.334	34.02
1008.496	41.77
1008.658	-35.92
1008.819	5.54
1008.981	-21.01
1009.143	-7.06
1009.304	11.93
1009.466	49.32
1009.627	76.45
1009.789	142.71
1009.95	41.96
1010.112	12.13
1010.273	60.76
1010.435	3.21
1010.596	24.33
1010.758	15.42
1010.919	16.78
1011.081	-12.48
1011.242	10.77
1011.403	41.96
1011.565	33.83
1011.726	46.42
1011.887	-21.78
1012.049	10.58
1012.21	44.09
1012.371	70.44
1012.532	-32.44
1012.693	21.23
1012.855	14.26
1013.016	22.39
1013.177	50.68
1013.338	10.77
1013.499	80.71
1013.66	34.99
1013.821	59.98
1013.982	26.46
1014.143	44.87
1014.304	-10.74
1014.465	22.59
1014.626	41.19
1014.787	2.83
1014.948	119.07
1015.109	-37.67
1015.27	59.79
1015.431	-10.93
1015.592	-2.99
1015.752	79.55
1015.913	22.59
1016.074	44.29
1016.235	40.41
1016.395	35.38
1016.556	21.62
1016.717	17.16
1016.877	68.7
1017.038	9.99
1017.199	27.43
1017.359	33.05
1017.52	40.41
1017.681	11.54
1017.841	7.28
1018.002	-6.47
1018.162	1.08
1018.323	58.62
1018.483	-10.74
1018.644	28.59
1018.804	-10.74
1018.964	-29.53
1019.125	2.24
1019.285	36.92
1019.446	-16.74
1019.606	-11.51
1019.766	-49.1
1019.926	23.75
1020.087	19.29
1020.247	-11.9
1020.407	41.19
1020.567	62.89
1020.728	7.67
1020.888	-13.45
1021.048	3.79
1021.208	-15.39
1021.368	-19.07
1021.528	61.34
1021.688	36.54
1021.848	38.28
1022.008	-2.99
1022.168	-11.12
1022.328	23.75
1022.488	35.18
1022.648	14.84
1022.808	21.43
1022.968	35.76
1023.128	-22.94
1023.288	-17.71
1023.448	22.39
1023.608	44.09
1023.767	14.84
1023.927	-13.45
1024.087	-8.99
1024.247	-15.19
1024.406	-1.82
1024.566	-31.08
1024.726	-5.89
1024.885	20.84
1025.045	19.29
1025.205	3.21
1025.364	-4.92
1025.524	17.94
1025.683	-28.17
1025.843	28.59
1026.003	19.68
1026.162	53.59
1026.321	17.55
1026.481	16.97
1026.64	-7.44
1026.8	35.76
1026.959	34.79
1027.119	24.91
1027.278	-7.64
1027.437	9.99
1027.597	33.83
1027.756	0.31
1027.915	31.11
1028.074	71.02
1028.234	-20.81
1028.393	4.96
1028.552	11.74
1028.711	-91.53
1028.87	29.76
1029.03	-25.27
1029.189	25.3
1029.348	-39.99
1029.507	-2.02
1029.666	-31.27
1029.825	-9.38
1029.984	14.06
1030.143	16.19
1030.302	-12.67
1030.461	-51.81
1030.62	-5.12
1030.779	22.2
1030.938	-23.14
1031.097	-16.16
1031.255	23.56
1031.414	54.17
1031.573	52.42
1031.732	-30.69
1031.891	1.08
1032.049	13.68
1032.208	6.89
1032.367	-19.26
1032.525	-3.96
1032.684	3.02
1032.843	4.38
1033.001	-48.71
1033.16	145.04
1033.319	53.97
1033.477	39.44
1033.636	-9.77
1033.794	-30.69
1033.953	7.86
1034.111	32.28
1034.27	21.43
1034.428	16.39
1034.587	-22.17
1034.745	2.24
1034.903	10.77
1035.062	21.04
1035.22	-20.42
1035.378	15.23
1035.537	-27.01
1035.695	-0.27
1035.853	-3.96
1036.011	33.63
1036.17	2.44
1036.328	-38.25
1036.486	-22.56
1036.644	1.08
1036.802	-83.59
1036.96	3.79
1037.119	-15.19
1037.277	-34.18
1037.435	-29.92
1037.593	-14.42
1037.751	-5.12
1037.909	35.76
1038.067	35.76
