Data from oakcork_FLMT105791__4__17-26-39-067.txt Node

Date: Mon Mar 20 17:26:39 GMT 2023
User: antho
Spectrometer: FLMT10579
Trigger mode: 0
Integration Time (sec): 1.000000E-1
Scans to average: 10
Electric dark correction enabled: true
Nonlinearity correction enabled: false
Boxcar width: 0
XAxis mode: Wavelengths
Number of Pixels in Spectrum: 3648
>>>>>Begin Spectral Data<<<<<
345.248	-142.76
345.464	-142.76
345.681	-142.76
345.898	-178.22
346.114	-136.95
346.331	-30.77
346.548	10.49
346.764	6.62
346.981	-21.86
347.197	6.62
347.414	8.94
347.631	-31.16
347.847	67.84
348.064	-3.84
348.28	20.38
348.497	-32.52
348.713	-0.74
348.93	49.05
349.146	8.56
349.363	22.12
349.579	40.33
349.796	16.69
350.012	-11.4
350.229	32.39
350.445	23.28
350.661	-12.17
350.878	29.48
351.094	28.9
351.311	38.98
351.527	25.99
351.743	-0.55
351.96	58.35
352.176	45.18
352.392	54.09
352.609	28.51
352.825	28.13
353.041	2.55
353.257	13.01
353.474	18.05
353.69	27.74
353.906	20.76
354.122	-3.26
354.339	40.33
354.555	26.58
354.771	7.78
354.987	76.37
355.203	58.74
355.42	1.39
355.636	19.41
355.852	-14.31
356.068	7.2
356.284	-24.19
356.5	43.63
356.716	48.66
356.932	17.08
357.148	34.71
357.364	12.24
357.58	80.82
357.796	57.58
358.012	57.96
358.228	43.63
358.444	-49.37
358.66	90.51
358.876	60.29
359.092	-3.84
359.308	34.71
359.524	54.67
359.74	5.65
359.956	37.04
360.172	13.21
360.388	77.72
360.604	7.78
360.819	105.24
361.035	53.12
361.251	41.49
361.467	0.23
361.683	67.07
361.898	40.53
362.114	73.85
362.33	27.16
362.546	47.89
362.762	33.16
362.977	38.59
363.193	-2.1
363.409	55.64
363.624	-2.49
363.84	-5.78
364.056	-2.1
364.271	34.91
364.487	57.38
364.703	2.55
364.918	18.83
365.134	26.96
365.35	5.46
365.565	134.49
365.781	38.39
365.996	47.5
366.212	98.26
366.427	28.51
366.643	6.62
366.858	37.43
367.074	-12.56
367.289	68.04
367.505	121.12
367.72	0.81
367.936	1
368.151	67.65
368.367	53.31
368.582	22.51
368.798	35.88
369.013	84.12
369.228	46.34
369.444	28.9
369.659	70.17
369.874	38.39
370.09	90.32
370.305	-38.72
370.52	-17.4
370.736	86.06
370.951	32.97
371.166	82.57
371.381	108.53
371.597	67.65
371.812	-0.16
372.027	13.21
372.242	41.3
372.458	95.74
372.673	23.86
372.888	27.35
373.103	46.92
373.318	123.64
373.533	65.33
373.749	58.16
373.964	-10.04
374.179	75.4
374.394	-2.87
374.609	93.81
374.824	5.84
375.039	81.6
375.254	9.91
375.469	111.82
375.684	40.91
375.899	63.39
376.114	38.2
376.329	44.21
376.544	67.84
376.759	47.11
376.974	27.35
377.189	35.29
377.404	36.46
377.619	64.16
377.834	-6.75
378.049	-2.29
378.264	11.85
378.478	41.69
378.693	55.25
378.908	55.64
379.123	20.57
379.338	80.82
379.553	49.24
379.767	28.9
379.982	49.24
380.197	74.04
380.412	36.65
380.626	52.93
380.841	107.56
381.056	69.78
381.271	103.49
381.485	31.61
381.7	18.24
381.915	44.79
382.129	20.57
382.344	48.28
382.559	38.39
382.773	81.99
382.988	-5.59
383.202	35.88
383.417	2.36
383.632	141.66
383.846	3.91
384.061	59.51
384.275	36.84
384.49	65.91
384.704	79.08
384.919	60.68
385.133	62.23
385.348	48.86
385.562	6.62
385.777	63.97
385.991	49.24
386.206	46.34
386.42	64.55
386.634	91.09
386.849	82.57
387.063	56.61
387.277	30.64
387.492	17.47
387.706	20.38
387.92	-5.78
388.135	87.22
388.349	52.15
388.563	62.42
388.778	49.63
388.992	74.82
389.206	66.49
389.42	105.43
389.635	59.32
389.849	86.06
390.063	103.3
390.277	79.47
390.491	102.72
390.706	43.63
390.92	75.21
391.134	81.02
391.348	52.15
391.562	8.94
391.776	73.27
391.99	6.43
392.205	110.27
392.419	42.27
392.633	66.88
392.847	94
393.061	56.03
393.275	101.75
393.489	57.96
393.703	39.94
393.917	75.59
394.131	11.08
394.345	67.65
394.559	87.22
394.773	49.24
394.986	71.53
395.2	75.01
395.414	120.74
395.628	41.3
395.842	61.84
396.056	42.46
396.27	28.9
396.484	100.59
396.697	76.56
396.911	107.37
397.125	88.96
397.339	110.27
397.553	82.37
397.766	113.96
397.98	126.94
398.194	87.41
398.408	57.38
398.621	86.44
398.835	94
399.049	92.64
399.262	132.75
399.476	127.13
399.69	109.11
399.903	174.4
400.117	86.44
400.331	112.6
400.544	96.71
400.758	207.15
400.971	111.82
401.185	126.55
401.398	69.2
401.612	137.59
401.826	133.91
402.039	128.49
402.253	89.54
402.466	141.08
402.68	95.16
402.893	104.46
403.106	132.36
403.32	132.94
403.533	116.09
403.747	101.36
403.96	113.57
404.174	130.23
404.387	75.98
404.6	112.02
404.814	151.35
405.027	116.09
405.24	81.79
405.454	88.38
405.667	168.01
405.88	62.23
406.094	142.44
406.307	174.79
406.52	140.89
406.733	89.35
406.947	66.49
407.16	177.12
407.373	115.7
407.586	88.77
407.799	102.72
408.012	128.68
408.226	114.54
408.439	177.31
408.652	80.44
408.865	129.07
409.078	158.13
409.291	128.1
409.504	98.46
409.717	148.44
409.93	156.77
410.143	118.61
410.357	66.88
410.57	87.99
410.783	115.89
410.996	134.11
411.209	126.94
411.421	164.14
411.634	134.88
411.847	107.37
412.06	162.2
412.273	127.52
412.486	146.7
412.699	232.14
412.912	137.59
413.125	162.39
413.338	134.88
413.55	152.32
413.763	129.07
413.976	160.65
414.189	123.84
414.402	114.15
414.615	191.26
414.827	89.74
415.04	177.5
415.253	152.71
415.466	200.56
415.678	193
415.891	146.12
416.104	137.21
416.316	154.06
416.529	133.72
416.742	173.44
416.954	208.31
417.167	131.39
417.38	149.99
417.592	188.55
417.805	119.77
418.017	130.04
418.23	171.5
418.442	128.87
418.655	133.33
418.868	144.18
419.08	172.85
419.293	208.7
419.505	159.49
419.718	188.35
419.93	203.08
420.142	173.05
420.355	198.24
420.567	194.75
420.78	169.37
420.992	174.4
421.205	214.51
421.417	116.67
421.629	134.3
421.842	148.25
422.054	95.74
422.266	202.11
422.479	223.81
422.691	141.08
422.903	195.91
423.115	155.81
423.328	183.32
423.54	178.67
423.752	142.63
423.964	139.92
424.177	197.27
424.389	177.7
424.601	285.23
424.813	184.29
425.025	215.09
425.238	234.47
425.45	163.17
425.662	156.19
425.874	455.92
426.086	164.52
426.298	206.57
426.51	189.71
426.722	176.15
426.934	162.2
427.146	217.22
427.358	164.52
427.57	206.37
427.782	184.09
427.994	182.35
428.206	156.58
428.418	135.85
428.63	176.15
428.842	201.72
429.054	180.22
429.266	214.9
429.478	164.33
429.69	191.45
429.902	143.6
430.114	215.09
430.325	184.29
430.537	137.98
430.749	179.44
430.961	91.67
431.173	168.4
431.384	173.05
431.596	124.42
431.808	189.32
432.02	194.36
432.231	223.81
432.443	232.14
432.655	206.76
432.867	147.28
433.078	242.6
433.29	266.05
433.502	225.17
433.713	240.67
433.925	220.71
434.136	279.8
434.348	181.96
434.56	178.09
434.771	301.31
434.983	157.74
435.194	197.27
435.406	190.1
435.617	280.38
435.829	287.17
436.04	246.09
436.252	256.17
436.463	252.87
436.675	271.08
436.886	258.88
437.098	241.83
437.309	306.73
437.521	239.89
437.732	258.68
437.943	245.12
438.155	243.57
438.366	188.94
438.578	322.62
438.789	244.74
439	272.44
439.211	206.37
439.423	248.42
439.634	267.4
439.845	280.58
440.057	276.51
440.268	280.19
440.479	252.87
440.69	261.59
440.902	257.33
441.113	252.68
441.324	232.92
441.535	275.73
441.746	317
441.957	241.64
442.168	254.81
442.38	290.65
442.591	299.37
442.802	261.59
443.013	248.22
443.224	286.58
443.435	242.41
443.646	278.25
443.857	281.55
444.068	255.39
444.279	249.77
444.49	352.26
444.701	285.62
444.912	401.67
445.123	313.52
445.334	317.78
445.545	312.93
445.756	286.78
445.967	236.6
446.178	294.14
446.388	327.27
446.599	326.69
446.81	313.32
447.021	286.2
447.232	350.91
447.443	350.71
447.653	283.68
447.864	365.63
448.075	321.65
448.286	334.44
448.496	320.3
448.707	326.69
448.918	292.59
449.129	396.83
449.339	273.41
449.55	339.67
449.761	300.15
449.971	373.77
450.182	313.32
450.393	326.88
450.603	324.75
450.814	336.38
451.024	323.59
451.235	358.85
451.446	349.55
451.656	374.93
451.867	330.18
452.077	346.06
452.288	395.28
452.498	369.9
452.709	346.26
452.919	364.86
453.13	305.96
453.34	359.43
453.55	304.41
453.761	358.85
453.971	337.54
454.182	368.15
454.392	356.14
454.602	418.33
454.813	360.21
455.023	382.3
455.233	313.13
455.444	362.34
455.654	281.74
455.864	335.8
456.075	355.95
456.285	330.57
456.495	351.3
456.705	364.47
456.916	381.33
457.126	425.89
457.336	368.93
457.546	309.64
457.756	347.42
457.967	403.61
458.177	361.37
458.387	375.51
458.597	332.89
458.807	333.28
459.017	343.55
459.227	357.3
459.437	354.2
459.647	371.64
459.857	382.1
460.068	342.58
460.278	408.84
460.488	391.79
460.698	440.23
460.908	352.85
461.117	361.37
461.327	340.06
461.537	370.28
461.747	344.13
461.957	360.01
462.167	488.86
462.377	407.68
462.587	401.48
462.797	435.19
463.007	411.55
463.216	425.5
463.426	442.94
463.636	427.83
463.846	339.28
464.056	377.26
464.265	433.25
464.475	391.6
464.685	407.87
464.895	417.17
465.104	405.55
465.314	405.16
465.524	393.34
465.733	383.65
465.943	454.56
466.153	460.96
466.362	465.41
466.572	432.86
466.782	401.67
466.991	420.27
467.201	462.12
467.41	366.21
467.62	453.59
467.829	386.95
468.039	454.37
468.249	408.65
468.458	413.88
468.668	435.19
468.877	419.5
469.086	462.51
469.296	463.28
469.505	430.93
469.715	515.59
469.924	453.59
470.134	467.74
470.343	475.49
470.552	440.23
470.762	436.74
470.971	419.11
471.18	472.19
471.39	431.51
471.599	394.5
471.808	451.08
472.018	417.75
472.227	488.86
472.436	508.23
472.645	474.33
472.855	480.33
473.064	541.36
473.273	499.9
473.482	526.83
473.691	504.94
473.901	512.3
474.11	485.18
474.319	579.14
474.528	510.17
474.737	548.53
474.946	528.96
475.155	534
475.364	552.41
475.573	527.02
475.783	524.7
475.992	543.3
476.201	587.86
476.41	530.51
476.619	496.03
476.828	515.01
477.037	500.68
477.245	495.83
477.454	566.74
477.663	526.64
477.872	526.83
478.081	631.45
478.29	514.43
478.499	643.85
478.708	580.11
478.917	623.51
479.125	586.7
479.334	585.15
479.543	533.61
479.752	606.07
479.961	576.04
480.169	615.95
480.378	585.34
480.587	729.3
480.796	631.45
481.004	644.24
481.213	639.59
481.422	640.37
481.63	617.12
481.839	643.27
482.048	687.83
482.256	638.43
482.465	667.49
482.674	668.65
482.882	684.73
483.091	733.37
483.299	665.36
483.508	714.57
483.716	686.28
483.925	671.37
484.134	659.74
484.342	676.79
484.551	691.71
484.759	726.97
484.967	708.37
485.176	713.02
485.384	730.65
485.593	701.2
485.801	690.93
486.01	661.29
486.218	653.93
486.426	583.99
486.635	606.46
486.843	612.85
487.051	655.29
487.26	619.25
487.468	669.24
487.676	691.52
487.885	652.19
488.093	676.79
488.301	698.3
488.509	741.7
488.717	763.01
488.926	760.68
489.134	704.88
489.342	726.2
489.55	719.61
489.758	703.53
489.967	738.6
490.175	840.12
490.383	735.3
490.591	830.63
490.799	701.2
491.007	825.2
491.215	753.32
491.423	784.9
491.631	761.65
491.839	775.21
492.047	782
492.255	739.76
492.463	709.34
492.671	742.08
492.879	832.76
493.087	759.33
493.295	788.58
493.503	809.7
493.711	819.39
493.919	833.73
494.127	803.89
494.334	852.52
494.542	786.84
494.75	848.45
494.958	806.21
495.166	873.44
495.374	857.95
495.581	853.88
495.789	833.15
495.997	906.96
496.205	832.18
496.412	815.71
496.62	826.17
496.828	866.47
497.035	853.1
497.243	869.38
497.451	860.46
497.658	865.5
497.866	846.13
498.074	904.06
498.281	840.7
498.489	944.36
498.696	868.6
498.904	830.05
499.112	829.46
499.319	924.79
499.527	852.52
499.734	892.43
499.942	838.96
500.149	845.35
500.357	867.05
500.564	862.21
500.771	870.93
500.979	824.43
501.186	810.28
501.394	874.61
501.601	871.12
501.808	858.72
502.016	865.69
502.223	829.85
502.43	870.93
502.638	876.16
502.845	839.93
503.052	942.42
503.26	859.49
503.467	945.91
503.674	851.75
503.881	895.73
504.089	995.31
504.296	942.03
504.503	837.41
504.71	874.99
504.917	844
505.125	912.78
505.332	886.43
505.539	937.58
505.746	999.19
505.953	958.31
506.16	949.39
506.367	986.79
506.574	996.09
506.781	993.96
506.988	911.81
507.195	958.5
507.402	967.41
507.609	991.24
507.816	929.83
508.023	935.06
508.23	917.81
508.437	900.57
508.644	945.13
508.851	1000.74
509.058	985.43
509.265	958.31
509.472	962.76
509.679	1075.72
509.885	983.88
510.092	986.21
510.299	974
510.506	959.47
510.713	989.69
510.92	1010.42
511.126	1004.03
511.333	1008.1
511.54	1024.18
511.746	1055.37
511.953	1049.75
512.16	1051.5
512.367	1025.15
512.573	992.79
512.78	1019.14
512.987	1012.56
513.193	1037.55
513.4	939.13
513.606	996.86
513.813	1016.24
514.02	1034.84
514.226	1075.52
514.433	1076.69
514.639	972.26
514.846	1018.37
515.052	974.39
515.259	1018.17
515.465	1019.34
515.672	1027.47
515.878	1093.54
516.085	1053.63
516.291	1099.35
516.497	1055.18
516.704	1000.93
516.91	938.35
517.117	937.96
517.323	896.31
517.529	928.86
517.736	926.53
517.942	960.24
518.148	949.01
518.354	979.04
518.561	971.29
518.767	969.74
518.973	1010.04
519.179	1048.98
519.386	1013.72
519.592	1029.8
519.798	975.74
520.004	1101.29
520.21	1038.32
520.417	1098.97
520.623	1122.6
520.829	1117.57
521.035	1134.03
521.241	1117.37
521.447	1143.53
521.653	1235.36
521.859	1154.18
522.065	1172.59
522.271	1232.26
522.477	1178.21
522.683	1232.46
522.889	1196.23
523.095	1198.94
523.301	1144.69
523.507	1129.77
523.713	1185.38
523.919	1162.9
524.125	1248.35
524.331	1200.3
524.537	1268.5
524.742	1259.2
524.948	1267.72
525.154	1285.16
525.36	1327.59
525.566	1255.51
525.772	1315.19
525.977	1199.91
526.183	1292.33
526.389	1289.81
526.595	1258.03
526.8	1199.91
527.006	1176.27
527.212	1142.75
527.417	1116.6
527.623	1123.77
527.829	1202.43
528.034	1210.95
528.24	1246.02
528.446	1235.95
528.651	1293.3
528.857	1313.64
529.062	1367.11
529.268	1295.23
529.473	1314.99
529.679	1294.85
529.884	1399.66
530.09	1361.69
530.295	1351.23
530.501	1339.6
530.706	1348.32
530.912	1337.28
531.117	1338.24
531.323	1347.74
531.528	1412.64
531.733	1384.16
531.939	1364.21
532.144	1391.52
532.35	1363.43
532.555	1420.2
532.76	1385.32
532.966	1353.94
533.171	1407.02
533.376	1360.91
533.581	1297.75
533.787	1376.99
533.992	1393.07
534.197	1411.67
534.402	1347.74
534.607	1391.52
534.813	1486.85
535.018	1382.03
535.223	1414
535.428	1390.17
535.633	1456.24
535.838	1440.35
536.043	1442.67
536.249	1543.81
536.454	1444.61
536.659	1455.07
536.864	1455.46
537.069	1443.45
537.274	1446.74
537.479	1466.31
537.684	1476.19
537.889	1429.31
538.094	1537.8
538.299	1448.49
538.504	1461.08
538.708	1445.97
538.913	1470.19
539.118	1446.36
539.323	1483.55
539.528	1500.02
539.733	1459.92
539.938	1508.55
540.142	1452.75
540.347	1455.66
540.552	1421.36
540.757	1445.19
540.962	1449.07
541.166	1400.63
541.371	1392.88
541.576	1453.72
541.781	1356.26
541.985	1469.22
542.19	1439.57
542.395	1523.47
542.599	1574.42
542.804	1517.46
543.008	1545.17
543.213	1483.94
543.418	1466.89
543.622	1512.23
543.827	1406.83
544.031	1571.52
544.236	1553.69
544.44	1496.92
544.645	1591.67
544.849	1512.62
545.054	1504.09
545.258	1639.91
545.463	1577.33
545.667	1514.75
545.872	1533.15
546.076	1562.6
546.281	1538
546.485	1503.32
546.689	1563.57
546.894	1602.32
547.098	1540.71
547.302	1501.77
547.507	1549.82
547.711	1550.01
547.915	1574.81
548.119	1537.8
548.324	1486.65
548.528	1608.72
548.732	1514.17
548.936	1580.62
549.141	1583.92
549.345	1538.97
549.549	1550.01
549.753	1553.11
549.957	1630.03
550.161	1648.43
550.366	1548.85
550.57	1529.67
550.774	1598.25
550.978	1566.87
551.182	1590.7
551.386	1510.29
551.59	1564.35
551.794	1537.61
551.998	1586.05
552.202	1545.55
552.406	1521.34
552.61	1588.57
552.814	1579.85
553.018	1643.78
553.222	1575.78
553.426	1534.51
553.63	1642.82
553.833	1545.55
554.037	1507.19
554.241	1614.33
554.445	1566.48
554.649	1573.84
554.853	1545.17
555.056	1598.25
555.26	1594.57
555.464	1547.69
555.668	1591.86
555.871	1604.07
556.075	1591.86
556.279	1546.72
556.483	1536.45
556.686	1550.4
556.89	1553.3
557.094	1567.06
557.297	1507.77
557.501	1568.03
557.704	1432.79
557.908	1549.04
558.112	1502.74
558.315	1587.79
558.519	1480.65
558.722	1497.31
558.926	1471.15
559.129	1466.12
559.333	1430.66
559.536	1436.67
559.74	1444.22
559.943	1443.84
560.147	1414
560.35	1453.52
560.553	1455.27
560.757	1396.17
560.96	1540.71
561.164	1450.23
561.367	1534.32
561.57	1495.57
561.774	1516.88
561.977	1447.13
562.18	1421.36
562.384	1518.62
562.587	1426.4
562.79	1423.49
562.993	1463.6
563.197	1466.12
563.4	1521.92
563.603	1511.26
563.806	1553.69
564.009	1420.39
564.212	1461.66
564.416	1387.84
564.619	1472.51
564.822	1420.01
565.025	1502.35
565.228	1454.88
565.431	1439.38
565.634	1366.53
565.837	1380.68
566.04	1353.55
566.243	1376.99
566.446	1292.91
566.649	1419.04
566.852	1345.03
567.055	1355.1
567.258	1400.05
567.461	1444.42
567.664	1422.52
567.867	1331.27
568.07	1383.19
568.273	1400.63
568.475	1430.47
568.678	1359.56
568.881	1326.23
569.084	1346.58
569.287	1237.69
569.489	1261.71
569.692	1324.49
569.895	1323.91
570.098	1264.43
570.3	1297.75
570.503	1263.26
570.706	1242.92
570.909	1250.48
571.111	1224.32
571.314	1215.99
571.516	1277.21
571.719	1268.11
571.922	1251.25
572.124	1234.01
572.327	1280.7
572.529	1209.98
572.732	1201.27
572.935	1258.81
573.137	1330.49
573.34	1212.7
573.542	1253.96
573.745	1245.44
573.947	1285.35
574.15	1231.3
574.352	1238.85
574.554	1307.63
574.757	1208.82
574.959	1187.7
575.162	1174.92
575.364	1186.35
575.566	1285.74
575.769	1151.28
575.971	1203.4
576.173	1106.14
576.376	1192.16
576.578	1231.49
576.78	1268.69
576.982	1135.39
577.185	1155.93
577.387	1162.9
577.589	1157.67
577.791	1205.14
577.993	1218.7
578.196	1197.39
578.398	1215.21
578.6	1192.35
578.802	1109.24
579.004	1151.28
579.206	1160.77
579.408	1165.42
579.61	1135
579.812	1206.88
580.014	1153.41
580.216	1121.25
580.418	1165.81
580.62	1120.67
580.822	1063.32
581.024	1161.74
581.226	1207.08
581.428	1128.03
581.63	1239.82
581.832	1125.12
582.034	1197.78
582.236	1172.78
582.438	1173.95
582.64	1221.8
582.841	1222.38
583.043	1244.86
583.245	1181.12
583.447	1191
583.649	1155.54
583.85	1184.8
584.052	1209.21
584.254	1134.81
584.456	1242.15
584.657	1133.07
584.859	1176.27
585.061	1151.28
585.262	1164.45
585.464	1127.64
585.666	1176.66
585.867	1136.75
586.069	1197.78
586.27	1169.1
586.472	1161.93
586.674	1136.36
586.875	1144.5
587.077	1117.37
587.278	1139.46
587.48	1132.1
587.681	1208.43
587.883	1141.78
588.084	1068.74
588.285	1106.72
588.487	1085.21
588.688	1116.79
588.89	1061.19
589.091	1014.11
589.292	1048.4
589.494	1037.74
589.695	978.65
589.896	906.38
590.098	943.97
590.299	999.77
590.5	975.94
590.702	1007.52
590.903	1004.61
591.104	1102.45
591.305	1030.38
591.507	1072.04
591.708	1071.65
591.909	1010.04
592.11	1100.32
592.311	1091.02
592.512	1033.87
592.714	978.46
592.915	997.64
593.116	1011.59
593.317	1039.68
593.518	1045.49
593.719	1029.61
593.92	1054.79
594.121	1107.1
594.322	1043.55
594.523	1048.01
594.724	986.98
594.925	1008.68
595.126	1042.97
595.327	1033.87
595.528	1037.35
595.729	1037.16
595.929	1021.66
596.13	1034.25
596.331	1052.08
596.532	1061.19
596.733	1085.6
596.934	1059.83
597.135	1097.8
597.335	1033.67
597.536	1010.23
597.737	1038.32
597.938	1013.72
598.138	1053.24
598.339	1031.35
598.54	1033.67
598.74	1011.59
598.941	1043.55
599.142	1062.35
599.342	1050.72
599.543	1000.35
599.744	1024.37
599.944	1020.11
600.145	1014.3
600.345	1016.82
600.546	1110.79
600.746	1054.02
600.947	1098
601.147	1054.02
601.348	1098
601.548	1007.52
601.749	1023.21
601.949	948.42
602.15	1013.33
602.35	1002.87
602.551	1025.54
602.751	990.66
602.951	991.24
603.152	935.06
603.352	1052.08
603.552	1023.21
603.753	1062.35
603.953	1030.38
604.153	1044.91
604.354	1014.3
604.554	1025.15
604.754	1016.04
604.954	971.67
605.155	1019.14
605.355	989.31
605.555	1059.44
605.755	1077.65
605.955	1018.37
606.155	1045.1
606.356	1003.45
606.556	1048.01
606.756	1024.96
606.956	956.17
607.156	1077.65
607.356	982.91
607.556	1011.39
607.756	1015.66
607.956	1072.62
608.156	997.06
608.356	994.15
608.556	1055.37
608.756	1017.01
608.956	963.73
609.156	1010.62
609.356	973.22
609.556	963.34
609.755	969.74
609.955	963.34
610.155	996.47
610.355	989.89
610.555	965.86
610.755	957.14
610.954	930.41
611.154	984.46
611.354	998.8
611.554	947.46
611.753	993.18
611.953	907.16
612.153	1007.32
612.352	998.61
612.552	923.24
612.752	894.37
612.951	943.97
613.151	949.39
613.351	925.37
613.55	931.57
613.75	956.56
613.949	930.99
614.149	940.48
614.348	947.07
614.548	921.49
614.747	886.81
614.947	923.82
615.146	857.17
615.346	940.09
615.545	944.16
615.745	964.51
615.944	943.78
616.144	952.49
616.343	935.83
616.542	905.22
616.742	936.8
616.941	903.67
617.14	860.66
617.34	894.95
617.539	889.33
617.738	885.26
617.938	973.22
618.137	925.37
618.336	848.26
618.535	933.7
618.734	910.64
618.934	896.31
619.133	913.36
619.332	944.55
619.531	876.35
619.73	912.58
619.929	918.39
620.128	912.78
620.328	931.96
620.527	883.13
620.726	884.1
620.925	876.16
621.124	882.74
621.323	907.74
621.522	880.23
621.721	852.71
621.92	849.61
622.119	916.84
622.318	856.98
622.517	872.86
622.715	852.91
622.914	811.25
623.113	870.93
623.312	806.21
623.511	881.58
623.71	833.92
623.909	851.75
624.107	898.05
624.306	811.83
624.505	812.41
624.704	875.19
624.902	834.5
625.101	893.79
625.3	848.06
625.499	819.39
625.697	803.5
625.896	816.87
626.095	853.68
626.293	788.39
626.492	789.36
626.69	867.05
626.889	807.38
627.088	891.08
627.286	784.13
627.485	798.85
627.683	821.52
627.882	814.16
628.08	749.45
628.279	782.38
628.477	866.08
628.676	799.63
628.874	795.95
629.073	743.83
629.271	778.12
629.469	794.59
629.668	811.64
629.866	776.76
630.065	783.35
630.263	789.36
630.461	786.26
630.66	800.4
630.858	777.54
631.056	812.61
631.254	815.9
631.453	769.98
631.651	818.23
631.849	797.3
632.047	790.52
632.245	777.73
632.444	807.57
632.642	803.89
632.84	833.34
633.038	755.26
633.236	760.49
633.434	763.78
633.632	743.63
633.83	741.7
634.028	824.43
634.227	778.12
634.425	865.5
634.623	775.8
634.821	810.67
635.019	806.21
635.216	770.76
635.414	800.4
635.612	794.2
635.81	797.88
636.008	844
636.206	780.25
636.404	825.2
636.602	752.55
636.8	795.56
636.997	830.43
637.195	799.43
637.393	795.36
637.591	818.23
637.789	782
637.986	781.8
638.184	794.78
638.382	837.8
638.58	827.91
638.777	847.1
638.975	776.96
639.173	819
639.37	784.13
639.568	806.99
639.765	783.93
639.963	776.38
640.161	844.96
640.358	841.67
640.556	753.52
640.753	758.75
640.951	743.44
641.148	783.55
641.346	788.2
641.543	788.78
641.741	811.06
641.938	729.3
642.136	789.55
642.333	753.52
642.531	813.38
642.728	812.8
642.925	788.39
643.123	780.25
643.32	788.78
643.517	771.73
643.715	794.78
643.912	770.76
644.109	765.72
644.306	770.57
644.504	777.93
644.701	742.28
644.898	778.7
645.095	723.1
645.293	774.63
645.49	781.22
645.687	782.96
645.884	779.09
646.081	696.94
646.278	728.72
646.475	691.13
646.672	717.28
646.87	767.47
647.067	751.58
647.264	739.18
647.461	683.57
647.658	679.89
647.855	751.97
648.052	680.47
648.249	648.31
648.446	687.45
648.642	696.36
648.839	681.25
649.036	658
649.233	656.64
649.43	641.34
649.627	645.21
649.824	652.19
650.021	666.52
650.217	625.84
650.414	654.51
650.611	713.99
650.808	686.48
651.004	704.5
651.201	702.75
651.398	741.89
651.595	685.9
651.791	673.11
651.988	703.14
652.185	657.8
652.381	695.39
652.578	616.92
652.775	684.73
652.971	683.38
653.168	676.79
653.364	696.55
653.561	608.4
653.757	693.07
653.954	676.79
654.15	642.89
654.347	741.89
654.543	650.83
654.74	617.12
654.936	650.64
655.133	676.99
655.329	655.48
655.525	637.27
655.722	689.19
655.918	614.79
656.115	658
656.311	571.78
656.507	582.05
656.704	533.22
656.9	545.62
657.096	558.41
657.292	571.78
657.489	618.09
657.685	600.26
657.881	610.72
658.077	592.32
658.273	624.09
658.47	686.87
658.666	639.59
658.862	664.78
659.058	622.35
659.254	654.51
659.45	620.8
659.646	646.18
659.842	628.16
660.038	675.05
660.234	595.03
660.43	631.65
660.626	718.25
660.822	685.9
661.018	663.62
661.214	616.54
661.41	587.67
661.606	670.4
661.802	679.12
661.998	641.92
662.194	612.27
662.39	664.2
662.586	627.77
662.781	673.89
662.977	691.52
663.173	670.2
663.369	653.35
663.564	663.81
663.76	671.56
663.956	627.77
664.152	672.92
664.347	590.38
664.543	629.13
664.739	611.3
664.934	585.15
665.13	571.97
665.326	650.64
665.521	639.79
665.717	584.76
665.912	590.19
666.108	540.97
666.304	604.72
666.499	605.49
666.695	539.81
666.89	588.64
667.086	635.33
667.281	625.45
667.477	686.28
667.672	611.3
667.867	628.16
668.063	625.45
668.258	566.74
668.454	612.27
668.649	663.04
668.844	631.26
669.04	641.92
669.235	593.67
669.43	599.1
669.626	563.45
669.821	610.92
670.016	571.39
670.211	607.43
670.407	552.02
670.602	603.36
670.797	584.37
670.992	645.4
671.187	592.51
671.382	641.14
671.578	596.97
671.773	610.53
671.968	536.91
672.163	589.22
672.358	608.59
672.553	592.32
672.748	577.59
672.943	642.69
673.138	571.59
673.333	608.01
673.528	540.39
673.723	593.87
673.918	583.6
674.113	542.52
674.308	639.4
674.503	609.95
674.698	613.24
674.892	583.6
675.087	624.67
675.282	592.71
675.477	570.23
675.672	621.96
675.867	574.49
676.061	554.15
676.256	540.78
676.451	543.49
676.646	564.03
676.84	553.96
677.035	523.34
677.23	526.44
677.424	579.72
677.619	611.11
677.814	596.19
678.008	598.32
678.203	501.64
678.397	545.24
678.592	569.26
678.787	629.52
678.981	556.09
679.176	598.52
679.37	551.24
679.565	544.27
679.759	570.04
679.954	604.33
680.148	607.82
680.342	576.62
680.537	597.55
680.731	542.33
680.926	564.22
681.12	624.87
681.314	540.39
681.509	557.44
681.703	551.44
681.897	573.52
682.092	540.78
682.286	554.73
682.48	626.22
682.674	608.4
682.869	546.21
683.063	589.22
683.257	602
683.451	555.31
683.645	587.28
683.839	573.14
684.034	559.57
684.228	603.94
684.422	528.38
684.616	510.94
684.81	556.09
685.004	596.19
685.198	565.97
685.392	589.41
685.586	534.19
685.78	569.26
685.974	594.06
686.168	563.84
686.362	621.38
686.556	509.59
686.75	514.43
686.944	497.58
687.138	509.78
687.331	392.95
687.525	448.36
687.719	376.29
687.913	420.27
688.107	467.35
688.301	415.23
688.494	468.32
688.688	414.65
688.882	396.44
689.076	387.91
689.269	428.79
689.463	518.31
689.657	477.23
689.85	455.53
690.044	445.26
690.238	454.76
690.431	454.18
690.625	463.09
690.818	491.96
691.012	505.71
691.205	510.75
691.399	449.91
691.593	494.09
691.786	540.39
691.98	543.3
692.173	601.81
692.366	548.53
692.56	565.77
692.753	599.68
692.947	493.89
693.14	576.62
693.333	604.52
693.527	525.47
693.72	565.77
693.914	568.87
694.107	541.56
694.3	580.11
694.493	561.32
694.687	596
694.88	533.42
695.073	639.98
695.266	607.82
695.46	591.16
695.653	639.79
695.846	625.25
696.039	544.07
696.232	582.24
696.425	614.79
696.618	625.25
696.812	633.39
697.005	713.8
697.198	765.53
697.391	670.2
697.584	688.61
697.777	755.65
697.97	711.28
698.163	756.23
698.356	704.88
698.549	822.1
698.742	765.72
698.935	712.63
699.127	736.27
699.32	707.4
699.513	738.6
699.706	743.05
699.899	773.08
700.092	694.62
700.285	768.82
700.477	718.06
700.67	749.64
700.863	788.58
701.056	875.96
701.248	837.41
701.441	838.76
701.634	798.46
701.826	877.9
702.019	798.27
702.212	872.86
702.404	783.93
702.597	815.9
702.79	837.99
702.982	864.14
703.175	894.18
703.367	895.14
703.56	901.34
703.752	985.24
703.945	925.37
704.137	968.77
704.33	921.88
704.522	947.07
704.715	961.21
704.907	984.46
705.1	1021.66
705.292	1001.32
705.484	984.66
705.677	1035.42
705.869	1073.2
706.061	1052.08
706.254	1069.13
706.446	1036
706.638	1046.65
706.831	1140.04
707.023	1060.02
707.215	1162.71
707.407	1136.75
707.599	1145.08
707.792	1180.15
707.984	1181.7
708.176	1212.31
708.368	1142.17
708.56	1206.69
708.752	1180.15
708.944	1169.49
709.136	1236.53
709.329	1196.23
709.521	1301.24
709.713	1280.31
709.905	1307.44
710.097	1300.85
710.289	1257.65
710.481	1285.55
710.672	1303.37
710.864	1314.61
711.056	1332.82
711.248	1358.78
711.44	1313.64
711.632	1333.01
711.824	1371.38
712.016	1414.58
712.207	1395.98
712.399	1423.69
712.591	1488.2
712.783	1445
712.975	1445.19
713.166	1441.12
713.358	1434.73
713.55	1488.01
713.741	1485.88
713.933	1500.99
714.125	1493.24
714.316	1474.64
714.508	1560.86
714.7	1545.36
714.891	1537.61
715.083	1588.95
715.274	1561.05
715.466	1559.5
715.657	1608.91
715.849	1497.7
716.04	1572.48
716.232	1512.42
716.423	1593.8
716.615	1510.29
716.806	1515.33
716.998	1482.59
717.189	1392.69
717.381	1375.25
717.572	1327.59
717.763	1389.2
717.955	1330.69
718.146	1359.17
718.337	1306.66
718.528	1268.88
718.72	1227.61
718.911	1276.44
719.102	1259.39
719.293	1291.55
719.485	1271.01
719.676	1263.26
719.867	1213.66
720.058	1232.26
720.249	1246.6
720.44	1274.7
720.632	1312.67
720.823	1365.18
721.014	1441.51
721.205	1465.73
721.396	1538.77
721.587	1593.8
721.778	1616.47
721.969	1643.2
722.16	1719.93
722.351	1704.62
722.542	1812.15
722.733	1837.92
722.924	1710.05
723.115	1784.25
723.305	1758.48
723.496	1800.14
723.687	1693.58
723.878	1752.48
724.069	1707.91
724.26	1711.79
724.45	1654.05
724.641	1684.86
724.832	1686.41
725.023	1670.71
725.213	1729.81
725.404	1706.75
725.595	1682.73
725.785	1667.23
725.976	1721.48
726.167	1696.48
726.357	1736.39
726.548	1826.29
726.739	1755.19
726.929	1833.66
727.12	1805.95
727.31	1892.36
727.501	1833.46
727.691	1823.19
727.882	1795.49
728.072	1863.88
728.263	1874.15
728.453	1905.15
728.644	1903.6
728.834	1896.82
729.024	1853.42
729.215	1885
729.405	1925.3
729.596	1977.8
729.786	1985.36
729.976	2013.07
730.167	2019.85
730.357	1965.02
730.547	2005.32
730.737	2049.1
730.928	2080.49
731.118	2076.42
731.308	2069.64
731.498	2074.48
731.688	2135.13
731.879	2149.08
732.069	2207.39
732.259	2234.33
732.449	2254.86
732.639	2300.39
732.829	2325.77
733.019	2347.09
733.209	2411.41
733.399	2428.65
733.589	2481.55
733.779	2502.67
733.969	2494.92
734.159	2578.81
734.349	2603.22
734.539	2673.74
734.729	2654.56
734.919	2668.32
735.109	2725.47
735.299	2662.51
735.488	2706.49
735.678	2703.58
735.868	2735.36
736.058	2720.05
736.248	2707.65
736.437	2665.8
736.627	2627.05
736.817	2782.82
737.007	2734
737.196	2775.85
737.386	2740.78
737.576	2758.61
737.765	2822.74
737.955	2772.56
738.144	2907.21
738.334	2864.2
738.524	2777.21
738.713	2820.22
738.903	2784.18
739.092	2928.13
739.282	2889.97
739.471	2923.68
739.661	2913.99
739.85	2953.9
740.04	2930.07
740.229	2954.48
740.419	3023.65
740.608	3006.99
740.797	2958.36
740.987	3033.53
741.176	3032.76
741.365	3006.02
741.555	2940.34
741.744	3068.6
741.933	3016.48
742.123	3073.83
742.312	3064.73
742.501	3116.46
742.69	3130.02
742.88	3050.39
743.069	3148.42
743.258	3117.43
743.447	3181.56
743.636	3148.62
743.825	3110.84
744.014	3138.93
744.204	3171.29
744.393	3151.14
744.582	3224.95
744.771	3210.42
744.96	3177.29
745.149	3188.34
745.338	3137.57
745.527	3239.29
745.716	3206.16
745.905	3146.87
746.094	3198.61
746.283	3230.19
746.471	3236.19
746.66	3276.88
746.849	3295.87
747.038	3273.78
747.227	3220.89
747.416	3252.66
747.604	3185.62
747.793	3207.32
747.982	3240.07
748.171	3248.2
748.359	3265.84
748.548	3269.13
748.737	3292.77
748.926	3230.38
749.114	3141.84
749.303	3266.61
749.491	3253.63
749.68	3202.09
749.869	3277.27
750.057	3167.61
750.246	3216.82
750.434	3226.12
750.623	3226.31
750.811	3203.26
751	3230.96
751.188	3242.39
751.377	3215.46
751.565	3179.04
751.754	3172.84
751.942	3165.67
752.131	3236
752.319	3156.56
752.507	3133.12
752.696	3192.41
752.884	3228.05
753.072	3162.37
753.261	3184.07
753.449	3219.72
753.637	3169.16
753.825	3258.86
754.014	3141.06
754.202	3197.44
754.39	3200.93
754.578	3267.97
754.766	3155.01
754.955	3127.69
755.143	3241.81
755.331	3197.25
755.519	3193.37
755.707	3138.93
755.895	3134.86
756.083	3171.29
756.271	3116.84
756.459	3110.64
756.647	3171.48
756.835	3112
757.023	3139.51
757.211	3162.76
757.399	3152.69
757.587	3126.34
757.775	3049.23
757.963	3137.38
758.151	3115.29
758.339	3035.08
758.526	3046.13
758.714	3061.24
758.902	2967.08
759.09	2880.08
759.278	2713.27
759.465	2473.6
759.653	2185.11
759.841	2000.28
760.028	1682.73
760.216	1494.79
760.404	1345.61
760.591	1107.49
760.779	971.09
760.967	865.69
761.154	685.9
761.342	736.66
761.529	758.17
761.717	763.59
761.905	746.93
762.092	827.72
762.28	789.75
762.467	780.83
762.655	706.43
762.842	748.28
763.029	754.48
763.217	776.96
763.404	759.72
763.592	794.4
763.779	738.21
763.966	820.16
764.154	846.51
764.341	907.16
764.528	892.43
764.716	944.74
764.903	1010.62
765.09	1048.98
765.277	1090.64
765.465	1263.46
765.652	1286.13
765.839	1357.81
766.026	1439.57
766.213	1522.5
766.4	1628.67
766.588	1819.32
766.775	1767.59
766.962	1916.77
767.149	1979.55
767.336	2101.61
767.523	2078.55
767.71	2238.39
767.897	2297.29
768.084	2408.12
768.271	2407.54
768.458	2460.82
768.645	2493.56
768.832	2510.61
769.019	2526.3
769.206	2554.98
769.392	2623.37
769.579	2728.38
769.766	2701.06
769.953	2634.61
770.14	2748.14
770.327	2711.14
770.513	2773.52
770.7	2818.86
770.887	2730.32
771.073	2770.23
771.26	2784.95
771.447	2749.11
771.634	2732.64
771.82	2842.5
772.007	2699.12
772.193	2790.77
772.38	2802
772.567	2773.52
772.753	2722.96
772.94	2821.57
773.126	2856.84
773.313	2843.47
773.499	2809.95
773.686	2805.88
773.872	2780.11
774.059	2805.3
774.245	2765.39
774.432	2773.14
774.618	2716.76
774.804	2782.63
774.991	2719.08
775.177	2784.18
775.363	2726.83
775.55	2780.31
775.736	2689.44
775.922	2705.91
776.109	2715.79
776.295	2756.86
776.481	2752.79
776.667	2785.54
776.853	2704.94
777.04	2723.73
777.226	2693.31
777.412	2793.29
777.598	2709.2
777.784	2706.29
777.97	2651.66
778.156	2697.57
778.342	2690.41
778.528	2656.5
778.715	2609.81
778.901	2644.68
779.087	2676.46
779.272	2626.28
779.458	2600.7
779.644	2633.64
779.83	2608.26
780.016	2722.76
780.202	2660.18
780.388	2652.24
780.574	2537.15
780.76	2590.63
780.946	2626.66
781.131	2597.6
781.317	2600.31
781.503	2562.34
781.689	2545.1
781.874	2667.16
782.06	2536.96
782.246	2565.83
782.432	2563.5
782.617	2542
782.803	2574.16
782.989	2498.4
783.174	2559.82
783.36	2526.5
783.545	2534.63
783.731	2506.35
783.916	2425.75
784.102	2529.79
784.288	2512.55
784.473	2479.61
784.659	2489.1
784.844	2528.43
785.029	2443.77
785.215	2467.4
785.4	2380.99
785.586	2479.8
785.771	2360.26
785.956	2476.9
786.142	2394.36
786.327	2393.97
786.512	2416.84
786.698	2422.07
786.883	2340.89
787.068	2386.8
787.254	2427.49
787.439	2370.92
787.624	2342.82
787.809	2312.79
787.994	2356.97
788.18	2414.9
788.365	2306.59
788.55	2281.02
788.735	2316.67
788.92	2309.69
789.105	2349.02
789.29	2351.54
789.475	2276.17
789.66	2299.23
789.845	2265.71
790.03	2235.88
790.215	2311.82
790.4	2315.89
790.585	2279.08
790.77	2251.38
790.955	2201.97
791.14	2216.11
791.325	2286.06
791.51	2140.94
791.695	2227.74
791.879	2260.48
792.064	2168.65
792.249	2307.76
792.434	2177.94
792.618	2234.91
792.803	2238.2
792.988	2244.59
793.173	2254.48
793.357	2286.44
793.542	2202.94
793.727	2210.69
793.911	2279.27
794.096	2238.78
794.281	2263.77
794.465	2322.67
794.65	2219.6
794.834	2267.46
795.019	2298.07
795.203	2349.02
795.388	2263.77
795.572	2321.9
795.757	2300.78
795.941	2265.91
796.126	2262.61
796.31	2188.6
796.494	2218.24
796.679	2201.58
796.863	2233.16
797.048	2278.31
797.232	2275.4
797.416	2256.8
797.601	2292.06
797.785	2325.58
797.969	2290.12
798.153	2254.86
798.338	2269.39
798.522	2364.33
798.706	2313.37
798.89	2321.12
799.074	2404.05
799.258	2333.72
799.443	2287.8
799.627	2308.34
799.811	2295.16
799.995	2273.46
800.179	2312.79
800.363	2245.56
800.547	2324.81
800.731	2327.32
800.915	2237.23
801.099	2229.87
801.283	2313.76
801.467	2235.68
801.651	2225.03
801.835	2309.11
802.019	2288.38
802.202	2261.26
802.386	2189.96
802.57	2208.75
802.754	2269.01
802.938	2243.63
803.121	2206.43
803.305	2304.07
803.489	2283.34
803.673	2250.79
803.856	2269.2
804.04	2238.01
804.224	2237.81
804.407	2246.92
804.591	2214.95
804.775	2234.33
804.958	2243.63
805.142	2356.97
805.326	2308.53
805.509	2268.23
805.693	2285.47
805.876	2305.43
806.06	2281.02
806.243	2264.16
806.427	2272.69
806.61	2313.37
806.794	2260.09
806.977	2316.09
807.16	2275.98
807.344	2275.4
807.527	2292.45
807.71	2246.73
807.894	2250.02
808.077	2308.14
808.26	2247.11
808.444	2238.2
808.627	2307.95
808.81	2255.83
808.993	2175.81
809.177	2192.09
809.36	2192.09
809.543	2245.95
809.726	2157.21
809.909	2117.11
810.092	2133.77
810.276	2135.32
810.459	2136.29
810.642	2113.81
810.825	2059.95
811.008	2116.33
811.191	2020.82
811.374	2037.87
811.557	2030.7
811.74	2101.03
811.923	1982.07
812.106	2007.25
812.289	1926.07
812.472	1948.74
812.654	1958.04
812.837	1947.58
813.02	1881.9
813.203	1886.16
813.386	1747.24
813.569	1803.63
813.751	1730
813.934	1758.09
814.117	1721.28
814.3	1681.37
814.482	1638.36
814.665	1629.45
814.848	1583.33
815.03	1505.06
815.213	1577.33
815.396	1535.87
815.578	1531.99
815.761	1475.8
815.943	1548.27
816.126	1486.85
816.309	1435.31
816.491	1363.43
816.674	1314.99
816.856	1369.44
817.039	1376.8
817.221	1461.27
817.403	1425.82
817.586	1417.29
817.768	1413.81
817.951	1338.63
818.133	1318.29
818.315	1349.29
818.498	1406.44
818.68	1470.77
818.862	1425.43
819.045	1449.07
819.227	1430.66
819.409	1397.72
819.591	1454.3
819.774	1428.92
819.956	1410.71
820.138	1462.05
820.32	1465.54
820.502	1535.09
820.684	1549.62
820.866	1535.87
821.048	1612.78
821.231	1605.81
821.413	1596.51
821.595	1596.9
821.777	1612.78
821.959	1568.03
822.141	1632.93
822.323	1489.56
822.505	1491.69
822.686	1425.24
822.868	1365.95
823.05	1265.78
823.232	1268.69
823.414	1202.04
823.596	1276.05
823.778	1255.9
823.96	1266.75
824.141	1282.83
824.323	1312.48
824.505	1381.26
824.687	1416.52
824.868	1445.39
825.05	1531.8
825.232	1550.2
825.413	1637.97
825.595	1550.59
825.777	1518.43
825.958	1569
826.14	1558.34
826.321	1580.04
826.503	1554.85
826.685	1572.68
826.866	1590.12
827.048	1544.78
827.229	1542.07
827.411	1493.63
827.592	1457.4
827.773	1463.79
827.955	1389.39
828.136	1417.49
828.318	1369.63
828.499	1435.7
828.68	1373.12
828.862	1435.12
829.043	1467.09
829.224	1398.31
829.406	1376.99
829.587	1390.36
829.768	1406.44
829.949	1436.67
830.131	1398.69
830.312	1454.49
830.493	1362.85
830.674	1411.87
830.855	1409.54
831.036	1398.69
831.218	1463.02
831.399	1475.8
831.58	1425.24
831.761	1407.99
831.942	1409.93
832.123	1400.24
832.304	1376.22
832.485	1353.94
832.666	1404.7
832.847	1402.18
833.028	1376.22
833.209	1420.01
833.389	1380.87
833.57	1330.49
833.751	1359.94
833.932	1437.44
834.113	1377.19
834.294	1357.62
834.475	1413.61
834.655	1474.64
834.836	1472.7
835.017	1420.59
835.198	1391.72
835.378	1418.07
835.559	1492.27
835.74	1441.32
835.92	1401.41
836.101	1395.01
836.281	1432.02
836.462	1456.24
836.643	1456.24
836.823	1523.85
837.004	1481.04
837.184	1512.42
837.365	1486.27
837.545	1490.92
837.726	1432.02
837.906	1540.9
838.087	1485.69
838.267	1461.08
838.448	1416.32
838.628	1475.22
838.808	1432.79
838.989	1523.47
839.169	1420.01
839.349	1504.09
839.53	1490.53
839.71	1507.97
839.89	1440.93
840.07	1511.84
840.251	1456.04
840.431	1525.21
840.611	1447.91
840.791	1469.61
840.971	1487.82
841.151	1461.86
841.332	1435.51
841.512	1484.91
841.692	1416.71
841.872	1439.77
842.052	1455.46
842.232	1497.12
842.412	1398.89
842.592	1440.54
842.772	1454.88
842.952	1460.89
843.132	1407.02
843.312	1440.16
843.492	1399.47
843.672	1450.23
843.851	1371.18
844.031	1423.49
844.211	1435.12
844.391	1394.62
844.571	1445.97
844.751	1436.28
844.93	1445
845.11	1404.51
845.29	1443.26
845.47	1449.65
845.649	1397.34
845.829	1470.77
846.009	1400.24
846.188	1416.71
846.368	1437.64
846.547	1409.74
846.727	1449.46
846.907	1383.58
847.086	1403.54
847.266	1433.18
847.445	1428.34
847.625	1405.47
847.804	1366.92
847.984	1403.34
848.163	1373.51
848.343	1374.09
848.522	1381.64
848.701	1401.79
848.881	1317.71
849.06	1365.37
849.239	1375.06
849.419	1387.46
849.598	1338.44
849.777	1297.17
849.957	1300.85
850.136	1254.55
850.315	1270.24
850.494	1260.16
850.674	1253.96
850.853	1273.73
851.032	1277.41
851.211	1332.82
851.39	1301.24
851.569	1259.58
851.748	1263.85
851.927	1301.63
852.107	1276.83
852.286	1282.25
852.465	1234.01
852.644	1308.79
852.823	1321.78
853.002	1286.32
853.181	1265.01
853.359	1332.04
853.538	1215.99
853.717	1282.06
853.896	1210.95
854.075	1169.1
854.254	1134.23
854.433	1077.85
854.611	1134.23
854.79	1064.67
854.969	1137.33
855.148	1123.38
855.327	1115.44
855.505	1180.92
855.684	1131.32
855.863	1155.73
856.041	1108.65
856.22	1184.6
856.399	1144.3
856.577	1252.8
856.756	1208.43
856.934	1321.58
857.113	1333.98
857.291	1229.55
857.47	1176.85
857.648	1240.6
857.827	1252.03
858.005	1258.81
858.184	1203.98
858.362	1293.49
858.541	1234.4
858.719	1219.48
858.898	1188.09
859.076	1188.67
859.254	1281.28
859.433	1201.27
859.611	1173.75
859.789	1163.1
859.967	1259.39
860.146	1288.84
860.324	1191.58
860.502	1181.31
860.68	1143.53
860.859	1148.18
861.037	1212.89
861.215	1220.64
861.393	1176.85
861.571	1175.5
861.749	1141.4
861.927	1185.77
862.105	1187.7
862.283	1178.98
862.461	1153.02
862.639	1152.63
862.817	1164.65
862.995	1152.25
863.173	1138.1
863.351	1170.46
863.529	1158.25
863.707	1203.01
863.885	1165.81
864.063	1058.86
864.241	1153.6
864.418	1194.68
864.596	1122.02
864.774	1101.1
864.952	1144.69
865.129	1147.98
865.307	1100.32
865.485	1100.13
865.663	1150.89
865.84	1050.34
866.018	1095.09
866.196	968.19
866.373	1012.17
866.551	984.27
866.728	941.45
866.906	975.55
867.084	978.07
867.261	1033.67
867.439	1020.31
867.616	1055.18
867.794	1030.57
867.971	1045.1
868.149	1033.48
868.326	1083.85
868.503	1095.29
868.681	1086.57
868.858	1047.62
869.035	1016.62
869.213	1071.65
869.39	1025.92
869.567	1123.77
869.745	1030.57
869.922	1025.15
870.099	1055.95
870.276	1058.67
870.454	1073.97
870.631	1087.92
870.808	1024.96
870.985	1077.46
871.162	1102.65
871.339	1062.93
871.517	994.54
871.694	1019.72
871.871	1046.46
872.048	1029.8
872.225	998.61
872.402	1028.83
872.579	971.29
872.756	1019.92
872.933	973.61
873.11	986.21
873.287	1044.14
873.463	995.51
873.64	961.6
873.817	1010.42
873.994	1002.29
874.171	978.46
874.348	1008.1
874.524	941.26
874.701	1016.62
874.878	932.93
875.055	992.6
875.231	995.7
875.408	998.8
875.585	946.87
875.762	992.41
875.938	965.86
876.115	949.39
876.291	972.64
876.468	956.56
876.645	899.6
876.821	921.11
876.998	948.62
877.174	957.92
877.351	922.27
877.527	921.88
877.704	932.93
877.88	956.37
878.057	915.29
878.233	965.09
878.409	914.91
878.586	946.68
878.762	935.64
878.938	923.43
879.115	843.41
879.291	901.54
879.467	870.93
879.644	897.47
879.82	915.49
879.996	887.78
880.172	839.15
880.349	913.16
880.525	900.18
880.701	858.14
880.877	893.59
881.053	887.39
881.229	862.79
881.405	902.7
881.581	850.97
881.757	873.64
881.933	910.45
882.109	898.44
882.285	908.9
882.461	810.86
882.637	872.48
882.813	858.53
882.989	864.14
883.165	941.45
883.341	872.67
883.517	920.33
883.693	915.1
883.869	929.63
884.044	847.1
884.22	886.43
884.396	929.83
884.572	886.43
884.747	904.06
884.923	904.25
885.099	926.34
885.275	926.14
885.45	834.89
885.626	872.48
885.801	853.49
885.977	849.81
886.153	801.18
886.328	883.33
886.504	866.66
886.679	887.98
886.855	834.31
887.03	875.19
887.206	869.18
887.381	890.3
887.557	870.15
887.732	891.46
887.908	906.19
888.083	913.16
888.258	824.62
888.434	863.37
888.609	854.85
888.784	906.19
888.96	875.96
889.135	843.8
889.31	822.88
889.485	886.81
889.661	855.23
889.836	893.21
890.011	887.2
890.186	872.09
890.361	846.71
890.537	891.08
890.712	885.46
890.887	856.59
891.062	862.21
891.237	915.68
891.412	844.58
891.587	899.02
891.762	905.03
891.937	906.19
892.112	825.01
892.287	873.06
892.462	803.31
892.637	804.47
892.812	782.77
892.987	800.98
893.161	800.4
893.336	787.23
893.511	809.12
893.686	790.91
893.861	791.1
894.035	790.52
894.21	805.05
894.385	723.29
894.56	769.6
894.734	713.41
894.909	715.73
895.084	739.18
895.258	712.83
895.433	738.79
895.608	678.54
895.782	636.88
895.957	666.72
896.131	652.19
896.306	613.05
896.48	600.45
896.655	631.84
896.829	558.22
897.004	592.9
897.178	612.27
897.353	552.02
897.527	631.65
897.701	585.73
897.876	556.28
898.05	633.97
898.224	605.88
898.399	626.8
898.573	577.4
898.747	515.79
898.921	536.71
899.096	447.59
899.27	484.4
899.444	463.86
899.618	500.09
899.792	533.42
899.967	509.78
900.141	522.76
900.315	467.16
900.489	494.09
900.663	535.55
900.837	492.54
901.011	446.81
901.185	567.91
901.359	510.94
901.533	524.31
901.707	517.92
901.881	508.62
902.055	446.23
902.229	487.69
902.403	548.14
902.576	496.03
902.75	516.56
902.924	591.16
903.098	580.69
903.272	612.08
903.446	628.55
903.619	585.54
903.793	641.34
903.967	620.02
904.14	686.48
904.314	648.31
904.488	620.22
904.661	670.01
904.835	642.3
905.009	672.34
905.182	724.26
905.356	686.09
905.529	646.18
905.703	619.44
905.876	627.39
906.05	587.28
906.223	561.71
906.397	530.12
906.57	516.95
906.744	503.97
906.917	492.54
907.09	511.14
907.264	495.25
907.437	473.94
907.61	456.5
907.784	467.16
907.957	484.4
908.13	446.62
908.304	491.76
908.477	444.49
908.65	455.73
908.823	411.94
908.996	515.21
909.17	428.02
909.343	441.78
909.516	463.48
909.689	428.99
909.862	416.01
910.035	458.24
910.208	408.26
910.381	417.75
910.554	537.68
910.727	436.54
910.9	429.96
911.073	409.23
911.246	493.89
911.419	499.32
911.592	510.36
911.765	431.89
911.938	414.65
912.11	457.28
912.283	449.33
912.456	489.44
912.629	455.53
912.802	424.34
912.974	382.49
913.147	360.98
913.32	325.14
913.493	354.59
913.665	361.95
913.838	401.86
914.01	351.1
914.183	394.89
914.356	369.12
914.528	434.22
914.701	474.33
914.873	439.84
915.046	394.31
915.218	359.82
915.391	307.9
915.563	337.35
915.736	372.03
915.908	382.3
916.081	382.3
916.253	360.98
916.425	398.38
916.598	406.13
916.77	394.31
916.942	358.27
917.115	328.05
917.287	386.95
917.459	327.85
917.632	316.81
917.804	300.92
917.976	359.43
918.148	357.69
918.32	381.71
918.493	383.07
918.665	417.36
918.837	393.53
919.009	435.19
919.181	436.35
919.353	425.31
919.525	411.94
919.697	417.56
919.869	400.51
920.041	466.96
920.213	518.11
920.385	457.28
920.557	395.47
920.729	397.21
920.901	416.98
921.073	419.5
921.244	408.06
921.416	448.56
921.588	408.26
921.76	407.29
921.932	456.5
922.103	414.65
922.275	392.37
922.447	403.61
922.619	359.63
922.79	392.18
922.962	367.57
923.134	425.69
923.305	366.41
923.477	342.19
923.648	328.82
923.82	374.93
923.991	341.8
924.163	299.18
924.335	317.78
924.506	325.33
924.677	405.93
924.849	338.12
925.02	364.86
925.192	373.19
925.363	369.12
925.535	354.78
925.706	334.44
925.877	391.01
926.049	323.2
926.22	342.19
926.391	350.91
926.562	357.69
926.734	319.13
926.905	377.06
927.076	310.03
927.247	313.13
927.419	291.62
927.59	271.08
927.761	312.16
927.932	267.79
928.103	295.69
928.274	242.6
928.445	244.15
928.616	233.69
928.787	242.41
928.958	298.02
929.129	241.25
929.3	240.86
929.471	204.05
929.642	163.55
929.813	144.18
929.984	211.02
930.155	143.41
930.326	196.69
930.496	169.37
930.667	109.69
930.838	150.96
931.009	108.53
931.18	134.88
931.35	113.57
931.521	136.43
931.692	86.06
931.863	61.64
932.033	125.97
932.204	123.84
932.374	98.65
932.545	56.61
932.716	126.16
932.886	119.38
933.057	48.28
933.227	79.08
933.398	134.11
933.568	60.87
933.739	17.66
933.909	35.49
934.08	72.11
934.25	8.94
934.421	22.31
934.591	70.36
934.761	37.04
934.932	12.24
935.102	67.07
935.272	27.35
935.443	49.83
935.613	39.36
935.783	56.8
935.953	-27.48
936.123	186.8
936.294	19.6
936.464	5.26
936.634	55.83
936.804	7.01
936.974	-3.07
937.144	35.88
937.314	44.21
937.484	27.93
937.655	12.04
937.825	93.22
937.995	15.53
938.165	76.17
938.334	33.36
938.504	67.07
938.674	35.1
938.844	25.99
939.014	107.17
939.184	76.17
939.354	155.81
939.524	117.25
939.694	72.49
939.863	44.98
940.033	144.76
940.203	108.53
940.373	118.8
940.542	119.38
940.712	81.02
940.882	128.68
941.051	128.87
941.221	105.62
941.391	122.09
941.56	59.32
941.73	57.19
941.899	173.63
942.069	82.96
942.238	101.75
942.408	78.11
942.577	119.96
942.747	98.07
942.916	36.65
943.086	60.68
943.255	105.62
943.425	52.73
943.594	25.41
943.763	-3.26
943.933	14.56
944.102	3.91
944.271	41.11
944.441	76.95
944.61	46.14
944.779	67.07
944.948	139.14
945.117	61.06
945.287	36.46
945.456	-4.04
945.625	33.94
945.794	67.26
945.963	26.19
946.132	72.11
946.301	50.79
946.47	101.56
946.639	-3.26
946.808	37.43
946.977	76.37
947.146	112.79
947.315	26.19
947.484	111.05
947.653	69.01
947.822	50.79
947.991	44.98
948.16	133.91
948.329	113.76
948.498	62.61
948.666	55.06
948.835	92.64
949.004	20.76
949.173	37.23
949.341	57.19
949.51	76.37
949.679	93.61
949.847	88.77
950.016	157.36
950.185	86.83
950.353	48.08
950.522	36.84
950.69	112.6
950.859	61.64
951.028	128.1
951.196	75.21
951.365	34.33
951.533	81.79
951.701	99.62
951.87	94.58
952.038	30.64
952.207	60.09
952.375	120.16
952.543	77.14
952.712	67.65
952.88	51.38
953.048	128.29
953.217	95.36
953.385	63.58
953.553	114.73
953.721	12.24
953.89	43.43
954.058	38.2
954.226	25.41
954.394	64.74
954.562	12.24
954.73	65.91
954.898	50.79
955.067	107.76
955.235	55.44
955.403	116.86
955.571	122.48
955.739	73.46
955.907	23.09
956.075	52.15
956.243	37.04
956.41	82.18
956.578	33.36
956.746	14.18
956.914	47.69
957.082	82.57
957.25	80.05
957.418	66.29
957.585	63.78
957.753	101.17
957.921	14.95
958.089	63.78
958.256	74.24
958.424	70.17
958.592	77.34
958.759	57.77
958.927	73.07
959.095	38.01
959.262	75.01
959.43	47.31
959.597	35.49
959.765	71.72
959.932	13.4
960.1	108.92
960.267	44.98
960.435	60.29
960.602	99.81
960.77	37.04
960.937	31.23
961.104	76.95
961.272	24.06
961.439	41.11
961.606	84.12
961.774	82.37
961.941	43.82
962.108	69.78
962.275	63
962.443	90.71
962.61	86.44
962.777	164.33
962.944	119.77
963.111	106.21
963.278	89.54
963.446	84.51
963.613	77.14
963.78	90.71
963.947	100.97
964.114	76.56
964.281	155.03
964.448	104.27
964.615	76.17
964.782	72.69
964.949	118.22
965.116	108.53
965.282	107.76
965.449	50.79
965.616	33.16
965.783	120.35
965.95	109.11
966.117	38.98
966.283	75.79
966.45	62.81
966.617	71.91
966.784	122.67
966.95	125.39
967.117	108.34
967.284	72.3
967.45	62.23
967.617	133.72
967.784	118.99
967.95	141.27
968.117	84.89
968.283	140.11
968.45	190.68
968.616	112.21
968.783	128.29
968.949	125.97
969.116	139.72
969.282	96.91
969.449	78.69
969.615	87.22
969.781	50.21
969.948	85.86
970.114	52.34
970.28	150.19
970.447	100.59
970.613	129.46
970.779	92.84
970.945	122.29
971.112	98.65
971.278	80.24
971.444	106.59
971.61	134.3
971.776	87.02
971.942	108.92
972.108	114.73
972.275	81.02
972.441	115.89
972.607	148.25
972.773	71.91
972.939	91.67
973.105	98.26
973.271	69.01
973.437	67.07
973.602	76.37
973.768	106.01
973.934	66.88
974.1	127.32
974.266	14.56
974.432	107.95
974.598	68.81
974.763	143.41
974.929	92.26
975.095	141.08
975.261	63.39
975.426	48.08
975.592	102.14
975.758	128.29
975.923	49.24
976.089	52.54
976.255	129.46
976.42	85.28
976.586	108.53
976.751	120.35
976.917	170.14
977.082	106.98
977.248	42.66
977.413	35.29
977.579	71.33
977.744	91.87
977.91	52.54
978.075	83.54
978.24	129.65
978.406	105.04
978.571	69.78
978.736	47.31
978.902	103.49
979.067	45.18
979.232	23.28
979.397	91.48
979.563	131.59
979.728	44.79
979.893	93.61
980.058	63
980.223	113.57
980.388	102.33
980.554	100.59
980.719	70.75
980.884	68.23
981.049	112.21
981.214	67.65
981.379	100.2
981.544	68.23
981.709	60.87
981.874	86.06
982.039	68.62
982.204	96.13
982.368	53.89
982.533	34.33
982.698	104.27
982.863	145.92
983.028	56.03
983.193	105.24
983.357	81.41
983.522	112.79
983.687	92.06
983.852	95.36
984.016	83.34
984.181	97.87
984.346	74.43
984.51	115.7
984.675	52.15
984.839	117.25
985.004	94.58
985.168	103.49
985.333	108.14
985.498	84.51
985.662	128.1
985.827	85.47
985.991	96.32
986.155	55.44
986.32	98.26
986.484	129.07
986.649	104.46
986.813	47.69
986.977	86.83
987.142	110.08
987.306	50.99
987.47	56.41
987.634	74.24
987.799	101.36
987.963	82.76
988.127	101.56
988.291	130.42
988.455	89.54
988.62	75.21
988.784	101.56
988.948	111.63
989.112	79.27
989.276	83.34
989.44	79.86
989.604	72.49
989.768	63.58
989.932	166.85
990.096	43.04
990.26	50.02
990.424	51.57
990.588	64.16
990.752	147.28
990.915	98.46
991.079	62.81
991.243	67.84
991.407	88.19
991.571	85.86
991.734	100.39
991.898	121.9
992.062	182.54
992.226	66.1
992.389	63.19
992.553	43.24
992.717	62.42
992.88	79.27
993.044	106.4
993.207	62.81
993.371	104.85
993.535	87.61
993.698	86.64
993.862	115.7
994.025	118.22
994.189	90.32
994.352	93.22
994.515	85.86
994.679	115.51
994.842	65.71
995.006	120.93
995.169	31.81
995.332	45.18
995.496	116.86
995.659	20.18
995.822	103.49
995.985	57.77
996.149	101.17
996.312	49.24
996.475	116.67
996.638	57.58
996.801	126.94
996.964	112.21
997.128	65.52
997.291	45.76
997.454	49.44
997.617	21.15
997.78	99.23
997.943	30.84
998.106	102.72
998.269	44.79
998.432	78.11
998.595	89.54
998.758	25.8
998.92	44.01
999.083	29.09
999.246	49.05
999.409	37.62
999.572	31.03
999.735	28.13
999.897	86.25
1000.06	56.8
1000.223	45.37
1000.386	81.41
1000.548	82.96
1000.711	81.79
1000.874	77.53
1001.036	-12.56
1001.199	90.71
1001.361	47.89
1001.524	52.54
1001.687	63.58
1001.849	44.98
1002.012	60.29
1002.174	59.51
1002.337	72.69
1002.499	42.46
1002.661	85.47
1002.824	23.86
1002.986	29.48
1003.149	99.81
1003.311	23.48
1003.473	123.64
1003.636	36.07
1003.798	81.79
1003.96	83.34
1004.123	63.58
1004.285	39.36
1004.447	65.33
1004.609	71.33
1004.771	128.1
1004.933	11.66
1005.096	13.01
1005.258	3.71
1005.42	31.42
1005.582	92.45
1005.744	63.97
1005.906	41.11
1006.068	53.31
1006.23	10.69
1006.392	18.44
1006.554	10.88
1006.716	71.53
1006.878	98.65
1007.04	11.46
1007.202	20.18
1007.363	49.63
1007.525	52.93
1007.687	47.89
1007.849	89.16
1008.011	-12.37
1008.172	19.99
1008.334	46.34
1008.496	58.93
1008.658	-3.46
1008.819	25.8
1008.981	6.81
1009.143	14.56
1009.304	18.63
1009.466	87.41
1009.627	85.47
1009.789	146.12
1009.95	58.93
1010.112	17.47
1010.273	42.46
1010.435	27.35
1010.596	38.78
1010.758	25.61
1010.919	15.14
1011.081	-21.09
1011.242	33.36
1011.403	60.68
1011.565	31.42
1011.726	46.73
1011.887	22.51
1012.049	31.23
1012.21	80.24
1012.371	106.4
1012.532	-53.83
1012.693	17.47
1012.855	39.17
1013.016	55.64
1013.177	87.8
1013.338	53.31
1013.499	106.98
1013.66	53.51
1013.821	45.37
1013.982	52.34
1014.143	49.83
1014.304	26.77
1014.465	55.83
1014.626	51.96
1014.787	36.26
1014.948	111.63
1015.109	-32.52
1015.27	90.71
1015.431	30.26
1015.592	11.66
1015.752	78.31
1015.913	49.24
1016.074	25.99
1016.235	29.68
1016.395	41.49
1016.556	16.69
1016.717	48.08
1016.877	75.98
1017.038	-27.09
1017.199	29.48
1017.359	32.58
1017.52	43.63
1017.681	-5.78
1017.841	16.11
1018.002	18.83
1018.162	13.59
1018.323	94.19
1018.483	28.51
1018.644	18.44
1018.804	-10.82
1018.964	-25.35
1019.125	2.94
1019.285	46.34
1019.446	15.34
1019.606	7.98
1019.766	5.46
1019.926	47.5
1020.087	29.68
1020.247	-1.52
1020.407	40.91
1020.567	60.29
1020.728	20.38
1020.888	-16.44
1021.048	8.94
1021.208	-5.97
1021.368	-9.27
1021.528	46.73
1021.688	50.21
1021.848	37.62
1022.008	31.23
1022.168	-3.84
1022.328	39.75
1022.488	52.15
1022.648	37.04
1022.808	35.68
1022.968	48.28
1023.128	1.39
1023.288	14.76
1023.448	31.61
1023.608	44.79
1023.767	44.79
1023.927	-9.46
1024.087	-3.65
1024.247	5.07
1024.406	23.48
1024.566	0.81
1024.726	-3.26
1024.885	15.53
1025.045	56.99
1025.205	29.29
1025.364	11.85
1025.524	36.65
1025.683	6.23
1025.843	15.92
1026.003	2.16
1026.162	62.42
1026.321	45.37
1026.481	46.34
1026.64	11.08
1026.8	35.49
1026.959	38.2
1027.119	29.68
1027.278	41.88
1027.437	-3.26
1027.597	19.6
1027.756	40.72
1027.915	46.73
1028.074	51.96
1028.234	-28.64
1028.393	24.44
1028.552	3.71
1028.711	-32.71
1028.87	41.49
1029.03	-20.12
1029.189	25.22
1029.348	-53.44
1029.507	-2.1
1029.666	12.24
1029.825	-12.95
1029.984	-10.24
1030.143	21.73
1030.302	-7.33
1030.461	-49.37
1030.62	13.4
1030.779	52.73
1030.938	1.39
1031.097	-11.79
1031.255	51.76
1031.414	73.85
1031.573	38.39
1031.732	-42.79
1031.891	20.57
1032.049	47.69
1032.208	58.54
1032.367	-6.75
1032.525	-5.39
1032.684	11.27
1032.843	4.49
1033.001	-27.48
1033.16	144.57
1033.319	52.34
1033.477	32.39
1033.636	-11.21
1033.794	-33.29
1033.953	44.4
1034.111	24.83
1034.27	-23.41
1034.428	30.84
1034.587	-7.52
1034.745	32.97
1034.903	26.96
1035.062	62.81
1035.22	-26.9
1035.378	42.66
1035.537	-7.52
1035.695	60.09
1035.853	14.76
1036.011	52.93
1036.17	3.71
1036.328	-58.29
1036.486	19.6
1036.644	23.48
1036.802	-68.94
1036.96	-2.29
1037.119	33.16
1037.277	-13.72
1037.435	-31.55
1037.593	-25.35
1037.751	6.62
1037.909	37.81
1038.067	37.81
