Data from oakcork_FLMT105791__278__17-34-24-043.txt Node

Date: Mon Mar 20 17:34:24 GMT 2023
User: antho
Spectrometer: FLMT10579
Trigger mode: 0
Integration Time (sec): 1.000000E-1
Scans to average: 10
Electric dark correction enabled: true
Nonlinearity correction enabled: false
Boxcar width: 0
XAxis mode: Wavelengths
Number of Pixels in Spectrum: 3648
>>>>>Begin Spectral Data<<<<<
345.248	-160.89
345.464	-160.89
345.681	-160.89
345.898	-172.32
346.114	-145.58
346.331	-54.72
346.548	36.73
346.764	-24.88
346.981	-12.09
347.197	-23.33
347.414	17.94
347.631	-21.39
347.847	48.74
348.064	10.19
348.28	42.35
348.497	-19.65
348.713	0.11
348.93	36.34
349.146	30.53
349.363	21.81
349.579	20.07
349.796	13.29
350.012	-4.15
350.229	17.16
350.445	3.6
350.661	-30.31
350.878	-3.76
351.094	36.34
351.311	25.69
351.527	8.25
351.743	-29.14
351.96	22.78
352.176	33.44
352.392	31.31
352.609	61.92
352.825	-33.79
353.041	22.2
353.257	0.89
353.474	-4.34
353.69	10.19
353.906	18.33
354.122	-18.68
354.339	65.02
354.555	0.11
354.771	15.03
354.987	53.59
355.203	68.51
355.42	-0.66
355.636	12.32
355.852	-1.05
356.068	36.15
356.284	-7.06
356.5	41.77
356.716	22.2
356.932	16.97
357.148	23.94
357.364	17.36
357.58	59.01
357.796	57.46
358.012	45.84
358.228	22.78
358.444	-52
358.66	48.74
358.876	31.69
359.092	-7.64
359.308	27.43
359.524	14.64
359.74	-17.32
359.956	1.66
360.172	21.04
360.388	55.52
360.604	4.38
360.819	79.74
361.035	22.78
361.251	53.97
361.467	-3.96
361.683	51.46
361.898	22.78
362.114	36.15
362.33	26.85
362.546	46.61
362.762	-4.15
362.977	26.08
363.193	-20.04
363.409	31.11
363.624	-26.43
363.84	-8.41
364.056	-2.79
364.271	11.93
364.487	46.81
364.703	-7.64
364.918	8.64
365.134	-0.47
365.35	-3.18
365.565	94.27
365.781	32.28
365.996	19.68
366.212	71.61
366.427	40.99
366.643	-0.66
366.858	3.21
367.074	-25.07
367.289	34.99
367.505	138.25
367.72	-16.74
367.936	-8.61
368.151	46.03
368.367	49.32
368.582	16.58
368.798	-2.99
369.013	58.43
369.228	4.38
369.444	18.33
369.659	65.6
369.874	53.39
370.09	55.91
370.305	-15.58
370.52	-17.32
370.736	56.88
370.951	26.08
371.166	65.21
371.381	77.61
371.597	50.87
371.812	5.54
372.027	19.68
372.242	5.93
372.458	103.96
372.673	10.19
372.888	23.17
373.103	26.85
373.318	84.39
373.533	20.65
373.749	34.6
373.964	1.66
374.179	80.52
374.394	5.54
374.609	59.01
374.824	-4.34
375.039	63.27
375.254	-8.41
375.469	64.05
375.684	23.75
375.899	54.17
376.114	25.69
376.329	40.61
376.544	57.66
376.759	28.01
376.974	-3.57
377.189	6.51
377.404	8.25
377.619	61.34
377.834	-37.67
378.049	-37.86
378.264	-28.56
378.478	42.54
378.693	2.44
378.908	29.95
379.123	20.46
379.338	46.81
379.553	18.91
379.767	19.68
379.982	46.81
380.197	46.22
380.412	27.82
380.626	49.32
380.841	86.72
381.056	52.42
381.271	80.52
381.485	15.42
381.7	-2.02
381.915	39.06
382.129	2.63
382.344	53.97
382.559	12.71
382.773	66.18
382.988	-30.31
383.202	43.71
383.417	3.41
383.632	106.09
383.846	3.79
384.061	26.85
384.275	12.13
384.49	31.31
384.704	30.14
384.919	39.64
385.133	37.51
385.348	45.84
385.562	-4.54
385.777	61.72
385.991	27.24
386.206	-3.18
386.42	-8.02
386.634	62.69
386.849	56.11
387.063	72.57
387.277	-0.47
387.492	11.54
387.706	7.48
387.92	16.19
388.135	52.62
388.349	46.81
388.563	44.48
388.778	36.54
388.992	50.87
389.206	51.84
389.42	102.8
389.635	53.78
389.849	60.76
390.063	35.38
390.277	51.07
390.491	54.36
390.706	41.77
390.92	62.5
391.134	32.08
391.348	65.6
391.562	-0.86
391.776	27.82
391.99	-2.41
392.205	48.74
392.419	9.22
392.633	16.58
392.847	72.38
393.061	-6.47
393.275	79.36
393.489	38.86
393.703	41.57
393.917	68.51
394.131	18.52
394.345	38.09
394.559	62.69
394.773	10.77
394.986	38.67
395.2	29.95
395.414	31.89
395.628	30.73
395.842	38.09
396.056	7.86
396.27	-12.67
396.484	46.81
396.697	19.1
396.911	83.62
397.125	59.21
397.339	73.54
397.553	37.51
397.766	88.46
397.98	59.21
398.194	82.65
398.408	18.91
398.621	37.12
398.835	80.32
399.049	55.72
399.262	73.54
399.476	70.06
399.69	65.21
399.903	115.2
400.117	39.25
400.331	76.84
400.544	33.63
400.758	136.7
400.971	65.41
401.185	92.72
401.398	25.49
401.612	97.76
401.826	96.02
402.039	68.31
402.253	47.97
402.466	60.56
402.68	28.59
402.893	76.45
403.106	64.44
403.32	56.88
403.533	70.83
403.747	47.58
403.96	76.26
404.174	95.82
404.387	19.1
404.6	35.38
404.814	82.65
405.027	80.91
405.24	50.87
405.454	45.06
405.667	126.44
405.88	-2.6
406.094	73.93
406.307	90.4
406.52	62.89
406.733	34.99
406.947	24.91
407.16	111.71
407.373	114.04
407.586	52.04
407.799	36.34
408.012	84.39
408.226	79.55
408.439	104.74
408.652	18.13
408.865	59.4
409.078	95.05
409.291	64.82
409.504	27.04
409.717	68.7
409.93	67.34
410.143	63.86
410.357	32.66
410.57	26.66
410.783	59.4
410.996	63.86
411.209	64.63
411.421	108.61
411.634	54.17
411.847	42.54
412.06	62.69
412.273	62.31
412.486	62.89
412.699	143.49
412.912	101.06
413.125	102.02
413.338	48.74
413.55	110.74
413.763	59.59
413.976	78.39
414.189	34.99
414.402	70.83
414.615	114.81
414.827	37.12
415.04	87.88
415.253	74.71
415.466	92.34
415.678	139.22
415.891	82.07
416.104	77.42
416.316	79.74
416.529	61.92
416.742	78.39
416.954	89.43
417.167	35.76
417.38	56.3
417.592	126.63
417.805	29.37
418.017	38.86
418.23	75.09
418.442	62.89
418.655	81.87
418.868	78.39
419.08	107.64
419.293	111.52
419.505	66.37
419.718	100.28
419.93	92.72
420.142	53.2
420.355	114.04
420.567	116.17
420.78	89.24
420.992	63.27
421.205	134.38
421.417	34.6
421.629	70.83
421.842	50.1
422.054	25.11
422.266	96.79
422.479	107.06
422.691	57.66
422.903	80.91
423.115	75.67
423.328	89.43
423.54	115.2
423.752	84.2
423.964	64.05
424.177	84.01
424.389	69.67
424.601	177.59
424.813	85.94
425.025	99.31
425.238	100.47
425.45	65.02
425.662	44.09
425.874	321.54
426.086	99.51
426.298	85.75
426.51	89.62
426.722	77.22
426.934	39.44
427.146	106.87
427.358	37.89
427.57	86.33
427.782	83.23
427.994	74.32
428.206	34.6
428.418	39.06
428.63	86.91
428.842	102.02
429.054	98.15
429.266	108.42
429.478	63.86
429.69	100.09
429.902	-0.47
430.114	109.19
430.325	114.04
430.537	55.14
430.749	76.26
430.961	40.8
431.173	81.1
431.384	98.92
431.596	25.3
431.808	71.02
432.02	68.31
432.231	94.47
432.443	136.7
432.655	78.58
432.867	69.86
433.078	90.98
433.29	137.29
433.502	109.19
433.713	103.19
433.925	95.05
434.136	136.9
434.348	46.03
434.56	37.12
434.771	178.94
434.983	37.89
435.194	54.36
435.406	62.69
435.617	111.52
435.829	147.17
436.04	110.16
436.252	127.79
436.463	148.72
436.675	123.53
436.886	103.96
437.098	106.67
437.309	144.26
437.521	84.2
437.732	101.06
437.943	114.04
438.155	76.45
438.366	61.34
438.578	158.79
438.789	106.29
439	138.84
439.211	112.87
439.423	119.07
439.634	106.48
439.845	120.24
440.057	113.84
440.268	128.18
440.479	111.32
440.69	124.5
440.902	105.71
441.113	100.67
441.324	101.25
441.535	113.26
441.746	146.2
441.957	73.74
442.168	95.24
442.38	139.22
442.591	139.42
442.802	115.01
443.013	88.85
443.224	120.62
443.435	106.09
443.646	77.03
443.857	128.76
444.068	108.03
444.279	53.2
444.49	173.52
444.701	102.8
444.912	205.29
445.123	116.56
445.334	130.7
445.545	115.01
445.756	104.74
445.967	88.66
446.178	117.52
446.388	174.49
446.599	151.43
446.81	154.72
447.021	125.85
447.232	160.92
447.443	158.4
447.653	88.66
447.864	170.61
448.075	108.03
448.286	155.11
448.496	134.77
448.707	160.73
448.918	110.16
449.129	206.65
449.339	102.41
449.55	118.3
449.761	99.89
449.971	165.77
450.182	127.79
450.393	131.86
450.603	128.37
450.814	156.66
451.024	137.48
451.235	166.54
451.446	176.62
451.656	187.27
451.867	112.49
452.077	150.07
452.288	192.5
452.498	201.42
452.709	102.61
452.919	145.04
453.13	133.41
453.34	153.37
453.55	111.91
453.761	180.69
453.971	176.42
454.182	156.47
454.392	145.81
454.602	183.79
454.813	167.12
455.023	191.92
455.233	109.77
455.444	155.89
455.654	86.52
455.864	139.61
456.075	150.07
456.285	115.2
456.495	140
456.705	132.64
456.916	191.92
457.126	193.47
457.336	152.79
457.546	85.36
457.756	129.92
457.967	173.13
458.177	118.69
458.387	143.29
458.597	125.66
458.807	140.97
459.017	154.14
459.227	147.17
459.437	142.32
459.647	165.77
459.857	178.55
460.068	104.16
460.278	199.87
460.488	164.99
460.698	204.13
460.908	131.67
461.117	100.28
461.327	130.89
461.537	163.44
461.747	158.4
461.957	144.45
462.167	245.2
462.377	194.83
462.587	167.51
462.797	186.69
463.007	162.47
463.216	170.22
463.426	192.31
463.636	194.05
463.846	134.96
464.056	130.7
464.265	170.42
464.475	141.74
464.685	165.96
464.895	152.59
465.104	157.24
465.314	185.53
465.524	143.68
465.733	146
465.943	221.95
466.153	216.53
466.362	191.73
466.572	170.03
466.782	158.02
466.991	154.14
467.201	215.17
467.41	130.89
467.62	202.39
467.829	142.52
468.039	195.8
468.249	169.06
468.458	179.33
468.668	195.6
468.877	183.2
469.086	217.11
469.296	190.18
469.505	151.82
469.715	221.18
469.924	185.34
470.134	235.52
470.343	208.39
470.552	185.53
470.762	171.58
470.971	155.69
471.18	162.67
471.39	173.9
471.599	166.54
471.808	214.78
472.018	143.29
472.227	215.95
472.436	214.4
472.645	173.71
472.855	172.35
473.064	232.42
473.273	201.22
473.482	238.81
473.691	217.88
473.901	223.89
474.11	171.97
474.319	282.6
474.528	215.95
474.737	268.07
474.946	221.57
475.155	192.31
475.364	244.82
475.573	216.53
475.783	201.03
475.992	251.02
476.201	239.39
476.41	195.41
476.619	175.84
476.828	237.26
477.037	189.02
477.245	188.44
477.454	251.98
477.663	207.42
477.872	220.02
478.081	277.95
478.29	198.9
478.499	292.67
478.708	212.07
478.917	287.05
479.125	227.18
479.334	237.84
479.543	229.51
479.752	205.68
479.961	224.28
480.169	242.49
480.378	213.23
480.587	334.71
480.796	268.07
481.004	234.16
481.213	238.23
481.422	263.22
481.63	207.42
481.839	274.85
482.048	275.43
482.256	249.66
482.465	251.6
482.674	275.82
482.882	278.53
483.091	334.91
483.299	274.27
483.508	286.47
483.716	251.4
483.925	259.35
484.134	223.31
484.342	231.83
484.551	287.05
484.759	265.55
484.967	262.06
485.176	276.59
485.384	285.12
485.593	323.09
485.801	276.98
486.01	286.86
486.218	267.68
486.426	227.96
486.635	280.27
486.843	235.9
487.051	260.32
487.26	266.13
487.468	266.32
487.676	305.65
487.885	255.67
488.093	280.27
488.301	282.98
488.509	290.73
488.717	318.44
488.926	264.38
489.134	274.07
489.342	311.85
489.55	262.64
489.758	283.57
489.967	246.56
490.175	358.16
490.383	250.24
490.591	350.02
490.799	234.35
491.007	320.18
491.215	308.36
491.423	289.38
491.631	264.77
491.839	319.8
492.047	322.51
492.255	278.92
492.463	250.24
492.671	297.52
492.879	332.58
493.087	269.03
493.295	323.67
493.503	307.59
493.711	329.68
493.919	351.38
494.127	320.96
494.334	354.28
494.542	269.42
494.75	317.47
494.958	297.52
495.166	355.25
495.374	306.23
495.581	314.37
495.789	319.41
495.997	344.01
496.205	323.48
496.412	340.33
496.62	287.25
496.828	350.8
497.035	317.86
497.243	363.58
497.451	320.18
497.658	322.9
497.866	307.78
498.074	392.26
498.281	319.41
498.489	390.71
498.696	343.05
498.904	317.86
499.112	343.82
499.319	397.88
499.527	282.6
499.734	357.77
499.942	280.85
500.149	316.31
500.357	333.36
500.564	289.57
500.771	350.02
500.979	317.28
501.186	309.72
501.394	348.08
501.601	335.49
501.808	352.93
502.016	304.1
502.223	332.78
502.43	329.29
502.638	345.18
502.845	322.31
503.052	395.94
503.26	331.23
503.467	421.9
503.674	304.49
503.881	350.8
504.089	414.93
504.296	386.64
504.503	312.24
504.71	342.46
504.917	305.65
505.125	372.11
505.332	332.78
505.539	384.9
505.746	423.84
505.953	369.2
506.16	382.38
506.367	406.59
506.574	390.32
506.781	403.69
506.988	324.64
507.195	392.84
507.402	363
507.609	400.59
507.816	387.8
508.023	370.36
508.23	356.41
508.437	323.67
508.644	369.2
508.851	445.93
509.058	401.56
509.265	383.15
509.472	391.68
509.679	461.62
509.885	387.03
510.092	382.57
510.299	380.25
510.506	413.38
510.713	386.06
510.92	403.88
511.126	399.23
511.333	447.86
511.54	436.82
511.746	441.47
511.953	413.76
512.16	415.31
512.367	388.19
512.573	397.1
512.78	428.88
512.987	413.18
513.193	408.34
513.4	365.71
513.606	386.25
513.813	394.78
514.02	441.66
514.226	505.21
514.433	438.56
514.639	376.37
514.846	400.2
515.052	412.6
515.259	426.55
515.465	443.21
515.672	416.67
515.878	497.66
516.085	414.54
516.291	468.79
516.497	414.15
516.704	424.42
516.91	390.71
517.117	352.54
517.323	359.9
517.529	401.94
517.736	398.26
517.942	443.21
518.148	376.76
518.354	413.38
518.561	432.36
518.767	404.08
518.973	447.09
519.179	444.96
519.386	401.75
519.592	391.29
519.798	428.29
520.004	455.61
520.21	439.14
520.417	477.51
520.623	486.22
520.829	465.88
521.035	489.91
521.241	490.68
521.447	475.57
521.653	553.65
521.859	455.42
522.065	485.45
522.271	582.32
522.477	501.72
522.683	532.34
522.889	504.44
523.095	503.27
523.301	511.22
523.507	462.59
523.713	497.27
523.919	489.71
524.125	531.95
524.331	498.62
524.537	565.66
524.742	494.94
524.948	537.37
525.154	518.39
525.36	635.41
525.566	557.91
525.772	603.05
525.977	488.94
526.183	547.64
526.389	581.16
526.595	485.26
526.8	524.2
527.006	495.33
527.212	488.94
527.417	492.81
527.623	471.11
527.829	562.37
528.034	536.6
528.24	551.13
528.446	504.24
528.651	574.96
528.857	543.77
529.062	602.09
529.268	527.49
529.473	564.11
529.679	550.94
529.884	608.09
530.09	581.94
530.295	642.97
530.501	576.51
530.706	575.54
530.912	589.88
531.117	602.67
531.323	589.1
531.528	588.33
531.733	603.05
531.939	557.52
532.144	610.03
532.35	569.34
532.555	638.12
532.76	618.17
532.966	604.8
533.171	631.54
533.376	590.85
533.581	553.84
533.787	601.89
533.992	613.13
534.197	651.68
534.402	581.94
534.607	591.24
534.813	672.03
535.018	599.57
535.223	584.84
535.428	615.65
535.633	635.22
535.838	623.01
536.043	624.56
536.249	679.58
536.454	601.5
536.659	640.84
536.864	574.96
537.069	600.54
537.274	633.86
537.479	617.78
537.684	650.13
537.889	591.04
538.094	691.79
538.299	629.4
538.504	672.8
538.708	634.83
538.913	656.14
539.118	602.28
539.323	655.37
539.528	634.83
539.733	656.53
539.938	621.65
540.142	672.22
540.347	643.74
540.552	618.75
540.757	663.5
540.962	618.55
541.166	589.69
541.371	587.36
541.576	623.2
541.781	542.8
541.985	659.63
542.19	621.07
542.395	671.64
542.599	711.75
542.804	682.1
543.008	679.58
543.213	615.65
543.418	622.62
543.622	669.9
543.827	666.02
544.031	687.33
544.236	692.76
544.44	629.6
544.645	745.65
544.849	632.31
545.054	706.13
545.258	770.84
545.463	719.88
545.667	658.66
545.872	683.27
546.076	685.78
546.281	643.16
546.485	640.25
546.689	703.42
546.894	691.79
547.098	697.99
547.302	633.28
547.507	693.34
547.711	653.23
547.915	721.24
548.119	631.15
548.324	670.67
548.528	699.73
548.732	692.37
548.936	686.17
549.141	723.57
549.345	654.4
549.549	675.52
549.753	658.66
549.957	756.7
550.161	728.99
550.366	704.77
550.57	660.98
550.774	669.51
550.978	665.63
551.182	690.63
551.386	682.1
551.59	663.31
551.794	680.75
551.998	681.91
552.202	671.25
552.406	638.9
552.61	657.69
552.814	672.22
553.018	734.8
553.222	649.75
553.426	694.7
553.63	738.68
553.833	660.6
554.037	643.74
554.241	721.63
554.445	691.6
554.649	673.38
554.853	683.07
555.056	716.4
555.26	698.77
555.464	698.57
555.668	687.92
555.871	729.38
556.075	741.58
556.279	658.47
556.483	625.14
556.686	676.29
556.89	684.23
557.094	705.74
557.297	637.54
557.501	722.4
557.704	646.07
557.908	697.41
558.112	635.8
558.315	717.56
558.519	647.62
558.722	635.8
558.926	626.89
559.129	632.89
559.333	612.35
559.536	620.69
559.74	634.44
559.943	629.6
560.147	615.07
560.35	640.45
560.553	638.12
560.757	590.85
560.96	728.02
561.164	596.85
561.367	681.72
561.57	639.29
561.774	643.55
561.977	634.05
562.18	611
562.384	722.79
562.587	652.65
562.79	624.75
562.993	636.38
563.197	660.98
563.4	679.2
563.603	702.06
563.806	728.99
564.009	619.14
564.212	673.77
564.416	600.73
564.619	687.53
564.822	620.1
565.025	672.61
565.228	626.3
565.431	617.2
565.634	560.82
565.837	591.04
566.04	600.54
566.243	634.44
566.446	529.24
566.649	611.39
566.852	569.73
567.055	586.2
567.258	610.03
567.461	674.16
567.664	645.68
567.867	537.18
568.07	610.03
568.273	588.72
568.475	611.77
568.678	597.82
568.881	561.4
569.084	611.97
569.287	504.63
569.489	539.12
569.692	608.29
569.895	593.37
570.098	532.53
570.3	527.3
570.503	507.15
570.706	548.61
570.909	531.37
571.111	513.74
571.314	528.07
571.516	532.72
571.719	525.94
571.922	547.64
572.124	524.78
572.327	545.12
572.529	519.74
572.732	507.92
572.935	514.32
573.137	594.14
573.34	534.08
573.542	557.72
573.745	538.73
573.947	547.64
574.15	513.54
574.352	517.61
574.554	550.55
574.757	493.97
574.959	502.31
575.162	492.23
575.364	519.36
575.566	590.85
575.769	495.52
575.971	532.14
576.173	447.28
576.376	504.24
576.578	522.84
576.78	574.38
576.982	415.7
577.185	481.38
577.387	475.57
577.589	457.55
577.791	519.74
577.993	523.81
578.196	513.35
578.398	504.05
578.6	525.36
578.802	460.84
579.004	441.08
579.206	439.92
579.408	489.91
579.61	486.03
579.812	524.78
580.014	494.17
580.216	454.64
580.418	463.75
580.62	463.94
580.822	474.02
581.024	473.44
581.226	514.12
581.428	505.79
581.63	544.74
581.832	463.75
582.034	482.74
582.236	478.86
582.438	510.83
582.64	548.61
582.841	530.98
583.043	529.24
583.245	484.48
583.447	484.48
583.649	496.11
583.85	503.66
584.052	526.52
584.254	440.89
584.456	552.1
584.657	433.14
584.859	480.61
585.061	475.76
585.262	466.08
585.464	429.65
585.666	499.59
585.867	447.09
586.069	514.12
586.27	488.16
586.472	484.87
586.674	480.41
586.875	482.54
587.077	440.5
587.278	471.31
587.48	442.63
587.681	550.36
587.883	494.36
588.084	422.87
588.285	433.33
588.487	485.64
588.688	482.93
588.89	410.28
589.091	430.43
589.292	428.68
589.494	404.08
589.695	438.18
589.896	365.52
590.098	370.17
590.299	434.69
590.5	371.91
590.702	398.46
590.903	427.13
591.104	460.65
591.305	441.08
591.507	467.82
591.708	453.48
591.909	431.98
592.11	513.16
592.311	455.03
592.512	417.25
592.714	402.91
592.915	401.17
593.116	431.59
593.317	410.86
593.518	399.23
593.719	414.15
593.92	438.18
594.121	488.16
594.322	445.93
594.523	417.83
594.724	381.6
594.925	408.53
595.126	439.73
595.327	444.18
595.528	458.71
595.729	413.76
595.929	428.88
596.13	441.08
596.331	443.41
596.532	426.16
596.733	458.33
596.934	437.01
597.135	439.92
597.335	454.84
597.536	386.64
597.737	421.32
597.938	410.66
598.138	456.78
598.339	434.49
598.54	424.03
598.74	444.38
598.941	453.48
599.142	465.3
599.342	420.93
599.543	374.82
599.744	413.57
599.944	444.18
600.145	400.59
600.345	425.58
600.546	479.44
600.746	446.12
600.947	490.49
601.147	455.03
601.348	487.19
601.548	401.94
601.749	429.26
601.949	408.73
602.15	363
602.35	420.74
602.551	467.24
602.751	428.88
602.951	390.71
603.152	367.26
603.352	453.29
603.552	419.38
603.753	462.78
603.953	443.21
604.153	456.58
604.354	395.55
604.554	406.59
604.754	423.06
604.954	396.33
605.155	418.61
605.355	411.24
605.555	436.63
605.755	460.26
605.955	453.09
606.155	469.76
606.356	409.31
606.556	478.28
606.756	443.99
606.956	396.33
607.156	473.44
607.356	413.96
607.556	436.63
607.756	412.6
607.956	445.54
608.156	400.39
608.356	412.21
608.556	438.56
608.756	417.44
608.956	387.99
609.156	420.54
609.356	375.4
609.556	377.73
609.755	418.22
609.955	395.16
610.155	432.94
610.355	418.41
610.555	420.16
610.755	412.02
610.954	343.24
611.154	443.79
611.354	446.12
611.554	398.84
611.753	388.38
611.953	344.79
612.153	463.36
612.352	393.42
612.552	370.56
612.752	348.28
612.951	371.53
613.151	397.1
613.351	344.21
613.55	366.3
613.75	411.24
613.949	394.19
614.149	386.25
614.348	383.15
614.548	366.3
614.747	354.28
614.947	370.56
615.146	328.13
615.346	381.21
615.545	377.73
615.745	383.15
615.944	411.63
616.144	360.29
616.343	398.84
616.542	363.97
616.742	400.98
616.941	391.87
617.14	319.99
617.34	391.09
617.539	376.37
617.738	340.72
617.938	419.38
618.137	376.37
618.336	321.15
618.535	389.93
618.734	378.7
618.934	380.05
619.133	365.91
619.332	367.07
619.531	354.67
619.73	358.55
619.929	387.61
620.128	384.7
620.328	415.51
620.527	336.65
620.726	345.76
620.925	357.96
621.124	335.49
621.323	387.41
621.522	352.35
621.721	336.46
621.92	311.08
622.119	370.95
622.318	324.25
622.517	366.49
622.715	358.55
622.914	322.31
623.113	332.39
623.312	328.9
623.511	332.39
623.71	363
623.909	334.91
624.107	390.9
624.306	298.68
624.505	310.5
624.704	333.16
624.902	352.73
625.101	374.05
625.3	349.25
625.499	324.64
625.697	336.85
625.896	306.23
626.095	367.85
626.293	318.83
626.492	309.14
626.69	387.61
626.889	308.75
627.088	356.41
627.286	295.97
627.485	297.9
627.683	302.36
627.882	352.15
628.08	285.12
628.279	312.43
628.477	413.76
628.676	295.97
628.874	363.39
629.073	297.9
629.271	279.88
629.469	345.18
629.668	323.67
629.866	312.05
630.065	292.48
630.263	366.1
630.461	278.72
630.66	315.15
630.858	344.6
631.056	354.86
631.254	318.83
631.453	269.62
631.651	362.81
631.849	323.09
632.047	326
632.245	278.14
632.444	310.3
632.642	328.51
632.84	326.19
633.038	307.59
633.236	253.15
633.434	270.39
633.632	265.55
633.83	297.9
634.028	327.16
634.227	277.75
634.425	358.35
634.623	326.38
634.821	314.18
635.019	288.8
635.216	294.61
635.414	325.22
635.612	344.21
635.81	300.81
636.008	352.35
636.206	313.01
636.404	317.47
636.602	294.22
636.8	326.96
636.997	324.83
637.195	335.88
637.393	324.25
637.591	370.95
637.789	301
637.986	291.12
638.184	317.47
638.382	351.57
638.58	353.9
638.777	378.89
638.975	306.04
639.173	319.6
639.37	344.6
639.568	349.83
639.765	329.48
639.963	279.3
640.161	369.98
640.358	339.36
640.556	325.61
640.753	275.04
640.951	279.3
641.148	307.98
641.346	303.71
641.543	310.11
641.741	307.98
641.938	280.47
642.136	307.2
642.333	274.85
642.531	321.93
642.728	350.8
642.925	306.81
643.123	300.81
643.32	315.92
643.517	290.73
643.715	305.07
643.912	277.37
644.109	315.15
644.306	271.36
644.504	284.73
644.701	296.16
644.898	318.63
645.095	293.64
645.293	302.55
645.49	341.11
645.687	290.15
645.884	334.13
646.081	250.24
646.278	299.06
646.475	277.56
646.672	273.68
646.87	288.99
647.067	308.17
647.264	315.53
647.461	260.9
647.658	228.93
647.855	308.56
648.052	281.63
648.249	200.84
648.446	280.08
648.642	242.88
648.839	242.49
649.036	259.93
649.233	223.89
649.43	233.58
649.627	230.28
649.824	266.9
650.021	254.12
650.217	246.95
650.414	243.07
650.611	278.14
650.808	278.14
651.004	262.83
651.201	287.05
651.398	332.78
651.595	280.08
651.791	235.71
651.988	275.62
652.185	239.78
652.381	264.38
652.578	213.23
652.775	265.16
652.971	247.53
653.168	265.16
653.364	309.53
653.561	249.08
653.757	255.28
653.954	249.27
654.15	263.8
654.347	311.85
654.543	242.88
654.74	215.17
654.936	196.77
655.133	256.25
655.329	261.48
655.525	278.53
655.722	260.32
655.918	248.88
656.115	296.55
656.311	184.17
656.507	187.85
656.704	187.08
656.9	220.4
657.096	217.88
657.292	194.25
657.489	271.55
657.685	252.76
657.881	241.33
658.077	200.84
658.273	223.7
658.47	288.22
658.666	246.75
658.862	245.01
659.058	228.73
659.254	263.8
659.45	220.98
659.646	254.7
659.842	242.49
660.038	297.32
660.234	211.3
660.43	262.45
660.626	304.68
660.822	278.33
661.018	269.42
661.214	233
661.41	234.55
661.606	248.88
661.802	253.34
661.998	214.59
662.194	226.02
662.39	248.5
662.586	271.94
662.781	267.68
662.977	263.61
663.173	270
663.369	245.01
663.564	250.63
663.76	277.37
663.956	232.8
664.152	288.99
664.347	205.68
664.543	245.98
664.739	222.15
664.934	211.88
665.13	197.15
665.326	270.39
665.521	256.44
665.717	212.65
665.912	218.85
666.108	176.42
666.304	222.15
666.499	229.7
666.695	165.57
666.89	230.09
667.086	288.41
667.281	256.44
667.477	269.62
667.672	233.38
667.867	236.87
668.063	207.23
668.258	216.72
668.454	235.13
668.649	294.03
668.844	208.39
669.04	249.66
669.235	236.68
669.43	208.39
669.626	173.71
669.821	195.99
670.016	186.69
670.211	211.49
670.407	187.27
670.602	231.45
670.797	210.33
670.992	233.58
671.187	212.85
671.382	255.08
671.578	195.02
671.773	233.97
671.968	212.65
672.163	252.76
672.358	233.58
672.553	218.08
672.748	211.3
672.943	262.25
673.138	224.08
673.333	252.76
673.528	193.67
673.723	220.4
673.918	215.75
674.113	159.95
674.308	308.75
674.503	232.61
674.698	250.82
674.892	241.91
675.087	270.78
675.282	249.66
675.477	204.9
675.672	253.92
675.867	219.43
676.061	202.39
676.256	161.7
676.451	213.43
676.646	196.38
676.84	187.85
677.035	176.23
677.23	189.02
677.424	231.06
677.619	247.92
677.814	258.77
678.008	261.67
678.203	199.29
678.397	209.55
678.592	241.72
678.787	280.27
678.981	180.69
679.176	218.27
679.37	224.86
679.565	193.67
679.759	180.69
679.954	235.71
680.148	280.85
680.342	272.52
680.537	233.19
680.731	214.01
680.926	222.92
681.12	246.17
681.314	193.28
681.509	188.63
681.703	206.26
681.897	228.93
682.092	218.08
682.286	170.03
682.48	285.7
682.674	263.8
682.869	220.21
683.063	215.37
683.257	270.97
683.451	187.66
683.645	234.35
683.839	227.57
684.034	199.87
684.228	246.75
684.422	158.02
684.616	188.24
684.81	251.6
685.004	209.75
685.198	190.95
685.392	241.91
685.586	195.8
685.78	214.01
685.974	231.64
686.168	239.78
686.362	301
686.556	184.17
686.75	186.5
686.944	197.54
687.138	226.8
687.331	164.02
687.525	196.96
687.719	138.64
687.913	195.99
688.107	194.83
688.301	177.2
688.494	206.07
688.688	172.16
688.882	151.82
689.076	129.15
689.269	183.4
689.463	241.33
689.657	169.25
689.85	178.55
690.044	192.31
690.238	195.02
690.431	166.35
690.625	183.01
690.818	181.85
691.012	217.11
691.205	229.32
691.399	185.53
691.593	202.19
691.786	255.08
691.98	223.31
692.173	259.35
692.366	251.98
692.56	245.78
692.753	259.15
692.947	172.55
693.14	267.1
693.333	252.37
693.527	199.87
693.72	230.87
693.914	212.85
694.107	218.66
694.3	230.28
694.493	219.82
694.687	250.43
694.88	207.62
695.073	295.19
695.266	265.35
695.46	248.88
695.653	303.91
695.846	274.46
696.039	188.82
696.232	255.08
696.425	236.48
696.618	245.2
696.812	251.79
697.005	294.61
697.198	371.14
697.391	275.43
697.584	309.33
697.777	342.66
697.97	324.06
698.163	327.35
698.356	296.93
698.549	379.47
698.742	348.66
698.935	279.3
699.127	334.52
699.32	280.66
699.513	319.41
699.706	370.56
699.899	351.57
700.092	314.37
700.285	356.03
700.477	293.25
700.67	349.44
700.863	362.81
701.056	420.93
701.248	352.15
701.441	389.35
701.634	379.28
701.826	445.15
702.019	325.61
702.212	398.46
702.404	349.63
702.597	350.21
702.79	368.43
702.982	407.18
703.175	434.49
703.367	413.38
703.56	438.76
703.752	447.28
703.945	441.66
704.137	439.73
704.33	474.21
704.522	450.77
704.715	460.07
704.907	486.03
705.1	494.56
705.292	485.26
705.484	474.21
705.677	506.18
705.869	497.27
706.061	543.57
706.254	546.48
706.446	530.59
706.638	520.13
706.831	560.43
707.023	544.16
707.215	595.3
707.407	592.59
707.599	559.85
707.792	606.15
707.984	562.56
708.176	618.36
708.368	556.94
708.56	624.37
708.752	613.52
708.944	593.37
709.136	606.93
709.329	614.87
709.521	673
709.713	652.65
709.905	633.47
710.097	677.65
710.289	635.41
710.481	649.75
710.672	684.62
710.864	669.7
711.056	734.61
711.248	707.1
711.44	697.8
711.632	692.76
711.824	713.88
712.016	773.36
712.207	742.94
712.399	764.06
712.591	801.26
712.783	745.65
712.975	786.73
713.166	719.88
713.358	756.7
713.55	817.73
713.741	815.01
713.933	805.13
714.125	791.96
714.316	762.9
714.508	856.86
714.7	880.31
714.891	821.02
715.083	886.31
715.274	848.14
715.466	839.62
715.657	868.88
715.849	782.27
716.04	863.45
716.232	818.31
716.423	895.23
716.615	824.7
716.806	788.08
716.998	800.87
717.189	768.13
717.381	725.7
717.572	722.79
717.763	772.2
717.955	766.19
718.146	720.27
718.337	696.05
718.528	663.5
718.72	655.75
718.911	720.66
719.102	655.56
719.293	742.75
719.485	710.58
719.676	738.48
719.867	664.08
720.058	701.67
720.249	715.82
720.44	695.28
720.632	736.74
720.823	755.53
721.014	834.58
721.205	816.18
721.396	860.54
721.587	898.13
721.778	937.85
721.969	945.6
722.16	939.79
722.351	939.4
722.542	1043.64
722.733	1053.52
722.924	985.9
723.115	1021.55
723.305	1026.59
723.496	998.69
723.687	959.74
723.878	969.04
724.069	1001.2
724.26	991.13
724.45	960.32
724.641	946.76
724.832	967.69
725.023	968.46
725.213	959.55
725.404	931.07
725.595	956.26
725.785	927.19
725.976	976.02
726.167	981.25
726.357	973.5
726.548	1089.55
726.739	1001.59
726.929	1051
727.12	1077.54
727.31	1126.37
727.501	1035.11
727.691	1071.73
727.882	1090.13
728.072	1087.42
728.263	1105.63
728.453	1124.43
728.644	1083.55
728.834	1104.86
729.024	1095.56
729.215	1069.4
729.405	1170.54
729.596	1185.85
729.786	1178.87
729.976	1160.27
730.167	1188.75
730.357	1162.6
730.547	1157.95
730.737	1212.78
730.928	1255.21
731.118	1268.19
731.308	1219.36
731.498	1204.25
731.688	1269.35
731.879	1290.28
732.069	1329.61
732.259	1321.66
732.449	1344.72
732.639	1416.41
732.829	1398.77
733.019	1446.44
733.209	1421.44
733.399	1468.33
733.589	1506.3
733.779	1516.19
733.969	1443.92
734.159	1495.84
734.349	1564.82
734.539	1615.77
734.729	1601.05
734.919	1608.02
735.109	1647.55
735.299	1577.22
735.488	1621.2
735.678	1635.73
735.868	1635.15
736.058	1627.4
736.248	1593.88
736.437	1598.72
736.627	1558.23
736.817	1675.45
737.007	1629.72
737.196	1670.21
737.386	1671.57
737.576	1603.18
737.765	1702.76
737.955	1699.28
738.144	1770.77
738.334	1716.91
738.524	1688.43
738.713	1726.4
738.903	1758.56
739.092	1746.55
739.282	1752.56
739.471	1747.71
739.661	1731.24
739.85	1791.5
740.04	1787.62
740.229	1792.08
740.419	1810.29
740.608	1848.66
740.797	1830.25
740.987	1875.2
741.176	1823.08
741.365	1820.76
741.555	1790.14
741.744	1829.09
741.933	1842.84
742.123	1889.92
742.312	1885.66
742.501	1896.51
742.69	1944.37
742.88	1852.72
743.069	1943.4
743.258	1867.64
743.447	1969.75
743.636	1955.6
743.825	1912.4
744.014	1936.04
744.204	1952.12
744.393	1908.72
744.582	1951.54
744.771	1960.45
744.96	1936.42
745.149	1971.3
745.338	1932.35
745.527	1993.77
745.716	1942.62
745.905	1937.97
746.094	1997.45
746.283	1994.55
746.471	1962.58
746.66	2027.48
746.849	1977.5
747.038	2019.54
747.227	1961.8
747.416	2031.94
747.604	2023.8
747.793	1962
747.982	2003.07
748.171	2021.09
748.359	2050.54
748.548	2011.98
748.737	1999
748.926	1989.51
749.114	1929.06
749.303	1987.77
749.491	2004.23
749.68	1984.28
749.869	2003.27
750.057	1985.63
750.246	1987.57
750.434	1944.37
750.623	2011.6
750.811	1982.92
751	2012.18
751.188	1969.17
751.377	2005.01
751.565	1970.13
751.754	1935.84
751.942	1966.26
752.131	2006.17
752.319	1947.47
752.507	1916.27
752.696	1994.74
752.884	2030
753.072	1954.64
753.261	1978.08
753.449	1971.1
753.637	1943.59
753.825	2029.42
754.014	1945.14
754.202	1992.42
754.39	2049.96
754.578	2037.37
754.766	1969.17
754.955	1951.73
755.143	2023.8
755.331	1938.36
755.519	1951.73
755.707	1933.71
755.895	1942.82
756.083	1956.77
756.271	1922.28
756.459	1942.82
756.647	1990.87
756.835	1951.54
757.023	1927.32
757.211	1938.55
757.399	1953.28
757.587	1943.2
757.775	1887.6
757.963	1938.75
758.151	1915.3
758.339	1848.66
758.526	1885.85
758.714	1923.05
758.902	1796.73
759.09	1793.82
759.278	1669.25
759.465	1533.82
759.653	1319.34
759.841	1203.67
760.028	1013.02
760.216	883.02
760.404	854.15
760.591	667.96
760.779	594.72
760.967	528.27
761.154	416.09
761.342	436.24
761.529	435.66
761.717	499.4
761.905	450.77
762.092	505.02
762.28	453.29
762.467	497.27
762.655	394.58
762.842	427.71
763.029	442.83
763.217	451.54
763.404	446.7
763.592	485.64
763.779	430.23
763.966	469.76
764.154	475.37
764.341	536.21
764.528	503.66
764.716	560.43
764.903	591.62
765.09	611.39
765.277	651.3
765.465	765.61
765.652	790.8
765.839	825.28
766.026	902.98
766.213	920.22
766.4	956.64
766.588	1111.64
766.775	1103.12
766.962	1155.82
767.149	1191.66
767.336	1308.88
767.523	1275.94
767.71	1335.03
767.897	1437.52
768.084	1491.19
768.271	1478.79
768.458	1526.84
768.645	1540.4
768.832	1500.88
769.019	1534.4
769.206	1551.06
769.392	1609.76
769.579	1709.16
769.766	1655.3
769.953	1644.45
770.14	1698.5
770.327	1656.85
770.513	1683.97
770.7	1778.33
770.887	1712.64
771.073	1754.88
771.26	1715.94
771.447	1690.17
771.634	1708.38
771.82	1781.62
772.007	1687.07
772.193	1710.9
772.38	1740.54
772.567	1690.75
772.753	1705.28
772.94	1766.89
773.126	1772.9
773.313	1751.2
773.499	1731.63
773.686	1757.21
773.872	1734.34
774.059	1726.79
774.245	1651.61
774.432	1749.84
774.618	1673.51
774.804	1728.14
774.991	1639.8
775.177	1721.94
775.363	1682.42
775.55	1725.82
775.736	1664.6
775.922	1676.8
776.109	1685.91
776.295	1734.15
776.481	1733.57
776.667	1742.68
776.853	1693.08
777.04	1651.81
777.226	1676.61
777.412	1754.3
777.598	1673.51
777.784	1660.53
777.97	1676.8
778.156	1729.89
778.342	1675.64
778.528	1682.42
778.715	1666.34
778.901	1627.2
779.087	1668.08
779.272	1611.9
779.458	1620.03
779.644	1633.21
779.83	1593.68
780.016	1677.96
780.202	1660.72
780.388	1590
780.574	1599.69
780.76	1561.33
780.946	1634.37
781.131	1609.57
781.317	1582.64
781.503	1569.66
781.689	1558.81
781.874	1688.04
782.06	1585.93
782.246	1600.85
782.432	1595.62
782.617	1619.06
782.803	1652.58
782.989	1551.45
783.174	1595.23
783.36	1515.22
783.545	1555.9
783.731	1573.92
783.916	1528.97
784.102	1576.83
784.288	1545.25
784.473	1564.82
784.659	1523.93
784.844	1566.75
785.029	1527.62
785.215	1537.69
785.4	1459.22
785.586	1583.61
785.771	1518.12
785.956	1546.02
786.142	1530.52
786.327	1505.14
786.512	1534.59
786.698	1463.68
786.883	1429.58
787.068	1437.14
787.254	1507.47
787.439	1455.54
787.624	1475.3
787.809	1458.06
787.994	1435.39
788.18	1519.29
788.365	1431.71
788.55	1447.4
788.735	1442.75
788.92	1453.22
789.105	1434.81
789.29	1447.79
789.475	1420.28
789.66	1417.18
789.845	1381.53
790.03	1380.17
790.215	1432.87
790.4	1450.5
790.585	1482.28
790.77	1415.63
790.955	1311.98
791.14	1390.83
791.325	1439.85
791.51	1294.15
791.695	1414.08
791.879	1345.88
792.064	1324.38
792.249	1385.79
792.434	1325.15
792.618	1368.55
792.803	1402.07
792.988	1383.08
793.173	1385.41
793.357	1444.89
793.542	1318.95
793.727	1381.53
793.911	1436.75
794.096	1331.93
794.281	1403.23
794.465	1443.34
794.65	1368.36
794.834	1418.34
795.019	1426.87
795.203	1426.29
795.388	1386.18
795.572	1443.34
795.757	1410.79
795.941	1424.54
796.126	1415.82
796.31	1336.78
796.494	1395.48
796.679	1341.43
796.863	1336.78
797.048	1420.28
797.232	1420.28
797.416	1376.11
797.601	1363.32
797.785	1448.37
797.969	1430.16
798.153	1373.39
798.338	1430.55
798.522	1448.37
798.706	1406.52
798.89	1410.79
799.074	1479.95
799.258	1438.88
799.443	1382.11
799.627	1396.64
799.811	1484.8
799.995	1419.7
800.179	1369.71
800.363	1418.54
800.547	1416.99
800.731	1422.02
800.915	1355.37
801.099	1396.06
801.283	1379.21
801.467	1386.57
801.651	1373.59
801.835	1438.1
802.019	1388.89
802.202	1435.2
802.386	1344.53
802.57	1349.17
802.754	1398.97
802.938	1369.71
803.121	1389.67
803.305	1417.57
803.489	1369.32
803.673	1414.66
803.856	1424.54
804.04	1396.45
804.224	1388.12
804.407	1410.01
804.591	1375.14
804.775	1425.51
804.958	1415.82
805.142	1473.17
805.326	1418.34
805.509	1401.29
805.693	1431.32
805.876	1406.91
806.06	1421.64
806.243	1400.32
806.427	1432.29
806.61	1439.27
806.794	1406.72
806.977	1422.8
807.16	1402.46
807.344	1449.15
807.527	1415.05
807.71	1404.39
807.894	1424.74
808.077	1417.37
808.26	1359.83
808.444	1352.86
808.627	1414.27
808.81	1420.28
808.993	1334.84
809.177	1334.84
809.36	1354.02
809.543	1374.94
809.726	1310.81
809.909	1326.12
810.092	1292.02
810.276	1299.96
810.459	1321.86
810.642	1305.19
810.825	1295.51
811.008	1316.82
811.191	1206.96
811.374	1244.36
811.557	1276.33
811.74	1318.56
811.923	1197.66
812.106	1215.1
812.289	1204.25
812.472	1216.07
812.654	1208.51
812.837	1184.1
813.02	1135.47
813.203	1150
813.386	1100.02
813.569	1079.29
813.751	1033.37
813.934	1057
814.117	1074.44
814.3	1028.33
814.482	1000.43
814.665	994.23
814.848	988.61
815.03	973.31
815.213	968.46
815.396	955.09
815.578	913.05
815.761	918.28
815.943	971.17
816.126	901.23
816.309	867.13
816.491	849.5
816.674	783.43
816.856	873.72
817.039	831.09
817.221	891.54
817.403	859.38
817.586	819.08
817.768	881.86
817.951	786.53
818.133	783.63
818.315	834.58
818.498	861.71
818.68	881.08
818.862	895.61
819.045	904.72
819.227	874.69
819.409	870.81
819.591	887.09
819.774	867.71
819.956	825.09
820.138	914.99
820.32	896.19
820.502	918.28
820.684	972.92
820.866	966.72
821.048	1002.95
821.231	978.73
821.413	955.87
821.595	958.97
821.777	959.36
821.959	936.88
822.141	1014.96
822.323	914.02
822.505	921.38
822.686	868.1
822.868	835.55
823.05	759.02
823.232	753.4
823.414	716.01
823.596	794.09
823.778	786.15
823.96	779.17
824.141	753.6
824.323	821.6
824.505	821.99
824.687	855.31
824.868	896.19
825.05	935.91
825.232	949.67
825.413	1032.59
825.595	982.8
825.777	914.79
825.958	948.51
826.14	954.9
826.321	982.99
826.503	946.57
826.685	953.93
826.866	988.61
827.048	993.46
827.229	919.83
827.411	904.91
827.592	897.16
827.773	909.18
827.955	858.61
828.136	872.36
828.318	843.69
828.499	879.73
828.68	811.53
828.862	892.13
829.043	879.53
829.224	873.14
829.406	821.8
829.587	846.21
829.768	818.7
829.949	853.96
830.131	854.34
830.312	910.92
830.493	846.21
830.674	897.94
830.855	835.94
831.036	848.92
831.218	931.46
831.399	898.91
831.58	853.38
831.761	851.83
831.942	889.03
832.123	851.63
832.304	825.67
832.485	828.58
832.666	880.31
832.847	852.41
833.028	851.05
833.209	860.93
833.389	855.31
833.57	791.57
833.751	841.36
833.932	889.22
834.113	869.07
834.294	830.32
834.475	885.34
834.655	883.21
834.836	902.2
835.017	902.39
835.198	844.46
835.378	854.54
835.559	896.39
835.74	877.4
835.92	858.41
836.101	841.36
836.281	919.64
836.462	896.19
836.643	905.88
836.823	918.67
837.004	900.46
837.184	941.14
837.365	931.65
837.545	936.69
837.726	904.14
837.906	941.72
838.087	913.63
838.267	892.51
838.448	867.91
838.628	876.63
838.808	882.83
838.989	924.87
839.169	872.17
839.349	900.07
839.53	932.42
839.71	943.86
839.89	891.93
840.07	935.72
840.251	883.79
840.431	916.54
840.611	885.54
840.791	872.36
840.971	893.09
841.151	889.22
841.332	870.43
841.512	927.39
841.692	857.25
841.872	887.28
842.052	878.95
842.232	927.19
842.412	853.76
842.592	866.55
842.772	915.96
842.952	907.82
843.132	857.64
843.312	872.36
843.492	855.31
843.672	899.68
843.851	876.04
844.031	879.73
844.211	878.37
844.391	836.33
844.571	877.01
844.751	895.23
844.93	889.41
845.11	871.2
845.29	877.98
845.47	871.98
845.649	875.46
845.829	883.99
846.009	840.39
846.188	878.18
846.368	884.76
846.547	877.21
846.727	903.56
846.907	844.46
847.086	887.67
847.266	884.38
847.445	847.56
847.625	879.34
847.804	866.55
847.984	841.56
848.163	840.78
848.343	827.8
848.522	864.81
848.701	856.86
848.881	849.69
849.06	847.37
849.239	861.13
849.419	846.59
849.598	797
849.777	831.29
849.957	807.65
850.136	788.08
850.315	739.65
850.494	770.65
850.674	798.74
850.853	846.21
851.032	781.11
851.211	832.06
851.39	786.92
851.569	748.75
851.748	760.18
851.927	795.64
852.107	786.73
852.286	739.26
852.465	735.38
852.644	823.54
852.823	766.58
853.002	751.27
853.181	770.26
853.359	797.77
853.538	749.33
853.717	828.77
853.896	721.63
854.075	691.6
854.254	675.52
854.433	653.43
854.611	707.29
854.79	653.23
854.969	690.05
855.148	740.03
855.327	694.31
855.505	708.07
855.684	708.07
855.863	726.28
856.041	656.33
856.22	707.1
856.399	678.23
856.577	764.06
856.756	740.61
856.934	848.14
857.113	851.83
857.291	788.28
857.47	748.17
857.648	744.68
857.827	769.29
858.005	786.15
858.184	727.44
858.362	831.09
858.541	761.54
858.719	757.66
858.898	739.06
859.076	748.36
859.254	798.93
859.433	715.04
859.611	730.54
859.789	695.67
859.967	805.33
860.146	810.36
860.324	664.47
860.502	731.9
860.68	717.37
860.859	730.54
861.037	694.12
861.215	718.33
861.393	739.26
861.571	703.8
861.749	705.55
861.927	735.38
862.105	739.84
862.283	705.35
862.461	694.12
862.639	690.43
862.817	701.09
862.995	707.48
863.173	696.44
863.351	712.13
863.529	714.07
863.707	758.83
863.885	699.73
864.063	652.85
864.241	659.24
864.418	727.83
864.596	689.66
864.774	653.04
864.952	694.89
865.129	717.37
865.307	660.79
865.485	636.96
865.663	687.72
865.84	623.79
866.018	695.47
866.196	557.72
866.373	592.59
866.551	592.98
866.728	534.66
866.906	590.65
867.084	610.03
867.261	625.53
867.439	622.62
867.616	623.4
867.794	633.47
867.971	649.75
868.149	622.62
868.326	684.04
868.503	662.92
868.681	642.77
868.858	647.04
869.035	615.84
869.213	654.01
869.39	641.42
869.567	696.44
869.745	632.5
869.922	649.75
870.099	661.95
870.276	650.72
870.454	659.24
870.631	656.53
870.808	633.09
870.985	673.38
871.162	700.32
871.339	635.22
871.517	594.92
871.694	606.15
871.871	660.21
872.048	660.6
872.225	607.7
872.402	606.74
872.579	592.79
872.756	620.49
872.933	587.94
873.11	612.16
873.287	606.54
873.463	580.39
873.64	610.42
873.817	667.77
873.994	609.06
874.171	591.62
874.348	634.44
874.524	560.62
874.701	607.32
874.878	550.74
875.055	604.02
875.231	590.65
875.408	642.58
875.585	559.07
875.762	604.99
875.938	571.67
876.115	607.9
876.291	586.2
876.468	575.35
876.645	547.06
876.821	595.3
876.998	588.52
877.174	571.09
877.351	599.95
877.527	576.32
877.704	601.7
877.88	580.39
878.057	561.59
878.233	604.41
878.409	552.1
878.586	577.87
878.762	562.95
878.938	571.09
879.115	505.6
879.291	554.42
879.467	521.87
879.644	514.12
879.82	566.82
879.996	530.01
880.172	468.59
880.349	548.81
880.525	558.69
880.701	522.46
880.877	485.84
881.053	533.5
881.229	529.24
881.405	567.4
881.581	536.21
881.757	540.28
881.933	568.76
882.109	568.37
882.285	571.86
882.461	504.05
882.637	570.7
882.813	524.2
882.989	520.13
883.165	573.8
883.341	511.41
883.517	578.45
883.693	562.95
883.869	562.95
884.044	539.89
884.22	554.23
884.396	547.84
884.572	526.91
884.747	540.67
884.923	539.31
885.099	558.88
885.275	543.77
885.45	510.25
885.626	512.38
885.801	506.57
885.977	533.5
886.153	472.86
886.328	564.89
886.504	526.52
886.679	564.89
886.855	498.82
887.03	560.24
887.206	552.49
887.381	532.53
887.557	544.74
887.732	543.57
887.908	572.83
888.083	565.85
888.258	532.72
888.434	536.02
888.609	535.82
888.784	585.04
888.96	521.29
889.135	491.26
889.31	489.32
889.485	519.16
889.661	515.67
889.836	553.65
890.011	556.75
890.186	533.31
890.361	498.24
890.537	581.74
890.712	558.88
890.887	536.99
891.062	561.4
891.237	576.51
891.412	500.17
891.587	543.96
891.762	550.16
891.937	577.48
892.112	501.72
892.287	502.89
892.462	477.89
892.637	432.75
892.812	487.77
892.987	482.35
893.161	471.5
893.336	494.94
893.511	485.45
893.686	490.1
893.861	481.96
894.035	484.48
894.21	468.79
894.385	436.04
894.56	485.84
894.734	432.36
894.909	416.67
895.084	450.38
895.258	410.66
895.433	444.38
895.608	421.51
895.782	407.76
895.957	428.88
896.131	407.18
896.306	352.54
896.48	373.85
896.655	378.5
896.829	350.8
897.004	332.39
897.178	331.03
897.353	340.53
897.527	390.51
897.701	369.01
897.876	329.87
898.05	389.74
898.224	383.73
898.399	412.41
898.573	334.71
898.747	261.09
898.921	341.5
899.096	280.47
899.27	295.77
899.444	267.48
899.618	297.71
899.792	279.3
899.967	261.87
900.141	314.37
900.315	283.57
900.489	307.59
900.663	295
900.837	325.41
901.011	280.27
901.185	375.98
901.359	292.48
901.533	305.65
901.707	300.81
901.881	299.84
902.055	248.3
902.229	285.12
902.403	349.05
902.576	299.26
902.75	306.43
902.924	418.41
903.098	341.5
903.272	376.18
903.446	371.72
903.619	374.43
903.793	377.53
903.967	366.1
904.14	398.65
904.314	388.96
904.488	354.48
904.661	415.31
904.835	363.58
905.009	434.3
905.182	470.73
905.356	410.47
905.529	406.79
905.703	361.45
905.876	383.15
906.05	338.01
906.223	348.28
906.397	304.68
906.57	313.79
906.744	301.39
906.917	308.36
907.09	296.74
907.264	306.62
907.437	294.03
907.61	261.67
907.784	288.02
907.957	293.45
908.13	289.96
908.304	314.95
908.477	252.95
908.65	291.51
908.823	235.13
908.996	343.24
909.17	285.5
909.343	254.5
909.516	263.03
909.689	278.33
909.862	261.28
910.035	265.74
910.208	217.5
910.381	238.81
910.554	336.65
910.727	249.27
910.9	245.59
911.073	251.21
911.246	298.68
911.419	298.1
911.592	288.6
911.765	261.28
911.938	242.88
912.11	281.43
912.283	267.87
912.456	298.29
912.629	275.82
912.802	227.38
912.974	205.49
913.147	209.17
913.32	167.32
913.493	190.76
913.665	231.83
913.838	238.62
914.01	221.18
914.183	225.83
914.356	194.83
914.528	242.49
914.701	297.71
914.873	245.78
915.046	231.06
915.218	228.73
915.391	178.36
915.563	189.6
915.736	223.7
915.908	241.52
916.081	241.33
916.253	214.2
916.425	221.76
916.598	222.53
916.77	239.2
916.942	218.85
917.115	153.37
917.287	218.47
917.459	223.7
917.632	173.9
917.804	144.65
917.976	217.5
918.148	230.87
918.32	195.99
918.493	235.32
918.665	254.31
918.837	221.76
919.009	272.72
919.181	245.2
919.353	259.15
919.525	248.69
919.697	235.13
919.869	220.6
920.041	279.88
920.213	311.08
920.385	241.52
920.557	209.36
920.729	233.77
920.901	245.01
921.073	249.27
921.244	249.27
921.416	278.14
921.588	228.73
921.76	220.02
921.932	283.57
922.103	221.37
922.275	247.92
922.447	236.48
922.619	171.77
922.79	239.58
922.962	206.65
923.134	258.18
923.305	212.65
923.477	166.15
923.648	221.76
923.82	200.84
923.991	146.39
924.163	178.94
924.335	214.98
924.506	182.62
924.677	242.88
924.849	178.55
925.02	206.45
925.192	214.01
925.363	189.79
925.535	203.55
925.706	190.95
925.877	252.95
926.049	189.02
926.22	198.12
926.391	207.62
926.562	226.8
926.734	184.37
926.905	222.34
927.076	150.85
927.247	202
927.419	155.69
927.59	196.96
927.761	185.14
927.932	181.46
928.103	192.31
928.274	142.32
928.445	160.73
928.616	136.32
928.787	149.3
928.958	185.34
929.129	148.72
929.3	127.21
929.471	118.3
929.642	103.77
929.813	50.87
929.984	143.1
930.155	66.57
930.326	141.94
930.496	90.4
930.667	45.64
930.838	104.54
931.009	61.34
931.18	95.24
931.35	62.69
931.521	70.25
931.692	38.86
931.863	20.46
932.033	74.51
932.204	84.97
932.374	58.62
932.545	49.91
932.716	102.8
932.886	92.14
933.057	23.17
933.227	37.12
933.398	88.27
933.568	18.13
933.739	23.56
933.909	11.54
934.08	87.88
934.25	10.38
934.421	9.22
934.591	53.2
934.761	-4.73
934.932	-24.49
935.102	22.39
935.272	-19.46
935.443	28.79
935.613	11.54
935.783	37.12
935.953	-13.64
936.123	158.99
936.294	-27.79
936.464	8.83
936.634	3.21
936.804	-0.86
936.974	-14.61
937.144	33.63
937.314	24.72
937.484	-24.49
937.655	3.41
937.825	53.78
937.995	2.24
938.165	53.01
938.334	41.19
938.504	42.16
938.674	20.46
938.844	2.83
939.014	64.24
939.184	51.26
939.354	82.46
939.524	80.91
939.694	78.39
939.863	19.1
940.033	71.02
940.203	68.12
940.373	63.86
940.542	81.87
940.712	34.6
940.882	104.35
941.051	92.92
941.221	53.97
941.391	68.51
941.56	29.76
941.73	21.62
941.899	121.21
942.069	41.96
942.238	64.24
942.408	45.26
942.577	70.44
942.747	24.33
942.916	-0.27
943.086	4.38
943.255	55.72
943.425	40.22
943.594	21.04
943.763	-27.4
943.933	21.43
944.102	-10.74
944.271	44.87
944.441	36.15
944.61	23.75
944.779	11.74
944.948	92.92
945.117	2.05
945.287	30.53
945.456	-30.11
945.625	16.58
945.794	34.21
945.963	8.44
946.132	37.12
946.301	6.7
946.47	47.19
946.639	-20.42
946.808	6.7
946.977	33.24
947.146	65.21
947.315	-9.77
947.484	74.12
947.653	-1.82
947.822	13.87
947.991	8.25
948.16	106.87
948.329	67.73
948.498	32.66
948.666	24.53
948.835	61.53
949.004	5.54
949.173	2.83
949.341	18.71
949.51	49.32
949.679	83.42
949.847	76.26
950.016	102.22
950.185	70.44
950.353	9.03
950.522	36.73
950.69	82.07
950.859	18.52
951.028	84.97
951.196	27.63
951.365	-22.56
951.533	51.07
951.701	52.62
951.87	71.02
952.038	-2.02
952.207	40.22
952.375	83.04
952.543	20.46
952.712	34.02
952.88	1.86
953.048	81.1
953.217	27.43
953.385	27.43
953.553	66.76
953.721	33.05
953.89	32.28
954.058	-11.9
954.226	6.51
954.394	34.02
954.562	8.64
954.73	22.98
954.898	41.96
955.067	94.86
955.235	12.9
955.403	62.89
955.571	112.1
955.739	45.64
955.907	35.57
956.075	-16.74
956.243	11.16
956.41	71.22
956.578	2.83
956.746	-14.22
956.914	11.54
957.082	59.59
957.25	53.78
957.418	9.03
957.585	34.6
957.753	77.42
957.921	11.74
958.089	39.25
958.256	62.69
958.424	67.92
958.592	31.89
958.759	7.86
958.927	51.84
959.095	30.14
959.262	33.44
959.43	37.31
959.597	22.2
959.765	38.47
959.932	-13.26
960.1	50.29
960.267	30.73
960.435	12.51
960.602	57.66
960.77	27.24
960.937	-3.76
961.104	52.04
961.272	4.76
961.439	34.41
961.606	68.89
961.774	57.27
961.941	15.03
962.108	18.91
962.275	45.26
962.443	62.11
962.61	55.91
962.777	101.64
962.944	73.93
963.111	46.61
963.278	39.25
963.446	53.39
963.613	50.49
963.78	67.92
963.947	66.57
964.114	47.39
964.281	125.08
964.448	44.48
964.615	25.11
964.782	78.77
964.949	54.94
965.116	72.57
965.282	95.82
965.449	20.65
965.616	18.91
965.783	74.71
965.95	60.76
966.117	9.8
966.283	33.05
966.45	54.36
966.617	57.07
966.784	90.59
966.95	65.41
967.117	73.93
967.284	7.28
967.45	-4.34
967.617	87.11
967.784	71.61
967.95	108.22
968.117	47.58
968.283	76.45
968.45	120.62
968.616	62.31
968.783	64.05
968.949	71.61
969.116	99.31
969.282	45.45
969.449	68.7
969.615	49.71
969.781	14.06
969.948	31.11
970.114	-1.82
970.28	101.44
970.447	41.96
970.613	74.51
970.779	69.47
970.945	58.82
971.112	56.11
971.278	37.51
971.444	56.88
971.61	92.72
971.776	42.93
971.942	91.56
972.108	67.73
972.275	58.04
972.441	61.14
972.607	133.8
972.773	35.76
972.939	79.74
973.105	51.26
973.271	17.74
973.437	49.91
973.602	28.59
973.768	69.67
973.934	54.75
974.1	52.23
974.266	-12.48
974.432	91.17
974.598	31.89
974.763	87.3
974.929	58.62
975.095	115.39
975.261	34.99
975.426	20.46
975.592	30.73
975.758	123.34
975.923	22.39
976.089	35.38
976.255	111.32
976.42	51.65
976.586	77.03
976.751	65.02
976.917	129.15
977.082	58.04
977.248	19.88
977.413	-4.34
977.579	53.97
977.744	56.11
977.91	10.38
978.075	29.37
978.24	48.55
978.406	39.64
978.571	18.91
978.736	27.24
978.902	79.74
979.067	40.41
979.232	-7.64
979.397	33.63
979.563	77.03
979.728	-2.79
979.893	42.16
980.058	18.71
980.223	75.29
980.388	61.72
980.554	40.22
980.719	40.61
980.884	64.44
981.049	95.82
981.214	30.34
981.379	62.5
981.544	43.32
981.709	27.63
981.874	17.16
982.039	22.98
982.204	42.54
982.368	59.59
982.533	14.45
982.698	95.82
982.863	64.63
983.028	25.11
983.193	57.07
983.357	69.47
983.522	37.89
983.687	33.44
983.852	31.11
984.016	16
984.181	47.77
984.346	73.35
984.51	35.18
984.675	70.64
984.839	72.57
985.004	73.16
985.168	93.5
985.333	81.29
985.498	39.83
985.662	74.51
985.827	48.16
985.991	65.99
986.155	36.34
986.32	71.02
986.484	104.16
986.649	53.2
986.813	-15.97
986.977	58.62
987.142	66.57
987.306	31.69
987.47	33.63
987.634	65.21
987.799	48.74
987.963	72.38
988.127	74.12
988.291	132.44
988.455	50.68
988.62	46.03
988.784	49.91
988.948	63.66
989.112	9.99
989.276	42.16
989.44	60.95
989.604	21.43
989.768	8.25
989.932	115.39
990.096	29.18
990.26	-0.27
990.424	6.31
990.588	55.91
990.752	90.79
990.915	61.92
991.079	27.24
991.243	34.21
991.407	63.47
991.571	59.98
991.734	59.59
991.898	68.51
992.062	115.78
992.226	40.02
992.389	20.46
992.553	35.38
992.717	14.26
992.88	18.52
993.044	45.26
993.207	27.24
993.371	73.35
993.535	69.09
993.698	37.89
993.862	73.93
994.025	79.16
994.189	50.68
994.352	25.88
994.515	69.47
994.679	91.76
994.842	23.94
995.006	77.81
995.169	20.65
995.332	6.31
995.496	56.11
995.659	-13.26
995.822	26.85
995.985	51.46
996.149	84.97
996.312	34.6
996.475	90.21
996.638	6.7
996.801	74.12
996.964	109.77
997.128	49.32
997.291	40.41
997.454	50.87
997.617	15.42
997.78	74.71
997.943	21.23
998.106	54.56
998.269	-2.41
998.432	61.14
998.595	24.53
998.758	-2.99
998.92	5.93
999.083	-13.26
999.246	31.89
999.409	2.24
999.572	-12.87
999.735	21.04
999.897	42.54
1000.06	39.83
1000.223	33.63
1000.386	63.86
1000.548	62.89
1000.711	31.69
1000.874	54.17
1001.036	6.51
1001.199	45.45
1001.361	10.96
1001.524	46.61
1001.687	79.74
1001.849	18.52
1002.012	49.13
1002.174	33.83
1002.337	51.26
1002.499	12.9
1002.661	73.35
1002.824	13.09
1002.986	8.64
1003.149	47.97
1003.311	6.51
1003.473	101.83
1003.636	20.07
1003.798	62.11
1003.96	40.99
1004.123	17.55
1004.285	27.82
1004.447	27.43
1004.609	51.65
1004.771	108.22
1004.933	4.38
1005.096	25.3
1005.258	-39.02
1005.42	17.16
1005.582	70.25
1005.744	25.69
1005.906	-14.22
1006.068	32.28
1006.23	-2.41
1006.392	-47.55
1006.554	-5.12
1006.716	79.94
1006.878	47.97
1007.04	10.19
1007.202	20.07
1007.363	26.85
1007.525	27.04
1007.687	36.92
1007.849	82.65
1008.011	-30.69
1008.172	-19.07
1008.334	13.29
1008.496	67.54
1008.658	3.02
1008.819	30.14
1008.981	3.79
1009.143	2.63
1009.304	40.22
1009.466	25.88
1009.627	63.08
1009.789	119.07
1009.95	42.93
1010.112	-3.37
1010.273	23.75
1010.435	-8.02
1010.596	14.84
1010.758	-4.54
1010.919	11.74
1011.081	-38.25
1011.242	26.85
1011.403	57.27
1011.565	21.23
1011.726	40.02
1011.887	-12.48
1012.049	-0.66
1012.21	42.93
1012.371	107.06
1012.532	-43.29
1012.693	41.38
1012.855	-5.51
1013.016	16.19
1013.177	49.52
1013.338	26.85
1013.499	62.69
1013.66	28.79
1013.821	33.24
1013.982	8.64
1014.143	2.63
1014.304	-3.18
1014.465	30.14
1014.626	34.02
1014.787	8.44
1014.948	108.61
1015.109	-49.87
1015.27	47.58
1015.431	17.74
1015.592	-7.64
1015.752	73.35
1015.913	41.57
1016.074	7.67
1016.235	20.84
1016.395	12.13
1016.556	28.4
1016.717	9.99
1016.877	57.85
1017.038	14.64
1017.199	34.99
1017.359	43.51
1017.52	23.75
1017.681	-17.71
1017.841	7.28
1018.002	-16.94
1018.162	10.77
1018.323	74.71
1018.483	10.96
1018.644	28.01
1018.804	-13.26
1018.964	-10.35
1019.125	-10.54
1019.285	-4.92
1019.446	2.44
1019.606	-20.42
1019.766	-28.17
1019.926	33.24
1020.087	35.76
1020.247	-27.21
1020.407	46.42
1020.567	31.5
1020.728	12.13
1020.888	-4.73
1021.048	6.31
1021.208	1.08
1021.368	0.11
1021.528	51.46
1021.688	24.53
1021.848	38.28
1022.008	28.59
1022.168	10.58
1022.328	32.08
1022.488	27.43
1022.648	9.8
1022.808	-10.35
1022.968	5.34
1023.128	-6.47
1023.288	-2.41
1023.448	9.03
1023.608	52.23
1023.767	41.96
1023.927	-10.16
1024.087	-28.76
1024.247	-14.61
1024.406	-22.94
1024.566	-15.58
1024.726	-5.31
1024.885	27.63
1025.045	38.47
1025.205	-2.99
1025.364	2.05
1025.524	11.54
1025.683	3.79
1025.843	24.72
1026.003	4.18
1026.162	44.48
1026.321	46.22
1026.481	25.88
1026.64	25.49
1026.8	28.79
1026.959	-5.7
1027.119	3.6
1027.278	7.86
1027.437	10.96
1027.597	25.88
1027.756	16.58
1027.915	49.52
1028.074	26.66
1028.234	-27.98
1028.393	20.26
1028.552	9.03
1028.711	-48.52
1028.87	32.47
1029.03	7.86
1029.189	1.28
1029.348	-46.77
1029.507	22.39
1029.666	1.47
1029.825	-45.61
1029.984	-15.19
1030.143	-14.42
1030.302	-0.47
1030.461	-29.72
1030.62	19.49
1030.779	38.67
1030.938	-3.18
1031.097	-31.27
1031.255	41.57
1031.414	41.57
1031.573	51.46
1031.732	-17.13
1031.891	4.76
1032.049	36.15
1032.208	22.39
1032.367	-3.76
1032.525	7.28
1032.684	-10.35
1032.843	10.96
1033.001	-22.36
1033.16	126.05
1033.319	60.76
1033.477	24.72
1033.636	-0.86
1033.794	-31.27
1033.953	22.59
1034.111	57.46
1034.27	-11.32
1034.428	21.43
1034.587	-26.43
1034.745	-3.37
1034.903	8.25
1035.062	19.88
1035.22	-19.26
1035.378	47.97
1035.537	-19.65
1035.695	32.47
1035.853	-10.16
1036.011	19.49
1036.17	14.06
1036.328	-68.28
1036.486	5.15
1036.644	18.52
1036.802	-64.21
1036.96	-1.44
1037.119	-2.21
1037.277	17.16
1037.435	-49.1
1037.593	-30.5
1037.751	2.83
1037.909	31.69
1038.067	31.69
