Data from oakcork_FLMT105791__266__17-34-12-043.txt Node

Date: Mon Mar 20 17:34:12 GMT 2023
User: antho
Spectrometer: FLMT10579
Trigger mode: 0
Integration Time (sec): 1.000000E-1
Scans to average: 10
Electric dark correction enabled: true
Nonlinearity correction enabled: false
Boxcar width: 0
XAxis mode: Wavelengths
Number of Pixels in Spectrum: 3648
>>>>>Begin Spectral Data<<<<<
345.248	-153.53
345.464	-153.53
345.681	-153.53
345.898	-163.8
346.114	-146.36
346.331	-43.67
346.548	27.63
346.764	19.68
346.981	9.99
347.197	-13.45
347.414	11.74
347.631	-42.12
347.847	38.09
348.064	5.73
348.28	21.81
348.497	-36.31
348.713	0.89
348.93	29.37
349.146	38.67
349.363	14.64
349.579	16.97
349.796	13.48
350.012	-5.89
350.229	10.77
350.445	2.24
350.661	-16.55
350.878	15.03
351.094	11.16
351.311	36.54
351.527	34.02
351.743	-6.28
351.96	57.07
352.176	69.67
352.392	32.86
352.609	38.09
352.825	-21.78
353.041	21.43
353.257	-5.31
353.474	20.07
353.69	21.62
353.906	4.57
354.122	-32.63
354.339	39.64
354.555	14.45
354.771	7.86
354.987	72.57
355.203	53.2
355.42	7.28
355.636	12.51
355.852	-30.5
356.068	11.74
356.284	-25.46
356.5	61.34
356.716	8.64
356.932	21.04
357.148	57.46
357.364	19.1
357.58	57.07
357.796	39.83
358.012	64.05
358.228	14.06
358.444	-45.42
358.66	61.14
358.876	21.04
359.092	-4.73
359.308	47.19
359.524	30.14
359.74	3.99
359.956	7.09
360.172	14.26
360.388	29.95
360.604	-1.44
360.819	86.72
361.035	17.94
361.251	43.51
361.467	-6.09
361.683	51.26
361.898	-8.02
362.114	61.72
362.33	42.74
362.546	44.87
362.762	5.93
362.977	28.01
363.193	-1.44
363.409	58.82
363.624	-24.69
363.84	-7.64
364.056	-4.15
364.271	46.42
364.487	0.31
364.703	16.19
364.918	-15.77
365.134	1.66
365.35	29.95
365.565	123.72
365.781	17.94
365.996	37.7
366.212	61.92
366.427	67.54
366.643	1.66
366.858	-11.12
367.074	-19.26
367.289	71.22
367.505	100.09
367.72	-26.62
367.936	15.42
368.151	58.82
368.367	46.61
368.582	28.4
368.798	12.71
369.013	61.92
369.228	23.17
369.444	15.81
369.659	65.79
369.874	45.64
370.09	51.46
370.305	-25.85
370.52	19.88
370.736	53.59
370.951	33.63
371.166	68.31
371.381	83.42
371.597	45.26
371.812	-15
372.027	9.61
372.242	19.1
372.458	69.86
372.673	26.46
372.888	35.57
373.103	41.19
373.318	107.64
373.533	31.89
373.749	35.96
373.964	-6.67
374.179	62.5
374.394	3.6
374.609	62.89
374.824	-21.97
375.039	76.26
375.254	1.08
375.469	68.12
375.684	27.04
375.899	34.99
376.114	26.85
376.329	57.85
376.544	69.86
376.759	45.26
376.974	1.86
377.189	28.79
377.404	8.83
377.619	58.82
377.834	-7.25
378.049	-5.89
378.264	-23.33
378.478	32.47
378.693	9.41
378.908	33.05
379.123	15.81
379.338	58.43
379.553	41.57
379.767	63.86
379.982	46.03
380.197	58.04
380.412	18.71
380.626	42.16
380.841	109.58
381.056	66.57
381.271	72.96
381.485	-10.93
381.7	5.73
381.915	33.83
382.129	38.86
382.344	40.41
382.559	11.74
382.773	55.14
382.988	-9.57
383.202	39.06
383.417	0.31
383.632	106.87
383.846	18.71
384.061	53.39
384.275	15.61
384.49	48.55
384.704	36.54
384.919	40.99
385.133	20.84
385.348	40.02
385.562	6.31
385.777	76.26
385.991	10.38
386.206	1.28
386.42	15.23
386.634	64.82
386.849	51.07
387.063	27.04
387.277	-2.99
387.492	34.6
387.706	-12.67
387.92	16.19
388.135	63.86
388.349	42.54
388.563	30.14
388.778	60.95
388.992	32.08
389.206	53.97
389.42	80.13
389.635	29.76
389.849	78.97
390.063	68.7
390.277	21.23
390.491	109
390.706	51.46
390.92	55.91
391.134	35.96
391.348	78.97
391.562	5.34
391.776	22.78
391.99	34.99
392.205	84.78
392.419	19.29
392.633	21.23
392.847	58.82
393.061	22.78
393.275	100.09
393.489	34.79
393.703	55.52
393.917	72.77
394.131	32.47
394.345	71.41
394.559	59.98
394.773	27.43
394.986	62.11
395.2	53.39
395.414	61.14
395.628	27.43
395.842	53.01
396.056	30.34
396.27	-12.09
396.484	75.29
396.697	51.46
396.911	68.7
397.125	61.72
397.339	67.73
397.553	63.66
397.766	123.34
397.98	120.43
398.194	72.96
398.408	33.24
398.621	59.98
398.835	102.02
399.049	42.74
399.262	100.47
399.476	93.11
399.69	90.4
399.903	151.62
400.117	60.56
400.331	75.09
400.544	36.92
400.758	153.37
400.971	78.77
401.185	98.34
401.398	50.68
401.612	116.17
401.826	112.1
402.039	95.05
402.253	67.15
402.466	107.45
402.68	82.26
402.893	85.36
403.106	90.98
403.32	72.57
403.533	111.71
403.747	64.63
403.96	104.93
404.174	113.65
404.387	41.96
404.6	56.69
404.814	100.09
405.027	78.19
405.24	78.39
405.454	76.64
405.667	128.57
405.88	30.92
406.094	80.71
406.307	123.14
406.52	90.59
406.733	42.54
406.947	63.86
407.16	131.47
407.373	134.19
407.586	62.5
407.799	52.23
408.012	116.36
408.226	100.47
408.439	136.51
408.652	80.13
408.865	95.44
409.078	127.02
409.291	99.89
409.504	71.41
409.717	97.57
409.93	115.59
410.143	101.06
410.357	59.4
410.57	53.39
410.783	74.71
410.996	93.89
411.209	82.65
411.421	146
411.634	80.32
411.847	52.62
412.06	92.14
412.273	107.26
412.486	89.82
412.699	177.97
412.912	108.61
413.125	123.53
413.338	91.76
413.55	132.25
413.763	91.37
413.976	119.07
414.189	94.27
414.402	116.75
414.615	135.93
414.827	93.31
415.04	142.9
415.253	121.98
415.466	129.15
415.678	168.67
415.891	95.24
416.104	95.82
416.316	116.36
416.529	77.81
416.742	140
416.954	142.9
417.167	115.97
417.38	98.34
417.592	134.38
417.805	105.51
418.017	56.11
418.23	126.44
418.442	90.4
418.655	85.94
418.868	126.82
419.08	144.45
419.293	140.97
419.505	112.29
419.718	114.62
419.93	162.47
420.142	113.84
420.355	153.75
420.567	160.92
420.78	117.52
420.992	115.2
421.205	190.76
421.417	79.94
421.629	115.39
421.842	87.11
422.054	72.38
422.266	126.82
422.479	146.59
422.691	75.29
422.903	138.25
423.115	97.76
423.328	103.19
423.54	111.32
423.752	120.04
423.964	122.95
424.177	132.83
424.389	115.2
424.601	223.12
424.813	127.21
425.025	162.09
425.238	158.6
425.45	127.4
425.662	113.84
425.874	363.2
426.086	127.99
426.298	143.68
426.51	144.07
426.722	145.62
426.934	94.86
427.146	169.25
427.358	75.48
427.57	145.23
427.782	97.37
427.994	129.54
428.206	99.12
428.418	110.36
428.63	148.52
428.842	188.24
429.054	136.7
429.266	168.09
429.478	133.6
429.69	93.89
429.902	81.68
430.114	144.07
430.325	128.57
430.537	122.95
430.749	116.56
430.961	65.21
431.173	114.62
431.384	163.05
431.596	76.45
431.808	133.8
432.02	136.51
432.231	178.36
432.443	170.8
432.655	151.43
432.867	97.76
433.078	149.1
433.29	184.95
433.502	174.49
433.713	193.09
433.925	187.85
434.136	192.31
434.348	113.07
434.56	84.59
434.771	215.95
434.983	118.49
435.194	112.29
435.406	133.8
435.617	197.93
435.829	199.87
436.04	134.96
436.252	191.92
436.463	190.95
436.675	185.53
436.886	175.65
437.098	183.59
437.309	209.55
437.521	147.36
437.732	190.76
437.943	156.47
438.155	169.84
438.366	130.5
438.578	216.14
438.789	171.77
439	185.92
439.211	151.43
439.423	191.15
439.634	200.06
439.845	188.24
440.057	176.04
440.268	198.12
440.479	160.92
440.69	147.36
440.902	166.15
441.113	166.74
441.324	163.05
441.535	192.7
441.746	233
441.957	169.45
442.168	166.74
442.38	205.68
442.591	199.67
442.802	161.31
443.013	152.2
443.224	182.24
443.435	155.5
443.646	146.59
443.857	167.51
444.068	155.89
444.279	169.64
444.49	222.53
444.701	187.27
444.912	271.36
445.123	231.64
445.334	199.29
445.545	184.37
445.756	182.62
445.967	194.44
446.178	227.38
446.388	238.81
446.599	226.99
446.81	203.55
447.021	194.05
447.232	239.58
447.443	227.18
447.653	197.35
447.864	238.42
448.075	184.95
448.286	238.62
448.496	217.11
448.707	244.62
448.918	175.07
449.129	251.6
449.339	179.91
449.55	206.07
449.761	210.72
449.971	266.71
450.182	212.65
450.393	230.09
450.603	221.18
450.814	241.52
451.024	199.67
451.235	275.23
451.446	240.55
451.656	251.4
451.867	199.87
452.077	238.42
452.288	272.72
452.498	264.38
452.709	207.81
452.919	204.13
453.13	191.54
453.34	241.52
453.55	146.2
453.761	256.25
453.971	244.62
454.182	259.35
454.392	224.67
454.602	257.41
454.813	245.78
455.023	275.62
455.233	187.47
455.444	204.9
455.654	166.54
455.864	223.12
456.075	233.19
456.285	234.74
456.495	199.87
456.705	257.22
456.916	265.16
457.126	259.93
457.336	239.97
457.546	171.39
457.756	189.99
457.967	245.4
458.177	216.53
458.387	240.36
458.597	205.1
458.807	219.82
459.017	213.82
459.227	236.48
459.437	232.61
459.647	242.88
459.857	247.14
460.068	228.15
460.278	275.82
460.488	258.57
460.698	284.15
460.908	209.75
461.117	218.66
461.327	234.93
461.537	257.22
461.747	233
461.957	230.09
462.167	337.23
462.377	262.25
462.587	246.95
462.797	280.85
463.007	218.27
463.216	257.02
463.426	264.19
463.636	264.58
463.846	209.75
464.056	224.47
464.265	278.33
464.475	219.24
464.685	242.1
464.895	239.97
465.104	251.02
465.314	294.8
465.524	227.38
465.733	242.68
465.943	294.22
466.153	282.02
466.362	287.25
466.572	261.48
466.782	252.18
466.991	243.65
467.201	292.09
467.41	214.59
467.62	286.67
467.829	261.67
468.039	253.92
468.249	274.27
468.458	258.57
468.668	289.38
468.877	263.8
469.086	309.53
469.296	290.15
469.505	242.3
469.715	324.06
469.924	264.38
470.134	302.16
470.343	312.63
470.552	275.04
470.762	267.87
470.971	209.36
471.18	280.85
471.39	248.88
471.599	252.18
471.808	276.4
472.018	223.31
472.227	303.52
472.436	301.39
472.645	278.53
472.855	263.22
473.064	316.31
473.273	265.35
473.482	308.95
473.691	318.44
473.901	314.37
474.11	284.73
474.319	353.31
474.528	266.52
474.737	343.63
474.946	310.3
475.155	299.84
475.364	332
475.573	311.46
475.783	284.92
475.992	324.83
476.201	347.89
476.41	299.45
476.619	305.46
476.828	321.93
477.037	286.28
477.245	312.24
477.454	350.8
477.663	273.1
477.872	308.56
478.081	342.66
478.29	276.98
478.499	381.99
478.708	315.73
478.917	364.75
479.125	324.64
479.334	351.18
479.543	317.86
479.752	344.6
479.961	310.5
480.169	357.77
480.378	315.34
480.587	426.55
480.796	377.53
481.004	318.05
481.213	332.2
481.422	353.51
481.63	311.66
481.839	371.53
482.048	377.34
482.256	319.41
482.465	352.93
482.674	364.36
482.882	356.22
483.091	403.69
483.299	357.19
483.508	368.43
483.716	347.31
483.925	355.25
484.134	348.86
484.342	356.41
484.551	400.39
484.759	385.67
484.967	382.38
485.176	407.95
485.384	398.07
485.593	403.49
485.801	404.85
486.01	377.53
486.218	347.5
486.426	314.95
486.635	371.14
486.843	342.66
487.051	364.75
487.26	352.93
487.468	362.81
487.676	383.35
487.885	334.71
488.093	364.55
488.301	371.14
488.509	370.56
488.717	409.89
488.926	380.44
489.134	357.58
489.342	386.44
489.55	334.91
489.758	384.31
489.967	369.4
490.175	452.13
490.383	358.16
490.591	427.91
490.799	342.08
491.007	408.92
491.215	422.29
491.423	391.68
491.631	367.26
491.839	394.19
492.047	404.66
492.255	347.31
492.463	340.72
492.671	381.99
492.879	425.78
493.087	409.89
493.295	413.57
493.503	375.21
493.711	396.71
493.919	419.58
494.127	438.56
494.334	455.42
494.542	389.16
494.75	397.49
494.958	408.34
495.166	424.03
495.374	439.14
495.581	404.27
495.789	422.68
495.997	452.32
496.205	435.85
496.412	420.35
496.62	433.14
496.828	421.13
497.035	426.36
497.243	414.54
497.451	408.34
497.658	440.11
497.866	433.53
498.074	474.99
498.281	428.68
498.489	504.82
498.696	448.64
498.904	423.84
499.112	422.68
499.319	511.22
499.527	410.66
499.734	468.21
499.942	393.23
500.149	403.69
500.357	445.15
500.564	396.52
500.771	459.49
500.979	427.91
501.186	442.44
501.394	445.73
501.601	449.41
501.808	484.48
502.016	445.34
502.223	432.75
502.43	426.36
502.638	436.43
502.845	414.93
503.052	491.07
503.26	434.11
503.467	466.46
503.674	413.96
503.881	468.4
504.089	530.98
504.296	483.12
504.503	400.2
504.71	439.14
504.917	415.31
505.125	449.8
505.332	449.22
505.539	467.24
505.746	465.69
505.953	491.26
506.16	455.61
506.367	501.72
506.574	506.57
506.781	510.06
506.988	415.12
507.195	489.52
507.402	463.56
507.609	495.72
507.816	487.97
508.023	452.32
508.23	486.03
508.437	450.96
508.644	515.67
508.851	507.54
509.058	493.78
509.265	472.86
509.472	521.68
509.679	573.99
509.885	479.83
510.092	499.98
510.299	491.07
510.506	503.66
510.713	522.07
510.92	510.44
511.126	494.36
511.333	535.44
511.54	533.5
511.746	544.16
511.953	549.97
512.16	501.92
512.367	513.16
512.573	496.88
512.78	503.86
512.987	504.44
513.193	518.39
513.4	437.79
513.606	515.29
513.813	525.36
514.02	521.87
514.226	556.17
514.433	548.03
514.639	500.37
514.846	510.06
515.052	500.95
515.259	532.14
515.465	547.64
515.672	547.26
515.878	604.8
516.085	510.64
516.291	546.67
516.497	497.85
516.704	505.99
516.91	475.57
517.117	486.03
517.323	460.07
517.529	475.37
517.736	500.56
517.942	495.14
518.148	487.97
518.354	513.16
518.561	528.66
518.767	500.95
518.973	535.05
519.179	530.79
519.386	502.69
519.592	493.2
519.798	495.72
520.004	552.29
520.21	523.42
520.417	573.02
520.623	611.39
520.829	574.19
521.035	562.75
521.241	579.03
521.447	595.11
521.653	650.91
521.859	559.07
522.065	561.79
522.271	657.11
522.477	611
522.683	629.99
522.889	611
523.095	608.67
523.301	613.32
523.507	573.8
523.713	600.92
523.919	599.76
524.125	610.8
524.331	574.57
524.537	641.42
524.742	657.69
524.948	666.8
525.154	633.86
525.36	716.59
525.566	630.37
525.772	666.41
525.977	622.82
526.183	660.6
526.389	654.01
526.595	602.28
526.8	599.18
527.006	581.35
527.212	598.4
527.417	584.07
527.623	556.56
527.829	648.78
528.034	632.12
528.24	629.79
528.446	578.25
528.651	664.86
528.857	670.09
529.062	689.27
529.268	654.59
529.473	658.85
529.679	632.31
529.884	715.82
530.09	697.6
530.295	736.35
530.501	713.1
530.706	672.03
530.912	663.89
531.117	689.08
531.323	670.67
531.528	691.21
531.733	699.54
531.939	678.62
532.144	718.92
532.35	676.29
532.555	703.8
532.76	717.37
532.966	744.88
533.171	690.05
533.376	692.57
533.581	647.04
533.787	680.36
533.992	674.35
534.197	741.39
534.402	690.63
534.607	701.48
534.813	758.63
535.018	703.42
535.223	690.63
535.428	734.42
535.633	743.33
535.838	747.01
536.043	700.9
536.249	768.9
536.454	724.15
536.659	760.96
536.864	689.47
537.069	717.75
537.274	723.18
537.479	725.12
537.684	731.51
537.889	715.04
538.094	762.12
538.299	735.58
538.504	752.63
538.708	765.61
538.913	757.47
539.118	754.18
539.323	764.83
539.528	731.32
539.733	719.69
539.938	766
540.142	782.46
540.347	721.05
540.552	716.78
540.757	780.91
540.962	711.55
541.166	675.13
541.371	705.74
541.576	734.61
541.781	664.47
541.985	770.06
542.19	726.47
542.395	781.69
542.599	809.78
542.804	776.85
543.008	790.99
543.213	722.79
543.418	706.32
543.622	749.91
543.827	708.45
544.031	846.59
544.236	819.66
544.44	778.59
544.645	823.15
544.849	769.87
545.054	772.78
545.258	822.38
545.463	778.78
545.667	740.42
545.872	790.6
546.076	735.38
546.281	796.22
546.485	756.5
546.689	785.95
546.894	810.95
547.098	788.08
547.302	730.93
547.507	755.73
547.711	817.15
547.915	817.34
548.119	769.68
548.324	767.74
548.528	838.65
548.732	779.75
548.936	804.55
549.141	793.12
549.345	753.98
549.549	774.33
549.753	772
549.957	834.78
550.161	851.24
550.366	785.56
550.57	783.24
550.774	799.13
550.978	784.79
551.182	792.35
551.386	773.55
551.59	772.97
551.794	777.04
551.998	817.92
552.202	793.31
552.406	772.39
552.61	782.85
552.814	778.78
553.018	857.64
553.222	790.6
553.426	789.83
553.63	860.54
553.833	778.78
554.037	716.2
554.241	825.28
554.445	772.58
554.649	793.51
554.853	731.7
555.056	838.65
555.26	814.05
555.464	803.39
555.668	828.38
555.871	800.29
556.075	821.02
556.279	756.7
556.483	747.4
556.686	808.23
556.89	767.35
557.094	792.73
557.297	717.17
557.501	814.24
557.704	733.64
557.908	789.25
558.112	757.86
558.315	807.46
558.519	749.91
558.722	753.4
558.926	764.64
559.129	733.45
559.333	715.23
559.536	764.06
559.74	714.27
559.943	709.62
560.147	714.85
560.35	756.7
560.553	752.43
560.757	700.7
560.96	785.37
561.164	741.78
561.367	804.36
561.57	754.18
561.774	767.35
561.977	769.68
562.18	681.91
562.384	821.21
562.587	725.7
562.79	733.45
562.993	727.63
563.197	781.11
563.4	790.41
563.603	821.41
563.806	828.38
564.009	688.88
564.212	747.78
564.416	675.32
564.619	756.11
564.822	709.42
565.025	780.72
565.228	702.45
565.431	726.28
565.634	669.9
565.837	709.03
566.04	682.68
566.243	682.49
566.446	616.42
566.649	728.41
566.852	679.78
567.055	686.95
567.258	737.9
567.461	746.23
567.664	710.39
567.867	642.19
568.07	701.48
568.273	717.75
568.475	745.26
568.678	695.67
568.881	685.2
569.084	683.85
569.287	646.45
569.489	651.49
569.692	707.48
569.895	678.81
570.098	641.03
570.3	642.19
570.503	583.1
570.706	616.81
570.909	645.29
571.111	596.08
571.314	613.9
571.516	613.9
571.719	644.71
571.922	614.49
572.124	657.88
572.327	636.77
572.529	589.69
572.732	581.74
572.935	617.78
573.137	661.18
573.34	605.38
573.542	658.27
573.745	637.93
573.947	626.69
574.15	596.08
574.352	604.02
574.554	672.03
574.757	597.82
574.959	589.1
575.162	602.47
575.364	613.13
575.566	696.63
575.769	584.26
575.971	625.53
576.173	546.29
576.376	566.82
576.578	616.81
576.78	662.92
576.982	548.03
577.185	569.15
577.387	558.11
577.589	527.3
577.791	592.2
577.993	609.06
578.196	564.69
578.398	616.23
578.6	671.06
578.802	564.89
579.004	586.78
579.206	583.1
579.408	599.37
579.61	556.36
579.812	605.96
580.014	551.71
580.216	570.12
580.418	560.43
580.62	547.64
580.822	516.26
581.024	580.77
581.226	592.98
581.428	550.16
581.63	618.55
581.832	570.31
582.034	613.32
582.236	582.71
582.438	608.29
582.64	616.04
582.841	621.65
583.043	638.32
583.245	591.62
583.447	618.55
583.649	564.3
583.85	604.22
584.052	631.92
584.254	556.94
584.456	642.19
584.657	528.85
584.859	569.15
585.061	594.72
585.262	562.37
585.464	550.55
585.666	585.62
585.867	547.45
586.069	637.74
586.27	612.55
586.472	596.47
586.674	562.95
586.875	570.12
587.077	570.12
587.278	567.6
587.48	538.54
587.681	644.13
587.883	604.22
588.084	508.12
588.285	571.47
588.487	539.7
588.688	563.14
588.89	521.68
589.091	525.17
589.292	521.1
589.494	535.44
589.695	520.71
589.896	460.07
590.098	469.18
590.299	519.94
590.5	467.82
590.702	497.07
590.903	487.39
591.104	571.28
591.305	541.64
591.507	591.82
591.708	567.02
591.909	524.2
592.11	613.52
592.311	551.32
592.512	524.2
592.714	511.41
592.915	503.27
593.116	511.22
593.317	504.44
593.518	517.22
593.719	512.57
593.92	545.12
594.121	549.39
594.322	541.25
594.523	529.04
594.724	488.74
594.925	539.12
595.126	544.93
595.327	550.36
595.528	513.93
595.729	547.64
595.929	535.05
596.13	512.38
596.331	541.83
596.532	533.69
596.733	555.97
596.934	545.71
597.135	550.94
597.335	532.53
597.536	481.19
597.737	531.76
597.938	519.74
598.138	528.46
598.339	502.69
598.54	519.36
598.74	516.64
598.941	554.81
599.142	553.65
599.342	533.89
599.543	476.73
599.744	521.68
599.944	527.11
600.145	516.26
600.345	514.51
600.546	576.32
600.746	526.33
600.947	593.17
601.147	532.72
601.348	574.38
601.548	518
601.749	555.97
601.949	506.76
602.15	497.85
602.35	541.44
602.551	565.85
602.751	480.22
602.951	506.96
603.152	483.12
603.352	526.91
603.552	540.47
603.753	527.69
603.953	524.59
604.153	534.66
604.354	511.41
604.554	524.78
604.754	523.81
604.954	472.86
605.155	530.59
605.355	515.87
605.555	552.1
605.755	591.82
605.955	516.26
606.155	562.75
606.356	543.96
606.556	561.59
606.756	542.8
606.956	461.81
607.156	582.32
607.356	498.04
607.556	531.95
607.756	511.02
607.956	566.82
608.156	524.39
608.356	528.27
608.556	525.56
608.756	544.93
608.956	497.85
609.156	539.89
609.356	490.87
609.556	491.07
609.755	498.24
609.955	490.49
610.155	525.56
610.355	508.12
610.555	484.67
610.755	511.8
610.954	457.36
611.154	488.16
611.354	532.92
611.554	492.04
611.753	486.22
611.953	464.72
612.153	532.14
612.352	504.44
612.552	453.29
612.752	445.93
612.951	480.02
613.151	519.74
613.351	452.9
613.55	493.78
613.75	500.56
613.949	487.77
614.149	509.09
614.348	516.26
614.548	467.82
614.747	425
614.947	475.96
615.146	460.26
615.346	495.33
615.545	496.49
615.745	476.54
615.944	510.25
616.144	490.68
616.343	499.59
616.542	460.26
616.742	492.23
616.941	450.58
617.14	411.05
617.34	474.02
617.539	469.18
617.738	429.46
617.938	549.39
618.137	478.86
618.336	421.71
618.535	503.27
618.734	455.61
618.934	462.2
619.133	458.13
619.332	484.09
619.531	462.2
619.73	471.11
619.929	534.08
620.128	491.07
620.328	519.55
620.527	459.68
620.726	464.91
620.925	472.47
621.124	459.29
621.323	490.49
621.522	421.71
621.721	422.48
621.92	431.01
622.119	453.68
622.318	454.06
622.517	437.98
622.715	458.91
622.914	412.41
623.113	448.83
623.312	390.13
623.511	492.04
623.71	428.49
623.909	444.18
624.107	486.22
624.306	413.18
624.505	434.3
624.704	418.22
624.902	414.73
625.101	466.46
625.3	435.85
625.499	416.28
625.697	417.44
625.896	445.73
626.095	459.68
626.293	383.93
626.492	383.15
626.69	466.46
626.889	403.88
627.088	469.18
627.286	392.06
627.485	421.32
627.683	407.18
627.882	442.05
628.08	381.6
628.279	432.36
628.477	466.66
628.676	411.83
628.874	456.39
629.073	420.74
629.271	359.32
629.469	448.06
629.668	407.56
629.866	420.16
630.065	407.95
630.263	441.66
630.461	391.09
630.66	430.81
630.858	428.1
631.056	437.79
631.254	442.44
631.453	420.54
631.651	454.64
631.849	433.33
632.047	421.71
632.245	412.79
632.444	414.15
632.642	440.31
632.84	456.78
633.038	421.71
633.236	367.85
633.434	413.38
633.632	385.48
633.83	385.48
634.028	437.98
634.227	394.97
634.425	456
634.623	428.29
634.821	400.78
635.019	420.54
635.216	395.74
635.414	428.1
635.612	399.62
635.81	396.71
636.008	469.95
636.206	431.59
636.404	418.22
636.602	374.43
636.8	435.85
636.997	460.07
637.195	416.09
637.393	411.83
637.591	446.12
637.789	430.62
637.986	418.03
638.184	415.31
638.382	445.15
638.58	443.99
638.777	480.61
638.975	444.96
639.173	400.01
639.37	429.26
639.568	416.67
639.765	450.58
639.963	413.57
640.161	471.89
640.358	439.14
640.556	389.74
640.753	381.99
640.951	372.3
641.148	431.78
641.346	400.39
641.543	396.33
641.741	409.69
641.938	372.5
642.136	431.98
642.333	369.01
642.531	473.44
642.728	449.41
642.925	412.41
643.123	405.63
643.32	394.39
643.517	381.6
643.715	414.54
643.912	381.41
644.109	419.96
644.306	401.36
644.504	384.31
644.701	384.7
644.898	426.55
645.095	370.95
645.293	405.24
645.49	435.46
645.687	415.31
645.884	412.79
646.081	379.47
646.278	365.91
646.475	385.28
646.672	390.32
646.87	449.8
647.067	378.7
647.264	418.99
647.461	364.36
647.658	361.65
647.855	402.53
648.052	388.77
648.249	307.2
648.446	393.42
648.642	354.67
648.839	351.38
649.036	357.38
649.233	335.68
649.43	352.15
649.627	351.96
649.824	372.5
650.021	383.15
650.217	331.23
650.414	350.99
650.611	371.14
650.808	369.4
651.004	372.11
651.201	380.05
651.398	410.47
651.595	381.41
651.791	343.63
651.988	382.18
652.185	376.18
652.381	396.13
652.578	326.96
652.775	370.36
652.971	337.62
653.168	375.98
653.364	386.06
653.561	309.33
653.757	342.27
653.954	413.57
654.15	321.35
654.347	425.97
654.543	334.33
654.74	331.61
654.936	309.33
655.133	379.28
655.329	344.01
655.525	378.31
655.722	388.38
655.918	319.8
656.115	383.35
656.311	328.32
656.507	309.14
656.704	322.31
656.9	338.98
657.096	299.65
657.292	291.51
657.489	369.59
657.685	342.85
657.881	318.25
658.077	328.71
658.273	338.78
658.47	379.08
658.666	317.08
658.862	355.25
659.058	324.64
659.254	376.76
659.45	325.22
659.646	327.55
659.842	335.3
660.038	364.55
660.234	338.98
660.43	348.47
660.626	387.61
660.822	367.65
661.018	371.91
661.214	340.91
661.41	316.89
661.606	364.55
661.802	371.33
661.998	321.93
662.194	333.36
662.39	357.96
662.586	363.39
662.781	349.63
662.977	371.72
663.173	365.71
663.369	350.6
663.564	351.18
663.76	376.18
663.956	334.33
664.152	400.01
664.347	307.59
664.543	339.36
664.739	351.18
664.934	288.6
665.13	306.62
665.326	352.54
665.521	355.64
665.717	314.37
665.912	286.08
666.108	266.13
666.304	326
666.499	333.94
666.695	274.27
666.89	346.53
667.086	353.9
667.281	353.7
667.477	384.51
667.672	332.39
667.867	326.77
668.063	363.97
668.258	305.07
668.454	329.1
668.649	384.51
668.844	363.97
669.04	334.52
669.235	349.25
669.43	298.29
669.626	301.78
669.821	318.63
670.016	298.48
670.211	300.23
670.407	307.4
670.602	313.98
670.797	334.71
670.992	344.6
671.187	298.1
671.382	368.81
671.578	314.37
671.773	339.95
671.968	268.84
672.163	333.94
672.358	355.83
672.553	324.64
672.748	322.12
672.943	352.73
673.138	324.45
673.333	352.73
673.528	311.66
673.723	348.28
673.918	331.61
674.113	265.93
674.308	371.14
674.503	324.83
674.698	355.83
674.892	334.13
675.087	354.28
675.282	343.82
675.477	310.11
675.672	338.01
675.867	333.75
676.061	298.48
676.256	300.42
676.451	298.29
676.646	332.2
676.84	292.28
677.035	286.28
677.23	278.72
677.424	350.21
677.619	329.1
677.814	346.53
678.008	343.24
678.203	301.78
678.397	295
678.592	312.82
678.787	347.5
678.981	314.76
679.176	337.04
679.37	298.87
679.565	299.65
679.759	326
679.954	341.11
680.148	391.87
680.342	363.2
680.537	319.8
680.731	296.35
680.926	343.82
681.12	327.93
681.314	312.82
681.509	296.55
681.703	337.04
681.897	343.24
682.092	290.73
682.286	309.72
682.48	392.84
682.674	367.07
682.869	303.33
683.063	311.66
683.257	383.73
683.451	279.3
683.645	323.48
683.839	319.41
684.034	321.15
684.228	339.95
684.422	298.1
684.616	274.46
684.81	341.11
685.004	315.73
685.198	312.43
685.392	332.97
685.586	284.34
685.78	319.41
685.974	321.15
686.168	342.85
686.362	374.82
686.556	284.73
686.75	284.92
686.944	301.97
687.138	361.06
687.331	259.93
687.525	293.83
687.719	217.5
687.913	293.64
688.107	296.93
688.301	270.58
688.494	292.48
688.688	253.92
688.882	253.34
689.076	248.5
689.269	280.08
689.463	360.1
689.657	270.2
689.85	271.36
690.044	286.08
690.238	287.05
690.431	283.76
690.625	302.36
690.818	278.72
691.012	287.83
691.205	305.46
691.399	258.96
691.593	315.73
691.786	339.95
691.98	322.31
692.173	356.22
692.366	311.27
692.56	312.43
692.753	359.71
692.947	284.92
693.14	335.49
693.333	343.24
693.527	279.69
693.72	361.06
693.914	317.86
694.107	343.24
694.3	348.47
694.493	336.65
694.687	350.8
694.88	327.16
695.073	368.43
695.266	365.71
695.46	317.86
695.653	402.33
695.846	360.87
696.039	281.43
696.232	316.5
696.425	362.23
696.618	362.42
696.812	347.5
697.005	394.58
697.198	415.51
697.391	369.59
697.584	417.25
697.777	440.5
697.97	408.14
698.163	400.98
698.356	389.54
698.549	480.02
698.742	445.54
698.935	378.5
699.127	450.38
699.32	382.96
699.513	408.73
699.706	444.57
699.899	434.69
700.092	383.93
700.285	457.74
700.477	375.79
700.67	445.54
700.863	444.57
701.056	519.74
701.248	490.49
701.441	480.61
701.634	423.64
701.826	537.76
702.019	444.38
702.212	503.27
702.404	455.03
702.597	447.86
702.79	479.64
702.982	474.41
703.175	493.59
703.367	515.67
703.56	521.49
703.752	568.18
703.945	550.74
704.137	564.11
704.33	534.47
704.522	553.07
704.715	552.68
704.907	572.05
705.1	587.55
705.292	584.26
705.484	555.01
705.677	599.95
705.869	587.17
706.061	632.89
706.254	623.79
706.446	616.04
706.638	579.61
706.831	648.78
707.023	598.02
707.215	702.25
707.407	661.57
707.599	661.57
707.792	669.51
707.984	679.97
708.176	704.77
708.368	629.4
708.56	679
708.752	678.23
708.944	682.68
709.136	708.07
709.329	668.93
709.521	803.2
709.713	770.45
709.905	745.65
710.097	777.62
710.289	703.03
710.481	743.52
710.672	749.33
710.864	738.87
711.056	814.43
711.248	779.56
711.44	768.71
711.632	774.33
711.824	815.4
712.016	841.17
712.207	812.11
712.399	831.09
712.591	881.08
712.783	831.87
712.975	879.92
713.166	822.96
713.358	839.43
713.55	925.45
713.741	883.99
713.933	904.14
714.125	898.71
714.316	861.9
714.508	932.81
714.7	952.77
714.891	919.25
715.083	956.64
715.274	942.11
715.466	931.26
715.657	963.81
715.849	881.08
716.04	934.17
716.232	868.88
716.423	959.36
716.615	919.44
716.806	885.15
716.998	868.88
717.189	871.59
717.381	799.9
717.572	810.17
717.763	857.06
717.955	824.89
718.146	802.23
718.337	779.36
718.528	749.14
718.72	744.1
718.911	778.01
719.102	762.7
719.293	778.01
719.485	820.25
719.676	787.89
719.867	742.75
720.058	757.86
720.249	776.46
720.44	789.44
720.632	799.51
720.823	846.01
721.014	918.86
721.205	897.36
721.396	886.12
721.587	983.19
721.778	998.1
721.969	979.89
722.16	1076.38
722.351	1026
722.542	1128.3
722.733	1106.22
722.924	1045.96
723.115	1132.95
723.305	1078.51
723.496	1129.08
723.687	1013.8
723.878	1059.14
724.069	1084.32
724.26	1055.26
724.45	1027.94
724.641	1011.67
724.832	1047.32
725.023	1061.65
725.213	1035.11
725.404	1029.49
725.595	1033.75
725.785	1007.99
725.976	1087.81
726.167	1074.25
726.357	1072.89
726.548	1166.47
726.739	1076.57
726.929	1142.83
727.12	1123.27
727.31	1169.96
727.501	1072.89
727.691	1139.15
727.882	1145.35
728.072	1218.78
728.263	1188.75
728.453	1217.23
728.644	1217.04
728.834	1219.75
729.024	1137.22
729.215	1181.2
729.405	1164.34
729.596	1230.41
729.786	1257.53
729.976	1269.93
730.167	1244.94
730.357	1250.36
730.547	1218.2
730.737	1281.17
730.928	1293.96
731.118	1365.06
731.308	1283.3
731.498	1295.12
731.688	1348.4
731.879	1337.36
732.069	1434.04
732.259	1395.29
732.449	1398.58
732.639	1478.99
732.829	1467.36
733.019	1476.47
733.209	1541.37
733.399	1546.8
733.589	1576.83
733.779	1594.85
733.969	1574.89
734.159	1599.88
734.349	1635.15
734.539	1663.82
734.729	1652.58
734.919	1713.42
735.109	1735.51
735.299	1692.3
735.488	1709.54
735.678	1712.45
735.868	1681.45
736.058	1694.82
736.248	1677
736.437	1684.55
736.627	1654.33
736.817	1794.99
737.007	1738.41
737.196	1804.67
737.386	1771.35
737.576	1745.78
737.765	1770.58
737.955	1780.26
738.144	1851.37
738.334	1816.88
738.524	1784.91
738.713	1790.14
738.903	1809.32
739.092	1843.81
739.282	1839.94
739.471	1811.46
739.661	1827.54
739.85	1866.87
740.04	1872.1
740.229	1903.87
740.419	1897.87
740.608	1940.69
740.797	1930.8
740.987	1943.98
741.176	1932.94
741.365	1932.94
741.555	1893.02
741.744	1960.83
741.933	1905.04
742.123	1986.02
742.312	1984.28
742.501	2028.84
742.69	2003.07
742.88	1893.8
743.069	2040.47
743.258	1986.8
743.447	2018.77
743.636	2040.47
743.825	1978.66
744.014	2032.72
744.204	2031.94
744.393	2000.75
744.582	2065.46
744.771	2068.95
744.96	2012.57
745.149	2061.58
745.338	2018.96
745.527	2063.71
745.716	2027.68
745.905	2029.81
746.094	2064.68
746.283	2049.57
746.471	2081.15
746.66	2102.08
746.849	2108.86
747.038	2108.66
747.227	2090.65
747.416	2108.47
747.604	2085.03
747.793	2097.23
747.982	2086
748.171	2096.07
748.359	2111.18
748.548	2120.48
748.737	2089.68
748.926	2054.41
749.114	2013.73
749.303	2118.93
749.491	2084.06
749.68	2015.47
749.869	2097.04
750.057	2048.02
750.246	2076.11
750.434	2083.86
750.623	2083.09
750.811	2060.23
751	2142.96
751.188	2067.78
751.377	2099.75
751.565	2065.07
751.754	2055.77
751.942	2011.6
752.131	2103.82
752.319	2028.84
752.507	2010.05
752.696	2070.11
752.884	2114.86
753.072	2071.85
753.261	2095.49
753.449	2037.75
753.637	2031.55
753.825	2094.33
754.014	2050.93
754.202	2037.56
754.39	2069.91
754.578	2063.13
754.766	2014.5
754.955	2006.17
755.143	2110.99
755.331	2005.59
755.519	2034.07
755.707	2072.82
755.895	2032.13
756.083	2048.21
756.271	2035.62
756.459	1990.87
756.647	2067.78
756.835	1998.03
757.023	2018.18
757.211	2012.57
757.399	2015.28
757.587	2007.33
757.775	1980.98
757.963	1964.71
758.151	1999.2
758.339	1957.93
758.526	1984.86
758.714	2020.32
758.902	1931.58
759.09	1849.82
759.278	1752.94
759.465	1600.47
759.653	1391.22
759.841	1277.88
760.028	1065.92
760.216	951.61
760.404	933.97
760.591	747.78
760.779	654.01
760.967	563.14
761.154	461.43
761.342	498.62
761.529	475.76
761.717	523.62
761.905	489.32
762.092	555.2
762.28	486.42
762.467	515.29
762.655	485.26
762.842	475.37
763.029	499.59
763.217	487
763.404	491.84
763.592	524.59
763.779	485.45
763.966	513.93
764.154	553.26
764.341	557.91
764.528	561.4
764.716	584.45
764.903	636.38
765.09	675.52
765.277	676.29
765.465	788.66
765.652	841.94
765.839	852.41
766.026	957.61
766.213	961.49
766.4	1085.1
766.588	1151.36
766.775	1159.3
766.962	1229.44
767.149	1232.15
767.336	1374.36
767.523	1353.05
767.71	1413.11
767.897	1472.59
768.084	1543.89
768.271	1536.14
768.458	1585.35
768.645	1632.05
768.832	1601.05
769.019	1652.2
769.206	1674.67
769.392	1725.24
769.579	1777.94
769.766	1738.99
769.953	1715.36
770.14	1751.2
770.327	1721.56
770.513	1790.92
770.7	1815.91
770.887	1768.06
771.073	1791.69
771.26	1804.87
771.447	1759.34
771.634	1779.88
771.82	1843.42
772.007	1775.03
772.193	1808.74
772.38	1833.16
772.567	1807.39
772.753	1811.07
772.94	1843.23
773.126	1831.99
773.313	1810.49
773.499	1840.52
773.686	1825.79
773.872	1828.7
774.059	1834.32
774.245	1775.61
774.432	1748.49
774.618	1753.91
774.804	1767.86
774.991	1747.33
775.177	1790.72
775.363	1777.36
775.55	1830.06
775.736	1781.62
775.922	1773.48
776.109	1828.12
776.295	1753.72
776.481	1814.94
776.667	1779.68
776.853	1763.99
777.04	1729.11
777.226	1768.83
777.412	1778.91
777.598	1723.69
777.784	1765.15
777.97	1721.75
778.156	1765.54
778.342	1730.47
778.528	1713.23
778.715	1705.67
778.901	1693.46
779.087	1756.63
779.272	1693.08
779.458	1717.68
779.644	1724.27
779.83	1683.58
780.016	1783.75
780.202	1685.33
780.388	1694.24
780.574	1618.68
780.76	1682.23
780.946	1721.94
781.131	1701.02
781.317	1693.08
781.503	1659.56
781.689	1658.2
781.874	1749.84
782.06	1667.7
782.246	1693.08
782.432	1656.46
782.617	1682.61
782.803	1734.34
782.989	1643.28
783.174	1676.41
783.36	1608.8
783.545	1655.3
783.731	1627.4
783.916	1594.85
784.102	1626.62
784.288	1608.02
784.473	1612.67
784.659	1584.58
784.844	1645.41
785.029	1566.56
785.215	1621.58
785.4	1598.14
785.586	1651.61
785.771	1559.2
785.956	1606.47
786.142	1587.68
786.327	1565.59
786.512	1580.32
786.698	1551.83
786.883	1515.41
787.068	1521.42
787.254	1552.42
787.439	1532.27
787.624	1553.19
787.809	1505.72
787.994	1539.63
788.18	1604.34
788.365	1498.55
788.55	1517.54
788.735	1508.05
788.92	1543.7
789.105	1496.23
789.29	1534.01
789.475	1484.22
789.66	1461.94
789.845	1462.13
790.03	1419.31
790.215	1488.09
790.4	1503.01
790.585	1533.62
790.77	1491.39
790.955	1420.47
791.14	1470.27
791.325	1491.39
791.51	1378.62
791.695	1446.63
791.879	1419.31
792.064	1430.74
792.249	1502.04
792.434	1444.5
792.618	1434.62
792.803	1466.59
792.988	1410.4
793.173	1450.89
793.357	1476.08
793.542	1410.79
793.727	1454.96
793.911	1467.75
794.096	1414.66
794.281	1464.65
794.465	1522
794.65	1463.68
794.834	1473.17
795.019	1494.29
795.203	1505.34
795.388	1491.97
795.572	1531.49
795.757	1467.94
795.941	1472.2
796.126	1470.07
796.31	1428.42
796.494	1466
796.679	1438.1
796.863	1427.45
797.048	1471.04
797.232	1475.69
797.416	1470.85
797.601	1456.32
797.785	1499.52
797.969	1505.34
798.153	1448.57
798.338	1451.28
798.522	1508.63
798.706	1487.51
798.89	1499.72
799.074	1591.36
799.258	1537.11
799.443	1481.31
799.627	1486.54
799.811	1501.46
799.995	1470.65
800.179	1429.39
800.363	1466
800.547	1498.94
800.731	1526.26
800.915	1411.17
801.099	1453.99
801.283	1461.74
801.467	1429.58
801.651	1424.93
801.835	1474.34
802.019	1484.6
802.202	1490.03
802.386	1425.9
802.57	1440.62
802.754	1417.37
802.938	1404.01
803.121	1470.85
803.305	1491.97
803.489	1500.3
803.673	1480.54
803.856	1456.32
804.04	1454.96
804.224	1451.47
804.407	1450.7
804.591	1478.4
804.775	1472.2
804.958	1443.34
805.142	1562.1
805.326	1447.99
805.509	1463.1
805.693	1507.85
805.876	1516.57
806.06	1450.12
806.243	1494.29
806.427	1510.57
806.61	1533.23
806.794	1477.05
806.977	1504.95
807.16	1480.34
807.344	1471.24
807.527	1482.86
807.71	1450.89
807.894	1481.89
808.077	1521.42
808.26	1447.4
808.444	1424.74
808.627	1477.05
808.81	1485.57
808.993	1412.14
809.177	1395.87
809.36	1408.07
809.543	1459.03
809.726	1379.98
809.909	1371.46
810.092	1383.27
810.276	1335.03
810.459	1422.02
810.642	1390.64
810.825	1348.4
811.008	1350.72
811.191	1317.01
811.374	1323.79
811.557	1328.44
811.74	1398.19
811.923	1261.21
812.106	1292.99
812.289	1265.28
812.472	1270.51
812.654	1282.91
812.837	1259.28
813.02	1222.46
813.203	1222.85
813.386	1094.01
813.569	1118.81
813.751	1080.84
813.934	1128.3
814.117	1137.22
814.3	1104.08
814.482	1055.84
814.665	1018.06
814.848	1054.29
815.03	1019.61
815.213	1002.17
815.396	1012.05
815.578	983.38
815.761	956.64
815.943	1007.02
816.126	947.73
816.309	939.4
816.491	867.33
816.674	852.6
816.856	901.62
817.039	877.79
817.221	962.26
817.403	914.79
817.586	904.33
817.768	951.61
817.951	853.18
818.133	847.37
818.315	901.81
818.498	902.59
818.68	961.29
818.862	951.22
819.045	994.23
819.227	939.01
819.409	916.15
819.591	954.32
819.774	915.96
819.956	881.28
820.138	961.1
820.32	957.81
820.502	982.99
820.684	1008.18
820.866	999.65
821.048	1059.91
821.231	1062.24
821.413	1064.17
821.595	1031.43
821.777	1053.52
821.959	1026.59
822.141	1095.17
822.323	957.81
822.505	967.88
822.686	913.05
822.868	922.16
823.05	800.48
823.232	802.81
823.414	784.21
823.596	839.04
823.778	822.18
823.96	819.28
824.141	814.05
824.323	839.43
824.505	906.66
824.687	929.52
824.868	923.9
825.05	977.96
825.232	1019.03
825.413	1058.55
825.595	1014.38
825.777	978.34
825.958	1008.76
826.14	967.88
826.321	998.69
826.503	1000.43
826.685	1024.65
826.866	1048.29
827.048	987.45
827.229	997.33
827.411	971.56
827.592	958.58
827.773	958.77
827.955	894.64
828.136	917.51
828.318	881.86
828.499	967.49
828.68	858.03
828.862	932.42
829.043	934.75
829.224	917.7
829.406	875.66
829.587	907.63
829.768	882.83
829.949	899.68
830.131	922.74
830.312	937.66
830.493	919.44
830.674	912.08
830.855	901.81
831.036	894.64
831.218	926.81
831.399	945.99
831.58	938.43
831.761	949.28
831.942	942.31
832.123	899.1
832.304	884.18
832.485	911.5
832.666	888.06
832.847	926.42
833.028	901.62
833.209	917.31
833.389	899.29
833.57	858.03
833.751	901.43
833.932	970.01
834.113	940.56
834.294	880.69
834.475	927
834.655	935.72
834.836	958.97
835.017	954.12
835.198	876.24
835.378	939.4
835.559	964.97
835.74	916.54
835.92	890.77
836.101	904.33
836.281	934.75
836.462	931.07
836.643	984.16
836.823	966.91
837.004	948.89
837.184	1021.74
837.365	961.1
837.545	979.12
837.726	924.67
837.906	1006.24
838.087	959.94
838.267	968.27
838.448	937.85
838.628	969.82
838.808	960.32
838.989	1021.94
839.169	922.93
839.349	984.54
839.53	995.59
839.71	973.89
839.89	921.77
840.07	1008.95
840.251	930.1
840.431	967.69
840.611	981.25
840.791	925.45
840.971	959.94
841.151	947.54
841.332	916.92
841.512	961.87
841.692	887.67
841.872	950.44
842.052	914.41
842.232	993.84
842.412	902.39
842.592	938.82
842.772	934.17
842.952	945.99
843.132	908.79
843.312	925.26
843.492	925.06
843.672	966.33
843.851	877.79
844.031	923.32
844.211	916.15
844.391	927.97
844.571	953.54
844.751	980.86
844.93	951.02
845.11	905.3
845.29	927.77
845.47	931.65
845.649	943.47
845.829	945.41
846.009	877.59
846.188	936.69
846.368	915.76
846.547	915.37
846.727	964.59
846.907	867.91
847.086	908.98
847.266	925.45
847.445	925.84
847.625	913.63
847.804	899.68
847.984	891.54
848.163	912.08
848.343	864.81
848.522	908.01
848.701	937.07
848.881	911.31
849.06	935.72
849.239	925.84
849.419	882.44
849.598	857.06
849.777	868.29
849.957	838.07
850.136	818.31
850.315	822.18
850.494	828.38
850.674	834
850.853	883.02
851.032	831.87
851.211	877.01
851.39	856.67
851.569	798.35
851.748	834.19
851.927	858.22
852.107	830.51
852.286	806.88
852.465	820.63
852.644	847.37
852.823	840.98
853.002	841.17
853.181	841.75
853.359	839.62
853.538	759.99
853.717	844.27
853.896	782.27
854.075	749.53
854.254	755.34
854.433	687.14
854.611	767.16
854.79	707.29
854.969	739.45
855.148	781.3
855.327	725.12
855.505	754.37
855.684	753.21
855.863	768.51
856.041	723.95
856.22	769.1
856.399	729.77
856.577	797.77
856.756	779.36
856.934	880.5
857.113	915.57
857.291	816.37
857.47	774.13
857.648	812.11
857.827	804.94
858.005	839.43
858.184	765.61
858.362	875.27
858.541	829.16
858.719	805.33
858.898	776.65
859.076	757.86
859.254	855.31
859.433	777.23
859.611	748.17
859.789	720.85
859.967	826.06
860.146	825.09
860.324	747.59
860.502	764.45
860.68	733.45
860.859	753.79
861.037	794.86
861.215	777.23
861.393	777.62
861.571	759.21
861.749	781.88
861.927	783.82
862.105	792.93
862.283	736.93
862.461	729.57
862.639	753.98
862.817	775.3
862.995	772.39
863.173	765.03
863.351	767.93
863.529	782.85
863.707	789.44
863.885	766.19
864.063	669.51
864.241	742.55
864.418	796.41
864.596	721.43
864.774	677.84
864.952	758.25
865.129	749.53
865.307	716.78
865.485	722.02
865.663	776.26
865.84	675.9
866.018	719.3
866.196	632.12
866.373	628.24
866.551	639.67
866.728	560.04
866.906	649.36
867.084	655.17
867.261	701.09
867.439	696.83
867.616	718.53
867.794	722.6
867.971	686.95
868.149	705.74
868.326	737.9
868.503	716.59
868.681	689.08
868.858	694.7
869.035	655.17
869.213	702.06
869.39	686.17
869.567	731.7
869.745	657.5
869.922	718.92
870.099	723.18
870.276	699.15
870.454	704
870.631	706.13
870.808	688.88
870.985	748.36
871.162	738.68
871.339	685.01
871.517	645.87
871.694	660.6
871.871	670.67
872.048	671.64
872.225	653.23
872.402	702.83
872.579	632.5
872.756	685.4
872.933	648.58
873.11	696.25
873.287	698.38
873.463	647.42
873.64	612.74
873.817	701.28
873.994	672.03
874.171	621.85
874.348	667.57
874.524	625.53
874.701	639.67
874.878	575.35
875.055	660.79
875.231	669.7
875.408	689.27
875.585	589.3
875.762	597.63
875.938	642.39
876.115	603.05
876.291	632.5
876.468	633.67
876.645	582.9
876.821	605.38
876.998	593.95
877.174	635.02
877.351	624.75
877.527	601.31
877.704	633.47
877.88	637.35
878.057	611.77
878.233	653.82
878.409	598.79
878.586	622.82
878.762	619.33
878.938	578.64
879.115	546.29
879.291	602.67
879.467	571.86
879.644	569.34
879.82	617.78
879.996	564.89
880.172	571.67
880.349	590.85
880.525	609.64
880.701	528.66
880.877	581.16
881.053	589.3
881.229	567.4
881.405	603.05
881.581	551.13
881.757	550.55
881.933	582.52
882.109	598.21
882.285	604.8
882.461	536.21
882.637	563.53
882.813	552.68
882.989	582.32
883.165	599.18
883.341	560.24
883.517	626.11
883.693	597.24
883.869	576.32
884.044	571.28
884.22	588.91
884.396	619.52
884.572	584.07
884.747	609.64
884.923	591.24
885.099	567.4
885.275	605.19
885.45	597.82
885.626	593.17
885.801	586.78
885.977	566.82
886.153	510.83
886.328	584.65
886.504	578.84
886.679	593.56
886.855	561.98
887.03	594.53
887.206	624.95
887.381	619.72
887.557	586
887.732	591.24
887.908	621.07
888.083	607.9
888.258	560.62
888.434	537.96
888.609	598.99
888.784	601.12
888.96	558.11
889.135	564.11
889.31	534.08
889.485	575.35
889.661	553.65
889.836	601.12
890.011	601.7
890.186	580.39
890.361	577.87
890.537	597.05
890.712	588.14
890.887	581.55
891.062	570.5
891.237	627.85
891.412	528.27
891.587	555.39
891.762	607.9
891.937	631.15
892.112	534.47
892.287	569.54
892.462	537.18
892.637	530.4
892.812	524.78
892.987	533.31
893.161	510.06
893.336	519.55
893.511	540.28
893.686	553.07
893.861	523.23
894.035	533.31
894.21	529.43
894.385	475.96
894.56	525.17
894.734	446.7
894.909	462.98
895.084	467.63
895.258	492.04
895.433	496.88
895.608	461.81
895.782	443.21
895.957	443.41
896.131	453.87
896.306	396.33
896.48	409.5
896.655	438.56
896.829	351.57
897.004	364.94
897.178	381.6
897.353	398.46
897.527	444.57
897.701	385.09
897.876	336.85
898.05	434.11
898.224	398.07
898.399	444.57
898.573	412.99
898.747	327.74
898.921	394
899.096	305.46
899.27	329.29
899.444	326
899.618	347.7
899.792	322.9
899.967	308.75
900.141	362.81
900.315	299.06
900.489	354.09
900.663	348.66
900.837	353.9
901.011	310.11
901.185	395.36
901.359	347.5
901.533	365.52
901.707	358.93
901.881	355.45
902.055	295.19
902.229	333.75
902.403	384.31
902.576	332
902.75	345.18
902.924	445.54
903.098	386.06
903.272	404.08
903.446	428.68
903.619	406.01
903.793	414.15
903.967	427.91
904.14	445.15
904.314	441.47
904.488	421.51
904.661	463.36
904.835	421.13
905.009	457.94
905.182	486.22
905.356	458.91
905.529	428.29
905.703	390.9
905.876	412.6
906.05	395.36
906.223	376.18
906.397	345.76
906.57	319.6
906.744	321.35
906.917	351.76
907.09	350.8
907.264	324.64
907.437	307.98
907.61	266.71
907.784	334.52
907.957	339.56
908.13	297.13
908.304	340.14
908.477	307.78
908.65	335.49
908.823	271.36
908.996	370.56
909.17	303.33
909.343	317.66
909.516	316.7
909.689	306.81
909.862	274.07
910.035	310.11
910.208	270
910.381	283.18
910.554	372.3
910.727	287.83
910.9	304.1
911.073	297.52
911.246	374.82
911.419	338.01
911.592	294.42
911.765	328.9
911.938	286.28
912.11	291.7
912.283	315.92
912.456	339.95
912.629	316.5
912.802	276.4
912.974	243.07
913.147	253.73
913.32	206.26
913.493	257.41
913.665	247.53
913.838	286.86
914.01	260.51
914.183	259.54
914.356	256.44
914.528	262.83
914.701	335.68
914.873	310.11
915.046	258.77
915.218	260.7
915.391	186.89
915.563	211.88
915.736	240.55
915.908	269.42
916.081	237.07
916.253	242.1
916.425	260.51
916.598	270.58
916.77	245.4
916.942	248.88
917.115	195.41
917.287	289.57
917.459	255.47
917.632	232.22
917.804	183.79
917.976	236.48
918.148	255.67
918.32	232.61
918.493	268.84
918.665	283.57
918.837	253.34
919.009	307.98
919.181	295
919.353	275.62
919.525	281.05
919.697	268.26
919.869	260.51
920.041	313.21
920.213	341.5
920.385	291.32
920.557	266.52
920.729	289.18
920.901	284.53
921.073	284.53
921.244	269.03
921.416	311.27
921.588	292.67
921.76	232.61
921.932	350.21
922.103	279.5
922.275	263.03
922.447	269.42
922.619	206.07
922.79	261.67
922.962	228.15
923.134	289.38
923.305	226.99
923.477	239.58
923.648	224.47
923.82	250.43
923.991	173.32
924.163	212.27
924.335	233.97
924.506	218.27
924.677	265.35
924.849	209.94
925.02	214.78
925.192	260.9
925.363	251.21
925.535	237.65
925.706	216.53
925.877	264.38
926.049	202.19
926.22	240.17
926.391	249.47
926.562	255.67
926.734	195.99
926.905	252.37
927.076	187.85
927.247	223.12
927.419	187.47
927.59	206.07
927.761	229.51
927.932	178.94
928.103	223.89
928.274	178.36
928.445	167.9
928.616	177.2
928.787	159.37
928.958	204.9
929.129	181.27
929.3	163.64
929.471	142.9
929.642	118.69
929.813	57.66
929.984	169.06
930.155	90.21
930.326	136.9
930.496	86.52
930.667	37.51
930.838	92.72
931.009	52.42
931.18	94.47
931.35	83.04
931.521	84.39
931.692	62.89
931.863	7.48
932.033	86.91
932.204	66.96
932.374	102.99
932.545	52.42
932.716	113.07
932.886	78.19
933.057	27.63
933.227	36.15
933.398	111.91
933.568	44.09
933.739	4.18
933.909	11.16
934.08	86.33
934.25	-8.41
934.421	-7.25
934.591	33.44
934.761	-2.21
934.932	-28.17
935.102	6.31
935.272	22.39
935.443	-1.63
935.613	13.29
935.783	41.38
935.953	-14.81
936.123	119.27
936.294	-11.51
936.464	5.15
936.634	11.74
936.804	-3.76
936.974	-32.63
937.144	37.31
937.314	18.91
937.484	10.38
937.655	-1.05
937.825	51.26
937.995	6.51
938.165	52.23
938.334	20.07
938.504	12.13
938.674	1.28
938.844	13.29
939.014	74.32
939.184	68.51
939.354	99.31
939.524	67.54
939.694	31.11
939.863	50.68
940.033	85.17
940.203	71.99
940.373	76.64
940.542	97.37
940.712	68.12
940.882	76.84
941.051	95.63
941.221	77.22
941.391	98.54
941.56	44.87
941.73	19.88
941.899	137.48
942.069	36.73
942.238	72.38
942.408	50.29
942.577	71.99
942.747	58.82
942.916	-4.73
943.086	32.66
943.255	90.21
943.425	35.18
943.594	42.16
943.763	-36.89
943.933	29.37
944.102	-39.8
944.271	34.79
944.441	71.8
944.61	14.64
944.779	34.02
944.948	109.19
945.117	17.55
945.287	30.73
945.456	-9.96
945.625	14.26
945.794	61.72
945.963	0.31
946.132	72.57
946.301	47.77
946.47	80.32
946.639	-8.8
946.808	15.81
946.977	33.83
947.146	82.26
947.315	55.72
947.484	53.2
947.653	11.35
947.822	-0.08
947.991	21.43
948.16	95.63
948.329	78.19
948.498	10.58
948.666	28.98
948.835	65.02
949.004	1.86
949.173	12.71
949.341	48.74
949.51	47
949.679	92.14
949.847	82.46
950.016	112.87
950.185	71.99
950.353	29.18
950.522	46.81
950.69	60.95
950.859	11.74
951.028	62.89
951.196	37.7
951.365	17.94
951.533	36.54
951.701	62.5
951.87	68.12
952.038	14.45
952.207	47.39
952.375	93.89
952.543	15.23
952.712	38.67
952.88	26.08
953.048	96.21
953.217	28.21
953.385	45.06
953.553	86.91
953.721	8.64
953.89	31.5
954.058	-0.47
954.226	23.56
954.394	34.02
954.562	-28.17
954.73	33.63
954.898	24.14
955.067	59.79
955.235	14.45
955.403	93.5
955.571	94.47
955.739	71.8
955.907	4.76
956.075	32.47
956.243	20.65
956.41	68.89
956.578	28.4
956.746	-22.75
956.914	12.13
957.082	74.51
957.25	57.07
957.418	25.49
957.585	45.45
957.753	42.54
957.921	-13.26
958.089	40.22
958.256	61.53
958.424	36.15
958.592	51.46
958.759	2.83
958.927	71.61
959.095	13.29
959.262	37.89
959.43	40.41
959.597	40.02
959.765	27.24
959.932	18.71
960.1	58.43
960.267	40.99
960.435	48.55
960.602	70.83
960.77	26.46
960.937	-1.05
961.104	46.03
961.272	-14.61
961.439	25.11
961.606	49.71
961.774	62.31
961.941	32.66
962.108	39.44
962.275	56.3
962.443	75.48
962.61	72.77
962.777	101.06
962.944	25.88
963.111	60.37
963.278	54.75
963.446	30.53
963.613	75.29
963.78	70.06
963.947	87.11
964.114	43.51
964.281	142.32
964.448	71.61
964.615	52.42
964.782	45.84
964.949	92.34
965.116	77.03
965.282	114.62
965.449	66.57
965.616	20.84
965.783	73.93
965.95	71.99
966.117	31.31
966.283	-1.44
966.45	73.16
966.617	53.2
966.784	83.04
966.95	81.29
967.117	91.95
967.284	25.49
967.45	25.49
967.617	129.54
967.784	64.44
967.95	121.98
968.117	67.54
968.283	96.99
968.45	137.67
968.616	58.43
968.783	108.03
968.949	69.67
969.116	91.37
969.282	48.94
969.449	44.29
969.615	81.49
969.781	29.95
969.948	53.78
970.114	10.19
970.28	118.88
970.447	74.51
970.613	134.57
970.779	65.6
970.945	85.94
971.112	42.35
971.278	59.4
971.444	42.16
971.61	93.5
971.776	65.99
971.942	88.85
972.108	101.44
972.275	66.18
972.441	99.89
972.607	125.47
972.773	28.01
972.939	66.18
973.105	53.39
973.271	53.39
973.437	64.05
973.602	23.17
973.768	70.25
973.934	67.73
974.1	70.44
974.266	-3.76
974.432	70.83
974.598	30.53
974.763	88.07
974.929	21.43
975.095	116.36
975.261	18.33
975.426	28.01
975.592	39.06
975.758	107.64
975.923	22.39
976.089	54.17
976.255	83.04
976.42	87.49
976.586	72.19
976.751	72.96
976.917	127.02
977.082	54.56
977.248	22.2
977.413	3.41
977.579	61.92
977.744	41.19
977.91	36.92
978.075	29.18
978.24	73.35
978.406	67.15
978.571	44.09
978.736	18.52
978.902	85.75
979.067	40.02
979.232	6.51
979.397	70.44
979.563	108.81
979.728	50.49
979.893	37.89
980.058	50.87
980.223	82.46
980.388	41.96
980.554	51.65
980.719	37.51
980.884	73.74
981.049	71.41
981.214	32.28
981.379	65.21
981.544	43.71
981.709	47.19
981.874	34.21
982.039	60.56
982.204	51.84
982.368	58.04
982.533	9.41
982.698	103.77
982.863	92.34
983.028	38.28
983.193	42.93
983.357	78.97
983.522	57.07
983.687	57.66
983.852	50.29
984.016	40.22
984.181	71.02
984.346	51.65
984.51	62.5
984.675	43.9
984.839	93.69
985.004	62.89
985.168	80.13
985.333	61.53
985.498	57.07
985.662	90.98
985.827	75.29
985.991	51.84
986.155	53.2
986.32	88.85
986.484	119.27
986.649	56.88
986.813	-1.44
986.977	60.76
987.142	58.82
987.306	20.26
987.47	16.78
987.634	40.61
987.799	57.66
987.963	45.64
988.127	84.01
988.291	116.75
988.455	49.52
988.62	70.64
988.784	75.48
988.948	81.49
989.112	29.95
989.276	71.41
989.44	54.17
989.604	50.29
989.768	23.94
989.932	115.97
990.096	48.55
990.26	30.14
990.424	18.71
990.588	37.7
990.752	127.99
990.915	68.31
991.079	19.29
991.243	24.53
991.407	64.63
991.571	34.02
991.734	78.77
991.898	75.48
992.062	172.94
992.226	16.97
992.389	31.69
992.553	13.48
992.717	18.71
992.88	64.63
993.044	53.01
993.207	47.58
993.371	73.93
993.535	78.97
993.698	29.76
993.862	80.32
994.025	90.79
994.189	80.71
994.352	40.22
994.515	70.25
994.679	84.78
994.842	29.95
995.006	97.18
995.169	24.91
995.332	24.91
995.496	76.06
995.659	-10.93
995.822	34.02
995.985	38.47
996.149	93.69
996.312	38.28
996.475	69.86
996.638	46.61
996.801	77.42
996.964	109.39
997.128	29.18
997.291	47.39
997.454	65.41
997.617	-20.23
997.78	92.53
997.943	5.34
998.106	61.72
998.269	23.56
998.432	24.72
998.595	13.87
998.758	13.87
998.92	22.98
999.083	-0.47
999.246	28.98
999.409	10.77
999.572	-18.87
999.735	33.05
999.897	73.74
1000.06	37.31
1000.223	20.07
1000.386	77.61
1000.548	49.32
1000.711	81.1
1000.874	68.89
1001.036	18.91
1001.199	70.83
1001.361	12.71
1001.524	47
1001.687	71.61
1001.849	13.68
1002.012	48.16
1002.174	59.59
1002.337	63.66
1002.499	36.73
1002.661	62.5
1002.824	14.06
1002.986	22.78
1003.149	32.47
1003.311	0.31
1003.473	98.34
1003.636	19.1
1003.798	69.67
1003.96	51.65
1004.123	54.36
1004.285	11.16
1004.447	51.46
1004.609	27.04
1004.771	70.83
1004.933	4.38
1005.096	31.31
1005.258	-7.64
1005.42	32.47
1005.582	74.12
1005.744	54.75
1005.906	-7.64
1006.068	31.69
1006.23	-19.84
1006.392	-25.85
1006.554	-0.27
1006.716	77.42
1006.878	61.53
1007.04	1.66
1007.202	16.58
1007.363	41.57
1007.525	19.68
1007.687	84.2
1007.849	81.49
1008.011	-11.71
1008.172	0.69
1008.334	-0.27
1008.496	56.11
1008.658	-22.75
1008.819	13.48
1008.981	-12.48
1009.143	4.96
1009.304	13.68
1009.466	48.36
1009.627	67.34
1009.789	108.03
1009.95	42.35
1010.112	-14.81
1010.273	56.69
1010.435	3.02
1010.596	31.5
1010.758	19.88
1010.919	7.28
1011.081	1.47
1011.242	13.09
1011.403	41.19
1011.565	39.64
1011.726	6.51
1011.887	-9.57
1012.049	16.39
1012.21	32.86
1012.371	54.94
1012.532	-24.3
1012.693	12.71
1012.855	-5.89
1013.016	24.14
1013.177	42.35
1013.338	9.22
1013.499	70.06
1013.66	34.6
1013.821	22.39
1013.982	24.72
1014.143	39.06
1014.304	29.18
1014.465	50.1
1014.626	33.24
1014.787	11.54
1014.948	92.53
1015.109	-12.87
1015.27	39.64
1015.431	12.51
1015.592	-24.69
1015.752	80.71
1015.913	34.41
1016.074	14.84
1016.235	22.98
1016.395	21.43
1016.556	9.03
1016.717	19.29
1016.877	57.07
1017.038	-9.38
1017.199	59.4
1017.359	10.96
1017.52	17.16
1017.681	15.81
1017.841	44.87
1018.002	-10.54
1018.162	8.25
1018.323	87.49
1018.483	29.76
1018.644	13.29
1018.804	-23.72
1018.964	-5.89
1019.125	-19.46
1019.285	31.89
1019.446	-15.58
1019.606	5.54
1019.766	-27.4
1019.926	36.34
1020.087	16.78
1020.247	-13.26
1020.407	41.96
1020.567	58.43
1020.728	2.63
1020.888	-3.76
1021.048	-3.18
1021.208	13.87
1021.368	-15.19
1021.528	39.83
1021.688	36.73
1021.848	34.99
1022.008	-0.27
1022.168	12.51
1022.328	16.39
1022.488	48.16
1022.648	12.71
1022.808	20.46
1022.968	27.24
1023.128	-17.13
1023.288	23.36
1023.448	14.06
1023.608	48.94
1023.767	13.48
1023.927	-4.73
1024.087	-26.04
1024.247	-13.84
1024.406	-3.76
1024.566	-19.26
1024.726	-15
1024.885	11.93
1025.045	38.47
1025.205	9.03
1025.364	4.57
1025.524	23.56
1025.683	7.67
1025.843	8.64
1026.003	5.15
1026.162	51.07
1026.321	56.88
1026.481	8.64
1026.64	15.61
1026.8	28.21
1026.959	1.28
1027.119	-3.57
1027.278	-2.41
1027.437	-0.08
1027.597	28.21
1027.756	18.91
1027.915	32.86
1028.074	48.36
1028.234	-19.65
1028.393	22.01
1028.552	-13.84
1028.711	-80.87
1028.87	47.77
1029.03	-37.67
1029.189	23.94
1029.348	-45.81
1029.507	-15.19
1029.666	-19.65
1029.825	-30.31
1029.984	-4.54
1030.143	21.23
1030.302	5.93
1030.461	-33.21
1030.62	26.66
1030.779	60.95
1030.938	-11.32
1031.097	-29.72
1031.255	30.34
1031.414	37.7
1031.573	24.53
1031.732	-51.23
1031.891	5.15
1032.049	42.93
1032.208	30.73
1032.367	-10.16
1032.525	-0.86
1032.684	-4.34
1032.843	22.01
1033.001	-47.16
1033.16	151.82
1033.319	45.84
1033.477	11.93
1033.636	5.73
1033.794	-12.09
1033.953	36.15
1034.111	26.46
1034.27	-2.21
1034.428	26.66
1034.587	-16.36
1034.745	35.76
1034.903	54.17
1035.062	17.94
1035.22	-36.12
1035.378	48.94
1035.537	-42.32
1035.695	60.37
1035.853	18.91
1036.011	54.75
1036.17	8.06
1036.328	-65.37
1036.486	24.33
1036.644	11.74
1036.802	-41.54
1036.96	-0.86
1037.119	-4.54
1037.277	-33.02
1037.435	-33.02
1037.593	-45.42
1037.751	19.68
1037.909	27.04
1038.067	27.04
