Data from oakcork_FLMT105791__281__17-34-27-052.txt Node

Date: Mon Mar 20 17:34:27 GMT 2023
User: antho
Spectrometer: FLMT10579
Trigger mode: 0
Integration Time (sec): 1.000000E-1
Scans to average: 10
Electric dark correction enabled: true
Nonlinearity correction enabled: false
Boxcar width: 0
XAxis mode: Wavelengths
Number of Pixels in Spectrum: 3648
>>>>>Begin Spectral Data<<<<<
345.248	-172.63
345.464	-172.63
345.681	-172.63
345.898	-154.42
346.114	-161.59
346.331	-55.61
346.548	19.37
346.764	-15.5
346.981	19.18
347.197	-7.36
347.414	14.34
347.631	-27.9
347.847	71.69
348.064	0.39
348.28	15.11
348.497	-30.61
348.713	-3.1
348.93	18.02
349.146	25.57
349.363	-13.56
349.579	20.92
349.796	-13.37
350.012	11.43
350.229	34.1
350.445	-29.06
350.661	-23.64
350.878	-0.77
351.094	15.31
351.311	10.46
351.527	19.96
351.743	-27.32
351.96	16.86
352.176	32.36
352.392	16.27
352.609	34.68
352.825	-4.07
353.041	7.94
353.257	-14.92
353.474	-4.84
353.69	18.6
353.906	11.43
354.122	-47.47
354.339	28.67
354.555	13.95
354.771	-22.47
354.987	56.38
355.203	47.66
355.42	-24.41
355.636	5.62
355.852	3.49
356.068	12.21
356.284	-39.52
356.5	40.88
356.716	10.85
356.932	-1.36
357.148	43.4
357.364	7.94
357.58	37.39
357.796	57.35
358.012	35.46
358.228	21.89
358.444	-33.32
358.66	68.39
358.876	40.11
359.092	-0.97
359.308	-4.26
359.524	19.76
359.74	2.71
359.956	-32.74
360.172	12.98
360.388	36.23
360.604	18.02
360.819	92.61
361.035	16.66
361.251	43.4
361.467	-20.54
361.683	14.34
361.898	39.91
362.114	29.84
362.33	23.44
362.546	35.07
362.762	23.06
362.977	30.03
363.193	-12.21
363.409	36.62
363.624	-16.86
363.84	-8.91
364.056	-25.57
364.271	10.07
364.487	16.66
364.703	-0.39
364.918	-31
365.134	-42.24
365.35	6.39
365.565	88.74
365.781	15.89
365.996	16.66
366.212	59.09
366.427	26.93
366.643	-9.11
366.858	15.69
367.074	-20.15
367.289	43.79
367.505	85.25
367.72	-24.61
367.936	-14.92
368.151	48.24
368.367	23.83
368.582	35.65
368.798	-12.79
369.013	73.62
369.228	6.01
369.444	18.02
369.659	42.04
369.874	21.51
370.09	64.32
370.305	-42.04
370.52	18.02
370.736	64.32
370.951	-4.65
371.166	43.79
371.381	55.8
371.597	48.63
371.812	-0.39
372.027	-24.8
372.242	17.44
372.458	78.27
372.673	-4.26
372.888	31.39
373.103	55.22
373.318	82.15
373.533	11.62
373.749	37.97
373.964	-9.69
374.179	54.25
374.394	11.24
374.609	69.56
374.824	-4.26
375.039	61.03
375.254	-26.93
375.469	53.28
375.684	5.42
375.899	83.31
376.114	-3.68
376.329	25.19
376.544	11.43
376.759	59.48
376.974	-17.82
377.189	-6.78
377.404	5.23
377.619	57.93
377.834	-25.57
378.049	-40.88
378.264	-6.78
378.478	19.76
378.693	-9.49
378.908	43.98
379.123	-6.78
379.338	62.77
379.553	22.28
379.767	15.11
379.982	18.41
380.197	34.87
380.412	18.6
380.626	39.52
380.841	52.89
381.056	38.17
381.271	65.49
381.485	-4.07
381.7	-7.94
381.915	33.13
382.129	20.34
382.344	38.36
382.559	34.49
382.773	24.22
382.988	-20.34
383.202	6.01
383.417	14.53
383.632	105.2
383.846	12.4
384.061	-3.1
384.275	5.62
384.49	20.54
384.704	39.52
384.919	20.15
385.133	24.22
385.348	20.15
385.562	-26.74
385.777	32.94
385.991	7.17
386.206	-28.09
386.42	7.17
386.634	38.75
386.849	37.39
387.063	41.85
387.277	7.36
387.492	-1.36
387.706	-4.65
387.92	-3.49
388.135	63.74
388.349	38.56
388.563	20.92
388.778	31.39
388.992	54.83
389.206	35.07
389.42	84.67
389.635	13.17
389.849	47.66
390.063	65.68
390.277	35.07
390.491	84.47
390.706	39.52
390.92	60.45
391.134	-2.71
391.348	44.95
391.562	-1.36
391.776	22.86
391.99	1.36
392.205	62.97
392.419	11.04
392.633	2.91
392.847	82.73
393.061	-2.32
393.275	92.03
393.489	25.19
393.703	24.22
393.917	64.32
394.131	-10.85
394.345	54.25
394.559	60.45
394.773	15.31
394.986	30.22
395.2	20.73
395.414	60.45
395.628	-15.5
395.842	26.54
396.056	8.72
396.27	-46.11
396.484	34.68
396.697	46.89
396.911	71.88
397.125	43.79
397.339	80.02
397.553	48.24
397.766	95.32
397.98	54.44
398.194	82.15
398.408	28.67
398.621	69.75
398.835	54.06
399.049	26.35
399.262	76.92
399.476	68.59
399.69	84.67
399.903	102.3
400.117	46.11
400.331	51.73
400.544	23.06
400.758	110.05
400.971	78.08
401.185	79.63
401.398	17.82
401.612	86.8
401.826	78.27
402.039	79.44
402.253	18.79
402.466	53.67
402.68	39.33
402.893	56.19
403.106	52.89
403.32	51.92
403.533	62.39
403.747	40.49
403.96	54.64
404.174	85.25
404.387	18.99
404.6	51.15
404.814	93.58
405.027	57.93
405.24	64.32
405.454	77.69
405.667	86.61
405.88	-7.56
406.094	45.92
406.307	95.71
406.52	60.84
406.733	16.86
406.947	29.45
407.16	92.22
407.373	75.56
407.586	39.14
407.799	20.73
408.012	80.99
408.226	64.13
408.439	104.04
408.652	15.69
408.865	88.54
409.078	75.17
409.291	71.11
409.504	5.42
409.717	57.74
409.93	93.58
410.143	60.64
410.357	14.53
410.57	-1.94
410.783	64.52
410.996	53.09
411.209	46.89
411.421	97.45
411.634	64.52
411.847	20.73
412.06	65.87
412.273	54.83
412.486	53.86
412.699	138.14
412.912	48.05
413.125	78.08
413.338	37.97
413.55	64.91
413.763	69.75
413.976	59.48
414.189	39.52
414.402	44.76
414.615	103.27
414.827	38.36
415.04	74.79
415.253	79.82
415.466	78.86
415.678	120.9
415.891	57.16
416.104	28.48
416.316	46.89
416.529	37.59
416.742	59.29
416.954	92.42
417.167	60.06
417.38	42.24
417.592	79.82
417.805	29.06
418.017	54.25
418.23	95.32
418.442	49.99
418.655	37.2
418.868	94.55
419.08	77.5
419.293	91.25
419.505	74.59
419.718	62.77
419.93	91.84
420.142	44.95
420.355	126.13
420.567	135.62
420.78	76.53
420.992	58.71
421.205	115.09
421.417	16.27
421.629	45.72
421.842	33.13
422.054	26.16
422.266	86.02
422.479	104.43
422.691	60.26
422.903	75.37
423.115	49.02
423.328	81.18
423.54	87.77
423.752	76.92
423.964	25.96
424.177	82.54
424.389	64.52
424.601	163.14
424.813	79.82
425.025	106.56
425.238	93.58
425.45	66.65
425.662	54.83
425.874	334.6
426.086	86.02
426.298	82.54
426.51	70.14
426.722	65.49
426.934	48.24
427.146	100.55
427.358	49.02
427.57	117.8
427.782	71.49
427.994	56.38
428.206	63.74
428.418	16.47
428.63	95.71
428.842	126.32
429.054	89.32
429.266	94.35
429.478	31.58
429.69	79.82
429.902	28.67
430.114	90.87
430.325	67.42
430.537	43.59
430.749	52.12
430.961	22.09
431.173	60.06
431.384	102.1
431.596	5.42
431.808	48.44
432.02	70.52
432.231	85.25
432.443	110.63
432.655	49.02
432.867	48.05
433.078	82.34
433.29	118.96
433.502	103.46
433.713	90.48
433.925	84.09
434.136	103.07
434.348	74.79
434.56	36.81
434.771	179.22
434.983	40.11
435.194	47.27
435.406	66.07
435.617	104.04
435.829	133.69
436.04	116.44
436.252	128.45
436.463	132.33
436.675	98.42
436.886	88.15
437.098	132.91
437.309	137.95
437.521	77.69
437.732	99.78
437.943	111.6
438.155	64.52
438.366	68.39
438.578	139.69
438.789	124.97
439	132.52
439.211	74.59
439.423	116.64
439.634	101.52
439.845	145.89
440.057	100.55
440.268	116.83
440.479	78.86
440.69	110.24
440.902	61.81
441.113	78.27
441.324	68.2
441.535	135.43
441.746	148.02
441.957	57.54
442.168	97.84
442.38	123.22
442.591	118.77
442.802	65.29
443.013	93.58
443.224	111.6
443.435	95.13
443.646	85.25
443.857	77.69
444.068	77.89
444.279	64.13
444.49	141.63
444.701	117.8
444.912	177.47
445.123	104.82
445.334	119.15
445.545	76.92
445.756	93.39
445.967	82.54
446.178	127.68
446.388	146.28
446.599	121.29
446.81	141.24
447.021	97.84
447.232	136.98
447.443	124.97
447.653	95.71
447.864	148.02
448.075	105.98
448.286	146.47
448.496	101.91
448.707	126.71
448.918	117.02
449.129	204.79
449.339	117.6
449.55	120.9
449.761	118.38
449.971	172.82
450.182	112.76
450.393	137.17
450.603	129.81
450.814	124.58
451.024	135.24
451.235	165.27
451.446	175.73
451.656	214.48
451.867	107.72
452.077	128.07
452.288	170.11
452.498	163.91
452.709	96.29
452.919	139.3
453.13	99
453.34	162.36
453.55	91.64
453.761	154.61
453.971	152.29
454.182	160.23
454.392	138.92
454.602	189.48
454.813	143.18
455.023	137.95
455.233	60.26
455.444	128.65
455.654	74.59
455.864	134.85
456.075	130.78
456.285	103.07
456.495	144.92
456.705	123.42
456.916	163.52
457.126	164.49
457.336	138.14
457.546	86.02
457.756	122.45
457.967	144.92
458.177	117.6
458.387	144.15
458.597	93.97
458.807	135.43
459.017	112.76
459.227	110.24
459.437	124.19
459.647	174.37
459.857	157.32
460.068	138.72
460.278	171.66
460.488	154.22
460.698	195.68
460.908	122.84
461.117	84.67
461.327	91.25
461.537	146.28
461.747	137.17
461.957	131.17
462.167	228.04
462.377	152.67
462.587	143.37
462.797	142.21
463.007	129.23
463.216	136.01
463.426	198.98
463.636	186.58
463.846	103.65
464.056	119.93
464.265	152.87
464.475	93.39
464.685	133.3
464.895	159.45
465.104	148.99
465.314	156.74
465.524	123.42
465.733	117.8
465.943	165.46
466.153	206.15
466.362	177.08
466.572	140.08
466.782	135.43
466.991	137.37
467.201	201.88
467.41	131.36
467.62	175.53
467.829	155.58
468.039	167.01
468.249	169.14
468.458	130.59
468.668	161
468.877	176.89
469.086	182.9
469.296	207.31
469.505	111.4
469.715	210.02
469.924	167.79
470.134	202.08
470.343	214.67
470.552	153.06
470.762	139.89
470.971	135.82
471.18	187.55
471.39	133.3
471.599	115.47
471.808	179.02
472.018	140.27
472.227	184.45
472.436	167.01
472.645	148.6
472.855	118.57
473.064	179.41
473.273	149.57
473.482	193.17
473.691	191.23
473.901	176.7
474.11	193.17
474.319	252.07
474.528	185.03
474.737	211.38
474.946	207.12
475.155	194.33
475.364	221.26
475.573	181.73
475.783	173.4
475.992	202.85
476.201	226.68
476.41	161.39
476.619	182.7
476.828	183.48
477.037	152.09
477.245	183.28
477.454	214.87
477.663	174.18
477.872	177.86
478.081	209.25
478.29	163.52
478.499	243.93
478.708	178.83
478.917	240.44
479.125	196.46
479.334	219.52
479.543	185.42
479.752	223.39
479.961	226.3
480.169	254.58
480.378	178.83
480.587	310
480.796	250.9
481.004	205.95
481.213	226.88
481.422	238.31
481.63	184.25
481.839	219.71
482.048	276.48
482.256	211.77
482.465	224.17
482.674	216.22
482.882	273.18
483.091	277.83
483.299	244.9
483.508	250.32
483.716	222.03
483.925	224.17
484.134	195.1
484.342	198.01
484.551	265.05
484.759	252.26
484.967	265.24
485.176	260.98
485.384	244.12
485.593	269.11
485.801	277.83
486.01	229.78
486.218	216.42
486.426	186.77
486.635	235.98
486.843	223.78
487.051	266.21
487.26	249.55
487.468	242.18
487.676	264.66
487.885	190.45
488.093	253.23
488.301	245.09
488.509	250.32
488.717	286.75
488.926	253.62
489.134	229.01
489.342	257.68
489.55	238.7
489.758	232.88
489.967	217.19
490.175	323.36
490.383	227.46
490.591	303.21
490.799	225.33
491.007	316.39
491.215	262.53
491.423	228.43
491.631	248.58
491.839	255.55
492.047	294.5
492.255	245.09
492.463	199.17
492.671	266.21
492.879	275.9
493.087	252.26
493.295	251.1
493.503	294.69
493.711	283.45
493.919	292.36
494.127	292.17
494.334	305.15
494.542	233.66
494.75	246.83
494.958	262.14
495.166	298.18
495.374	279.58
495.581	285.58
495.789	311.74
495.997	331.5
496.205	290.04
496.412	284.23
496.62	263.11
496.828	296.63
497.035	273.57
497.243	308.64
497.451	285.2
497.658	293.14
497.866	279.19
498.074	346.42
498.281	274.73
498.489	343.71
498.696	281.71
498.904	269.5
499.112	292.56
499.319	334.6
499.527	277.25
499.734	317.75
499.942	257.68
500.149	281.32
500.357	298.56
500.564	274.15
500.771	302.63
500.979	265.63
501.186	280.55
501.394	335.38
501.601	282.87
501.808	342.16
502.016	299.15
502.223	294.88
502.43	297.4
502.638	303.6
502.845	244.9
503.052	343.32
503.26	258.27
503.467	353.01
503.674	299.73
503.881	303.02
504.089	378.39
504.296	328.4
504.503	289.85
504.71	332.86
504.917	268.15
505.125	320.85
505.332	314.06
505.539	335.76
505.746	353.78
505.953	322.4
506.16	326.66
506.367	333.44
506.574	368.51
506.781	385.36
506.988	282.1
507.195	307.28
507.402	286.94
507.609	344.87
507.816	300.89
508.023	305.93
508.23	339.06
508.437	296.82
508.644	347.58
508.851	367.54
509.058	359.4
509.265	361.53
509.472	336.73
509.679	434.19
509.885	294.88
510.092	334.8
510.299	327.24
510.506	348.75
510.713	327.43
510.92	334.02
511.126	337.31
511.333	381.29
511.54	377.42
511.746	395.05
511.953	394.66
512.16	383.43
512.367	342.16
512.573	359.4
512.78	351.26
512.987	320.07
513.193	373.16
513.4	296.82
513.606	348.36
513.813	361.34
514.02	347.58
514.226	422.56
514.433	415.98
514.639	348.16
514.846	365.6
515.052	352.81
515.259	347
515.465	359.59
515.672	347.97
515.878	444.26
516.085	362.11
516.291	392.34
516.497	340.22
516.704	339.45
516.91	342.93
517.117	336.15
517.323	329.18
517.529	356.69
517.736	346.81
517.942	342.55
518.148	326.08
518.354	341
518.561	350.1
518.767	349.13
518.973	391.18
519.179	377.81
519.386	364.44
519.592	341.96
519.798	359.01
520.004	409.97
520.21	354.17
520.417	385.36
520.623	413.46
520.829	406.09
521.035	400.67
521.241	393.69
521.447	406.87
521.653	489.41
521.859	396.41
522.065	419.66
522.271	492.51
522.477	428.18
522.683	453.56
522.889	440.77
523.095	457.63
523.301	448.33
523.507	398.73
523.713	432.83
523.919	400.28
524.125	457.82
524.331	413.84
524.537	490.18
524.742	432.44
524.948	483.79
525.154	458.6
525.36	577.95
525.566	501.03
525.772	522.92
525.977	417.53
526.183	479.14
526.389	514.4
526.595	484.17
526.8	446.59
527.006	423.73
527.212	420.82
527.417	402.22
527.623	363.66
527.829	486.69
528.034	480.49
528.24	486.11
528.446	438.06
528.651	499.87
528.857	489.21
529.062	515.17
529.268	483.59
529.473	470.03
529.679	471.58
529.884	523.89
530.09	531.64
530.295	535.32
530.501	522.92
530.706	509.17
530.912	481.85
531.117	484.56
531.323	492.31
531.528	516.34
531.733	501.42
531.939	480.49
532.144	520.6
532.35	499.29
532.555	556.25
532.76	580.66
532.966	555.67
533.171	546.95
533.376	498.9
533.581	465.19
533.787	507.42
533.992	501.81
534.197	561.48
534.402	496.96
534.607	528.35
534.813	593.64
535.018	512.27
535.223	510.14
535.428	543.85
535.633	588.41
535.838	570
536.043	521.76
536.249	610.69
536.454	543.27
536.659	531.84
536.864	522.34
537.069	533.19
537.274	580.27
537.479	549.47
537.684	548.5
537.889	516.34
538.094	607.98
538.299	538.42
538.504	577.37
538.708	540.94
538.913	579.11
539.118	542.49
539.323	589.96
539.528	538.62
539.733	560.51
539.938	571.94
540.142	596.35
540.347	566.13
540.552	527.19
540.757	572.72
540.962	535.71
541.166	501.22
541.371	530.67
541.576	562.84
541.781	446.97
541.985	564.39
542.19	578.14
542.395	582.21
542.599	607.79
542.804	593.84
543.008	601.39
543.213	565.16
543.418	540.75
543.622	580.66
543.827	541.72
544.031	604.88
544.236	606.43
544.44	561.09
544.645	631.42
544.849	559.15
545.054	593.64
545.258	635.3
545.463	632.78
545.667	562.45
545.872	571.55
546.076	599.65
546.281	588.8
546.485	564.39
546.689	605.65
546.894	638.01
547.098	580.27
547.302	561.48
547.507	559.93
547.711	557.02
547.915	634.91
548.119	566.52
548.324	590.15
548.528	621.93
548.732	573.49
548.936	611.66
549.141	604.88
549.345	570.59
549.549	586.47
549.753	589.19
549.957	678.31
550.161	636.27
550.366	607.59
550.57	590.54
550.774	588.41
550.978	590.93
551.182	610.3
551.386	591.51
551.59	561.67
551.794	590.74
551.998	584.34
552.202	607.79
552.406	558.77
552.61	608.95
552.814	605.27
553.018	657.58
553.222	596.16
553.426	600.62
553.63	671.33
553.833	580.85
554.037	557.41
554.241	644.02
554.445	570.97
554.649	573.49
554.853	593.64
555.056	632.78
555.26	651.77
555.464	600.81
555.668	575.24
555.871	647.7
556.075	646.73
556.279	591.32
556.483	559.93
556.686	601.97
556.89	574.27
557.094	616.12
557.297	538.23
557.501	616.31
557.704	564.77
557.908	600.81
558.112	565.74
558.315	649.83
558.519	592.09
558.722	594.8
558.926	575.43
559.129	556.05
559.333	506.26
559.536	539
559.74	529.9
559.943	535.9
560.147	547.14
560.35	535.9
560.553	563.03
560.757	502.58
560.96	598.29
561.164	529.7
561.367	645.76
561.57	555.86
561.774	571.55
561.977	575.04
562.18	540.17
562.384	630.07
562.587	576.2
562.79	546.37
562.993	581.24
563.197	608.17
563.4	645.37
563.603	644.98
563.806	632
564.009	551.21
564.212	597.13
564.416	513.82
564.619	571.75
564.822	525.05
565.025	585.31
565.228	545.01
565.431	546.56
565.634	499.29
565.837	529.7
566.04	482.43
566.243	521.76
566.446	485.53
566.649	557.22
566.852	496.96
567.055	523.31
567.258	554.7
567.461	582.6
567.664	576.2
567.867	468.48
568.07	557.6
568.273	522.34
568.475	555.86
568.678	514.98
568.881	519.05
569.084	541.91
569.287	472.16
569.489	471.97
569.692	562.84
569.895	512.27
570.098	469.45
570.3	459.18
570.503	429.73
570.706	469.84
570.909	445.04
571.111	457.82
571.314	438.06
571.516	453.37
571.719	477.01
571.922	475.26
572.124	444.84
572.327	476.62
572.529	430.12
572.732	445.04
572.935	469.26
573.137	495.8
573.34	451.82
573.542	506.65
573.745	459.57
573.947	484.37
574.15	441.55
574.352	409.19
574.554	506.84
574.757	407.26
574.959	442.32
575.162	417.53
575.364	459.57
575.566	550.63
575.769	425.66
575.971	439.42
576.173	365.79
576.376	440.39
576.578	455.11
576.78	496.96
576.982	384.39
577.185	412.68
577.387	411.33
577.589	401.44
577.791	448.33
577.993	484.76
578.196	430.89
578.398	432.64
578.6	491.54
578.802	396.21
579.004	416.75
579.206	382.46
579.408	418.11
579.61	413.07
579.812	474.1
580.014	423.14
580.216	420.63
580.418	396.6
580.62	400.86
580.822	361.34
581.024	408.81
581.226	458.02
581.428	432.44
581.63	485.14
581.832	395.83
582.034	436.51
582.236	430.31
582.438	415.39
582.64	469.45
582.841	455.31
583.043	485.14
583.245	436.71
583.447	436.51
583.649	394.08
583.85	429.34
584.052	456.86
584.254	380.13
584.456	448.91
584.657	388.27
584.859	411.33
585.061	414.23
585.262	384.2
585.464	381.29
585.666	416.17
585.867	411.13
586.069	489.99
586.27	425.08
586.472	415.01
586.674	424.69
586.875	406.87
587.077	390.4
587.278	419.27
587.48	406.29
587.681	499.87
587.883	419.27
588.084	374.13
588.285	384.98
588.487	416.17
588.688	412.88
588.89	375.87
589.091	350.88
589.292	392.14
589.494	383.62
589.695	352.62
589.896	332.47
590.098	319.1
590.299	382.46
590.5	332.08
590.702	344.29
590.903	362.5
591.104	395.24
591.305	367.93
591.507	415.39
591.708	397.76
591.909	350.68
592.11	450.66
592.311	396.6
592.512	382.26
592.714	337.12
592.915	332.66
593.116	373.35
593.317	352.23
593.518	358.04
593.719	345.65
593.92	390.01
594.121	394.08
594.322	354.36
594.523	375.87
594.724	324.53
594.925	363.66
595.126	391.95
595.327	394.08
595.528	389.63
595.729	377.23
595.929	360.37
596.13	387.88
596.331	393.31
596.532	394.66
596.733	439.61
596.934	412.29
597.135	421.79
597.335	385.75
597.536	370.25
597.737	360.56
597.938	343.71
598.138	413.07
598.339	368.12
598.54	381.1
598.74	380.91
598.941	400.28
599.142	424.31
599.342	389.24
599.543	352.23
599.744	377.03
599.944	353.2
600.145	356.69
600.345	361.73
600.546	440.58
600.746	408.42
600.947	434.77
601.147	394.08
601.348	430.31
601.548	350.49
601.749	383.81
601.949	346.03
602.15	372.96
602.35	382.07
602.551	402.22
602.751	358.04
602.951	349.13
603.152	312.9
603.352	401.25
603.552	330.15
603.753	384.01
603.953	383.43
604.153	373.74
604.354	342.35
604.554	364.24
604.754	355.33
604.954	290.62
605.155	364.63
605.355	371.61
605.555	383.04
605.755	397.18
605.955	374.71
606.155	365.41
606.356	347.2
606.556	392.34
606.756	380.13
606.956	326.85
607.156	413.07
607.356	345.45
607.556	375.87
607.756	364.63
607.956	415.98
608.156	370.83
608.356	348.16
608.556	378.58
608.756	384.01
608.956	354.94
609.156	376.64
609.356	319.68
609.556	339.64
609.755	384.98
609.955	327.82
610.155	362.89
610.355	357.08
610.555	347.2
610.755	368.31
610.954	334.41
611.154	355.53
611.354	394.08
611.554	324.33
611.753	329.76
611.953	324.33
612.153	378
612.352	347.39
612.552	335.76
612.752	299.92
612.951	341
613.151	333.44
613.351	307.67
613.55	321.43
613.75	364.44
613.949	341.38
614.149	337.51
614.348	340.03
614.548	320.65
614.747	278.41
614.947	314.45
615.146	265.63
615.346	351.07
615.545	341
615.745	343.32
615.944	357.08
616.144	348.36
616.343	346.61
616.542	317.75
616.742	355.72
616.941	337.9
617.14	259.62
617.34	312.32
617.539	305.54
617.738	296.63
617.938	376.64
618.137	344.29
618.336	271.05
618.535	331.31
618.734	307.09
618.934	335.57
619.133	329.37
619.332	340.41
619.531	293.91
619.73	290.62
619.929	339.06
620.128	326.66
620.328	357.27
620.527	307.48
620.726	308.45
620.925	345.65
621.124	301.66
621.323	307.28
621.522	293.91
621.721	270.66
621.92	255.75
622.119	339.45
622.318	296.63
622.517	309.8
622.715	298.95
622.914	238.5
623.113	279.96
623.312	259.62
623.511	326.85
623.71	282.29
623.909	289.46
624.107	342.35
624.306	244.51
624.505	268.92
624.704	310.96
624.902	296.05
625.101	328.4
625.3	311.35
625.499	271.83
625.697	271.44
625.896	263.5
626.095	312.51
626.293	245.87
626.492	265.05
626.69	296.24
626.889	268.53
627.088	316.97
627.286	262.53
627.485	275.31
627.683	272.02
627.882	299.73
628.08	257.1
628.279	259.04
628.477	360.18
628.676	259.23
628.874	290.81
629.073	275.7
629.271	243.15
629.469	300.31
629.668	261.37
629.866	279
630.065	251.29
630.263	291.4
630.461	249.35
630.66	262.91
630.858	302.05
631.056	307.86
631.254	299.53
631.453	273.38
631.651	329.56
631.849	285.97
632.047	261.75
632.245	297.4
632.444	283.45
632.642	294.88
632.84	289.65
633.038	254.58
633.236	243.54
633.434	261.37
633.632	224.36
633.83	251.48
634.028	290.81
634.227	265.82
634.425	340.61
634.623	283.65
634.821	287.91
635.019	277.64
635.216	261.17
635.414	314.45
635.612	295.27
635.81	284.23
636.008	325.3
636.206	266.4
636.404	281.9
636.602	264.46
636.8	303.02
636.997	284.03
637.195	291.2
637.393	284.42
637.591	333.25
637.789	269.89
637.986	238.89
638.184	285.58
638.382	295.08
638.58	289.65
638.777	372.19
638.975	277.06
639.173	299.73
639.37	263.11
639.568	269.89
639.765	309.22
639.963	270.08
640.161	325.5
640.358	298.18
640.556	259.23
640.753	247.42
640.951	261.75
641.148	303.41
641.346	256.91
641.543	262.14
641.741	282.68
641.938	252.84
642.136	266.79
642.333	254.58
642.531	312.9
642.728	312.13
642.925	270.28
643.123	258.85
643.32	277.45
643.517	249.74
643.715	277.45
643.912	231.33
644.109	270.47
644.306	255.17
644.504	266.98
644.701	236.76
644.898	297.01
645.095	248.38
645.293	245.87
645.49	295.85
645.687	247.22
645.884	299.73
646.081	229.78
646.278	253.03
646.475	231.14
646.672	225.52
646.87	285.39
647.067	262.91
647.264	269.7
647.461	240.25
647.658	189.87
647.855	264.85
648.052	243.15
648.249	179.22
648.446	238.31
648.642	220.48
648.839	219.52
649.036	219.13
649.233	211.77
649.43	209.05
649.627	199.56
649.824	224.94
650.021	210.6
650.217	244.32
650.414	210.41
650.611	236.95
650.808	233.85
651.004	243.15
651.201	260.4
651.398	286.16
651.595	237.34
651.791	241.41
651.988	252.26
652.185	236.37
652.381	254.97
652.578	184.06
652.775	238.7
652.971	215.83
653.168	234.63
653.364	236.76
653.561	147.64
653.757	231.14
653.954	220.1
654.15	196.65
654.347	283.45
654.543	221.65
654.74	178.25
654.936	180.38
655.133	239.67
655.329	227.07
655.525	257.3
655.722	245.09
655.918	216.42
656.115	277.64
656.311	184.45
656.507	178.25
656.704	152.09
656.9	185.42
657.096	182.7
657.292	175.73
657.489	256.91
657.685	208.67
657.881	189.29
658.077	191.23
658.273	197.43
658.47	264.66
658.666	217.97
658.862	231.14
659.058	192.97
659.254	249.74
659.45	198.4
659.646	219.52
659.842	194.13
660.038	242.77
660.234	201.5
660.43	223.58
660.626	279.77
660.822	240.25
661.018	271.05
661.214	204.98
661.41	179.02
661.606	212.93
661.802	273.57
661.998	212.93
662.194	198.2
662.39	237.15
662.586	223
662.781	239.86
662.977	256.72
663.173	233.85
663.369	206.34
663.564	226.49
663.76	244.51
663.956	200.72
664.152	230.17
664.347	151.9
664.543	221.26
664.739	176.12
664.934	177.08
665.13	148.99
665.326	214.67
665.521	216.8
665.717	192.78
665.912	180.77
666.108	142.02
666.304	174.76
666.499	190.84
666.695	129.23
666.89	185.03
667.086	265.82
667.281	210.8
667.477	248.19
667.672	184.83
667.867	219.52
668.063	220.87
668.258	173.21
668.454	169.34
668.649	274.93
668.844	194.72
669.04	215.45
669.235	204.02
669.43	178.25
669.626	158.49
669.821	204.6
670.016	172.63
670.211	184.45
670.407	154.8
670.602	180.57
670.797	190.07
670.992	227.65
671.187	174.37
671.382	219.71
671.578	165.85
671.773	200.92
671.968	128.84
672.163	186
672.358	195.68
672.553	161.78
672.748	175.53
672.943	228.62
673.138	189.48
673.333	209.05
673.528	169.14
673.723	203.05
673.918	178.83
674.113	176.7
674.308	252.65
674.503	219.9
674.698	223.58
674.892	214.28
675.087	213.9
675.282	217.97
675.477	163.72
675.672	201.5
675.867	187.55
676.061	173.6
676.256	165.46
676.451	169.92
676.646	198.01
676.84	177.67
677.035	150.54
677.23	163.33
677.424	194.52
677.619	227.07
677.814	206.15
678.008	227.27
678.203	136.98
678.397	156.94
678.592	178.83
678.787	247.03
678.981	154.42
679.176	182.32
679.37	188.32
679.565	155
679.759	163.91
679.954	222.23
680.148	240.63
680.342	200.33
680.537	207.12
680.731	180.96
680.926	187.35
681.12	199.17
681.314	132.33
681.509	198.4
681.703	164.3
681.897	197.62
682.092	187.16
682.286	162.75
682.48	246.45
682.674	227.65
682.869	191.23
683.063	198.2
683.257	227.85
683.451	151.32
683.645	212.73
683.839	173.6
684.034	155.39
684.228	210.02
684.422	147.83
684.616	161
684.81	206.73
685.004	183.87
685.198	153.45
685.392	210.02
685.586	158.1
685.78	181.35
685.974	200.14
686.168	204.98
686.362	255.17
686.556	174.57
686.75	141.24
686.944	189.1
687.138	202.27
687.331	130.97
687.525	187.16
687.719	118.38
687.913	163.91
688.107	150.15
688.301	148.41
688.494	173.79
688.688	140.27
688.882	115.86
689.076	108.11
689.269	155.19
689.463	214.28
689.657	158.49
689.85	140.27
690.044	178.05
690.238	159.26
690.431	145.5
690.625	131.75
690.818	172.63
691.012	180.18
691.205	192.58
691.399	125.55
691.593	159.65
691.786	202.85
691.98	195.3
692.173	229.98
692.366	177.47
692.56	206.92
692.753	232.5
692.947	161.97
693.14	223
693.333	195.3
693.527	161.2
693.72	204.02
693.914	201.3
694.107	193.75
694.3	202.66
694.493	206.73
694.687	214.28
694.88	181.35
695.073	241.8
695.266	225.91
695.46	200.14
695.653	268.15
695.846	238.89
696.039	143.37
696.232	211.77
696.425	238.7
696.618	259.23
696.812	220.29
697.005	259.62
697.198	304.38
697.391	240.63
697.584	240.44
697.777	310.96
697.97	300.11
698.163	279
698.356	259.04
698.549	349.13
698.742	307.48
698.935	276.48
699.127	262.14
699.32	263.5
699.513	278.03
699.706	279
699.899	310.19
700.092	301.47
700.285	308.83
700.477	249.93
700.67	285.2
700.863	338.86
701.056	371.03
701.248	318.33
701.441	383.23
701.634	322.78
701.826	422.76
702.019	298.18
702.212	352.62
702.404	311.55
702.597	311.74
702.79	328.98
702.982	343.32
703.175	357.08
703.367	391.76
703.56	373.54
703.752	431.09
703.945	375.87
704.137	395.63
704.33	421.59
704.522	401.64
704.715	407.64
704.907	409.39
705.1	429.73
705.292	433.22
705.484	411.91
705.677	452.21
705.869	430.89
706.061	469.64
706.254	506.46
706.446	461.7
706.638	442.71
706.831	489.21
707.023	435.35
707.215	522.15
707.407	522.15
707.599	478.36
707.792	535.32
707.984	509.36
708.176	524.86
708.368	517.5
708.56	539.39
708.752	506.07
708.944	503.16
709.136	537.45
709.329	551.4
709.521	626
709.713	603.33
709.905	586.09
710.097	602.36
710.289	558.57
710.481	546.95
710.672	590.15
710.864	594.03
711.056	626.19
711.248	631.81
711.44	605.85
711.632	620.57
711.824	614.76
712.016	675.6
712.207	630.65
712.399	645.37
712.591	690.32
712.783	692.45
712.975	697.49
713.166	659.32
713.358	655.06
713.55	747.67
713.741	712.41
713.933	696.52
714.125	702.91
714.316	713.96
714.508	750.58
714.7	741.86
714.891	743.99
715.083	829.24
715.274	740.11
715.466	746.7
715.657	810.25
715.849	700.2
716.04	760.07
716.232	693.81
716.423	790.29
716.615	734.5
716.806	731.4
716.998	703.69
717.189	704.46
717.381	642.66
717.572	632
717.763	696.33
717.955	663.97
718.146	613.21
718.337	649.05
718.528	626.38
718.72	592.09
718.911	637.04
719.102	616.5
719.293	675.98
719.485	631.62
719.676	626.77
719.867	586.47
720.058	590.74
720.249	622.32
720.44	659.52
720.632	650.22
720.823	681.41
721.014	719.77
721.205	725
721.396	746.7
721.587	823.62
721.778	817.42
721.969	830.59
722.16	889.49
722.351	821.49
722.542	933.28
722.733	945.29
722.924	861.4
723.115	911.97
723.305	919.14
723.496	943.55
723.687	857.33
723.878	865.66
724.069	882.52
724.26	886.59
724.45	819.16
724.641	825.36
724.832	865.28
725.023	885.81
725.213	818
725.404	858.49
725.595	876.9
725.785	863.92
725.976	886.97
726.167	864.11
726.357	853.46
726.548	983.46
726.739	911.97
726.929	965.05
727.12	968.54
727.31	975.9
727.501	971.06
727.691	987.92
727.882	973.58
728.072	1001.09
728.263	988.89
728.453	1019.5
728.644	1021.24
728.834	994.31
729.024	997.6
729.215	957.69
729.405	1006.13
729.596	1071.03
729.786	1049.53
729.976	1054.76
730.167	1109.4
730.357	1012.72
730.547	1082.85
730.737	1104.17
730.928	1134.58
731.118	1152.6
731.308	1091.96
731.498	1125.09
731.688	1150.08
731.879	1167.71
732.069	1191.74
732.259	1257.81
732.449	1200.85
732.639	1269.04
732.829	1280.86
733.019	1318.06
733.209	1353.52
733.399	1348.29
733.589	1361.27
733.779	1350.42
733.969	1371.54
734.159	1391.49
734.349	1418.81
734.539	1456.01
734.729	1446.13
734.919	1475.58
735.109	1474.8
735.299	1443.22
735.488	1501.15
735.678	1516.65
735.868	1480.62
736.058	1480.62
736.248	1466.86
736.437	1437.8
736.627	1442.64
736.817	1555.4
737.007	1517.43
737.196	1580.2
737.386	1500.57
737.576	1494.37
737.765	1558.5
737.955	1541.65
738.144	1635.03
738.334	1575.36
738.524	1560.83
738.713	1577.68
738.903	1561.41
739.092	1620.11
739.282	1596.48
739.471	1617.01
739.661	1607.91
739.85	1619.15
740.04	1659.64
740.229	1646.27
740.419	1678.24
740.608	1664.68
740.797	1659.83
740.987	1737.14
741.176	1723.19
741.365	1671.84
741.555	1639.1
741.744	1729.39
741.933	1709.04
742.123	1740.43
742.312	1747.41
742.501	1788.67
742.69	1784.02
742.88	1688.51
743.069	1816.38
743.258	1695.09
743.447	1778.99
743.636	1825.1
743.825	1766.2
744.014	1765.42
744.204	1818.32
744.393	1725.32
744.582	1828.2
744.771	1815.99
744.96	1793.13
745.149	1823.74
745.338	1776.47
745.527	1802.43
745.716	1819.87
745.905	1783.06
746.094	1822.58
746.283	1834.01
746.471	1809.6
746.66	1921.59
746.849	1854.94
747.038	1878.38
747.227	1854.16
747.416	1849.12
747.604	1839.44
747.793	1840.6
747.982	1837.5
748.171	1874.89
748.359	1900.27
748.548	1861.91
748.737	1886.52
748.926	1867.14
749.114	1803.59
749.303	1844.47
749.491	1888.45
749.68	1784.99
749.869	1871.79
750.057	1815.99
750.246	1815.61
750.434	1856.49
750.623	1841.76
750.811	1804.95
751	1856.68
751.188	1853
751.377	1857.84
751.565	1826.46
751.754	1789.84
751.942	1817.16
752.131	1885.35
752.319	1803.01
752.507	1770.66
752.696	1827.62
752.884	1896.59
753.072	1820.84
753.261	1807.66
753.449	1830.91
753.637	1789.26
753.825	1923.72
754.014	1812.7
754.202	1845.44
754.39	1861.72
754.578	1876.64
754.766	1830.14
754.955	1803.79
755.143	1878.19
755.331	1809.02
755.519	1807.27
755.707	1809.79
755.895	1834.59
756.083	1798.56
756.271	1800.11
756.459	1815.22
756.647	1845.05
756.835	1831.49
757.023	1768.52
757.211	1814.25
757.399	1811.15
757.587	1776.66
757.775	1753.41
757.963	1772.01
758.151	1776.86
758.339	1771.04
758.526	1753.22
758.714	1778.02
758.902	1721.64
759.09	1689.09
759.278	1577.68
759.465	1424.82
759.653	1190.19
759.841	1128
760.028	935.22
760.216	839.7
760.404	814.32
760.591	632.58
760.779	562.45
760.967	464.8
761.154	368.12
761.342	420.04
761.529	397.96
761.717	443.49
761.905	416.36
762.092	466.35
762.28	402.22
762.467	412.29
762.655	378.19
762.842	398.93
763.029	397.96
763.217	391.76
763.404	424.5
763.592	414.81
763.779	399.89
763.966	447.17
764.154	454.14
764.341	482.43
764.528	462.28
764.716	524.09
764.903	537.45
765.09	569.81
765.277	586.67
765.465	773.44
765.652	719.96
765.839	757.16
766.026	843.58
766.213	836.21
766.4	927.66
766.588	1035.39
766.775	1003.22
766.962	1071.03
767.149	1097.58
767.336	1206.08
767.523	1170.04
767.71	1261.68
767.897	1309.93
768.084	1381.03
768.271	1358.17
768.458	1407.96
768.645	1463.76
768.832	1403.89
769.019	1439.74
769.206	1478.29
769.392	1493.4
769.579	1573.42
769.766	1545.72
769.953	1548.62
770.14	1604.03
770.327	1540.87
770.513	1601.71
770.7	1619.92
770.887	1529.63
771.073	1641.23
771.26	1593.76
771.447	1571.29
771.634	1556.95
771.82	1650.73
772.007	1562.57
772.193	1615.08
772.38	1662.54
772.567	1627.67
772.753	1610.43
772.94	1645.5
773.126	1627.67
773.313	1626.7
773.499	1641.23
773.686	1636.58
773.872	1603.65
774.059	1611.59
774.245	1557.92
774.432	1561.22
774.618	1499.41
774.804	1626.51
774.991	1554.05
775.177	1595.12
775.363	1568.97
775.55	1618.18
775.736	1547.65
775.922	1557.92
776.109	1578.65
776.295	1605.58
776.481	1597.64
776.667	1635.81
776.853	1586.21
777.04	1552.88
777.226	1564.12
777.412	1636.58
777.598	1564.51
777.784	1538.16
777.97	1541.07
778.156	1569.74
778.342	1537.77
778.528	1532.15
778.715	1475.58
778.901	1549.4
779.087	1537.58
779.272	1503.28
779.458	1479.45
779.644	1555.02
779.83	1504.64
780.016	1587.18
780.202	1535.06
780.388	1510.07
780.574	1458.92
780.76	1498.05
780.946	1510.65
781.131	1497.28
781.317	1494.37
781.503	1461.82
781.689	1466.86
781.874	1589.7
782.06	1480.62
782.246	1486.43
782.432	1477.32
782.617	1512.2
782.803	1537.38
782.989	1442.84
783.174	1477.71
783.36	1448.07
783.545	1483.33
783.731	1438.57
783.916	1393.82
784.102	1452.91
784.288	1383.36
784.473	1457.17
784.659	1444.39
784.844	1457.75
785.029	1409.7
785.215	1394.01
785.4	1347.71
785.586	1474.61
785.771	1380.64
785.956	1422.69
786.142	1426.75
786.327	1362.04
786.512	1418.42
786.698	1386.84
786.883	1355.46
787.068	1348.29
787.254	1375.41
787.439	1377.93
787.624	1362.04
787.809	1343.64
787.994	1322.71
788.18	1394.21
788.365	1319.81
788.55	1358.94
788.735	1332.79
788.92	1341.7
789.105	1310.51
789.29	1353.32
789.475	1320
789.66	1308.96
789.845	1302.76
790.03	1298.88
790.215	1344.22
790.4	1357.2
790.585	1321.55
790.77	1322.32
790.955	1233.98
791.14	1319.22
791.325	1370.18
791.51	1199.1
791.695	1282.22
791.879	1244.44
792.064	1227.58
792.249	1329.3
792.434	1237.27
792.618	1269.82
792.803	1311.67
792.988	1271.37
793.173	1268.85
793.357	1295.2
793.542	1261.88
793.727	1273.11
793.911	1316.32
794.096	1243.08
794.281	1308.76
794.465	1357.78
794.65	1243.47
794.834	1300.82
795.019	1316.51
795.203	1333.56
795.388	1321.36
795.572	1346.74
795.757	1303.92
795.941	1330.66
796.126	1303.92
796.31	1287.26
796.494	1296.56
796.679	1295.98
796.863	1274.08
797.048	1315.74
797.232	1299.66
797.416	1276.79
797.601	1308.57
797.785	1356.81
797.969	1295.01
798.153	1269.04
798.338	1313.8
798.522	1339.37
798.706	1308.76
798.89	1324.46
799.074	1403.5
799.258	1377.93
799.443	1335.11
799.627	1314.96
799.811	1321.36
799.995	1332.4
800.179	1299.66
800.363	1311.86
800.547	1314.96
800.731	1301.21
800.915	1261.49
801.099	1286.09
801.283	1305.47
801.467	1301.79
801.651	1306.24
801.835	1331.04
802.019	1326.59
802.202	1330.07
802.386	1289.78
802.57	1265.17
802.754	1284.54
802.938	1242.31
803.121	1270.98
803.305	1308.96
803.489	1284.16
803.673	1325.23
803.856	1320.39
804.04	1322.71
804.224	1296.17
804.407	1282.99
804.591	1294.43
804.775	1283.19
804.958	1291.33
805.142	1374.44
805.326	1309.15
805.509	1336.27
805.693	1356.42
805.876	1342.47
806.06	1301.4
806.243	1297.72
806.427	1329.88
806.61	1356.62
806.794	1322.52
806.977	1348.09
807.16	1314.96
807.344	1311.09
807.527	1330.46
807.71	1264.98
807.894	1299.66
808.077	1370.96
808.26	1293.26
808.444	1285.32
808.627	1317.29
808.81	1286.09
808.993	1267.49
809.177	1217.9
809.36	1278.15
809.543	1290.94
809.726	1234.94
809.909	1221.19
810.092	1198.33
810.276	1204.72
810.459	1244.63
810.642	1234.17
810.825	1172.75
811.008	1211.11
811.191	1140.4
811.374	1141.56
811.557	1171.4
811.74	1238.63
811.923	1162.48
812.106	1104.36
812.289	1088.67
812.472	1135.17
812.654	1150.08
812.837	1136.91
813.02	1079.75
813.203	1049.72
813.386	1006.32
813.569	1015.62
813.751	969.32
813.934	1032.87
814.117	1004.58
814.3	965.83
814.482	969.9
814.665	935.8
814.848	892.4
815.03	876.9
815.213	883.68
815.396	871.86
815.578	866.83
815.761	838.54
815.943	905.38
816.126	828.66
816.309	794.17
816.491	748.25
816.674	758.13
816.856	778.09
817.039	785.65
817.221	837.96
817.403	804.24
817.586	799.79
817.768	848.61
817.951	765.69
818.133	747.48
818.315	752.32
818.498	796.3
818.68	851.33
818.862	816.84
819.045	817.81
819.227	789.33
819.409	762.01
819.591	828.27
819.774	814.9
819.956	747.86
820.138	854.43
820.32	854.43
820.502	852.49
820.684	904.22
820.866	884.65
821.048	912.16
821.231	913.91
821.413	910.22
821.595	881.55
821.777	897.44
821.959	925.72
822.141	934.06
822.323	857.53
822.505	832.14
822.686	793.78
822.868	753.29
823.05	718.41
823.232	722.48
823.414	634.72
823.596	747.28
823.778	687.61
823.96	735.08
824.141	709.89
824.323	755.81
824.505	748.06
824.687	795.91
824.868	811.61
825.05	894.53
825.232	905.77
825.413	935.22
825.595	899.18
825.777	870.31
825.958	892.59
826.14	872.64
826.321	903.44
826.503	876.9
826.685	896.47
826.866	927.86
827.048	912.94
827.229	849.97
827.411	850.36
827.592	808.31
827.773	804.24
827.955	784.48
828.136	821.49
828.318	760.46
828.499	823.81
828.68	772.08
828.862	801.53
829.043	818.58
829.224	807.15
829.406	772.08
829.587	765.5
829.768	769.95
829.949	787.19
830.131	777.31
830.312	864.5
830.493	773.83
830.674	805.6
830.855	786.03
831.036	791.84
831.218	839.12
831.399	860.04
831.58	825.56
831.761	799.59
831.942	812.77
832.123	804.63
832.304	779.83
832.485	758.71
832.666	786.23
832.847	796.11
833.028	788.16
833.209	818.39
833.389	773.25
833.57	768.21
833.751	755.81
833.932	817.42
834.113	787.39
834.294	751.55
834.475	835.83
834.655	813.54
834.836	851.71
835.017	816.45
835.198	798.63
835.378	788.36
835.559	846.87
835.74	815.09
835.92	802.31
836.101	807.34
836.281	842.99
836.462	847.45
836.643	844.35
836.823	858.11
837.004	857.72
837.184	886.01
837.365	824.78
837.545	843.19
837.726	815.29
837.906	894.92
838.087	846.29
838.267	841.06
838.448	788.55
838.628	839.31
838.808	806.76
838.989	861.59
839.169	812.19
839.349	836.6
839.53	862.95
839.71	839.31
839.89	805.02
840.07	876.32
840.251	836.79
840.431	846.29
840.611	846.68
840.791	797.27
840.971	846.68
841.151	831.56
841.332	804.24
841.512	887.36
841.692	781.19
841.872	839.51
842.052	821.29
842.232	889.3
842.412	799.01
842.592	814.71
842.772	847.06
842.952	849.78
843.132	798.43
843.312	784.1
843.492	780.41
843.672	824.39
843.851	803.66
844.031	820.71
844.211	800.18
844.391	787.78
844.571	824.98
844.751	814.71
844.93	820.52
845.11	797.27
845.29	795.33
845.47	825.56
845.649	828.27
845.829	846.09
846.009	807.15
846.188	855.78
846.368	805.21
846.547	809.28
846.727	838.73
846.907	752.71
847.086	801.53
847.266	841.25
847.445	798.43
847.625	797.27
847.804	790.1
847.984	801.53
848.163	747.86
848.343	787.97
848.522	801.92
848.701	805.6
848.881	773.83
849.06	792.04
849.239	772.08
849.419	806.18
849.598	739.53
849.777	740.31
849.957	781.19
850.136	673.66
850.315	727.71
850.494	730.43
850.674	708.53
850.853	775.38
851.032	756.97
851.211	787
851.39	742.25
851.569	683.35
851.748	698.85
851.927	761.23
852.107	734.69
852.286	687.42
852.465	686.45
852.644	766.27
852.823	729.26
853.002	716.09
853.181	725.78
853.359	722.29
853.538	719.19
853.717	780.22
853.896	683.93
854.075	631.42
854.254	652.54
854.433	586.86
854.611	664.75
854.79	615.92
854.969	654.48
855.148	675.79
855.327	613.02
855.505	682.96
855.684	643.24
855.863	693.03
856.041	611.47
856.22	663
856.399	615.15
856.577	732.36
856.756	663.97
856.934	805.99
857.113	815.29
857.291	715.9
857.47	658.55
857.648	707.18
857.827	704.27
858.005	730.43
858.184	690.52
858.362	745.15
858.541	674.05
858.719	708.34
858.898	673.08
859.076	679.67
859.254	749.41
859.433	659.9
859.611	672.11
859.789	646.73
859.967	721.51
860.146	752.71
860.324	650.41
860.502	669.4
860.68	637.82
860.859	644.4
861.037	654.28
861.215	719
861.393	642.47
861.571	664.75
861.749	637.23
861.927	673.08
862.105	660.87
862.283	676.95
862.461	626.58
862.639	625.61
862.817	632.2
862.995	658.74
863.173	636.46
863.351	667.46
863.529	634.72
863.707	699.62
863.885	644.98
864.063	625.22
864.241	626.58
864.418	686.64
864.596	606.43
864.774	618.05
864.952	620.18
865.129	634.33
865.307	627.16
865.485	554.7
865.663	632.2
865.84	579.5
866.018	615.15
866.196	492.51
866.373	539.2
866.551	547.72
866.728	486.31
866.906	544.24
867.084	545.4
867.261	593.84
867.439	589.19
867.616	623.67
867.794	586.86
867.971	586.67
868.149	597.9
868.326	615.34
868.503	613.4
868.681	607.79
868.858	569.62
869.035	560.9
869.213	610.69
869.39	575.62
869.567	658.74
869.745	563.61
869.922	603.52
870.099	628.52
870.276	622.51
870.454	622.51
870.631	605.07
870.808	593.45
870.985	610.89
871.162	638.98
871.339	622.9
871.517	556.25
871.694	551.6
871.871	571.17
872.048	597.52
872.225	547.92
872.402	596.55
872.579	554.12
872.756	624.83
872.933	537.07
873.11	559.15
873.287	589.38
873.463	556.83
873.64	570.39
873.817	636.07
873.994	564
874.171	541.14
874.348	613.21
874.524	514.59
874.701	567.87
874.878	511.69
875.055	568.84
875.231	543.85
875.408	577.56
875.585	528.54
875.762	541.72
875.938	561.09
876.115	541.33
876.291	536.68
876.468	552.76
876.645	496.77
876.821	538.23
876.998	532.61
877.174	545.2
877.351	542.69
877.527	505.49
877.704	559.93
877.88	545.2
878.057	497.16
878.233	558.19
878.409	513.04
878.586	534.55
878.762	503.94
878.938	524.86
879.115	476.04
879.291	506.26
879.467	501.22
879.644	489.02
879.82	515.37
879.996	490.76
880.172	431.86
880.349	512.66
880.525	529.51
880.701	477.97
880.877	459.37
881.053	526.41
881.229	486.31
881.405	531.06
881.581	467.9
881.757	473.91
881.933	517.69
882.109	530.87
882.285	524.47
882.461	460.34
882.637	498.12
882.813	446.78
882.989	503.94
883.165	551.21
883.341	481.46
883.517	548.3
883.693	498.32
883.869	514.01
884.044	481.66
884.22	520.21
884.396	539.97
884.572	515.17
884.747	508.39
884.923	507.04
885.099	519.63
885.275	512.46
885.45	483.79
885.626	479.91
885.801	497.16
885.977	488.24
886.153	440.97
886.328	479.14
886.504	471.58
886.679	503.74
886.855	479.72
887.03	480.69
887.206	535.13
887.381	502.19
887.557	501.81
887.732	489.6
887.908	512.85
888.083	514.21
888.258	474.87
888.434	474.68
888.609	495.99
888.784	520.99
888.96	484.76
889.135	468.09
889.31	449.69
889.485	517.31
889.661	469.64
889.836	522.73
890.011	480.11
890.186	479.72
890.361	462.86
890.537	498.51
890.712	506.07
890.887	478.56
891.062	495.41
891.237	519.05
891.412	441.74
891.587	493.67
891.762	514.59
891.937	512.07
892.112	448.91
892.287	481.66
892.462	452.79
892.637	437.67
892.812	417.91
892.987	448.91
893.161	408.61
893.336	456.27
893.511	428.76
893.686	460.34
893.861	423.34
894.035	435.74
894.21	438.64
894.385	397.96
894.56	418.69
894.734	388.27
894.909	398.54
895.084	410.74
895.258	415.59
895.433	428.96
895.608	399.12
895.782	378.97
895.957	371.61
896.131	369.48
896.306	339.64
896.48	340.41
896.655	374.32
896.829	329.18
897.004	310.96
897.178	333.05
897.353	294.69
897.527	360.76
897.701	308.64
897.876	286.16
898.05	341.19
898.224	327.43
898.399	352.81
898.573	327.24
898.747	269.7
898.921	325.88
899.096	216.22
899.27	273.57
899.444	260.59
899.618	265.43
899.792	264.08
899.967	272.02
900.141	311.55
900.315	268.53
900.489	274.35
900.663	303.21
900.837	320.65
901.011	202.66
901.185	309.03
901.359	280.16
901.533	294.69
901.707	284.23
901.881	275.51
902.055	265.05
902.229	284.61
902.403	334.99
902.576	277.64
902.75	306.12
902.924	394.86
903.098	324.91
903.272	350.29
903.446	364.05
903.619	337.12
903.793	358.04
903.967	310.58
904.14	372.38
904.314	375.68
904.488	374.32
904.661	386.33
904.835	346.23
905.009	398.54
905.182	421.59
905.356	383.23
905.529	344.68
905.703	364.44
905.876	346.03
906.05	315.61
906.223	301.08
906.397	270.47
906.57	278.22
906.744	260.01
906.917	261.75
907.09	294.69
907.264	267.37
907.437	254.58
907.61	206.73
907.784	272.6
907.957	278.41
908.13	214.67
908.304	278.22
908.477	224.94
908.65	279.58
908.823	225.13
908.996	325.3
909.17	230.95
909.343	249.74
909.516	273.96
909.689	251.29
909.862	205.95
910.035	244.9
910.208	224.55
910.381	226.3
910.554	331.89
910.727	251.48
910.9	211.96
911.073	199.37
911.246	304.18
911.419	270.66
911.592	282.87
911.765	237.53
911.938	212.35
912.11	267.76
912.283	261.75
912.456	294.11
912.629	263.3
912.802	229.2
912.974	227.07
913.147	204.21
913.32	166.62
913.493	209.25
913.665	206.34
913.838	211.38
914.01	236.95
914.183	179.8
914.356	196.46
914.528	262.72
914.701	287.33
914.873	231.92
915.046	208.28
915.218	207.31
915.391	149.19
915.563	166.04
915.736	197.62
915.908	226.1
916.081	204.98
916.253	189.29
916.425	206.15
916.598	225.33
916.77	223.78
916.942	189.87
917.115	144.92
917.287	225.33
917.459	201.5
917.632	172.05
917.804	120.9
917.976	206.92
918.148	187.93
918.32	184.06
918.493	213.12
918.665	241.41
918.837	230.95
919.009	270.47
919.181	241.41
919.353	216.03
919.525	217.19
919.697	213.9
919.869	201.5
920.041	263.88
920.213	293.33
920.385	251.87
920.557	219.52
920.729	221.84
920.901	241.02
921.073	225.72
921.244	218.74
921.416	262.53
921.588	233.27
921.76	192
921.932	282.29
922.103	210.22
922.275	219.13
922.447	250.9
922.619	192.39
922.79	198.2
922.962	193.17
923.134	217.38
923.305	174.37
923.477	172.24
923.648	161.59
923.82	192.58
923.991	160.23
924.163	156.35
924.335	168.56
924.506	168.95
924.677	198.59
924.849	186.97
925.02	196.27
925.192	234.05
925.363	186
925.535	209.05
925.706	196.65
925.877	223.97
926.049	178.83
926.22	181.93
926.391	194.33
926.562	203.63
926.734	147.05
926.905	220.1
927.076	142.21
927.247	156.35
927.419	172.24
927.59	101.33
927.761	139.69
927.932	144.92
928.103	180.38
928.274	137.17
928.445	133.1
928.616	145.7
928.787	128.26
928.958	158.49
929.129	131.75
929.3	152.09
929.471	89.9
929.642	72.27
929.813	56.77
929.984	152.09
930.155	50.76
930.326	119.93
930.496	69.94
930.667	63.55
930.838	91.45
931.009	67.23
931.18	79.44
931.35	78.27
931.521	101.33
931.692	36.04
931.863	36.62
932.033	57.35
932.204	76.34
932.374	86.41
932.545	16.08
932.716	96.49
932.886	76.92
933.057	3.49
933.227	22.67
933.398	106.95
933.568	35.84
933.739	8.14
933.909	8.14
934.08	54.83
934.25	-16.08
934.421	-4.46
934.591	58.51
934.761	-5.62
934.932	-33.91
935.102	22.28
935.272	1.36
935.443	22.28
935.613	25.57
935.783	45.72
935.953	14.14
936.123	154.22
936.294	-12.4
936.464	24.61
936.634	24.41
936.804	7.75
936.974	-37.59
937.144	24.8
937.314	1.16
937.484	4.26
937.655	-22.28
937.825	50.18
937.995	-18.21
938.165	41.46
938.334	-2.32
938.504	12.98
938.674	-21.12
938.844	-0.39
939.014	40.49
939.184	39.72
939.354	69.75
939.524	49.6
939.694	24.99
939.863	32.36
940.033	102.49
940.203	89.32
940.373	84.67
940.542	66.84
940.712	39.91
940.882	70.33
941.051	90.48
941.221	43.98
941.391	64.32
941.56	14.72
941.73	18.41
941.899	126.71
942.069	24.8
942.238	61.22
942.408	26.74
942.577	38.56
942.747	31.58
942.916	7.56
943.086	17.63
943.255	56.57
943.425	57.16
943.594	30.61
943.763	-32.16
943.933	0.58
944.102	-35.84
944.271	23.06
944.441	41.07
944.61	5.23
944.779	38.56
944.948	125.94
945.117	-16.27
945.287	15.11
945.456	-12.59
945.625	8.33
945.794	52.12
945.963	-5.81
946.132	34.68
946.301	15.11
946.47	54.64
946.639	-25.96
946.808	-15.69
946.977	41.46
947.146	51.34
947.315	10.07
947.484	53.67
947.653	11.43
947.822	4.26
947.991	3.87
948.16	97.65
948.329	68.01
948.498	14.92
948.666	17.24
948.835	57.74
949.004	6.2
949.173	4.65
949.341	31
949.51	47.27
949.679	66.65
949.847	50.57
950.016	77.11
950.185	80.41
950.353	-0.39
950.522	24.41
950.69	61.03
950.859	-11.62
951.028	66.65
951.196	38.75
951.365	33.91
951.533	35.46
951.701	47.66
951.87	22.09
952.038	6.97
952.207	32.94
952.375	64.71
952.543	1.16
952.712	13.56
952.88	12.79
953.048	68.39
953.217	33.91
953.385	18.79
953.553	78.66
953.721	-3.68
953.89	24.8
954.058	-12.4
954.226	2.52
954.394	29.26
954.562	-23.06
954.73	27.32
954.898	6.2
955.067	60.84
955.235	20.54
955.403	57.54
955.571	52.31
955.739	52.31
955.907	-6.01
956.075	9.88
956.243	4.84
956.41	45.53
956.578	-17.63
956.746	-24.02
956.914	3.49
957.082	68.59
957.25	37.2
957.418	-6.01
957.585	34.49
957.753	59.09
957.921	0.97
958.089	27.12
958.256	40.3
958.424	56.38
958.592	36.81
958.759	17.44
958.927	62.39
959.095	12.01
959.262	19.57
959.43	26.16
959.597	16.47
959.765	44.56
959.932	8.91
960.1	42.43
960.267	14.53
960.435	22.09
960.602	48.44
960.77	-7.75
960.937	7.17
961.104	41.07
961.272	-41.27
961.439	-5.42
961.606	37.01
961.774	72.66
961.941	24.41
962.108	41.27
962.275	37.39
962.443	68.39
962.61	37.97
962.777	97.45
962.944	43.01
963.111	39.52
963.278	52.7
963.446	44.17
963.613	31
963.78	46.69
963.947	53.09
964.114	44.37
964.281	119.35
964.448	65.87
964.615	15.5
964.782	45.14
964.949	63.55
965.116	52.31
965.282	70.52
965.449	51.34
965.616	6.39
965.783	64.52
965.95	63.36
966.117	2.71
966.283	22.47
966.45	43.98
966.617	57.74
966.784	78.86
966.95	65.49
967.117	76.53
967.284	22.67
967.45	15.11
967.617	86.99
967.784	54.64
967.95	73.24
968.117	33.13
968.283	57.74
968.45	137.56
968.616	54.06
968.783	55.22
968.949	38.75
969.116	97.65
969.282	15.5
969.449	65.49
969.615	27.71
969.781	11.62
969.948	25.19
970.114	-3.68
970.28	96.68
970.447	39.91
970.613	89.9
970.779	29.84
970.945	41.66
971.112	60.26
971.278	55.61
971.444	39.52
971.61	83.89
971.776	57.93
971.942	60.26
972.108	63.36
972.275	29.26
972.441	53.47
972.607	98.23
972.773	15.5
972.939	63.16
973.105	29.64
973.271	23.64
973.437	47.86
973.602	19.18
973.768	62.58
973.934	32.55
974.1	56.38
974.266	-28.67
974.432	34.49
974.598	50.37
974.763	60.45
974.929	47.66
975.095	110.44
975.261	21.89
975.426	7.56
975.592	33.32
975.758	127.29
975.923	3.68
976.089	0
976.255	55.22
976.42	62
976.586	64.13
976.751	50.18
976.917	111.79
977.082	67.42
977.248	4.84
977.413	-25.57
977.579	48.82
977.744	41.66
977.91	7.36
978.075	42.04
978.24	67.42
978.406	45.92
978.571	15.31
978.736	11.43
978.902	62.77
979.067	3.87
979.232	-32.36
979.397	40.88
979.563	70.72
979.728	6.01
979.893	38.56
980.058	18.99
980.223	77.11
980.388	71.88
980.554	39.52
980.719	20.92
980.884	57.93
981.049	59.67
981.214	19.96
981.379	41.66
981.544	8.72
981.709	34.87
981.874	18.6
982.039	34.49
982.204	82.34
982.368	12.79
982.533	20.54
982.698	48.05
982.863	54.44
983.028	37.2
983.193	31.39
983.357	52.51
983.522	62.97
983.687	28.29
983.852	16.66
984.016	34.68
984.181	61.03
984.346	61.42
984.51	54.44
984.675	30.03
984.839	69.36
985.004	47.08
985.168	70.14
985.333	28.67
985.498	29.45
985.662	36.81
985.827	52.31
985.991	7.94
986.155	37.78
986.32	62
986.484	96.1
986.649	59.48
986.813	11.43
986.977	55.99
987.142	79.05
987.306	16.47
987.47	19.37
987.634	32.74
987.799	12.01
987.963	60.84
988.127	83.89
988.291	128.45
988.455	48.82
988.62	12.98
988.784	70.91
988.948	68.01
989.112	27.12
989.276	30.81
989.44	28.87
989.604	34.87
989.768	27.9
989.932	115.67
990.096	14.34
990.26	21.12
990.424	31.39
990.588	35.65
990.752	124.77
990.915	67.62
991.079	17.44
991.243	25.96
991.407	52.7
991.571	29.64
991.734	71.11
991.898	77.89
992.062	111.02
992.226	43.59
992.389	17.05
992.553	-7.36
992.717	25.19
992.88	18.6
993.044	60.64
993.207	43.21
993.371	62.77
993.535	53.67
993.698	40.11
993.862	63.94
994.025	87.19
994.189	48.63
994.352	39.91
994.515	62
994.679	62.58
994.842	29.26
995.006	84.86
995.169	6.2
995.332	22.86
995.496	40.88
995.659	-23.83
995.822	28.87
995.985	50.96
996.149	53.47
996.312	35.26
996.475	58.71
996.638	18.6
996.801	60.06
996.964	80.79
997.128	21.12
997.291	18.79
997.454	23.83
997.617	17.05
997.78	88.54
997.943	23.83
998.106	71.88
998.269	9.49
998.432	38.36
998.595	45.14
998.758	-12.4
998.92	-2.71
999.083	-22.47
999.246	31
999.409	-24.41
999.572	-15.31
999.735	14.34
999.897	21.7
1000.06	1.36
1000.223	20.73
1000.386	62.97
1000.548	67.62
1000.711	42.62
1000.874	37.97
1001.036	-10.27
1001.199	67.04
1001.361	8.72
1001.524	9.88
1001.687	63.16
1001.849	-15.69
1002.012	43.01
1002.174	39.72
1002.337	39.52
1002.499	30.81
1002.661	70.14
1002.824	-42.43
1002.986	-9.11
1003.149	17.82
1003.311	-31.58
1003.473	74.59
1003.636	2.13
1003.798	41.46
1003.96	43.01
1004.123	33.13
1004.285	6.2
1004.447	27.9
1004.609	7.94
1004.771	80.79
1004.933	1.55
1005.096	-1.74
1005.258	-20.73
1005.42	-3.68
1005.582	44.56
1005.744	39.14
1005.906	-3.87
1006.068	21.31
1006.23	1.16
1006.392	-24.8
1006.554	12.98
1006.716	60.26
1006.878	29.26
1007.04	-23.83
1007.202	22.86
1007.363	40.69
1007.525	43.4
1007.687	34.68
1007.849	47.47
1008.011	-34.68
1008.172	-1.36
1008.334	19.37
1008.496	33.91
1008.658	-31.58
1008.819	-19.57
1008.981	-13.17
1009.143	9.3
1009.304	9.3
1009.466	29.45
1009.627	62.97
1009.789	93.97
1009.95	7.17
1010.112	8.91
1010.273	23.64
1010.435	3.1
1010.596	24.22
1010.758	12.4
1010.919	24.02
1011.081	19.76
1011.242	-3.87
1011.403	15.89
1011.565	14.72
1011.726	23.83
1011.887	6.97
1012.049	23.44
1012.21	30.03
1012.371	77.89
1012.532	-50.76
1012.693	6.97
1012.855	-3.87
1013.016	16.47
1013.177	38.75
1013.338	8.52
1013.499	50.76
1013.66	36.04
1013.821	43.79
1013.982	6.59
1014.143	25.96
1014.304	-1.74
1014.465	24.99
1014.626	47.66
1014.787	13.76
1014.948	89.7
1015.109	-55.61
1015.27	57.74
1015.431	18.41
1015.592	2.32
1015.752	63.36
1015.913	9.88
1016.074	29.45
1016.235	29.45
1016.395	-3.68
1016.556	13.56
1016.717	6.39
1016.877	46.31
1017.038	-21.7
1017.199	22.28
1017.359	-7.17
1017.52	6.39
1017.681	-2.13
1017.841	-10.85
1018.002	8.91
1018.162	4.07
1018.323	50.96
1018.483	2.91
1018.644	-0.39
1018.804	-30.61
1018.964	-28.87
1019.125	1.94
1019.285	18.6
1019.446	1.36
1019.606	-20.73
1019.766	-49.21
1019.926	31.19
1020.087	26.93
1020.247	-28.67
1020.407	42.82
1020.567	45.14
1020.728	-4.46
1020.888	-12.59
1021.048	-5.04
1021.208	11.04
1021.368	-6.2
1021.528	42.24
1021.688	33.91
1021.848	30.61
1022.008	34.49
1022.168	-5.04
1022.328	13.56
1022.488	32.74
1022.648	1.74
1022.808	11.43
1022.968	39.33
1023.128	-18.21
1023.288	-14.92
1023.448	18.79
1023.608	41.66
1023.767	28.48
1023.927	-13.76
1024.087	-14.92
1024.247	-25.57
1024.406	-3.29
1024.566	-20.15
1024.726	-12.98
1024.885	20.54
1025.045	40.11
1025.205	-11.82
1025.364	-1.74
1025.524	-3.29
1025.683	1.94
1025.843	-6.78
1026.003	-0.77
1026.162	43.79
1026.321	36.42
1026.481	17.63
1026.64	19.37
1026.8	17.24
1026.959	2.91
1027.119	13.95
1027.278	6.78
1027.437	-23.06
1027.597	7.94
1027.756	-0.77
1027.915	4.07
1028.074	22.09
1028.234	-29.45
1028.393	6.97
1028.552	28.67
1028.711	-51.34
1028.87	45.34
1029.03	-22.67
1029.189	-5.42
1029.348	-68.78
1029.507	-11.62
1029.666	-17.24
1029.825	-30.22
1029.984	-22.09
1030.143	-26.16
1030.302	8.52
1030.461	-36.23
1030.62	-4.84
1030.779	28.09
1030.938	-27.32
1031.097	-31.77
1031.255	44.95
1031.414	58.71
1031.573	56.19
1031.732	-53.67
1031.891	-8.91
1032.049	30.03
1032.208	22.86
1032.367	-12.59
1032.525	-8.91
1032.684	-19.37
1032.843	0.77
1033.001	-40.69
1033.16	115.47
1033.319	30.22
1033.477	37.01
1033.636	-37.78
1033.794	-35.84
1033.953	19.37
1034.111	7.56
1034.27	-9.3
1034.428	28.09
1034.587	-25.96
1034.745	7.36
1034.903	9.49
1035.062	26.93
1035.22	-57.35
1035.378	33.32
1035.537	-30.61
1035.695	34.1
1035.853	2.71
1036.011	27.12
1036.17	33.13
1036.328	-49.21
1036.486	-0.58
1036.644	29.26
1036.802	-73.04
1036.96	-24.02
1037.119	-14.34
1037.277	-9.69
1037.435	-29.84
1037.593	-20.73
1037.751	-7.75
1037.909	28.29
1038.067	28.29
