Data from oakcork_FLMT105791__271__17-34-17-053.txt Node

Date: Mon Mar 20 17:34:17 GMT 2023
User: antho
Spectrometer: FLMT10579
Trigger mode: 0
Integration Time (sec): 1.000000E-1
Scans to average: 10
Electric dark correction enabled: true
Nonlinearity correction enabled: false
Boxcar width: 0
XAxis mode: Wavelengths
Number of Pixels in Spectrum: 3648
>>>>>Begin Spectral Data<<<<<
345.248	-158.91
345.464	-158.91
345.681	-158.91
345.898	-146.7
346.114	-160.07
346.331	-36.65
346.548	28.64
346.764	-14.76
346.981	1.13
347.197	-2.55
347.414	13.53
347.631	-23.48
347.847	52.67
348.064	-0.23
348.28	10.62
348.497	-44.79
348.713	15.85
348.93	23.99
349.146	10.04
349.363	9.46
349.579	-4.68
349.796	-9.91
350.012	-27.16
350.229	29.03
350.445	1.71
350.661	-20.96
350.878	0.36
351.094	15.66
351.311	18.37
351.527	4.62
351.743	-22.7
351.96	38.14
352.176	40.65
352.392	19.92
352.609	19.15
352.825	-30.84
353.041	3.46
353.257	0.55
353.474	4.81
353.69	-1
353.906	10.24
354.122	10.62
354.339	38.33
354.555	3.26
354.771	-1.78
354.987	38.33
355.203	64.29
355.42	14.69
355.636	-4.29
355.852	-10.49
356.068	2.1
356.284	-51.57
356.5	55.38
356.716	6.56
356.932	18.57
357.148	23.22
357.364	-17.86
357.58	26.9
357.796	63.32
358.012	49.57
358.228	16.24
358.444	-59.9
358.66	56.15
358.876	17.02
359.092	-26.58
359.308	16.63
359.524	13.53
359.74	2.68
359.956	-11.08
360.172	4.04
360.388	23.6
360.604	-3.91
360.819	89.29
361.035	21.67
361.251	18.18
361.467	-9.53
361.683	41.43
361.898	49.95
362.114	16.24
362.33	24.57
362.546	42.79
362.762	13.92
362.977	4.42
363.193	-15.92
363.409	39.1
363.624	-29.09
363.84	-31.03
364.056	-19.02
364.271	11.59
364.487	30
364.703	7.14
364.918	4.81
365.134	11.59
365.35	-14.95
365.565	119.7
365.781	-8.56
365.996	20.12
366.212	47.24
366.427	48.79
366.643	-2.74
366.858	6.75
367.074	-25.8
367.289	28.06
367.505	95.29
367.72	-27.93
367.936	2.1
368.151	28.25
368.367	14.11
368.582	-4.29
368.798	5.01
369.013	51.12
369.228	23.41
369.444	10.62
369.659	53.64
369.874	40.46
370.09	71.27
370.305	-53.7
370.52	-3.52
370.736	36.2
370.951	16.63
371.166	65.07
371.381	61.19
371.597	28.45
371.812	-21.93
372.027	-22.7
372.242	7.52
372.458	82.31
372.673	-15.92
372.888	15.85
373.103	48.99
373.318	92.77
373.533	25.54
373.749	40.85
373.964	-24.25
374.179	66.81
374.394	-8.75
374.609	32.52
374.824	-1.78
375.039	48.79
375.254	2.49
375.469	67.97
375.684	23.8
375.899	39.1
376.114	48.21
376.329	31.55
376.544	39.3
376.759	31.94
376.974	17.79
377.189	15.08
377.404	-17.66
377.619	45.89
377.834	-8.94
378.049	-28.51
378.264	-2.36
378.478	26.7
378.693	-3.52
378.908	36.2
379.123	12.37
379.338	52.86
379.553	26.32
379.767	23.02
379.982	29.61
380.197	43.75
380.412	10.24
380.626	25.35
380.841	91.03
381.056	30.97
381.271	70.3
381.485	6.17
381.7	-18.44
381.915	41.62
382.129	4.23
382.344	25.74
382.559	3.84
382.773	49.95
382.988	-30.84
383.202	30.58
383.417	-13.79
383.632	112.15
383.846	3.46
384.061	39.3
384.275	22.64
384.49	40.46
384.704	51.89
384.919	29.42
385.133	11.21
385.348	44.53
385.562	-13.59
385.777	54.8
385.991	-4.68
386.206	-9.33
386.42	4.81
386.634	49.95
386.849	27.09
387.063	18.57
387.277	-18.05
387.492	15.08
387.706	-4.68
387.92	-1.19
388.135	81.54
388.349	32.13
388.563	28.25
388.778	34.07
388.992	49.57
389.206	33.1
389.42	92
389.635	11.4
389.849	26.51
390.063	73.59
390.277	42.2
390.491	81.54
390.706	24.38
390.92	56.93
391.134	17.02
391.348	61.19
391.562	12.37
391.776	2.1
391.99	-8.75
392.205	50.73
392.419	-6.23
392.633	37.75
392.847	64.87
393.061	29.42
393.275	91.42
393.489	32.32
393.703	41.82
393.917	64.87
394.131	5.59
394.345	62.55
394.559	69.33
394.773	10.62
394.986	22.25
395.2	39.88
395.414	61.19
395.628	8.11
395.842	60.22
396.056	18.18
396.27	-22.12
396.484	62.55
396.697	40.46
396.911	75.92
397.125	56.35
397.339	76.3
397.553	47.44
397.766	86.38
397.98	69.52
398.194	61.58
398.408	35.62
398.621	49.76
398.835	60.42
399.049	54.02
399.262	80.76
399.476	69.33
399.69	46.47
399.903	99.55
400.117	43.95
400.331	45.11
400.544	26.9
400.758	134.04
400.971	74.75
401.185	85.99
401.398	15.66
401.612	88.32
401.826	63.13
402.039	43.17
402.253	14.89
402.466	81.92
402.68	46.66
402.893	73.01
403.106	77.08
403.32	67.78
403.533	74.37
403.747	40.07
403.96	76.3
404.174	48.79
404.387	21.09
404.6	55.96
404.814	78.44
405.027	71.85
405.24	27.67
405.454	59.84
405.667	70.3
405.88	-8.75
406.094	45.11
406.307	92.58
406.52	73.59
406.733	10.82
406.947	26.9
407.16	120.28
407.373	95.68
407.586	33.68
407.799	23.02
408.012	88.51
408.226	73.01
408.439	107.88
408.652	23.22
408.865	57.7
409.078	79.02
409.291	64.1
409.504	26.12
409.717	81.34
409.93	65.84
410.143	54.22
410.357	-1.19
410.57	26.7
410.783	58.87
410.996	86.96
411.209	52.09
411.421	91.61
411.634	51.31
411.847	29.22
412.06	61.19
412.273	55.57
412.486	73.59
412.699	125.32
412.912	78.82
413.125	87.15
413.338	41.24
413.55	85.8
413.763	51.31
413.976	87.35
414.189	45.11
414.402	58.48
414.615	102.46
414.827	48.99
415.04	89.09
415.253	79.79
415.466	85.99
415.678	93.94
415.891	75.34
416.104	69.91
416.316	37.17
416.529	61.97
416.742	87.35
416.954	97.23
417.167	63.71
417.38	54.02
417.592	89.87
417.805	53.44
418.017	20.12
418.23	95.29
418.442	11.4
418.655	49.18
418.868	93.74
419.08	90.06
419.293	85.6
419.505	72.04
419.718	86.77
419.93	109.05
420.142	61.77
420.355	92.77
420.567	110.6
420.78	93.94
420.992	61.77
421.205	134.62
421.417	58.09
421.629	59.25
421.842	18.37
422.054	25.54
422.266	100.72
422.479	89.67
422.691	68.36
422.903	91.8
423.115	46.66
423.328	65.84
423.54	70.49
423.752	70.1
423.964	53.83
424.177	63.9
424.389	72.24
424.601	165.62
424.813	87.35
425.025	81.54
425.238	105.37
425.45	41.43
425.662	69.72
425.874	335.15
426.086	85.41
426.298	104.01
426.51	115.44
426.722	86.38
426.934	55.38
427.146	96.45
427.358	28.45
427.57	81.34
427.782	94.52
427.994	75.72
428.206	45.3
428.418	45.11
428.63	94.9
428.842	119.32
429.054	60.22
429.266	112.92
429.478	72.24
429.69	57.7
429.902	48.99
430.114	124.93
430.325	97.81
430.537	41.82
430.749	83.09
430.961	38.91
431.173	63.52
431.384	95.87
431.596	-5.26
431.808	62.74
432.02	98.59
432.231	73.59
432.443	104.2
432.655	78.24
432.867	66.62
433.078	100.14
433.29	143.15
433.502	120.48
433.713	98.39
433.925	67.59
434.136	113.7
434.348	73.4
434.56	21.67
434.771	192.16
434.983	49.37
435.194	60.22
435.406	73.59
435.617	122.42
435.829	154.58
436.04	121.25
436.252	134.82
436.463	137.14
436.675	119.32
436.886	83.86
437.098	114.67
437.309	129.97
437.521	112.34
437.732	108.27
437.943	112.92
438.155	98
438.366	47.05
438.578	148.77
438.789	100.91
439	112.92
439.211	107.5
439.423	101.3
439.634	111.18
439.845	114.86
440.057	91.42
440.268	131.52
440.479	83.86
440.69	108.85
440.902	96.45
441.113	85.6
441.324	92.19
441.535	144.7
441.746	149.93
441.957	88.12
442.168	74.95
442.38	123
442.591	130.55
442.802	81.73
443.013	93.35
443.224	101.69
443.435	84.64
443.646	92.97
443.857	124.93
444.068	71.27
444.279	68.75
444.49	162.72
444.701	97.42
444.912	193.13
445.123	115.83
445.334	144.12
445.545	105.56
445.756	90.84
445.967	84.83
446.178	121.06
446.388	122.8
446.599	126.87
446.81	122.42
447.021	113.31
447.232	156.32
447.443	160.97
447.653	74.56
447.864	165.23
448.075	122.61
448.286	175.89
448.496	118.93
448.707	156.71
448.918	95.87
449.129	191.58
449.339	90.45
449.55	163.49
449.761	107.3
449.971	145.47
450.182	106.53
450.393	149.35
450.603	121.25
450.814	147.22
451.024	124.93
451.235	152.83
451.446	167.95
451.656	156.32
451.867	99.17
452.077	140.05
452.288	189.84
452.498	171.63
452.709	138.3
452.919	154.77
453.13	114.47
453.34	157.68
453.55	84.25
453.761	145.08
453.971	151.48
454.182	161.75
454.392	155.93
454.602	173.95
454.813	161.94
455.023	161.36
455.233	112.53
455.444	142.95
455.654	71.27
455.864	142.76
456.075	137.72
456.285	118.93
456.495	128.81
456.705	153.8
456.916	164.85
457.126	170.85
457.336	156.71
457.546	81.54
457.756	116.8
457.967	175.12
458.177	137.53
458.387	137.92
458.597	103.04
458.807	123.58
459.017	117.77
459.227	132.1
459.437	140.05
459.647	165.43
459.857	158.65
460.068	120.87
460.278	181.12
460.488	153.03
460.698	217.16
460.908	149.93
461.117	108.47
461.327	110.21
461.537	145.86
461.747	148.18
461.957	159.42
462.167	241.38
462.377	185.77
462.587	157.48
462.797	176.08
463.007	162.13
463.216	175.89
463.426	195.26
463.636	175.89
463.846	107.3
464.056	119.12
464.265	187.9
464.475	119.12
464.685	152.45
464.895	164.46
465.104	126.48
465.314	193.52
465.524	152.83
465.733	133.65
465.943	210.76
466.153	215.61
466.362	181.9
466.572	201.85
466.782	164.07
466.991	170.85
467.201	216.19
467.41	121.45
467.62	170.08
467.829	160.2
468.039	197.4
468.249	134.23
468.458	156.52
468.668	199.33
468.877	180.15
469.086	217.16
469.296	220.45
469.505	131.91
469.715	228.98
469.924	199.53
470.134	218.51
470.343	212.9
470.552	179.57
470.762	181.7
470.971	141.21
471.18	170.08
471.39	177.83
471.599	174.53
471.808	197.98
472.018	137.92
472.227	211.54
472.436	195.85
472.645	182.48
472.855	169.5
473.064	178.02
473.273	186.74
473.482	213.67
473.691	218.32
473.901	219.48
474.11	181.9
474.319	257.46
474.528	178.22
474.737	243.12
474.946	239.25
475.155	207.47
475.364	218.51
475.573	195.65
475.783	211.35
475.992	221.23
476.201	222.78
476.41	187.52
476.619	185.97
476.828	222.2
477.037	161.75
477.245	213.86
477.454	247.77
477.663	187.9
477.872	192.16
478.081	239.44
478.29	170.08
478.499	288.07
478.708	194.49
478.917	255.71
479.125	231.11
479.334	217.35
479.543	219.68
479.752	231.88
479.961	229.17
480.169	254.75
480.378	220.84
480.587	323.53
480.796	250.29
481.004	232.27
481.213	234.4
481.422	263.27
481.63	214.45
481.839	266.18
482.048	277.8
482.256	252.03
482.465	252.23
482.674	258.23
482.882	263.08
483.091	301.24
483.299	289.04
483.508	266.95
483.716	260.36
483.925	260.36
484.134	234.01
484.342	216.58
484.551	280.32
484.759	295.82
484.967	288.46
485.176	290.39
485.384	259.4
485.593	298.14
485.801	269.28
486.01	258.62
486.218	268.11
486.426	217.35
486.635	272.96
486.843	260.36
487.051	259.98
487.26	245.83
487.468	277.61
487.676	295.43
487.885	235.76
488.093	300.66
488.301	262.5
488.509	282.84
488.717	307.64
488.926	267.34
489.134	262.11
489.342	279.16
489.55	236.92
489.758	299.5
489.967	284.39
490.175	359.95
490.383	282.26
490.591	306.86
490.799	246.61
491.007	325.85
491.215	299.11
491.423	283.23
491.631	274.7
491.839	281.68
492.047	345.42
492.255	278.38
492.463	252.61
492.671	315.19
492.879	312.29
493.087	304.34
493.295	304.15
493.503	315.97
493.711	317.13
493.919	339.99
494.127	338.83
494.334	355.49
494.542	274.51
494.75	307.06
494.958	315.58
495.166	345.61
495.374	312.48
495.581	303.57
495.789	320.81
495.997	396.57
496.205	304.93
496.412	289.81
496.62	306.28
496.828	336.51
497.035	339.03
497.243	344.06
497.451	327.59
497.658	339.99
497.866	314.03
498.074	366.73
498.281	306.86
498.489	399.28
498.696	332.83
498.904	289.81
499.112	317.33
499.319	393.27
499.527	315.39
499.734	365.57
499.942	314.23
500.149	329.34
500.357	316.94
500.564	308.41
500.771	335.73
500.979	300.28
501.186	339.41
501.394	335.73
501.601	334.76
501.808	388.43
502.016	343.29
502.223	351.23
502.43	344.64
502.638	331.28
502.845	311.32
503.052	359.56
503.26	293.11
503.467	377
503.674	321.39
503.881	350.65
504.089	418.46
504.296	365.18
504.503	293.3
504.71	325.46
504.917	307.83
505.125	352.98
505.332	353.17
505.539	368.47
505.746	414.59
505.953	371.96
506.16	374.67
506.367	403.16
506.574	396.96
506.781	413.62
506.988	328.95
507.195	386.3
507.402	371.19
507.609	421.37
507.816	353.17
508.023	388.43
508.23	350.07
508.437	336.89
508.644	390.17
508.851	420.79
509.058	416.52
509.265	383.97
509.472	390.56
509.679	462.25
509.885	357.04
510.092	369.06
510.299	371.57
510.506	373.32
510.713	379.32
510.92	410.13
511.126	424.47
511.333	434.16
511.54	414.39
511.746	416.72
511.953	430.67
512.16	432.61
512.367	407.03
512.573	386.88
512.78	383.59
512.987	391.34
513.193	431.83
513.4	353.56
513.606	415.17
513.813	395.99
514.02	411.1
514.226	469.22
514.433	464.38
514.639	379.52
514.846	428.54
515.052	410.71
515.259	412.07
515.465	420.98
515.672	405.29
515.878	498.87
516.085	401.02
516.291	449.07
516.497	401.02
516.704	426.99
516.91	383.97
517.117	362.28
517.323	334.96
517.529	396.57
517.736	403.35
517.942	413.62
518.148	364.79
518.354	420.98
518.561	416.33
518.767	407.03
518.973	412.46
519.179	448.88
519.386	399.09
519.592	394.63
519.798	408.39
520.004	455.08
520.21	407.61
520.417	464.19
520.623	452.75
520.829	465.35
521.035	488.02
521.241	476.97
521.447	484.72
521.653	546.33
521.859	473.68
522.065	490.73
522.271	566.48
522.477	490.92
522.683	542.46
522.889	501.58
523.095	499.84
523.301	495.96
523.507	481.62
523.713	504.49
523.919	467.87
524.125	526.57
524.331	459.73
524.537	579.47
524.742	526.38
524.948	536.65
525.154	517.27
525.36	626.16
525.566	525.22
525.772	565.13
525.977	504.49
526.183	547.3
526.389	584.12
526.595	487.63
526.8	522.31
527.006	493.44
527.212	470.58
527.417	487.24
527.623	476.97
527.829	540.13
528.034	528.32
528.24	497.51
528.446	492.67
528.651	582.37
528.857	541.88
529.062	599.42
529.268	538
529.473	572.1
529.679	543.04
529.884	589.54
530.09	598.84
530.295	625.97
530.501	589.73
530.706	527.74
530.912	580.05
531.117	583.34
531.323	568.23
531.528	592.83
531.733	603.3
531.939	568.23
532.144	594.19
532.35	578.69
532.555	622.67
532.76	627.32
532.966	625.97
533.171	598.45
533.376	606.59
533.581	546.53
533.787	592.25
533.992	618.8
534.197	632.55
534.402	584.31
534.607	593.22
534.813	692.03
535.018	601.94
535.223	615.5
535.428	593.8
535.633	637.2
535.838	619.38
536.043	626.16
536.249	687.58
536.454	613.37
536.659	649.21
536.864	627.51
537.069	605.82
537.274	650.76
537.479	634.68
537.684	662.78
537.889	613.18
538.094	719.93
538.299	611.82
538.504	662.78
538.708	626.55
538.913	646.5
539.118	645.15
539.323	668.59
539.528	636.43
539.733	667.04
539.938	657.74
540.142	649.41
540.347	629.26
540.552	636.43
540.757	659.48
540.962	621.7
541.166	587.22
541.371	587.41
541.576	637.2
541.781	576.56
541.985	609.3
542.19	616.86
542.395	694.36
542.599	726.52
542.804	666.65
543.008	713.73
543.213	623.06
543.418	641.85
543.622	651.93
543.827	612.4
544.031	704.05
544.236	723.23
544.44	661.81
544.645	750.35
544.849	648.83
545.054	684.28
545.258	733.49
545.463	714.7
545.667	659.1
545.872	676.53
546.076	664.13
546.281	710.44
546.485	653.09
546.689	673.63
546.894	708.31
547.098	662.78
547.302	640.69
547.507	657.16
547.711	677.7
547.915	731.56
548.119	660.45
548.324	668.98
548.528	732.14
548.732	684.28
548.936	722.45
549.141	725.55
549.345	658.71
549.549	692.42
549.753	662.39
549.957	769.14
550.161	728.07
550.366	669.56
550.57	643.01
550.774	660.06
550.978	691.06
551.182	699.59
551.386	677.11
551.59	682.73
551.794	677.7
551.998	701.72
552.202	692.61
552.406	675.95
552.61	691.06
552.814	661.23
553.018	727.49
553.222	702.3
553.426	681.57
553.63	780.38
553.833	703.27
554.037	659.29
554.241	693.97
554.445	689.71
554.649	662.2
554.853	659.29
555.056	722.45
555.26	712.76
555.464	686.03
555.668	690.87
555.871	718.38
556.075	732.14
556.279	691.45
556.483	634.49
556.686	674.79
556.89	686.8
557.094	687.19
557.297	654.06
557.501	723.03
557.704	624.61
557.908	687.96
558.112	653.86
558.315	702.69
558.519	670.91
558.722	682.73
558.926	633.52
559.129	599.23
559.333	630.61
559.536	629.84
559.74	641.46
559.943	645.53
560.147	624.8
560.35	629.06
560.553	623.06
560.757	555.05
560.96	687.96
561.164	615.7
561.367	693.58
561.57	657.16
561.774	679.83
561.977	649.99
562.18	609.69
562.384	711.99
562.587	651.54
562.79	612.4
562.993	630.03
563.197	648.05
563.4	699.59
563.603	649.41
563.806	689.13
564.009	618.22
564.212	653.67
564.416	610.85
564.619	657.16
564.822	633.13
565.025	652.51
565.228	598.65
565.431	644.37
565.634	562.22
565.837	602.33
566.04	595.35
566.243	617.83
566.446	515.53
566.649	631.78
566.852	568.81
567.055	569.97
567.258	637.01
567.461	649.99
567.664	672.66
567.867	510.3
568.07	613.37
568.273	599.03
568.475	619.96
568.678	590.9
568.881	572.68
569.084	627.51
569.287	529.29
569.489	560.48
569.692	579.66
569.895	569.58
570.098	539.36
570.3	531.42
570.503	486.47
570.706	546.53
570.909	523.86
571.111	509.91
571.314	513.59
571.516	495.77
571.719	562.8
571.922	522.5
572.124	504.49
572.327	553.7
572.529	485.69
572.732	518.82
572.935	566.48
573.137	572.3
573.34	514.95
573.542	567.07
573.745	549.05
573.947	543.43
574.15	499.25
574.352	506.04
574.554	559.7
574.757	489.95
574.959	490.73
575.162	465.15
575.364	484.14
575.566	571.72
575.769	490.54
575.971	512.82
576.173	430.67
576.376	524.25
576.578	521.73
576.78	566.68
576.982	443.65
577.185	467.67
577.387	454.11
577.589	474.07
577.791	523.09
577.993	493.05
578.196	499.06
578.398	503.9
578.6	501
578.802	446.75
579.004	473.1
579.206	483.17
579.408	490.34
579.61	433.57
579.812	492.47
580.014	457.99
580.216	450.82
580.418	444.42
580.62	450.62
580.822	428.15
581.024	458.76
581.226	499.45
581.428	471.94
581.63	535.29
581.832	414.01
582.034	515.92
582.236	478.14
582.438	493.44
582.64	514.75
582.841	528.32
583.043	583.73
583.245	518.44
583.447	520.95
583.649	461.09
583.85	498.48
584.052	555.25
584.254	436.67
584.456	536.07
584.657	452.37
584.859	485.89
585.061	461.47
585.262	491.5
585.464	418.46
585.666	507.59
585.867	445.97
586.069	532.58
586.27	507.78
586.472	497.7
586.674	451.21
586.875	447.14
587.077	453.72
587.278	507
587.48	464.96
587.681	548.08
587.883	488.6
588.084	425.24
588.285	448.49
588.487	448.11
588.688	464.19
588.89	425.82
589.091	418.27
589.292	451.79
589.494	414.39
589.695	411.49
589.896	370.8
590.098	360.73
590.299	427.57
590.5	383.78
590.702	408.58
590.903	421.37
591.104	453.34
591.305	452.75
591.507	490.34
591.708	439.39
591.909	418.07
592.11	465.15
592.311	462.05
592.512	432.99
592.714	379.71
592.915	396.57
593.116	403.54
593.317	396.57
593.518	414.2
593.719	393.66
593.92	433.77
594.121	457.02
594.322	419.24
594.523	430.67
594.724	370.99
594.925	425.63
595.126	421.37
595.327	423.5
595.528	444.62
595.729	425.05
595.929	410.32
596.13	425.82
596.331	413.23
596.532	454.5
596.733	466.32
596.934	470.19
597.135	436.87
597.335	477.36
597.536	418.46
597.737	417.88
597.938	386.11
598.138	448.49
598.339	407.61
598.54	413.62
598.74	420.4
598.941	435.51
599.142	485.5
599.342	422.14
599.543	394.05
599.744	405.48
599.944	416.14
600.145	401.61
600.345	411.49
600.546	512.82
600.746	477.17
600.947	475.04
601.147	451.21
601.348	431.64
601.548	405.48
601.749	430.67
601.949	390.37
602.15	408
602.35	407.03
602.551	438.81
602.751	392.69
602.951	396.37
603.152	350.07
603.352	418.46
603.552	396.96
603.753	463.99
603.953	423.89
604.153	417.11
604.354	420.59
604.554	424.86
604.754	414.01
604.954	383.78
605.155	406.84
605.355	386.3
605.555	476.59
605.755	449.66
605.955	424.08
606.155	457.21
606.356	383.01
606.556	442.29
606.756	413.42
606.956	384.75
607.156	454.69
607.356	399.28
607.556	425.05
607.756	415.94
607.956	469.8
608.156	413.42
608.356	401.8
608.556	439
608.756	419.24
608.956	382.23
609.156	422.72
609.356	383.59
609.556	379.91
609.755	411.68
609.955	367.89
610.155	434.93
610.355	438.03
610.555	370.8
610.755	399.09
610.954	346.78
611.154	400.64
611.354	436.09
611.554	386.3
611.753	364.02
611.953	372.35
612.153	413.81
612.352	407.22
612.552	346
612.752	324.49
612.951	367.89
613.151	393.27
613.351	360.92
613.55	383.2
613.75	402.57
613.949	382.81
614.149	415.17
614.348	384.94
614.548	364.6
614.747	327.79
614.947	341.54
615.146	339.22
615.346	416.72
615.545	381.26
615.745	380.29
615.944	398.7
616.144	370.99
616.343	393.08
616.542	350.65
616.742	381.07
616.941	393.27
617.14	317.91
617.34	378.74
617.539	337.86
617.738	338.64
617.938	414.78
618.137	355.3
618.336	345.42
618.535	358.98
618.734	352.01
618.934	376.61
619.133	362.47
619.332	359.95
619.531	329.53
619.73	348.52
619.929	392.31
620.128	391.72
620.328	402.77
620.527	362.47
620.726	359.18
620.925	370.02
621.124	335.15
621.323	366.73
621.522	324.88
621.721	354.91
621.92	308.8
622.119	400.06
622.318	324.3
622.517	368.86
622.715	343.48
622.914	293.69
623.113	344.64
623.312	288.46
623.511	358.79
623.71	343.87
623.909	315.19
624.107	378.55
624.306	307.83
624.505	293.88
624.704	304.15
624.902	294.08
625.101	370.02
625.3	346.19
625.499	313.26
625.697	312.48
625.896	328.76
626.095	353.36
626.293	308.99
626.492	291.36
626.69	349.49
626.889	273.93
627.088	339.03
627.286	275.86
627.485	295.04
627.683	297.18
627.882	350.26
628.08	258.43
628.279	315.78
628.477	401.8
628.676	308.03
628.874	335.93
629.073	273.54
629.271	266.37
629.469	305.89
629.668	331.86
629.866	314.42
630.065	300.08
630.263	341.35
630.461	312.09
630.66	326.63
630.858	331.86
631.056	328.18
631.254	326.43
631.453	292.14
631.651	349.88
631.849	303.18
632.047	331.28
632.245	272.38
632.444	335.34
632.642	329.34
632.84	315.78
633.038	299.89
633.236	267.73
633.434	278.19
633.632	282.26
633.83	267.92
634.028	322.56
634.227	302.21
634.425	356.08
634.623	307.06
634.821	280.51
635.019	305.51
635.216	261.33
635.414	310.16
635.612	338.44
635.81	309.77
636.008	345.61
636.206	293.69
636.404	298.34
636.602	251.84
636.8	306.86
636.997	344.45
637.195	331.66
637.393	324.88
637.591	357.24
637.789	301.05
637.986	278.77
638.184	312.48
638.382	333.79
638.58	348.13
638.777	362.47
638.975	295.63
639.173	310.74
639.37	298.14
639.568	335.15
639.765	311.71
639.963	293.3
640.161	347.55
640.358	342.71
640.556	308.99
640.753	286.91
640.951	269.28
641.148	317.71
641.346	286.33
641.543	283.61
641.741	322.94
641.938	292.14
642.136	281.29
642.333	282.45
642.531	331.86
642.728	376.03
642.925	321.98
643.123	294.85
643.32	325.27
643.517	308.22
643.715	313.84
643.912	277.03
644.109	318.68
644.306	295.43
644.504	267.73
644.701	280.13
644.898	324.49
645.095	265.98
645.293	286.91
645.49	308.99
645.687	310.54
645.884	316.94
646.081	256.68
646.278	279.35
646.475	271.6
646.672	293.11
646.87	317.13
647.067	310.54
647.264	304.93
647.461	249.32
647.658	243.31
647.855	290.78
648.052	263.85
648.249	247
648.446	277.41
648.642	239.25
648.839	253.39
649.036	243.12
649.233	233.63
649.43	210.57
649.627	191.97
649.824	256.1
650.021	250.29
650.217	267.53
650.414	243.31
650.611	283.42
650.808	273.54
651.004	267.73
651.201	278.77
651.398	299.69
651.595	262.5
651.791	233.63
651.988	267.92
652.185	253.97
652.381	272.96
652.578	227.23
652.775	275.28
652.971	261.72
653.168	273.73
653.364	269.47
653.561	188.1
653.757	250.87
653.954	246.8
654.15	241.38
654.347	291.94
654.543	252.61
654.74	212.31
654.936	203.98
655.133	220.26
655.329	250.29
655.525	244.09
655.722	272.57
655.918	211.73
656.115	273.73
656.311	204.18
656.507	222.39
656.704	172.21
656.9	212.31
657.096	196.04
657.292	218.9
657.489	271.6
657.685	241.38
657.881	207.28
658.077	222.39
658.273	233.43
658.47	316.36
658.666	230.91
658.862	263.46
659.058	225.1
659.254	265.79
659.45	215.22
659.646	249.13
659.842	216.77
660.038	258.43
660.234	217.93
660.43	236.15
660.626	288.84
660.822	276.06
661.018	253.39
661.214	247.19
661.41	177.44
661.606	252.03
661.802	252.61
661.998	220.84
662.194	223.94
662.39	244.48
662.586	247.77
662.781	236.15
662.977	265.4
663.173	263.66
663.369	224.91
663.564	254.94
663.76	258.23
663.956	203.79
664.152	290.01
664.347	209.41
664.543	234.6
664.739	221.61
664.934	196.23
665.13	178.6
665.326	235.76
665.521	258.23
665.717	203.21
665.912	210.18
666.108	168.53
666.304	232.08
666.499	224.52
666.695	172.02
666.89	228.78
667.086	247
667.281	261.53
667.477	258.04
667.672	232.85
667.867	224.71
668.063	255.33
668.258	231.11
668.454	234.6
668.649	275.48
668.844	234.21
669.04	238.08
669.235	237.11
669.43	190.81
669.626	194.3
669.821	219.68
670.016	178.02
670.211	187.52
670.407	141.98
670.602	231.11
670.797	210.76
670.992	247.19
671.187	194.3
671.382	223.16
671.578	202.24
671.773	221.42
671.968	210.96
672.163	230.53
672.358	214.25
672.553	196.62
672.748	205.92
672.943	250.29
673.138	201.85
673.333	233.24
673.528	198.36
673.723	216.19
673.918	197.2
674.113	177.83
674.308	263.08
674.503	238.86
674.698	214.83
674.892	224.71
675.087	273.15
675.282	242.35
675.477	219.29
675.672	233.24
675.867	215.41
676.061	196.81
676.256	172.21
676.451	176.28
676.646	244.67
676.84	170.85
677.035	183.45
677.23	162.33
677.424	221.42
677.619	246.61
677.814	234.4
678.008	245.25
678.203	181.32
678.397	194.1
678.592	200.69
678.787	247.38
678.981	186.16
679.176	225.49
679.37	200.88
679.565	178.22
679.759	207.28
679.954	227.43
680.148	267.53
680.342	208.44
680.537	227.62
680.731	204.18
680.926	239.25
681.12	241.57
681.314	214.45
681.509	178.02
681.703	213.28
681.897	228.2
682.092	189.07
682.286	177.63
682.48	257.85
682.674	228.98
682.869	179.77
683.063	216.38
683.257	276.45
683.451	208.44
683.645	227.04
683.839	194.68
684.034	196.43
684.228	225.68
684.422	183.45
684.616	203.01
684.81	252.42
685.004	191.2
685.198	198.56
685.392	236.73
685.586	174.92
685.78	218.13
685.974	221.23
686.168	226.85
686.362	246.22
686.556	200.3
686.75	169.88
686.944	176.67
687.138	203.98
687.331	145.28
687.525	178.8
687.719	138.69
687.913	194.3
688.107	172.4
688.301	146.05
688.494	187.32
688.688	163.49
688.882	119.32
689.076	152.25
689.269	187.9
689.463	224.52
689.657	163.3
689.85	162.33
690.044	178.02
690.238	157.68
690.431	151.48
690.625	158.65
690.818	191.78
691.012	152.64
691.205	191.58
691.399	122.61
691.593	172.21
691.786	225.3
691.98	223.36
692.173	242.35
692.366	222.97
692.56	203.4
692.753	253.78
692.947	184.42
693.14	255.33
693.333	243.9
693.527	170.08
693.72	237.7
693.914	214.83
694.107	193.71
694.3	245.64
694.493	226.85
694.687	227.04
694.88	204.56
695.073	266.56
695.266	241.38
695.46	249.51
695.653	287.29
695.846	236.53
696.039	178.22
696.232	229.75
696.425	271.6
696.618	260.36
696.812	239.25
697.005	322.94
697.198	362.08
697.391	297.56
697.584	311.32
697.777	344.84
697.97	326.82
698.163	316.55
698.356	290.59
698.549	357.04
698.742	360.73
698.935	302.21
699.127	332.44
699.32	290.78
699.513	286.33
699.706	335.54
699.899	331.08
700.092	302.79
700.285	351.81
700.477	295.43
700.67	363.24
700.863	348.71
701.056	433.38
701.248	389.98
701.441	419.43
701.634	370.22
701.826	455.27
702.019	344.64
702.212	390.37
702.404	349.29
702.597	338.64
702.79	373.12
702.982	386.69
703.175	409.94
703.367	428.34
703.56	409.36
703.752	503.32
703.945	449.85
704.137	447.52
704.33	465.93
704.522	457.6
704.715	459.54
704.907	482.79
705.1	476.2
705.292	494.8
705.484	448.69
705.677	490.73
705.869	487.05
706.061	510.88
706.254	552.92
706.446	489.37
706.638	496.54
706.831	573.27
707.023	541.88
707.215	584.5
707.407	578.5
707.599	568.23
707.792	603.49
707.984	548.27
708.176	627.9
708.368	533.35
708.56	585.67
708.752	590.12
708.944	579.27
709.136	644.56
709.329	621.9
709.521	691.65
709.713	633.91
709.905	618.22
710.097	684.28
710.289	625.58
710.481	655.03
710.672	673.05
710.864	643.98
711.056	708.5
711.248	686.8
711.44	693.58
711.632	686.03
711.824	724.97
712.016	772.63
712.207	742.41
712.399	705.21
712.591	792.01
712.783	735.63
712.975	788.33
713.166	723.61
713.358	742.02
713.55	824.94
713.741	795.88
713.933	795.3
714.125	786
714.316	791.62
714.508	834.82
714.7	858.27
714.891	824.94
715.083	898.76
715.274	816.42
715.466	823.59
715.657	874.93
715.849	773.41
716.04	838.31
716.232	802.47
716.423	849.55
716.615	836.96
716.806	796.27
716.998	788.71
717.189	768.18
717.381	710.44
717.572	725.55
717.763	753.84
717.955	764.3
718.146	729.81
718.337	713.15
718.528	673.82
718.72	633.91
718.911	724.39
719.102	680.41
719.293	693.97
719.485	697.07
719.676	685.25
719.867	677.89
720.058	646.7
720.249	663.36
720.44	728.07
720.632	708.11
720.823	752.68
721.014	821.84
721.205	781.54
721.396	836.37
721.587	897.6
721.778	914.45
721.969	941.97
722.16	962.5
722.351	951.27
722.542	1029.93
722.733	1028.96
722.924	965.8
723.115	1003.58
723.305	1029.15
723.496	1004.35
723.687	925.5
723.878	986.72
724.069	984.4
724.26	978.39
724.45	935.96
724.641	931.7
724.832	959.99
725.023	970.84
725.213	965.6
725.404	931.7
725.595	961.73
725.785	927.05
725.976	983.82
726.167	978.97
726.357	986.72
726.548	1076.81
726.739	1009.78
726.929	1043.3
727.12	1068.87
727.31	1065.96
727.501	1027.41
727.691	1040.97
727.882	1068.48
728.072	1062.28
728.263	1080.5
728.453	1125.45
728.644	1086.5
728.834	1104.71
729.024	1079.33
729.215	1082.24
729.405	1106.46
729.596	1165.94
729.786	1177.76
729.976	1183.96
730.167	1175.04
730.357	1150.25
730.547	1166.71
730.737	1207.79
730.928	1233.94
731.118	1244.6
731.308	1214.18
731.498	1239.95
731.688	1303.89
731.879	1296.52
732.069	1314.54
732.259	1313.57
732.449	1332.56
732.639	1376.35
732.829	1377.7
733.019	1389.33
733.209	1442.22
733.399	1424.01
733.589	1519.53
733.779	1502.48
733.969	1474.97
734.159	1545.68
734.349	1591.6
734.539	1589.47
734.729	1542
734.919	1648.56
735.109	1635.97
735.299	1568.55
735.488	1590.83
735.678	1615.63
735.868	1610.01
736.058	1604.78
736.248	1629.58
736.437	1582.11
736.627	1556.53
736.817	1681.89
737.007	1658.64
737.196	1695.45
737.386	1656.51
737.576	1654.38
737.765	1690.99
737.955	1647.4
738.144	1774.11
738.334	1732.65
738.524	1684.41
738.713	1710.17
738.903	1734.59
739.092	1768.1
739.282	1717.73
739.471	1759.39
739.661	1756.09
739.85	1776.05
740.04	1758.42
740.229	1782.05
740.419	1803.75
740.608	1834.37
740.797	1832.62
740.987	1868.47
741.176	1858.58
741.365	1811.31
741.555	1827.59
741.744	1869.63
741.933	1812.47
742.123	1834.95
742.312	1859.55
742.501	1919.81
742.69	1937.63
742.88	1844.05
743.069	1926.59
743.258	1894.04
743.447	1937.63
743.636	1918.07
743.825	1888.62
744.014	1907.8
744.204	1937.63
744.393	1883.19
744.582	1917.87
744.771	2018.04
744.96	1935.7
745.149	1973.48
745.338	1903.15
745.527	1956.04
745.716	1936.08
745.905	1955.46
746.094	1975.41
746.283	1969.21
746.471	1975.8
746.66	2023.46
746.849	1987.43
747.038	2053.69
747.227	1958.56
747.416	1996.53
747.604	1997.31
747.793	1971.15
747.982	2002.54
748.171	1978.51
748.359	2023.66
748.548	1989.36
748.737	2023.08
748.926	1988.78
749.114	1970.57
749.303	1998.86
749.491	1978.71
749.68	1955.46
749.869	2023.27
750.057	2023.08
750.246	1970.76
750.434	1946.93
750.623	1958.95
750.811	1961.08
751	2004.86
751.188	1978.13
751.377	1990.33
751.565	1944.22
751.754	1951.97
751.942	1915.55
752.131	2021.33
752.319	1961.27
752.507	1937.25
752.696	2018.04
752.884	2016.88
753.072	1948.68
753.261	2000.02
753.449	1963.21
753.637	1942.86
753.825	2040.51
754.014	1973.86
754.202	1948.1
754.39	2007
754.578	1993.24
754.766	1986.46
754.955	1955.26
755.143	2034.51
755.331	1964.76
755.519	1968.63
755.707	1950.42
755.895	1918.26
756.083	1955.65
756.271	1928.14
756.459	1912.64
756.647	1984.33
756.835	1945
757.023	1924.46
757.211	1905.47
757.399	1922.91
757.587	1924.85
757.775	1870.4
757.963	1917.48
758.151	1935.7
758.339	1884.16
758.526	1903.15
758.714	1903.73
758.902	1809.57
759.09	1789.61
759.278	1660.96
759.465	1540.65
759.653	1316.87
759.841	1205.08
760.028	1003.58
760.216	891.4
760.404	882.49
760.591	675.18
760.779	566.87
760.967	517.47
761.154	411.29
761.342	467.48
761.529	444.04
761.717	475.81
761.905	452.37
762.092	485.11
762.28	439
762.467	463.6
762.655	389.4
762.842	415.56
763.029	429.51
763.217	411.87
763.404	436.48
763.592	452.56
763.779	392.11
763.966	450.43
764.154	508.75
764.341	556.02
764.528	535.29
764.716	555.83
764.903	574.82
765.09	602.91
765.277	662.97
765.465	777.48
765.652	754.61
765.839	823.97
766.026	888.11
766.213	924.53
766.4	983.82
766.588	1114.79
766.775	1102.39
766.962	1174.66
767.149	1167.1
767.336	1299.62
767.523	1256.61
767.71	1374.6
767.897	1401.54
768.084	1462.76
768.271	1462.76
768.458	1523.21
768.645	1556.15
768.832	1516.43
769.019	1521.08
769.206	1560.99
769.392	1648.18
769.579	1709.21
769.766	1628.8
769.953	1618.34
770.14	1676.46
770.327	1632.29
770.513	1707.46
770.7	1748.34
770.887	1651.47
771.073	1719.47
771.26	1691.77
771.447	1688.67
771.634	1710.56
771.82	1792.71
772.007	1690.22
772.193	1710.76
772.38	1710.56
772.567	1721.99
772.753	1709.59
772.94	1779.92
773.126	1742.72
773.313	1729.94
773.499	1783.22
773.686	1734.59
773.872	1725.87
774.059	1707.66
774.245	1699.71
774.432	1699.91
774.618	1637.13
774.804	1717.92
774.991	1638.88
775.177	1718.89
775.363	1694.87
775.55	1749.12
775.736	1652.63
775.922	1666.78
776.109	1693.32
776.295	1710.95
776.481	1692.93
776.667	1735.56
776.853	1687.51
777.04	1696.03
777.226	1686.54
777.412	1720.64
777.598	1653.21
777.784	1659.61
777.97	1630.74
778.156	1667.36
778.342	1635.58
778.528	1647.59
778.715	1599.16
778.901	1615.43
779.087	1645.08
779.272	1607.68
779.458	1647.01
779.644	1667.94
779.83	1585.98
780.016	1681.89
780.202	1634.81
780.388	1590.44
780.574	1584.63
780.76	1620.08
780.946	1596.64
781.131	1620.47
781.317	1606.71
781.503	1574.16
781.689	1585.01
781.874	1680.72
782.06	1585.98
782.246	1588.5
782.432	1574.36
782.617	1577.65
782.803	1661.93
782.989	1530.18
783.174	1568.74
783.36	1528.25
783.545	1562.15
783.731	1561.18
783.916	1489.11
784.102	1587.15
784.288	1522.24
784.473	1563.31
784.659	1529.8
784.844	1585.21
785.029	1505.38
785.215	1511
785.4	1465.67
785.586	1587.15
785.771	1497.83
785.956	1535.22
786.142	1484.27
786.327	1503.45
786.512	1489.69
786.698	1461.79
786.883	1459.08
787.068	1482.52
787.254	1475.16
787.439	1469.35
787.624	1465.28
787.809	1461.4
787.994	1451.52
788.18	1473.03
788.365	1411.03
788.55	1423.43
788.735	1418.58
788.92	1443.97
789.105	1404.05
789.29	1469.54
789.475	1383.9
789.66	1423.23
789.845	1396.5
790.03	1400.18
790.215	1439.32
790.4	1433.89
790.585	1430.79
790.77	1385.65
790.955	1319.19
791.14	1413.35
791.325	1439.32
791.51	1327.72
791.695	1372.67
791.879	1368.4
792.064	1324.42
792.249	1425.56
792.434	1392.24
792.618	1373.05
792.803	1366.08
792.988	1356.59
793.173	1356.97
793.357	1379.25
793.542	1347.29
793.727	1380.03
793.911	1394.75
794.096	1362.4
794.281	1388.55
794.465	1433.12
794.65	1343.02
794.834	1393.59
795.019	1425.95
795.203	1430.21
795.388	1390.1
795.572	1446.48
795.757	1393.01
795.941	1427.5
796.126	1368.79
796.31	1336.63
796.494	1402.12
796.679	1373.05
796.863	1359.49
797.048	1416.26
797.232	1399.79
797.416	1396.89
797.601	1368.99
797.785	1457.14
797.969	1416.26
798.153	1353.1
798.338	1420.91
798.522	1408.51
798.706	1430.6
798.89	1454.23
799.074	1483.88
799.258	1460.05
799.443	1391.46
799.627	1379.45
799.811	1444.93
799.995	1421.88
800.179	1377.7
800.363	1372.67
800.547	1406.77
800.731	1418.97
800.915	1335.66
801.099	1354.84
801.283	1405.02
801.467	1416.45
801.651	1380.22
801.835	1445.71
802.019	1400.76
802.202	1406.19
802.386	1337.79
802.57	1350.77
802.754	1363.95
802.938	1372.86
803.121	1370.73
803.305	1420.52
803.489	1383.32
803.673	1394.75
803.856	1383.71
804.04	1359.1
804.224	1395.53
804.407	1359.49
804.591	1363.56
804.775	1409.87
804.958	1382.35
805.142	1506.55
805.326	1374.02
805.509	1401.73
805.693	1425.37
805.876	1428.27
806.06	1405.22
806.243	1436.8
806.427	1467.6
806.61	1454.23
806.794	1365.11
806.977	1423.43
807.16	1378.48
807.344	1395.34
807.527	1416.65
807.71	1403.09
807.894	1401.92
808.077	1418.39
808.26	1390.69
808.444	1358.33
808.627	1419.17
808.81	1382.16
808.993	1327.52
809.177	1327.91
809.36	1345.93
809.543	1363.95
809.726	1312.99
809.909	1339.92
810.092	1299.62
810.276	1321.91
810.459	1341.28
810.642	1312.99
810.825	1321.71
811.008	1269.01
811.191	1220.38
811.374	1229.88
811.557	1262.62
811.74	1331.2
811.923	1244.99
812.106	1224.26
812.289	1210.89
812.472	1191.32
812.654	1229.49
812.837	1175.63
813.02	1147.92
813.203	1144.82
813.386	1075.85
813.569	1084.95
813.751	1033.61
813.934	1108.01
814.117	1078.36
814.3	1029.93
814.482	1008.42
814.665	972
814.848	986.72
815.03	933.64
815.213	936.93
815.396	933.83
815.578	909.22
815.761	905.93
815.943	931.89
816.126	860.59
816.309	874.74
816.491	840.64
816.674	792.98
816.856	851.68
817.039	830.37
817.221	892.56
817.403	816.22
817.586	827.46
817.768	863.31
817.951	840.06
818.133	779.99
818.315	834.44
818.498	866.79
818.68	901.86
818.862	839.86
819.045	904.77
819.227	896.82
819.409	856.52
819.591	876.48
819.774	882.68
819.956	840.06
820.138	884.42
820.32	889.85
820.502	890.62
820.684	971.22
820.866	956.11
821.048	965.02
821.231	986.14
821.413	949.91
821.595	968.51
821.777	957.66
821.959	938.67
822.141	1013.46
822.323	920.46
822.505	906.32
822.686	881.32
822.868	840.83
823.05	763.72
823.232	771.08
823.414	723.42
823.596	754.42
823.778	742.6
823.96	758.49
824.141	771.28
824.323	774.76
824.505	823.97
824.687	842.38
824.868	898.18
825.05	948.17
825.232	944.87
825.413	1004.35
825.595	981.49
825.777	930.15
825.958	955.14
826.14	899.73
826.321	947
826.503	902.64
826.685	964.44
826.866	986.33
827.048	978.39
827.229	928.21
827.411	896.63
827.592	872.61
827.773	884.42
827.955	842.19
828.136	871.64
828.318	855.56
828.499	888.49
828.68	796.46
828.862	853.04
829.043	877.06
829.224	872.8
829.406	823.39
829.587	846.64
829.768	826.49
829.949	852.07
830.131	827.27
830.312	886.36
830.493	864.27
830.674	852.84
830.855	823.97
831.036	828.24
831.218	913.49
831.399	916.2
831.58	833.08
831.761	868.73
831.942	840.25
832.123	843.74
832.304	774.76
832.485	858.07
832.666	840.44
832.847	879.39
833.028	834.82
833.209	861.37
833.389	828.62
833.57	824.75
833.751	829.4
833.932	868.34
834.113	877.64
834.294	839.09
834.475	882.87
834.655	868.34
834.836	887.72
835.017	883.84
835.198	833.27
835.378	835.79
835.559	884.42
835.74	873.57
835.92	838.12
836.101	866.21
836.281	854.2
836.462	854.78
836.643	909.61
836.823	926.47
837.004	885.78
837.184	958.63
837.365	950.1
837.545	948.94
837.726	891.4
837.906	958.44
838.087	870.09
838.267	897.4
838.448	847.61
838.628	883.46
838.808	901.47
838.989	958.05
839.169	854.59
839.349	927.24
839.53	896.82
839.71	897.02
839.89	871.83
840.07	949.72
840.251	867.96
840.431	896.24
840.611	861.37
840.791	867.37
840.971	916
841.151	877.84
841.332	879.19
841.512	930.73
841.692	822.81
841.872	890.24
842.052	872.41
842.232	908.06
842.412	812.54
842.592	902.64
842.772	885.59
842.952	891.2
843.132	875.12
843.312	833.66
843.492	821.07
843.672	875.12
843.851	851.29
844.031	882.49
844.211	881.13
844.391	866.79
844.571	871.44
844.751	900.7
844.93	890.43
845.11	858.07
845.29	857.3
845.47	919.88
845.649	876.48
845.829	863.11
846.009	816.22
846.188	873.38
846.368	863.5
846.547	854.01
846.727	914.07
846.907	808.67
847.086	876.48
847.266	879.97
847.445	882.68
847.625	847.81
847.804	834.05
847.984	816.22
848.163	832.11
848.343	823.39
848.522	884.42
848.701	857.3
848.881	817.97
849.06	837.15
849.239	857.49
849.419	840.44
849.598	777.48
849.777	798.21
849.957	811.19
850.136	773.79
850.315	772.63
850.494	735.24
850.674	760.62
850.853	812.35
851.032	795.49
851.211	852.46
851.39	785.03
851.569	761.39
851.748	769.34
851.927	795.3
852.107	780.19
852.286	722.84
852.465	688.93
852.644	814.87
852.823	805.57
853.002	802.47
853.181	794.91
853.359	790.07
853.538	734.66
853.717	826.88
853.896	737.95
854.075	682.93
854.254	688.93
854.433	626.93
854.611	708.31
854.79	648.83
854.969	701.14
855.148	717.22
855.327	674.01
855.505	716.44
855.684	670.53
855.863	675.95
856.041	656.58
856.22	708.7
856.399	699.98
856.577	754.23
856.756	740.66
856.934	809.44
857.113	836.37
857.291	741.24
857.47	748.61
857.648	756.94
857.827	756.94
858.005	755
858.184	726.52
858.362	788.33
858.541	734.46
858.719	741.83
858.898	717.8
859.076	731.94
859.254	793.94
859.433	715.86
859.611	709.28
859.789	730.01
859.967	765.46
860.146	780.96
860.324	682.73
860.502	743.57
860.68	680.99
860.859	706.95
861.037	690.87
861.215	733.3
861.393	726.91
861.571	701.33
861.749	693
861.927	737.18
862.105	706.95
862.283	730.78
862.461	696.68
862.639	650.76
862.817	687.38
862.995	694.94
863.173	675.18
863.351	703.66
863.529	720.13
863.707	735.04
863.885	681.96
864.063	639.72
864.241	677.31
864.418	750.35
864.596	664.91
864.774	660.84
864.952	687
865.129	709.47
865.307	669.36
865.485	628.48
865.663	721.87
865.84	667.81
866.018	678.28
866.196	570.55
866.373	589.93
866.551	571.91
866.728	534.32
866.906	582.18
867.084	586.63
867.261	645.15
867.439	594.38
867.616	614.73
867.794	639.33
867.971	664.33
868.149	604.07
868.326	675.56
868.503	643.98
868.681	651.93
868.858	618.6
869.035	588.18
869.213	671.5
869.39	599.42
869.567	687
869.745	622.28
869.922	627.51
870.099	653.09
870.276	650.57
870.454	641.85
870.631	658.9
870.808	642.05
870.985	647.86
871.162	702.5
871.339	669.36
871.517	621.7
871.694	592.83
871.871	593.8
872.048	641.85
872.225	606.98
872.402	620.54
872.579	587.6
872.756	623.06
872.933	550.21
873.11	584.89
873.287	613.95
873.463	607.95
873.64	590.12
873.817	605.82
873.994	588.77
874.171	578.11
874.348	625.38
874.524	539.75
874.701	594.38
874.878	518.63
875.055	612.02
875.231	574.82
875.408	627.51
875.585	561.45
875.762	583.53
875.938	584.7
876.115	580.24
876.291	580.43
876.468	588.57
876.645	534.13
876.821	569
876.998	579.27
877.174	585.67
877.351	576.95
877.527	560.87
877.704	578.5
877.88	563.58
878.057	545.95
878.233	601.55
878.409	534.13
878.586	569.2
878.762	546.92
878.938	551.95
879.115	498.87
879.291	564.16
879.467	516.69
879.644	505.07
879.82	561.25
879.996	502.35
880.172	500.61
880.349	510.3
880.525	544.4
880.701	534.9
880.877	513.4
881.053	546.33
881.229	531.42
881.405	565.13
881.581	511.65
881.757	533.35
881.933	555.44
882.109	565.52
882.285	525.41
882.461	493.64
882.637	533.55
882.813	460.7
882.989	530.25
883.165	585.67
883.341	484.34
883.517	547.5
883.693	546.14
883.869	554.86
884.044	529.87
884.22	536.84
884.396	573.27
884.572	542.65
884.747	555.25
884.923	548.66
885.099	544.78
885.275	574.82
885.45	532.58
885.626	518.44
885.801	504.87
885.977	531.61
886.153	475.62
886.328	536.07
886.504	530.25
886.679	517.27
886.855	505.84
887.03	547.3
887.206	537.42
887.381	532.19
887.557	528.12
887.732	539.36
887.908	535.29
888.083	561.83
888.258	518.24
888.434	498.67
888.609	555.83
888.784	552.73
888.96	501.19
889.135	496.15
889.31	480.27
889.485	488.6
889.661	511.65
889.836	576.37
890.011	542.65
890.186	523.28
890.361	499.25
890.537	529.48
890.712	513.79
890.887	514.17
891.062	517.66
891.237	575.78
891.412	503.9
891.587	528.51
891.762	539.75
891.937	557.96
892.112	485.69
892.287	505.45
892.462	463.22
892.637	447.91
892.812	458.18
892.987	454.11
893.161	487.82
893.336	445.78
893.511	475.42
893.686	480.46
893.861	463.6
894.035	467.67
894.21	476.2
894.385	439.39
894.56	463.6
894.734	411.68
894.909	445.39
895.084	440.55
895.258	415.17
895.433	456.05
895.608	428.15
895.782	428.73
895.957	392.69
896.131	394.63
896.306	355.11
896.48	373.32
896.655	392.5
896.829	326.82
897.004	338.64
897.178	345.61
897.353	342.51
897.527	389.79
897.701	341.74
897.876	300.28
898.05	367.31
898.224	364.79
898.399	358.21
898.573	347.36
898.747	252.81
898.921	359.76
899.096	268.5
899.27	281.87
899.444	273.93
899.618	265.4
899.792	309.38
899.967	291.56
900.141	315.39
900.315	277.8
900.489	276.06
900.663	332.44
900.837	313.26
901.011	276.64
901.185	372.93
901.359	327.4
901.533	288.26
901.707	322.36
901.881	300.66
902.055	264.05
902.229	306.28
902.403	347.36
902.576	300.66
902.75	310.35
902.924	399.67
903.098	332.83
903.272	347.74
903.446	375.06
903.619	350.65
903.793	405.48
903.967	346
904.14	388.43
904.314	395.6
904.488	375.45
904.661	407.81
904.835	363.24
905.009	432.99
905.182	450.43
905.356	414.97
905.529	395.41
905.703	345.23
905.876	340.38
906.05	344.64
906.223	323.72
906.397	301.24
906.57	307.83
906.744	266.56
906.917	309.58
907.09	331.08
907.264	329.53
907.437	284.78
907.61	252.23
907.784	282.84
907.957	283.81
908.13	248.55
908.304	287.49
908.477	233.24
908.65	293.49
908.823	241.18
908.996	343.29
909.17	266.37
909.343	265.79
909.516	251.65
909.689	271.41
909.862	239.44
910.035	267.92
910.208	236.73
910.381	229.75
910.554	293.88
910.727	271.02
910.9	225.1
911.073	234.98
911.246	316.55
911.419	307.06
911.592	287.29
911.765	248.93
911.938	230.33
912.11	231.3
912.283	279.93
912.456	304.93
912.629	242.73
912.802	258.04
912.974	212.31
913.147	232.27
913.32	160.58
913.493	206.89
913.665	218.51
913.838	237.89
914.01	229.56
914.183	242.93
914.356	180.15
914.528	222.97
914.701	276.25
914.873	244.48
915.046	222.58
915.218	203.6
915.391	169.3
915.563	171.43
915.736	228.98
915.908	260.56
916.081	206.89
916.253	208.25
916.425	222.97
916.598	231.11
916.77	203.4
916.942	203.01
917.115	144.7
917.287	211.54
917.459	220.26
917.632	171.82
917.804	128.03
917.976	192.55
918.148	222.78
918.32	221.23
918.493	246.41
918.665	267.73
918.837	211.93
919.009	266.76
919.181	251.84
919.353	219.29
919.525	212.12
919.697	247.38
919.869	229.56
920.041	259.4
920.213	306.48
920.385	247.77
920.557	212.12
920.729	272.57
920.901	240.21
921.073	244.86
921.244	213.67
921.416	283.23
921.588	238.47
921.76	241.18
921.932	296.98
922.103	249.71
922.275	217.35
922.447	271.6
922.619	188.68
922.79	228.01
922.962	181.32
923.134	270.05
923.305	188.68
923.477	184.22
923.648	174.92
923.82	219.29
923.991	166.01
924.163	178.99
924.335	185.58
924.506	174.53
924.677	212.9
924.849	157.1
925.02	182.87
925.192	217.35
925.363	208.25
925.535	232.08
925.706	186.55
925.877	228.98
926.049	169.88
926.22	210.18
926.391	212.12
926.562	199.72
926.734	147.22
926.905	213.86
927.076	144.31
927.247	197.01
927.419	147.41
927.59	172.79
927.761	190.61
927.932	148.18
928.103	170.08
928.274	125.13
928.445	117.96
928.616	153.61
928.787	129.2
928.958	177.25
929.129	153.8
929.3	151.48
929.471	95.49
929.642	100.14
929.813	64.49
929.984	155.74
930.155	50.15
930.326	125.9
930.496	86.19
930.667	29.61
930.838	84.05
931.009	79.21
931.18	88.9
931.35	86.57
931.521	83.86
931.692	54.22
931.863	-2.74
932.033	65.84
932.204	53.83
932.374	74.95
932.545	14.89
932.716	84.05
932.886	73.4
933.057	-0.61
933.227	38.72
933.398	103.62
933.568	36.2
933.739	-6.04
933.909	33.29
934.08	51.31
934.25	-15.34
934.421	6.56
934.591	25.54
934.761	-1.19
934.932	-34.52
935.102	3.26
935.272	15.85
935.443	17.21
935.613	5.59
935.783	59.45
935.953	-20.18
936.123	116.02
936.294	-15.34
936.464	-3.52
936.634	29.42
936.804	-17.86
936.974	0.74
937.144	9.66
937.314	22.05
937.484	14.89
937.655	-9.91
937.825	47.63
937.995	-21.34
938.165	57.7
938.334	9.46
938.504	36.97
938.674	-11.27
938.844	0.16
939.014	67
939.184	38.52
939.354	61.97
939.524	60.22
939.694	27.29
939.863	18.95
940.033	81.34
940.203	91.42
940.373	60.22
940.542	65.65
940.712	22.83
940.882	46.47
941.051	63.52
941.221	54.8
941.391	80.37
941.56	23.99
941.73	14.89
941.899	123
942.069	16.44
942.238	61.77
942.408	39.88
942.577	61.97
942.747	59.06
942.916	-21.54
943.086	25.74
943.255	51.7
943.425	41.43
943.594	9.27
943.763	3.26
943.933	-18.05
944.102	-39.75
944.271	35.04
944.441	39.49
944.61	5.97
944.779	37.36
944.948	112.92
945.117	11.01
945.287	25.15
945.456	-15.92
945.625	-12.43
945.794	30.77
945.963	1.52
946.132	29.61
946.301	15.27
946.47	58.09
946.639	-39.36
946.808	1.71
946.977	38.72
947.146	64.87
947.315	14.89
947.484	4.23
947.653	1.71
947.822	16.05
947.991	-5.46
948.16	88.51
948.329	63.52
948.498	-3.13
948.666	14.89
948.835	60.03
949.004	-7.2
949.173	-32.78
949.341	41.24
949.51	42.79
949.679	69.72
949.847	37.75
950.016	96.07
950.185	54.99
950.353	34.45
950.522	18.95
950.69	76.69
950.859	-12.43
951.028	45.3
951.196	11.98
951.365	5.39
951.533	12.37
951.701	61.19
951.87	55.38
952.038	21.09
952.207	34.84
952.375	88.7
952.543	-3.52
952.712	44.72
952.88	7.72
953.048	70.3
953.217	24.38
953.385	22.64
953.553	63.52
953.721	2.1
953.89	19.34
954.058	0.94
954.226	-3.13
954.394	39.88
954.562	4.62
954.73	20.89
954.898	25.15
955.067	46.08
955.235	-1.58
955.403	68.17
955.571	79.79
955.739	45.89
955.907	-0.42
956.075	13.14
956.243	10.62
956.41	40.07
956.578	-10.49
956.746	-26.19
956.914	9.07
957.082	42.01
957.25	49.76
957.418	9.85
957.585	43.95
957.753	69.52
957.921	-10.69
958.089	38.33
958.256	45.11
958.424	36.78
958.592	37.55
958.759	3.07
958.927	30.19
959.095	20.12
959.262	24.77
959.43	29.22
959.597	20.12
959.765	19.73
959.932	-1.97
960.1	56.35
960.267	36
960.435	8.11
960.602	56.15
960.77	11.4
960.937	-12.43
961.104	30.97
961.272	-3.13
961.439	25.15
961.606	55.38
961.774	44.34
961.941	32.13
962.108	25.35
962.275	44.14
962.443	66.42
962.61	21.67
962.777	98.39
962.944	59.25
963.111	51.7
963.278	34.84
963.446	41.43
963.613	17.6
963.78	49.37
963.947	63.9
964.114	32.13
964.281	89.67
964.448	55.57
964.615	40.65
964.782	63.52
964.949	70.69
965.116	60.8
965.282	77.47
965.449	35.81
965.616	12.37
965.783	55.57
965.95	42.01
966.117	14.11
966.283	57.9
966.45	26.32
966.617	45.5
966.784	78.44
966.95	49.57
967.117	48.79
967.284	22.83
967.45	-3.33
967.617	65.07
967.784	67.59
967.95	85.22
968.117	50.54
968.283	96.07
968.45	129.58
968.616	54.6
968.783	96.07
968.949	67
969.116	79.4
969.282	4.23
969.449	61
969.615	47.63
969.781	35.04
969.948	19.34
970.114	6.75
970.28	98.78
970.447	47.24
970.613	106.53
970.779	33.49
970.945	50.54
971.112	41.62
971.278	56.93
971.444	41.24
971.61	76.5
971.776	42.01
971.942	79.21
972.108	79.21
972.275	24.96
972.441	59.64
972.607	110.6
972.773	54.99
972.939	61.19
973.105	41.62
973.271	17.79
973.437	54.8
973.602	18.76
973.768	69.91
973.934	51.7
974.1	33.29
974.266	-9.91
974.432	59.06
974.598	41.62
974.763	64.87
974.929	55.19
975.095	89.09
975.261	22.05
975.426	20.31
975.592	30.58
975.758	111.95
975.923	18.95
976.089	41.24
976.255	76.69
976.42	42.79
976.586	72.43
976.751	66.62
976.917	137.53
977.082	50.54
977.248	12.76
977.413	-0.61
977.579	24.77
977.744	75.34
977.91	27.48
978.075	16.24
978.24	67.97
978.406	25.54
978.571	14.69
978.736	29.61
978.902	50.15
979.067	6.56
979.232	4.62
979.397	63.9
979.563	84.25
979.728	21.09
979.893	29.42
980.058	40.46
980.223	81.92
980.388	37.94
980.554	45.89
980.719	0.16
980.884	6.17
981.049	72.24
981.214	20.31
981.379	48.21
981.544	0.94
981.709	38.33
981.874	22.05
982.039	44.92
982.204	60.03
982.368	29.42
982.533	36.59
982.698	43.37
982.863	99.75
983.028	39.69
983.193	50.54
983.357	49.37
983.522	51.5
983.687	41.04
983.852	54.99
984.016	46.47
984.181	36
984.346	79.4
984.51	43.75
984.675	36.39
984.839	53.83
985.004	28.84
985.168	80.95
985.333	51.31
985.498	14.89
985.662	61.77
985.827	36.78
985.991	36.39
986.155	24.57
986.32	95.68
986.484	74.95
986.649	54.99
986.813	-1.39
986.977	42.2
987.142	51.7
987.306	-14.95
987.47	16.44
987.634	27.87
987.799	53.44
987.963	51.5
988.127	75.92
988.291	110.02
988.455	28.25
988.62	1.71
988.784	61.97
988.948	79.21
989.112	12.76
989.276	51.7
989.44	44.72
989.604	25.74
989.768	22.44
989.932	104.2
990.096	4.42
990.26	26.51
990.424	-13.4
990.588	5.97
990.752	73.4
990.915	75.14
991.079	26.51
991.243	11.79
991.407	54.41
991.571	15.27
991.734	57.32
991.898	75.53
992.062	110.79
992.226	36.59
992.389	-8.94
992.553	-14.56
992.717	13.72
992.88	7.52
993.044	54.22
993.207	31.55
993.371	69.14
993.535	56.35
993.698	23.22
993.862	46.27
994.025	66.04
994.189	63.9
994.352	41.43
994.515	39.3
994.679	32.9
994.842	30.97
995.006	65.65
995.169	13.92
995.332	18.37
995.496	53.25
995.659	14.11
995.822	42.79
995.985	37.17
996.149	100.52
996.312	24.77
996.475	78.05
996.638	41.24
996.801	78.63
996.964	101.49
997.128	28.45
997.291	45.89
997.454	58.48
997.617	-3.91
997.78	82.12
997.943	35.81
998.106	51.89
998.269	10.04
998.432	17.02
998.595	20.12
998.758	-11.66
998.92	3.65
999.083	-17.08
999.246	31.55
999.409	3.84
999.572	-24.64
999.735	30.97
999.897	48.99
1000.06	6.75
1000.223	11.98
1000.386	29.03
1000.548	29.22
1000.711	38.72
1000.874	28.45
1001.036	-18.24
1001.199	81.15
1001.361	26.12
1001.524	22.64
1001.687	57.32
1001.849	13.53
1002.012	64.87
1002.174	25.15
1002.337	58.09
1002.499	35.81
1002.661	51.12
1002.824	-0.61
1002.986	-7.2
1003.149	15.66
1003.311	6.75
1003.473	70.3
1003.636	4.23
1003.798	40.65
1003.96	25.35
1004.123	38.72
1004.285	36.78
1004.447	20.31
1004.609	35.04
1004.771	72.24
1004.933	-17.47
1005.096	-17.28
1005.258	-22.31
1005.42	12.95
1005.582	67.78
1005.744	38.72
1005.906	-2.74
1006.068	48.02
1006.23	-13.21
1006.392	-33.55
1006.554	-3.52
1006.716	42.79
1006.878	48.4
1007.04	-26.77
1007.202	-19.21
1007.363	25.35
1007.525	33.29
1007.687	58.48
1007.849	49.95
1008.011	-10.88
1008.172	-17.28
1008.334	12.17
1008.496	23.02
1008.658	-43.43
1008.819	-19.79
1008.981	-4.49
1009.143	-11.85
1009.304	12.56
1009.466	37.36
1009.627	67
1009.789	89.87
1009.95	27.29
1010.112	3.84
1010.273	16.44
1010.435	-7.2
1010.596	-4.29
1010.758	5.39
1010.919	4.04
1011.081	-17.86
1011.242	-1.39
1011.403	16.82
1011.565	23.99
1011.726	32.71
1011.887	-11.46
1012.049	16.82
1012.21	19.54
1012.371	52.09
1012.532	-53.89
1012.693	-0.61
1012.855	5.59
1013.016	5.01
1013.177	47.44
1013.338	-14.95
1013.499	65.45
1013.66	32.9
1013.821	42.79
1013.982	17.02
1014.143	23.22
1014.304	-6.43
1014.465	32.9
1014.626	26.7
1014.787	12.17
1014.948	82.12
1015.109	-55.44
1015.27	54.99
1015.431	26.7
1015.592	-3.71
1015.752	54.99
1015.913	41.04
1016.074	21.47
1016.235	1.91
1016.395	8.49
1016.556	-12.82
1016.717	48.4
1016.877	49.57
1017.038	-11.66
1017.199	28.06
1017.359	17.79
1017.52	18.57
1017.681	-23.67
1017.841	8.49
1018.002	-7.39
1018.162	-7.39
1018.323	36.78
1018.483	2.29
1018.644	-13.21
1018.804	-7.2
1018.964	-9.72
1019.125	-2.16
1019.285	30.58
1019.446	-27.93
1019.606	-7.01
1019.766	-32.58
1019.926	8.49
1020.087	16.82
1020.247	-55.06
1020.407	25.54
1020.567	69.33
1020.728	-2.16
1020.888	-12.04
1021.048	-5.46
1021.208	-9.53
1021.368	-31.81
1021.528	48.79
1021.688	37.55
1021.848	27.09
1022.008	36
1022.168	6.56
1022.328	35.04
1022.488	24.77
1022.648	-26.58
1022.808	14.5
1022.968	17.02
1023.128	-19.99
1023.288	-1.97
1023.448	7.33
1023.608	11.79
1023.767	11.21
1023.927	3.07
1024.087	-27.74
1024.247	-40.91
1024.406	-19.79
1024.566	-37.23
1024.726	-15.92
1024.885	6.17
1025.045	22.05
1025.205	-13.01
1025.364	0.74
1025.524	8.49
1025.683	13.53
1025.843	-7.2
1026.003	-11.66
1026.162	64.49
1026.321	33.29
1026.481	2.68
1026.64	5.39
1026.8	6.75
1026.959	18.57
1027.119	24.38
1027.278	-7.78
1027.437	-20.18
1027.597	15.08
1027.756	-5.26
1027.915	44.14
1028.074	16.05
1028.234	21.86
1028.393	7.33
1028.552	-4.68
1028.711	-62.61
1028.87	46.47
1029.03	-29.09
1029.189	2.1
1029.348	-42.46
1029.507	-20.57
1029.666	-14.18
1029.825	-15.73
1029.984	-22.89
1030.143	5.59
1030.302	-18.05
1030.461	-81.02
1030.62	11.98
1030.779	-0.61
1030.938	-21.73
1031.097	-27.16
1031.255	14.11
1031.414	50.73
1031.573	66.81
1031.732	-44.59
1031.891	2.29
1032.049	47.44
1032.208	21.67
1032.367	-15.53
1032.525	-14.37
1032.684	26.7
1032.843	8.3
1033.001	-50.02
1033.16	127.84
1033.319	40.65
1033.477	22.05
1033.636	-25.61
1033.794	-47.69
1033.953	13.53
1034.111	19.92
1034.27	-20.18
1034.428	28.25
1034.587	-30.26
1034.745	-2.36
1034.903	-8.56
1035.062	31.94
1035.22	-34.71
1035.378	27.48
1035.537	-21.34
1035.695	39.1
1035.853	29.42
1036.011	32.71
1036.17	11.98
1036.328	-50.21
1036.486	9.27
1036.644	20.12
1036.802	-70.36
1036.96	-7.39
1037.119	21.28
1037.277	-13.21
1037.435	-29.87
1037.593	-23.09
1037.751	-17.86
1037.909	48.02
1038.067	48.02
