Data from oakcork_FLMT105791__265__17-34-11-053.txt Node

Date: Mon Mar 20 17:34:11 GMT 2023
User: antho
Spectrometer: FLMT10579
Trigger mode: 0
Integration Time (sec): 1.000000E-1
Scans to average: 10
Electric dark correction enabled: true
Nonlinearity correction enabled: false
Boxcar width: 0
XAxis mode: Wavelengths
Number of Pixels in Spectrum: 3648
>>>>>Begin Spectral Data<<<<<
345.248	-156.14
345.464	-156.14
345.681	-156.14
345.898	-158.86
346.114	-148.78
346.331	-32.34
346.548	38.77
346.764	3.5
346.981	-14.51
347.197	-26.14
347.414	-3.28
347.631	-6.38
347.847	50
348.064	1.76
348.28	30.24
348.497	-31.18
348.713	-10.45
348.93	26.37
349.146	36.05
349.363	17.45
349.579	15.9
349.796	19.78
350.012	-3.08
350.229	37.22
350.445	-17.61
350.661	-14.9
350.878	-18.97
351.094	6.8
351.311	3.12
351.527	20.17
351.743	26.75
351.96	45.93
352.176	34.7
352.392	24.43
352.609	19.2
352.825	-17.42
353.041	-8.7
353.257	-14.13
353.474	20.36
353.69	23.27
353.906	16.87
354.122	-27.5
354.339	34.12
354.555	1.57
354.771	-21.68
354.987	63.18
355.203	30.82
355.42	7.96
355.636	-16.26
355.852	-14.32
356.068	-11.03
356.284	-18.58
356.5	58.72
356.716	-21.88
356.932	4.86
357.148	44.97
357.364	8.93
357.58	47.87
357.796	68.41
358.012	57.75
358.228	51.75
358.444	-30.4
358.66	53.1
358.876	20.75
359.092	-13.55
359.308	33.92
359.524	11.64
359.74	-20.91
359.956	-7.15
360.172	2.92
360.388	61.63
360.604	-7.15
360.819	65.89
361.035	8.15
361.251	25.78
361.467	-17.42
361.683	48.65
361.898	11.83
362.114	63.76
362.33	16.68
362.546	25.01
362.762	17.07
362.977	25.98
363.193	-12
363.409	32.18
363.624	-4.63
363.84	-23.81
364.056	-7.93
364.271	39.73
364.487	25.2
364.703	-4.25
364.918	-25.36
365.134	12.03
365.35	10.87
365.565	89.72
365.781	10.87
365.996	29.47
366.212	59.3
366.427	37.41
366.643	-1.92
366.858	12.61
367.074	9.9
367.289	67.83
367.505	102.51
367.72	-37.57
367.936	3.7
368.151	48.45
368.367	22.49
368.582	19.97
368.798	3.7
369.013	44.38
369.228	29.66
369.444	32.37
369.659	77.13
369.874	42.64
370.09	74.03
370.305	-19.75
370.52	-2.31
370.736	71.32
370.951	39.73
371.166	65.31
371.381	91.85
371.597	58.72
371.812	-18.2
372.027	12.8
372.242	15.52
372.458	59.88
372.673	21.13
372.888	6.41
373.103	45.74
373.318	91.46
373.533	42.06
373.749	21.13
373.964	-16.26
374.179	50
374.394	-18
374.609	79.26
374.824	-19.55
375.039	55.04
375.254	14.74
375.469	82.55
375.684	17.65
375.899	68.8
376.114	6.99
376.329	25.2
376.544	52.91
376.759	34.12
376.974	-2.12
377.189	25.4
377.404	22.3
377.619	77.32
377.834	-38.93
378.049	-14.13
378.264	-23.62
378.478	40.51
378.693	20.94
378.908	47.1
379.123	15.13
379.338	55.23
379.553	31.6
379.767	68.8
379.982	45.55
380.197	30.05
380.412	43.22
380.626	27.72
380.841	89.53
381.056	23.07
381.271	77.13
381.485	2.34
381.7	-3.67
381.915	2.34
382.129	-4.44
382.344	12.8
382.559	16.29
382.773	61.63
382.988	-27.69
383.202	21.72
383.417	0.6
383.632	117.23
383.846	4.47
384.061	44.77
384.275	23.65
384.49	16.1
384.704	51.55
384.919	19
385.133	32.18
385.348	38.77
385.562	-30.4
385.777	54.27
385.991	25.78
386.206	34.12
386.42	10.48
386.634	46.9
386.849	49.42
387.063	28.88
387.277	-6.57
387.492	7.96
387.706	-17.61
387.92	17.45
388.135	58.33
388.349	42.64
388.563	27.33
388.778	2.34
388.992	59.5
389.206	54.65
389.42	111.03
389.635	14.74
389.849	59.11
390.063	64.34
390.277	28.88
390.491	76.35
390.706	38.57
390.92	42.06
391.134	36.44
391.348	49.42
391.562	-19.55
391.776	11.06
391.99	0.79
392.205	54.27
392.419	5.44
392.633	11.64
392.847	83.33
393.061	7.57
393.275	90.5
393.489	7.96
393.703	26.17
393.917	88.95
394.131	-12.19
394.345	55.62
394.559	50.97
394.773	14.55
394.986	41.67
395.2	45.16
395.414	61.43
395.628	8.93
395.842	41.09
396.056	44.58
396.27	-7.73
396.484	30.43
396.697	52.52
396.911	69.57
397.125	62.6
397.339	67.83
397.553	45.35
397.766	110.65
397.98	78.1
398.194	71.51
398.408	37.99
398.621	46.13
398.835	38.38
399.049	42.64
399.262	99.21
399.476	70.93
399.69	79.07
399.903	94.18
400.117	43.8
400.331	93.6
400.544	43.61
400.758	135.45
400.971	51.17
401.185	63.37
401.398	42.06
401.612	90.88
401.826	91.08
402.039	74.22
402.253	38.57
402.466	93.01
402.68	46.71
402.893	59.11
403.106	49.42
403.32	56.4
403.533	71.51
403.747	59.69
403.96	79.84
404.174	84.49
404.387	27.92
404.6	83.33
404.814	95.34
405.027	52.52
405.24	59.5
405.454	56.78
405.667	119.17
405.88	16.68
406.094	68.6
406.307	122.66
406.52	72.28
406.733	63.57
406.947	30.24
407.16	148.43
407.373	111.61
407.586	36.83
407.799	41.28
408.012	110.84
408.226	88.75
408.439	105.22
408.652	47.48
408.865	73.45
409.078	121.69
409.291	75.97
409.504	56.59
409.717	97.86
409.93	85.07
410.143	93.98
410.357	52.33
410.57	37.02
410.783	54.07
410.996	113.16
411.209	69.57
411.421	114.33
411.634	100.96
411.847	45.16
412.06	93.79
412.273	88.36
412.486	52.13
412.699	135.64
412.912	81.78
413.125	98.83
413.338	86.23
413.55	130.02
413.763	76.93
413.976	88.95
414.189	42.06
414.402	62.6
414.615	122.27
414.827	36.63
415.04	109.87
415.253	74.03
415.466	104.64
415.678	128.28
415.891	82.94
416.104	71.9
416.316	80.81
416.529	53.1
416.742	95.34
416.954	140.87
417.167	68.6
417.38	49.62
417.592	107.35
417.805	57.17
418.017	57.56
418.23	120.33
418.442	61.82
418.655	74.03
418.868	75.97
419.08	107.35
419.293	122.85
419.505	104.64
419.718	96.5
419.93	154.82
420.142	84.3
420.355	149.01
420.567	115.49
420.78	127.31
420.992	100.57
421.205	132.93
421.417	37.8
421.629	96.11
421.842	45.35
422.054	60.47
422.266	136.22
422.479	150.17
422.691	67.63
422.903	123.05
423.115	78.29
423.328	98.63
423.54	91.66
423.752	77.71
423.964	55.43
424.177	102.31
424.389	88.36
424.601	200.54
424.813	74.22
425.025	129.25
425.238	114.13
425.45	102.7
425.662	75.97
425.874	380.15
426.086	93.01
426.298	110.65
426.51	106.96
426.722	109.1
426.934	88.95
427.146	116.07
427.358	85.07
427.57	133.31
427.782	83.52
427.994	93.01
428.206	75.58
428.418	71.51
428.63	116.07
428.842	161.8
429.054	102.51
429.266	142.03
429.478	118.78
429.69	95.53
429.902	39.54
430.114	111.03
430.325	94.76
430.537	90.11
430.749	68.22
430.961	46.32
431.173	49.62
431.384	90.5
431.596	40.7
431.808	81.2
432.02	126.73
432.231	143.97
432.443	141.45
432.655	110.26
432.867	93.01
433.078	124.79
433.29	154.43
433.502	150.56
433.713	163.15
433.925	106.96
434.136	155.79
434.348	110.45
434.56	70.35
434.771	203.84
434.983	85.26
435.194	125.76
435.406	106.38
435.617	153.46
435.829	202.09
436.04	147.46
436.252	138.93
436.463	190.86
436.675	174.97
436.886	133.9
437.098	131.18
437.309	191.63
437.521	124.98
437.732	135.25
437.943	125.56
438.155	133.9
438.366	87.98
438.578	175.74
438.789	160.63
439	160.44
439.211	138.93
439.423	151.14
439.634	143.78
439.845	153.46
440.057	183.49
440.268	154.63
440.479	109.68
440.69	157.73
440.902	131.57
441.113	131.38
441.324	146.49
441.535	169.74
441.746	172.84
441.957	143
442.168	136.8
442.38	181.94
442.591	167.61
442.802	132.93
443.013	147.26
443.224	190.08
443.435	144.16
443.646	153.85
443.857	155.4
444.068	161.41
444.279	132.93
444.49	236.58
444.701	161.02
444.912	266.61
445.123	220.11
445.334	203.64
445.545	157.92
445.756	167.03
445.967	147.65
446.178	190.86
446.388	208.49
446.599	199.96
446.81	220.11
447.021	192.02
447.232	214.11
447.443	238.71
447.653	155.21
447.864	221.66
448.075	169.35
448.286	225.15
448.496	197.83
448.707	248.59
448.918	180.59
449.129	252.08
449.339	162.76
449.55	203.06
449.761	165.28
449.971	258.47
450.182	195.51
450.393	230.19
450.603	190.86
450.814	236.39
451.024	212.75
451.235	234.06
451.446	255.96
451.656	252.86
451.867	193.96
452.077	232.9
452.288	248.01
452.498	272.62
452.709	183.69
452.919	264.48
453.13	195.89
453.34	243.17
453.55	152.3
453.761	244.91
453.971	239.68
454.182	232.13
454.392	260.02
454.602	253.05
454.813	229.61
455.023	247.82
455.233	185.43
455.444	238.91
455.654	180.59
455.864	238.52
456.075	216.04
456.285	219.92
456.495	248.59
456.705	243.56
456.916	271.07
457.126	272.81
457.336	224.76
457.546	181.94
457.756	203.06
457.967	274.94
458.177	231.93
458.387	265.26
458.597	210.81
458.807	233.68
459.017	206.16
459.227	250.92
459.437	222.63
459.647	276.11
459.857	256.73
460.068	223.99
460.278	272.23
460.488	237.55
460.698	303.04
460.908	248.98
461.117	203.45
461.327	217.01
461.537	242.98
461.747	245.49
461.957	229.61
462.167	330.94
462.377	278.24
462.587	273.78
462.797	289.47
463.007	238.91
463.216	264.48
463.426	297.42
463.636	299.74
463.846	227.67
464.056	252.08
464.265	310.98
464.475	240.65
464.685	264.48
464.895	266.22
465.104	276.11
465.314	285.6
465.524	282.89
465.733	222.44
465.943	341.4
466.153	307.49
466.362	316.02
466.572	278.82
466.782	279.79
466.991	284.63
467.201	306.52
467.41	245.69
467.62	290.06
467.829	267.77
468.039	313.69
468.249	283.27
468.458	286.37
468.668	309.62
468.877	329
469.086	357.87
469.296	340.62
469.505	283.47
469.715	355.15
469.924	328.03
470.134	348.37
470.343	364.07
470.552	298.77
470.762	273.39
470.971	280.37
471.18	300.13
471.39	329.97
471.599	263.9
471.808	348.57
472.018	276.3
472.227	387.9
472.436	347.6
472.645	316.02
472.855	297.42
473.064	369.3
473.273	333.07
473.482	355.74
473.691	374.14
473.901	416.19
474.11	327.26
474.319	442.92
474.528	363.29
474.737	420.64
474.946	362.71
475.155	413.28
475.364	410.95
475.573	400.3
475.783	403.98
475.992	407.27
476.201	436.53
476.41	387.12
476.619	359.8
476.828	389.84
477.037	369.88
477.245	386.93
477.454	422.58
477.663	406.11
477.872	377.05
478.081	485.74
478.29	357.87
478.499	499.69
478.708	432.65
478.917	487.29
479.125	443.12
479.334	439.05
479.543	424.32
479.752	461.52
479.961	445.25
480.169	471.98
480.378	415.41
480.587	562.46
480.796	472.57
481.004	490.78
481.213	495.43
481.422	491.17
481.63	461.33
481.839	500.27
482.048	521.78
482.256	490
482.465	506.28
482.674	513.06
482.882	507.83
483.091	567.5
483.299	517.71
483.508	515.38
483.716	503.37
483.925	540.76
484.134	493.1
484.342	507.05
484.551	534.76
484.759	535.15
484.967	543.67
485.176	585.71
485.384	567.11
485.593	553.16
485.801	519.65
486.01	515
486.218	484.38
486.426	456.29
486.635	468.5
486.843	494.07
487.051	490
487.26	476.05
487.468	508.41
487.676	575.06
487.885	509.18
488.093	573.7
488.301	577.58
488.509	572.15
488.717	602.38
488.926	577.58
489.134	565.95
489.342	612.45
489.55	533.79
489.758	569.83
489.967	576.8
490.175	666.7
490.383	602.38
490.591	685.69
490.799	553.16
491.007	668.25
491.215	630.08
491.423	631.24
491.631	630.47
491.839	646.94
492.047	644.42
492.255	608.58
492.463	576.8
492.671	616.33
492.879	657.79
493.087	613.61
493.295	640.16
493.503	673.09
493.711	688.98
493.919	702.54
494.127	658.76
494.334	674.64
494.542	613.03
494.75	676.58
494.958	653.33
495.166	716.11
495.374	691.69
495.581	700.22
495.789	674.06
495.997	724.05
496.205	683.75
496.412	682.98
496.62	704.87
496.828	709.32
497.035	679.29
497.243	709.32
497.451	724.63
497.658	697.12
497.866	702.35
498.074	769
498.281	663.21
498.489	775.39
498.696	720.76
498.904	701.77
499.112	710.68
499.319	773.07
499.527	704.87
499.734	788.18
499.942	694.41
500.149	701.38
500.357	740.32
500.564	694.6
500.771	751.56
500.979	665.73
501.186	629.5
501.394	746.72
501.601	700.8
501.808	732.57
502.016	690.73
502.223	713.01
502.43	704.48
502.638	729.47
502.845	689.95
503.052	769.39
503.26	701.57
503.467	796.9
503.674	723.08
503.881	752.92
504.089	798.25
504.296	752.14
504.503	681.62
504.71	744.01
504.917	693.44
505.125	723.66
505.332	724.05
505.539	772.49
505.746	818.02
505.953	776.75
506.16	768.61
506.367	831.97
506.574	827.12
506.781	835.26
506.988	757.37
507.195	793.22
507.402	779.85
507.609	827.12
507.816	763.77
508.023	764.54
508.23	758.54
508.437	737.22
508.644	777.14
508.851	829.64
509.058	802.13
509.265	783.53
509.472	815.5
509.679	891.06
509.885	817.05
510.092	828.09
510.299	811.62
510.506	818.4
510.713	806.39
510.92	810.65
511.126	855.6
511.333	840.1
511.54	812.4
511.746	887.96
511.953	892.42
512.16	928.07
512.367	826.93
512.573	862.39
512.78	854.83
512.987	856.57
513.193	872.85
513.4	818.21
513.606	835.26
513.813	879.05
514.02	856.19
514.226	912.76
514.433	891.45
514.639	849.21
514.846	847.08
515.052	858.51
515.259	879.24
515.465	881.76
515.672	870.33
515.878	945.89
516.085	889.51
516.291	904.62
516.497	831.97
516.704	874.01
516.91	793.02
517.117	808.52
517.323	731.22
517.529	813.56
517.736	782.75
517.942	806.2
518.148	796.32
518.354	835.45
518.561	825.38
518.767	819.57
518.973	888.15
519.179	873.43
519.386	855.8
519.592	840.88
519.798	865.1
520.004	956.16
520.21	880.98
520.417	904.04
520.623	961.78
520.829	980.18
521.035	967.98
521.241	933.1
521.447	955.58
521.653	1050.32
521.859	968.56
522.065	986.96
522.271	1070.47
522.477	992.97
522.683	1049.93
522.889	981.54
523.095	987.93
523.301	979.99
523.507	958.68
523.713	993.55
523.919	954.61
524.125	1039.66
524.331	994.13
524.537	1075.31
524.742	1089.07
524.948	1077.44
525.154	1031.72
525.36	1114.06
525.566	1066.79
525.772	1115.61
525.977	1011.57
526.183	1076.28
526.389	1051.48
526.595	1002.85
526.8	1009.44
527.006	951.32
527.212	951.12
527.417	915.47
527.623	945.5
527.829	1014.67
528.034	1023
528.24	1015.83
528.446	999.56
528.651	1101.66
528.857	1106.51
529.062	1146.03
529.268	1069.69
529.473	1106.31
529.679	1103.79
529.884	1154.94
530.09	1153.78
530.295	1130.14
530.501	1127.82
530.706	1116.19
530.912	1113.48
531.117	1151.84
531.323	1126.66
531.528	1178.97
531.733	1145.26
531.939	1124.33
532.144	1159.79
532.35	1160.17
532.555	1166.96
532.76	1192.53
532.966	1140.8
533.171	1140.41
533.376	1098.18
533.581	1051.68
533.787	1129.37
533.992	1144.09
534.197	1197.37
534.402	1127.63
534.607	1148.36
534.813	1248.91
535.018	1165.99
535.223	1168.31
535.428	1174.12
535.633	1200.86
535.838	1193.11
536.043	1195.82
536.249	1263.25
536.454	1227.99
536.659	1199.12
536.864	1173.54
537.069	1198.92
537.274	1233.99
537.479	1215.97
537.684	1221.2
537.889	1141.77
538.094	1281.85
538.299	1225.85
538.504	1240.19
538.708	1244.26
538.913	1269.25
539.118	1215.97
539.323	1236.9
539.528	1202.02
539.733	1183.23
539.938	1217.91
540.142	1243.1
540.347	1202.41
540.552	1169.09
540.757	1197.37
540.962	1190.01
541.166	1158.82
541.371	1175.87
541.576	1197.37
541.781	1105.93
541.985	1180.13
542.19	1224.3
542.395	1244.65
542.599	1332.61
542.804	1305.48
543.008	1314.4
543.213	1223.34
543.418	1178
543.622	1273.13
543.827	1247.36
544.031	1269.64
544.236	1291.73
544.44	1264.41
544.645	1344.62
544.849	1237.48
545.054	1310.91
545.258	1329.12
545.463	1364.77
545.667	1245.23
545.872	1318.08
546.076	1285.72
546.281	1254.92
546.485	1265.57
546.689	1289.02
546.894	1281.46
547.098	1301.8
547.302	1223.14
547.507	1276.42
547.711	1262.86
547.915	1354.7
548.119	1238.25
548.324	1232.25
548.528	1327.38
548.732	1271
548.936	1283.79
549.141	1333.58
549.345	1265.96
549.549	1321.37
549.753	1283.79
549.957	1345.2
550.161	1340.94
550.366	1317.3
550.57	1265.57
550.774	1282.24
550.978	1284.37
551.182	1322.34
551.386	1280.1
551.59	1270.03
551.794	1307.42
551.998	1295.41
552.202	1279.33
552.406	1273.52
552.61	1317.3
552.814	1322.15
553.018	1328.15
553.222	1309.55
553.426	1271.77
553.63	1393.06
553.833	1258.6
554.037	1265.96
554.241	1344.43
554.445	1301.42
554.649	1299.09
554.853	1297.93
555.056	1333.97
555.26	1335.52
555.464	1331.06
555.668	1313.43
555.871	1364.58
556.075	1346.17
556.279	1292.89
556.483	1251.43
556.686	1294.64
556.89	1311.88
557.094	1327.77
557.297	1247.17
557.501	1340.75
557.704	1229.54
557.908	1320.21
558.112	1275.07
558.315	1320.02
558.519	1274.49
558.722	1258.79
558.926	1223.14
559.129	1192.92
559.333	1219.07
559.536	1213.65
559.74	1179.16
559.943	1194.08
560.147	1198.92
560.35	1203.96
560.553	1212.1
560.757	1197.76
560.96	1266.35
561.164	1213.26
561.367	1302.39
561.57	1177.61
561.774	1277.78
561.977	1233.6
562.18	1206.09
562.384	1314.2
562.587	1220.82
562.79	1194.08
562.993	1237.67
563.197	1221.79
563.4	1296.96
563.603	1243.68
563.806	1314.98
564.009	1224.69
564.212	1216.17
564.416	1172.38
564.619	1243.87
564.822	1144.29
565.025	1257.63
565.228	1165.6
565.431	1198.54
565.634	1114.45
565.837	1167.54
566.04	1146.22
566.243	1179.74
566.446	1070.47
566.649	1189.43
566.852	1105.54
567.055	1133.82
567.258	1222.17
567.461	1209.19
567.664	1182.84
567.867	1112.71
568.07	1154.56
568.273	1145.64
568.475	1166.96
568.678	1144.67
568.881	1122.98
569.084	1127.82
569.287	1047.22
569.489	1112.9
569.692	1118.33
569.895	1114.06
570.098	1079.77
570.3	1075.31
570.503	1007.89
570.706	1046.83
570.909	1051.87
571.111	1013.51
571.314	1011.18
571.516	1053.81
571.719	1079.38
571.922	1067.37
572.124	1066.21
572.327	1070.47
572.529	996.65
572.732	1032.3
572.935	1055.94
573.137	1110.38
573.34	1039.08
573.542	1083.06
573.745	1078.22
573.947	1070.28
574.15	1015.45
574.352	1003.82
574.554	1086.74
574.757	1006.34
574.959	1012.93
575.162	1020.29
575.364	992.58
575.566	1083.26
575.769	976.11
575.971	1026.88
576.173	900.94
576.376	1002.08
576.578	1040.44
576.78	1091.98
576.982	936.78
577.185	997.62
577.387	948.8
577.589	977.47
577.791	1001.88
577.993	1033.08
578.196	967.98
578.398	1017.77
578.6	1009.63
578.802	943.18
579.004	957.32
579.206	966.62
579.408	984.06
579.61	957.32
579.812	1009.25
580.014	965.46
580.216	949.77
580.418	976.7
580.62	958.48
580.822	931.17
581.024	962.55
581.226	1026.1
581.428	982.51
581.63	1067.37
581.832	965.46
582.034	1058.65
582.236	1012.54
582.438	1036.76
582.64	1005.76
582.841	1047.8
583.043	1059.23
583.245	1045.48
583.447	1037.34
583.649	1005.95
583.85	983.67
584.052	1057.88
584.254	967.2
584.456	1039.28
584.657	978.25
584.859	985.03
585.061	978.83
585.262	964.1
585.464	977.08
585.666	1003.05
585.867	955
586.069	1017.38
586.27	1014.67
586.472	984.83
586.674	954.61
586.875	959.84
587.077	968.56
587.278	1002.85
587.48	949.77
587.681	1080.16
587.883	969.53
588.084	942.21
588.285	954.61
588.487	943.57
588.688	959.45
588.89	901.91
589.091	869.75
589.292	905.2
589.494	886.6
589.695	848.05
589.896	758.15
590.098	804.65
590.299	880.21
590.5	838.94
590.702	846.3
590.903	878.47
591.104	923.42
591.305	879.43
591.507	930.78
591.708	882.15
591.909	871.88
592.11	955.19
592.311	945.89
592.512	881.37
592.714	867.62
592.915	860.64
593.116	875.17
593.317	882.34
593.518	884.86
593.719	904.82
593.92	947.25
594.121	946.28
594.322	870.13
594.523	875.17
594.724	857.54
594.925	873.62
595.126	873.62
595.327	886.41
595.528	861.03
595.729	898.03
595.929	873.82
596.13	882.53
596.331	905.01
596.532	919.15
596.733	942.21
596.934	956.16
597.135	936.59
597.335	899
597.536	859.48
597.737	890.87
597.938	860.84
598.138	913.15
598.339	894.16
598.54	901.13
598.74	855.02
598.941	899.39
599.142	933.1
599.342	902.1
599.543	867.23
599.744	915.86
599.944	885.63
600.145	892.8
600.345	928.26
600.546	953.06
600.746	936.59
600.947	984.64
601.147	917.99
601.348	958.29
601.548	872.27
601.749	911.6
601.949	864.32
602.15	866.45
602.35	907.72
602.551	939.88
602.751	855.02
602.951	874.2
603.152	821.89
603.352	880.21
603.552	870.13
603.753	924.38
603.953	930.39
604.153	901.13
604.354	886.8
604.554	897.45
604.754	897.07
604.954	884.28
605.155	912.95
605.355	908.11
605.555	905.01
605.755	936.98
605.955	907.53
606.155	928.65
606.356	894.93
606.556	900.55
606.756	909.08
606.956	849.79
607.156	921.67
607.356	898.81
607.556	906.17
607.756	904.43
607.956	900.36
608.156	893
608.356	844.17
608.556	976.5
608.756	888.93
608.956	874.98
609.156	877.88
609.356	895.32
609.556	850.18
609.755	906.95
609.955	847.27
610.155	881.57
610.355	865.1
610.555	855.99
610.755	862
610.954	803.68
611.154	856.96
611.354	918.57
611.554	832.94
611.753	847.27
611.953	799.22
612.153	899.2
612.352	854.44
612.552	847.85
612.752	810.85
612.951	848.05
613.151	851.15
613.351	801.16
613.55	798.45
613.75	853.47
613.949	818.02
614.149	857.15
614.348	830.8
614.548	795.15
614.747	756.02
614.947	781.4
615.146	762.02
615.346	874.01
615.545	797.29
615.745	824.99
615.944	828.67
616.144	809.88
616.343	830.03
616.542	780.82
616.742	813.56
616.941	827.9
617.14	757.57
617.34	815.5
617.539	792.64
617.738	784.3
617.938	841.27
618.137	789.34
618.336	751.95
618.535	807.75
618.734	810.07
618.934	790.89
619.133	780.43
619.332	843.01
619.531	756.99
619.73	821.31
619.929	827.7
620.128	820.92
620.328	820.34
620.527	793.02
620.726	767.26
620.925	808.14
621.124	786.05
621.323	836.04
621.522	744.78
621.721	777.33
621.92	738.19
622.119	831.19
622.318	766.29
622.517	787.21
622.715	774.04
622.914	700.41
623.113	774.04
623.312	698.47
623.511	757.76
623.71	741.29
623.909	743.04
624.107	811.62
624.306	688.4
624.505	724.63
624.704	717.07
624.902	736.45
625.101	802.32
625.3	780.62
625.499	712.23
625.697	753.5
625.896	699.64
626.095	739.16
626.293	691.11
626.492	714.56
626.69	746.14
626.889	726.76
627.088	756.21
627.286	725.41
627.485	707.97
627.683	655.66
627.882	737.03
628.08	658.18
628.279	678.91
628.477	747.11
628.676	661.66
628.874	718.24
629.073	662.63
629.271	691.69
629.469	699.64
629.668	676.19
629.866	658.95
630.065	683.17
630.263	683.94
630.461	679.49
630.66	705.64
630.858	742.26
631.056	718.43
631.254	750.59
631.453	646.16
631.651	694.6
631.849	695.76
632.047	736.84
632.245	696.34
632.444	698.09
632.642	695.18
632.84	746.33
633.038	686.66
633.236	674.06
633.434	668.06
633.632	674.84
633.83	666.89
634.028	702.93
634.227	698.09
634.425	750.01
634.623	694.02
634.821	695.18
635.019	700.22
635.216	696.15
635.414	730.25
635.612	682.01
635.81	663.79
636.008	772.1
636.206	682.98
636.404	697.51
636.602	681.81
636.8	709.52
636.997	714.75
637.195	715.72
637.393	712.04
637.591	780.62
637.789	736.64
637.986	707.39
638.184	721.72
638.382	748.27
638.58	740.91
638.777	751.17
638.975	718.82
639.173	710.87
639.37	699.64
639.568	738
639.765	701.19
639.963	692.86
640.161	723.66
640.358	742.07
640.556	684.91
640.753	660.31
640.951	700.22
641.148	732.19
641.346	679.1
641.543	717.07
641.741	704.67
641.938	664.96
642.136	708.36
642.333	666.89
642.531	718.43
642.728	725.79
642.925	712.81
643.123	668.06
643.32	673.87
643.517	678.71
643.715	684.72
643.912	677.55
644.109	683.17
644.306	664.38
644.504	647.13
644.701	669.8
644.898	696.92
645.095	621.75
645.293	661.47
645.49	692.08
645.687	667.86
645.884	721.72
646.081	632.79
646.278	648.1
646.475	617.88
646.672	626.01
646.87	665.73
647.067	640.16
647.264	665.15
647.461	643.64
647.658	573.51
647.855	670.38
648.052	602.18
648.249	574.48
648.446	578.74
648.642	634.93
648.839	601.6
649.036	615.16
649.233	564.6
649.43	572.15
649.627	548.13
649.824	565.56
650.021	578.55
650.217	584.55
650.414	594.82
650.611	600.63
650.808	598.7
651.004	655.08
651.201	613.23
651.398	657.4
651.595	617.68
651.791	578.55
651.988	618.84
652.185	564.79
652.381	613.42
652.578	577.58
652.775	602.38
652.971	576.8
653.168	595.98
653.364	630.86
653.561	559.36
653.757	597.53
653.954	603.73
654.15	592.3
654.347	643.45
654.543	607.22
654.74	514.03
654.936	546.77
655.133	582.61
655.329	595.4
655.525	567.11
655.722	601.6
655.918	510.54
656.115	595.4
656.311	502.02
656.507	477.99
656.704	430.13
656.9	505.89
657.096	454.16
657.292	484.19
657.489	508.22
657.685	529.53
657.881	511.9
658.077	537.47
658.273	509.18
658.47	602.18
658.666	557.43
658.862	582.42
659.058	519.26
659.254	610.13
659.45	518.29
659.646	563.05
659.842	522.94
660.038	611.87
660.234	522.36
660.43	594.05
660.626	607.61
660.822	601.41
661.018	614
661.214	573.9
661.41	537.28
661.606	598.89
661.802	567.7
661.998	576.03
662.194	540.38
662.39	600.83
662.586	562.08
662.781	592.5
662.977	585.71
663.173	623.88
663.369	558.78
663.564	601.41
663.76	586.49
663.956	563.05
664.152	574.67
664.347	541.15
664.543	535.92
664.739	556.26
664.934	504.53
665.13	510.73
665.326	564.01
665.521	564.21
665.717	528.75
665.912	508.41
666.108	495.62
666.304	535.92
666.499	521.58
666.695	496.59
666.89	518.87
667.086	574.48
667.281	553.75
667.477	599.28
667.672	562.27
667.867	545.03
668.063	545.41
668.258	507.63
668.454	555.68
668.649	622.72
668.844	537.47
669.04	559.75
669.235	536.89
669.43	540.18
669.626	497.56
669.821	523.13
670.016	480.7
670.211	521.39
670.407	517.32
670.602	531.85
670.797	488.26
670.992	534.95
671.187	495.23
671.382	539.21
671.578	494.65
671.773	542.31
671.968	476.05
672.163	533.4
672.358	541.73
672.553	500.66
672.748	517.13
672.943	586.49
673.138	513.45
673.333	549.68
673.528	490.78
673.723	538.25
673.918	512.09
674.113	481.48
674.308	579.13
674.503	522.94
674.698	563.82
674.892	513.06
675.087	537.28
675.282	534.95
675.477	494.65
675.672	525.65
675.867	478.18
676.061	482.64
676.256	457.26
676.451	508.02
676.646	514.42
676.84	510.54
677.035	459.2
677.23	478.38
677.424	524.3
677.619	543.28
677.814	523.52
678.008	537.47
678.203	440.6
678.397	464.62
678.592	488.07
678.787	547.16
678.981	489.23
679.176	493.49
679.37	477.02
679.565	478.38
679.759	435.37
679.954	520.81
680.148	495.82
680.342	549.87
680.537	507.05
680.731	509.18
680.926	522.75
681.12	474.12
681.314	452.61
681.509	477.8
681.703	498.92
681.897	523.52
682.092	476.05
682.286	461.52
682.48	536.31
682.674	534.37
682.869	494.27
683.063	497.56
683.257	539.6
683.451	464.23
683.645	492.91
683.839	488.26
684.034	477.41
684.228	526.62
684.422	423.16
684.616	465.98
684.81	489.23
685.004	463.65
685.198	461.13
685.392	516.93
685.586	446.41
685.78	478.18
685.974	513.45
686.168	513.83
686.362	542.7
686.556	479.15
686.75	399.14
686.944	433.82
687.138	408.24
687.331	383.25
687.525	337.33
687.719	322.99
687.913	332.87
688.107	386.54
688.301	328.61
688.494	385.19
688.688	319.31
688.882	327.64
689.076	316.02
689.269	359.8
689.463	433.04
689.657	353.99
689.85	328.03
690.044	369.3
690.238	354.57
690.431	422.77
690.625	354.38
690.818	398.55
691.012	383.25
691.205	410.76
691.399	376.27
691.593	422
691.786	458.81
691.98	455.71
692.173	475.86
692.366	422
692.56	468.69
692.753	515.77
692.947	384.99
693.14	484.19
693.333	479.93
693.527	422.97
693.72	495.62
693.914	466.95
694.107	451.45
694.3	485.74
694.493	421.03
694.687	514.8
694.88	465.2
695.073	519.06
695.266	516.16
695.46	490
695.653	519.84
695.846	538.25
696.039	465.78
696.232	479.73
696.425	512.28
696.618	547.93
696.812	517.13
697.005	587.46
697.198	647.71
697.391	597.53
697.584	588.81
697.777	656.04
697.97	606.25
698.163	652.36
698.356	594.63
698.549	702.35
698.742	626.01
698.935	599.66
699.127	638.99
699.32	614.97
699.513	589.59
699.706	629.31
699.899	648.29
700.092	606.06
700.285	631.83
700.477	577.19
700.67	640.16
700.863	664.96
701.056	729.47
701.248	698.67
701.441	688.01
701.634	662.83
701.826	752.72
702.019	664.76
702.212	715.52
702.404	638.99
702.597	662.05
702.79	693.24
702.982	710.29
703.175	735.48
703.367	750.79
703.56	748.07
703.752	802.13
703.945	774.62
704.137	764.54
704.33	791.86
704.522	810.07
704.715	823.64
704.907	808.72
705.1	835.26
705.292	836.62
705.484	804.84
705.677	858.51
705.869	852.12
706.061	889.12
706.254	904.43
706.446	890.87
706.638	874.01
706.831	914.89
707.023	875.17
707.215	948.6
707.407	914.7
707.599	921.67
707.792	960.42
707.984	947.83
708.176	973.6
708.368	948.8
708.56	977.47
708.752	989.1
708.944	924.38
709.136	990.65
709.329	985.8
709.521	1073.18
709.713	1023
709.905	1036.18
710.097	1082.29
710.289	1013.9
710.481	1041.02
710.672	1047.8
710.864	1071.05
711.056	1108.64
711.248	1102.63
711.44	1095.27
711.632	1094.11
711.824	1104.38
712.016	1149.91
712.207	1131.31
712.399	1141.96
712.591	1184.2
712.783	1185.56
712.975	1174.9
713.166	1133.44
713.358	1170.25
713.55	1242.13
713.741	1176.45
713.933	1224.69
714.125	1224.5
714.316	1190.98
714.508	1237.87
714.7	1292.5
714.891	1219.46
715.083	1275.84
715.274	1250.27
715.466	1223.92
715.657	1298.32
715.849	1218.49
716.04	1237.48
716.232	1215.59
716.423	1258.21
716.615	1192.34
716.806	1214.23
716.998	1156.3
717.189	1097.01
717.381	1062.14
717.572	1051.09
717.763	1083.64
717.955	1054.78
718.146	1033.66
718.337	1011.96
718.528	970.5
718.72	949.38
718.911	1005.37
719.102	924.77
719.293	1024.16
719.485	981.15
719.676	974.76
719.867	952.87
720.058	966.43
720.249	955.96
720.44	972.82
720.632	1004.98
720.823	1037.92
721.014	1144.09
721.205	1148.16
721.396	1207.84
721.587	1285.53
721.778	1281.65
721.969	1281.27
722.16	1293.86
722.351	1336.87
722.542	1431.81
722.733	1421.93
722.924	1331.25
723.115	1371.36
723.305	1374.07
723.496	1391.51
723.687	1308.39
723.878	1313.62
724.069	1326.8
724.26	1348.5
724.45	1258.79
724.641	1302.97
724.832	1327.38
725.023	1350.24
725.213	1305.48
725.404	1290.95
725.595	1308.39
725.785	1283.4
725.976	1320.4
726.167	1308
726.357	1320.79
726.548	1396.74
726.739	1331.64
726.929	1405.65
727.12	1404.49
727.31	1392.67
727.501	1379.69
727.691	1401.78
727.882	1420.38
728.072	1462.42
728.263	1438.78
728.453	1468.04
728.644	1456.41
728.834	1478.89
729.024	1410.3
729.215	1433.75
729.405	1489.74
729.596	1509.31
729.786	1531.39
729.976	1519.38
730.167	1552.71
730.357	1527.13
730.547	1522.29
730.737	1550.38
730.928	1599.98
731.118	1664.3
731.308	1556.58
731.498	1605.99
731.688	1641.83
731.879	1651.13
732.069	1730.76
732.259	1688.91
732.449	1716.04
732.639	1817.75
732.829	1746.65
733.019	1838.48
733.209	1879.36
733.399	1875.68
733.589	1971.59
733.779	1933.81
733.969	1900.29
734.159	1989.61
734.349	1992.51
734.539	2044.82
734.729	2045.79
734.919	2094.81
735.109	2074.66
735.299	2054.71
735.488	2069.24
735.678	2061.29
735.868	2071.17
736.058	2075.44
736.248	2078.15
736.437	2023.32
736.627	2037.66
736.817	2150.42
737.007	2112.25
737.196	2150.61
737.386	2122.32
737.576	2083.57
737.765	2144.99
737.955	2122.9
738.144	2218.23
738.334	2202.73
738.524	2143.83
738.713	2189.75
738.903	2178.12
739.092	2258.33
739.282	2235.47
739.471	2234.31
739.661	2213.38
739.85	2264.73
740.04	2286.04
740.229	2249.81
740.419	2319.75
740.608	2284.1
740.797	2284.88
740.987	2339.51
741.176	2319.36
741.365	2311.61
741.555	2261.24
741.744	2358.31
741.933	2302.7
742.123	2356.18
742.312	2376.33
742.501	2400.93
742.69	2447.43
742.88	2341.06
743.069	2417.4
743.258	2404.23
743.447	2428.44
743.636	2446.66
743.825	2405.19
744.014	2422.05
744.204	2437.55
744.393	2371.87
744.582	2461.77
744.771	2495.09
744.96	2440.65
745.149	2462.16
745.338	2443.56
745.527	2518.73
745.716	2458.28
745.905	2419.73
746.094	2490.83
746.283	2453.63
746.471	2476.69
746.66	2523.57
746.849	2495.29
747.038	2545.47
747.227	2463.12
747.416	2541.4
747.604	2471.65
747.793	2458.47
747.982	2468.55
748.171	2546.05
748.359	2545.27
748.548	2508.27
748.737	2463.9
748.926	2494.9
749.114	2401.51
749.303	2505.94
749.491	2509.43
749.68	2430.96
749.869	2509.82
750.057	2471.26
750.246	2459.44
750.434	2438.91
750.623	2447.04
750.811	2441.81
751	2474.36
751.188	2438.33
751.377	2476.88
751.565	2453.24
751.754	2417.01
751.942	2439.68
752.131	2476.49
752.319	2454.02
752.507	2382.33
752.696	2492.19
752.884	2459.83
753.072	2437.36
753.261	2462.35
753.449	2439.1
753.637	2408.88
753.825	2502.84
754.014	2443.17
754.202	2446.46
754.39	2473.97
754.578	2491.99
754.766	2429.41
754.955	2403.45
755.143	2497.22
755.331	2432.9
755.519	2424.38
755.707	2434.06
755.895	2380.39
756.083	2442.01
756.271	2370.71
756.459	2394.93
756.647	2448.21
756.835	2394.93
757.023	2414.88
757.211	2403.26
757.399	2355.98
757.587	2384.08
757.775	2350.75
757.963	2349.2
758.151	2349.59
758.339	2361.79
758.526	2303.48
758.714	2328.47
758.902	2264.15
759.09	2178.51
759.278	2034.17
759.465	1899.51
759.653	1651.13
759.841	1474.05
760.028	1263.83
760.216	1091.01
760.404	1050.32
760.591	868.58
760.779	698.67
760.967	631.83
761.154	484.58
761.342	545.61
761.529	525.65
761.717	554.33
761.905	522.16
762.092	600.83
762.28	529.33
762.467	544.64
762.655	504.53
762.842	521.78
763.029	515.77
763.217	521.39
763.404	516.35
763.592	566.15
763.779	498.33
763.966	542.7
764.154	549.68
764.341	597.34
764.528	637.25
764.716	664.18
764.903	710.1
765.09	757.18
765.277	796.32
765.465	898.23
765.652	945.5
765.839	1009.05
766.026	1084.03
766.213	1137.31
766.4	1181.29
766.588	1370.2
766.775	1319.63
766.962	1417.66
767.149	1454.09
767.336	1572.27
767.523	1543.02
767.71	1664.3
767.897	1736.96
768.084	1767.38
768.271	1791.6
768.458	1845.85
768.645	1873.55
768.832	1853.21
769.019	1915.4
769.206	1897
769.392	2000.65
769.579	2070.59
769.766	2016.54
769.953	1992.9
770.14	2082.99
770.327	2049.86
770.513	2096.94
770.7	2135.69
770.887	2081.83
771.073	2134.34
771.26	2050.83
771.447	2080.47
771.634	2072.92
771.82	2161.65
772.007	2063.81
772.193	2109.15
772.38	2132.59
772.567	2093.26
772.753	2129.69
772.94	2164.56
773.126	2144.6
773.313	2136.85
773.499	2132.98
773.686	2196.14
773.872	2070.59
774.059	2142.47
774.245	2080.86
774.432	2058.77
774.618	2045.41
774.804	2130.85
774.991	2039.98
775.177	2121.74
775.363	2066.91
775.55	2119.03
775.736	2075.63
775.922	2045.21
776.109	2118.45
776.295	2068.27
776.481	2068.85
776.667	2084.74
776.853	2040.95
777.04	2055.09
777.226	2077.96
777.412	2099.65
777.598	2029.52
777.784	2053.35
777.97	2040.17
778.156	2057.42
778.342	2031.07
778.528	2015.57
778.715	1939.62
778.901	2001.04
779.087	2017.89
779.272	1961.51
779.458	1975.46
779.644	2044.82
779.83	1978.18
780.016	2082.8
780.202	2005.49
780.388	1983.99
780.574	1927.41
780.76	1958.8
780.946	2014.41
781.131	1979.53
781.317	1975.66
781.503	1947.76
781.689	1964.61
781.874	2043.08
782.06	1940.39
782.246	1966.94
782.432	1965.58
782.617	1978.76
782.803	2006.07
782.989	1899.71
783.174	1904.55
783.36	1886.92
783.545	1970.81
783.731	1919.08
783.916	1816.59
784.102	1941.36
784.288	1911.33
784.473	1906.49
784.659	1879.36
784.844	1912.11
785.029	1853.98
785.215	1867.55
785.4	1821.82
785.586	1894.48
785.771	1827.63
785.956	1900.29
786.142	1847.59
786.327	1830.93
786.512	1821.24
786.698	1819.69
786.883	1755.75
787.068	1810.78
787.254	1828.8
787.439	1793.92
787.624	1796.25
787.809	1798.18
787.994	1761.76
788.18	1846.04
788.365	1751.88
788.55	1750.33
788.735	1765.44
788.92	1736.77
789.105	1733.86
789.29	1794.31
789.475	1676.32
789.66	1731.92
789.845	1694.53
790.03	1692.4
790.215	1766.99
790.4	1761.37
790.585	1790.63
790.77	1717.39
790.955	1634.08
791.14	1715.45
791.325	1737.35
791.51	1649
791.695	1702.09
791.879	1670.5
792.064	1668.18
792.249	1767.96
792.434	1689.69
792.618	1698.21
792.803	1709.25
792.988	1673.99
793.173	1706.74
793.357	1723.4
793.542	1677.09
793.727	1688.33
793.911	1713.71
794.096	1702.86
794.281	1719.14
794.465	1781.91
794.65	1701.7
794.834	1748.78
795.019	1750.13
795.203	1748
795.388	1745.87
795.572	1781.13
795.757	1729.99
795.941	1729.6
796.126	1738.51
796.31	1675.15
796.494	1724.95
796.679	1693.17
796.863	1652.87
797.048	1726.5
797.232	1739.87
797.416	1708.67
797.601	1669.34
797.785	1763.31
797.969	1753.04
798.153	1701.7
798.338	1764.08
798.522	1732.5
798.706	1745.29
798.89	1745.48
799.074	1806.9
799.258	1782.68
799.443	1766.41
799.627	1744.9
799.811	1799.73
799.995	1717
800.179	1714.29
800.363	1744.71
800.547	1728.24
800.731	1792.57
800.915	1689.3
801.099	1677.87
801.283	1711.39
801.467	1713.13
801.651	1711.39
801.835	1748.58
802.019	1725.34
802.202	1736.96
802.386	1694.14
802.57	1647.26
802.754	1707.9
802.938	1668.95
803.121	1682.13
803.305	1729.99
803.489	1697.24
803.673	1736.38
803.856	1725.53
804.04	1714.1
804.224	1752.65
804.407	1709.25
804.591	1720.49
804.775	1719.33
804.958	1707.32
805.142	1793.34
805.326	1701.7
805.509	1742.38
805.693	1739.29
805.876	1741.42
806.06	1732.7
806.243	1757.69
806.427	1774.55
806.61	1778.81
806.794	1694.14
806.977	1782.88
807.16	1748.78
807.344	1758.85
807.527	1723.98
807.71	1735.99
807.894	1738.12
808.077	1756.72
808.26	1660.43
808.444	1696.08
808.627	1749.75
808.81	1682.9
808.993	1645.71
809.177	1637.57
809.36	1643.19
809.543	1713.71
809.726	1585.45
809.909	1616.45
810.092	1601.14
810.276	1605.21
810.459	1628.85
810.642	1610.44
810.825	1572.08
811.008	1606.76
811.191	1499.81
811.374	1524.03
811.557	1519.38
811.74	1589.13
811.923	1506.01
812.106	1476.95
812.289	1466.68
812.472	1492.45
812.654	1515.12
812.837	1424.06
813.02	1413.98
813.203	1413.79
813.386	1323.89
813.569	1325.83
813.751	1279.33
813.934	1308.97
814.117	1309.55
814.3	1255.89
814.482	1239.61
814.665	1223.72
814.848	1216.55
815.03	1124.53
815.213	1132.08
815.396	1151.26
815.578	1116.58
815.761	1097.59
815.943	1150.29
816.126	1087.52
816.309	1067.95
816.491	1002.85
816.674	966.23
816.856	1060.2
817.039	1006.15
817.221	1084.81
817.403	1012.73
817.586	1042.18
817.768	1032.3
817.951	986.38
818.133	966.04
818.315	1035.21
818.498	1055.16
818.68	1116.58
818.862	1054.58
819.045	1078.03
819.227	1078.99
819.409	1059.62
819.591	1073.57
819.774	1059.81
819.956	1046.06
820.138	1083.84
820.32	1081.32
820.502	1118.52
820.684	1185.36
820.866	1177.22
821.048	1232.83
821.231	1212.87
821.413	1199.12
821.595	1202.02
821.777	1167.34
821.959	1202.41
822.141	1220.82
822.323	1121.62
822.505	1073.18
822.686	1077.83
822.868	1025.71
823.05	942.4
823.232	943.57
823.414	874.98
823.596	927.87
823.778	930.58
823.96	950.15
824.141	971.27
824.323	937.95
824.505	1047.8
824.687	1058.26
824.868	1051.09
825.05	1168.7
825.232	1159.01
825.413	1231.67
825.595	1163.47
825.777	1111.93
825.958	1175.09
826.14	1125.88
826.321	1184.59
826.503	1128.21
826.685	1210.55
826.866	1184.78
827.048	1187.88
827.229	1147.58
827.411	1108.64
827.592	1068.53
827.773	1090.23
827.955	1068.73
828.136	1043.93
828.318	1014.86
828.499	1067.56
828.68	1004.98
828.862	1059.43
829.043	1067.18
829.224	1038.11
829.406	1006.34
829.587	1037.92
829.768	984.83
829.949	1058.65
830.131	1010.99
830.312	1062.72
830.493	1060.98
830.674	1075.12
830.855	1014.67
831.036	1021.06
831.218	1083.26
831.399	1096.04
831.58	1070.28
831.761	1070.66
831.942	1048.58
832.123	1039.86
832.304	1000.72
832.485	1011.38
832.666	1015.83
832.847	1086.55
833.028	1007.11
833.209	1056.91
833.389	1049.74
833.57	996.07
833.751	1014.28
833.932	1083.84
834.113	1046.06
834.294	1028.81
834.475	1094.3
834.655	1084.81
834.836	1079.19
835.017	1107.09
835.198	1010.99
835.378	1066.79
835.559	1105.15
835.74	1056.52
835.92	1046.44
836.101	1037.53
836.281	1082.09
836.462	1097.4
836.643	1117.55
836.823	1077.44
837.004	1097.4
837.184	1147.39
837.365	1114.45
837.545	1112.32
837.726	1079.96
837.906	1134.6
838.087	1108.25
838.267	1094.88
838.448	1051.29
838.628	1079.96
838.808	1124.14
838.989	1159.01
839.169	1101.08
839.349	1113.29
839.53	1119.1
839.71	1125.88
839.89	1091.39
840.07	1128.59
840.251	1083.06
840.431	1133.24
840.611	1126.27
840.791	1056.71
840.971	1083.84
841.151	1086.94
841.332	1075.89
841.512	1136.34
841.692	1050.13
841.872	1113.68
842.052	1066.21
842.232	1120.84
842.412	1045.48
842.592	1080.35
842.772	1085.97
842.952	1083.84
843.132	1066.21
843.312	1071.05
843.492	1025.71
843.672	1067.56
843.851	1016.61
844.031	1068.53
844.211	1044.89
844.391	1032.3
844.571	1078.03
844.751	1087.71
844.93	1082.48
845.11	1063.11
845.29	1084.81
845.47	1097.21
845.649	1050.51
845.829	1049.16
846.009	1059.04
846.188	1085.58
846.368	1050.9
846.547	1022.42
846.727	1086.55
846.907	1000.91
847.086	1058.07
847.266	1098.37
847.445	1064.85
847.625	1025.91
847.804	1027.46
847.984	1051.48
848.163	996.07
848.343	1014.67
848.522	1054.19
848.701	1029.4
848.881	982.12
849.06	1030.17
849.239	1032.5
849.419	1022.23
849.598	970.88
849.777	994.33
849.957	1008.08
850.136	930.2
850.315	922.06
850.494	941.43
850.674	925.55
850.853	981.54
851.032	963.33
851.211	1000.33
851.39	980.38
851.569	929.23
851.748	931.17
851.927	995.68
852.107	942.79
852.286	970.69
852.465	920.32
852.644	990.45
852.823	969.14
853.002	959.06
853.181	937.75
853.359	966.62
853.538	927.29
853.717	986
853.896	888.35
854.075	837.78
854.254	818.6
854.433	769.97
854.611	863.35
854.79	780.62
854.969	851.54
855.148	866.07
855.327	829.64
855.505	854.83
855.684	851.54
855.863	871.68
856.041	838.17
856.22	874.2
856.399	833.32
856.577	928.84
856.756	877.69
856.934	1000.53
857.113	1044.31
857.291	920.12
857.47	921.48
857.648	919.73
857.827	899
858.005	953.25
858.184	897.07
858.362	976.7
858.541	899
858.719	938.14
858.898	888.35
859.076	890.48
859.254	944.92
859.433	891.06
859.611	881.76
859.789	869.36
859.967	962.94
860.146	968.17
860.324	862.19
860.502	871.49
860.68	848.63
860.859	853.09
861.037	880.4
861.215	893.77
861.393	892.42
861.571	898.81
861.749	856.96
861.927	909.08
862.105	898.81
862.283	863.55
862.461	837
862.639	830.42
862.817	844.75
862.995	870.72
863.173	862.39
863.351	845.92
863.529	853.86
863.707	895.13
863.885	877.5
864.063	790.89
864.241	829.84
864.418	896.68
864.596	814.34
864.774	806.59
864.952	837
865.129	854.25
865.307	834.1
865.485	784.89
865.663	859.48
865.84	786.24
866.018	804.45
866.196	713.39
866.373	738.19
866.551	713.2
866.728	638.03
866.906	691.69
867.084	703.12
867.261	754.86
867.439	787.21
867.616	774.04
867.794	739.16
867.971	784.11
868.149	744.2
868.326	804.65
868.503	790.31
868.681	764.16
868.858	752.53
869.035	729.28
869.213	819.57
869.39	774.42
869.567	829.45
869.745	736.45
869.922	768.22
870.099	814.53
870.276	826.93
870.454	778.3
870.631	788.76
870.808	742.84
870.985	780.43
871.162	848.44
871.339	780.24
871.517	730.06
871.694	723.27
871.871	762.99
872.048	757.96
872.225	751.76
872.402	740.52
872.579	727.92
872.756	751.17
872.933	686.46
873.11	727.73
873.287	781.01
873.463	739.55
873.64	720.56
873.817	753.31
873.994	752.34
874.171	724.05
874.348	725.41
874.524	681.04
874.701	755.63
874.878	655.08
875.055	725.02
875.231	718.24
875.408	756.41
875.585	675.03
875.762	708.16
875.938	692.86
876.115	701.19
876.291	701.77
876.468	717.85
876.645	656.63
876.821	716.69
876.998	686.46
877.174	754.86
877.351	685.11
877.527	654.3
877.704	726.37
877.88	675.03
878.057	684.33
878.233	721.53
878.409	695.18
878.586	683.75
878.762	688.01
878.938	708.16
879.115	598.89
879.291	691.89
879.467	630.08
879.644	646.74
879.82	689.37
879.996	651.2
880.172	633.76
880.349	700.02
880.525	676.58
880.701	631.05
880.877	624.66
881.053	657.01
881.229	598.5
881.405	666.12
881.581	623.69
881.757	616.91
881.933	652.75
882.109	643.45
882.285	637.44
882.461	593.85
882.637	646.94
882.813	605.86
882.989	616.52
883.165	697.12
883.341	590.75
883.517	675.61
883.693	652.36
883.869	658.95
884.044	599.66
884.22	671.74
884.396	680.65
884.572	647.91
884.747	668.25
884.923	626.01
885.099	661.86
885.275	673.48
885.45	626.21
885.626	615.55
885.801	622.14
885.977	616.52
886.153	568.47
886.328	631.24
886.504	614.19
886.679	679.49
886.855	586.88
887.03	662.05
887.206	670.77
887.381	646.55
887.557	656.24
887.732	617.68
887.908	659.14
888.083	641.71
888.258	636.28
888.434	620.98
888.609	621.94
888.784	662.24
888.96	595.21
889.135	627.95
889.31	587.65
889.485	640.74
889.661	607.41
889.836	658.76
890.011	648.1
890.186	609.35
890.361	621.17
890.537	630.28
890.712	631.44
890.887	627.56
891.062	598.89
891.237	683.56
891.412	620.78
891.587	667.67
891.762	647.33
891.937	665.15
892.112	588.62
892.287	627.18
892.462	573.51
892.637	567.31
892.812	550.45
892.987	574.09
893.161	575.25
893.336	560.91
893.511	559.56
893.686	586.88
893.861	555.3
894.035	573.12
894.21	569.63
894.385	521.58
894.56	550.65
894.734	491.94
894.909	506.47
895.084	556.65
895.258	496.98
895.433	556.65
895.608	495.04
895.782	432.27
895.957	482.45
896.131	465.78
896.306	417.15
896.48	437.11
896.655	459.58
896.829	380.73
897.004	392.35
897.178	396.42
897.353	411.34
897.527	424.71
897.701	412.5
897.876	368.52
898.05	449.32
898.224	418.9
898.399	444.08
898.573	415.22
898.747	295.67
898.921	393.9
899.096	294.12
899.27	335.01
899.444	303.81
899.618	334.42
899.792	332.68
899.967	370.27
900.141	358.06
900.315	336.36
900.489	347.99
900.663	357.29
900.837	359.42
901.011	271.26
901.185	396.42
901.359	342.75
901.533	344.3
901.707	357.87
901.881	358.64
902.055	315.63
902.229	342.95
902.403	399.91
902.576	342.56
902.75	379.95
902.924	455.9
903.098	422.19
903.272	393.13
903.446	440.6
903.619	429.36
903.793	445.44
903.967	441.76
904.14	477.22
904.314	476.44
904.488	453.77
904.661	467.53
904.835	447.18
905.009	487.1
905.182	509.96
905.356	484.58
905.529	481.87
905.703	428.2
905.876	420.84
906.05	410.95
906.223	418.7
906.397	361.74
906.57	363.68
906.744	332.68
906.917	378.79
907.09	364.65
907.264	357.87
907.437	340.43
907.61	301.87
907.784	346.05
907.957	348.18
908.13	321.25
908.304	361.55
908.477	274.75
908.65	337.33
908.823	275.52
908.996	343.14
909.17	283.86
909.343	298.19
909.516	311.17
909.689	312.14
909.862	275.14
910.035	322.22
910.208	259.44
910.381	294.9
910.554	368.91
910.727	289.86
910.9	303.23
911.073	294.9
911.246	330.16
911.419	335.97
911.592	307.88
911.765	289.09
911.938	301.49
912.11	332.1
912.283	289.28
912.456	338.88
912.629	300.71
912.802	294.71
912.974	234.45
913.147	237.74
913.32	180.39
913.493	254.6
913.665	287.34
913.838	281.92
914.01	268.16
914.183	265.06
914.356	243.56
914.528	280.37
914.701	312.53
914.873	282.89
915.046	274.75
915.218	224.18
915.391	196.28
915.563	206.55
915.736	249.56
915.908	273.01
916.081	262.54
916.253	244.33
916.425	263.12
916.598	277.07
916.77	229.61
916.942	240.46
917.115	179.04
917.287	280.17
917.459	272.81
917.632	239.88
917.804	163.15
917.976	207.13
918.148	239.1
918.32	218.76
918.493	266.03
918.665	325.32
918.837	246.27
919.009	322.41
919.181	314.08
919.353	258.47
919.525	274.56
919.697	295.67
919.869	286.18
920.041	320.28
920.213	353.99
920.385	296.26
920.557	261.19
920.729	283.86
920.901	298.39
921.073	282.69
921.244	257.89
921.416	316.21
921.588	314.27
921.76	277.66
921.932	339.46
922.103	265.64
922.275	269.71
922.447	282.31
922.619	206.94
922.79	267.58
922.962	273.97
923.134	281.53
923.305	247.82
923.477	193.18
923.648	233.48
923.82	255.37
923.991	193.57
924.163	203.84
924.335	212.17
924.506	228.25
924.677	259.83
924.849	212.17
925.02	235.23
925.192	283.66
925.363	256.34
925.535	245.69
925.706	224.76
925.877	286.96
926.049	207.13
926.22	245.11
926.391	230.38
926.562	252.08
926.734	202.87
926.905	258.67
927.076	182.14
927.247	199.38
927.419	155.4
927.59	200.93
927.761	185.63
927.932	173.42
928.103	209.46
928.274	151.72
928.445	174.97
928.616	161.21
928.787	146.49
928.958	204.81
929.129	173.61
929.3	170.13
929.471	127.89
929.642	87.2
929.813	69.57
929.984	152.88
930.155	56.59
930.326	125.18
930.496	84.49
930.667	37.6
930.838	93.21
931.009	64.34
931.18	88.17
931.35	62.21
931.521	94.76
931.692	35.86
931.863	23.27
932.033	89.72
932.204	88.36
932.374	94.37
932.545	52.52
932.716	65.89
932.886	73.25
933.057	9.32
933.227	24.23
933.398	110.06
933.568	22.3
933.739	3.7
933.909	11.64
934.08	59.88
934.25	-9.09
934.421	13.58
934.591	41.28
934.761	15.13
934.932	-23.43
935.102	-1.92
935.272	20.36
935.443	18.62
935.613	13.77
935.783	27.92
935.953	-13.74
936.123	132.73
936.294	-37.57
936.464	-1.15
936.634	0.21
936.804	-26.91
936.974	-14.13
937.144	38.38
937.314	28.88
937.484	7.77
937.655	0.02
937.825	59.3
937.995	-24.78
938.165	60.08
938.334	24.82
938.504	21.52
938.674	-15.29
938.844	6.02
939.014	66.86
939.184	40.12
939.354	70.35
939.524	76.16
939.694	42.83
939.863	36.83
940.033	94.18
940.203	64.53
940.373	46.13
940.542	71.9
940.712	17.65
940.882	47.1
941.051	94.95
941.221	45.16
941.391	70.93
941.56	41.28
941.73	16.68
941.899	138.35
942.069	36.05
942.238	58.72
942.408	28.88
942.577	54.85
942.747	27.92
942.916	-5.02
943.086	25.59
943.255	60.85
943.425	41.87
943.594	46.32
943.763	1.37
943.933	11.25
944.102	-18.2
944.271	27.72
944.441	48.45
944.61	25.4
944.779	21.13
944.948	90.3
945.117	-17.23
945.287	4.86
945.456	-38.93
945.625	-2.31
945.794	60.66
945.963	4.86
946.132	37.41
946.301	5.63
946.47	69.18
946.639	-4.05
946.808	2.53
946.977	41.87
947.146	96.5
947.315	11.83
947.484	81.2
947.653	27.14
947.822	13.77
947.991	-22.46
948.16	87.98
948.329	68.41
948.498	11.64
948.666	7.38
948.835	70.15
949.004	-21.68
949.173	16.1
949.341	40.9
949.51	36.44
949.679	72.87
949.847	79.65
950.016	101.54
950.185	72.87
950.353	16.68
950.522	36.83
950.69	70.73
950.859	-7.93
951.028	63.57
951.196	48.65
951.365	7.38
951.533	36.44
951.701	71.9
951.87	62.4
952.038	-18.58
952.207	29.85
952.375	85.26
952.543	35.86
952.712	40.32
952.88	7.18
953.048	79.65
953.217	20.55
953.385	29.66
953.553	87.98
953.721	-10.83
953.89	32.57
954.058	6.02
954.226	26.37
954.394	46.32
954.562	-1.73
954.73	29.08
954.898	22.88
955.067	50.2
955.235	30.63
955.403	67.05
955.571	105.8
955.739	44.58
955.907	13
956.075	-10.06
956.243	7.96
956.41	60.85
956.578	11.45
956.746	-17.81
956.914	16.29
957.082	59.3
957.25	56.78
957.418	5.44
957.585	21.13
957.753	80.81
957.921	22.88
958.089	35.47
958.256	45.35
958.424	48.45
958.592	53.68
958.759	6.22
958.927	54.27
959.095	34.89
959.262	24.62
959.43	40.7
959.597	-1.73
959.765	37.6
959.932	14.55
960.1	39.73
960.267	38.57
960.435	28.88
960.602	55.04
960.77	13.38
960.937	-17.61
961.104	17.45
961.272	10.28
961.439	18.23
961.606	58.92
961.774	51.17
961.941	45.55
962.108	34.5
962.275	13.58
962.443	62.4
962.61	65.5
962.777	128.86
962.944	32.76
963.111	40.32
963.278	39.35
963.446	61.43
963.613	37.8
963.78	55.82
963.947	59.5
964.114	68.99
964.281	111.03
964.448	40.7
964.615	19.78
964.782	54.65
964.949	56.98
965.116	67.25
965.282	97.28
965.449	40.9
965.616	20.75
965.783	60.85
965.95	33.34
966.117	27.72
966.283	35.28
966.45	60.27
966.617	21.52
966.784	86.43
966.95	77.9
967.117	80.61
967.284	24.23
967.45	9.51
967.617	98.83
967.784	75.77
967.95	99.02
968.117	47.87
968.283	94.18
968.45	134.28
968.616	72.87
968.783	92.82
968.949	60.85
969.116	110.65
969.282	56.2
969.449	58.92
969.615	51.36
969.781	6.99
969.948	62.02
970.114	0.98
970.28	74.8
970.447	29.47
970.613	82.75
970.779	44
970.945	66.08
971.112	70.73
971.278	31.79
971.444	57.37
971.61	105.8
971.776	31.98
971.942	72.67
972.108	78.29
972.275	43.22
972.441	87.78
972.607	108.32
972.773	35.47
972.939	71.9
973.105	50.78
973.271	1.18
973.437	63.95
973.602	20.94
973.768	56.2
973.934	29.08
974.1	62.02
974.266	12.8
974.432	78.87
974.598	42.45
974.763	73.25
974.929	48.65
975.095	106
975.261	12.22
975.426	27.72
975.592	53.3
975.758	93.4
975.923	-17.42
976.089	33.73
976.255	73.83
976.42	60.47
976.586	89.91
976.751	57.56
976.917	122.27
977.082	59.88
977.248	22.88
977.413	-17.42
977.579	39.15
977.744	62.4
977.91	16.29
978.075	27.33
978.24	71.51
978.406	67.44
978.571	50.39
978.736	29.08
978.902	69.96
979.067	0.79
979.232	-15.1
979.397	52.13
979.563	96.7
979.728	34.7
979.893	43.61
980.058	23.65
980.223	69.38
980.388	34.12
980.554	54.46
980.719	13.77
980.884	57.56
981.049	87.78
981.214	45.55
981.379	40.32
981.544	34.89
981.709	18.03
981.874	54.46
982.039	49.23
982.204	76.55
982.368	39.35
982.533	9.51
982.698	38.77
982.863	101.54
983.028	33.34
983.193	73.83
983.357	40.12
983.522	46.13
983.687	52.52
983.852	55.62
984.016	39.73
984.181	74.22
984.346	44
984.51	57.95
984.675	43.42
984.839	45.35
985.004	40.12
985.168	87.01
985.333	65.89
985.498	45.16
985.662	87.59
985.827	43.03
985.991	41.48
986.155	51.36
986.32	73.45
986.484	116.07
986.649	76.16
986.813	22.68
986.977	47.1
987.142	36.83
987.306	19.39
987.47	27.14
987.634	58.72
987.799	43.42
987.963	68.99
988.127	75.97
988.291	97.47
988.455	61.82
988.62	69.77
988.784	79.26
988.948	82.55
989.112	19.39
989.276	62.98
989.44	24.04
989.604	27.33
989.768	39.73
989.932	124.6
990.096	6.02
990.26	15.13
990.424	22.49
990.588	29.85
990.752	103.67
990.915	62.98
991.079	20.75
991.243	26.17
991.407	51.17
991.571	24.82
991.734	67.63
991.898	68.02
992.062	117.23
992.226	37.6
992.389	25.2
992.553	-3.28
992.717	48.07
992.88	43.8
993.044	54.27
993.207	38.96
993.371	67.05
993.535	85.46
993.698	56.59
993.862	64.53
994.025	90.5
994.189	57.17
994.352	41.28
994.515	76.93
994.679	92.43
994.842	39.15
995.006	62.21
995.169	-0.18
995.332	-0.76
995.496	64.53
995.659	-18.78
995.822	43.61
995.985	27.33
996.149	82.94
996.312	34.12
996.475	80.23
996.638	38.96
996.801	99.02
996.964	96.5
997.128	44
997.291	52.91
997.454	46.32
997.617	6.99
997.78	77.32
997.943	36.83
998.106	69.38
998.269	18.23
998.432	20.36
998.595	15.9
998.758	-12.38
998.92	19
999.083	20.94
999.246	36.83
999.409	18.81
999.572	10.09
999.735	35.86
999.897	55.23
1000.06	32.37
1000.223	14.93
1000.386	41.67
1000.548	57.37
1000.711	43.8
1000.874	48.45
1001.036	-1.34
1001.199	72.28
1001.361	26.37
1001.524	18.42
1001.687	50
1001.849	13.38
1002.012	27.72
1002.174	53.1
1002.337	57.37
1002.499	37.02
1002.661	54.27
1002.824	-4.25
1002.986	27.33
1003.149	42.64
1003.311	-12.96
1003.473	80.23
1003.636	13
1003.798	56.98
1003.96	45.74
1004.123	42.06
1004.285	-9.48
1004.447	34.31
1004.609	26.56
1004.771	83.91
1004.933	-15.48
1005.096	24.82
1005.258	-5.6
1005.42	25.4
1005.582	69.77
1005.744	45.35
1005.906	-11.03
1006.068	48.45
1006.23	13.97
1006.392	-6.57
1006.554	-13.93
1006.716	44.19
1006.878	42.45
1007.04	-13.35
1007.202	-9.09
1007.363	37.02
1007.525	15.52
1007.687	30.24
1007.849	83.52
1008.011	-24.98
1008.172	-14.32
1008.334	13.58
1008.496	26.95
1008.658	-28.85
1008.819	17.84
1008.981	-16.84
1009.143	-3.86
1009.304	11.06
1009.466	31.79
1009.627	90.69
1009.789	95.34
1009.95	12.61
1010.112	-6.57
1010.273	54.65
1010.435	-11.41
1010.596	14.93
1010.758	25.78
1010.919	11.25
1011.081	-14.9
1011.242	24.23
1011.403	56.59
1011.565	14.16
1011.726	33.73
1011.887	1.76
1012.049	13.19
1012.21	57.95
1012.371	55.43
1012.532	-21.68
1012.693	16.87
1012.855	-3.67
1013.016	2.15
1013.177	38.77
1013.338	8.73
1013.499	63.37
1013.66	64.34
1013.821	32.18
1013.982	18.23
1014.143	14.93
1014.304	-5.22
1014.465	42.45
1014.626	34.5
1014.787	5.83
1014.948	82.55
1015.109	-39.12
1015.27	31.21
1015.431	-14.9
1015.592	0.21
1015.752	40.51
1015.913	31.98
1016.074	34.5
1016.235	25.98
1016.395	13
1016.556	30.82
1016.717	4.47
1016.877	51.94
1017.038	-2.31
1017.199	37.6
1017.359	32.37
1017.52	40.9
1017.681	11.45
1017.841	29.27
1018.002	-10.25
1018.162	5.25
1018.323	55.23
1018.483	-8.7
1018.644	5.44
1018.804	-15.29
1018.964	-26.53
1019.125	0.98
1019.285	17.84
1019.446	-21.3
1019.606	-0.57
1019.766	-30.01
1019.926	33.73
1020.087	17.26
1020.247	-21.1
1020.407	37.8
1020.567	53.3
1020.728	-16.06
1020.888	-31.56
1021.048	4.08
1021.208	11.83
1021.368	-30.98
1021.528	55.04
1021.688	22.88
1021.848	29.08
1022.008	47.68
1022.168	-9.86
1022.328	26.75
1022.488	21.33
1022.648	11.45
1022.808	15.71
1022.968	43.61
1023.128	5.44
1023.288	-5.99
1023.448	19
1023.608	22.49
1023.767	17.45
1023.927	-5.22
1024.087	-18.2
1024.247	-5.8
1024.406	-10.83
1024.566	-34.08
1024.726	-6.57
1024.885	20.75
1025.045	39.73
1025.205	13
1025.364	3.89
1025.524	12.03
1025.683	-11.03
1025.843	0.4
1026.003	30.24
1026.162	46.52
1026.321	28.88
1026.481	5.63
1026.64	15.32
1026.8	26.75
1026.959	4.86
1027.119	9.7
1027.278	27.33
1027.437	-10.64
1027.597	8.15
1027.756	27.53
1027.915	13
1028.074	29.08
1028.234	-20.13
1028.393	27.72
1028.552	-7.15
1028.711	-47.45
1028.87	68.02
1029.03	-32.34
1029.189	5.05
1029.348	-40.67
1029.507	-8.12
1029.666	-22.65
1029.825	-28.46
1029.984	-25.36
1030.143	18.03
1030.302	8.73
1030.461	-53.07
1030.62	8.73
1030.779	18.03
1030.938	-25.56
1031.097	-30.21
1031.255	48.26
1031.414	71.32
1031.573	30.24
1031.732	-55.78
1031.891	3.12
1032.049	45.55
1032.208	21.91
1032.367	-13.55
1032.525	-5.8
1032.684	13.38
1032.843	13
1033.001	-52.1
1033.16	135.06
1033.319	50.2
1033.477	12.22
1033.636	-3.08
1033.794	-25.95
1033.953	6.41
1034.111	32.57
1034.27	3.12
1034.428	-5.8
1034.587	-55.98
1034.745	2.73
1034.903	9.32
1035.062	6.6
1035.22	-23.04
1035.378	17.45
1035.537	-22.26
1035.695	26.56
1035.853	9.32
1036.011	52.52
1036.17	3.12
1036.328	-36.6
1036.486	7.57
1036.644	25.98
1036.802	-55.4
1036.96	-15.87
1037.119	11.45
1037.277	-2.12
1037.435	-29.05
1037.593	-8.51
1037.751	-9.28
1037.909	28.5
1038.067	28.5
