Data from oakcork_FLMT105791__197__17-32-10-057.txt Node

Date: Mon Mar 20 17:32:10 GMT 2023
User: antho
Spectrometer: FLMT10579
Trigger mode: 0
Integration Time (sec): 1.000000E-1
Scans to average: 10
Electric dark correction enabled: true
Nonlinearity correction enabled: false
Boxcar width: 0
XAxis mode: Wavelengths
Number of Pixels in Spectrum: 3648
>>>>>Begin Spectral Data<<<<<
345.248	-147.59
345.464	-147.59
345.681	-147.59
345.898	-162.51
346.114	-161.92
346.331	-40.25
346.548	42.67
346.764	18.84
346.981	-16.61
347.197	-3.44
347.414	3.73
347.631	-19.71
347.847	56.62
348.064	0.44
348.28	18.45
348.497	-51.49
348.713	-9.25
348.93	45
349.146	10.51
349.363	8.38
349.579	-2.28
349.796	-16.03
350.012	-1.5
350.229	32.21
350.445	29.69
350.661	-11.38
350.878	0.63
351.094	-1.11
351.311	28.92
351.527	33.95
351.743	-12.74
351.96	36.86
352.176	5.47
352.392	33.76
352.609	38.8
352.825	-11.38
353.041	15.74
353.257	-4.6
353.474	-8.86
353.69	4.5
353.906	11.29
354.122	-25.72
354.339	52.75
354.555	9.93
354.771	-7.51
354.987	37.64
355.203	57.01
355.42	-9.45
355.636	-6.35
355.852	-10.61
356.068	7.8
356.284	-44.9
356.5	63.21
356.716	0.24
356.932	-24.17
357.148	22.52
357.364	-12.35
357.58	32.4
357.796	35.89
358.012	47.71
358.228	10.7
358.444	-30.95
358.66	43.45
358.876	33.57
359.092	5.67
359.308	6.83
359.524	13.61
359.74	-14.29
359.956	-27.27
360.172	9.74
360.388	48.68
360.604	-33.08
360.819	63.02
361.035	4.89
361.251	37.44
361.467	-1.7
361.683	23.49
361.898	12.45
362.114	54.88
362.33	31.82
362.546	44.03
362.762	8.19
362.977	-4.21
363.193	4.89
363.409	17.49
363.624	-11.19
363.84	-10.22
364.056	-32.31
364.271	16.9
364.487	37.44
364.703	10.9
364.918	-36.76
365.134	-3.25
365.35	1.21
365.565	100.22
365.781	-1.5
365.996	32.99
366.212	62.05
366.427	6.64
366.643	3.73
366.858	0.44
367.074	-11
367.289	37.83
367.505	103.7
367.72	-34.44
367.936	-11.19
368.151	35.7
368.367	29.5
368.582	21.36
368.798	-29.21
369.013	47.9
369.228	8.57
369.444	16.13
369.659	66.12
369.874	23.3
370.09	69.8
370.305	-42.77
370.52	-9.83
370.736	63.21
370.951	6.05
371.166	53.52
371.381	87.43
371.597	40.74
371.812	-12.16
372.027	-1.5
372.242	-3.63
372.458	75.03
372.673	6.44
372.888	46.74
373.103	36.86
373.318	80.26
373.533	23.1
373.749	23.88
373.964	-25.14
374.179	55.07
374.394	-21.65
374.609	59.72
374.824	-22.62
375.039	38.02
375.254	6.05
375.469	57.4
375.684	49.65
375.899	59.53
376.114	14.97
376.329	32.4
376.544	49.84
376.759	55.65
376.974	-7.9
377.189	10.9
377.404	21.17
377.619	47.71
377.834	-32.31
378.049	-1.31
378.264	-33.66
378.478	12.64
378.693	0.05
378.908	20.78
379.123	7.99
379.338	68.25
379.553	31.63
379.767	19.81
379.982	42.09
380.197	32.02
380.412	15.16
380.626	38.8
380.841	91.3
381.056	39.38
381.271	62.05
381.485	-11.96
381.7	-22.43
381.915	3.73
382.129	17.87
382.344	41.7
382.559	7.22
382.773	42.67
382.988	-42.58
383.202	36.47
383.417	-9.06
383.632	90.14
383.846	38.8
384.061	7.8
384.275	14.39
384.49	35.89
384.704	35.89
384.919	42.29
385.133	43.06
385.348	27.37
385.562	-11.19
385.777	18.84
385.991	26.01
386.206	24.65
386.42	20.78
386.634	20.78
386.849	41.9
387.063	16.9
387.277	-2.66
387.492	13.61
387.706	-10.61
387.92	2.95
388.135	37.05
388.349	28.53
388.563	48.49
388.778	23.88
388.992	42.87
389.206	33.57
389.42	86.27
389.635	16.32
389.849	46.35
390.063	49.26
390.277	29.11
390.491	65.34
390.706	30.85
390.92	55.65
391.134	29.5
391.348	37.44
391.562	-23.39
391.776	17.1
391.99	5.28
392.205	59.72
392.419	10.9
392.633	31.24
392.847	63.79
393.061	9.74
393.275	74.64
393.489	26.79
393.703	35.31
393.917	69.99
394.131	5.47
394.345	51.78
394.559	61.27
394.773	36.28
394.986	39.57
395.2	32.99
395.414	59.53
395.628	-0.92
395.842	33.57
396.056	14
396.27	-20.49
396.484	53.52
396.697	30.66
396.911	64.57
397.125	53.91
397.339	66.31
397.553	34.34
397.766	90.33
397.98	64.76
398.194	92.85
398.408	41.9
398.621	63.21
398.835	76.77
399.049	32.4
399.262	102.15
399.476	79.29
399.69	53.72
399.903	116.3
400.117	22.14
400.331	69.6
400.544	-4.41
400.758	152.53
400.971	59.53
401.185	58.75
401.398	24.85
401.612	88.59
401.826	64.37
402.039	65.92
402.253	51.97
402.466	72.9
402.68	48.1
402.893	44.22
403.106	50.81
403.32	26.01
403.533	65.34
403.747	40.54
403.96	62.24
404.174	61.85
404.387	31.82
404.6	53.33
404.814	102.93
405.027	39.96
405.24	36.28
405.454	38.99
405.667	105.45
405.88	14.39
406.094	41.32
406.307	80.65
406.52	45.97
406.733	36.47
406.947	14.58
407.16	115.52
407.373	81.81
407.586	41.9
407.799	19.81
408.012	99.25
408.226	58.37
408.439	77.74
408.652	33.95
408.865	64.76
409.078	86.27
409.291	82.97
409.504	36.09
409.717	56.24
409.93	55.85
410.143	67.08
410.357	10.12
410.57	8.77
410.783	59.34
410.996	76
411.209	66.12
411.421	97.12
411.634	60.69
411.847	18.07
412.06	63.6
412.273	43.25
412.486	97.31
412.699	153.88
412.912	61.47
413.125	104.87
413.338	52.55
413.55	60.3
413.763	77.93
413.976	79.29
414.189	52.36
414.402	53.33
414.615	98.86
414.827	19.81
415.04	100.02
415.253	69.6
415.466	98.47
415.678	127.53
415.891	49.65
416.104	85.88
416.316	59.92
416.529	34.54
416.742	88.98
416.954	93.82
417.167	60.3
417.38	39.57
417.592	95.76
417.805	59.53
418.017	7.99
418.23	86.85
418.442	66.89
418.655	53.52
418.868	62.24
419.08	96.73
419.293	89.37
419.505	82.97
419.718	80.07
419.93	85.49
420.142	53.14
420.355	113.58
420.567	109.9
420.78	75.03
420.992	58.37
421.205	103.12
421.417	30.66
421.629	52.17
421.842	40.93
422.054	6.44
422.266	81.42
422.479	109.71
422.691	48.68
422.903	82.58
423.115	53.91
423.328	73.87
423.54	87.82
423.752	83.75
423.964	46.35
424.177	97.89
424.389	44.22
424.601	165.12
424.813	67.86
425.025	115.33
425.238	113.97
425.45	61.08
425.662	57.2
425.874	340.07
426.086	89.37
426.298	118.23
426.51	101.77
426.722	73.87
426.934	66.12
427.146	116.1
427.358	31.44
427.57	106.22
427.782	64.76
427.994	79.1
428.206	59.53
428.418	22.91
428.63	93.82
428.842	104.28
429.054	97.7
429.266	109.13
429.478	59.53
429.69	61.08
429.902	43.84
430.114	83.17
430.325	90.72
430.537	68.05
430.749	59.72
430.961	32.79
431.173	82.97
431.384	72.9
431.596	11.09
431.808	88.4
432.02	76.19
432.231	93.63
432.443	119.98
432.655	79.48
432.867	61.85
433.078	96.92
433.29	132.18
433.502	118.04
433.713	120.95
433.925	64.57
434.136	126.95
434.348	45.19
434.56	39.38
434.771	181.4
434.983	53.72
435.194	44.8
435.406	69.99
435.617	109.52
435.829	137.42
436.04	116.3
436.252	119.78
436.463	126.76
436.675	95.95
436.886	87.62
437.098	94.79
437.309	147.1
437.521	92.27
437.732	112.23
437.943	111.26
438.155	89.17
438.366	54.69
438.578	139.74
438.789	111.65
439	143.23
439.211	85.68
439.423	116.1
439.634	120.56
439.845	117.46
440.057	126.57
440.268	147.68
440.479	76.38
440.69	118.43
440.902	113.39
441.113	118.43
441.324	88.59
441.535	125.98
441.746	153.69
441.957	54.3
442.168	96.53
442.38	108.55
442.591	130.83
442.802	67.08
443.013	70.77
443.224	144.39
443.435	124.43
443.646	106.03
443.857	110.29
444.068	93.24
444.279	109.9
444.49	156.98
444.701	107.38
444.912	193.41
445.123	127.15
445.334	126.76
445.545	136.64
445.756	128.5
445.967	89.17
446.178	128.12
446.388	119.78
446.599	170.74
446.81	132.57
447.021	87.43
447.232	146.72
447.443	198.83
447.653	85.1
447.864	141.1
448.075	112.81
448.286	149.62
448.496	138.77
448.707	152.53
448.918	132.96
449.129	192.05
449.339	100.6
449.55	131.99
449.761	113.97
449.971	167.06
450.182	119.59
450.393	149.82
450.603	134.51
450.814	122.5
451.024	150.59
451.235	167.25
451.446	187.4
451.656	174.61
451.867	131.02
452.077	122.88
452.288	186.82
452.498	193.99
452.709	144.2
452.919	162.21
453.13	100.41
453.34	158.34
453.55	85.3
453.761	160.66
453.971	172.1
454.182	160.28
454.392	154.46
454.602	184.69
454.813	166.28
455.023	150.98
455.233	110.87
455.444	158.73
455.654	102.35
455.864	131.6
456.075	139.35
456.285	120.95
456.495	145.55
456.705	157.56
456.916	205.61
457.126	188.95
457.336	140.32
457.546	114.17
457.756	129.67
457.967	190.89
458.177	141.29
458.387	166.09
458.597	111.07
458.807	159.89
459.017	154.27
459.227	140.52
459.437	153.3
459.647	173.65
459.857	170.74
460.068	128.5
460.278	195.54
460.488	161.44
460.698	208.52
460.908	170.55
461.117	98.08
461.327	135.28
461.537	168.03
461.747	175.97
461.957	141.68
462.167	248.82
462.377	195.73
462.587	165.31
462.797	221.31
463.007	198.83
463.216	178.68
463.426	196.9
463.636	179.65
463.846	125.98
464.056	119.4
464.265	229.83
464.475	117.46
464.685	168.61
464.895	180.81
465.104	167.83
465.314	186.63
465.524	184.3
465.733	148.65
465.943	201.93
466.153	234.68
466.362	194.18
466.572	139.74
466.782	182.36
466.991	169
467.201	201.93
467.41	136.83
467.62	203.48
467.829	158.73
468.039	201.16
468.249	166.86
468.458	174.42
468.668	184.5
468.877	185.85
469.086	223.25
469.296	208.91
469.505	158.34
469.715	232.55
469.924	183.91
470.134	236.03
470.343	268.78
470.552	167.64
470.762	181.78
470.971	155.63
471.18	187.79
471.39	201.16
471.599	158.53
471.808	219.18
472.018	145.55
472.227	221.7
472.436	231.19
472.645	183.33
472.855	166.48
473.064	249.79
473.273	199.22
473.482	223.63
473.691	258.89
473.901	252.31
474.11	203.87
474.319	284.08
474.528	220.34
474.737	262.58
474.946	230.8
475.155	211.62
475.364	252.69
475.573	208.13
475.783	199.22
475.992	236.03
476.201	234.29
476.41	191.47
476.619	197.48
476.828	220.53
477.037	203.1
477.245	242.43
477.454	256.38
477.663	239.13
477.872	184.88
478.081	277.69
478.29	188.56
478.499	272.46
478.708	226.73
478.917	289.12
479.125	230.41
479.334	254.05
479.543	227.31
479.752	243.98
479.961	249.79
480.169	249.01
480.378	236.03
480.587	333.68
480.796	271.1
481.004	252.69
481.213	253.66
481.422	252.5
481.63	248.43
481.839	280.98
482.048	298.23
482.256	283.31
482.465	284.28
482.674	274.39
482.882	286.21
483.091	334.84
483.299	270.71
483.508	303.26
483.716	253.28
483.925	240.88
484.134	258.7
484.342	287.57
484.551	320.89
484.759	265.87
484.967	304.43
485.176	324.19
485.384	310.43
485.593	318.57
485.801	312.95
486.01	318.96
486.218	284.08
486.426	256.76
486.635	261.22
486.843	272.84
487.051	266.45
487.26	258.7
487.468	285.44
487.676	335.42
487.885	281.18
488.093	282.14
488.301	307.91
488.509	275.56
488.717	320.51
488.926	321.09
489.134	288.93
489.342	288.93
489.55	273.81
489.758	309.46
489.967	264.71
490.175	381.15
490.383	282.14
490.591	328.26
490.799	254.63
491.007	339.11
491.215	323.61
491.423	310.04
491.631	303.07
491.839	324.19
492.047	337.75
492.255	302.29
492.463	279.43
492.671	304.43
492.879	362.36
493.087	333.1
493.295	329.81
493.503	345.31
493.711	354.02
493.919	354.02
494.127	365.46
494.334	382.51
494.542	284.66
494.75	340.66
494.958	321.09
495.166	368.17
495.374	342.01
495.581	344.53
495.789	355.38
495.997	388.71
496.205	367.01
496.412	342.01
496.62	332.71
496.828	386.38
497.035	354.41
497.243	364.68
497.451	371.66
497.658	339.69
497.866	327.67
498.074	425.13
498.281	350.34
498.489	404.4
498.696	349.18
498.904	335.04
499.112	344.53
499.319	408.86
499.527	353.25
499.734	397.42
499.942	323.8
500.149	360.22
500.357	340.66
500.564	311.01
500.771	389.48
500.979	325.74
501.186	343.17
501.394	346.86
501.601	373.21
501.808	397.81
502.016	377.86
502.223	365.84
502.43	367.97
502.638	394.91
502.845	336.59
503.052	409.63
503.26	350.73
503.467	427.26
503.674	368.36
503.881	380.96
504.089	461.17
504.296	430.75
504.503	361.39
504.71	370.88
504.917	321.09
505.125	391.81
505.332	400.52
505.539	381.15
505.746	459.23
505.953	439.08
506.16	400.52
506.367	465.04
506.574	447.22
506.781	463.88
506.988	383.28
507.195	429.78
507.402	393.16
507.609	448.57
507.816	433.65
508.023	416.99
508.23	390.45
508.437	372.04
508.644	432.69
508.851	470.85
509.058	445.86
509.265	410.41
509.472	415.44
509.679	514.83
509.885	410.99
510.092	425.9
510.299	406.53
510.506	455.55
510.713	470.08
510.92	469.3
511.126	460.78
511.333	489.26
511.54	468.53
511.746	535.95
511.953	493.52
512.16	500.5
512.367	438.69
512.573	444.7
512.78	466.98
512.987	456.13
513.193	456.71
513.4	424.94
513.606	459.81
513.813	464.07
514.02	459.23
514.226	525.1
514.433	552.81
514.639	455.35
514.846	493.52
515.052	464.65
515.259	470.08
515.465	508.05
515.672	500.11
515.878	552.81
516.085	477.05
516.291	514.64
516.497	480.54
516.704	470.27
516.91	458.07
517.117	444.89
517.323	435.79
517.529	472.79
517.736	465.43
517.942	475.31
518.148	488.1
518.354	490.23
518.561	483.06
518.767	493.14
518.973	526.27
519.179	528.98
519.386	477.25
519.592	490.04
519.798	503.02
520.004	545.83
520.21	530.72
520.417	559.78
520.623	558.04
520.829	570.25
521.035	547
521.241	567.15
521.447	556.1
521.653	659.56
521.859	565.02
522.065	589.81
522.271	658.4
522.477	634.38
522.683	619.46
522.889	616.55
523.095	588.65
523.301	615
523.507	586.72
523.713	592.33
523.919	589.81
524.125	645.03
524.331	609.19
524.537	677.39
524.742	661.11
524.948	666.73
525.154	676.03
525.36	772.71
525.566	653.36
525.772	700.06
525.977	610.16
526.183	672.55
526.389	665.18
526.595	650.26
526.8	651.04
527.006	645.61
527.212	617.13
527.417	633.21
527.623	635.15
527.829	670.22
528.034	683.2
528.24	660.15
528.446	641.74
528.651	724.86
528.857	722.92
529.062	749.08
529.268	724.08
529.473	725.24
529.679	677.58
529.884	808.75
530.09	739.97
530.295	759.54
530.501	774.07
530.706	770.19
530.912	731.25
531.117	719.04
531.323	787.63
531.528	773.68
531.733	780.27
531.939	734.35
532.144	771.16
532.35	761.09
532.555	770
532.76	787.24
532.966	770.19
533.171	758.57
533.376	772.71
533.581	738.23
533.787	759.15
533.992	765.35
534.197	807.39
534.402	739.97
534.607	783.56
534.813	860.87
535.018	784.14
535.223	756.05
535.428	799.45
535.633	849.44
535.838	836.26
536.043	831.81
536.249	883.15
536.454	829.87
536.659	865.9
536.864	815.14
537.069	795.19
537.274	821.34
537.479	830.26
537.684	830.26
537.889	793.83
538.094	895.35
538.299	840.33
538.504	849.05
538.708	841.49
538.913	814.37
539.118	832
539.323	871.52
539.528	799.06
539.733	839.75
539.938	847.69
540.142	878.3
540.347	852.54
540.552	801.19
540.757	825.02
540.962	822.12
541.166	792.47
541.371	813.21
541.576	808.56
541.781	713.04
541.985	849.44
542.19	857.38
542.395	852.92
542.599	919.19
542.804	890.9
543.008	903.88
543.213	832.77
543.418	854.09
543.622	875.4
543.827	821.34
544.031	891.09
544.236	918.02
544.44	858.54
544.645	936.82
544.849	865.71
545.054	889.35
545.258	972.47
545.463	964.72
545.667	850.41
545.872	887.22
546.076	911.44
546.281	887.02
546.485	881.02
546.689	909.5
546.894	921.12
547.098	893.22
547.302	848.08
547.507	897.68
547.711	913.37
547.915	923.84
548.119	883.34
548.324	894.19
548.528	958.13
548.732	925.39
548.936	945.92
549.141	949.02
549.345	885.86
549.549	891.87
549.753	905.24
549.957	980.99
550.161	966.65
550.366	939.33
550.57	881.02
550.774	912.02
550.978	894.77
551.182	945.92
551.386	896.32
551.59	899.62
551.794	909.3
551.998	922.87
552.202	891.29
552.406	886.05
552.61	905.62
552.814	908.53
553.018	955.8
553.222	889.93
553.426	903.49
553.63	986.03
553.833	913.37
554.037	851.57
554.241	961.81
554.445	911.24
554.649	900.59
554.853	902.52
555.056	928.87
555.26	967.62
555.464	943.98
555.668	908.92
555.871	941.08
556.075	987.58
556.279	891.09
556.483	856.99
556.686	910.47
556.89	873.07
557.094	909.69
557.297	846.92
557.501	932.36
557.704	880.63
557.908	927.71
558.112	895.94
558.315	931.78
558.519	885.86
558.722	913.18
558.926	881.4
559.129	837.23
559.333	797.12
559.536	875.2
559.74	835.87
559.943	832.39
560.147	858.93
560.35	864.74
560.553	813.59
560.757	783.95
560.96	919.19
561.164	838.97
561.367	899.62
561.57	859.12
561.774	862.22
561.977	849.82
562.18	805.26
562.384	934.88
562.587	818.44
562.79	832.39
562.993	814.17
563.197	851.95
563.4	900.59
563.603	890.32
563.806	922.09
564.009	835.87
564.212	867.84
564.416	766.9
564.619	850.6
564.822	767.87
565.025	870.17
565.228	800.03
565.431	813.98
565.634	781.82
565.837	788.79
566.04	764.19
566.243	795.57
566.446	739.97
566.649	838.97
566.852	753.92
567.055	777.36
567.258	795.19
567.461	806.23
567.664	853.89
567.867	723.89
568.07	799.26
568.273	789.37
568.475	811.85
568.678	771.94
568.881	775.23
569.084	779.3
569.287	680.49
569.489	714.01
569.692	781.82
569.895	805.65
570.098	695.99
570.3	730.09
570.503	660.53
570.706	703.16
570.909	681.65
571.111	655.3
571.314	655.5
571.516	683.78
571.719	712.26
571.922	683.98
572.124	673.71
572.327	717.69
572.529	639.41
572.732	650.85
572.935	682.04
573.137	714.39
573.34	658.6
573.542	690.56
573.745	700.25
573.947	701.03
574.15	662.47
574.352	636.31
574.554	722.92
574.757	654.72
574.959	602.8
575.162	636.51
575.364	605.31
575.566	714.39
575.769	600.66
575.971	645.03
576.173	592.91
576.376	607.45
576.578	668.09
576.78	698.7
576.982	578.58
577.185	632.83
577.387	588.65
577.589	602.41
577.791	646
577.993	635.15
578.196	627.98
578.398	653.56
578.6	661.7
578.802	570.83
579.004	600.86
579.206	573.54
579.408	647.36
579.61	599.11
579.812	626.05
580.014	575.48
580.216	585.36
580.418	614.42
580.62	581.48
580.822	531.5
581.024	593.5
581.226	631.28
581.428	578
581.63	661.11
581.832	614.23
582.034	641.55
582.236	580.9
582.438	643.29
582.64	658.4
582.841	652.4
583.043	688.04
583.245	629.15
583.447	624.69
583.649	602.02
583.85	607.45
584.052	662.47
584.254	565.21
584.456	648.13
584.657	568.7
584.859	598.34
585.061	586.13
585.262	566.57
585.464	539.44
585.666	600.47
585.867	561.14
586.069	622.17
586.27	609.58
586.472	589.04
586.674	575.87
586.875	577.8
587.077	575.28
587.278	603.18
587.48	559.4
587.681	674.48
587.883	577.61
588.084	537.5
588.285	551.84
588.487	568.7
588.688	566.95
588.89	508.05
589.091	542.15
589.292	588.07
589.494	529.75
589.695	538.86
589.896	449.54
590.098	461.55
590.299	525.49
590.5	477.25
590.702	493.14
590.903	506.5
591.104	562.11
591.305	516.19
591.507	552.03
591.708	553.97
591.909	514.06
592.11	611.13
592.311	565.79
592.512	526.07
592.714	485
592.915	501.85
593.116	509.6
593.317	528.98
593.518	534.21
593.719	498.95
593.92	543.32
594.121	544.28
594.322	510.57
594.523	516.97
594.724	530.72
594.925	500.89
595.126	539.25
595.327	525.49
595.528	540.6
595.729	537.7
595.929	508.63
596.13	518.52
596.331	520.26
596.532	543.12
596.733	557.85
596.934	548.35
597.135	528.78
597.335	531.3
597.536	528.78
597.737	539.63
597.938	531.11
598.138	578
598.339	507.67
598.54	539.83
598.74	517.35
598.941	548.74
599.142	561.92
599.342	520.07
599.543	493.14
599.744	500.11
599.944	504.76
600.145	500.3
600.345	534.98
600.546	573.54
600.746	559.2
600.947	580.52
601.147	516.38
601.348	541.57
601.548	525.49
601.749	500.89
601.949	495.07
602.15	489.45
602.35	519.48
602.551	544.87
602.751	479.19
602.951	506.7
603.152	438.5
603.352	553
603.552	534.02
603.753	537.89
603.953	548.93
604.153	526.46
604.354	512.51
604.554	503.6
604.754	498.75
604.954	468.34
605.155	526.65
605.355	502.43
605.555	552.03
605.755	563.66
605.955	521.62
606.155	522.39
606.356	504.18
606.556	517.35
606.756	546.8
606.956	475.7
607.156	584.97
607.356	499.14
607.556	498.17
607.756	512.9
607.956	538.08
608.156	523.75
608.356	495.85
608.556	531.88
608.756	519.87
608.956	492.55
609.156	525.3
609.356	474.34
609.556	473.37
609.755	518.71
609.955	477.05
610.155	496.24
610.355	486.55
610.555	474.54
610.755	503.98
610.954	441.4
611.154	485.19
611.354	543.51
611.554	480.74
611.753	465.04
611.953	436.37
612.153	482.09
612.352	489.26
612.552	420.09
612.752	418.93
612.951	476.67
613.151	471.63
613.351	439.66
613.55	454.58
613.75	487.71
613.949	478.41
614.149	511.54
614.348	462.72
614.548	442.95
614.747	420.48
614.947	436.56
615.146	400.72
615.346	485.39
615.545	433.85
615.745	440.24
615.944	490.42
616.144	460
616.343	480.74
616.542	429.59
616.742	442.37
616.941	455.35
617.14	397.23
617.34	433.46
617.539	447.6
617.738	416.8
617.938	472.4
618.137	444.31
618.336	391.81
618.535	425.9
618.734	426.49
618.934	457.49
619.133	423.19
619.332	445.47
619.531	416.6
619.73	431.14
619.929	465.43
620.128	442.18
620.328	487.13
620.527	424.16
620.726	419.12
620.925	442.18
621.124	397.04
621.323	452.45
621.522	382.31
621.721	391.81
621.92	393.36
622.119	435.79
622.318	415.25
622.517	433.85
622.715	447.41
622.914	354.22
623.113	429
623.312	378.44
623.511	418.15
623.71	396.46
623.909	365.65
624.107	469.5
624.306	388.51
624.505	370.11
624.704	390.45
624.902	372.24
625.101	453.61
625.3	408.47
625.499	365.84
625.697	411.96
625.896	364.49
626.095	422.22
626.293	384.64
626.492	361.19
626.69	420.67
626.889	374.56
627.088	405.37
627.286	373.4
627.485	381.15
627.683	342.59
627.882	413.51
628.08	319.73
628.279	367.39
628.477	447.8
628.676	337.75
628.874	383.09
629.073	355.77
629.271	356.54
629.469	393.94
629.668	361
629.866	351.31
630.065	345.11
630.263	379.21
630.461	347.82
630.66	392.39
630.858	407.11
631.056	407.69
631.254	423.97
631.453	330.19
631.651	388.71
631.849	394.13
632.047	376.69
632.245	339.3
632.444	351.31
632.642	385.61
632.84	404.4
633.038	361.39
633.236	352.47
633.434	319.15
633.632	347.44
633.83	363.13
634.028	378.82
634.227	359.84
634.425	444.5
634.623	372.04
634.821	399.94
635.019	360.81
635.216	353.06
635.414	393.16
635.612	379.21
635.81	371.85
636.008	416.6
636.206	370.11
636.404	389.09
636.602	328.06
636.8	371.46
636.997	378.63
637.195	385.22
637.393	382.12
637.591	433.85
637.789	404.98
637.986	354.61
638.184	387.74
638.382	405.37
638.58	408.86
638.777	408.47
638.975	355.96
639.173	372.62
639.37	377.86
639.568	410.02
639.765	396.26
639.963	354.8
640.161	409.05
640.358	383.47
640.556	324.19
640.753	328.84
640.951	324.19
641.148	378.44
641.346	369.72
641.543	376.11
641.741	381.15
641.938	333.49
642.136	351.89
642.333	322.06
642.531	398.01
642.728	415.83
642.925	363.52
643.123	379.21
643.32	354.41
643.517	337.75
643.715	358.87
643.912	340.46
644.109	359.26
644.306	357.12
644.504	338.14
644.701	389.48
644.898	394.52
645.095	322.44
645.293	360.42
645.49	361.19
645.687	393.16
645.884	378.63
646.081	312.76
646.278	277.69
646.475	319.93
646.672	314.89
646.87	351.7
647.067	354.22
647.264	367.39
647.461	297.45
647.658	264.9
647.855	367.59
648.052	340.46
648.249	283.31
648.446	317.6
648.642	293.96
648.839	286.41
649.036	315.08
649.233	269.55
649.43	296.68
649.627	271.68
649.824	306.56
650.021	292.8
650.217	251.14
650.414	282.14
650.611	283.31
650.808	292.41
651.004	307.53
651.201	311.21
651.398	342.01
651.595	323.03
651.791	278.27
651.988	328.06
652.185	310.24
652.381	321.67
652.578	265.68
652.775	305.78
652.971	290.28
653.168	314.31
653.364	339.3
653.561	260.83
653.757	287.38
653.954	279.04
654.15	269.16
654.347	346.86
654.543	270.52
654.74	263.54
654.936	271.49
655.133	287.38
655.329	290.48
655.525	299.19
655.722	316.63
655.918	244.56
656.115	330.19
656.311	275.94
656.507	240.29
656.704	226.73
656.9	243.78
657.096	242.43
657.292	230.22
657.489	293.96
657.685	255.21
657.881	258.51
658.077	262.19
658.273	294.35
658.47	336.2
658.666	256.76
658.862	275.94
659.058	245.53
659.254	300.55
659.45	223.05
659.646	285.44
659.842	248.24
660.038	342.01
660.234	257.15
660.43	273.62
660.626	338.33
660.822	298.03
661.018	286.79
661.214	284.86
661.41	256.76
661.606	291.44
661.802	307.53
661.998	272.84
662.194	228.67
662.39	273.62
662.586	267.81
662.781	280.01
662.977	269.74
663.173	286.21
663.369	277.49
663.564	281.37
663.76	309.08
663.956	249.98
664.152	310.04
664.347	209.68
664.543	248.82
664.739	255.99
664.934	225.76
665.13	222.66
665.326	288.73
665.521	287.18
665.717	202.9
665.912	230.22
666.108	180.04
666.304	245.53
666.499	272.84
666.695	202.13
666.89	227.12
667.086	267.23
667.281	272.84
667.477	297.45
667.672	260.25
667.867	229.06
668.063	256.96
668.258	250.76
668.454	263.16
668.649	350.54
668.844	241.84
669.04	270.33
669.235	240.1
669.43	215.3
669.626	216.08
669.821	233.51
670.016	209.3
670.211	225.57
670.407	200.19
670.602	225.18
670.797	258.51
670.992	264.32
671.187	223.44
671.382	268
671.578	230.03
671.773	278.85
671.968	189.92
672.163	216.66
672.358	276.91
672.553	237.39
672.748	213.95
672.943	303.65
673.138	217.05
673.333	247.08
673.528	186.05
673.723	272.26
673.918	246.49
674.113	192.63
674.308	307.14
674.503	244.36
674.698	271.29
674.892	250.76
675.087	287.96
675.282	241.65
675.477	225.76
675.672	271.49
675.867	245.53
676.061	200.38
676.256	207.94
676.451	216.08
676.646	251.14
676.84	197.86
677.035	201.93
677.23	208.91
677.424	224.21
677.619	274.2
677.814	242.43
678.008	268.39
678.203	169.58
678.397	192.63
678.592	236.81
678.787	288.93
678.981	203.1
679.176	242.04
679.37	226.54
679.565	222.66
679.759	216.08
679.954	237
680.148	299.58
680.342	285.44
680.537	272.07
680.731	228.67
680.926	241.84
681.12	263.93
681.314	235.45
681.509	228.28
681.703	228.67
681.897	272.26
682.092	243.59
682.286	203.87
682.48	299.58
682.674	271.88
682.869	247.46
683.063	251.92
683.257	288.73
683.451	210.65
683.645	263.54
683.839	223.83
684.034	241.84
684.228	287.96
684.422	212.59
684.616	237.97
684.81	246.3
685.004	230.61
685.198	259.09
685.392	288.73
685.586	224.99
685.78	230.61
685.974	268.19
686.168	261.22
686.362	299.78
686.556	231
686.75	207.16
686.944	222.08
687.138	271.1
687.331	161.63
687.525	219.56
687.719	157.76
687.913	243.78
688.107	213.75
688.301	190.89
688.494	229.06
688.688	190.31
688.882	191.08
689.076	185.85
689.269	220.34
689.463	300.16
689.657	195.93
689.85	199.41
690.044	223.44
690.238	214.72
690.431	200.58
690.625	234.68
690.818	231
691.012	245.91
691.205	232.35
691.399	204.06
691.593	240.88
691.786	305.98
691.98	273.04
692.173	306.94
692.366	259.28
692.56	276.14
692.753	325.54
692.947	239.33
693.14	333.87
693.333	303.26
693.527	225.76
693.72	290.48
693.914	279.04
694.107	291.83
694.3	285.63
694.493	277.3
694.687	310.82
694.88	281.37
695.073	320.12
695.266	321.28
695.46	301.91
695.653	325.74
695.846	329.81
696.039	280.59
696.232	329.81
696.425	335.04
696.618	322.64
696.812	323.99
697.005	398.78
697.198	455.55
697.391	363.91
697.584	405.17
697.777	444.5
697.97	402.27
698.163	419.9
698.356	405.17
698.549	478.41
698.742	479.19
698.935	402.27
699.127	407.69
699.32	405.17
699.513	423.58
699.706	442.18
699.899	429.2
700.092	392.97
700.285	457.68
700.477	410.21
700.67	462.14
700.863	485.77
701.056	562.3
701.248	523.36
701.441	515.03
701.634	495.65
701.826	591.17
702.019	450.51
702.212	558.43
702.404	487.9
702.597	484.22
702.79	527.23
702.982	565.4
703.175	588.85
703.367	571.02
703.56	589.43
703.752	647.94
703.945	592.53
704.137	632.05
704.33	632.44
704.522	623.53
704.715	649.88
704.907	654.72
705.1	682.23
705.292	701.99
705.484	672.35
705.677	712.46
705.869	718.85
706.061	703.74
706.254	776.01
706.446	748.3
706.638	717.49
706.831	808.36
707.023	745.39
707.215	835.87
707.407	820.37
707.599	794.8
707.792	842.46
707.984	851.18
708.176	842.27
708.368	778.91
708.56	837.04
708.752	856.8
708.944	858.74
709.136	895.35
709.329	897.29
709.521	961.62
709.713	955.03
709.905	954.06
710.097	984.48
710.289	911.44
710.481	971.5
710.672	965.3
710.864	974.02
711.056	1049.58
711.248	1019.35
711.44	1018.19
711.632	1007.53
711.824	1032.91
712.016	1081.16
712.207	1071.28
712.399	1096.85
712.591	1159.43
712.783	1127.85
712.975	1144.9
713.166	1084.26
713.358	1127.85
713.55	1203.41
713.741	1161.95
713.933	1178.42
714.125	1157.3
714.316	1143.16
714.508	1246.04
714.7	1241.58
714.891	1253.79
715.083	1313.46
715.274	1243.32
715.466	1230.15
715.657	1321.02
715.849	1204.57
716.04	1293.89
716.232	1232.86
716.423	1306.87
716.615	1238.87
716.806	1233.83
716.998	1188.11
717.189	1156.33
717.381	1102.86
717.572	1083.1
717.763	1156.33
717.955	1102.28
718.146	1086.78
718.337	1079.22
718.528	1010.05
718.72	1027.88
718.911	1085.61
719.102	1050.74
719.293	1072.63
719.485	1038.73
719.676	1081.16
719.867	1002.69
720.058	1038.53
720.249	1072.44
720.44	1087.16
720.632	1098.98
720.823	1151.29
721.014	1223.17
721.205	1258.44
721.396	1321.79
721.587	1380.3
721.778	1403.17
721.969	1431.45
722.16	1456.45
722.351	1463.03
722.542	1566.3
722.733	1553.51
722.924	1497.71
723.115	1572.31
723.305	1576.76
723.496	1591.29
723.687	1482.99
723.878	1495.97
724.069	1504.88
724.26	1500.62
724.45	1427
724.641	1457.42
724.832	1487.25
725.023	1494.81
725.213	1481.05
725.404	1468.85
725.595	1476.79
725.785	1470.01
725.976	1527.75
726.167	1546.15
726.357	1519.22
726.548	1651.36
726.739	1544.21
726.929	1654.46
727.12	1674.22
727.31	1688.17
727.501	1648.84
727.691	1621.13
727.882	1624.62
728.072	1720.72
728.263	1713.94
728.453	1736.6
728.644	1736.41
728.834	1766.83
729.024	1754.43
729.215	1711.61
729.405	1768.57
729.596	1790.47
729.786	1788.53
729.976	1844.33
730.167	1865.45
730.357	1798.8
730.547	1830.18
730.737	1889.08
730.928	1897.61
731.118	1922.41
731.308	1887.15
731.498	1909.43
731.688	2009.01
731.879	2034.39
732.069	2033.23
732.259	2057.84
732.449	2099.69
732.639	2158.01
732.829	2194.24
733.019	2179.9
733.209	2285.88
733.399	2289.37
733.589	2339.16
733.779	2374.61
733.969	2353.5
734.159	2428.67
734.349	2478.66
734.539	2515.08
734.729	2522.06
734.919	2537.75
735.109	2588.9
735.299	2538.14
735.488	2570.69
735.678	2586.77
735.868	2545.69
736.058	2571.46
736.248	2604.98
736.437	2541.24
736.627	2537.94
736.817	2659.42
737.007	2597.42
737.196	2657.49
737.386	2661.36
737.576	2655.74
737.765	2724.13
737.955	2685.39
738.144	2776.25
738.334	2731.5
738.524	2709.99
738.713	2748.93
738.903	2752.81
739.092	2825.46
739.282	2787.1
739.471	2819.65
739.661	2809
739.85	2870.8
740.04	2863.83
740.229	2860.15
740.419	2923.69
740.608	2964.19
740.797	2921.18
740.987	2973.49
741.176	2953.92
741.365	2942.1
741.555	2927.57
741.744	2999.45
741.933	2984.14
742.123	2998.09
742.312	3016.31
742.501	3058.15
742.69	3073.46
742.88	2992.09
743.069	3126.35
743.258	3047.69
743.447	3114.15
743.636	3091.67
743.825	3087.8
744.014	3094.58
744.204	3180.99
744.393	3088.38
744.582	3164.91
744.771	3183.32
744.96	3155.61
745.149	3185.06
745.338	3163.36
745.527	3166.27
745.716	3211.02
745.905	3112.6
746.094	3181.18
746.283	3237.56
746.471	3209.08
746.66	3299.95
746.849	3206.37
747.038	3257.91
747.227	3225.16
747.416	3280
747.604	3203.85
747.793	3225.36
747.982	3269.15
748.171	3244.35
748.359	3250.93
748.548	3253.65
748.737	3254.81
748.926	3262.36
749.114	3164.52
749.303	3248.41
749.491	3267.98
749.68	3193.58
749.869	3276.31
750.057	3215.86
750.246	3223.42
750.434	3252.1
750.623	3249.19
750.811	3242.8
751	3281.16
751.188	3180.99
751.377	3258.88
751.565	3212.38
751.754	3189.32
751.942	3206.37
752.131	3289.88
752.319	3216.06
752.507	3167.04
752.696	3275.54
752.884	3251.51
753.072	3255.97
753.261	3234.85
753.449	3223.03
753.637	3171.88
753.825	3291.43
754.014	3232.14
754.202	3259.46
754.39	3281.74
754.578	3243.57
754.766	3168.98
754.955	3174.02
755.143	3280.96
755.331	3220.51
755.519	3236.21
755.707	3214.51
755.895	3211.8
756.083	3230.01
756.271	3184.87
756.459	3208.12
756.647	3248.61
756.835	3185.64
757.023	3180.41
757.211	3183.9
757.399	3202.3
757.587	3209.47
757.775	3107.75
757.963	3153.09
758.151	3114.15
758.339	3089.54
758.526	3137.2
758.714	3123.45
758.902	2998.29
759.09	2929.89
759.278	2735.57
759.465	2528.84
759.653	2169.05
759.841	1992.74
760.028	1692.82
760.216	1503.53
760.404	1360.74
760.591	1116.61
760.779	959.1
760.967	859.51
761.154	709.74
761.342	765.74
761.529	727.38
761.717	772.32
761.905	758.18
762.092	844.79
762.28	776.97
762.467	760.7
762.655	715.75
762.842	718.85
763.029	751.21
763.217	759.54
763.404	723.11
763.592	786.08
763.779	714.78
763.966	800.61
764.154	787.24
764.341	877.53
764.528	876.95
764.716	914.54
764.903	1007.92
765.09	1037.18
765.277	1089.68
765.465	1224.92
765.652	1309.39
765.839	1353.37
766.026	1487.45
766.213	1526
766.4	1632.95
766.588	1795.89
766.775	1790.66
766.962	1932.87
767.149	1990.8
767.336	2113.83
767.523	2088.26
767.71	2230.85
767.897	2370.16
768.084	2443.2
768.271	2410.65
768.458	2500.16
768.645	2567.59
768.832	2556.54
769.019	2592.58
769.206	2610.02
769.392	2701.27
769.579	2758.23
769.766	2727.82
769.953	2731.3
770.14	2802.21
770.327	2771.8
770.513	2840.19
770.7	2887.27
770.887	2809
771.073	2867.12
771.26	2817.13
771.447	2824.5
771.634	2784.97
771.82	2881.65
772.007	2766.57
772.193	2879.13
772.38	2897.34
772.567	2825.08
772.753	2846.97
772.94	2894.83
773.126	2882.04
773.313	2888.63
773.499	2865.76
773.686	2889.79
773.872	2826.43
774.059	2842.9
774.245	2807.25
774.432	2824.3
774.618	2796.98
774.804	2809.58
774.991	2798.92
775.177	2867.7
775.363	2804.35
775.55	2837.28
775.736	2783.42
775.922	2782.84
776.109	2782.06
776.295	2808.22
776.481	2808.8
776.667	2852.01
776.853	2795.82
777.04	2790.59
777.226	2781.87
777.412	2860.73
777.598	2765.98
777.784	2730.72
777.97	2732.85
778.156	2810.55
778.342	2707.08
778.528	2729.37
778.715	2682.48
778.901	2721.42
779.087	2747.58
779.272	2722
779.458	2702.63
779.644	2719.1
779.83	2685.19
780.016	2816.16
780.202	2691.39
780.388	2731.5
780.574	2645.47
780.76	2674.34
780.946	2757.85
781.131	2677.25
781.317	2687.32
781.503	2620.48
781.689	2633.27
781.874	2801.25
782.06	2626.49
782.246	2672.21
782.432	2638.5
782.617	2633.07
782.803	2673.57
782.989	2595.49
783.174	2581.15
783.36	2547.05
783.545	2596.84
783.731	2582.89
783.916	2506.36
784.102	2629.97
784.288	2564.68
784.473	2576.69
784.659	2564.68
784.844	2551.7
785.029	2555.57
785.215	2516.82
785.4	2505.39
785.586	2571.27
785.771	2470.91
785.956	2605.95
786.142	2523.99
786.327	2467.81
786.512	2533.49
786.698	2467.23
786.883	2432.16
787.068	2468.39
787.254	2471.1
787.439	2456.57
787.624	2440.29
787.809	2414.33
787.994	2412.2
788.18	2459.28
788.365	2373.06
788.55	2416.66
788.735	2396.9
788.92	2393.8
789.105	2392.25
789.29	2398.06
789.475	2284.91
789.66	2338.38
789.845	2292.66
790.03	2281.81
790.215	2377.33
790.4	2347.88
790.585	2389.34
790.77	2308.55
790.955	2276.97
791.14	2317.65
791.325	2359.5
791.51	2208.77
791.695	2299.63
791.879	2310.87
792.064	2227.95
792.249	2306.8
792.434	2284.13
792.618	2279.48
792.803	2297.89
792.988	2307
793.173	2287.04
793.357	2331.22
793.542	2270.38
793.727	2287.82
793.911	2316.88
794.096	2286.27
794.281	2316.3
794.465	2381.4
794.65	2282.58
794.834	2348.07
795.019	2411.81
795.203	2376.94
795.388	2364.73
795.572	2371.9
795.757	2314.36
795.941	2356.98
796.126	2354.66
796.31	2281.03
796.494	2376.55
796.679	2335.48
796.863	2317.27
797.048	2364.54
797.232	2328.31
797.416	2354.85
797.601	2319.01
797.785	2378.49
797.969	2397.86
798.153	2310.68
798.338	2365.9
798.522	2377.13
798.706	2381.01
798.89	2370.35
799.074	2456.18
799.258	2402.32
799.443	2350.2
799.627	2374.23
799.811	2399.22
799.995	2377.71
800.179	2344.58
800.363	2335.09
800.547	2374.81
800.731	2389.53
800.915	2267.47
801.099	2307.19
801.283	2325.98
801.467	2350.98
801.651	2333.73
801.835	2380.62
802.019	2337.03
802.202	2368.22
802.386	2293.43
802.57	2334.51
802.754	2346.52
802.938	2298.47
803.121	2320.37
803.305	2360.66
803.489	2335.87
803.673	2315.52
803.856	2352.91
804.04	2357.95
804.224	2338.38
804.407	2274.83
804.591	2299.25
804.775	2318.82
804.958	2325.98
805.142	2444.17
805.326	2360.28
805.509	2380.62
805.693	2365.51
805.876	2395.15
806.06	2371.9
806.243	2373.45
806.427	2429.25
806.61	2406.58
806.794	2360.28
806.977	2422.28
807.16	2382.56
807.344	2382.95
807.527	2367.06
807.71	2341.87
807.894	2377.33
808.077	2371.13
808.26	2335.09
808.444	2339.16
808.627	2385.27
808.81	2323.27
808.993	2253.72
809.177	2275.03
809.36	2243.64
809.543	2288.59
809.726	2204.89
809.909	2225.82
810.092	2243.06
810.276	2199.66
810.459	2224.65
810.642	2163.62
810.825	2184.74
811.008	2167.69
811.191	2069.66
811.374	2098.14
811.557	2112.47
811.74	2184.35
811.923	2053.58
812.106	2087.67
812.289	2019.48
812.472	2003.98
812.654	2050.09
812.837	1995.06
813.02	1971.81
813.203	1945.46
813.386	1827.67
813.569	1824.37
813.751	1757.72
813.934	1829.41
814.117	1798.22
814.3	1743.58
814.482	1686.04
814.665	1700.37
814.848	1635.86
815.03	1598.08
815.213	1589.74
815.396	1573.08
815.578	1575.41
815.761	1506.24
815.943	1613.19
816.126	1513.6
816.309	1514.18
816.491	1419.05
816.674	1400.07
816.856	1429.52
817.039	1409.75
817.221	1472.53
817.403	1434.94
817.586	1419.63
817.768	1444.05
817.951	1368.49
818.133	1362.29
818.315	1408.4
818.498	1453.54
818.68	1501.4
818.862	1467.49
819.045	1482.99
819.227	1496.75
819.409	1448.12
819.591	1489.77
819.774	1466.13
819.956	1416.15
820.138	1529.3
820.32	1536.66
820.502	1580.64
820.684	1646.51
820.866	1613.38
821.048	1652.32
821.231	1650.39
821.413	1643.8
821.595	1650.19
821.777	1626.17
821.959	1648.64
822.141	1720.14
822.323	1554.68
822.505	1535.5
822.686	1472.91
822.868	1384.37
823.05	1324.5
823.232	1308.62
823.414	1237.71
823.596	1301.06
823.778	1292.73
823.96	1321.21
824.141	1326.05
824.323	1322.57
824.505	1394.45
824.687	1498.68
824.868	1512.83
825.05	1591.49
825.232	1637.6
825.413	1668.41
825.595	1635.47
825.777	1543.25
825.958	1587.81
826.14	1600.59
826.321	1632.76
826.503	1601.18
826.685	1617.45
826.866	1650.97
827.048	1633.53
827.229	1575.21
827.411	1582.38
827.592	1528.91
827.773	1522.51
827.955	1484.35
828.136	1465.75
828.318	1433.39
828.499	1469.43
828.68	1422.35
828.862	1469.81
829.043	1459.16
829.224	1425.45
829.406	1417.31
829.587	1430.48
829.768	1418.47
829.949	1444.24
830.131	1451.99
830.312	1516.31
830.493	1452.18
830.674	1480.86
830.855	1425.64
831.036	1461.48
831.218	1512.44
831.399	1536.46
831.58	1502.36
831.761	1479.11
831.942	1482.99
832.123	1496.16
832.304	1425.25
832.485	1425.45
832.666	1445.02
832.847	1473.69
833.028	1461.48
833.209	1478.34
833.389	1425.06
833.57	1405.88
833.751	1436.1
833.932	1490.93
834.113	1467.68
834.294	1442.5
834.475	1470.01
834.655	1484.35
834.836	1517.86
835.017	1492.29
835.198	1444.05
835.378	1466.33
835.559	1521.16
835.74	1479.89
835.92	1442.69
836.101	1443.08
836.281	1517.86
836.462	1530.85
836.643	1536.46
836.823	1559.71
837.004	1557
837.184	1578.7
837.365	1561.84
837.545	1534.72
837.726	1522.51
837.906	1558.16
838.087	1528.13
838.267	1538.6
838.448	1524.84
838.628	1558.55
838.808	1547.51
838.989	1566.88
839.169	1500.81
839.349	1560.1
839.53	1575.41
839.71	1555.26
839.89	1521.35
840.07	1597.49
840.251	1489.19
840.431	1563.39
840.611	1550.41
840.791	1512.05
840.971	1510.31
841.151	1520.58
841.332	1506.05
841.512	1537.82
841.692	1481.05
841.872	1540.92
842.052	1519.8
842.232	1555.64
842.412	1443.08
842.592	1494.42
842.772	1504.69
842.952	1532.78
843.132	1479.11
843.312	1499.85
843.492	1441.14
843.672	1510.31
843.851	1473.3
844.031	1511.28
844.211	1473.5
844.391	1449.08
844.571	1459.16
844.751	1460.13
844.93	1475.63
845.11	1467.88
845.29	1475.82
845.47	1512.83
845.649	1495
845.829	1527.16
846.009	1490.16
846.188	1536.27
846.368	1488.22
846.547	1479.31
846.727	1508.76
846.907	1425.06
847.086	1504.11
847.266	1492.48
847.445	1461.48
847.625	1456.06
847.804	1462.65
847.984	1442.3
848.163	1432.62
848.343	1423.51
848.522	1447.15
848.701	1462.26
848.881	1437.46
849.06	1448.31
849.239	1401.03
849.419	1441.92
849.598	1375.65
849.777	1370.81
849.957	1356.86
850.136	1324.31
850.315	1297.96
850.494	1340
850.674	1325.67
850.853	1389.22
851.032	1340.39
851.211	1392.32
851.39	1365.58
851.569	1282.27
851.748	1300.87
851.927	1366.55
852.107	1328.96
852.286	1331.48
852.465	1308.04
852.644	1363.84
852.823	1375.27
853.002	1325.67
853.181	1338.45
853.359	1330.9
853.538	1277.81
853.717	1369.84
853.896	1260.37
854.075	1191.4
854.254	1174.93
854.433	1121.65
854.611	1197.99
854.79	1119.33
854.969	1189.27
855.148	1209.03
855.327	1174.16
855.505	1197.02
855.684	1210.97
855.863	1235.19
856.041	1203.8
856.22	1248.17
856.399	1208.64
856.577	1291.57
856.756	1242.36
856.934	1397.55
857.113	1408.78
857.291	1283.62
857.47	1268.51
857.648	1284.21
857.827	1290.4
858.005	1330.32
858.184	1260.96
858.362	1356.28
858.541	1294.28
858.719	1266.96
858.898	1272
859.076	1270.84
859.254	1314.24
859.433	1250.11
859.611	1259.79
859.789	1235.19
859.967	1290.6
860.146	1309.39
860.324	1227.44
860.502	1260.76
860.68	1202.83
860.859	1224.34
861.037	1239.06
861.215	1231.7
861.393	1257.86
861.571	1196.44
861.749	1215.04
861.927	1268.12
862.105	1245.84
862.283	1227.63
862.461	1203.99
862.639	1209.61
862.817	1201.47
862.995	1210.77
863.173	1200.12
863.351	1241.77
863.529	1228.99
863.707	1236.54
863.885	1234.41
864.063	1146.26
864.241	1194.31
864.418	1263.28
864.596	1167.96
864.774	1140.83
864.952	1194.69
865.129	1226.27
865.307	1160.01
865.485	1114.87
865.663	1184.23
865.84	1106.54
866.018	1145.29
866.196	1041.05
866.373	1065.46
866.551	1005.4
866.728	970.92
866.906	1007.34
867.084	1035.63
867.261	1073.41
867.439	1059.46
867.616	1094.33
867.794	1078.45
867.971	1107.7
868.149	1088.13
868.326	1131.34
868.503	1124.17
868.681	1102.08
868.858	1113.32
869.035	1075.15
869.213	1134.83
869.39	1074.18
869.567	1158.08
869.745	1100.15
869.922	1075.15
870.099	1129.4
870.276	1146.64
870.454	1091.23
870.631	1101.7
870.808	1074.96
870.985	1099.76
871.162	1175.13
871.339	1108.09
871.517	1030.59
871.694	1050.93
871.871	1087.94
872.048	1088.52
872.225	1065.46
872.402	1080.19
872.579	1034.27
872.756	1092.59
872.933	1070.5
873.11	1086.78
873.287	1069.53
873.463	1055.97
873.64	1015.48
873.817	1074.38
873.994	1061.01
874.171	1056.36
874.348	1103.83
874.524	996.88
874.701	1073.41
874.878	984.67
875.055	1051.9
875.231	1020.9
875.408	1055
875.585	967.43
875.762	999.01
875.938	992.23
876.115	1020.13
876.291	988.93
876.468	1012.18
876.645	952.9
876.821	988.93
876.998	974.79
877.174	1001.92
877.351	980.6
877.527	946.31
877.704	990.68
877.88	976.92
878.057	960.84
878.233	1023.81
878.409	964.33
878.586	1012.18
878.762	965.1
878.938	988.93
879.115	919.38
879.291	955.8
879.467	918.02
879.644	924.8
879.82	957.55
879.996	930.42
880.172	901.36
880.349	935.27
880.525	971.3
880.701	906.01
880.877	888.38
881.053	931.39
881.229	938.75
881.405	970.53
881.581	923.84
881.757	945.34
881.933	940.3
882.109	954.64
882.285	931.39
882.461	879.47
882.637	921.7
882.813	891.09
882.989	930.23
883.165	979.63
883.341	890.9
883.517	967.62
883.693	915.5
883.869	911.05
884.044	890.32
884.22	929.45
884.396	964.33
884.572	963.75
884.747	959.48
884.923	914.92
885.099	940.3
885.275	952.12
885.45	932.17
885.626	895.94
885.801	889.35
885.977	910.08
886.153	878.5
886.328	923.06
886.504	912.99
886.679	952.51
886.855	870.75
887.03	901.94
887.206	943.4
887.381	895.35
887.557	945.34
887.732	906.01
887.908	936.82
888.083	954.06
888.258	870.17
888.434	895.74
888.609	911.24
888.784	944.95
888.96	905.43
889.135	913.76
889.31	878.69
889.485	908.14
889.661	904.85
889.836	948.63
890.011	937.79
890.186	894.77
890.361	918.99
890.537	929.65
890.712	925.77
890.887	947.67
891.062	900.39
891.237	956.97
891.412	891.67
891.587	911.24
891.762	939.72
891.937	920.54
892.112	845.37
892.287	913.37
892.462	872.88
892.637	826.57
892.812	814.56
892.987	829.87
893.161	848.27
893.336	804.87
893.511	821.54
893.686	832.97
893.861	827.93
894.035	848.27
894.21	823.28
894.385	776.59
894.56	816.11
894.734	768.84
894.909	748.88
895.084	749.66
895.258	718.66
895.433	765.74
895.608	702.77
895.782	692.69
895.957	689.01
896.131	684.75
896.306	656.85
896.48	631.47
896.655	670.41
896.829	576.64
897.004	611.9
897.178	620.04
897.353	596.21
897.527	635.73
897.701	615.2
897.876	571.99
898.05	644.84
898.224	615.2
898.399	625.85
898.573	611.71
898.747	501.27
898.921	557.85
899.096	487.71
899.27	495.85
899.444	488.68
899.618	498.37
899.792	529.75
899.967	530.72
900.141	544.67
900.315	497.01
900.489	511.15
900.663	518.52
900.837	529.95
901.011	479.77
901.185	585.36
901.359	545.06
901.533	526.85
901.707	541.18
901.881	527.62
902.055	466.59
902.229	498.37
902.403	565.6
902.576	528.2
902.75	529.17
902.924	647.55
903.098	552.62
903.272	609.77
903.446	630.7
903.619	605.9
903.793	671
903.967	647.75
904.14	706.64
904.314	665.96
904.488	670.22
904.661	703.35
904.835	647.16
905.009	695.79
905.182	721.56
905.356	670.61
905.529	656.46
905.703	644.84
905.876	623.33
906.05	618.68
906.223	604.93
906.397	559.59
906.57	535.76
906.744	547
906.917	509.99
907.09	526.27
907.264	511.73
907.437	486.16
907.61	471.24
907.784	483.25
907.957	501.47
908.13	464.65
908.304	489.84
908.477	498.56
908.65	503.6
908.823	435.59
908.996	525.88
909.17	457.87
909.343	471.05
909.516	460.39
909.689	439.85
909.862	450.9
910.035	471.63
910.208	468.34
910.381	433.65
910.554	522.2
910.727	475.89
910.9	454.77
911.073	429
911.246	527.62
911.419	543.32
911.592	457.1
911.765	450.51
911.938	443.34
912.11	486.74
912.283	478.02
912.456	495.07
912.629	447.6
912.802	443.54
912.974	389.48
913.147	358.29
913.32	312.76
913.493	392.77
913.665	393.74
913.838	376.31
914.01	392
914.183	419.9
914.356	383.47
914.528	438.5
914.701	474.92
914.873	437.72
915.046	398.97
915.218	376.5
915.391	312.95
915.563	336.01
915.736	381.73
915.908	405.17
916.081	389.48
916.253	374.95
916.425	412.34
916.598	384.44
916.77	402.07
916.942	351.7
917.115	324.58
917.287	379.99
917.459	347.44
917.632	334.07
917.804	308.11
917.976	365.26
918.148	374.95
918.32	398.39
918.493	422.8
918.665	437.53
918.837	419.7
919.009	458.45
919.181	423.97
919.353	435.01
919.525	420.29
919.697	374.76
919.869	427.07
920.041	485.77
920.213	507.08
920.385	468.53
920.557	421.25
920.729	460.97
920.901	438.89
921.073	433.65
921.244	413.12
921.416	451.29
921.588	441.6
921.76	415.83
921.932	453.61
922.103	424.35
922.275	429.2
922.447	423
922.619	372.04
922.79	406.53
922.962	395.29
923.134	429.2
923.305	357.9
923.477	359.64
923.648	368.36
923.82	384.06
923.991	341.62
924.163	340.66
924.335	371.85
924.506	360.03
924.677	419.9
924.849	367.01
925.02	360.22
925.192	382.89
925.363	343.56
925.535	388.71
925.706	346.08
925.877	406.72
926.049	333.1
926.22	369.33
926.391	388.71
926.562	388.12
926.734	332.32
926.905	369.91
927.076	287.38
927.247	329.42
927.419	294.54
927.59	260.25
927.761	308.69
927.932	308.69
928.103	297.45
928.274	247.46
928.445	252.5
928.616	285.83
928.787	233.9
928.958	264.51
929.129	250.56
929.3	243.98
929.471	210.46
929.642	165.9
929.813	133.93
929.984	236.03
930.155	116.88
930.326	209.68
930.496	132.77
930.667	94.79
930.838	162.41
931.009	125.02
931.18	131.6
931.35	133.35
931.521	159.5
931.692	102.15
931.863	37.64
932.033	127.15
932.204	109.32
932.374	141.48
932.545	80.26
932.716	119.78
932.886	115.52
933.057	34.54
933.227	62.63
933.398	123.85
933.568	48.87
933.739	34.15
933.909	37.83
934.08	64.18
934.25	-11.77
934.421	-4.99
934.591	56.62
934.761	32.6
934.932	3.15
935.102	77.16
935.272	43.84
935.443	26.01
935.613	9.74
935.783	46.74
935.953	11.09
936.123	158.15
936.294	24.46
936.464	25.62
936.634	48.1
936.804	-4.99
936.974	9.93
937.144	60.3
937.314	21.75
937.484	14.19
937.655	16.71
937.825	73.09
937.995	2.95
938.165	51.78
938.334	69.22
938.504	78.52
938.674	5.47
938.844	55.85
939.014	110.1
939.184	82.97
939.354	136.45
939.524	117.65
939.694	44.03
939.863	99.63
940.033	120.37
940.203	135.87
940.373	97.31
940.542	106.61
940.712	76.97
940.882	80.84
941.051	125.6
941.221	85.3
941.391	115.33
941.56	53.33
941.73	48.87
941.899	159.5
942.069	69.02
942.238	120.56
942.408	66.5
942.577	105.25
942.747	78.52
942.916	22.52
943.086	82.58
943.255	102.54
943.425	87.82
943.594	51.2
943.763	10.51
943.933	26.79
944.102	14.39
944.271	66.89
944.441	70.18
944.61	42.48
944.779	64.76
944.948	135.09
945.117	47.71
945.287	54.49
945.456	-8.86
945.625	47.32
945.794	37.05
945.963	54.3
946.132	93.82
946.301	65.73
946.47	69.99
946.639	16.52
946.808	23.88
946.977	84.91
947.146	95.57
947.315	62.82
947.484	68.05
947.653	29.69
947.822	40.35
947.991	42.87
948.16	106.22
948.329	111.84
948.498	88.59
948.666	54.88
948.835	104.87
949.004	16.13
949.173	14.97
949.341	58.95
949.51	56.62
949.679	86.46
949.847	82.2
950.016	113.2
950.185	98.28
950.353	44.03
950.522	52.36
950.69	84.33
950.859	44.22
951.028	100.22
951.196	74.25
951.365	55.46
951.533	19.04
951.701	98.08
951.87	79.29
952.038	-0.53
952.207	52.75
952.375	113.39
952.543	45.39
952.712	25.62
952.88	44.22
953.048	106.42
953.217	64.57
953.385	87.43
953.553	102.73
953.721	30.66
953.89	80.84
954.058	34.34
954.226	52.75
954.394	73.67
954.562	11.09
954.73	68.44
954.898	24.85
955.067	92.27
955.235	54.88
955.403	92.85
955.571	134.7
955.739	87.04
955.907	46.55
956.075	35.7
956.243	43.64
956.41	64.37
956.578	26.98
956.746	21.17
956.914	33.57
957.082	91.69
957.25	78.13
957.418	57.59
957.585	55.85
957.753	72.32
957.921	29.89
958.089	57.59
958.256	68.63
958.424	61.85
958.592	90.33
958.759	48.68
958.927	111.26
959.095	49.45
959.262	42.48
959.43	63.99
959.597	37.05
959.765	74.25
959.932	51.97
960.1	61.27
960.267	64.18
960.435	53.52
960.602	75.03
960.77	36.09
960.937	21.75
961.104	72.51
961.272	25.82
961.439	20.2
961.606	78.9
961.774	92.47
961.941	59.92
962.108	78.13
962.275	63.79
962.443	88.98
962.61	96.73
962.777	119.2
962.944	74.45
963.111	78.32
963.278	84.52
963.446	90.72
963.613	69.02
963.78	92.85
963.947	113.2
964.114	91.11
964.281	140.13
964.448	83.94
964.615	61.27
964.782	106.42
964.949	119.59
965.116	84.13
965.282	134.7
965.449	74.83
965.616	45.19
965.783	112.03
965.95	66.7
966.117	36.86
966.283	61.27
966.45	81.03
966.617	88.59
966.784	131.6
966.95	102.93
967.117	103.51
967.284	61.27
967.45	59.53
967.617	149.23
967.784	107
967.95	150.01
968.117	66.12
968.283	115.13
968.45	177.52
968.616	91.11
968.783	143.03
968.949	103.9
969.116	130.05
969.282	109.13
969.449	147.88
969.615	122.5
969.781	50.23
969.948	72.51
970.114	56.62
970.28	145.94
970.447	96.73
970.613	159.5
970.779	106.8
970.945	128.89
971.112	102.73
971.278	94.98
971.444	101.96
971.61	131.6
971.776	73.87
971.942	112.03
972.108	114.75
972.275	77.35
972.441	109.71
972.607	170.16
972.773	66.89
972.939	102.54
973.105	100.99
973.271	51
973.437	90.33
973.602	67.67
973.768	101.96
973.934	96.15
974.1	117.27
974.266	8.38
974.432	91.11
974.598	94.21
974.763	120.37
974.929	82
975.095	154.08
975.261	87.04
975.426	47.52
975.592	84.91
975.758	126.95
975.923	36.86
976.089	59.72
976.255	116.68
976.42	83.75
976.586	95.95
976.751	90.53
976.917	162.8
977.082	109.13
977.248	49.65
977.413	0.63
977.579	52.75
977.744	76.38
977.91	72.32
978.075	78.32
978.24	135.48
978.406	101.57
978.571	69.99
978.736	68.83
978.902	113.97
979.067	60.89
979.232	26.59
979.397	77.93
979.563	130.44
979.728	35.31
979.893	58.75
980.058	63.99
980.223	98.28
980.388	97.5
980.554	88.01
980.719	59.34
980.884	77.74
981.049	119.2
981.214	68.05
981.379	95.37
981.544	67.08
981.709	85.3
981.874	88.2
982.039	70.38
982.204	118.43
982.368	90.33
982.533	48.49
982.698	109.9
982.863	125.6
983.028	49.65
983.193	90.92
983.357	80.07
983.522	96.34
983.687	67.67
983.852	89.37
984.016	84.52
984.181	82.97
984.346	87.82
984.51	101.18
984.675	89.75
984.839	63.79
985.004	99.44
985.168	145.55
985.333	72.7
985.498	81.23
985.662	112.62
985.827	88.98
985.991	74.64
986.155	56.43
986.32	120.17
986.484	114.36
986.649	100.02
986.813	23.69
986.977	80.45
987.142	123.47
987.306	46.55
987.47	67.47
987.634	55.27
987.799	66.89
987.963	88.01
988.127	126.76
988.291	136.25
988.455	103.12
988.62	73.09
988.784	94.98
988.948	116.68
989.112	64.76
989.276	87.23
989.44	70.57
989.604	54.69
989.768	65.53
989.932	146.72
990.096	67.67
990.26	43.64
990.424	28.72
990.588	72.7
990.752	141.29
990.915	110.1
991.079	53.72
991.243	52.36
991.407	92.85
991.571	97.31
991.734	85.49
991.898	91.88
992.062	152.33
992.226	95.18
992.389	69.22
992.553	15.94
992.717	48.29
992.88	77.55
993.044	71.73
993.207	76.38
993.371	98.86
993.535	96.73
993.698	78.52
993.862	127.34
994.025	96.34
994.189	69.41
994.352	95.76
994.515	98.86
994.679	96.53
994.842	71.93
995.006	84.33
995.169	59.53
995.332	44.8
995.496	92.47
995.659	34.54
995.822	63.99
995.985	76.97
996.149	95.37
996.312	61.27
996.475	124.63
996.638	72.51
996.801	120.75
996.964	120.17
997.128	67.28
997.291	68.05
997.454	69.6
997.617	37.25
997.78	94.02
997.943	27.75
998.106	106.03
998.269	46.55
998.432	75.8
998.595	56.82
998.758	-2.47
998.92	35.31
999.083	2.76
999.246	76.19
999.409	21.55
999.572	6.64
999.735	34.15
999.897	81.03
1000.06	41.12
1000.223	28.72
1000.386	68.83
1000.548	78.9
1000.711	78.9
1000.874	75.22
1001.036	6.44
1001.199	100.22
1001.361	43.84
1001.524	56.62
1001.687	84.33
1001.849	35.5
1002.012	77.55
1002.174	48.1
1002.337	78.52
1002.499	63.02
1002.661	90.92
1002.824	5.47
1002.986	34.34
1003.149	39.19
1003.311	27.75
1003.473	112.62
1003.636	40.35
1003.798	65.15
1003.96	66.89
1004.123	69.6
1004.285	32.02
1004.447	44.42
1004.609	45.39
1004.771	103.51
1004.933	11.67
1005.096	29.3
1005.258	5.47
1005.42	49.07
1005.582	77.93
1005.744	56.82
1005.906	-3.44
1006.068	61.47
1006.23	-14.87
1006.392	-0.92
1006.554	36.09
1006.716	63.4
1006.878	54.1
1007.04	10.12
1007.202	14.39
1007.363	57.59
1007.525	57.4
1007.687	78.13
1007.849	84.33
1008.011	-2.28
1008.172	16.9
1008.334	20.39
1008.496	52.55
1008.658	15.74
1008.819	12.84
1008.981	2.18
1009.143	11.48
1009.304	22.72
1009.466	68.44
1009.627	102.15
1009.789	139.93
1009.95	55.65
1010.112	31.63
1010.273	50.81
1010.435	-0.73
1010.596	-8.86
1010.758	24.27
1010.919	26.01
1011.081	-9.64
1011.242	7.6
1011.403	50.04
1011.565	51.2
1011.726	55.85
1011.887	10.51
1012.049	35.12
1012.21	70.57
1012.371	82.78
1012.532	-30.95
1012.693	40.74
1012.855	31.63
1013.016	22.91
1013.177	65.15
1013.338	22.72
1013.499	69.8
1013.66	36.09
1013.821	58.56
1013.982	41.32
1014.143	24.27
1014.304	14.97
1014.465	40.74
1014.626	65.15
1014.787	15.55
1014.948	115.91
1015.109	-51.88
1015.27	59.53
1015.431	26.01
1015.592	4.5
1015.752	74.45
1015.913	40.93
1016.074	40.54
1016.235	26.01
1016.395	49.65
1016.556	36.86
1016.717	15.16
1016.877	72.12
1017.038	-6.93
1017.199	48.1
1017.359	21.17
1017.52	22.33
1017.681	11.87
1017.841	21.55
1018.002	8.77
1018.162	9.15
1018.323	75.03
1018.483	28.34
1018.644	4.7
1018.804	-7.9
1018.964	-14.68
1019.125	11.48
1019.285	20
1019.446	2.18
1019.606	-22.81
1019.766	-21.26
1019.926	39.38
1020.087	35.5
1020.247	3.15
1020.407	35.7
1020.567	65.92
1020.728	5.86
1020.888	-14.87
1021.048	-12.55
1021.208	17.68
1021.368	-20.88
1021.528	54.69
1021.688	25.24
1021.848	39.57
1022.008	33.18
1022.168	16.52
1022.328	19.42
1022.488	51.97
1022.648	26.2
1022.808	4.31
1022.968	45.19
1023.128	2.57
1023.288	20
1023.448	25.24
1023.608	40.54
1023.767	38.8
1023.927	-7.12
1024.087	-22.62
1024.247	-9.64
1024.406	16.9
1024.566	-2.86
1024.726	-38.12
1024.885	9.93
1025.045	25.04
1025.205	32.79
1025.364	0.05
1025.524	13.8
1025.683	8.77
1025.843	18.26
1026.003	4.5
1026.162	60.5
1026.321	44.61
1026.481	19.23
1026.64	6.25
1026.8	-1.31
1026.959	8.77
1027.119	36.09
1027.278	31.63
1027.437	7.99
1027.597	7.41
1027.756	31.82
1027.915	38.41
1028.074	23.3
1028.234	-20.68
1028.393	20.2
1028.552	3.54
1028.711	-35.6
1028.87	39.38
1029.03	-25.91
1029.189	15.16
1029.348	-37.54
1029.507	-11.58
1029.666	-40.06
1029.825	-19.71
1029.984	7.8
1030.143	23.3
1030.302	-5.96
1030.461	-28.24
1030.62	16.71
1030.779	34.54
1030.938	-26.3
1031.097	-18.16
1031.255	43.64
1031.414	44.03
1031.573	53.52
1031.732	-18.36
1031.891	-2.66
1032.049	36.47
1032.208	35.5
1032.367	-10.61
1032.525	-15.45
1032.684	-8.48
1032.843	-6.35
1033.001	-22.81
1033.16	154.46
1033.319	20.2
1033.477	17.87
1033.636	-26.11
1033.794	-43.16
1033.953	35.7
1034.111	45
1034.27	2.57
1034.428	27.56
1034.587	-20.1
1034.745	7.99
1034.903	-4.41
1035.062	24.07
1035.22	-30.18
1035.378	52.94
1035.537	5.86
1035.695	48.1
1035.853	27.37
1036.011	61.27
1036.17	16.13
1036.328	-27.85
1036.486	9.74
1036.644	41.7
1036.802	-83.46
1036.96	-11.58
1037.119	-8.86
1037.277	-38.89
1037.435	-28.24
1037.593	-23.01
1037.751	8.57
1037.909	38.02
1038.067	38.02
