Data from oakcork_FLMT105791__36__17-27-11-066.txt Node

Date: Mon Mar 20 17:27:11 GMT 2023
User: antho
Spectrometer: FLMT10579
Trigger mode: 0
Integration Time (sec): 1.000000E-1
Scans to average: 10
Electric dark correction enabled: true
Nonlinearity correction enabled: false
Boxcar width: 0
XAxis mode: Wavelengths
Number of Pixels in Spectrum: 3648
>>>>>Begin Spectral Data<<<<<
345.248	-160.66
345.464	-160.66
345.681	-160.66
345.898	-172.68
346.114	-166.86
346.331	-36.28
346.548	29.98
346.764	12.55
346.981	-7.22
347.197	-25.24
347.414	22.04
347.631	-34.34
347.847	66.99
348.064	-1.6
348.28	26.88
348.497	-42.87
348.713	-10.9
348.93	41.22
349.146	23.2
349.363	22.62
349.579	0.53
349.796	16.81
350.012	25.14
350.229	31.53
350.445	-15.74
350.661	-1.79
350.878	0.34
351.094	17.58
351.311	38.51
351.527	17.2
351.743	-18.45
351.96	63.11
352.176	58.08
352.392	42.77
352.609	36.57
352.825	5.57
353.041	18.75
353.257	1.89
353.474	0.92
353.69	7.51
353.906	39.86
354.122	-7.8
354.339	65.24
354.555	15.84
354.771	-5.09
354.987	61.37
355.203	80.36
355.42	10.03
355.636	5.76
355.852	-9.93
356.068	23.39
356.284	-3.15
356.5	74.54
356.716	42.19
356.932	3.83
357.148	58.27
357.364	25.91
357.58	47.61
357.796	54.39
358.012	58.46
358.228	9.45
358.444	-54.1
358.66	85.78
358.876	45.68
359.092	-37.83
359.308	41.61
359.524	21.84
359.74	-11.09
359.956	-22.91
360.172	21.46
360.388	60.4
360.604	5.18
360.819	63.11
361.035	11.77
361.251	34.63
361.467	-16.71
361.683	65.63
361.898	31.92
362.114	43.54
362.33	35.79
362.546	39.28
362.762	18.36
362.977	28.63
363.193	-12.25
363.409	17.39
363.624	-6.64
363.84	-1.02
364.056	23.39
364.271	46.45
364.487	22.23
364.703	1.5
364.918	-9.93
365.134	13.9
365.35	4.6
365.565	101.48
365.781	28.63
365.996	44.71
366.212	81.13
366.427	38.12
366.643	5.96
366.858	6.54
367.074	-18.07
367.289	75.32
367.505	109.03
367.72	-38.02
367.936	1.7
368.151	61.56
368.367	49.74
368.582	23.78
368.798	12.35
369.013	75.32
369.228	43.16
369.444	39.86
369.659	72.03
369.874	37.15
370.09	71.83
370.305	-22.91
370.52	33.47
370.736	81.71
370.951	25.91
371.166	59.24
371.381	85.39
371.597	41.8
371.812	-15.35
372.027	2.47
372.242	22.04
372.458	91.01
372.673	7.51
372.888	44.9
373.103	55.75
373.318	105.93
373.533	51.68
373.749	47.42
373.964	-9.93
374.179	72.22
374.394	1.11
374.609	74.74
374.824	-3.92
375.039	54.78
375.254	6.15
375.469	78.61
375.684	53.23
375.899	54.98
376.114	46.06
376.329	37.34
376.544	86.36
376.759	79.58
376.974	-7.6
377.189	15.45
377.404	5.18
377.619	78.81
377.834	20.68
378.049	15.26
378.264	-7.8
378.478	55.75
378.693	14.48
378.908	83.84
379.123	37.15
379.338	51.49
379.553	48
379.767	60.4
379.982	63.69
380.197	33.47
380.412	21.85
380.626	35.41
380.841	120.27
381.056	37.34
381.271	100.51
381.485	27.46
381.7	21.07
381.915	35.02
382.129	15.26
382.344	38.89
382.559	7.31
382.773	69.89
382.988	-0.05
383.202	42.58
383.417	8.67
383.632	106.9
383.846	34.24
384.061	49.55
384.275	47.61
384.49	54.01
384.704	51.1
384.919	39.09
385.133	35.21
385.348	30.37
385.562	17.2
385.777	67.18
385.991	41.99
386.206	10.03
386.42	21.07
386.634	96.24
386.849	47.61
387.063	41.99
387.277	9.25
387.492	24.17
387.706	34.44
387.92	16.42
388.135	76.09
388.349	70.28
388.563	58.08
388.778	56.91
388.992	49.74
389.206	67.96
389.42	130.34
389.635	59.82
389.849	82.1
390.063	66.21
390.277	55.75
390.491	119.69
390.706	81.91
390.92	74.35
391.134	69.89
391.348	68.73
391.562	12.55
391.776	42.77
391.99	57.3
392.205	66.99
392.419	10.8
392.633	27.85
392.847	74.54
393.061	50.71
393.275	110.39
393.489	53.04
393.703	33.47
393.917	77.06
394.131	23.59
394.345	80.74
394.559	86.75
394.773	35.6
394.986	62.34
395.2	51.68
395.414	87.53
395.628	35.41
395.842	67.38
396.056	36.96
396.27	3.83
396.484	81.52
396.697	79.78
396.911	84.81
397.125	87.91
397.339	102.44
397.553	70.09
397.766	110.97
397.98	99.34
398.194	79.78
398.408	79.78
398.621	85.01
398.835	102.83
399.049	80.36
399.262	124.53
399.476	117.17
399.69	89.85
399.903	162.31
400.117	87.33
400.331	93.73
400.544	74.35
400.758	193.31
400.971	97.21
401.185	136.35
401.398	42.96
401.612	140.81
401.826	125.11
402.039	125.89
402.253	70.67
402.466	134.02
402.68	127.63
402.893	110.19
403.106	104.19
403.32	124.53
403.533	128.21
403.747	82.49
403.96	110.97
404.174	120.27
404.387	61.18
404.6	116.2
404.814	124.92
405.027	113.29
405.24	130.73
405.454	106.51
405.667	136.16
405.88	47.81
406.094	107.87
406.307	149.91
406.52	123.76
406.733	93.92
406.947	60.59
407.16	167.54
407.373	137.12
407.586	84.62
407.799	76.09
408.012	118.33
408.226	126.27
408.439	155.53
408.652	94.31
408.865	116.97
409.078	156.31
409.291	149.52
409.504	116.78
409.717	127.82
409.93	170.84
410.143	108.45
410.357	84.23
410.57	62.53
410.783	100.31
410.996	90.24
411.209	99.34
411.421	158.24
411.634	121.24
411.847	82.68
412.06	140.22
412.273	126.08
412.486	126.08
412.699	213.46
412.912	131.7
413.125	161.34
413.338	141.19
413.55	166.77
413.763	131.12
413.976	124.34
414.189	104.58
414.402	131.7
414.615	201.64
414.827	90.63
415.04	142.94
415.253	147.2
415.466	174.91
415.678	185.56
415.891	144.29
416.104	142.94
416.316	134.22
416.529	133.06
416.742	162.31
416.954	195.64
417.167	134.99
417.38	136.93
417.592	177.81
417.805	112.91
418.017	111.16
418.23	173.16
418.442	105.54
418.655	135.96
418.868	138.29
419.08	181.3
419.293	183.62
419.505	158.24
419.718	142.74
419.93	175.87
420.142	131.7
420.355	181.88
420.567	185.56
420.78	142.55
420.992	127.44
421.205	225.67
421.417	127.24
421.629	124.72
421.842	143.13
422.054	116.59
422.266	152.82
422.479	196.6
422.691	115.04
422.903	173.74
423.115	142.74
423.328	155.14
423.54	151.27
423.752	153.4
423.964	141.97
424.177	160.37
424.389	153.01
424.601	242.72
424.813	177.04
425.025	202.42
425.238	195.06
425.45	159.79
425.662	121.24
425.874	453.71
426.086	156.89
426.298	172.97
426.51	202.03
426.722	156.5
426.934	141.77
427.146	185.37
427.358	128.79
427.57	237.29
427.782	159.02
427.994	174.32
428.206	142.36
428.418	125.89
428.63	184.98
428.842	190.6
429.054	177.23
429.266	185.37
429.478	138.48
429.69	167.74
429.902	118.33
430.114	191.37
430.325	142.94
430.537	137.51
430.749	118.91
430.961	91.4
431.173	123.56
431.384	173.74
431.596	84.43
431.808	150.11
432.02	171.22
432.231	203.77
432.443	217.14
432.655	190.6
432.867	136.93
433.078	209.97
433.29	247.17
433.502	219.66
433.713	222.37
433.925	209.78
434.136	229.35
434.348	140.61
434.56	128.02
434.771	279.34
434.983	119.88
435.194	196.02
435.406	175.29
435.617	236.52
435.829	291.54
436.04	223.54
436.252	214.04
436.463	256.86
436.675	240.59
436.886	221.79
437.098	229.54
437.309	277.98
437.521	244.85
437.732	228.19
437.943	205.13
438.155	225.86
438.366	157.47
438.578	252.21
438.789	205.13
439	241.94
439.211	225.28
439.423	230.32
439.634	245.62
439.845	271.97
440.057	248.72
440.268	253.57
440.479	210.75
440.69	247.95
440.902	212.49
441.113	225.09
441.324	193.89
441.535	247.75
441.746	310.33
441.957	214.62
442.168	235.94
442.38	257.64
442.591	275.65
442.802	222.57
443.013	237.87
443.224	275.85
443.435	225.09
443.646	245.43
443.857	256.86
444.068	243.49
444.279	231.29
444.49	337.07
444.701	274.69
444.912	347.53
445.123	307.04
445.334	279.92
445.545	264.42
445.756	265.58
445.967	213.07
446.178	269.45
446.388	317.12
446.599	284.76
446.81	285.53
447.021	239.23
447.232	295.22
447.443	330.48
447.653	241.94
447.864	340.95
448.075	263.45
448.286	308.78
448.496	277.2
448.707	349.47
448.918	275.85
449.129	366.72
449.339	258.41
449.55	300.45
449.761	274.3
449.971	349.08
450.182	293.28
450.393	320.6
450.603	278.95
450.814	329.52
451.024	302.78
451.235	342.3
451.446	375.05
451.656	352.77
451.867	290.38
452.077	326.42
452.288	354.32
452.498	347.34
452.709	283.79
452.919	320.41
453.13	283.21
453.34	337.65
453.55	245.43
453.761	327.97
453.971	317.12
454.182	345.98
454.392	346.37
454.602	379.89
454.813	316.15
455.023	358.77
455.233	298.13
455.444	313.82
455.654	271.39
455.864	294.45
456.075	288.25
456.285	299.29
456.495	306.27
456.705	360.32
456.916	399.65
457.126	389.58
457.336	327.97
457.546	273.91
457.756	289.02
457.967	349.67
458.177	290.57
458.387	311.11
458.597	277.2
458.807	319.63
459.017	320.41
459.227	331.45
459.437	322.54
459.647	341.53
459.857	350.05
460.068	299.68
460.278	371.56
460.488	377.76
460.698	406.63
460.908	321.38
461.117	300.26
461.327	295.03
461.537	355.09
461.747	348.89
461.957	362.65
462.167	434.33
462.377	381.25
462.587	354.32
462.797	376.79
463.007	357.42
463.216	363.23
463.426	420.19
463.636	397.33
463.846	311.3
464.056	345.6
464.265	399.46
464.475	315.57
464.685	367.49
464.895	381.63
465.104	349.86
465.314	375.24
465.524	353.73
465.733	348.5
465.943	426.39
466.153	433.36
466.362	432.4
466.572	363.42
466.782	349.08
466.991	372.72
467.201	427.75
467.41	347.92
467.62	401.4
467.829	376.4
468.039	391.13
468.249	353.15
468.458	393.45
468.668	410.7
468.877	413.41
469.086	422.51
469.296	455.26
469.505	372.91
469.715	446.35
469.924	391.13
470.134	458.55
470.343	442.47
470.552	388.03
470.762	414.18
470.971	377.37
471.18	404.11
471.39	383.96
471.599	371.75
471.808	412.05
472.018	415.54
472.227	446.93
472.436	471.53
472.645	441.31
472.855	413.41
473.064	467.85
473.273	434.72
473.482	449.06
473.691	450.03
473.901	463.2
474.11	442.08
474.319	550.19
474.528	471.92
474.737	485.68
474.946	470.18
475.155	494.98
475.364	518.03
475.573	489.55
475.783	473.08
475.992	480.64
476.201	526.17
476.41	463.78
476.619	450.22
476.828	482.58
477.037	462.62
477.245	478.51
477.454	527.33
477.663	501.76
477.872	491.49
478.081	543.8
478.29	457.78
478.499	540.12
478.708	528.3
478.917	588.56
479.125	499.04
479.334	525.39
479.543	509.51
479.752	531.21
479.961	516.87
480.169	540.31
480.378	518.81
480.587	650.17
480.796	552.13
481.004	531.4
481.213	602.89
481.422	559.88
481.63	569.76
481.839	598.82
482.048	625.37
482.256	584.49
482.465	599.79
482.674	607.93
482.882	597.86
483.091	659.47
483.299	615.87
483.508	636.6
483.716	605.02
483.925	600.18
484.134	618.59
484.342	593.4
484.551	639.9
484.759	612.19
484.967	625.17
485.176	623.24
485.384	631.57
485.593	631.18
485.801	633.31
486.01	607.74
486.218	576.35
486.426	519.19
486.635	570.15
486.843	541.86
487.051	589.72
487.26	577.51
487.468	611.42
487.676	627.5
487.885	578.09
488.093	622.46
488.301	626.14
488.509	656.75
488.717	677.68
488.926	651.14
489.134	644.74
489.342	664.89
489.55	639.51
489.758	686.01
489.967	645.71
490.175	756.73
490.383	642.61
490.591	752.08
490.799	664.5
491.007	742.78
491.215	720.89
491.423	692.99
491.631	683.3
491.839	707.71
492.047	720.3
492.255	623.82
492.463	655.59
492.671	676.9
492.879	710.62
493.087	719.72
493.295	724.95
493.503	707.9
493.711	736
493.919	756.15
494.127	758.86
494.334	762.15
494.542	686.98
494.75	734.64
494.958	705
495.166	786.57
495.374	776.3
495.581	761.77
495.789	785.79
495.997	813.3
496.205	745.88
496.412	727.86
496.62	753.24
496.828	752.47
497.035	748.2
497.243	780.95
497.451	749.56
497.658	790.83
497.866	720.88
498.074	842.95
498.281	731.73
498.489	857.48
498.696	784.63
498.904	750.53
499.112	753.24
499.319	825.31
499.527	763.7
499.734	801.87
499.942	754.4
500.149	759.44
500.357	780.17
500.564	718.37
500.771	789.86
500.979	747.04
501.186	723.98
501.394	786.76
501.601	747.43
501.808	790.44
502.016	745.49
502.223	739.1
502.43	753.05
502.638	759.25
502.845	721.08
503.052	825.31
503.26	772.23
503.467	831.13
503.674	762.35
503.881	811.17
504.089	868.52
504.296	824.15
504.503	757.7
504.71	808.46
504.917	780.95
505.125	786.37
505.332	819.89
505.539	807.88
505.746	869.88
505.953	886.35
506.16	860.38
506.367	878.01
506.574	884.6
506.781	857.09
506.988	836.94
507.195	833.06
507.402	849.34
507.609	872.2
507.816	801.68
508.023	800.32
508.23	814.85
508.437	790.83
508.644	854.38
508.851	883.44
509.058	888.67
509.265	847.6
509.472	878.01
509.679	943.69
509.885	861.35
510.092	870.26
510.299	884.99
510.506	866.78
510.713	892.74
510.92	855.73
511.126	878.4
511.333	881.5
511.54	904.56
511.746	923.93
511.953	915.41
512.16	920.83
512.367	903.01
512.573	862.9
512.78	871.23
512.987	903.01
513.193	924.13
513.4	825.12
513.606	919.09
513.813	919.09
514.02	907.27
514.226	958.81
514.433	924.13
514.639	877.82
514.846	892.35
515.052	876.27
515.259	903.01
515.465	934.98
515.672	906.11
515.878	1020.03
516.085	919.67
516.291	968.69
516.497	895.06
516.704	897.97
516.91	890.61
517.117	850.5
517.323	788.31
517.529	852.63
517.736	856.9
517.942	875.11
518.148	850.5
518.354	891.38
518.561	886.35
518.767	882.66
518.973	895.64
519.179	959.58
519.386	893.9
519.592	848.95
519.798	891.77
520.004	990.19
520.21	910.37
520.417	967.72
520.623	971.79
520.829	1010.15
521.035	994.65
521.241	1006.08
521.447	995.42
521.653	1061.88
521.859	998.72
522.065	1002.21
522.271	1085.71
522.477	1033.59
522.683	1102.76
522.889	1024.68
523.095	1014.99
523.301	1039.79
523.507	988.26
523.713	1060.33
523.919	990.58
524.125	1079.9
524.331	1032.04
524.537	1136.86
524.742	1096.95
524.948	1111.48
525.154	1122.52
525.36	1209.71
525.566	1084.94
525.772	1112.45
525.977	1079.7
526.183	1148.1
526.389	1132.02
526.595	1072.92
526.8	1060.91
527.006	1016.54
527.212	989.22
527.417	1014.8
527.623	1001.04
527.829	1059.75
528.034	1069.24
528.24	1081.64
528.446	1059.56
528.651	1153.14
528.857	1167.67
529.062	1195.37
529.268	1117.29
529.473	1163.02
529.679	1165.34
529.884	1201.77
530.09	1188.78
530.295	1232.77
530.501	1192.66
530.706	1187.82
530.912	1130.27
531.117	1173.28
531.323	1182.39
531.528	1231.22
531.733	1202.93
531.939	1169.22
532.144	1219.98
532.35	1210.68
532.555	1255.05
532.76	1225.79
532.966	1214.36
533.171	1196.15
533.376	1179.29
533.581	1173.67
533.787	1188.01
533.992	1210.29
534.197	1240.71
534.402	1209.13
534.607	1213.97
534.813	1289.34
535.018	1219.4
535.223	1204.28
535.428	1231.41
535.633	1288.95
535.838	1289.34
536.043	1253.88
536.249	1345.33
536.454	1276.94
536.659	1261.83
536.864	1216.88
537.069	1241.1
537.274	1259.5
537.479	1281.01
537.684	1263.76
537.889	1209.13
538.094	1329.25
538.299	1288.95
538.504	1264.93
538.708	1268.41
538.913	1312.01
539.118	1270.93
539.323	1291.08
539.528	1270.16
539.733	1280.81
539.938	1322.47
540.142	1303.1
540.347	1255.43
540.552	1259.89
540.757	1248.46
540.962	1249.81
541.166	1223.27
541.371	1215.52
541.576	1273.26
541.781	1178.13
541.985	1298.45
542.19	1286.05
542.395	1324.99
542.599	1358.12
542.804	1295.54
543.008	1346.3
543.213	1287.4
543.418	1272.48
543.622	1341.84
543.827	1266.28
544.031	1348.24
544.236	1348.43
544.44	1314.14
544.645	1419.15
544.849	1287.21
545.054	1348.82
545.258	1425.35
545.463	1420.51
545.667	1333.71
545.872	1351.34
546.076	1353.47
546.281	1345.72
546.485	1342.81
546.689	1358.31
546.894	1375.36
547.098	1381.95
547.302	1322.47
547.507	1341.26
547.711	1368.97
547.915	1415.47
548.119	1331
548.324	1298.06
548.528	1388.34
548.732	1359.09
548.936	1401.13
549.141	1387.76
549.345	1354.05
549.549	1360.44
549.753	1369.55
549.957	1416.44
550.161	1435.81
550.366	1350.95
550.57	1339.71
550.774	1361.03
550.978	1360.64
551.182	1391.83
551.386	1353.47
551.59	1377.3
551.794	1360.83
551.998	1393.19
552.202	1361.99
552.406	1341.26
552.61	1371.29
552.814	1357.15
553.018	1458.67
553.222	1363.54
553.426	1361.03
553.63	1426.71
553.833	1360.25
554.037	1340.1
554.241	1385.44
554.445	1365.68
554.649	1355.41
554.853	1347.85
555.056	1405.59
555.26	1407.91
555.464	1377.3
555.668	1363.93
555.871	1405.39
556.075	1414.89
556.279	1357.93
556.483	1334.48
556.686	1340.29
556.89	1354.63
557.094	1354.24
557.297	1266.28
557.501	1397.06
557.704	1295.54
557.908	1381.56
558.112	1305.03
558.315	1431.36
558.519	1310.26
558.722	1354.63
558.926	1314.53
559.129	1268.61
559.333	1261.83
559.536	1264.15
559.74	1287.6
559.943	1251.75
560.147	1268.22
560.35	1266.67
560.553	1265.31
560.757	1214.75
560.96	1374.2
561.164	1257.76
561.367	1346.11
561.57	1301.74
561.774	1275
561.977	1251.95
562.18	1292.63
562.384	1362.38
562.587	1268.61
562.79	1256.98
562.993	1248.26
563.197	1287.01
563.4	1307.75
563.603	1300
563.806	1336.81
564.009	1224.63
564.212	1322.66
564.416	1195.95
564.619	1286.82
564.822	1204.48
565.025	1294.76
565.228	1246.71
565.431	1265.51
565.634	1162.43
565.837	1223.08
566.04	1187.04
566.243	1194.6
566.446	1124.27
566.649	1225.98
566.852	1145.39
567.055	1165.73
567.258	1227.73
567.461	1267.06
567.664	1259.31
567.867	1158.75
568.07	1211.65
568.273	1215.91
568.475	1231.41
568.678	1155.46
568.881	1170.96
569.084	1163.21
569.287	1121.94
569.489	1108.77
569.692	1148.87
569.895	1156.24
570.098	1130.27
570.3	1137.44
570.503	1041.54
570.706	1077.77
570.909	1109.54
571.111	1082.22
571.314	1061.88
571.516	1099.85
571.719	1140.74
571.922	1064.59
572.124	1082.22
572.327	1120
572.529	1016.93
572.732	1051.81
572.935	1122.91
573.137	1154.49
573.34	1021.19
573.542	1109.93
573.745	1099.27
573.947	1096.95
574.15	1059.56
574.352	1045.02
574.554	1131.82
574.757	1060.52
574.959	1026.62
575.162	1017.51
575.364	1030.11
575.566	1149.84
575.769	1019.64
575.971	1051.03
576.173	915.41
576.376	1008.02
576.578	1082.61
576.78	1089.97
576.982	954.93
577.185	1024.87
577.387	981.86
577.589	984.77
577.791	1037.86
577.993	1038.82
578.196	1007.44
578.398	1021.77
578.6	1042.12
578.802	970.82
579.004	986.32
579.206	974.89
579.408	1003.56
579.61	999.11
579.812	1056.65
580.014	989.81
580.216	997.75
580.418	1019.64
580.62	978.57
580.822	949.89
581.024	990.39
581.226	1029.52
581.428	997.56
581.63	1044.83
581.832	982.83
582.034	1028.17
582.236	1005.89
582.438	1044.44
582.64	1042.31
582.841	1068.27
583.043	1101.99
583.245	1001.62
583.447	1041.54
583.649	994.26
583.85	1039.21
584.052	1051.42
584.254	1005.31
584.456	1027.2
584.657	945.05
584.859	1004.34
585.061	994.46
585.262	986.51
585.464	990.39
585.666	1052
585.867	979.73
586.069	1033.79
586.27	1020.61
586.472	1020.42
586.674	957.45
586.875	976.63
587.077	952.8
587.278	985.54
587.48	971.01
587.681	1068.86
587.883	992.91
588.084	945.63
588.285	930.91
588.487	956.68
588.688	973.34
588.89	897.97
589.091	906.69
589.292	916.76
589.494	888.48
589.695	849.15
589.896	802.26
590.098	819.89
590.299	875.3
590.5	822.8
590.702	870.07
590.903	860.77
591.104	937.49
591.305	888.09
591.507	949.7
591.708	910.18
591.909	901.26
592.11	943.5
592.311	917.34
592.512	907.46
592.714	858.06
592.915	877.24
593.116	878.01
593.317	877.05
593.518	895.64
593.719	889.06
593.92	918.31
594.121	966.36
594.322	922.19
594.523	920.06
594.724	863.68
594.925	865.42
595.126	928.78
595.327	898.94
595.528	893.32
595.729	914.83
595.929	883.05
596.13	896.23
596.331	897.97
596.532	925.87
596.733	926.06
596.934	961.52
597.135	922.96
597.335	933.04
597.536	875.11
597.737	891.38
597.938	857.86
598.138	910.56
598.339	900.49
598.54	927.61
598.74	881.5
598.941	889.64
599.142	946.41
599.342	900.1
599.543	851.28
599.744	880.92
599.944	899.91
600.145	873.17
600.345	912.69
600.546	931.1
600.746	948.15
600.947	975.66
601.147	924.71
601.348	925.48
601.548	862.51
601.749	903.78
601.949	832.87
602.15	850.89
602.35	865.42
602.551	913.28
602.751	853.99
602.951	862.32
603.152	841.78
603.352	909.98
603.552	877.63
603.753	934.01
603.953	881.7
604.153	854.18
604.354	886.93
604.554	857.48
604.754	903.01
604.954	847.79
605.155	877.24
605.355	866
605.555	914.83
605.755	919.09
605.955	893.32
606.155	913.86
606.356	895.26
606.556	884.8
606.756	901.07
606.956	824.54
607.156	923.93
607.356	841.78
607.556	892.74
607.756	889.25
607.956	930.71
608.156	862.71
608.356	855.73
608.556	877.63
608.756	867.94
608.956	814.08
609.156	874.72
609.356	845.27
609.556	838.3
609.755	875.69
609.955	839.07
610.155	855.73
610.355	870.65
610.555	826.48
610.755	871.43
610.954	812.33
611.154	848.76
611.354	852.83
611.554	846.43
611.753	806.91
611.953	801.87
612.153	853.6
612.352	867.94
612.552	764.87
612.752	739.29
612.951	839.46
613.151	818.34
613.351	811.75
613.55	795.09
613.75	828.8
613.949	804
614.149	816.4
614.348	819.7
614.548	789.86
614.747	764.67
614.947	767.97
615.146	729.22
615.346	826.86
615.545	841.59
615.745	808.07
615.944	838.3
616.144	794.51
616.343	830.74
616.542	793.15
616.742	783.85
616.941	803.23
617.14	715.07
617.34	799.74
617.539	767.77
617.738	723.98
617.938	822.21
618.137	765.83
618.336	735.22
618.535	800.71
618.734	771.84
618.934	783.08
619.133	781.92
619.332	803.23
619.531	750.92
619.73	764.48
619.929	806.13
620.128	773.39
620.328	841.59
620.527	766.03
620.726	774.94
620.925	806.72
621.124	770.29
621.323	780.56
621.522	729.22
621.721	699.96
621.92	731.54
622.119	779.4
622.318	751.11
622.517	751.88
622.715	760.8
622.914	719.53
623.113	716.43
623.312	694.34
623.511	784.24
623.71	734.45
623.909	719.72
624.107	791.8
624.306	690.85
624.505	741.81
624.704	718.56
624.902	695.5
625.101	779.4
625.3	762.73
625.499	696.47
625.697	709.84
625.896	678.65
626.095	714.1
626.293	684.27
626.492	697.83
626.69	696.47
626.889	688.53
627.088	768.55
627.286	695.89
627.485	698.22
627.683	678.84
627.882	732.12
628.08	647.07
628.279	667.99
628.477	770.29
628.676	641.25
628.874	703.06
629.073	691.44
629.271	666.25
629.469	709.65
629.668	681.75
629.866	642.8
630.065	652.88
630.263	699.19
630.461	652.1
630.66	679.81
630.858	679.23
631.056	720.3
631.254	713.91
631.453	635.83
631.651	708.68
631.849	702.29
632.047	701.7
632.245	667.22
632.444	720.5
632.642	698.41
632.84	695.89
633.038	672.45
633.236	631.18
633.434	631.18
633.632	666.83
633.83	638.74
634.028	717.4
634.227	664.12
634.425	733.48
634.623	655.79
634.821	658.89
635.019	722.24
635.216	676.13
635.414	721.27
635.612	659.66
635.81	680.59
636.008	760.41
636.206	666.64
636.404	684.85
636.602	644.55
636.8	675.55
636.997	729.22
637.195	714.69
637.393	678.26
637.591	721.85
637.789	695.31
637.986	658.3
638.184	716.43
638.382	755.18
638.58	708.49
638.777	742
638.975	686.4
639.173	691.63
639.37	694.92
639.568	709.07
639.765	729.41
639.963	662.95
640.161	706.35
640.358	690.27
640.556	675.94
640.753	612.77
640.951	651.52
641.148	677.49
641.346	663.34
641.543	666.25
641.741	659.66
641.938	627.5
642.136	660.82
642.333	612.97
642.531	683.69
642.728	720.3
642.925	697.05
643.123	666.64
643.32	670.7
643.517	651.33
643.715	669.93
643.912	657.53
644.109	673.8
644.306	671.48
644.504	653.46
644.701	664.7
644.898	695.89
645.095	619.94
645.293	637.57
645.49	651.14
645.687	670.7
645.884	670.12
646.081	630.6
646.278	633.5
646.475	622.46
646.672	619.17
646.87	665.09
647.067	636.6
647.264	658.11
647.461	581.39
647.658	600.37
647.855	649.59
648.052	618.01
648.249	566.66
648.446	598.82
648.642	595.72
648.839	625.37
649.036	633.12
649.233	560.46
649.43	588.56
649.627	539.54
649.824	606.38
650.021	554.65
650.217	565.11
650.414	571.7
650.611	596.89
650.808	615.1
651.004	580.42
651.201	623.43
651.398	682.72
651.595	605.99
651.791	589.52
651.988	617.23
652.185	551.94
652.381	630.02
652.578	543.41
652.775	606.19
652.971	573.06
653.168	570.73
653.364	611.81
653.561	540.31
653.757	559.69
653.954	589.72
654.15	587.39
654.347	659.85
654.543	574.02
654.74	556.39
654.936	529.85
655.133	575.57
655.329	569.57
655.525	562.98
655.722	605.99
655.918	546.12
656.115	560.66
656.311	536.05
656.507	500.21
656.704	463.39
656.9	503.31
657.096	497.69
657.292	482.19
657.489	550.97
657.685	552.13
657.881	510.67
658.077	519.19
658.273	522.1
658.47	572.28
658.666	520.74
658.862	556.01
659.058	553.1
659.254	581.97
659.45	520.94
659.646	573.64
659.842	540.12
660.038	588.56
660.234	556.78
660.43	580.22
660.626	628.08
660.822	594.37
661.018	594.95
661.214	552.13
661.41	518.81
661.606	580.42
661.802	603.86
661.998	562.21
662.194	504.47
662.39	566.27
662.586	592.82
662.781	570.54
662.977	570.54
663.173	582.74
663.369	540.12
663.564	552.71
663.76	602.89
663.956	535.66
664.152	571.7
664.347	499.04
664.543	553.29
664.739	516.87
664.934	474.05
665.13	503.89
665.326	579.84
665.521	566.66
665.717	529.46
665.912	511.44
666.108	466.49
666.304	516.29
666.499	532.18
666.695	468.24
666.89	537.6
667.086	539.73
667.281	556.59
667.477	555.42
667.672	536.24
667.867	539.54
668.063	529.46
668.258	493.23
668.454	534.5
668.649	610.45
668.844	523.84
669.04	544.38
669.235	530.43
669.43	517.26
669.626	477.34
669.821	500.4
670.016	461.65
670.211	509.89
670.407	477.73
670.602	515.13
670.797	512.99
670.992	575.38
671.187	494.2
671.382	532.37
671.578	480.64
671.773	531.01
671.968	462.43
672.163	507.76
672.358	516.29
672.553	494.59
672.748	489.16
672.943	586.81
673.138	494.98
673.333	523.84
673.528	490.13
673.723	528.3
673.918	519
674.113	460.29
674.308	601.34
674.503	532.56
674.698	543.22
674.892	520.16
675.087	550.39
675.282	527.53
675.477	485.29
675.672	521.33
675.867	477.34
676.061	468.24
676.256	444.41
676.451	472.11
676.646	512.03
676.84	475.6
677.035	454.68
677.23	449.64
677.424	496.91
677.619	523.84
677.814	549.42
678.008	551.55
678.203	452.55
678.397	448.48
678.592	519.58
678.787	527.14
678.981	460.49
679.176	483.16
679.37	484.51
679.565	463.78
679.759	482.19
679.954	500.4
680.148	521.13
680.342	539.93
680.537	508.73
680.731	482.77
680.926	525.59
681.12	512.99
681.314	467.08
681.509	478.7
681.703	494.2
681.897	500.98
682.092	458.75
682.286	479.86
682.48	553.87
682.674	532.37
682.869	476.57
683.063	496.33
683.257	570.92
683.451	467.85
683.645	498.08
683.839	480.44
684.034	467.66
684.228	517.84
684.422	431.81
684.616	447.31
684.81	501.76
685.004	471.34
685.198	464.36
685.392	526.75
685.586	434.72
685.78	489.94
685.974	495.94
686.168	489.74
686.362	529.66
686.556	444.99
686.75	400.62
686.944	451.58
687.138	462.62
687.331	365.75
687.525	371.95
687.719	330.48
687.913	389
688.107	374.27
688.301	351.41
688.494	414.76
688.688	351.02
688.882	359.16
689.076	320.8
689.269	377.95
689.463	444.99
689.657	395.58
689.85	388.22
690.044	403.53
690.238	384.73
690.431	407.4
690.625	380.47
690.818	412.63
691.012	418.64
691.205	439.76
691.399	374.66
691.593	440.73
691.786	481.61
691.98	464.75
692.173	519
692.366	476.76
692.56	489.55
692.753	554.46
692.947	443.83
693.14	481.41
693.333	496.33
693.527	426.2
693.72	480.44
693.914	483.74
694.107	472.69
694.3	491.49
694.493	467.85
694.687	487.81
694.88	442.08
695.073	529.08
695.266	494.2
695.46	516.68
695.653	528.3
695.846	546.12
696.039	447.7
696.232	491.68
696.425	513.58
696.618	526.17
696.812	545.35
697.005	568.02
697.198	636.41
697.391	594.17
697.584	570.15
697.777	676.9
697.97	587.78
698.163	628.86
698.356	566.66
698.549	665.67
698.742	664.7
698.935	584.87
699.127	670.32
699.32	593.79
699.513	608.32
699.706	650.55
699.899	658.11
700.092	607.35
700.285	649.97
700.477	602.51
700.67	653.07
700.863	643.19
701.056	732.32
701.248	719.53
701.441	709.84
701.634	647.26
701.826	790.83
702.019	650.55
702.212	724.95
702.404	682.72
702.597	661.79
702.79	668.57
702.982	757.89
703.175	739.1
703.367	742.2
703.56	764.28
703.752	855.54
703.945	756.92
704.137	830.16
704.33	823.38
704.522	827.25
704.715	806.33
704.907	828.61
705.1	874.91
705.292	851.86
705.484	855.93
705.677	893.32
705.869	899.71
706.061	901.84
706.254	933.23
706.446	917.15
706.638	886.73
706.831	970.82
707.023	888.09
707.215	1010.73
707.407	942.73
707.599	1006.86
707.792	1015.96
707.984	996.2
708.176	1033.98
708.368	975.86
708.56	1013.83
708.752	990
708.944	1065.56
709.136	1057.42
709.329	1017.32
709.521	1139.96
709.713	1109.74
709.905	1108.19
710.097	1148.49
710.289	1095.01
710.481	1090.94
710.672	1109.93
710.864	1156.43
711.056	1194.79
711.248	1161.47
711.44	1158.75
711.632	1197.7
711.824	1188.78
712.016	1222.11
712.207	1228.12
712.399	1245.16
712.591	1308.91
712.783	1236.06
712.975	1265.51
713.166	1246.52
713.358	1265.51
713.55	1305.81
713.741	1320.73
713.933	1311.81
714.125	1305.81
714.316	1281.59
714.508	1404.43
714.7	1369.74
714.891	1378.27
715.083	1406.94
715.274	1350.56
715.466	1364.51
715.657	1397.06
715.849	1315.5
716.04	1354.24
716.232	1327.51
716.423	1409.27
716.615	1329.45
716.806	1311.43
716.998	1286.05
717.189	1245.75
717.381	1192.47
717.572	1173.09
717.763	1201.38
717.955	1214.75
718.146	1172.51
718.337	1145.58
718.528	1099.08
718.72	1060.72
718.911	1106.83
719.102	1104.7
719.293	1137.25
719.485	1128.34
719.676	1143.45
719.867	1087.65
720.058	1099.66
720.249	1111.67
720.44	1148.1
720.632	1158.75
720.823	1196.73
721.014	1275.58
721.205	1280.04
721.396	1367.23
721.587	1433.49
721.778	1445.31
721.969	1431.74
722.16	1515.44
722.351	1473.98
722.542	1597.78
722.733	1610.38
722.924	1582.48
723.115	1586.94
723.305	1579.77
723.496	1574.34
723.687	1463.91
723.878	1528.04
724.069	1559.04
724.26	1519.9
724.45	1493.55
724.641	1497.04
724.832	1518.54
725.023	1495.68
725.213	1506.34
725.404	1476.5
725.595	1510.99
725.785	1479.41
725.976	1557.68
726.167	1516.6
726.357	1501.11
726.548	1659.01
726.739	1554.19
726.929	1628.78
727.12	1638.47
727.31	1643.51
727.501	1634.98
727.691	1651.65
727.882	1637.12
728.072	1666.18
728.263	1696.79
728.453	1705.31
728.644	1740
728.834	1753.17
729.024	1669.28
729.215	1709.96
729.405	1726.05
729.596	1771.19
729.786	1797.54
729.976	1815.75
730.167	1840.16
730.357	1810.71
730.547	1790.76
730.737	1863.8
730.928	1884.53
731.118	1934.32
731.308	1863.61
731.498	1880.07
731.688	1977.14
731.879	1951.95
732.069	1975.01
732.259	2006.01
732.449	2033.91
732.639	2130.2
732.829	2120.32
733.019	2147.06
733.209	2213.13
733.399	2245.87
733.589	2266.99
733.779	2278.23
733.969	2294.5
734.159	2361.34
734.349	2409.97
734.539	2403.77
734.729	2422.18
734.919	2454.92
735.109	2506.27
735.299	2435.74
735.488	2409.39
735.678	2490.38
735.868	2465.97
736.058	2480.5
736.248	2455.7
736.437	2420.63
736.627	2391.95
736.817	2570.59
737.007	2485.15
737.196	2554.12
737.386	2515.76
737.576	2516.53
737.765	2555.09
737.955	2543.27
738.144	2662.43
738.334	2608.95
738.524	2571.95
738.713	2627.36
738.903	2622.32
739.092	2614.18
739.282	2662.81
739.471	2692.46
739.661	2647.31
739.85	2679.28
740.04	2710.67
740.229	2689.94
740.419	2721.33
740.608	2765.31
740.797	2758.91
740.987	2813.55
741.176	2794.95
741.365	2738.76
741.555	2726.36
741.744	2821.88
741.933	2767.44
742.123	2822.27
742.312	2819.75
742.501	2861.02
742.69	2854.04
742.88	2798.05
743.069	2898.8
743.258	2801.73
743.447	2861.99
743.636	2879.23
743.825	2884.07
744.014	2870.12
744.204	2892.02
744.393	2884.65
744.582	2933.67
744.771	2964.09
744.96	2908.29
745.149	2972.62
745.338	2927.08
745.527	3003.23
745.716	2934.64
745.905	2913.91
746.094	3002.84
746.283	2985.98
746.471	2977.46
746.66	3020.86
746.849	3011.75
747.038	3030.35
747.227	2991.41
747.416	3033.84
747.604	2952.85
747.793	3015.82
747.982	2990.25
748.171	3025.31
748.359	3015.24
748.548	3024.73
748.737	2986.95
748.926	3006.33
749.114	2915.27
749.303	3013.5
749.491	3023.96
749.68	2942.39
749.869	3045.08
750.057	2947.43
750.246	2935.03
750.434	2955.76
750.623	2956.73
750.811	2974.36
751	3027.06
751.188	2957.31
751.377	2952.85
751.565	2966.42
751.754	2909.84
751.942	2882.72
752.131	3001.87
752.319	2966.42
752.507	2917.78
752.696	2954.79
752.884	2992.38
753.072	2968.35
753.261	2989.47
753.449	2965.83
753.637	2930.96
753.825	3052.05
754.014	2927.08
754.202	2936.77
754.39	3005.55
754.578	2996.06
754.766	2931.15
754.955	2912.36
755.143	3029.58
755.331	2920.5
755.519	2936.38
755.707	2882.52
755.895	2912.75
756.083	2926.5
756.271	2890.27
756.459	2859.85
756.647	2971.26
756.835	2909.65
757.023	2873.42
757.211	2918.95
757.399	2926.31
757.587	2882.14
757.775	2814.32
757.963	2873.22
758.151	2886.59
758.339	2815.68
758.526	2796.69
758.714	2862.57
758.902	2774.41
759.09	2663.98
759.278	2506.65
759.465	2326.86
759.653	2006.59
759.841	1845.2
760.028	1550.9
760.216	1366.64
760.404	1318.4
760.591	1041.54
760.779	900.88
760.967	779.78
761.154	654.62
761.342	685.62
761.529	659.66
761.717	725.34
761.905	713.14
762.092	769.32
762.28	690.08
762.467	738.9
762.655	660.24
762.842	675.55
763.029	675.35
763.217	721.08
763.404	718.75
763.592	707.32
763.779	688.14
763.966	758.08
764.154	767.19
764.341	800.13
764.528	812.91
764.716	877.63
764.903	898.74
765.09	962.68
765.277	1027.59
765.465	1172.9
765.652	1228.5
765.839	1256.98
766.026	1370.71
766.213	1409.46
766.4	1501.3
766.588	1685.55
766.775	1716.16
766.962	1792.89
767.149	1818.66
767.336	1961.64
767.523	1916.89
767.71	2028.87
767.897	2119.74
768.084	2207.12
768.271	2221.46
768.458	2266.6
768.645	2330.34
768.832	2325.89
769.019	2357.47
769.206	2380.72
769.392	2422.76
769.579	2563.61
769.766	2479.72
769.953	2471.2
770.14	2548.89
770.327	2499.48
770.513	2579.5
770.7	2612.44
770.887	2498.52
771.073	2588.41
771.26	2550.44
771.447	2526.42
771.634	2532.03
771.82	2641.11
772.007	2542.11
772.193	2568.46
772.38	2645.18
772.567	2562.65
772.753	2535.91
772.94	2602.36
773.126	2610.11
773.313	2588.61
773.499	2582.41
773.686	2604.11
773.872	2576.01
774.059	2626.97
774.245	2552.18
774.432	2511.88
774.618	2474.1
774.804	2558
774.991	2530.68
775.177	2600.23
775.363	2519.25
775.55	2561.87
775.736	2535.72
775.922	2523.51
776.109	2508.59
776.295	2549.47
776.481	2555.48
776.667	2554.51
776.853	2499.1
777.04	2503.94
777.226	2519.83
777.412	2599.85
777.598	2461.7
777.784	2457.83
777.97	2507.43
778.156	2530.1
778.342	2439.81
778.528	2450.85
778.715	2402.03
778.901	2464.22
779.087	2486.12
779.272	2460.93
779.458	2416.95
779.644	2469.45
779.83	2396.99
780.016	2516.53
780.202	2423.73
780.388	2421.02
780.574	2357.86
780.76	2398.54
780.946	2447.17
781.131	2434.77
781.317	2407.84
781.503	2363.86
781.689	2373.55
781.874	2490.57
782.06	2331.12
782.246	2386.92
782.432	2401.25
782.617	2400.67
782.803	2418.69
782.989	2323.95
783.174	2344.1
783.36	2298.76
783.545	2323.95
783.731	2322.4
783.916	2285.98
784.102	2342.94
784.288	2312.32
784.473	2329.37
784.659	2262.53
784.844	2360.76
785.029	2282.68
785.215	2265.24
785.4	2198.01
785.586	2341.77
785.771	2241.03
785.956	2310.58
786.142	2247.42
786.327	2247.42
786.512	2248.97
786.698	2223.78
786.883	2182.13
787.068	2207.89
787.254	2189.49
787.439	2189.68
787.624	2189.49
787.809	2165.85
787.994	2200.73
788.18	2248
788.365	2132.14
788.55	2163.53
788.735	2141.25
788.92	2159.26
789.105	2155.58
789.29	2165.85
789.475	2107.34
789.66	2123.81
789.845	2092.42
790.03	2069.56
790.215	2124.58
790.4	2111.8
790.585	2162.75
790.77	2068.59
790.955	2031.59
791.14	2073.24
791.325	2145.51
791.51	2011.44
791.695	2058.71
791.879	2035.27
792.064	1999.81
792.249	2096.49
792.434	2061.23
792.618	2043.4
792.803	2097.46
792.988	2082.15
793.173	2061.42
793.357	2122.65
793.542	2045.73
793.727	2037.2
793.911	2097.46
794.096	2067.62
794.281	2050.77
794.465	2150.74
794.65	2047.08
794.834	2132.72
795.019	2114.7
795.203	2104.24
795.388	2121.1
795.572	2149.58
795.757	2123.81
795.941	2125.36
796.126	2097.65
796.31	2042.43
796.494	2050.77
796.679	2066.85
796.863	2087.38
797.048	2129.04
797.232	2095.52
797.416	2083.32
797.601	2065.1
797.785	2171.08
797.969	2157.33
798.153	2080.8
798.338	2130.98
798.522	2130.01
798.706	2142.21
798.89	2122.26
799.074	2258.08
799.258	2167.98
799.443	2141.83
799.627	2098.43
799.811	2165.27
799.995	2078.67
800.179	2103.08
800.363	2102.69
800.547	2118.77
800.731	2143.96
800.915	2059.68
801.099	2094.55
801.283	2098.82
801.467	2119.55
801.651	2070.14
801.835	2137.56
802.019	2148.8
802.202	2130.01
802.386	2046.31
802.57	2049.41
802.754	2088.16
802.938	2045.92
803.121	2076.53
803.305	2113.35
803.489	2088.16
803.673	2089.13
803.856	2122.84
804.04	2079.44
804.224	2133.69
804.407	2075.76
804.591	2049.8
804.775	2060.65
804.958	2107.73
805.142	2190.85
805.326	2144.73
805.509	2123.03
805.693	2144.54
805.876	2121.68
806.06	2107.53
806.243	2136.6
806.427	2162.95
806.61	2169.15
806.794	2091.07
806.977	2143.76
807.16	2119.74
807.344	2146.48
807.527	2094.17
807.71	2085.06
807.894	2064.91
808.077	2135.82
808.26	2066.27
808.444	2032.36
808.627	2154.42
808.81	2050.96
808.993	2013.76
809.177	2015.12
809.36	2076.73
809.543	2065.68
809.726	1951.76
809.909	2014.54
810.092	1966.29
810.276	1953.7
810.459	1970.36
810.642	1950.02
810.825	1932.39
811.008	1933.94
811.191	1872.32
811.374	1884.53
811.557	1855.08
811.74	1945.17
811.923	1858.37
812.106	1853.73
812.289	1792.5
812.472	1844.62
812.654	1824.47
812.837	1766.93
813.02	1743.87
813.203	1736.31
813.386	1635.57
813.569	1629.95
813.751	1605.34
813.934	1630.14
814.117	1628.98
814.3	1539.27
814.482	1537.72
814.665	1491.22
814.848	1494.71
815.03	1419.93
815.213	1441.82
815.396	1414.69
815.578	1413.92
815.761	1371.1
815.943	1436.39
816.126	1339.13
816.309	1317.24
816.491	1305.81
816.674	1190.72
816.856	1265.31
817.039	1279.26
817.221	1354.24
817.403	1287.4
817.586	1288.56
817.768	1321.89
817.951	1238.58
818.133	1213.2
818.315	1296.51
818.498	1327.12
818.68	1365.48
818.862	1298.25
819.045	1349.4
819.227	1322.47
819.409	1307.36
819.591	1337.19
819.774	1287.6
819.956	1270.35
820.138	1347.08
820.32	1337
820.502	1394.35
820.684	1473.79
820.866	1411.79
821.048	1479.79
821.231	1472.62
821.413	1508.66
821.595	1459.84
821.777	1488.71
821.959	1452.09
822.141	1509.24
822.323	1447.24
822.505	1375.17
822.686	1336.23
822.868	1287.21
823.05	1149.26
823.232	1192.08
823.414	1097.34
823.596	1169.41
823.778	1178.9
823.96	1192.27
824.141	1169.8
824.323	1231.41
824.505	1248.65
824.687	1308.33
824.868	1318.01
825.05	1429.03
825.232	1416.44
825.413	1548.57
825.595	1444.14
825.777	1383.31
825.958	1442.79
826.14	1452.67
826.321	1468.36
826.503	1404.62
826.685	1427.09
826.866	1453.25
827.048	1441.62
827.229	1394.35
827.411	1366.06
827.592	1344.36
827.773	1342.04
827.955	1294.76
828.136	1321.89
828.318	1274.42
828.499	1322.47
828.68	1250.4
828.862	1310.46
829.043	1320.92
829.224	1351.73
829.406	1269.19
829.587	1280.04
829.768	1266.28
829.949	1316.85
830.131	1305.61
830.312	1366.26
830.493	1256.6
830.674	1322.66
830.855	1276.16
831.036	1277.91
831.218	1353.08
831.399	1355.99
831.58	1324.6
831.761	1323.44
831.942	1298.25
832.123	1298.64
832.304	1254.66
832.485	1280.62
832.666	1299.22
832.847	1336.23
833.028	1299.8
833.209	1296.9
833.389	1277.52
833.57	1242.26
833.751	1287.21
833.932	1306.39
834.113	1291.28
834.294	1281.98
834.475	1310.07
834.655	1355.6
834.836	1389.12
835.017	1359.48
835.198	1267.45
835.378	1328.48
835.559	1352.69
835.74	1307.36
835.92	1296.31
836.101	1304.06
836.281	1334.09
836.462	1310.07
836.643	1391.44
836.823	1351.92
837.004	1360.83
837.184	1396.29
837.365	1405.01
837.545	1354.63
837.726	1335.06
837.906	1400.74
838.087	1360.44
838.267	1418.18
838.448	1327.51
838.628	1407.53
838.808	1326.35
838.989	1393.38
839.169	1306.97
839.349	1379.43
839.53	1372.07
839.71	1385.44
839.89	1343.98
840.07	1365.87
840.251	1349.01
840.431	1398.42
840.611	1384.47
840.791	1333.51
840.971	1381.56
841.151	1334.09
841.332	1328.09
841.512	1380.79
841.692	1298.25
841.872	1335.84
842.052	1321.89
842.232	1367.81
842.412	1307.55
842.592	1330.22
842.772	1346.69
842.952	1331.19
843.132	1314.72
843.312	1328.48
843.492	1275.78
843.672	1361.61
843.851	1263.18
844.031	1342.43
844.211	1302.13
844.391	1269.38
844.571	1333.13
844.751	1351.73
844.93	1362.38
845.11	1272.68
845.29	1336.23
845.47	1347.08
845.649	1356.57
845.829	1329.25
846.009	1319.18
846.188	1310.46
846.368	1297.86
846.547	1303.48
846.727	1329.83
846.907	1264.15
847.086	1302.51
847.266	1337
847.445	1307.94
847.625	1283.53
847.804	1279.46
847.984	1288.18
848.163	1232.96
848.343	1276.16
848.522	1285.08
848.701	1287.01
848.881	1234.32
849.06	1294.76
849.239	1304.84
849.419	1260.86
849.598	1186.07
849.777	1228.5
849.957	1212.62
850.136	1172.7
850.315	1160.69
850.494	1163.21
850.674	1167.67
850.853	1224.24
851.032	1207
851.211	1220.17
851.39	1199.83
851.569	1166.5
851.748	1175.22
851.927	1226.57
852.107	1213.58
852.286	1171.73
852.465	1170.38
852.644	1184.52
852.823	1225.79
853.002	1202.54
853.181	1193.24
853.359	1181.42
853.538	1141.51
853.717	1219.2
853.896	1117.1
854.075	1080.67
854.254	1036.31
854.433	974.5
854.611	1047.54
854.79	990.58
854.969	1031.27
855.148	1060.14
855.327	1014.22
855.505	1060.52
855.684	1056.84
855.863	1097.14
856.041	1040.37
856.22	1100.63
856.399	1082.8
856.577	1163.4
856.756	1158.17
856.934	1237.8
857.113	1253.5
857.291	1169.02
857.47	1110.9
857.648	1185.49
857.827	1159.92
858.005	1175.03
858.184	1116.52
858.362	1242.07
858.541	1127.17
858.719	1099.47
858.898	1083
859.076	1114.39
859.254	1176.58
859.433	1112.06
859.611	1113.22
859.789	1089.39
859.967	1162.63
860.146	1182
860.324	1085.13
860.502	1111.67
860.68	1038.05
860.859	1081.64
861.037	1088.04
861.215	1120
861.393	1073.7
861.571	1093.07
861.749	1080.29
861.927	1115.94
862.105	1113.8
862.283	1062.27
862.461	1087.26
862.639	1045.99
862.817	1050.45
862.995	1065.37
863.173	1070.79
863.351	1085.52
863.529	1052.97
863.707	1079.7
863.885	1072.15
864.063	1009.37
864.241	1077.77
864.418	1092.3
864.596	1043.47
864.774	1025.46
864.952	1023.13
865.129	1045.02
865.307	998.52
865.485	980.51
865.663	1017.9
865.84	954.54
866.018	992.32
866.196	872.98
866.373	936.72
866.551	904.56
866.728	859.03
866.906	899.71
867.084	920.83
867.261	960.55
867.439	968.49
867.616	964.62
867.794	957.45
867.971	968.3
868.149	963.84
868.326	1034.76
868.503	994.46
868.681	971.59
868.858	949.7
869.035	956.87
869.213	1000.46
869.39	978.96
869.567	1038.63
869.745	954.74
869.922	974.89
870.099	990.19
870.276	1026.62
870.454	1003.95
870.631	1004.53
870.808	976.44
870.985	987.87
871.162	1028.17
871.339	981.09
871.517	934.01
871.694	928.19
871.871	938.46
872.048	941.76
872.225	941.56
872.402	960.55
872.579	923.54
872.756	948.93
872.933	914.63
873.11	917.93
873.287	931.88
873.463	931.29
873.64	917.34
873.817	972.95
873.994	917.73
874.171	881.5
874.348	954.54
874.524	862.71
874.701	913.28
874.878	852.44
875.055	905.33
875.231	890.22
875.408	964.23
875.585	847.21
875.762	895.65
875.938	853.41
876.115	860.58
876.291	871.62
876.468	903.39
876.645	831.32
876.821	848.95
876.998	866
877.174	901.46
877.351	868.52
877.527	870.65
877.704	880.92
877.88	913.47
878.057	840.81
878.233	890.8
878.409	863.87
878.586	859.61
878.762	829.58
878.938	817.76
879.115	772.62
879.291	847.79
879.467	784.82
879.644	825.12
879.82	841.4
879.996	813.3
880.172	778.23
880.349	834.03
880.525	859.03
880.701	812.14
880.877	792.77
881.053	847.98
881.229	804
881.405	825.51
881.581	786.76
881.757	824.73
881.933	821.25
882.109	850.89
882.285	831.71
882.461	786.95
882.637	808.85
882.813	785.21
882.989	817.56
883.165	847.98
883.341	803.81
883.517	836.55
883.693	817.56
883.869	848.18
884.044	770.48
884.22	839.85
884.396	869.3
884.572	845.08
884.747	852.83
884.923	814.85
885.099	853.41
885.275	845.08
885.45	778.23
885.626	810.59
885.801	779.4
885.977	786.18
886.153	747.23
886.328	823.76
886.504	797.03
886.679	841.01
886.855	773.97
887.03	813.11
887.206	824.73
887.381	816.21
887.557	822.99
887.732	860.19
887.908	844.69
888.083	853.99
888.258	798.97
888.434	807.49
888.609	824.54
888.784	825.7
888.96	800.13
889.135	796.45
889.31	748.2
889.485	789.67
889.661	769.13
889.836	823.76
890.011	824.54
890.186	815.63
890.361	732.12
890.537	822.41
890.712	809.04
890.887	791.99
891.062	754.98
891.237	859.61
891.412	794.32
891.587	795.48
891.762	823.76
891.937	839.85
892.112	754.21
892.287	767.77
892.462	784.05
892.637	709.65
892.812	731.73
892.987	708.29
893.161	722.05
893.336	749.95
893.511	721.47
893.686	743.36
893.861	707.32
894.035	751.5
894.21	745.88
894.385	670.32
894.56	707.71
894.734	681.94
894.909	668.96
895.084	663.34
895.258	654.24
895.433	643.19
895.608	648.23
895.782	614.91
895.957	633.5
896.131	620.72
896.306	574.8
896.48	543.8
896.655	583.71
896.829	533.14
897.004	535.66
897.178	533.34
897.353	528.3
897.527	594.56
897.701	557.36
897.876	494.39
898.05	553.68
898.224	556.01
898.399	581.77
898.573	553.49
898.747	446.35
898.921	488.58
899.096	435.88
899.27	401.78
899.444	431.43
899.618	476.57
899.792	486.06
899.967	455.84
900.141	495.17
900.315	444.02
900.489	446.35
900.663	495.56
900.837	464.36
901.011	429.88
901.185	520.74
901.359	475.6
901.533	470.18
901.707	483.16
901.881	451.77
902.055	415.35
902.229	459.91
902.403	512.61
902.576	481.03
902.75	477.73
902.924	588.94
903.098	503.11
903.272	537.41
903.446	599.6
903.619	552.91
903.793	572.47
903.967	523.65
904.14	604.44
904.314	583.91
904.488	587.97
904.661	626.14
904.835	584.68
905.009	629.05
905.182	650.36
905.356	599.6
905.529	597.27
905.703	574.22
905.876	559.88
906.05	555.04
906.223	546.51
906.397	494.78
906.57	483.74
906.744	486.84
906.917	463.98
907.09	474.44
907.264	476.18
907.437	432.78
907.61	412.63
907.784	442.66
907.957	452.35
908.13	439.37
908.304	472.5
908.477	416.7
908.65	421.35
908.823	379.89
908.996	452.55
909.17	411.08
909.343	401.59
909.516	413.8
909.689	453.71
909.862	374.85
910.035	440.53
910.208	386.86
910.381	382.99
910.554	505.83
910.727	406.05
910.9	442.66
911.073	369.23
911.246	452.93
911.419	495.94
911.592	423.87
911.765	416.9
911.938	364.39
912.11	444.6
912.283	423.68
912.456	455.65
912.629	410.11
912.802	372.72
912.974	351.41
913.147	334.17
913.32	296.97
913.493	336.88
913.665	369.82
913.838	379.89
914.01	341.33
914.183	369.43
914.356	347.53
914.528	391.32
914.701	435.69
914.873	381.25
915.046	342.69
915.218	322.73
915.391	276.43
915.563	284.57
915.736	333.58
915.908	377.76
916.081	339.01
916.253	355.28
916.425	362.84
916.598	364.97
916.77	378.73
916.942	327.97
917.115	287.47
917.287	346.37
917.459	303.55
917.632	276.04
917.804	254.54
917.976	350.05
918.148	327
918.32	334.55
918.493	380.28
918.665	391.51
918.837	376.98
919.009	423.87
919.181	378.53
919.353	397.33
919.525	358.58
919.697	371.17
919.869	368.07
920.041	415.15
920.213	473.86
920.385	401.98
920.557	375.43
920.729	368.65
920.901	386.09
921.073	383.96
921.244	363.23
921.416	409.15
921.588	394.23
921.76	355.48
921.932	438.6
922.103	369.23
922.275	374.85
922.447	385.9
922.619	333.58
922.79	356.83
922.962	337.85
923.134	390.16
923.305	336.68
923.477	304.33
923.648	340.95
923.82	330.29
923.991	267.9
924.163	287.86
924.335	333.97
924.506	273.91
924.677	355.87
924.849	305.49
925.02	329.9
925.192	349.86
925.363	340.95
925.535	362.45
925.706	282.63
925.877	355.28
926.049	297.35
926.22	354.32
926.391	324.48
926.562	333.58
926.734	305.1
926.905	352.38
927.076	282.63
927.247	314.6
927.419	242.33
927.59	279.72
927.761	265.58
927.932	281.85
928.103	265.39
928.274	235.94
928.445	219.27
928.616	248.34
928.787	226.25
928.958	261.12
929.129	216.56
929.3	209.39
929.471	188.27
929.642	161.34
929.813	132.28
929.984	222.57
930.155	125.11
930.326	188.27
930.496	149.33
930.667	95.08
930.838	141
931.009	116.2
931.18	120.27
931.35	118.91
931.521	134.41
931.692	81.52
931.863	59.04
932.033	101.86
932.204	118.52
932.374	98.18
932.545	64.47
932.716	111.74
932.886	114.84
933.057	49.16
933.227	74.54
933.398	120.46
933.568	12.16
933.739	29.79
933.909	25.53
934.08	71.64
934.25	7.51
934.421	42.58
934.591	70.67
934.761	29.4
934.932	-11.48
935.102	32.31
935.272	50.13
935.443	46.64
935.613	18.55
935.783	30.76
935.953	-1.99
936.123	159.41
936.294	10.03
936.464	17
936.634	50.91
936.804	-21.75
936.974	-4.12
937.144	60.79
937.314	33.28
937.484	17.39
937.655	11.38
937.825	74.74
937.995	15.84
938.165	91.59
938.334	20.49
938.504	57.3
938.674	29.79
938.844	38.51
939.014	99.15
939.184	96.63
939.354	132.09
939.524	117.56
939.694	75.51
939.863	55.36
940.033	126.27
940.203	88.88
940.373	100.51
940.542	97.41
940.712	66.6
940.882	104.19
941.051	129.18
941.221	102.25
941.391	144.87
941.56	56.72
941.73	71.06
941.899	148.17
942.069	42.38
942.238	90.04
942.408	78.23
942.577	94.89
942.747	80.74
942.916	21.65
943.086	17
943.255	100.31
943.425	88.69
943.594	40.44
943.763	-9.35
943.933	11.96
944.102	-10.12
944.271	60.01
944.441	55.75
944.61	38.7
944.779	50.13
944.948	145.46
945.117	12.16
945.287	26.49
945.456	-8.19
945.625	42.58
945.794	72.99
945.963	36.96
946.132	55.36
946.301	36.76
946.47	60.98
946.639	9.06
946.808	32.31
946.977	82.88
947.146	95.08
947.315	13.51
947.484	77.26
947.653	45.48
947.822	27.85
947.991	22.23
948.16	116.39
948.329	101.67
948.498	54.59
948.666	36.38
948.835	67.38
949.004	6.73
949.173	8.48
949.341	44.13
949.51	59.43
949.679	77.06
949.847	83.84
950.016	114.26
950.185	107.87
950.353	17
950.522	29.79
950.69	83.65
950.859	14.87
951.028	80.94
951.196	70.86
951.365	46.26
951.533	75.71
951.701	81.91
951.87	54.78
952.038	35.99
952.207	46.06
952.375	139.45
952.543	59.24
952.712	46.06
952.88	31.92
953.048	122.21
953.217	78.81
953.385	79.58
953.553	105.74
953.721	5.38
953.89	46.06
954.058	15.06
954.226	43.16
954.394	62.73
954.562	6.93
954.73	68.73
954.898	50.52
955.067	92.76
955.235	28.63
955.403	74.35
955.571	105.93
955.739	83.26
955.907	29.4
956.075	43.74
956.243	34.63
956.41	74.54
956.578	21.65
956.746	19.33
956.914	23.98
957.082	96.24
957.25	84.81
957.418	51.88
957.585	48
957.753	119.49
957.921	23.59
958.089	72.22
958.256	75.32
958.424	59.82
958.592	75.9
958.759	18.55
958.927	96.05
959.095	41.03
959.262	58.27
959.43	89.27
959.597	19.13
959.765	81.71
959.932	41.8
960.1	69.31
960.267	60.59
960.435	71.25
960.602	110.39
960.77	51.49
960.937	27.66
961.104	58.66
961.272	18.16
961.439	46.84
961.606	86.17
961.774	77.06
961.941	31.14
962.108	80.94
962.275	72.41
962.443	85.98
962.61	88.69
962.777	127.24
962.944	88.3
963.111	73.19
963.278	82.1
963.446	75.9
963.613	63.11
963.78	106.9
963.947	103.8
964.114	71.83
964.281	132.28
964.448	82.88
964.615	80.16
964.782	75.13
964.949	105.54
965.116	85.59
965.282	124.53
965.449	74.93
965.616	24.36
965.783	90.63
965.95	77.26
966.117	29.01
966.283	72.61
966.45	79.39
966.617	102.83
966.784	95.86
966.95	99.93
967.117	99.73
967.284	45.48
967.45	66.41
967.617	126.08
967.784	91.01
967.95	125.5
968.117	74.54
968.283	108.06
968.45	165.41
968.616	95.28
968.783	114.84
968.949	93.73
969.116	144.68
969.282	88.11
969.449	97.6
969.615	93.92
969.781	45.87
969.948	52.26
970.114	26.69
970.28	129.76
970.447	106.71
970.613	125.69
970.779	89.27
970.945	109.81
971.112	108.84
971.278	98.96
971.444	93.34
971.61	112.71
971.776	58.27
971.942	125.31
972.108	125.69
972.275	81.71
972.441	112.71
972.607	138.09
972.773	58.85
972.939	98.96
973.105	64.47
973.271	44.71
973.437	72.61
973.602	88.88
973.768	114.26
973.934	66.21
974.1	86.36
974.266	15.06
974.432	94.5
974.598	98.57
974.763	117.75
974.929	89.27
975.095	137.12
975.261	58.27
975.426	47.81
975.592	65.44
975.758	143.71
975.923	41.03
976.089	77.84
976.255	96.24
976.42	88.88
976.586	80.94
976.751	79.19
976.917	173.94
977.082	100.12
977.248	50.91
977.413	20.49
977.579	56.14
977.744	93.73
977.91	27.27
978.075	37.34
978.24	83.26
978.406	90.04
978.571	35.99
978.736	86.36
978.902	114.65
979.067	45.09
979.232	11.77
979.397	98.76
979.563	118.52
979.728	36.18
979.893	66.21
980.058	51.1
980.223	100.51
980.388	86.56
980.554	80.94
980.719	23.98
980.884	95.08
981.049	104.38
981.214	48
981.379	109.61
981.544	41.03
981.709	59.63
981.874	67.96
982.039	50.13
982.204	108.45
982.368	83.07
982.533	69.7
982.698	115.04
982.863	130.92
983.028	72.61
983.193	85.98
983.357	95.47
983.522	78.03
983.687	76.87
983.852	47.03
984.016	57.3
984.181	64.86
984.346	78.23
984.51	95.08
984.675	77.45
984.839	95.86
985.004	60.01
985.168	120.85
985.333	106.71
985.498	73.58
985.662	99.54
985.827	88.11
985.991	46.64
986.155	52.26
986.32	110.58
986.484	129.37
986.649	105.35
986.813	21.46
986.977	79
987.142	81.52
987.306	37.93
987.47	64.86
987.634	78.61
987.799	85.01
987.963	62.34
988.127	73.96
988.291	132.47
988.455	86.36
988.62	63.11
988.784	87.72
988.948	95.08
989.112	64.08
989.276	88.11
989.44	91.21
989.604	55.75
989.768	74.54
989.932	165.22
990.096	50.33
990.26	70.28
990.424	37.34
990.588	65.63
990.752	145.65
990.915	97.21
991.079	48.78
991.243	53.81
991.407	98.76
991.571	85.59
991.734	100.89
991.898	90.63
992.062	133.06
992.226	75.32
992.389	39.09
992.553	27.85
992.717	70.09
992.88	73.38
993.044	56.72
993.207	56.91
993.371	85.78
993.535	61.37
993.698	88.88
993.862	98.96
994.025	103.61
994.189	70.09
994.352	39.48
994.515	25.91
994.679	99.93
994.842	37.73
995.006	88.49
995.169	40.06
995.332	30.95
995.496	91.98
995.659	17.39
995.822	60.21
995.985	56.33
996.149	116.2
996.312	76.68
996.475	143.71
996.638	54.59
996.801	113.68
996.964	165.22
997.128	62.53
997.291	46.84
997.454	82.68
997.617	31.92
997.78	77.45
997.943	36.38
998.106	73.96
998.269	45.09
998.432	43.74
998.595	79.78
998.758	3.44
998.92	42.96
999.083	37.34
999.246	65.44
999.409	22.81
999.572	21.07
999.735	36.96
999.897	67.76
1000.06	34.83
1000.223	41.61
1000.386	88.69
1000.548	77.45
1000.711	110.39
1000.874	44.9
1001.036	-7.22
1001.199	105.16
1001.361	26.11
1001.524	45.29
1001.687	89.46
1001.849	17.78
1002.012	58.27
1002.174	68.34
1002.337	70.09
1002.499	46.64
1002.661	86.36
1002.824	24.17
1002.986	35.79
1003.149	38.89
1003.311	17.78
1003.473	108.64
1003.636	41.8
1003.798	72.99
1003.96	66.41
1004.123	61.76
1004.285	44.9
1004.447	29.59
1004.609	55.75
1004.771	119.3
1004.933	11.96
1005.096	13.13
1005.258	24.75
1005.42	37.93
1005.582	80.55
1005.744	69.31
1005.906	18.36
1006.068	57.11
1006.23	6.15
1006.392	-21.36
1006.554	-8.77
1006.716	93.34
1006.878	44.9
1007.04	4.02
1007.202	41.03
1007.363	55.36
1007.525	47.03
1007.687	51.88
1007.849	90.24
1008.011	2.86
1008.172	-1.6
1008.334	63.69
1008.496	44.13
1008.658	2.86
1008.819	6.35
1008.981	-1.79
1009.143	4.8
1009.304	25.33
1009.466	38.7
1009.627	85.98
1009.789	138.48
1009.95	51.49
1010.112	23.78
1010.273	37.34
1010.435	30.76
1010.596	16.03
1010.758	20.3
1010.919	26.11
1011.081	-1.79
1011.242	37.73
1011.403	39.67
1011.565	15.26
1011.726	66.02
1011.887	-10.9
1012.049	27.85
1012.21	58.08
1012.371	80.74
1012.532	-61.27
1012.693	28.04
1012.855	29.98
1013.016	28.63
1013.177	70.86
1013.338	19.13
1013.499	104.77
1013.66	50.71
1013.821	37.73
1013.982	42.19
1014.143	23.39
1014.304	10.61
1014.465	47.81
1014.626	35.79
1014.787	17.2
1014.948	119.11
1015.109	-36.67
1015.27	66.79
1015.431	1.5
1015.592	-18.26
1015.752	87.14
1015.913	24.36
1016.074	22.23
1016.235	44.51
1016.395	25.33
1016.556	9.45
1016.717	3.05
1016.877	66.79
1017.038	15.06
1017.199	50.91
1017.359	41.61
1017.52	19.33
1017.681	15.84
1017.841	18.36
1018.002	13.51
1018.162	13.71
1018.323	73.38
1018.483	44.32
1018.644	4.02
1018.804	17.58
1018.964	-20.97
1019.125	6.15
1019.285	39.86
1019.446	-5.28
1019.606	10.8
1019.766	-30.47
1019.926	65.44
1020.087	35.02
1020.247	-25.04
1020.407	36.96
1020.567	34.44
1020.728	24.36
1020.888	-22.33
1021.048	11.38
1021.208	-8.57
1021.368	-7.22
1021.528	65.63
1021.688	47.23
1021.848	34.24
1022.008	23.59
1022.168	20.3
1022.328	33.86
1022.488	41.03
1022.648	0.34
1022.808	17.78
1022.968	41.03
1023.128	-13.42
1023.288	0.73
1023.448	23.2
1023.608	27.46
1023.767	50.13
1023.927	-0.44
1024.087	-20.97
1024.247	-11.67
1024.406	-0.24
1024.566	5.38
1024.726	-10.32
1024.885	26.88
1025.045	59.04
1025.205	11
1025.364	17.97
1025.524	16.23
1025.683	3.44
1025.843	36.96
1026.003	17.58
1026.162	68.93
1026.321	61.56
1026.481	20.3
1026.64	8.48
1026.8	28.43
1026.959	47.03
1027.119	37.93
1027.278	18.94
1027.437	-20.78
1027.597	9.06
1027.756	28.63
1027.915	52.65
1028.074	34.63
1028.234	-1.6
1028.393	34.24
1028.552	41.8
1028.711	-58.37
1028.87	31.53
1029.03	-35.31
1029.189	17.78
1029.348	-22.72
1029.507	3.05
1029.666	-12.64
1029.825	-7.02
1029.984	6.35
1030.143	35.41
1030.302	2.66
1030.461	-39.77
1030.62	25.72
1030.779	50.71
1030.938	-4.89
1031.097	-16.32
1031.255	26.49
1031.414	56.53
1031.573	78.81
1031.732	-14.19
1031.891	-38.41
1032.049	58.46
1032.208	44.13
1032.367	-4.89
1032.525	12.16
1032.684	-5.09
1032.843	5.57
1033.001	-48.68
1033.16	158.82
1033.319	66.21
1033.477	12.74
1033.636	13.32
1033.794	-7.6
1033.953	60.21
1034.111	45.87
1034.27	-13.8
1034.428	11.77
1034.587	-3.54
1034.745	30.18
1034.903	4.6
1035.062	27.08
1035.22	-7.6
1035.378	33.47
1035.537	-17.87
1035.695	37.93
1035.853	4.6
1036.011	44.51
1036.17	7.51
1036.328	-40.54
1036.486	19.52
1036.644	11.38
1036.802	-72.51
1036.96	-16.71
1037.119	3.44
1037.277	4.6
1037.435	-0.05
1037.593	-15.74
1037.751	9.83
1037.909	38.89
1038.067	38.89
