Data from oakcork_FLMT105791__199__17-32-12-059.txt Node

Date: Mon Mar 20 17:32:12 GMT 2023
User: antho
Spectrometer: FLMT10579
Trigger mode: 0
Integration Time (sec): 1.000000E-1
Scans to average: 10
Electric dark correction enabled: true
Nonlinearity correction enabled: false
Boxcar width: 0
XAxis mode: Wavelengths
Number of Pixels in Spectrum: 3648
>>>>>Begin Spectral Data<<<<<
345.248	-144.99
345.464	-144.99
345.681	-144.99
345.898	-176.57
346.114	-152.74
346.331	-51.99
346.548	30.74
346.764	6.72
346.981	-29.32
347.197	10.98
347.414	19.7
347.631	-24.48
347.847	44.88
348.064	1.29
348.28	28.8
348.497	-29.71
348.713	-7.62
348.93	30.74
349.146	13.5
349.363	21.25
349.579	26.48
349.796	-28.35
350.012	11.37
350.229	18.92
350.445	9.43
350.661	-15.76
350.878	25.12
351.094	31.13
351.311	28.42
351.527	32.1
351.743	-12.08
351.96	15.63
352.176	34.42
352.392	5.36
352.609	25.12
352.825	-16.34
353.041	-6.26
353.257	-10.14
353.474	28.03
353.69	30.74
353.906	-5.1
354.122	-40.75
354.339	41.59
354.555	7.1
354.771	13.11
354.987	47.98
355.203	64.26
355.42	-12.66
355.636	14.08
355.852	-18.86
356.068	-14.6
356.284	-37.46
356.5	43.33
356.716	-9.17
356.932	19.5
357.148	16.79
357.364	-14.01
357.58	52.05
357.796	35.78
358.012	47.4
358.228	12.34
358.444	-47.73
358.66	59.42
358.876	12.34
359.092	6.33
359.308	13.5
359.524	23.38
359.74	-9.75
359.956	-9.75
360.172	23.57
360.388	47.98
360.604	9.24
360.819	91.58
361.035	18.34
361.251	49.92
361.467	-2.97
361.683	42.37
361.898	2.65
362.114	32.1
362.33	17.57
362.546	38.88
362.762	-4.71
362.977	2.26
363.193	-2
363.409	54.38
363.624	-12.27
363.84	-11.69
364.056	-18.28
364.271	23.57
364.487	18.54
364.703	-0.65
364.918	-29.51
365.134	16.02
365.35	12.53
365.565	75.88
365.781	36.36
365.996	14.08
366.212	62.9
366.427	31.13
366.643	-16.15
366.858	-3.55
367.074	-17.7
367.289	68.52
367.505	91.97
367.72	-28.35
367.936	10.79
368.151	39.46
368.367	47.21
368.582	6.72
368.798	-7.43
369.013	33.65
369.228	16.4
369.444	46.43
369.659	47.79
369.874	18.15
370.09	72.2
370.305	-17.31
370.52	-4.33
370.736	38.1
370.951	5.36
371.166	57.28
371.381	77.63
371.597	4.2
371.812	-24.28
372.027	10.79
372.242	17.76
372.458	42.95
372.673	-6.07
372.888	31.71
373.103	18.73
373.318	93.71
373.533	32.29
373.749	47.02
373.964	-46.76
374.179	44.69
374.394	22.02
374.609	79.37
374.824	-17.11
375.039	58.25
375.254	2.45
375.469	87.32
375.684	21.64
375.899	64.07
376.114	23.77
376.329	4.78
376.544	30.93
376.759	44.5
376.974	-0.26
377.189	16.99
377.404	27.06
377.619	38.1
377.834	-54.31
378.049	-38.43
378.264	1.1
378.478	24.15
378.693	-13.24
378.908	26.48
379.123	-8.2
379.338	53.02
379.553	6.91
379.767	17.37
379.982	44.11
380.197	42.17
380.412	32.48
380.626	30.35
380.841	95.45
381.056	29.77
381.271	51.47
381.485	3.81
381.7	-14.21
381.915	32.68
382.129	12.53
382.344	20.67
382.559	10.59
382.773	51.67
382.988	-32.23
383.202	6.14
383.417	16.4
383.632	105.33
383.846	24.35
384.061	15.24
384.275	4.59
384.49	28.42
384.704	23.38
384.919	17.18
385.133	42.37
385.348	18.92
385.562	-27.19
385.777	48.95
385.991	4.59
386.206	7.69
386.42	1.87
386.634	47.6
386.849	32.1
387.063	48.18
387.277	-7.23
387.492	17.95
387.706	-18.28
387.92	-12.85
388.135	16.02
388.349	19.89
388.563	28.42
388.778	19.89
388.992	45.08
389.206	33.26
389.42	80.73
389.635	34.03
389.849	39.27
390.063	29
390.277	39.46
390.491	89.64
390.706	33.07
390.92	66.39
391.134	31.32
391.348	62.9
391.562	-8.4
391.776	-14.79
391.99	-8.98
392.205	54.57
392.419	-7.04
392.633	16.99
392.847	72.59
393.061	6.91
393.275	76.66
393.489	28.03
393.703	33.84
393.917	76.27
394.131	13.3
394.345	55.73
394.559	56.12
394.773	17.76
394.986	35.39
395.2	-13.05
395.414	91.38
395.628	-22.93
395.842	25.12
396.056	3.62
396.27	-13.43
396.484	45.47
396.697	32.1
396.911	78.21
397.125	24.15
397.339	72.2
397.553	29.77
397.766	101.27
397.98	59.42
398.194	72.98
398.408	22.41
398.621	53.22
398.835	48.57
399.049	29.77
399.262	59.42
399.476	77.82
399.69	79.37
399.903	82.86
400.117	18.73
400.331	40.23
400.544	32.1
400.758	125.48
400.971	57.67
401.185	73.56
401.398	3.42
401.612	76.66
401.826	73.37
402.039	73.17
402.253	4.39
402.466	63.68
402.68	24.15
402.893	55.73
403.106	35.2
403.32	44.3
403.533	82.67
403.747	42.75
403.96	61.74
404.174	78.21
404.387	34.23
404.6	52.25
404.814	60
405.027	21.05
405.24	44.69
405.454	47.21
405.667	65.62
405.88	-1.42
406.094	52.05
406.307	58.25
406.52	33.65
406.733	22.22
406.947	-5.88
407.16	105.53
407.373	83.25
407.586	15.44
407.799	29
408.012	76.85
408.226	54.57
408.439	85.18
408.652	6.33
408.865	45.27
409.078	72.59
409.291	70.07
409.504	0.52
409.717	44.69
409.93	49.92
410.143	64.84
410.357	24.93
410.57	10.2
410.783	47.6
410.996	36.94
411.209	52.25
411.421	83.44
411.634	70.07
411.847	37.13
412.06	46.82
412.273	68.33
412.486	33.26
412.699	125.87
412.912	48.95
413.125	47.4
413.338	59.03
413.55	85.38
413.763	49.92
413.976	71.23
414.189	37.52
414.402	38.88
414.615	82.28
414.827	-8.78
415.04	82.67
415.253	57.67
415.466	86.73
415.678	101.65
415.891	46.82
416.104	52.63
416.316	54.18
416.529	36.17
416.742	89.45
416.954	72.78
417.167	39.65
417.38	52.83
417.592	99.33
417.805	30.93
418.017	6.14
418.23	53.6
418.442	38.68
418.655	53.8
418.868	74.72
419.08	97.97
419.293	94.87
419.505	83.25
419.718	74.92
419.93	104.95
420.142	36.75
420.355	93.9
420.567	89.25
420.78	59.42
420.992	50.31
421.205	126.65
421.417	29.19
421.629	56.7
421.842	12.92
422.054	31.71
422.266	87.12
422.479	85.96
422.691	51.08
422.903	91.19
423.115	45.85
423.328	51.67
423.54	87.9
423.752	48.95
423.964	26.48
424.177	62.9
424.389	38.68
424.601	168.69
424.813	97
425.025	85.38
425.238	80.92
425.45	28.61
425.662	45.27
425.874	311.48
426.086	59.03
426.298	84.02
426.51	101.46
426.722	71.62
426.934	60
427.146	64.26
427.358	44.3
427.57	102.62
427.782	42.17
427.994	75.5
428.206	64.65
428.418	15.24
428.63	74.14
428.842	89.45
429.054	49.53
429.266	86.54
429.478	56.7
429.69	67.36
429.902	31.71
430.114	64.65
430.325	85.96
430.537	43.14
430.749	62.32
430.961	21.83
431.173	73.37
431.384	103.4
431.596	25.32
431.808	72.2
432.02	73.95
432.231	103.2
432.443	85.77
432.655	39.46
432.867	32.68
433.078	72.4
433.29	133.62
433.502	83.83
433.713	92.16
433.925	69.49
434.136	120.06
434.348	34.23
434.56	4.97
434.771	164.23
434.983	50.89
435.194	70.46
435.406	41.98
435.617	99.52
435.829	148.54
436.04	114.44
436.252	103.98
436.463	127.61
436.675	105.14
436.886	72.59
437.098	88.87
437.309	102.04
437.521	92.35
437.732	104.17
437.943	92.35
438.155	80.73
438.366	17.57
438.578	142.15
438.789	86.35
439	109.6
439.211	107.66
439.423	82.67
439.634	86.93
439.845	86.93
440.057	78.21
440.268	108.05
440.479	49.15
440.69	107.85
440.902	60
441.113	86.15
441.324	70.27
441.535	92.74
441.746	126.45
441.957	78.4
442.168	62.52
442.38	103.78
442.591	109.02
442.802	76.47
443.013	57.67
443.224	77.43
443.435	86.73
443.646	89.45
443.857	68.72
444.068	84.41
444.279	70.85
444.49	155.32
444.701	90.61
444.912	166.95
445.123	135.95
445.334	95.65
445.545	104.75
445.756	95.65
445.967	59.42
446.178	77.05
446.388	124.13
446.599	142.34
446.81	98.94
447.021	91.38
447.232	124.9
447.443	136.91
447.653	94.68
447.864	158.03
448.075	111.53
448.286	110.57
448.496	121.61
448.707	145.83
448.918	110.57
449.129	177.8
449.339	54.77
449.55	137.3
449.761	71.04
449.971	148.93
450.182	100.68
450.393	130.33
450.603	73.17
450.814	152.61
451.024	117.35
451.235	152.8
451.446	170.43
451.656	147.96
451.867	97.39
452.077	126.84
452.288	175.86
452.498	171.98
452.709	93.32
452.919	136.91
453.13	112.89
453.34	123.16
453.55	52.44
453.761	124.9
453.971	141.18
454.182	135.36
454.392	129.36
454.602	171.4
454.813	148.73
455.023	164.04
455.233	92.16
455.444	117.93
455.654	70.85
455.864	122.38
456.075	103.98
456.285	85.77
456.495	90.42
456.705	142.92
456.916	150.86
457.126	172.76
457.336	115.02
457.546	67.75
457.756	113.86
457.967	141.95
458.177	90.42
458.387	129.94
458.597	117.73
458.807	134.2
459.017	137.88
459.227	132.65
459.437	131.68
459.647	148.73
459.857	145.25
460.068	91.38
460.278	158.81
460.488	133.04
460.698	203.18
460.908	123.55
461.117	85.57
461.327	92.16
461.537	143.11
461.747	118.9
461.957	125.29
462.167	213.83
462.377	165.98
462.587	135.17
462.797	166.95
463.007	149.51
463.216	154.93
463.426	155.51
463.636	182.83
463.846	91.38
464.056	101.85
464.265	200.46
464.475	115.41
464.685	130.71
464.895	154.35
465.104	117.35
465.314	139.82
465.524	110.95
465.733	134.4
465.943	204.92
466.153	194.46
466.362	159
466.572	163.07
466.782	133.62
466.991	126.26
467.201	195.23
467.41	105.14
467.62	160.36
467.829	136.53
468.039	176.25
468.249	137.69
468.458	126.06
468.668	161.52
468.877	163.85
469.086	183.8
469.296	197.17
469.505	114.05
469.715	201.24
469.924	174.7
470.134	172.56
470.343	226.81
470.552	135.75
470.762	163.46
470.971	108.43
471.18	142.34
471.39	157.06
471.599	113.08
471.808	191.16
472.018	118.51
472.227	180.31
472.436	182.83
472.645	141.37
472.855	122
473.064	204.73
473.273	155.51
473.482	178.57
473.691	183.03
473.901	188.45
474.11	161.91
474.319	217.51
474.528	172.18
474.737	228.75
474.946	189.23
475.155	171.98
475.364	217.71
475.573	195.62
475.783	195.43
475.992	196.78
476.201	208.99
476.41	179.54
476.619	167.72
476.828	180.9
477.037	167.33
477.245	181.09
477.454	234.37
477.663	181.67
477.872	165.01
478.081	200.08
478.29	126.84
478.499	250.84
478.708	170.24
478.917	213.64
479.125	188.84
479.334	178.57
479.543	148.15
479.752	206.86
479.961	204.14
480.169	219.26
480.378	178.57
480.587	293.46
480.796	235.53
481.004	196.98
481.213	232.63
481.422	204.92
481.63	210.73
481.839	214.99
482.048	258.59
482.256	215.96
482.465	220.03
482.674	235.92
482.882	237.86
483.091	270.02
483.299	229.53
483.508	244.64
483.716	203.95
483.925	228.56
484.134	200.08
484.342	202.6
484.551	251.23
484.759	243.67
484.967	239.21
485.176	261.88
485.384	234.95
485.593	255.68
485.801	221
486.01	234.95
486.218	267.69
486.426	180.51
486.635	222.36
486.843	203.37
487.051	243.86
487.26	197.56
487.468	265.37
487.676	250.45
487.885	208.41
488.093	218.87
488.301	230.11
488.509	227.01
488.717	280.68
488.926	218.09
489.134	229.33
489.342	221.97
489.55	223.91
489.758	252.19
489.967	214.99
490.175	308.38
490.383	225.46
490.591	280.29
490.799	216.35
491.007	270.41
491.215	248.71
491.423	228.36
491.631	230.11
491.839	234.56
492.047	279.9
492.255	225.26
492.463	197.75
492.671	261.3
492.879	316.91
493.087	243.86
493.295	266.14
493.503	269.44
493.711	270.21
493.919	286.29
494.127	269.05
494.334	272.15
494.542	232.24
494.75	252
494.958	289.98
495.166	290.56
495.374	270.02
495.581	261.3
495.789	265.37
495.997	327.56
496.205	261.69
496.412	256.07
496.62	235.34
496.828	281.26
497.035	251.61
497.243	313.61
497.451	279.71
497.658	274.48
497.866	290.17
498.074	340.54
498.281	261.69
498.489	346.55
498.696	300.05
498.904	297.72
499.112	274.67
499.319	349.65
499.527	266.34
499.734	309.54
499.942	280.09
500.149	277.19
500.357	288.81
500.564	243.67
500.771	317.1
500.979	267.11
501.186	266.73
501.394	269.24
501.601	285.13
501.808	303.15
502.016	294.24
502.223	323.69
502.43	311.87
502.638	276.8
502.845	239.99
503.052	359.14
503.26	276.22
503.467	344.61
503.674	309.93
503.881	315.55
504.089	374.45
504.296	345.39
504.503	282.81
504.71	322.91
504.917	278.16
505.125	309.74
505.332	307.02
505.539	311.67
505.746	383.94
505.953	318.46
506.16	307.61
506.367	355.85
506.574	342.48
506.781	332.02
506.988	280.48
507.195	338.41
507.402	318.26
507.609	370.19
507.816	304.12
508.023	325.24
508.23	303.15
508.437	287.07
508.644	324.46
508.851	369.61
509.058	348.68
509.265	346.16
509.472	336.28
509.679	397.12
509.885	320.2
510.092	296.76
510.299	326.98
510.506	326.98
510.713	342.09
510.92	335.51
511.126	362.82
511.333	377.55
511.54	392.85
511.746	392.47
511.953	400.6
512.16	382
512.367	316.91
512.573	335.31
512.78	340.74
512.987	339.57
513.193	360.5
513.4	306.06
513.606	383.75
513.813	369.41
514.02	367.47
514.226	423.66
514.433	427.92
514.639	324.07
514.846	374.84
515.052	349.46
515.259	386.07
515.465	384.52
515.672	385.88
515.878	450.59
516.085	361.66
516.291	436.64
516.497	356.04
516.704	376
516.91	346.94
517.117	333.57
517.323	310.32
517.529	370.38
517.736	369.02
517.942	364.18
518.148	372.9
518.354	396.54
518.561	356.82
518.767	383.36
518.973	393.82
519.179	399.25
519.386	355.07
519.592	373.48
519.798	348.49
520.004	427.92
520.21	353.14
520.417	416.1
520.623	453.5
520.829	432.19
521.035	425.99
521.241	460.09
521.447	464.15
521.653	518.21
521.859	441.68
522.065	448.27
522.271	521.5
522.477	447.69
522.683	487.02
522.889	457.37
523.095	458.54
523.301	453.5
523.507	413.2
523.713	483.92
523.919	443.04
524.125	502.52
524.331	464.74
524.537	532.16
524.742	476.17
524.948	510.27
525.154	508.91
525.36	579.82
525.566	491.28
525.772	531
525.977	461.05
526.183	575.17
526.389	519.18
526.595	510.85
526.8	531.58
527.006	512.98
527.212	455.82
527.417	472.29
527.623	481.01
527.829	517.63
528.034	525.18
528.24	514.14
528.446	484.88
528.651	534.29
528.857	541.27
529.062	572.85
529.268	532.16
529.473	542.04
529.679	526.35
529.884	597.84
530.09	593.38
530.295	606.56
530.501	610.63
530.706	586.99
530.912	519.95
531.117	601.71
531.323	562.96
531.528	615.08
531.733	606.17
531.939	560.06
532.144	597.84
532.35	582.73
532.555	605.59
532.76	634.65
532.966	603.65
533.171	617.6
533.376	564.32
533.581	557.35
533.787	615.28
533.992	617.02
534.197	659.64
534.402	577.3
534.607	601.71
534.813	696.84
535.018	585.25
535.223	593.19
535.428	626.13
535.633	653.06
535.838	620.51
536.043	576.91
536.249	676.11
536.454	607.91
536.659	633.1
536.864	612.95
537.069	618.76
537.274	646.47
537.479	629.42
537.684	657.32
537.889	616.05
538.094	669.14
538.299	651.89
538.504	650.73
538.708	654.99
538.913	654.22
539.118	616.44
539.323	664.29
539.528	605.2
539.733	633.3
539.938	643.56
540.142	693.74
540.347	624.19
540.552	613.53
540.757	655.96
540.962	655.96
541.166	622.06
541.371	608.5
541.576	619.35
541.781	548.24
541.985	661
542.19	655.96
542.395	675.73
542.599	717.58
542.804	682.89
543.008	671.85
543.213	648.6
543.418	599.97
543.622	672.24
543.827	613.92
544.031	705.56
544.236	688.9
544.44	636.59
544.645	733.46
544.849	643.18
545.054	680.38
545.258	759.81
545.463	728.23
545.667	651.89
545.872	719.51
546.076	705.95
546.281	690.45
546.485	677.66
546.689	699.75
546.894	691.42
547.098	690.26
547.302	625.35
547.507	673.59
547.711	707.69
547.915	761.17
548.119	664.68
548.324	690.06
548.528	765.62
548.732	709.63
548.936	748.57
549.141	725.52
549.345	692.97
549.549	674.37
549.753	660.42
549.957	761.36
550.161	760.2
550.366	698.39
550.57	692
550.774	700.53
550.978	689.48
551.182	722.81
551.386	702.46
551.59	702.08
551.794	682.51
551.998	727.84
552.202	675.14
552.406	675.73
552.61	720.87
552.814	707.5
553.018	754.77
553.222	688.71
553.426	675.92
553.63	757.87
553.833	701.11
554.037	637.75
554.241	707.69
554.445	708.66
554.649	695.88
554.853	698.39
555.056	739.08
555.26	732.88
555.464	739.86
555.668	718.74
555.871	720.87
556.075	712.93
556.279	712.73
556.483	650.93
556.686	706.73
556.89	711.76
557.094	694.52
557.297	658.29
557.501	759.23
557.704	639.5
557.908	719.9
558.112	660.81
558.315	749.16
558.519	683.48
558.722	711.38
558.926	675.73
559.129	637.17
559.333	601.13
559.536	666.04
559.74	668.36
559.943	626.71
560.147	624.58
560.35	649.18
560.553	624.19
560.757	607.53
560.96	711.38
561.164	639.88
561.367	705.18
561.57	622.25
561.774	675.53
561.977	650.93
562.18	629.81
562.384	746.83
562.587	656.54
562.79	646.08
562.993	630.58
563.197	676.5
563.4	701.69
563.603	692
563.806	716.41
564.009	635.23
564.212	670.3
564.416	605.78
564.619	668.56
564.822	604.81
565.025	666.81
565.228	609.27
565.431	660.23
565.634	544.37
565.837	615.86
566.04	584.08
566.243	623.22
566.446	544.17
566.649	610.24
566.852	565.48
567.055	590.86
567.258	640.27
567.461	655.38
567.664	674.18
567.867	550.18
568.07	601.71
568.273	582.92
568.475	615.66
568.678	596.87
568.881	560.25
569.084	617.41
569.287	508.91
569.489	524.22
569.692	607.33
569.895	595.32
570.098	539.13
570.3	517.43
570.503	476.94
570.706	482.37
570.909	518.21
571.111	498.25
571.314	474.03
571.516	524.99
571.719	540.1
571.922	528.28
572.124	489.53
572.327	524.22
572.529	488.57
572.732	481.2
572.935	518.21
573.137	554.05
573.34	498.25
573.542	513.75
573.745	540.3
573.947	493.8
574.15	470.93
574.352	491.08
574.554	534.68
574.757	512.4
574.959	501.35
575.162	472.29
575.364	479.46
575.566	591.06
575.769	483.53
575.971	512.2
576.173	443.42
576.376	466.28
576.578	490.5
576.78	553.47
576.982	406.42
577.185	480.82
577.387	445.17
577.589	419.01
577.791	477.91
577.993	513.75
578.196	445.94
578.398	476.94
578.6	519.95
578.802	435.29
579.004	439.74
579.206	442.65
579.408	481.59
579.61	455.05
579.812	483.33
580.014	417.65
580.216	441.49
580.418	450.98
580.62	404.29
580.822	418.43
581.024	457.37
581.226	482.56
581.428	443.62
581.63	506.2
581.832	404.87
582.034	486.63
582.236	462.22
582.438	481.4
582.64	502.13
582.841	491.67
583.043	489.53
583.245	450.2
583.447	482.17
583.649	471.13
583.85	447.1
584.052	487.02
584.254	429.86
584.456	491.08
584.657	400.8
584.859	423.08
585.061	437.03
585.262	433.93
585.464	425.79
585.666	471.71
585.867	431.8
586.069	490.7
586.27	471.52
586.472	448.07
586.674	445.17
586.875	444.78
587.077	384.52
587.278	449.62
587.48	419.01
587.681	541.85
587.883	448.65
588.084	369.61
588.285	407.77
588.487	430.05
588.688	412.62
588.89	401.77
589.091	383.94
589.292	420.37
589.494	431.99
589.695	391.3
589.896	329.11
590.098	330.08
590.299	402.93
590.5	336.28
590.702	345.97
590.903	400.8
591.104	421.92
591.305	406.61
591.507	432.19
591.708	440.9
591.909	392.08
592.11	450.4
592.311	418.43
592.512	399.83
592.714	353.14
592.915	351.97
593.116	374.45
593.317	374.26
593.518	397.31
593.719	389.56
593.92	442.65
594.121	422.89
594.322	392.08
594.523	387.24
594.724	355.07
594.925	361.47
595.126	380.65
595.327	397.12
595.528	404.67
595.729	406.8
595.929	381.42
596.13	400.02
596.331	387.82
596.532	384.14
596.733	420.56
596.934	405.84
597.135	408.16
597.335	405.25
597.536	374.26
597.737	393.24
597.938	374.06
598.138	371.74
598.339	369.22
598.54	406.61
598.74	384.72
598.941	406.22
599.142	400.8
599.342	417.85
599.543	362.82
599.744	373.48
599.944	366.12
600.145	364.57
600.345	369.61
600.546	449.62
600.746	415.14
600.947	475.97
601.147	418.24
601.348	450.59
601.548	341.12
601.749	426.57
601.949	353.72
602.15	385.88
602.35	409.9
602.551	433.15
602.751	347.32
602.951	375.22
603.152	342.87
603.352	420.37
603.552	398.86
603.753	406.8
603.953	403.51
604.153	394.79
604.354	386.27
604.554	383.94
604.754	387.62
604.954	362.63
605.155	394.02
605.355	364.96
605.555	406.61
605.755	427.73
605.955	410.49
606.155	408.74
606.356	369.02
606.556	429.28
606.756	396.92
606.956	358.95
607.156	418.43
607.356	350.62
607.556	398.86
607.756	380.45
607.956	450.4
608.156	358.17
608.356	346.36
608.556	406.03
608.756	369.41
608.956	362.63
609.156	369.99
609.356	352.75
609.556	315.94
609.755	399.05
609.955	355.66
610.155	386.85
610.355	373.48
610.555	334.34
610.755	366.51
610.954	330.47
611.154	373.87
611.354	395.76
611.554	350.81
611.753	342.87
611.953	343.45
612.153	370.57
612.352	372.32
612.552	330.27
612.752	336.86
612.951	366.89
613.151	348.87
613.351	308.57
613.55	355.07
613.75	377.94
613.949	362.24
614.149	369.41
614.348	350.62
614.548	338.8
614.747	269.05
614.947	330.27
615.146	293.66
615.346	363.21
615.545	339.19
615.745	334.73
615.944	349.07
616.144	343.06
616.343	387.62
616.542	313.61
616.742	355.46
616.941	343.45
617.14	281.84
617.34	347.71
617.539	332.6
617.738	296.95
617.938	358.37
618.137	349.26
618.336	289.39
618.535	342.29
618.734	325.82
618.934	347.13
619.133	326.4
619.332	366.89
619.531	341.71
619.73	323.3
619.929	375.22
620.128	338.02
620.328	354.88
620.527	322.91
620.726	308.38
620.925	335.51
621.124	305.86
621.323	346.94
621.522	287.26
621.721	307.02
621.92	285.71
622.119	348.1
622.318	286.68
622.517	317.1
622.715	304.89
622.914	254.13
623.113	301.02
623.312	256.26
623.511	292.69
623.71	302.37
623.909	316.32
624.107	368.25
624.306	263.82
624.505	268.47
624.704	308.77
624.902	288.04
625.101	348.68
625.3	313.22
625.499	276.03
625.697	297.14
625.896	307.99
626.095	312.45
626.293	226.81
626.492	282.23
626.69	312.64
626.889	281.84
627.088	289.39
627.286	267.89
627.485	283.58
627.683	249.09
627.882	303.73
628.08	230.88
628.279	281.06
628.477	351.97
628.676	273.12
628.874	316.52
629.073	267.31
629.271	243.67
629.469	309.74
629.668	274.28
629.866	282.61
630.065	279.13
630.263	314.58
630.461	233.4
630.66	265.37
630.858	306.83
631.056	306.83
631.254	314.77
631.453	246.38
631.651	339.38
631.849	301.02
632.047	319.81
632.245	280.48
632.444	293.07
632.642	295.59
632.84	286.68
633.038	267.11
633.236	257.23
633.434	259.56
633.632	258.98
633.83	266.14
634.028	285.71
634.227	269.63
634.425	315.94
634.623	277.19
634.821	282.61
635.019	263.43
635.216	256.26
635.414	311.48
635.612	276.99
635.81	267.5
636.008	293.85
636.206	261.11
636.404	279.71
636.602	237.28
636.8	305.67
636.997	266.53
637.195	289.59
637.393	277.96
637.591	316.71
637.789	293.85
637.986	277.58
638.184	266.34
638.382	307.99
638.58	313.03
638.777	341.32
638.975	255.88
639.173	283.97
639.37	261.49
639.568	279.13
639.765	296.76
639.963	258.59
640.161	315.55
640.358	305.28
640.556	273.31
640.753	249.09
640.951	273.31
641.148	289.2
641.346	227.59
641.543	260.91
641.741	292.11
641.938	261.49
642.136	245.03
642.333	239.99
642.531	288.04
642.728	335.12
642.925	302.57
643.123	243.67
643.32	267.69
643.517	284.55
643.715	264.01
643.912	243.86
644.109	263.63
644.306	261.49
644.504	228.75
644.701	276.41
644.898	297.72
645.095	238.63
645.293	255.68
645.49	282.61
645.687	265.37
645.884	301.99
646.081	225.46
646.278	267.31
646.475	266.34
646.672	228.56
646.87	274.28
647.067	229.33
647.264	276.22
647.461	217.71
647.658	200.85
647.855	259.94
648.052	240.18
648.249	184.77
648.446	222.55
648.642	217.71
648.839	228.75
649.036	248.51
649.233	199.5
649.43	194.85
649.627	214.99
649.824	254.33
650.021	210.54
650.217	224.68
650.414	197.95
650.611	270.6
650.808	249.68
651.004	240.38
651.201	242.31
651.398	284.36
651.595	229.14
651.791	213.25
651.988	253.36
652.185	239.6
652.381	246.19
652.578	180.9
652.775	219.26
652.971	191.16
653.168	235.92
653.364	264.4
653.561	181.86
653.757	204.14
653.954	233.59
654.15	186.32
654.347	285.52
654.543	241.15
654.74	218.48
654.936	177.6
655.133	216.93
655.329	233.98
655.525	230.3
655.722	273.51
655.918	199.3
656.115	255.49
656.311	177.99
656.507	181.48
656.704	140.01
656.9	175.28
657.096	174.31
657.292	182.25
657.489	222.16
657.685	222.36
657.881	188.84
658.077	194.26
658.273	194.07
658.47	247.93
658.666	184.58
658.862	241.34
659.058	210.15
659.254	246.38
659.45	180.9
659.646	222.55
659.842	215.96
660.038	218.68
660.234	187.87
660.43	212.86
660.626	271.96
660.822	231.08
661.018	239.21
661.214	209.38
661.41	168.88
661.606	242.7
661.802	227.2
661.998	193.1
662.194	176.05
662.39	194.26
662.586	223.71
662.781	205.69
662.977	238.44
663.173	231.46
663.369	233.59
663.564	214.99
663.76	233.01
663.956	199.69
664.152	251.42
664.347	171.98
664.543	209.96
664.739	219.84
664.934	163.85
665.13	154.93
665.326	216.35
665.521	202.98
665.717	168.88
665.912	184.58
666.108	133.81
666.304	170.05
666.499	208.99
666.695	164.43
666.89	176.05
667.086	230.49
667.281	204.73
667.477	231.08
667.672	215.58
667.867	198.33
668.063	214.8
668.258	149.12
668.454	158.61
668.649	264.59
668.844	170.05
669.04	204.53
669.235	187.29
669.43	170.24
669.626	173.73
669.821	177.99
670.016	138.85
670.211	186.51
670.407	151.45
670.602	205.11
670.797	193.88
670.992	218.68
671.187	163.07
671.382	217.71
671.578	141.56
671.773	176.44
671.968	171.21
672.163	199.88
672.358	199.69
672.553	179.73
672.748	165.78
672.943	224.68
673.138	162.1
673.333	213.44
673.528	163.07
673.723	194.07
673.918	191.36
674.113	164.04
674.308	245.41
674.503	212.86
674.698	235.53
674.892	197.36
675.087	196.59
675.282	214.61
675.477	179.73
675.672	196.01
675.867	200.85
676.061	164.62
676.256	150.09
676.451	139.82
676.646	197.36
676.84	138.08
677.035	162.1
677.23	144.08
677.424	193.3
677.619	217.13
677.814	209.38
678.008	208.02
678.203	146.99
678.397	150.28
678.592	182.83
678.787	238.24
678.981	186.71
679.176	183.8
679.37	178.76
679.565	164.81
679.759	183.61
679.954	188.26
680.148	223.52
680.342	262.08
680.537	195.62
680.731	178.57
680.926	190.97
681.12	224.1
681.314	159.58
681.509	188.26
681.703	219.26
681.897	205.5
682.092	176.63
682.286	149.7
682.48	239.21
682.674	242.12
682.869	195.04
683.063	183.61
683.257	238.05
683.451	159.58
683.645	213.06
683.839	196.01
684.034	184
684.228	237.47
684.422	139.43
684.616	154.16
684.81	213.64
685.004	176.83
685.198	188.65
685.392	202.21
685.586	160.16
685.78	215.58
685.974	213.83
686.168	204.53
686.362	246.96
686.556	179.73
686.75	172.18
686.944	175.66
687.138	220.61
687.331	175.86
687.525	179.35
687.719	123.55
687.913	195.04
688.107	172.37
688.301	150.86
688.494	193.88
688.688	161.33
688.882	125.68
689.076	121.61
689.269	171.21
689.463	224.1
689.657	153.38
689.85	145.44
690.044	151.45
690.238	167.53
690.431	142.53
690.625	165.98
690.818	151.25
691.012	180.51
691.205	178.76
691.399	135.95
691.593	182.06
691.786	233.98
691.98	219.26
692.173	243.28
692.366	207.05
692.56	213.83
692.753	266.73
692.947	177.8
693.14	239.6
693.333	245.99
693.527	158.42
693.72	218.68
693.914	202.4
694.107	187.1
694.3	240.57
694.493	194.46
694.687	252.97
694.88	194.46
695.073	242.7
695.266	238.44
695.46	208.6
695.653	256.07
695.846	246.96
696.039	180.9
696.232	235.73
696.425	230.3
696.618	250.64
696.812	232.63
697.005	272.34
697.198	361.86
697.391	273.51
697.584	289.39
697.777	339.57
697.97	286.88
698.163	321.94
698.356	289.98
698.549	361.86
698.742	350.62
698.935	312.06
699.127	335.7
699.32	297.14
699.513	310.71
699.706	334.73
699.899	375.03
700.092	311.29
700.285	364.57
700.477	293.66
700.67	347.32
700.863	372.12
701.056	430.64
701.248	403.32
701.441	422.89
701.634	383.55
701.826	478.3
702.019	368.06
702.212	428.12
702.404	365.15
702.597	391.5
702.79	366.12
702.982	428.7
703.175	459.31
703.367	456.02
703.56	462.8
703.752	517.63
703.945	481.98
704.137	491.47
704.33	493.99
704.522	511.62
704.715	515.11
704.907	524.41
705.1	534.29
705.292	555.6
705.484	532.74
705.677	544.56
705.869	593.19
706.061	578.08
706.254	644.34
706.446	593.38
706.638	599.58
706.831	614.11
707.023	608.88
707.215	684.83
707.407	647.24
707.599	654.61
707.792	685.22
707.984	653.64
708.176	672.43
708.368	653.06
708.56	698.78
708.752	681.15
708.944	685.61
709.136	734.24
709.329	713.31
709.521	795.07
709.713	774.92
709.905	766.79
710.097	794.49
710.289	745.67
710.481	766.4
710.672	832.66
710.864	791.97
711.056	860.75
711.248	857.27
711.44	859.98
711.632	838.86
711.824	889.43
712.016	924.69
712.207	900.47
712.399	917.33
712.591	978.55
712.783	928.76
712.975	963.25
713.166	920.43
713.358	959.76
713.55	1021.18
713.741	1008.2
713.933	997.54
714.125	1002.19
714.316	995.02
714.508	1074.07
714.7	1074.65
714.891	1067.48
715.083	1146.53
715.274	1049.66
715.466	1065.55
715.657	1132.19
715.849	1010.13
716.04	1083.56
716.232	1019.24
716.423	1118.44
716.615	1047.14
716.806	1036.68
716.998	999.09
717.189	986.11
717.381	964.6
717.572	959.57
717.763	980.68
717.955	962.08
718.146	955.11
718.337	922.37
718.528	907.25
718.72	855.52
718.911	955.69
719.102	919.27
719.293	942.52
719.485	924.5
719.676	935.15
719.867	896.79
720.058	937.09
720.249	931.08
720.44	945.42
720.632	1019.05
720.823	1051.01
721.014	1114.18
721.205	1105.26
721.396	1144.21
721.587	1245.54
721.778	1237.79
721.969	1270.72
722.16	1298.82
722.351	1324
722.542	1414.68
722.733	1440.25
722.924	1347.06
723.115	1380.38
723.305	1400.15
723.496	1403.83
723.687	1331.37
723.878	1345.9
724.069	1351.32
724.26	1377.09
724.45	1317.03
724.641	1305.4
724.832	1336.4
725.023	1384.84
725.213	1349.58
725.404	1370.12
725.595	1353.07
725.785	1372.25
725.976	1402.86
726.167	1401.5
726.357	1430.18
726.548	1483.26
726.739	1467.38
726.929	1518.33
727.12	1520.85
727.31	1524.34
727.501	1478.61
727.691	1527.05
727.882	1502.64
728.072	1602.03
728.263	1585.56
728.453	1615.59
728.644	1597.58
728.834	1584.01
729.024	1593.12
729.215	1590.41
729.405	1625.67
729.596	1667.91
729.786	1688.44
729.976	1748.31
730.167	1725.45
730.357	1695.8
730.547	1708.79
730.737	1774.66
730.928	1779.12
731.118	1836.66
731.308	1741.53
731.498	1811.28
731.688	1872.7
731.879	1865.91
732.069	1941.86
732.259	1944.38
732.449	1983.71
732.639	2031.96
732.829	2056.76
733.019	2089.5
733.209	2137.16
733.399	2183.85
733.589	2236.55
733.779	2226.28
733.969	2251.47
734.159	2292.35
734.349	2328
734.539	2365.01
734.729	2362.3
734.919	2421.58
735.109	2435.53
735.299	2413.83
735.488	2417.51
735.678	2460.72
735.868	2454.13
736.058	2444.83
736.248	2408.41
736.437	2424.29
736.627	2398.33
736.817	2552.75
737.007	2492.11
737.196	2546.74
737.386	2538.02
737.576	2491.72
737.765	2583.36
737.955	2567.67
738.144	2651.17
738.334	2609.13
738.524	2559.72
738.713	2617.65
738.903	2634.51
739.092	2696.51
739.282	2701.35
739.471	2680.04
739.661	2682.56
739.85	2743.98
740.04	2737.39
740.229	2789.9
740.419	2762.58
740.608	2809.08
740.797	2784.66
740.987	2852.28
741.176	2830.39
741.365	2794.35
741.555	2787.76
741.744	2915.25
741.933	2825.54
742.123	2865.07
742.312	2877.86
742.501	2926.29
742.69	2957.68
742.88	2877.86
743.069	2984.42
743.258	2943.15
743.447	3011.35
743.636	3011.93
743.825	2974.92
744.014	2983.45
744.204	2982.67
744.393	2956.32
744.582	3026.85
744.771	3028.4
744.96	3020.45
745.149	3059.59
745.338	3036.92
745.527	3087.68
745.716	3089.82
745.905	3048.55
746.094	3073.15
746.283	3074.32
746.471	3103.77
746.66	3180.3
746.849	3123.72
747.038	3191.53
747.227	3141.16
747.416	3168.87
747.604	3113.45
747.793	3121.78
747.982	3158.6
748.171	3173.32
748.359	3189.79
748.548	3165.18
748.737	3140
748.926	3126.05
749.114	3061.53
749.303	3187.08
749.491	3148.91
749.68	3102.22
749.869	3152.01
750.057	3114.81
750.246	3140.19
750.434	3140
750.623	3133.22
750.811	3102.6
751	3182.81
751.188	3129.73
751.377	3163.63
751.565	3119.65
751.754	3120.43
751.942	3090.78
752.131	3159.18
752.319	3114.23
752.507	3102.22
752.696	3193.86
752.884	3193.47
753.072	3161.5
753.261	3137.87
753.449	3130.12
753.637	3089.62
753.825	3195.41
754.014	3130.5
754.202	3134.57
754.39	3216.72
754.578	3209.36
754.766	3126.63
754.955	3105.51
755.143	3187.85
755.331	3110.93
755.519	3138.64
755.707	3163.63
755.895	3137.28
756.083	3110.55
756.271	3064.82
756.459	3113.26
756.647	3145.23
756.835	3127.79
757.023	3106.09
757.211	3117.52
757.399	3120.82
757.587	3125.08
757.775	3061.14
757.963	3059.2
758.151	3076.06
758.339	3045.06
758.526	3036.92
758.714	3035.95
758.902	2964.27
759.09	2827.68
759.278	2712.01
759.465	2458.98
759.653	2142
759.841	1925.01
760.028	1676.04
760.216	1419.33
760.404	1328.07
760.591	1094.41
760.779	930.31
760.967	818.32
761.154	672.24
761.342	706.34
761.529	718.54
761.717	761.17
761.905	738.11
762.092	806.51
762.28	698.2
762.467	762.91
762.655	698.98
762.842	677.66
763.029	733.46
763.217	732.88
763.404	759.62
763.592	723.58
763.779	708.28
763.966	763.11
764.154	786.94
764.341	840.6
764.528	869.47
764.716	923.92
764.903	953.75
765.09	1031.83
765.277	1039.2
765.465	1183.54
765.652	1223.26
765.839	1318.97
766.026	1471.06
766.213	1474.16
766.4	1589.05
766.588	1770.98
766.775	1782.41
766.962	1862.82
767.149	1938.76
767.336	2084.66
767.523	2022.27
767.71	2202.07
767.897	2287.7
768.084	2385.93
768.271	2406.28
768.458	2462.46
768.645	2522.52
768.832	2470.6
769.019	2567.28
769.206	2563.02
769.392	2630.25
769.579	2718.02
769.766	2673.07
769.953	2664.93
770.14	2750.18
770.327	2720.92
770.513	2764.51
770.7	2842.01
770.887	2745.33
771.073	2801.91
771.26	2733.52
771.447	2759.09
771.634	2755.41
771.82	2861.19
772.007	2755.21
772.193	2796.1
772.38	2831.94
772.567	2787.76
772.753	2758.12
772.94	2814.5
773.126	2844.53
773.313	2836.01
773.499	2814.89
773.686	2828.06
773.872	2836.59
774.059	2814.7
774.245	2755.99
774.432	2803.85
774.618	2705.62
774.804	2776.53
774.991	2731.97
775.177	2815.08
775.363	2773.04
775.55	2807.33
775.736	2710.27
775.922	2764.71
776.109	2752.5
776.295	2746.69
776.481	2761.61
776.667	2780.01
776.853	2743.98
777.04	2698.64
777.226	2721.7
777.412	2811.79
777.598	2715.69
777.784	2692.25
777.97	2676.36
778.156	2703.1
778.342	2702.9
778.528	2706.58
778.715	2662.41
778.901	2643.23
779.087	2696.12
779.272	2620.17
779.458	2607.19
779.644	2696.12
779.83	2639.55
780.016	2736.42
780.202	2692.25
780.388	2635.87
780.574	2581.62
780.76	2592.08
780.946	2659.89
781.131	2623.27
781.317	2596.92
781.503	2582
781.689	2573.09
781.874	2691.67
782.06	2603.9
782.246	2598.09
782.432	2570.57
782.617	2555.66
782.803	2649.82
782.989	2538.99
783.174	2561.47
783.36	2521.56
783.545	2561.86
783.731	2550.62
783.916	2459.94
784.102	2529.11
784.288	2489.01
784.473	2514.39
784.659	2507.41
784.844	2524.46
785.029	2475.44
785.215	2452.78
785.4	2386.9
785.586	2540.16
785.771	2434.95
785.956	2505.09
786.142	2482.22
786.327	2460.53
786.512	2443.48
786.698	2436.5
786.883	2382.25
787.068	2417.51
787.254	2414.61
787.439	2400.27
787.624	2378.18
787.809	2380.9
787.994	2355.71
788.18	2441.15
788.365	2334.4
788.55	2320.25
788.735	2368.11
788.92	2384.96
789.105	2325.68
789.29	2324.32
789.475	2304.56
789.66	2299.13
789.845	2285.18
790.03	2265.42
790.215	2319.86
790.4	2296.81
790.585	2358.03
790.77	2286.73
790.955	2223.18
791.14	2268.52
791.325	2352.8
791.51	2205.17
791.695	2269.1
791.879	2227.83
792.064	2217.37
792.249	2293.13
792.434	2261.55
792.618	2255.93
792.803	2273.37
792.988	2248.95
793.173	2269.3
793.357	2291
793.542	2243.53
793.727	2256.7
793.911	2278.21
794.096	2220.47
794.281	2267.94
794.465	2356.87
794.65	2239.85
794.834	2324.13
795.019	2327.42
795.203	2325.48
795.388	2362.1
795.572	2360.94
795.757	2301.65
795.941	2301.65
796.126	2303.98
796.31	2260.77
796.494	2300.68
796.679	2259.8
796.863	2215.43
797.048	2339.63
797.232	2288.87
797.416	2266.78
797.601	2280.53
797.785	2365.59
797.969	2367.72
798.153	2279.18
798.338	2339.05
798.522	2332.85
798.706	2350.67
798.89	2372.37
799.074	2423.13
799.258	2420.81
799.443	2346.02
799.627	2327.61
799.811	2362.88
799.995	2319.67
800.179	2273.56
800.363	2277.63
800.547	2357.84
800.731	2328.58
800.915	2243.72
801.099	2306.3
801.283	2299.91
801.467	2339.24
801.651	2293.52
801.835	2349.12
802.019	2320.25
802.202	2279.57
802.386	2254.38
802.57	2267.36
802.754	2264.84
802.938	2213.88
803.121	2263.1
803.305	2330.91
803.489	2299.52
803.673	2307.08
803.856	2292.35
804.04	2277.05
804.224	2268.33
804.407	2307.66
804.591	2243.14
804.775	2260
804.958	2304.75
805.142	2400.27
805.326	2308.05
805.509	2321.03
805.693	2355.71
805.876	2354.93
806.06	2328.97
806.243	2326.26
806.427	2360.94
806.61	2365.2
806.794	2300.68
806.977	2366.36
807.16	2300.3
807.344	2304.36
807.527	2309.6
807.71	2319.09
807.894	2367.53
808.077	2356.1
808.26	2288.67
808.444	2274.14
808.627	2338.08
808.81	2260.58
808.993	2221.44
809.177	2228.8
809.36	2213.11
809.543	2288.28
809.726	2194.9
809.909	2178.62
810.092	2164.87
810.276	2164.67
810.459	2206.72
810.642	2148.2
810.825	2084.46
811.008	2134.06
811.191	2074.19
811.374	2074.19
811.557	2080.78
811.74	2138.13
811.923	2022.08
812.106	1996.89
812.289	1975.38
812.472	2007.35
812.654	2023.43
812.837	1974.61
813.02	1926.36
813.203	1878.31
813.386	1780.86
813.569	1778.53
813.751	1750.25
813.934	1804.3
814.117	1757.22
814.3	1706.65
814.482	1673.52
814.665	1662.87
814.848	1620.63
815.03	1553.79
815.213	1574.91
815.396	1547.98
815.578	1522.01
815.761	1491.98
815.943	1584.01
816.126	1424.37
816.309	1441.61
816.491	1428.43
816.674	1346.48
816.856	1417.2
817.039	1417.58
817.221	1469.7
817.403	1435.8
817.586	1400.34
817.768	1444.51
817.951	1360.82
818.133	1362.17
818.315	1402.67
818.498	1441.03
818.68	1458.46
818.862	1420.68
819.045	1445.87
819.227	1447.81
819.409	1434.05
819.591	1460.21
819.774	1450.91
819.956	1391.23
820.138	1471.83
820.32	1462.92
820.502	1529.76
820.684	1576.46
820.866	1601.64
821.048	1647.76
821.231	1635.36
821.413	1650.47
821.595	1591.38
821.777	1637.29
821.959	1608.04
822.141	1646.4
822.323	1567.54
822.505	1492.37
822.686	1444.13
822.868	1372.44
823.05	1263.17
823.232	1227.91
823.414	1177.92
823.596	1294.75
823.778	1259.1
823.96	1308.89
824.141	1281.57
824.323	1324.59
824.505	1398.02
824.687	1419.91
824.868	1483.85
825.05	1551.46
825.232	1561.73
825.413	1642.72
825.595	1618.5
825.777	1527.63
825.958	1566.58
826.14	1586.53
826.321	1588.86
826.503	1589.44
826.685	1579.56
826.866	1630.51
827.048	1614.62
827.229	1538.09
827.411	1531.89
827.592	1454.59
827.773	1477.45
827.955	1414.48
828.136	1435.41
828.318	1397.82
828.499	1469.12
828.68	1386.97
828.862	1440.83
829.043	1450.91
829.224	1412.16
829.406	1396.66
829.587	1412.93
829.768	1391.62
829.949	1434.44
830.131	1404.6
830.312	1490.43
830.493	1432.7
830.674	1461.76
830.855	1430.18
831.036	1455.17
831.218	1467.57
831.399	1489.46
831.58	1464.08
831.761	1455.75
831.942	1468.35
832.123	1432.5
832.304	1389.49
832.485	1407.12
832.666	1412.55
832.847	1436.18
833.028	1426.5
833.209	1407.9
833.389	1392.4
833.57	1359.46
833.751	1359.85
833.932	1458.85
834.113	1413.9
834.294	1400.15
834.475	1438.31
834.655	1463.5
834.836	1487.14
835.017	1483.07
835.198	1409.45
835.378	1493.53
835.559	1452.46
835.74	1470.48
835.92	1440.64
836.101	1424.37
836.281	1490.82
836.462	1458.27
836.643	1492.95
836.823	1520.46
837.004	1527.63
837.184	1542.36
837.365	1527.63
837.545	1506.71
837.726	1479.58
837.906	1554.18
838.087	1501.86
838.267	1496.63
838.448	1468.35
838.628	1478.81
838.808	1502.64
838.989	1545.65
839.169	1452.26
839.349	1510.78
839.53	1526.08
839.71	1527.83
839.89	1492.56
840.07	1568.51
840.251	1468.15
840.431	1523.18
840.611	1512.91
840.791	1491.79
840.971	1474.93
841.151	1507.68
841.332	1459.63
841.512	1532.28
841.692	1434.25
841.872	1492.18
842.052	1468.93
842.232	1543.52
842.412	1470.86
842.592	1494.5
842.772	1494.5
842.952	1486.36
843.132	1455.75
843.312	1457.88
843.492	1474.74
843.672	1500.12
843.851	1416.03
844.031	1469.31
844.211	1448.58
844.391	1457.88
844.571	1479.39
844.751	1494.7
844.93	1500.31
845.11	1417.39
845.29	1456.33
845.47	1490.05
845.649	1441.03
845.829	1479.97
846.009	1448.78
846.188	1478.03
846.368	1453.62
846.547	1445.48
846.727	1487.14
846.907	1417.2
847.086	1459.43
847.266	1483.65
847.445	1447.03
847.625	1394.14
847.804	1387.36
847.984	1428.05
848.163	1417.97
848.343	1420.68
848.522	1452.46
848.701	1450.13
848.881	1386
849.06	1424.95
849.239	1412.55
849.419	1425.92
849.598	1329.62
849.777	1342.41
849.957	1345.32
850.136	1294.17
850.315	1280.41
850.494	1297.27
850.674	1299.98
850.853	1348.22
851.032	1299.4
851.211	1368.37
851.39	1339.7
851.569	1287.97
851.748	1284.09
851.927	1330.01
852.107	1301.14
852.286	1338.54
852.465	1281.57
852.644	1345.51
852.823	1318.58
853.002	1296.69
853.181	1325.75
853.359	1327.69
853.538	1264.91
853.717	1316.84
853.896	1222.29
854.075	1192.64
854.254	1183.92
854.433	1094.03
854.611	1142.08
854.79	1113.4
854.969	1163.97
855.148	1149.63
855.327	1106.81
855.505	1174.82
855.684	1163.19
855.863	1184.31
856.041	1183.92
856.22	1200.39
856.399	1205.62
856.577	1286.03
856.756	1258.9
856.934	1336.99
857.113	1311.8
857.291	1255.03
857.47	1230.42
857.648	1269.17
857.827	1260.26
858.005	1325.17
858.184	1249.02
858.362	1333.89
858.541	1244.18
858.719	1243.21
858.898	1227.13
859.076	1238.37
859.254	1340.47
859.433	1235.07
859.611	1221.9
859.789	1222.29
859.967	1291.84
860.146	1290.87
860.324	1228.1
860.502	1221.71
860.68	1218.02
860.859	1187.8
861.037	1224.03
861.215	1226.16
861.393	1227.71
861.571	1233.91
861.749	1188.38
861.927	1206.21
862.105	1211.44
862.283	1191.67
862.461	1182.76
862.639	1169.97
862.817	1212.41
862.995	1187.8
863.173	1167.26
863.351	1220.54
863.529	1186.83
863.707	1211.82
863.885	1199.62
864.063	1125.41
864.241	1184.7
864.418	1213.37
864.596	1154.48
864.774	1101.39
864.952	1148.28
865.129	1211.05
865.307	1138.2
865.485	1110.11
865.663	1157.77
865.84	1075.23
866.018	1118.83
866.196	1000.83
866.373	1050.05
866.551	951.82
866.728	946.2
866.906	968.48
867.084	1011.49
867.261	1057.6
867.439	1026.02
867.616	1088.99
867.794	1068.06
867.971	1081.43
868.149	1081.24
868.326	1126.77
868.503	1103.33
868.681	1077.75
868.858	1068.45
869.035	1068.45
869.213	1116.89
869.39	1072.13
869.567	1129.48
869.745	1047.72
869.922	1058.96
870.099	1098.29
870.276	1090.54
870.454	1089.76
870.631	1103.33
870.808	1049.27
870.985	1107.59
871.162	1135.29
871.339	1094.22
871.517	996.76
871.694	1001.03
871.871	1061.86
872.048	1026.21
872.225	1041.91
872.402	1046.17
872.579	1004.51
872.756	1078.72
872.933	1022.34
873.11	1044.81
873.287	1055.47
873.463	1050.43
873.64	991.53
873.817	1055.66
873.994	1022.53
874.171	1014.78
874.348	1006.65
874.524	940.97
874.701	1050.05
874.878	962.67
875.055	1033.77
875.231	1010.71
875.408	1025.05
875.585	962.08
875.762	1009.36
875.938	970.8
876.115	992.7
876.291	996.18
876.468	967.32
876.645	959.57
876.821	943.48
876.998	975.84
877.174	992.89
877.351	971.38
877.527	937.28
877.704	971.77
877.88	968.09
878.057	946.78
878.233	978.75
878.409	910.16
878.586	972.74
878.762	936.9
878.938	965.57
879.115	918.3
879.291	947.94
879.467	908.03
879.644	907.83
879.82	967.7
879.996	896.79
880.172	880.13
880.349	897.18
880.525	947.75
880.701	884.39
880.877	866.57
881.053	905.32
881.229	891.37
881.405	926.82
881.581	911.71
881.757	903.96
881.933	910.55
882.109	937.48
882.285	910.93
882.461	860.75
882.637	921.59
882.813	902.22
882.989	929.15
883.165	948.13
883.341	884.97
883.517	930.89
883.693	922.75
883.869	932.05
884.044	896.99
884.22	924.69
884.396	944.26
884.572	920.04
884.747	926.63
884.923	924.5
885.099	940.97
885.275	955.5
885.45	917.13
885.626	909
885.801	879.35
885.977	927.6
886.153	828.59
886.328	899.31
886.504	874.7
886.679	891.17
886.855	855.14
887.03	903.96
887.206	890.79
887.381	892.72
887.557	910.16
887.732	919.07
887.908	907.06
888.083	931.67
888.258	882.26
888.434	862.11
888.609	894.85
888.784	952.2
888.96	895.63
889.135	847.39
889.31	843.32
889.485	865.21
889.661	865.21
889.836	923.14
890.011	913.65
890.186	895.82
890.361	849.32
890.537	897.76
890.712	913.07
890.887	881.87
891.062	879.35
891.237	945.23
891.412	887.88
891.587	922.75
891.762	916.94
891.937	933.41
892.112	851.07
892.287	855.72
892.462	867.34
892.637	846.22
892.812	795.46
892.987	840.8
893.161	811.54
893.336	804.76
893.511	824.72
893.686	801.08
893.861	793.33
894.035	790.23
894.21	802.05
894.385	738.69
894.56	798.17
894.734	753.42
894.909	733.85
895.084	734.43
895.258	717.58
895.433	749.16
895.608	694.13
895.782	668.36
895.957	701.88
896.131	670.11
896.306	631.16
896.48	639.69
896.655	625.74
896.829	590.86
897.004	559.86
897.178	589.51
897.353	569.55
897.527	635.62
897.701	605.2
897.876	587.96
898.05	650.54
898.224	617.02
898.399	637.75
898.573	574.98
898.747	509.49
898.921	549.4
899.096	455.24
899.27	485.08
899.444	477.13
899.618	485.27
899.792	506.97
899.967	527.51
900.141	575.95
900.315	490.12
900.489	496.32
900.663	522.08
900.837	513.17
901.011	465.32
901.185	583.31
901.359	511.82
901.533	533.13
901.707	532.74
901.881	472.68
902.055	474.62
902.229	481.59
902.403	571.68
902.576	487.79
902.75	505.03
902.924	609.27
903.098	581.37
903.272	583.5
903.446	632.33
903.619	619.15
903.793	629.03
903.967	641.04
904.14	677.28
904.314	667.59
904.488	625.55
904.661	679.6
904.835	650.73
905.009	712.73
905.182	726.88
905.356	665.84
905.529	680.38
905.703	625.16
905.876	625.93
906.05	605.4
906.223	585.83
906.397	522.86
906.57	529.25
906.744	513.17
906.917	512.59
907.09	515.3
907.264	504.07
907.437	490.12
907.61	455.63
907.784	482.37
907.957	470.93
908.13	483.53
908.304	486.05
908.477	449.24
908.65	488.57
908.823	427.15
908.996	515.5
909.17	444.59
909.343	458.73
909.516	475.78
909.689	429.09
909.862	433.93
910.035	472.29
910.208	441.1
910.381	411.45
910.554	523.44
910.727	425.02
910.9	425.6
911.073	440.52
911.246	512.78
911.419	490.7
911.592	474.03
911.765	452.14
911.938	408.94
912.11	478.1
912.283	453.89
912.456	472.87
912.629	439.16
912.802	415.14
912.974	369.61
913.147	354.88
913.32	312.64
913.493	399.64
913.665	387.24
913.838	398.86
914.01	360.89
914.183	410.49
914.356	361.66
914.528	397.5
914.701	457.18
914.873	421.72
915.046	373.48
915.218	350.81
915.391	313.03
915.563	330.47
915.736	381.81
915.908	417.65
916.081	378.13
916.253	361.27
916.425	371.93
916.598	413.59
916.77	398.67
916.942	368.44
917.115	311.48
917.287	395.57
917.459	385.1
917.632	314.19
917.804	291.91
917.976	336.86
918.148	365.15
918.32	380.84
918.493	387.82
918.665	448.46
918.837	386.46
919.009	450.59
919.181	412.62
919.353	430.25
919.525	408.94
919.697	414.75
919.869	412.81
920.041	482.17
920.213	489.53
920.385	444.78
920.557	418.04
920.729	434.9
920.901	434.32
921.073	396.15
921.244	424.44
921.416	427.92
921.588	439.74
921.76	383.94
921.932	468.8
922.103	407.97
922.275	407.58
922.447	432.96
922.619	363.02
922.79	415.14
922.962	396.34
923.134	417.85
923.305	364.18
923.477	359.14
923.648	369.41
923.82	381.42
923.991	314.39
924.163	323.49
924.335	339.77
924.506	340.35
924.677	410.1
924.849	303.73
925.02	356.62
925.192	376.97
925.363	361.47
925.535	353.72
925.706	309.54
925.877	378.71
926.049	301.99
926.22	345.97
926.391	341.12
926.562	404.48
926.734	334.34
926.905	384.72
927.076	290.17
927.247	329.5
927.419	269.05
927.59	264.98
927.761	300.63
927.932	256.84
928.103	301.41
928.274	212.86
928.445	215.38
928.616	254.71
928.787	231.85
928.958	285.52
929.129	276.03
929.3	240.18
929.471	200.46
929.642	143.7
929.813	124.32
929.984	215.96
930.155	171.79
930.326	204.53
930.496	148.93
930.667	131.3
930.838	146.21
931.009	93.32
931.18	132.07
931.35	126.06
931.521	168.5
931.692	97.97
931.863	52.44
932.033	94.1
932.204	110.18
932.374	104.95
932.545	57.09
932.716	101.65
932.886	117.15
933.057	51.47
933.227	57.28
933.398	137.88
933.568	40.04
933.739	2.45
933.909	36.75
934.08	78.02
934.25	14.85
934.421	-7.81
934.591	46.82
934.761	35.2
934.932	-27.38
935.102	46.24
935.272	36.17
935.443	48.95
935.613	17.18
935.783	53.6
935.953	16.99
936.123	149.9
936.294	-4.33
936.464	16.4
936.634	18.15
936.804	8.07
936.974	-55.09
937.144	47.21
937.314	38.68
937.484	35.97
937.655	30.74
937.825	30.74
937.995	15.63
938.165	61.74
938.334	16.99
938.504	63.48
938.674	22.41
938.844	74.72
939.014	70.85
939.184	73.37
939.354	122.58
939.524	100.1
939.694	62.71
939.863	81.7
940.033	106.88
940.203	114.63
940.373	115.6
940.542	112.5
940.712	76.66
940.882	116.76
941.051	127.23
941.221	114.44
941.391	175.47
941.56	61.93
941.73	71.62
941.899	169.85
942.069	87.51
942.238	95.26
942.408	46.43
942.577	86.54
942.747	58.25
942.916	28.22
943.086	32.87
943.255	75.5
943.425	89.45
943.594	65.81
943.763	1.1
943.933	12.14
944.102	-4.71
944.271	26.67
944.441	78.79
944.61	50.89
944.779	57.48
944.948	159.58
945.117	23.19
945.287	39.07
945.456	2.26
945.625	31.32
945.794	74.14
945.963	41.59
946.132	70.85
946.301	70.85
946.47	76.66
946.639	-11.5
946.808	36.36
946.977	32.48
947.146	100.49
947.315	36.17
947.484	70.27
947.653	24.74
947.822	28.03
947.991	21.44
948.16	126.84
948.329	103.01
948.498	52.25
948.666	71.23
948.835	87.9
949.004	39.85
949.173	2.07
949.341	76.85
949.51	57.28
949.679	89.45
949.847	70.65
950.016	108.05
950.185	113.08
950.353	29.77
950.522	63.29
950.69	100.1
950.859	55.15
951.028	84.8
951.196	57.67
951.365	19.31
951.533	34.23
951.701	85.38
951.87	70.46
952.038	23.57
952.207	71.62
952.375	109.98
952.543	54.77
952.712	59.8
952.88	19.7
953.048	111.53
953.217	58.25
953.385	51.08
953.553	90.8
953.721	56.7
953.89	50.89
954.058	1.1
954.226	43.72
954.394	93.71
954.562	-9.75
954.73	48.37
954.898	81.31
955.067	89.83
955.235	47.6
955.403	107.27
955.571	114.05
955.739	68.52
955.907	47.21
956.075	33.45
956.243	42.17
956.41	56.51
956.578	13.3
956.746	11.17
956.914	71.82
957.082	79.18
957.25	84.8
957.418	31.9
957.585	43.33
957.753	96.42
957.921	59.22
958.089	54.18
958.256	32.68
958.424	73.75
958.592	93.52
958.759	31.13
958.927	72.59
959.095	39.27
959.262	36.75
959.43	74.92
959.597	26.48
959.765	85.77
959.932	26.87
960.1	89.25
960.267	61.74
960.435	55.54
960.602	85.57
960.77	48.18
960.937	7.49
961.104	73.75
961.272	12.34
961.439	41.59
961.606	89.83
961.774	72.2
961.941	47.6
962.108	80.53
962.275	89.83
962.443	100.88
962.61	67.55
962.777	108.24
962.944	84.8
963.111	83.44
963.278	113.67
963.446	75.88
963.613	59.03
963.78	86.93
963.947	76.85
964.114	54.38
964.281	162.3
964.448	96.23
964.615	103.98
964.782	104.56
964.949	97.2
965.116	95.07
965.282	126.65
965.449	60.77
965.616	44.11
965.783	90.42
965.95	90.22
966.117	39.85
966.283	72.4
966.45	80.92
966.617	102.62
966.784	88.87
966.95	109.02
967.117	104.37
967.284	58.25
967.45	66.39
967.617	144.08
967.784	114.44
967.95	122.77
968.117	111.34
968.283	131.88
968.45	188.06
968.616	96.81
968.783	130.33
968.949	107.47
969.116	140.01
969.282	107.27
969.449	90.22
969.615	105.14
969.781	66.78
969.948	84.41
970.114	65.23
970.28	143.5
970.447	120.45
970.613	152.61
970.779	101.46
970.945	112.5
971.112	109.02
971.278	108.05
971.444	107.47
971.61	120.83
971.776	103.78
971.942	120.25
972.108	116.57
972.275	99.13
972.441	112.12
972.607	165.98
972.773	81.31
972.939	91.77
973.105	96.03
973.271	74.14
973.437	70.46
973.602	77.63
973.768	91.19
973.934	83.44
974.1	100.88
974.266	13.5
974.432	93.32
974.598	104.95
974.763	128.2
974.929	88.48
975.095	134.98
975.261	53.41
975.426	60.97
975.592	75.3
975.758	141.56
975.923	36.94
976.089	81.89
976.255	136.33
976.42	98.17
976.586	100.3
976.751	83.25
976.917	173.92
977.082	81.89
977.248	49.15
977.413	31.52
977.579	55.73
977.744	102.04
977.91	58.45
978.075	94.48
978.24	127.81
978.406	82.28
978.571	66.2
978.736	56.9
978.902	92.74
979.067	47.02
979.232	33.84
979.397	58.06
979.563	142.34
979.728	74.92
979.893	68.13
980.058	67.94
980.223	101.46
980.388	83.83
980.554	94.48
980.719	56.51
980.884	83.44
981.049	114.25
981.214	75.88
981.379	88.28
981.544	54.96
981.709	85.38
981.874	62.32
982.039	91.77
982.204	97.39
982.368	83.83
982.533	73.75
982.698	77.05
982.863	99.13
983.028	82.86
983.193	126.84
983.357	79.57
983.522	79.95
983.687	76.85
983.852	68.52
984.016	89.06
984.181	88.67
984.346	93.13
984.51	108.63
984.675	94.29
984.839	110.95
985.004	91.77
985.168	109.4
985.333	67.75
985.498	60.58
985.662	103.59
985.827	78.4
985.991	68.52
986.155	70.85
986.32	101.85
986.484	151.45
986.649	102.23
986.813	47.6
986.977	81.31
987.142	100.3
987.306	49.73
987.47	60
987.634	78.98
987.799	95.26
987.963	94.87
988.127	109.6
988.291	128.97
988.455	77.63
988.62	65.03
988.784	97.78
988.948	94.87
989.112	52.25
989.276	99.33
989.44	81.7
989.604	62.32
989.768	67.36
989.932	134.01
990.096	40.82
990.26	46.24
990.424	39.27
990.588	81.12
990.752	145.05
990.915	128.2
991.079	55.93
991.243	61.35
991.407	87.12
991.571	36.17
991.734	103.59
991.898	95.84
992.062	160.36
992.226	89.64
992.389	58.83
992.553	28.22
992.717	44.3
992.88	75.3
993.044	82.67
993.207	69.49
993.371	107.27
993.535	71.82
993.698	71.62
993.862	135.95
994.025	109.98
994.189	96.23
994.352	88.48
994.515	89.83
994.679	91.58
994.842	58.64
995.006	101.65
995.169	60.97
995.332	71.43
995.496	82.86
995.659	16.6
995.822	59.8
995.985	47.6
996.149	100.88
996.312	68.33
996.475	128.97
996.638	45.66
996.801	128.39
996.964	136.33
997.128	57.87
997.291	64.65
997.454	57.09
997.617	19.7
997.78	113.08
997.943	29.77
998.106	90.42
998.269	57.09
998.432	68.33
998.595	76.66
998.758	6.72
998.92	11.75
999.083	8.46
999.246	56.51
999.409	57.87
999.572	4.39
999.735	52.63
999.897	74.14
1000.06	38.1
1000.223	58.06
1000.386	74.92
1000.548	79.57
1000.711	53.8
1000.874	85.96
1001.036	39.07
1001.199	96.81
1001.361	32.29
1001.524	51.08
1001.687	96.81
1001.849	54.57
1002.012	82.86
1002.174	47.21
1002.337	62.52
1002.499	45.85
1002.661	101.27
1002.824	10.01
1002.986	-4.91
1003.149	65.81
1003.311	54.77
1003.473	102.04
1003.636	47.4
1003.798	41.98
1003.96	50.5
1004.123	41.59
1004.285	43.53
1004.447	49.53
1004.609	42.95
1004.771	88.48
1004.933	10.4
1005.096	27.25
1005.258	-13.05
1005.42	49.15
1005.582	76.08
1005.744	64.07
1005.906	-7.81
1006.068	48.76
1006.23	-5.88
1006.392	3.42
1006.554	33.84
1006.716	80.15
1006.878	65.03
1007.04	7.49
1007.202	31.32
1007.363	40.43
1007.525	60.58
1007.687	31.9
1007.849	88.48
1008.011	-12.08
1008.172	7.3
1008.334	28.42
1008.496	49.34
1008.658	-15.95
1008.819	28.8
1008.981	-3.75
1009.143	12.53
1009.304	21.83
1009.466	57.48
1009.627	75.5
1009.789	127.42
1009.95	34.23
1010.112	44.88
1010.273	50.12
1010.435	14.85
1010.596	42.37
1010.758	30.74
1010.919	11.95
1011.081	7.49
1011.242	15.82
1011.403	55.93
1011.565	24.35
1011.726	30.16
1011.887	20.28
1012.049	27.45
1012.21	81.5
1012.371	95.07
1012.532	-46.37
1012.693	38.3
1012.855	4.78
1013.016	8.65
1013.177	49.92
1013.338	27.45
1013.499	83.44
1013.66	59.03
1013.821	65.42
1013.982	33.45
1014.143	38.3
1014.304	36.55
1014.465	47.6
1014.626	59.8
1014.787	31.32
1014.948	104.56
1015.109	-28.74
1015.27	82.28
1015.431	5.94
1015.592	-9.17
1015.752	74.33
1015.913	35.78
1016.074	48.37
1016.235	28.61
1016.395	22.6
1016.556	19.5
1016.717	-6.46
1016.877	60.38
1017.038	-3.75
1017.199	40.62
1017.359	12.92
1017.52	34.62
1017.681	6.91
1017.841	24.35
1018.002	26.67
1018.162	-19.83
1018.323	46.43
1018.483	18.73
1018.644	29
1018.804	-21.76
1018.964	-14.01
1019.125	25.12
1019.285	41.78
1019.446	-2.97
1019.606	9.62
1019.766	-14.6
1019.926	50.5
1020.087	39.07
1020.247	-13.63
1020.407	19.31
1020.567	66.39
1020.728	32.1
1020.888	-12.08
1021.048	21.83
1021.208	-13.05
1021.368	-10.91
1021.528	66.2
1021.688	37.72
1021.848	48.18
1022.008	41.4
1022.168	12.92
1022.328	23.77
1022.488	20.09
1022.648	5.17
1022.808	22.99
1022.968	41.78
1023.128	-3.75
1023.288	18.92
1023.448	20.67
1023.608	45.47
1023.767	40.62
1023.927	-19.05
1024.087	-20.21
1024.247	-49.08
1024.406	-2.58
1024.566	-24.28
1024.726	-8.59
1024.885	28.03
1025.045	41.4
1025.205	30.35
1025.364	8.85
1025.524	30.74
1025.683	-9.56
1025.843	19.89
1026.003	34.62
1026.162	84.22
1026.321	44.3
1026.481	28.42
1026.64	-7.23
1026.8	-2
1026.959	32.87
1027.119	24.54
1027.278	-6.85
1027.437	-9.75
1027.597	20.86
1027.756	17.76
1027.915	40.62
1028.074	51.08
1028.234	-20.6
1028.393	5.94
1028.552	12.72
1028.711	-80.66
1028.87	65.03
1029.03	-25.25
1029.189	-9.56
1029.348	-52.38
1029.507	-2.58
1029.666	10.2
1029.825	-39.4
1029.984	-6.46
1030.143	19.89
1030.302	6.91
1030.461	-50.83
1030.62	-3.36
1030.779	39.46
1030.938	0.52
1031.097	-23.31
1031.255	40.62
1031.414	53.99
1031.573	55.93
1031.732	-24.67
1031.891	16.6
1032.049	61.35
1032.208	26.09
1032.367	-6.65
1032.525	7.49
1032.684	13.5
1032.843	38.1
1033.001	-34.94
1033.16	150.09
1033.319	87.51
1033.477	19.89
1033.636	1.29
1033.794	-32.23
1033.953	44.11
1034.111	16.02
1034.27	0.52
1034.428	11.95
1034.587	-24.86
1034.745	28.42
1034.903	-17.31
1035.062	40.23
1035.22	-20.21
1035.378	54.18
1035.537	-34.75
1035.695	18.73
1035.853	13.3
1036.011	38.1
1036.17	22.02
1036.328	-50.44
1036.486	52.25
1036.644	7.3
1036.802	-50.44
1036.96	-0.45
1037.119	-6.85
1037.277	-19.63
1037.435	-37.65
1037.593	-26.61
1037.751	13.89
1037.909	36.17
1038.067	36.17
