Data from oakcork_FLMT105791__3__17-26-38-067.txt Node

Date: Mon Mar 20 17:26:38 GMT 2023
User: antho
Spectrometer: FLMT10579
Trigger mode: 0
Integration Time (sec): 1.000000E-1
Scans to average: 10
Electric dark correction enabled: true
Nonlinearity correction enabled: false
Boxcar width: 0
XAxis mode: Wavelengths
Number of Pixels in Spectrum: 3648
>>>>>Begin Spectral Data<<<<<
345.248	-164.43
345.464	-164.43
345.681	-164.43
345.898	-140.6
346.114	-137.11
346.331	-22.02
346.548	16.15
346.764	-2.07
346.981	-6.52
347.197	-4.39
347.414	8.2
347.631	-41.78
347.847	71.75
348.064	6.26
348.28	20.02
348.497	-48.76
348.713	3.16
348.93	48.31
349.146	21.76
349.363	3.75
349.579	36.3
349.796	11.5
350.012	-0.32
350.229	38.81
350.445	15.37
350.661	5.88
350.878	1.61
351.094	17.89
351.311	26.8
351.527	35.71
351.743	-8.27
351.96	49.08
352.176	53.54
352.392	25.45
352.609	43.85
352.825	6.07
353.041	33
353.257	13.82
353.474	24.28
353.69	22.73
353.906	20.41
354.122	-8.46
354.339	65.74
354.555	0.45
354.771	5.49
354.987	64.78
355.203	68.46
355.42	25.83
355.636	19.63
355.852	-13.89
356.068	29.32
356.284	-43.53
356.5	66.33
356.716	15.18
356.932	4.91
357.148	12.66
357.364	21.38
357.58	50.44
357.796	68.65
358.012	44.24
358.228	29.71
358.444	-42.56
358.66	51.8
358.876	34.55
359.092	18.86
359.308	29.9
359.524	38.62
359.74	5.1
359.956	-17.37
360.172	16.73
360.388	54.7
360.604	5.49
360.819	83.18
361.035	14.21
361.251	46.37
361.467	-9.24
361.683	66.52
361.898	25.64
362.114	45.21
362.33	43.85
362.546	68.26
362.762	20.8
362.977	34.16
363.193	-22.99
363.409	74.46
363.624	-17.37
363.84	-4.2
364.056	-8.85
364.271	38.81
364.487	10.91
364.703	35.13
364.918	-23.57
365.134	39.4
365.35	35.52
365.565	127.16
365.781	9.75
365.996	23.7
366.212	78.34
366.427	52.96
366.643	6.26
366.858	10.53
367.074	-12.34
367.289	89.77
367.505	121.16
367.72	-31.9
367.936	24.09
368.151	66.71
368.367	23.12
368.582	16.73
368.798	19.25
369.013	71.94
369.228	17.31
369.444	39.2
369.659	69.62
369.874	36.88
370.09	76.98
370.305	3.36
370.52	6.26
370.736	72.53
370.951	2.58
371.166	75.24
371.381	101.78
371.597	52.18
371.812	6.65
372.027	16.34
372.242	19.05
372.458	92.68
372.673	33.39
372.888	18.28
373.103	37.07
373.318	112.24
373.533	52.76
373.749	12.27
373.964	-19.31
374.179	60.51
374.394	-1.29
374.609	67.1
374.824	-13.11
375.039	73.11
375.254	32.42
375.469	106.24
375.684	36.3
375.899	79.31
376.114	55.86
376.329	36.3
376.544	81.24
376.759	81.83
376.974	41.91
377.189	19.25
377.404	31.26
377.619	59.16
377.834	-16.21
378.049	-6.91
378.264	6.46
378.478	43.27
378.693	27.96
378.908	70.39
379.123	37.07
379.338	88.99
379.553	43.66
379.767	58.38
379.982	68.26
380.197	80.08
380.412	46.37
380.626	62.64
380.841	113.79
381.056	40.17
381.271	73.49
381.485	25.45
381.7	-4.59
381.915	66.91
382.129	-8.07
382.344	72.14
382.559	40.36
382.773	77.18
382.988	-6.72
383.202	54.31
383.417	22.73
383.632	144.02
383.846	20.8
384.061	22.54
384.275	33.58
384.49	64.19
384.704	85.31
384.919	74.66
385.133	48.7
385.348	54.7
385.562	-2.07
385.777	47.92
385.991	47.53
386.206	26.61
386.42	-6.52
386.634	90.54
386.849	46.95
387.063	77.37
387.277	15.95
387.492	23.9
387.706	24.86
387.92	29.32
388.135	74.46
388.349	54.12
388.563	68.65
388.778	65.16
388.992	62.26
389.206	77.76
389.42	112.24
389.635	40.95
389.849	76.59
390.063	87.06
390.277	38.23
390.491	116.12
390.706	70.98
390.92	96.74
391.134	65.94
391.348	89.38
391.562	-1.87
391.776	40.75
391.99	54.7
392.205	117.48
392.419	57.41
392.633	65.16
392.847	93.06
393.061	26.8
393.275	93.84
393.489	51.41
393.703	55.28
393.917	94.23
394.131	36.49
394.345	73.49
394.559	83.18
394.773	46.37
394.986	70.39
395.2	56.06
395.414	97.33
395.628	29.71
395.842	82.99
396.056	42.69
396.27	11.69
396.484	78.53
396.697	65.94
396.911	94.03
397.125	79.31
397.339	82.79
397.553	66.91
397.766	113.02
397.98	124.64
398.194	116.7
398.408	73.3
398.621	122.32
398.835	66.33
399.049	93.26
399.262	116.31
399.476	137.63
399.69	124.64
399.903	148.67
400.117	87.64
400.331	114.96
400.544	64.78
400.758	178.12
400.971	130.26
401.185	141.89
401.398	86.67
401.612	174.44
401.826	161.46
402.039	120.58
402.253	89.77
402.466	121.93
402.68	119.61
402.893	119.8
403.106	128.33
403.32	92.48
403.533	129.29
403.747	108.56
403.96	126
404.174	119.61
404.387	88.22
404.6	128.71
404.814	173.08
405.027	117.67
405.24	107.01
405.454	117.48
405.667	144.21
405.88	75.04
406.094	136.66
406.307	123.09
406.52	122.13
406.733	100.43
406.947	81.44
407.16	200.98
407.373	136.46
407.586	91.51
407.799	106.63
408.012	142.08
408.226	156.61
408.439	197.88
408.652	65.55
408.865	143.63
409.078	175.21
409.291	160.29
409.504	86.28
409.717	153.32
409.93	132.39
410.143	131.04
410.357	94.61
410.57	81.83
410.783	132.2
410.996	133.36
411.209	132.59
411.421	144.99
411.634	108.56
411.847	112.83
412.06	116.89
412.273	136.27
412.486	148.86
412.699	201.17
412.912	141.31
413.125	172.11
413.338	157.77
413.55	169.4
413.763	135.69
413.976	149.64
414.189	126.58
414.402	134.91
414.615	206.41
414.827	126.78
415.04	164.36
415.253	165.14
415.466	175.02
415.678	223.46
415.891	174.24
416.104	156.42
416.316	146.73
416.529	143.63
416.742	170.56
416.954	181.02
417.167	171.92
417.38	152.74
417.592	192.46
417.805	128.91
418.017	109.14
418.23	167.07
418.442	121.54
418.655	141.31
418.868	153.51
419.08	191.29
419.293	191.49
419.505	170.17
419.718	177.34
419.93	205.82
420.142	169.79
420.355	191.87
420.567	196.14
420.78	175.79
420.992	151.38
421.205	201.37
421.417	145.38
421.629	148.86
421.842	143.24
422.054	124.64
422.266	179.86
422.479	190.52
422.691	158.94
422.903	189.16
423.115	156.81
423.328	196.33
423.54	181.22
423.752	170.76
423.964	149.64
424.177	192.46
424.389	178.12
424.601	243.22
424.813	172.31
425.025	198.07
425.238	214.93
425.45	155.84
425.662	160.87
425.874	484.43
426.086	169.01
426.298	191.49
426.51	189.36
426.722	185.67
426.934	176.57
427.146	202.14
427.358	128.71
427.57	210.67
427.782	184.71
427.994	170.95
428.206	139.18
428.418	149.83
428.63	199.62
428.842	211.83
429.054	171.92
429.266	209.31
429.478	141.69
429.69	192.26
429.902	121.16
430.114	222.1
430.325	184.32
430.537	167.46
430.749	170.76
430.961	123.09
431.173	162.42
431.384	196.72
431.596	91.51
431.808	171.53
432.02	215.32
432.231	220.74
432.443	262.59
432.655	214.16
432.867	158.55
433.078	206.02
433.29	280.03
433.502	251.16
433.713	233.53
433.925	233.92
434.136	250.58
434.348	174.82
434.56	183.74
434.771	284.1
434.983	153.12
435.194	200.4
435.406	191.87
435.617	250.97
435.829	256
436.04	261.04
436.252	259.69
436.463	310.45
436.675	271.89
436.886	250
437.098	265.69
437.309	300.18
437.521	253.1
437.732	261.82
437.943	223.46
438.155	220.74
438.366	185.09
438.578	307.15
438.789	249.22
439	257.75
439.211	237.6
439.423	252.32
439.634	271.12
439.845	264.92
440.057	271.5
440.268	271.7
440.479	229.46
440.69	253.49
440.902	222.49
441.113	277.51
441.324	232.37
441.535	278.48
441.746	322.46
441.957	242.44
442.168	254.07
442.38	294.37
442.591	308.32
442.802	250.77
443.013	279.64
443.224	302.89
443.435	268.6
443.646	289.14
443.857	273.25
444.068	259.1
444.279	283.32
444.49	370.51
444.701	308.9
444.912	370.51
445.123	301.54
445.334	302.31
445.545	312.97
445.756	286.62
445.967	259.69
446.178	311.61
446.388	328.08
446.599	325.37
446.81	293.59
447.021	307.35
447.232	342.8
447.443	337.18
447.653	277.32
447.864	344.35
448.075	304.05
448.286	336.41
448.496	336.8
448.707	336.41
448.918	319.17
449.129	389.3
449.339	323.62
449.55	329.24
449.761	299.02
449.971	369.93
450.182	306.57
450.393	332.92
450.603	324.2
450.814	355.78
451.024	356.75
451.235	354.23
451.446	410.81
451.656	403.06
451.867	322.27
452.077	374
452.288	390.27
452.498	371.87
452.709	322.85
452.919	358.88
453.13	302.7
453.34	373.22
453.55	283.71
453.761	361.6
453.971	325.37
454.182	371.87
454.392	359.47
454.602	383.68
454.813	375.55
455.023	373.22
455.233	300.57
455.444	343.97
455.654	301.15
455.864	336.8
456.075	370.7
456.285	323.62
456.495	329.82
456.705	355.98
456.916	393.57
457.126	433.86
457.336	343.97
457.546	298.63
457.756	327.88
457.967	421.08
458.177	343.97
458.387	367.99
458.597	352.3
458.807	335.63
459.017	363.15
459.227	376.71
459.437	326.72
459.647	406.55
459.857	390.27
460.068	346.87
460.278	391.24
460.488	388.33
460.698	440.45
460.908	361.79
461.117	341.25
461.327	351.72
461.537	378.65
461.747	369.35
461.957	363.34
462.167	453.24
462.377	412.36
462.587	381.55
462.797	434.64
463.007	399.18
463.216	443.36
463.426	435.61
463.636	441.81
463.846	348.23
464.056	372.64
464.265	423.79
464.475	365.28
464.685	397.44
464.895	434.06
465.104	395.12
465.314	450.72
465.524	385.82
465.733	383.3
465.943	441.61
466.153	471.26
466.362	462.73
466.572	430.76
466.782	383.68
466.991	450.91
467.201	463.7
467.41	359.47
467.62	423.01
467.829	408.87
468.039	434.83
468.249	428.05
468.458	408.48
468.668	442.58
468.877	407.71
469.086	464.86
469.296	476.1
469.505	386.78
469.715	503.61
469.924	440.65
470.134	471.26
470.343	511.56
470.552	450.33
470.762	415.46
470.971	409.84
471.18	445.49
471.39	463.7
471.599	441.03
471.808	457.5
472.018	437.55
472.227	471.84
472.436	517.76
472.645	455.37
472.855	445.1
473.064	509.81
473.273	499.74
473.482	495.67
473.691	547.98
473.901	525.89
474.11	495.48
474.319	580.73
474.528	484.43
474.737	568.71
474.946	550.69
475.155	516.01
475.364	541.2
475.573	529.38
475.783	534.42
475.992	544.49
476.201	581.69
476.41	503.61
476.619	506.52
476.828	539.46
477.037	501.09
477.245	524.15
477.454	583.05
477.663	569.68
477.872	549.14
478.081	596.42
478.29	535.58
478.499	637.11
478.708	556.12
478.917	638.27
479.125	576.85
479.334	600.1
479.543	577.82
479.752	597.97
479.961	591.96
480.169	628
480.378	588.28
480.587	709.95
480.796	641.56
481.004	627.42
481.213	650.09
481.422	626.06
481.63	649.12
481.839	672.75
482.048	697.55
482.256	644.27
482.465	674.3
482.674	682.44
482.882	673.72
483.091	719.45
483.299	688.84
483.508	679.54
483.716	659.58
483.925	690.97
484.134	652.8
484.342	686.7
484.551	714.8
484.759	678.57
484.967	700.46
485.176	745.99
485.384	721.39
485.593	739.6
485.801	717.32
486.01	679.15
486.218	665.59
486.426	585.96
486.635	609.21
486.843	613.86
487.051	669.46
487.26	636.52
487.468	681.47
487.676	664.23
487.885	667.33
488.093	709.37
488.301	713.44
488.509	703.75
488.717	741.92
488.926	715.19
489.134	733.98
489.342	761.49
489.55	683.22
489.758	725.84
489.967	682.05
490.175	809.73
490.383	733.79
490.591	824.85
490.799	729.91
491.007	796.17
491.215	821.94
491.423	757.23
491.631	763.04
491.839	750.25
492.047	792.49
492.255	726.23
492.463	703.75
492.671	718.67
492.879	803.92
493.087	752.39
493.295	786.87
493.503	813.03
493.711	833.37
493.919	858.75
494.127	837.44
494.334	819.42
494.542	790.75
494.75	822.72
494.958	825.82
495.166	880.06
495.374	846.16
495.581	854.3
495.789	858.75
495.997	916.88
496.205	801.02
496.412	843.06
496.62	826.78
496.828	863.21
497.035	851.97
497.243	892.85
497.451	867.28
497.658	877.35
497.866	848.87
498.074	917.26
498.281	803.53
498.489	941.29
498.696	869.8
498.904	851.58
499.112	851.78
499.319	922.5
499.527	855.65
499.734	920.75
499.942	831.24
500.149	861.08
500.357	866.7
500.564	835.89
500.771	856.04
500.979	843.25
501.186	814.97
501.394	869.99
501.601	832.98
501.808	857.98
502.016	857.2
502.223	846.74
502.43	857.98
502.638	845.77
502.845	845.58
503.052	919.98
503.26	868.05
503.467	910.48
503.674	867.47
503.881	902.73
504.089	969.96
504.296	904.28
504.503	856.81
504.71	907
504.917	836.67
505.125	894.98
505.332	870.18
505.539	896.73
505.746	967.44
505.953	970.54
506.16	944
506.367	992.24
506.574	970.54
506.781	1011.43
506.988	925.98
507.195	940.51
507.402	929.47
507.609	954.66
507.816	922.69
508.023	925.4
508.23	930.83
508.437	902.93
508.644	946.71
508.851	975.97
509.058	990.89
509.265	954.08
509.472	980.81
509.679	1056.76
509.885	993.79
510.092	978.68
510.299	978.29
510.506	944.58
510.713	971.32
510.92	969.38
511.126	1028.28
511.333	1040.68
511.54	1016.66
511.746	1077.69
511.953	1020.72
512.16	1045.72
512.367	989.14
512.573	1010.65
512.78	1010.26
512.987	997.67
513.193	1020.53
513.4	938.58
513.606	974.42
513.813	1027.89
514.02	999.41
514.226	1061.61
514.433	1040.49
514.639	966.48
514.846	1014.91
515.052	976.36
515.259	994.96
515.465	1036.81
515.672	1007.36
515.878	1097.64
516.085	1048.04
516.291	1083.5
516.497	1007.55
516.704	1018.21
516.91	993.99
517.117	921.33
517.323	908.74
517.529	946.52
517.736	966.86
517.942	932.18
518.148	933.73
518.354	1008.52
518.561	995.73
518.767	993.79
518.973	1028.09
519.179	1027.12
519.386	996.7
519.592	1003.29
519.798	1000.19
520.004	1112.56
520.21	1036.03
520.417	1096.48
520.623	1116.63
520.829	1119.15
521.035	1109.07
521.241	1074.39
521.447	1140.27
521.653	1260.58
521.859	1120.7
522.065	1142.79
522.271	1204.78
522.477	1183.47
522.683	1202.27
522.889	1192
523.095	1188.7
523.301	1184.05
523.507	1129.22
523.713	1164.29
523.919	1153.64
524.125	1188.7
524.331	1180.76
524.537	1235.59
524.742	1233.07
524.948	1241.6
525.154	1241.98
525.36	1302.05
525.566	1237.72
525.772	1283.25
525.977	1205.17
526.183	1242.18
526.389	1239.27
526.595	1206.72
526.8	1201.49
527.006	1179.4
527.212	1148.99
527.417	1132.52
527.623	1112.95
527.829	1174.37
528.034	1173.59
528.24	1224.35
528.446	1184.25
528.651	1281.12
528.857	1291.58
529.062	1335.37
529.268	1261.36
529.473	1275.12
529.679	1302.82
529.884	1377.03
530.09	1323.94
530.295	1367.53
530.501	1361.53
530.706	1308.25
530.912	1265.62
531.117	1361.91
531.323	1308.83
531.528	1369.08
531.733	1402.99
531.939	1301.46
532.144	1403.96
532.35	1348.16
532.555	1408.03
532.76	1322.58
532.966	1339.25
533.171	1355.91
533.376	1301.66
533.581	1311.54
533.787	1342.93
533.992	1365.98
534.197	1403.38
534.402	1344.67
534.607	1316.19
534.813	1480.1
535.018	1359.2
535.223	1340.02
535.428	1387.88
535.633	1414.23
535.838	1450.07
536.043	1419.65
536.249	1526.99
536.454	1433.99
536.659	1430.89
536.864	1418.29
537.069	1384.78
537.274	1428.95
537.479	1453.36
537.684	1427.21
537.889	1380.51
538.094	1448.52
538.299	1426.04
538.504	1423.91
538.708	1434.38
538.913	1441.93
539.118	1425.27
539.323	1450.65
539.528	1453.56
539.733	1400.47
539.938	1436.7
540.142	1485.91
540.347	1413.45
540.552	1416.16
540.757	1408.41
540.962	1425.66
541.166	1361.91
541.371	1333.43
541.576	1425.46
541.781	1325.49
541.985	1455.88
542.19	1421.39
542.395	1508.39
542.599	1533.38
542.804	1474.67
543.008	1498.7
543.213	1433.79
543.418	1412.68
543.622	1453.17
543.827	1402.6
544.031	1521.56
544.236	1513.04
544.44	1444.84
544.645	1538.03
544.849	1460.92
545.054	1527.76
545.258	1566.9
545.463	1551.59
545.667	1469.64
545.872	1495.79
546.076	1497.34
546.281	1507.61
546.485	1484.36
546.689	1551.98
546.894	1542.1
547.098	1514.59
547.302	1463.24
547.507	1490.56
547.711	1516.52
547.915	1559.92
548.119	1467.51
548.324	1461.69
548.528	1540.94
548.732	1503.93
548.936	1560.7
549.141	1529.51
549.345	1492.69
549.549	1522.34
549.753	1531.83
549.957	1615.34
550.161	1568.84
550.366	1512.07
550.57	1502.96
550.774	1519.24
550.978	1535.32
551.182	1544.04
551.386	1502.57
551.59	1508.39
551.794	1503.35
551.998	1530.86
552.202	1504.12
552.406	1476.42
552.61	1557.02
552.814	1532.61
553.018	1578.91
553.222	1522.34
553.426	1534.93
553.63	1626.38
553.833	1531.25
554.037	1505.29
554.241	1566.9
554.445	1558.57
554.649	1531.25
554.853	1489.4
555.056	1565.74
555.26	1611.46
555.464	1542.49
555.668	1578.14
555.871	1570.39
556.075	1584.53
556.279	1518.85
556.483	1468.86
556.686	1521.95
556.89	1514.39
557.094	1536.87
557.297	1487.27
557.501	1505.48
557.704	1451.62
557.908	1530.47
558.112	1492.69
558.315	1560.31
558.519	1497.34
558.722	1462.47
558.926	1480.29
559.129	1401.83
559.333	1399.89
559.536	1419.46
559.74	1414.61
559.943	1431.28
560.147	1404.93
560.35	1451.43
560.553	1407.44
560.757	1373.93
560.96	1475.45
561.164	1397.76
561.367	1510.52
561.57	1434.18
561.774	1504.32
561.977	1424.69
562.18	1401.83
562.384	1515.56
562.587	1417.33
562.79	1384.58
562.993	1426.43
563.197	1439.41
563.4	1498.51
563.603	1514.78
563.806	1520.98
564.009	1407.64
564.212	1443.68
564.416	1404.54
564.619	1459.76
564.822	1356.88
565.025	1461.31
565.228	1414.23
565.431	1425.46
565.634	1328.2
565.837	1380.32
566.04	1321.42
566.243	1370.83
566.446	1260.58
566.649	1374.51
566.852	1287.13
567.055	1335.95
567.258	1396.98
567.461	1402.6
567.664	1396.4
567.867	1290.23
568.07	1310.76
568.273	1371.02
568.475	1373.73
568.678	1318.71
568.881	1322.58
569.084	1313.28
569.287	1216.22
569.489	1264.46
569.692	1311.35
569.895	1318.9
570.098	1272.6
570.3	1222.61
570.503	1195.48
570.706	1220.87
570.909	1219.32
571.111	1195.29
571.314	1143.75
571.516	1204.78
571.719	1241.79
571.922	1236.75
572.124	1223.58
572.327	1241.6
572.529	1174.37
572.732	1209.82
572.935	1243.53
573.137	1319.48
573.34	1223.19
573.542	1248.77
573.745	1256.71
573.947	1232.88
574.15	1191.42
574.352	1206.14
574.554	1253.42
574.757	1180.95
574.959	1179.6
575.162	1188.12
575.364	1169.52
575.566	1259.81
575.769	1143.75
575.971	1148.21
576.173	1083.31
576.376	1153.05
576.578	1206.72
576.78	1219.9
576.982	1103.46
577.185	1151.7
577.387	1106.17
577.589	1104.81
577.791	1159.06
577.993	1180.76
578.196	1143.75
578.398	1163.52
578.6	1176.3
578.802	1096.67
579.004	1094.16
579.206	1117.02
579.408	1177.27
579.61	1087.76
579.812	1174.17
580.014	1127.09
580.216	1099.77
580.418	1123.99
580.62	1133.1
580.822	1077.11
581.024	1144.53
581.226	1171.07
581.428	1110.43
581.63	1161.58
581.832	1107.14
582.034	1177.27
582.236	1101.91
582.438	1154.02
582.64	1173.01
582.841	1191.22
583.043	1231.52
583.245	1156.35
583.447	1185.22
583.649	1158.87
583.85	1141.04
584.052	1170.3
584.254	1142.79
584.456	1195.1
584.657	1093.77
584.859	1152.09
585.061	1131.55
585.262	1126.12
585.464	1092.61
585.666	1166.23
585.867	1125.93
586.069	1162.35
586.27	1116.24
586.472	1120.31
586.674	1111.2
586.875	1110.43
587.077	1097.26
587.278	1108.3
587.48	1109.65
587.681	1215.83
587.883	1127.67
588.084	1042.04
588.285	1103.26
588.487	1081.95
588.688	1099
588.89	1028.09
589.091	1002.51
589.292	1026.34
589.494	981.78
589.695	969.19
589.896	911.45
590.098	947.88
590.299	974.23
590.5	933.73
590.702	953.49
590.903	1007.16
591.104	1061.99
591.305	1029.83
591.507	1072.65
591.708	1014.53
591.909	1046.11
592.11	1076.33
592.311	1070.52
592.512	1010.65
592.714	978.1
592.915	998.83
593.116	1003.48
593.317	1020.92
593.518	991.86
593.719	1002.51
593.92	1040.49
594.121	1061.22
594.322	1021.89
594.523	1007.94
594.724	962.79
594.925	1009.49
595.126	992.44
595.327	1012.01
595.528	1006.19
595.729	997.28
595.929	994.96
596.13	1026.92
596.331	1042.23
596.532	1016.08
596.733	1065.67
596.934	1052.11
597.135	1039.71
597.335	1027.12
597.536	1016.08
597.737	1037
597.938	1015.88
598.138	1038.16
598.339	1017.24
598.54	1032.16
598.74	994.18
598.941	1023.63
599.142	1054.63
599.342	1034.87
599.543	1002.32
599.744	986.82
599.944	976.16
600.145	974.61
600.345	1032.54
600.546	1117.99
600.746	1053.86
600.947	1080.01
601.147	1015.49
601.348	1048.62
601.548	994.96
601.749	1023.82
601.949	1001.93
602.15	963.57
602.35	1012.39
602.551	1056.18
602.751	981.78
602.951	1006.19
603.152	934.7
603.352	992.83
603.552	1010.07
603.753	1025.57
603.953	1024.79
604.153	1013.94
604.354	989.73
604.554	996.7
604.754	977.52
604.954	988.37
605.155	1024.21
605.355	1003.29
605.555	1033.51
605.755	1029.64
605.955	980.04
606.155	1006.78
606.356	1007.55
606.556	1036.03
606.756	998.25
606.956	959.69
607.156	1062.77
607.356	932.96
607.556	992.83
607.756	983.91
607.956	1042.62
608.156	983.91
608.356	964.54
608.556	986.04
608.756	986.24
608.956	964.15
609.156	993.02
609.356	938.58
609.556	958.53
609.755	982.75
609.955	970.35
610.155	972.09
610.355	992.24
610.555	933.34
610.755	962.79
610.954	928.11
611.154	976.74
611.354	991.66
611.554	923.27
611.753	916.1
611.953	927.34
612.153	969.19
612.352	964.73
612.552	905.45
612.752	865.53
612.951	919.78
613.151	959.31
613.351	888.4
613.55	917.07
613.75	955.82
613.949	929.66
614.149	918.04
614.348	896.15
614.548	895.37
614.747	881.61
614.947	893.24
615.146	852.75
615.346	932.76
615.545	918.62
615.745	906.41
615.944	935.86
616.144	892.46
616.343	930.63
616.542	876.58
616.742	882.78
616.941	902.93
617.14	821.55
617.34	884.13
617.539	896.53
617.738	838.41
617.938	929.08
618.137	906.61
618.336	848.29
618.535	919.98
618.734	872.12
618.934	904.86
619.133	896.15
619.332	931.6
619.531	847.71
619.73	880.26
619.929	891.69
620.128	921.14
620.328	910.48
620.527	851.39
620.726	873.09
620.925	850.81
621.124	853.52
621.323	866.11
621.522	836.08
621.721	846.35
621.92	809.54
622.119	888.59
622.318	843.45
622.517	842.67
622.715	873.86
622.914	823.88
623.113	822.13
623.312	799.27
623.511	837.05
623.71	815.35
623.909	807.6
624.107	907.38
624.306	790.36
624.505	810.7
624.704	839.57
624.902	819.42
625.101	870.96
625.3	833.76
625.499	798.69
625.697	803.53
625.896	805.08
626.095	824.65
626.293	791.13
626.492	794.43
626.69	857.2
626.889	788.23
627.088	864.76
627.286	807.99
627.485	795.4
627.683	783.19
627.882	817.87
628.08	754.52
628.279	777.77
628.477	836.67
628.676	778.93
628.874	794.23
629.073	782.22
629.271	721.39
629.469	792.49
629.668	773.31
629.866	794.82
630.065	739.21
630.263	822.52
630.461	776.8
630.66	787.65
630.858	797.53
631.056	788.42
631.254	807.6
631.453	752.97
631.651	798.5
631.849	749.87
632.047	794.43
632.245	762.27
632.444	763.04
632.642	799.27
632.84	804.5
633.038	754.71
633.236	736.3
633.434	760.33
633.632	733.98
633.83	750.25
634.028	768.27
634.227	780.48
634.425	827.37
634.623	761.3
634.821	763.04
635.019	788.42
635.216	757.62
635.414	789.2
635.612	785.9
635.81	762.46
636.008	835.7
636.206	778.73
636.404	781.83
636.602	714.22
636.8	737.27
636.997	805.67
637.195	800.43
637.393	781.64
637.591	819.62
637.789	774.08
637.986	757.62
638.184	769.43
638.382	798.3
638.58	802.76
638.777	849.65
638.975	782.61
639.173	773.31
639.37	785.52
639.568	785.13
639.765	805.67
639.963	766.14
640.161	793.65
640.358	811.67
640.556	758.78
640.753	753.94
640.951	736.3
641.148	774.86
641.346	746.77
641.543	750.25
641.741	747.93
641.938	729.91
642.136	765.17
642.333	739.21
642.531	773.89
642.728	808.77
642.925	781.64
643.123	755.1
643.32	761.49
643.517	762.07
643.715	743.67
643.912	737.08
644.109	759.94
644.306	777.57
644.504	710.54
644.701	758.39
644.898	770.6
645.095	736.3
645.293	740.57
645.49	765.37
645.687	737.85
645.884	776.8
646.081	743.67
646.278	732.04
646.475	673.92
646.672	704.92
646.87	737.08
647.067	738.63
647.264	739.79
647.461	683.6
647.658	688.84
647.855	730.88
648.052	685.15
648.249	631.1
648.446	662.68
648.642	674.3
648.839	662.68
649.036	661.71
649.233	622.19
649.43	644.47
649.627	625.67
649.824	674.3
650.021	661.32
650.217	656.48
650.414	664.81
650.611	686.51
650.808	658.81
651.004	688.06
651.201	689.22
651.398	738.05
651.595	648.54
651.791	660.16
651.988	700.27
652.185	645.05
652.381	667.14
652.578	631.87
652.775	638.85
652.971	686.12
653.168	686.32
653.364	689.42
653.561	632.46
653.757	631.1
653.954	665.2
654.15	637.88
654.347	712.28
654.543	667.33
654.74	609.21
654.936	624.9
655.133	654.35
655.329	635.75
655.525	638.85
655.722	674.3
655.918	620.64
656.115	640.4
656.311	557.67
656.507	575.3
656.704	538.88
656.9	541.39
657.096	553.21
657.292	558.25
657.489	628.97
657.685	603.39
657.881	586.73
658.077	581.69
658.273	605.72
658.47	664.04
658.666	628.58
658.862	648.73
659.058	611.34
659.254	663.46
659.45	617.73
659.646	614.63
659.842	611.72
660.038	674.3
660.234	585.76
660.43	616.37
660.626	679.15
660.822	664.42
661.018	628.77
661.214	648.92
661.41	588.47
661.606	631.49
661.802	684.19
661.998	616.96
662.194	579.37
662.39	645.44
662.586	640.01
662.781	631.29
662.977	649.7
663.173	660.55
663.369	634.97
663.564	639.62
663.76	661.32
663.956	610.76
664.152	647.96
664.347	584.21
664.543	651.06
664.739	600.49
664.934	563.48
665.13	580.73
665.326	635.36
665.521	644.66
665.717	586.15
665.912	563.68
666.108	514.08
666.304	601.46
666.499	587.12
666.695	530.74
666.89	594.48
667.086	633.81
667.281	617.92
667.477	668.69
667.672	604.56
667.867	601.65
668.063	574.53
668.258	549.92
668.454	606.49
668.649	672.56
668.844	615.21
669.04	606.88
669.235	599.91
669.43	569.68
669.626	545.08
669.821	574.33
670.016	532.68
670.211	572.2
670.407	535
670.602	568.13
670.797	577.82
670.992	604.36
671.187	552.44
671.382	628.19
671.578	574.53
671.773	572.39
671.968	528.61
672.163	574.53
672.358	624.12
672.553	553.99
672.748	545.27
672.943	639.24
673.138	570.07
673.333	612.5
673.528	567.36
673.723	599.91
673.918	565.81
674.113	523.38
674.308	652.22
674.503	598.16
674.698	602.62
674.892	566.58
675.087	612.69
675.282	582.66
675.477	539.46
675.672	579.56
675.867	550.5
676.061	523.57
676.256	542.75
676.451	559.8
676.646	567.36
676.84	525.12
677.035	490.25
677.23	539.26
677.424	561.93
677.619	614.63
677.814	610.37
678.008	597.39
678.203	507.29
678.397	513.49
678.592	553.6
678.787	602.23
678.981	528.99
679.176	567.16
679.37	535.97
679.565	536.36
679.759	525.31
679.954	560.38
680.148	578.01
680.342	621.02
680.537	575.3
680.731	549.73
680.926	566.39
681.12	579.37
681.314	558.44
681.509	523.57
681.703	543.91
681.897	583.44
682.092	537.13
682.286	527.83
682.48	611.34
682.674	595.84
682.869	552.83
683.063	543.14
683.257	633.42
683.451	540.81
683.645	564.84
683.839	515.24
684.034	516.4
684.228	582.28
684.422	507.29
684.616	526.48
684.81	574.33
685.004	545.08
685.198	546.63
685.392	594.87
685.586	526.28
685.78	556.12
685.974	547.21
686.168	569.68
686.362	602.81
686.556	474.36
686.75	492.76
686.944	493.73
687.138	500.71
687.331	404.8
687.525	426.89
687.719	350.55
687.913	441.23
688.107	440.84
688.301	393.18
688.494	442
688.688	437.16
688.882	359.47
689.076	408.87
689.269	405
689.463	523.38
689.657	421.85
689.85	433.28
690.044	471.26
690.238	432.31
690.431	432.31
690.625	477.85
690.818	447.04
691.012	471.26
691.205	495.67
691.399	419.14
691.593	470.29
691.786	550.31
691.98	547.21
692.173	571.04
692.366	553.21
692.56	543.91
692.753	576.08
692.947	499.54
693.14	588.47
693.333	575.49
693.527	504
693.72	529.58
693.914	542.56
694.107	517.56
694.3	535.19
694.493	538.1
694.687	567.36
694.88	546.63
695.073	586.92
695.266	565.03
695.46	550.11
695.653	582.28
695.846	622.77
696.039	549.34
696.232	556.89
696.425	590.8
696.618	618.51
696.812	588.28
697.005	666.36
697.198	720.8
697.391	657.06
697.584	671.59
697.777	690.97
697.97	662.49
698.163	705.89
698.356	683.02
698.549	753.35
698.742	731.65
698.935	680.5
699.127	756.45
699.32	676.82
699.513	656.67
699.706	729.52
699.899	734.56
700.092	689.22
700.285	729.91
700.477	664.62
700.67	726.23
700.863	747.93
701.056	833.37
701.248	767.5
701.441	769.82
701.634	782.03
701.826	885.88
702.019	738.05
702.212	815.55
702.404	752.97
702.597	749.48
702.79	776.99
702.982	806.83
703.175	824.27
703.367	846.93
703.56	864.95
703.752	925.4
703.945	887.04
704.137	927.15
704.33	915.13
704.522	932.57
704.715	930.44
704.907	943.23
705.1	962.21
705.292	964.54
705.484	953.3
705.677	968.8
705.869	966.86
706.061	993.6
706.254	1012.78
706.446	995.15
706.638	1033.32
706.831	1071.1
707.023	1007.16
707.215	1117.79
707.407	1101.13
707.599	1085.05
707.792	1118.18
707.984	1113.14
708.176	1129.61
708.368	1107.14
708.56	1121.09
708.752	1147.44
708.944	1121.09
709.136	1138.52
709.329	1151.7
709.521	1231.72
709.713	1191.8
709.905	1210.4
710.097	1255.74
710.289	1212.34
710.481	1219.51
710.672	1217.38
710.864	1216.8
711.056	1318.71
711.248	1306.89
711.44	1279.77
711.632	1276.08
711.824	1304.95
712.016	1370.05
712.207	1392.53
712.399	1347.58
712.591	1431.86
712.783	1364.43
712.975	1422.36
713.166	1351.45
713.358	1392.14
713.55	1463.44
713.741	1432.24
713.933	1436.12
714.125	1431.86
714.316	1418.1
714.508	1495.99
714.7	1508.19
714.891	1446.78
715.083	1522.53
715.274	1505.29
715.466	1508.39
715.657	1536.09
715.849	1445.23
716.04	1542.87
716.232	1442.9
716.423	1505.09
716.615	1440.19
716.806	1433.02
716.998	1405.89
717.189	1339.83
717.381	1301.66
717.572	1270.27
717.763	1312.7
717.955	1292.36
718.146	1288.48
718.337	1241.98
718.528	1230.36
718.72	1180.37
718.911	1235.59
719.102	1188.7
719.293	1281.12
719.485	1215.63
719.676	1220.09
719.867	1210.79
720.058	1200.72
720.249	1180.18
720.44	1232.68
720.632	1269.5
720.823	1282.86
721.014	1416.36
721.205	1420.04
721.396	1501.8
721.587	1539.39
721.778	1563.02
721.969	1570
722.16	1633.93
722.351	1650.6
722.542	1762
722.733	1803.27
722.924	1681.98
723.115	1711.63
723.305	1722.86
723.496	1685.47
723.687	1620.18
723.878	1607.97
724.069	1639.94
724.26	1673.65
724.45	1620.76
724.641	1601.97
724.832	1623.67
725.023	1644.4
725.213	1611.07
725.404	1606.62
725.595	1629.29
725.785	1611.27
725.976	1643.23
726.167	1647.5
726.357	1683.15
726.548	1733.13
726.739	1662.42
726.929	1760.26
727.12	1793.97
727.31	1789.71
727.501	1793
727.691	1783.12
727.882	1766.85
728.072	1810.83
728.263	1833.69
728.453	1863.33
728.644	1863.33
728.834	1874.96
729.024	1803.66
729.215	1858.29
729.405	1856.55
729.596	1912.54
729.786	1926.88
729.976	1958.07
730.167	1952.65
730.357	1906.34
730.547	1926.3
730.737	1985.39
730.928	2027.05
731.118	2040.03
731.308	2024.53
731.498	1979.39
731.688	2097.57
731.879	2096.6
732.069	2140
732.259	2184.56
732.449	2171.97
732.639	2241.91
732.829	2273.49
733.019	2307.21
733.209	2379.09
733.399	2338.79
733.589	2423.84
733.779	2472.47
733.969	2441.86
734.159	2511.22
734.349	2522.27
734.539	2579.03
734.729	2611.97
734.919	2635.41
735.109	2641.23
735.299	2571.87
735.488	2653.43
735.678	2632.9
735.868	2643.55
736.058	2644.91
736.248	2649.36
736.437	2592.79
736.627	2569.15
736.817	2711.94
737.007	2665.64
737.196	2735.97
737.386	2680.17
737.576	2685.79
737.765	2756.51
737.955	2710.39
738.144	2828.58
738.334	2772.59
738.524	2742.36
738.713	2766.19
738.903	2765.03
739.092	2828.58
739.282	2815.21
739.471	2804.36
739.661	2766.39
739.85	2846.21
740.04	2850.28
740.229	2892.13
740.419	2907.44
740.608	2924.29
740.797	2896.59
740.987	2961.3
741.176	2970.79
741.365	2958.58
741.555	2907.24
741.744	2971.95
741.933	2960.72
742.123	2963.43
742.312	3021.75
742.501	3013.61
742.69	3047.71
742.88	2991.72
743.069	3118.23
743.258	3045
743.447	3114.36
743.636	3096.15
743.825	3024.85
744.014	3093.63
744.204	3108.93
744.393	3014
744.582	3116.1
744.771	3128.89
744.96	3071.73
745.149	3159.5
745.338	3080.06
745.527	3169.96
745.716	3135.67
745.905	3108.35
746.094	3181.78
746.283	3140.13
746.471	3162.41
746.66	3194.96
746.849	3218.98
747.038	3240.68
747.227	3129.66
747.416	3173.06
747.604	3163.57
747.793	3190.89
747.982	3210.26
748.171	3198.83
748.359	3206.77
748.548	3171.13
748.737	3205.22
748.926	3170.54
749.114	3112.61
749.303	3160.28
749.491	3166.48
749.68	3111.26
749.869	3223.63
750.057	3162.6
750.246	3116.3
750.434	3142.64
750.623	3137.22
750.811	3102.93
751	3193.79
751.188	3145.16
751.377	3155.43
751.565	3140.32
751.754	3097.11
751.942	3118.04
752.131	3192.44
752.319	3075.8
752.507	3060.69
752.696	3141.29
752.884	3196.89
753.072	3088.78
753.261	3132.76
753.449	3117.65
753.637	3099.63
753.825	3205.81
754.014	3126.37
754.202	3115.33
754.39	3195.93
754.578	3157.56
754.766	3115.91
754.955	3120.56
755.143	3195.15
755.331	3126.37
755.519	3092.66
755.707	3106.41
755.895	3070.76
756.083	3100.8
756.271	3045.77
756.459	3090.14
756.647	3138.19
756.835	3064.18
757.023	3065.15
757.211	3032.6
757.399	3038.21
757.587	3061.27
757.775	3018.45
757.963	3048.48
758.151	2989.97
758.339	3012.06
758.526	3021.36
758.714	2990.36
758.902	2903.56
759.09	2878.37
759.278	2682.88
759.465	2447.67
759.653	2122.57
759.841	1935.79
760.028	1651.18
760.216	1429.73
760.404	1355.91
760.591	1111.98
760.779	969.19
760.967	829.3
761.154	680.5
761.342	711.12
761.529	720.22
761.717	772.53
761.905	744.44
762.092	818.07
762.28	770.98
762.467	787.84
762.655	716.74
762.842	700.46
763.029	747.74
763.217	744.25
763.404	720.03
763.592	770.4
763.779	750.64
763.966	759.36
764.154	788.62
764.341	869.41
764.528	857.2
764.716	926.18
764.903	1006.39
765.09	1032.16
765.277	1082.72
765.465	1211.57
765.652	1278.8
765.839	1327.23
766.026	1458.79
766.213	1514.01
766.4	1585.89
766.588	1754.45
766.775	1776.73
766.962	1881.54
767.149	1915.45
767.336	2076.84
767.523	2001.09
767.71	2170.03
767.897	2275.82
768.084	2331.62
768.271	2372.5
768.458	2402.14
768.645	2500.95
768.832	2443.41
769.019	2471.5
769.206	2544.35
769.392	2558.11
769.579	2666.41
769.766	2612.94
769.953	2612.36
770.14	2679.01
770.327	2637.55
770.513	2678.43
770.7	2776.66
770.887	2690.24
771.073	2755.34
771.26	2722.99
771.447	2651.3
771.634	2648.2
771.82	2721.63
772.007	2698.19
772.193	2717.37
772.38	2768.71
772.567	2721.24
772.753	2720.86
772.94	2778.59
773.126	2792.54
773.313	2790.99
773.499	2730.93
773.686	2782.86
773.872	2703.03
774.059	2800.29
774.245	2688.89
774.432	2724.54
774.618	2625.34
774.804	2706.13
774.991	2684.82
775.177	2717.18
775.363	2732.29
775.55	2747.4
775.736	2648.98
775.922	2679.59
776.109	2659.63
776.295	2657.5
776.481	2688.5
776.667	2685.4
776.853	2675.91
777.04	2660.6
777.226	2692.57
777.412	2720.47
777.598	2637.55
777.784	2650.72
777.97	2622.43
778.156	2673.2
778.342	2617.59
778.528	2635.03
778.715	2565.67
778.901	2594.73
779.087	2626.89
779.272	2536.02
779.458	2566.83
779.644	2605.58
779.83	2594.15
780.016	2644.52
780.202	2600.15
780.388	2570.9
780.574	2482.55
780.76	2520.33
780.946	2597.05
781.131	2595.7
781.317	2509.48
781.503	2525.95
781.689	2512.97
781.874	2615.46
782.06	2520.91
782.246	2506.18
782.432	2478.09
782.617	2522.27
782.803	2565.67
782.989	2453.87
783.174	2488.36
783.36	2406.79
783.545	2486.81
783.731	2465.11
783.916	2367.07
784.102	2496.69
784.288	2445.74
784.473	2474.41
784.659	2433.72
784.844	2465.11
785.029	2412.61
785.215	2411.25
785.4	2369.01
785.586	2452.9
785.771	2356.03
785.956	2385.87
786.142	2351.96
786.327	2396.33
786.512	2370.37
786.698	2336.66
786.883	2328.52
787.068	2330.84
787.254	2333.94
787.439	2295.78
787.624	2305.08
787.809	2269.43
787.994	2323.48
788.18	2386.26
788.365	2225.25
788.55	2257.03
788.735	2251.41
788.92	2252.76
789.105	2205.3
789.29	2248.11
789.475	2217.89
789.66	2217.89
789.845	2194.45
790.03	2236.68
790.215	2259.16
790.4	2260.13
790.585	2246.18
790.77	2194.06
790.955	2174.1
791.14	2175.26
791.325	2293.06
791.51	2125.86
791.695	2211.88
791.879	2151.82
792.064	2128.57
792.249	2274.27
792.434	2167.13
792.618	2170.42
792.803	2184.18
792.988	2188.05
793.173	2183.6
793.357	2225.83
793.542	2124.89
793.727	2182.05
793.911	2213.43
794.096	2202.58
794.281	2233.58
794.465	2274.66
794.65	2223.12
794.834	2229.51
795.019	2252.38
795.203	2247.34
795.388	2268.07
795.572	2240.17
795.757	2224.67
795.941	2226.22
796.126	2236.88
796.31	2164.8
796.494	2200.26
796.679	2179.53
796.863	2165
797.048	2272.53
797.232	2205.1
797.416	2200.65
797.601	2206.65
797.785	2261.29
797.969	2266.71
798.153	2211.88
798.338	2238.43
798.522	2229.51
798.706	2308.95
798.89	2262.26
799.074	2320.38
799.258	2302.17
799.443	2261.09
799.627	2222.73
799.811	2272.33
799.995	2251.6
800.179	2197.93
800.363	2230.48
800.547	2236.49
800.731	2258.96
800.915	2182.43
801.099	2193.28
801.283	2214.01
801.467	2211.69
801.651	2216.34
801.835	2274.46
802.019	2237.46
802.202	2221.96
802.386	2211.3
802.57	2181.85
802.754	2211.11
802.938	2150.66
803.121	2225.06
803.305	2265.74
803.489	2228.74
803.673	2219.05
803.856	2210.91
804.04	2206.85
804.224	2229.9
804.407	2193.48
804.591	2165.19
804.775	2244.82
804.958	2214.4
805.142	2297.13
805.326	2203.55
805.509	2232.03
805.693	2283.18
805.876	2276.79
806.06	2220.02
806.243	2256.06
806.427	2279.11
806.61	2286.67
806.794	2219.44
806.977	2292.87
807.16	2245.98
807.344	2261.68
807.527	2277.76
807.71	2220.8
807.894	2223.9
808.077	2288.61
808.26	2165.19
808.444	2192.31
808.627	2273.11
808.81	2175.85
808.993	2167.51
809.177	2113.07
809.36	2149.88
809.543	2171.97
809.726	2109.39
809.909	2102.8
810.092	2108.62
810.276	2091.57
810.459	2088.47
810.642	2059.02
810.825	2064.25
811.008	2048.75
811.191	1955.94
811.374	1944.71
811.557	1981.13
811.74	2044.68
811.923	1941.02
812.106	1951.29
812.289	1922.04
812.472	1941.41
812.654	1950.13
812.837	1865.46
813.02	1854.81
813.203	1855.58
813.386	1763.36
813.569	1700
813.751	1701.94
813.934	1718.6
814.117	1718.99
814.3	1643.23
814.482	1614.56
814.665	1597.9
814.848	1567.87
815.03	1507.03
815.213	1532.8
815.396	1541.91
815.578	1510.13
815.761	1464.21
815.943	1472.93
816.126	1434.38
816.309	1399.69
816.491	1354.94
816.674	1291.39
816.856	1364.63
817.039	1374.89
817.221	1437.86
817.403	1365.98
817.586	1394.66
817.768	1419.07
817.951	1295.46
818.133	1309.21
818.315	1342.73
818.498	1388.07
818.68	1436.12
818.862	1417.13
819.045	1436.89
819.227	1415.39
819.409	1341.38
819.591	1400.66
819.774	1394.46
819.956	1346.8
820.138	1423.72
820.32	1408.99
820.502	1469.83
820.684	1555.27
820.866	1529.12
821.048	1569.03
821.231	1617.27
821.413	1586.08
821.595	1567.67
821.777	1562.05
821.959	1559.54
822.141	1601.58
822.323	1514.97
822.505	1419.65
822.686	1393.11
822.868	1323.16
823.05	1231.33
823.232	1231.52
823.414	1138.91
823.596	1241.21
823.778	1238.69
823.96	1225.9
824.141	1294.68
824.323	1281.9
824.505	1347.77
824.687	1382.64
824.868	1403.38
825.05	1485.52
825.232	1520.79
825.413	1607.59
825.595	1528.34
825.777	1456.66
825.958	1533.77
826.14	1524.47
826.321	1558.18
826.503	1547.14
826.685	1551.4
826.866	1578.52
827.048	1515.36
827.229	1497.54
827.411	1477.58
827.592	1423.72
827.773	1453.17
827.955	1399.69
828.136	1386.33
828.318	1407.44
828.499	1387.68
828.68	1330.91
828.862	1360.95
829.043	1412.48
829.224	1342.73
829.406	1311.54
829.587	1356.3
829.768	1390.01
829.949	1396.21
830.131	1391.36
830.312	1421.59
830.493	1369.86
830.674	1379.93
830.855	1345.45
831.036	1394.46
831.218	1401.05
831.399	1453.56
831.58	1361.72
831.761	1401.63
831.942	1408.41
832.123	1376.83
832.304	1334.01
832.485	1350.29
832.666	1371.21
832.847	1408.41
833.028	1378.19
833.209	1405.89
833.389	1358.62
833.57	1261.17
833.751	1364.63
833.932	1359.78
834.113	1356.68
834.294	1333.82
834.475	1409.96
834.655	1402.79
834.836	1410.93
835.017	1386.52
835.198	1356.3
835.378	1373.54
835.559	1451.62
835.74	1414.42
835.92	1374.89
836.101	1386.71
836.281	1427.59
836.462	1411.51
836.643	1442.71
836.823	1493.27
837.004	1442.13
837.184	1497.34
837.365	1428.76
837.545	1428.95
837.726	1407.83
837.906	1482.42
838.087	1433.02
838.267	1408.61
838.448	1379.54
838.628	1444.84
838.808	1456.85
838.989	1491.14
839.169	1361.53
839.349	1436.89
839.53	1457.24
839.71	1463.82
839.89	1409.77
840.07	1472.54
840.251	1387.88
840.431	1466.73
840.611	1436.51
840.791	1410.16
840.971	1461.89
841.151	1400.28
841.332	1388.84
841.512	1465.76
841.692	1363.08
841.872	1419.46
842.052	1437.67
842.232	1418.88
842.412	1377.22
842.592	1387.29
842.772	1442.32
842.952	1437.86
843.132	1395.24
843.312	1386.52
843.492	1379.93
843.672	1437.09
843.851	1329.75
844.031	1405.12
844.211	1362.69
844.391	1371.99
844.571	1402.6
844.751	1384.97
844.93	1427.21
845.11	1384.97
845.29	1410.74
845.47	1430.89
845.649	1386.33
845.829	1413.84
846.009	1370.63
846.188	1426.24
846.368	1387.1
846.547	1382.84
846.727	1411.71
846.907	1333.05
847.086	1378.38
847.266	1410.74
847.445	1388.07
847.625	1342.54
847.804	1345.83
847.984	1371.99
848.163	1378.96
848.343	1375.09
848.522	1367.92
848.701	1358.62
848.881	1340.02
849.06	1331.88
849.239	1366.76
849.419	1339.63
849.598	1278.02
849.777	1313.09
849.957	1285
850.136	1220.48
850.315	1263.1
850.494	1223.38
850.674	1238.11
850.853	1291.97
851.032	1272.98
851.211	1318.32
851.39	1268.92
851.569	1227.65
851.748	1209.43
851.927	1320.65
852.107	1269.3
852.286	1224.16
852.465	1226.1
852.644	1282.67
852.823	1267.17
853.002	1242.57
853.181	1278.22
853.359	1255.35
853.538	1189.48
853.717	1255.55
853.896	1172.04
854.075	1123.02
854.254	1074.01
854.433	1029.06
854.611	1086.21
854.79	1038.55
854.969	1097.26
855.148	1160.42
855.327	1081.95
855.505	1114.69
855.684	1121.28
855.863	1150.54
856.041	1126.51
856.22	1156.15
856.399	1108.1
856.577	1244.7
856.756	1199.55
856.934	1297.01
857.113	1292.36
857.291	1210.6
857.47	1201.49
857.648	1231.13
857.827	1213.89
858.005	1256.32
858.184	1182.7
858.362	1283.64
858.541	1192.58
858.719	1169.52
858.898	1179.79
859.076	1198.2
859.254	1249.93
859.433	1182.89
859.611	1163.9
859.789	1103.07
859.967	1228.42
860.146	1231.72
860.324	1146.27
860.502	1181.73
860.68	1128.64
860.859	1136.97
861.037	1161.58
861.215	1167.59
861.393	1161.77
861.571	1152.67
861.749	1138.14
861.927	1171.46
862.105	1141.43
862.283	1139.88
862.461	1096.67
862.639	1119.73
862.817	1176.69
862.995	1116.82
863.173	1093.57
863.351	1154.6
863.529	1161.77
863.707	1148.02
863.885	1186.19
864.063	1071.29
864.241	1088.54
864.418	1195.1
864.596	1103.84
864.774	1048.82
864.952	1111.98
865.129	1133.87
865.307	1072.84
865.485	1030.22
865.663	1125.54
865.84	1029.44
866.018	1070.91
866.196	929.28
866.373	1011.62
866.551	937.22
866.728	903.51
866.906	948.46
867.084	993.6
867.261	1003.48
867.439	1017.04
867.616	1014.14
867.794	1001.74
867.971	993.21
868.149	1019.18
868.326	1098.81
868.503	1028.67
868.681	1013.75
868.858	1014.53
869.035	978.1
869.213	1033.71
869.39	1013.17
869.567	1070.71
869.745	999.61
869.922	1027.89
870.099	1064.51
870.276	1072.46
870.454	1076.33
870.631	1064.51
870.808	1002.32
870.985	1064.51
871.162	1065.87
871.339	1022.47
871.517	1018.59
871.694	977.71
871.871	1028.09
872.048	991.86
872.225	996.31
872.402	1018.01
872.579	949.23
872.756	980.04
872.933	954.08
873.11	979.26
873.287	1022.27
873.463	972.48
873.64	955.43
873.817	998.06
873.994	1004.26
874.171	951.94
874.348	984.11
874.524	932.57
874.701	965.12
874.878	900.99
875.055	968.8
875.231	929.86
875.408	950.98
875.585	915.33
875.762	957.95
875.938	954.27
876.115	912.42
876.291	922.88
876.468	951.17
876.645	911.26
876.821	918.62
876.998	908.35
877.174	911.26
877.351	914.16
877.527	918.43
877.704	909.51
877.88	945.74
878.057	905.83
878.233	971.71
878.409	885.68
878.586	927.53
878.762	916.49
878.938	939.35
879.115	846.93
879.291	926.37
879.467	842.67
879.644	869.6
879.82	923.46
879.996	848.68
880.172	821.17
880.349	853.13
880.525	907
880.701	854.3
880.877	851.39
881.053	859.33
881.229	845.58
881.405	879.87
881.581	820.39
881.757	843.25
881.933	878.9
882.109	892.46
882.285	847.32
882.461	844.61
882.637	868.44
882.813	837.83
882.989	827.56
883.165	937.41
883.341	838.6
883.517	871.54
883.693	874.25
883.869	878.51
884.044	832.98
884.22	875.41
884.396	942.84
884.572	900.21
884.747	886.65
884.923	903.12
885.099	844.42
885.275	880.06
885.45	846.35
885.626	848.1
885.801	811.09
885.977	824.46
886.153	811.87
886.328	883.16
886.504	851.58
886.679	889.36
886.855	808.57
887.03	896.15
887.206	878.71
887.381	859.53
887.557	883.36
887.732	891.11
887.908	893.24
888.083	876.38
888.258	857.78
888.434	870.38
888.609	856.62
888.784	908.35
888.96	822.91
889.135	815.16
889.31	843.25
889.485	868.44
889.661	835.31
889.836	861.46
890.011	904.09
890.186	842.28
890.361	825.62
890.537	876
890.712	853.71
890.887	858.17
891.062	875.8
891.237	891.3
891.412	838.02
891.587	846.93
891.762	862.05
891.937	889.95
892.112	794.23
892.287	816.32
892.462	800.05
892.637	783.97
892.812	771.18
892.987	779.9
893.161	753.16
893.336	784.35
893.511	752.77
893.686	769.82
893.861	759.75
894.035	770.98
894.21	761.49
894.385	737.08
894.56	773.12
894.734	715.57
894.909	705.69
895.084	741.54
895.258	705.11
895.433	706.47
895.608	689.42
895.782	633.42
895.957	666.75
896.131	662.1
896.306	612.5
896.48	633.23
896.655	594.09
896.829	543.91
897.004	567.36
897.178	567.94
897.353	553.99
897.527	629.16
897.701	554.18
897.876	542.75
898.05	579.37
898.224	587.89
898.399	646.41
898.573	565.42
898.747	476.49
898.921	516.59
899.096	463.31
899.27	446.65
899.444	460.8
899.618	494.31
899.792	514.66
899.967	509.62
900.141	517.56
900.315	456.92
900.489	507.68
900.663	517.95
900.837	490.05
901.011	446.85
901.185	547.01
901.359	511.17
901.533	519.31
901.707	491.21
901.881	524.73
902.055	475.71
902.229	517.76
902.403	552.05
902.576	483.66
902.75	531.13
902.924	608.04
903.098	536.55
903.272	602.81
903.446	619.09
903.619	616.96
903.793	630.32
903.967	600.87
904.14	648.92
904.314	669.85
904.488	612.11
904.661	646.41
904.835	621.8
905.009	660.55
905.182	697.17
905.356	657.84
905.529	652.02
905.703	595.84
905.876	574.33
906.05	563.09
906.223	558.06
906.397	520.08
906.57	532.09
906.744	492.96
906.917	496.83
907.09	522.99
907.264	529.77
907.437	479.01
907.61	433.48
907.784	462.93
907.957	472.42
908.13	445.49
908.304	502.06
908.477	427.86
908.65	459.05
908.823	401.7
908.996	523.38
909.17	450.91
909.343	418.75
909.516	473.97
909.689	439.87
909.862	431.73
910.035	449.17
910.208	378.07
910.381	416.81
910.554	513.69
910.727	441.23
910.9	410.81
911.073	405.97
911.246	474.55
911.419	513.69
911.592	503.81
911.765	428.05
911.938	431.15
912.11	418.75
912.283	432.7
912.456	474.94
912.629	433.09
912.802	395.31
912.974	403.64
913.147	353.27
913.32	302.31
913.493	360.05
913.665	400.35
913.838	375.35
914.01	369.73
914.183	395.7
914.356	377.48
914.528	428.83
914.701	469.71
914.873	428.83
915.046	378.84
915.218	338.35
915.391	304.64
915.563	319.17
915.736	388.14
915.908	392.98
916.081	397.83
916.253	379.62
916.425	367.99
916.598	423.98
916.77	386.2
916.942	360.63
917.115	311.8
917.287	389.11
917.459	351.91
917.632	299.99
917.804	297.85
917.976	347.84
918.148	360.05
918.32	366.25
918.493	386.59
918.665	421.27
918.837	383.49
919.009	460.6
919.181	416.23
919.353	416.81
919.525	396.08
919.697	384.65
919.869	393.57
920.041	442
920.213	499.54
920.385	427.86
920.557	376.52
920.729	406.35
920.901	430.18
921.073	397.63
921.244	399.57
921.416	432.9
921.588	437.93
921.76	400.35
921.932	452.46
922.103	395.31
922.275	393.18
922.447	405.97
922.619	334.86
922.79	362.57
922.962	358.69
923.134	416.81
923.305	335.63
923.477	327.5
923.648	348.23
923.82	368.18
923.991	328.27
924.163	304.64
924.335	330.79
924.506	314.71
924.677	390.08
924.849	315.49
925.02	350.75
925.192	361.4
925.363	355.98
925.535	337.77
925.706	327.88
925.877	390.08
926.049	334.47
926.22	308.32
926.391	391.63
926.562	359.08
926.734	312.19
926.905	357.33
927.076	295.72
927.247	303.09
927.419	297.08
927.59	277.32
927.761	290.1
927.932	270.15
928.103	308.12
928.274	259.49
928.445	237.21
928.616	230.24
928.787	245.15
928.958	288.17
929.129	248.45
929.3	238.76
929.471	189.16
929.642	178.51
929.813	140.73
929.984	211.64
930.155	129.29
930.326	205.05
930.496	166.88
930.667	103.53
930.838	169.01
931.009	108.18
931.18	119.8
931.35	142.28
931.521	119.8
931.692	92.29
931.863	80.66
932.033	107.21
932.204	93.64
932.374	100.23
932.545	32.81
932.716	123.68
932.886	126.97
933.057	41.14
933.227	29.51
933.398	120.96
933.568	32.03
933.739	14.21
933.909	52.18
934.08	100.62
934.25	-12.34
934.421	24.86
934.591	64.97
934.761	30.68
934.932	-7.88
935.102	23.9
935.272	27
935.443	51.41
935.613	43.66
935.783	53.15
935.953	19.05
936.123	179.86
936.294	20.02
936.464	15.56
936.634	21.57
936.804	12.85
936.974	-5.94
937.144	62.06
937.314	17.5
937.484	40.75
937.655	19.05
937.825	63.03
937.995	23.31
938.165	73.69
938.334	45.6
938.504	59.93
938.674	35.33
938.844	32.03
939.014	89.58
939.184	108.76
939.354	139.37
939.524	119.41
939.694	53.54
939.863	76.01
940.033	136.08
940.203	120.77
940.373	104.69
940.542	107.01
940.712	56.64
940.882	112.44
941.051	119.99
941.221	99.26
941.391	127.36
941.56	92.68
941.73	65.74
941.899	175.79
942.069	92.87
942.238	114.76
942.408	88.99
942.577	111.86
942.747	73.3
942.916	38.04
943.086	63.42
943.255	104.49
943.425	63.61
943.594	53.15
943.763	-0.13
943.933	29.13
944.102	-24.15
944.271	63.42
944.441	84.54
944.61	47.15
944.779	81.05
944.948	147.12
945.117	27.19
945.287	55.48
945.456	-8.85
945.625	53.73
945.794	70.59
945.963	34.55
946.132	60.71
946.301	41.72
946.47	75.04
946.639	6.65
946.808	56.06
946.977	70.59
947.146	92.48
947.315	48.5
947.484	92.09
947.653	49.08
947.822	33
947.991	35.13
948.16	112.24
948.329	94.81
948.498	68.65
948.666	64.39
948.835	87.25
949.004	18.08
949.173	31.84
949.341	94.61
949.51	91.32
949.679	102.94
949.847	84.34
950.016	140.73
950.185	136.46
950.353	55.09
950.522	57.61
950.69	121.74
950.859	60.13
951.028	115.54
951.196	59.35
951.365	49.47
951.533	47.15
951.701	88.22
951.87	83.18
952.038	21.76
952.207	60.13
952.375	114.76
952.543	64
952.712	89.96
952.88	39.4
953.048	126.97
953.217	71.56
953.385	68.26
953.553	76.01
953.721	37.26
953.89	73.69
954.058	9.36
954.226	33.78
954.394	85.51
954.562	-3.62
954.73	44.24
954.898	41.72
955.067	93.06
955.235	45.01
955.403	107.79
955.571	123.09
955.739	61.29
955.907	26.8
956.075	14.79
956.243	51.41
956.41	84.34
956.578	10.14
956.746	41.14
956.914	47.34
957.082	113.99
957.25	115.15
957.418	48.5
957.585	92.48
957.753	121.93
957.921	32.81
958.089	73.69
958.256	72.53
958.424	81.63
958.592	66.91
958.759	36.88
958.927	96.36
959.095	53.54
959.262	62.45
959.43	71.94
959.597	29.71
959.765	53.54
959.932	32.61
960.1	103.91
960.267	63.81
960.435	63.23
960.602	91.9
960.77	20.8
960.937	27.38
961.104	80.08
961.272	7.04
961.439	39.59
961.606	49.66
961.774	76.01
961.941	67.88
962.108	66.91
962.275	78.34
962.443	127.36
962.61	73.49
962.777	148.09
962.944	102.17
963.111	90.93
963.278	107.01
963.446	93.64
963.613	69.43
963.78	77.18
963.947	84.93
964.114	91.71
964.281	149.83
964.448	87.44
964.615	67.88
964.782	90.74
964.949	99.65
965.116	113.21
965.282	125.61
965.449	64.19
965.616	51.8
965.783	126.78
965.95	83.96
966.117	35.71
966.283	82.41
966.45	103.33
966.617	101.39
966.784	127.74
966.95	109.92
967.117	95.58
967.284	40.75
967.45	64.58
967.617	148.86
967.784	145.38
967.95	181.41
968.117	77.18
968.283	134.91
968.45	158.55
968.616	122.9
968.783	139.37
968.949	104.49
969.116	135.69
969.282	76.79
969.449	111.47
969.615	115.34
969.781	62.45
969.948	73.69
970.114	35.52
970.28	158.55
970.447	111.86
970.613	163.78
970.779	95.97
970.945	112.44
971.112	104.88
971.278	119.41
971.444	88.99
971.61	131.43
971.776	92.87
971.942	109.92
972.108	118.44
972.275	77.76
972.441	113.6
972.607	159.71
972.773	77.37
972.939	118.64
973.105	128.13
973.271	58.58
973.437	71.56
973.602	66.33
973.768	107.98
973.934	70.78
974.1	100.81
974.266	13.05
974.432	124.45
974.598	77.18
974.763	125.03
974.929	82.6
975.095	141.11
975.261	76.01
975.426	47.34
975.592	93.26
975.758	128.33
975.923	21.57
976.089	62.06
976.255	84.15
976.42	99.46
976.586	105.66
976.751	111.66
976.917	167.85
977.082	105.85
977.248	44.63
977.413	27.58
977.579	56.83
977.744	103.33
977.91	82.79
978.075	82.6
978.24	122.32
978.406	88.99
978.571	86.67
978.736	44.43
978.902	84.54
979.067	46.37
979.232	41.91
979.397	68.84
979.563	142.28
979.728	40.75
979.893	66.91
980.058	68.46
980.223	111.66
980.388	75.04
980.554	88.8
980.719	55.09
980.884	81.24
981.049	88.22
981.214	62.84
981.379	152.74
981.544	55.86
981.709	86.86
981.874	86.28
982.039	73.11
982.204	109.73
982.368	87.83
982.533	51.99
982.698	115.34
982.863	127.55
983.028	85.31
983.193	84.15
983.357	89.38
983.522	99.07
983.687	66.33
983.852	71.94
984.016	74.27
984.181	88.8
984.346	110.69
984.51	96.74
984.675	84.93
984.839	114.96
985.004	85.7
985.168	112.05
985.333	85.12
985.498	69.43
985.662	116.7
985.827	99.84
985.991	87.83
986.155	78.73
986.32	110.5
986.484	106.24
986.649	100.23
986.813	26.03
986.977	93.84
987.142	77.18
987.306	51.41
987.47	68.07
987.634	68.46
987.799	105.66
987.963	91.32
988.127	97.13
988.291	140.92
988.455	63.81
988.62	84.15
988.784	94.42
988.948	109.92
989.112	52.18
989.276	73.88
989.44	97.13
989.604	65.55
989.768	55.28
989.932	145.76
990.096	33.39
990.26	70.2
990.424	45.6
990.588	76.59
990.752	138.79
990.915	105.46
991.079	43.85
991.243	56.25
991.407	107.21
991.571	44.82
991.734	114.18
991.898	123.09
992.062	183.54
992.226	64
992.389	80.86
992.553	12.66
992.717	38.81
992.88	64.58
993.044	67.29
993.207	62.06
993.371	116.51
993.535	74.08
993.698	51.8
993.862	93.45
994.025	97.71
994.189	82.6
994.352	64.58
994.515	87.25
994.679	97.71
994.842	51.41
995.006	109.34
995.169	50.83
995.332	46.95
995.496	89.77
995.659	8.4
995.822	79.11
995.985	76.98
996.149	108.37
996.312	45.21
996.475	128.52
996.638	59.93
996.801	130.84
996.964	115.73
997.128	76.79
997.291	55.09
997.454	80.66
997.617	6.85
997.78	120.19
997.943	74.85
998.106	99.84
998.269	38.23
998.432	71.17
998.595	52.96
998.758	35.52
998.92	32.23
999.083	4.71
999.246	47.34
999.409	-3.62
999.572	11.88
999.735	37.46
999.897	91.9
1000.06	45.98
1000.223	34.36
1000.386	78.92
1000.548	80.08
1000.711	67.1
1000.874	68.26
1001.036	12.85
1001.199	98.1
1001.361	43.66
1001.524	61.48
1001.687	92.09
1001.849	37.65
1002.012	57.03
1002.174	78.53
1002.337	97.13
1002.499	48.5
1002.661	91.9
1002.824	-11.95
1002.986	39.59
1003.149	76.01
1003.311	8.59
1003.473	117.09
1003.636	32.42
1003.798	68.07
1003.96	47.73
1004.123	34.36
1004.285	31.06
1004.447	41.53
1004.609	70.2
1004.771	124.26
1004.933	-20.86
1005.096	35.71
1005.258	-29
1005.42	38.04
1005.582	89.19
1005.744	83.18
1005.906	15.56
1006.068	47.53
1006.23	12.46
1006.392	-4.59
1006.554	19.63
1006.716	53.73
1006.878	71.94
1007.04	-0.9
1007.202	22.93
1007.363	55.86
1007.525	38.23
1007.687	51.8
1007.849	85.7
1008.011	-9.82
1008.172	4.71
1008.334	31.84
1008.496	58
1008.658	19.63
1008.819	16.34
1008.981	26.22
1009.143	15.76
1009.304	18.28
1009.466	59.93
1009.627	98.49
1009.789	121.35
1009.95	55.67
1010.112	28.93
1010.273	74.85
1010.435	14.79
1010.596	1.42
1010.758	29.13
1010.919	48.11
1011.081	8.4
1011.242	43.46
1011.403	50.63
1011.565	21.96
1011.726	57.8
1011.887	1.03
1012.049	35.91
1012.21	79.89
1012.371	91.71
1012.532	-38.49
1012.693	24.67
1012.855	38.23
1013.016	18.47
1013.177	74.85
1013.338	38.23
1013.499	88.22
1013.66	63.61
1013.821	57.22
1013.982	63.61
1014.143	12.66
1014.304	20.8
1014.465	66.52
1014.626	82.02
1014.787	28.55
1014.948	109.34
1015.109	-50.89
1015.27	99.84
1015.431	28.55
1015.592	0.65
1015.752	100.62
1015.913	46.76
1016.074	56.06
1016.235	7.43
1016.395	27.77
1016.556	32.81
1016.717	28.74
1016.877	41.33
1017.038	10.72
1017.199	38.62
1017.359	36.3
1017.52	17.89
1017.681	5.88
1017.841	42.88
1018.002	31.06
1018.162	13.82
1018.323	60.71
1018.483	28.35
1018.644	15.37
1018.804	-4.78
1018.964	-2.65
1019.125	4.91
1019.285	33.97
1019.446	11.88
1019.606	-18.73
1019.766	-16.6
1019.926	39.4
1020.087	70.39
1020.247	6.46
1020.407	64.19
1020.567	85.89
1020.728	25.25
1020.888	-16.4
1021.048	4.33
1021.208	-17.76
1021.368	1.03
1021.528	74.27
1021.688	57.41
1021.848	52.18
1022.008	25.06
1022.168	6.46
1022.328	44.05
1022.488	51.02
1022.648	5.68
1022.808	23.51
1022.968	40.75
1023.128	-14.08
1023.288	-3.04
1023.448	25.06
1023.608	46.76
1023.767	40.75
1023.927	2.2
1024.087	3.36
1024.247	-8.07
1024.406	3.36
1024.566	-20.47
1024.726	8.78
1024.885	14.6
1025.045	23.7
1025.205	21.96
1025.364	25.06
1025.524	46.37
1025.683	11.69
1025.843	20.02
1026.003	18.47
1026.162	90.93
1026.321	32.42
1026.481	24.48
1026.64	8.4
1026.8	29.13
1026.959	34.94
1027.119	59.93
1027.278	8.4
1027.437	24.67
1027.597	40.56
1027.756	26.61
1027.915	27.77
1028.074	30.29
1028.234	11.69
1028.393	28.16
1028.552	9.95
1028.711	-72.59
1028.87	59.16
1029.03	-33.26
1029.189	10.14
1029.348	-30.35
1029.507	4.91
1029.666	11.69
1029.825	-17.95
1029.984	-10.4
1030.143	17.7
1030.302	14.79
1030.461	-12.92
1030.62	1.42
1030.779	9.75
1030.938	9.36
1031.097	-9.04
1031.255	28.93
1031.414	57.61
1031.573	74.85
1031.732	-43.72
1031.891	4.91
1032.049	55.09
1032.208	26.41
1032.367	-0.13
1032.525	5.88
1032.684	-11.95
1032.843	24.67
1033.001	-41.78
1033.16	147.51
1033.319	52.18
1033.477	70.98
1033.636	-8.07
1033.794	-43.72
1033.953	43.08
1034.111	36.3
1034.27	-15.63
1034.428	19.05
1034.587	-16.4
1034.745	25.64
1034.903	38.81
1035.062	33.78
1035.22	-5.36
1035.378	33.97
1035.537	-8.27
1035.695	43.66
1035.853	33.58
1036.011	22.73
1036.17	21.57
1036.328	-33.84
1036.486	20.8
1036.644	30.29
1036.802	-63.29
1036.96	11.5
1037.119	-8.46
1037.277	-11.17
1037.435	-28.8
1037.593	-24.74
1037.751	-6.91
1037.909	35.91
1038.067	35.91
