Data from oakcork_FLMT105791__48__17-27-23-066.txt Node

Date: Mon Mar 20 17:27:23 GMT 2023
User: antho
Spectrometer: FLMT10579
Trigger mode: 0
Integration Time (sec): 1.000000E-1
Scans to average: 10
Electric dark correction enabled: true
Nonlinearity correction enabled: false
Boxcar width: 0
XAxis mode: Wavelengths
Number of Pixels in Spectrum: 3648
>>>>>Begin Spectral Data<<<<<
345.248	-141.37
345.464	-141.37
345.681	-141.37
345.898	-159.78
346.114	-137.69
346.331	-34.42
346.548	16.92
346.764	-20.09
346.981	4.91
347.197	-11.56
347.414	1.61
347.631	-15.44
347.847	49.66
348.064	6.65
348.28	24.48
348.497	-36.55
348.713	13.82
348.93	33.78
349.146	45.79
349.363	24.28
349.579	39.59
349.796	3.55
350.012	0.45
350.229	14.6
350.445	12.46
350.661	-6.14
350.878	12.27
351.094	26.03
351.311	33.78
351.527	14.6
351.743	23.12
351.96	48.31
352.176	65.94
352.392	41.33
352.609	34.55
352.825	-9.62
353.041	22.93
353.257	-6.72
353.474	37.07
353.69	23.31
353.906	37.07
354.122	-17.37
354.339	79.89
354.555	33.78
354.771	18.47
354.987	53.35
355.203	62.45
355.42	14.79
355.636	0.45
355.852	2.39
356.068	20.21
356.284	-18.54
356.5	90.54
356.716	14.98
356.932	29.71
357.148	29.9
357.364	-4.39
357.58	55.48
357.796	67.29
358.012	61.48
358.228	50.63
358.444	-39.07
358.66	41.14
358.876	33.58
359.092	21.38
359.308	44.43
359.524	46.76
359.74	13.05
359.956	17.5
360.172	27.77
360.388	52.57
360.604	14.01
360.819	78.34
361.035	31.45
361.251	50.25
361.467	2.97
361.683	44.43
361.898	24.67
362.114	36.88
362.33	53.35
362.546	37.46
362.762	22.15
362.977	47.15
363.193	-10.2
363.409	47.92
363.624	-22.41
363.84	0.45
364.056	24.67
364.271	25.25
364.487	39.78
364.703	23.12
364.918	-10.01
365.134	15.95
365.35	-3.04
365.565	123.09
365.781	25.45
365.996	41.72
366.212	75.43
366.427	50.25
366.643	33.39
366.858	27.38
367.074	14.4
367.289	75.24
367.505	119.8
367.72	-9.62
367.936	34.55
368.151	61.87
368.367	78.14
368.582	48.31
368.798	9.75
369.013	68.65
369.228	50.63
369.444	14.01
369.659	72.53
369.874	57.22
370.09	98.29
370.305	-27.25
370.52	33.97
370.736	75.43
370.951	53.93
371.166	77.18
371.381	81.24
371.597	67.49
371.812	30.87
372.027	-15.82
372.242	31.26
372.458	103.91
372.673	18.28
372.888	5.3
373.103	52.57
373.318	113.02
373.533	39.78
373.749	59.16
373.964	-1.49
374.179	81.05
374.394	-5.75
374.609	68.26
374.824	7.62
375.039	95.58
375.254	9.36
375.469	89.58
375.684	40.17
375.899	77.76
376.114	26.8
376.329	44.63
376.544	64.19
376.759	80.86
376.974	22.35
377.189	10.72
377.404	33.78
377.619	76.4
377.834	33.58
378.049	-25.32
378.264	-4.59
378.478	58.19
378.693	27.38
378.908	59.16
379.123	47.15
379.338	76.79
379.553	41.72
379.767	51.02
379.982	69.43
380.197	56.83
380.412	24.86
380.626	21.96
380.841	126.39
381.056	89.77
381.271	91.9
381.485	15.76
381.7	13.82
381.915	53.15
382.129	35.52
382.344	57.22
382.559	46.18
382.773	56.06
382.988	4.33
383.202	74.66
383.417	23.31
383.632	123.87
383.846	51.02
384.061	66.13
384.275	29.9
384.49	56.64
384.704	48.5
384.919	39.59
385.133	43.66
385.348	54.9
385.562	-9.04
385.777	67.68
385.991	38.23
386.206	63.03
386.42	42.3
386.634	95
386.849	64.39
387.063	50.83
387.277	19.05
387.492	38.43
387.706	20.41
387.92	25.06
388.135	92.09
388.349	54.51
388.563	33
388.778	45.98
388.992	65.36
389.206	80.08
389.42	132.78
389.635	62.06
389.849	84.34
390.063	109.92
390.277	73.49
390.491	81.44
390.706	63.23
390.92	67.88
391.134	78.53
391.348	95.19
391.562	1.42
391.776	52.76
391.99	26.03
392.205	88.8
392.419	14.98
392.633	37.07
392.847	108.76
393.061	25.64
393.275	95.19
393.489	19.05
393.703	55.09
393.917	80.86
394.131	45.79
394.345	79.31
394.559	85.31
394.773	64.78
394.986	102.56
395.2	42.88
395.414	87.06
395.628	39.01
395.842	71.17
396.056	77.76
396.27	6.46
396.484	74.27
396.697	78.92
396.911	103.72
397.125	77.37
397.339	99.07
397.553	71.94
397.766	113.02
397.98	84.93
398.194	114.57
398.408	65.94
398.621	91.9
398.835	103.53
399.049	106.04
399.262	113.02
399.476	115.15
399.69	116.31
399.903	144.02
400.117	83.57
400.331	127.94
400.544	45.79
400.758	166.3
400.971	107.4
401.185	119.03
401.398	58.58
401.612	172.89
401.826	137.24
402.039	109.34
402.253	90.35
402.466	103.53
402.68	88.99
402.893	120.19
403.106	121.16
403.32	91.13
403.533	149.44
403.747	89.77
403.96	120.77
404.174	129.49
404.387	59.93
404.6	138.4
404.814	142.08
405.027	101.2
405.24	117.67
405.454	109.92
405.667	123.68
405.88	52.76
406.094	131.04
406.307	113.21
406.52	130.26
406.733	82.99
406.947	67.49
407.16	186.06
407.373	135.11
407.586	100.04
407.799	96.74
408.012	147.12
408.226	142.08
408.439	154.29
408.652	74.27
408.865	133.94
409.078	182.96
409.291	152.93
409.504	92.87
409.717	146.34
409.93	125.81
410.143	107.01
410.357	60.9
410.57	62.64
410.783	94.81
410.996	151.19
411.209	95.78
411.421	186.45
411.634	109.73
411.847	107.01
412.06	143.24
412.273	133.75
412.486	127.74
412.699	201.56
412.912	129.29
413.125	128.91
413.338	107.4
413.55	136.08
413.763	121.35
413.976	120.96
414.189	119.41
414.402	118.06
414.615	169.4
414.827	87.06
415.04	149.06
415.253	170.56
415.466	160.68
415.678	194.97
415.891	146.73
416.104	147.89
416.316	132.98
416.529	115.15
416.742	170.37
416.954	163.2
417.167	126.58
417.38	138.98
417.592	147.51
417.805	97.33
418.017	83.76
418.23	164.17
418.442	113.41
418.655	138.79
418.868	116.7
419.08	187.03
419.293	191.87
419.505	159.52
419.718	172.89
419.93	141.89
420.142	130.26
420.355	214.93
420.567	186.26
420.78	152.35
420.992	120.96
421.205	210.67
421.417	111.66
421.629	155.84
421.842	132.39
422.054	120.19
422.266	187.42
422.479	181.99
422.691	128.13
422.903	181.02
423.115	128.13
423.328	134.53
423.54	180.06
423.752	171.34
423.964	127.16
424.177	157.19
424.389	167.66
424.601	270.92
424.813	150.22
425.025	190.52
425.238	200.59
425.45	161.65
425.662	173.86
425.874	458.86
426.086	163.59
426.298	187.22
426.51	189.16
426.722	143.44
426.934	141.31
427.146	215.12
427.358	143.63
427.57	199.04
427.782	153.51
427.994	181.22
428.206	148.67
428.418	137.43
428.63	186.06
428.842	195.36
429.054	183.16
429.266	191.87
429.478	138.79
429.69	173.66
429.902	114.96
430.114	165.72
430.325	150.02
430.537	153.71
430.749	160.1
430.961	96.74
431.173	144.6
431.384	154.29
431.596	97.91
431.808	152.74
432.02	192.46
432.231	217.84
432.443	212.02
432.655	177.54
432.867	139.56
433.078	202.53
433.29	256.39
433.502	210.67
433.713	203.89
433.925	215.51
434.136	227.14
434.348	174.63
434.56	130.46
434.771	269.95
434.983	117.48
435.194	176.37
435.406	190.13
435.617	206.79
435.829	272.28
436.04	213.96
436.252	238.37
436.463	244.96
436.675	230.43
436.886	216.87
437.098	226.36
437.309	266.47
437.521	203.89
437.732	235.47
437.943	230.43
438.155	221.13
438.366	161.46
438.578	279.25
438.789	231.21
439	231.21
439.211	217.26
439.423	240.5
439.634	215.32
439.845	259.49
440.057	230.62
440.268	252.52
440.479	223.07
440.69	262.98
440.902	235.47
441.113	236.63
441.324	195.56
441.535	243.99
441.746	277.51
441.957	203.11
442.168	218.81
442.38	254.07
442.591	256.2
442.802	223.84
443.013	198.85
443.224	259.3
443.435	259.69
443.646	256.97
443.857	241.09
444.068	213.57
444.279	223.65
444.49	321.3
444.701	243.22
444.912	351.13
445.123	281.77
445.334	287.78
445.545	287.2
445.756	255.42
445.967	242.64
446.178	277.51
446.388	291.65
446.599	261.04
446.81	293.4
447.021	266.08
447.232	300.76
447.443	298.44
447.653	247.87
447.864	317.42
448.075	278.87
448.286	302.31
448.496	285.26
448.707	326.72
448.918	240.7
449.129	373.22
449.339	262.59
449.55	305.41
449.761	281.39
449.971	332.15
450.182	247.29
450.393	312
450.603	283.13
450.814	315.49
451.024	313.74
451.235	369.15
451.446	345.32
451.656	335.25
451.867	284.29
452.077	332.53
452.288	353.85
452.498	352.3
452.709	311.03
452.919	323.43
453.13	292.24
453.34	305.22
453.55	254.65
453.761	330.6
453.971	316.84
454.182	341.45
454.392	316.26
454.602	369.93
454.813	328.27
455.023	335.25
455.233	256.39
455.444	308.51
455.654	225.39
455.864	320.91
456.075	297.27
456.285	306.38
456.495	319.36
456.705	329.43
456.916	383.3
457.126	365.28
457.336	320.72
457.546	284.29
457.756	291.85
457.967	343.77
458.177	304.83
458.387	346.1
458.597	293.4
458.807	306.57
459.017	298.05
459.227	318.59
459.437	307.35
459.647	366.25
459.857	343
460.068	321.68
460.278	352.49
460.488	313.35
460.698	408.1
460.908	336.41
461.117	292.24
461.327	321.68
461.537	338.54
461.747	335.44
461.957	342.42
462.167	411.78
462.377	373.42
462.587	358.69
462.797	386.01
463.007	351.13
463.216	381.75
463.426	374.19
463.636	380.2
463.846	299.21
464.056	325.56
464.265	390.27
464.475	306.19
464.685	342.61
464.895	378.45
465.104	351.33
465.314	381.75
465.524	343.19
465.733	334.28
465.943	398.8
466.153	406.74
466.362	382.72
466.572	369.15
466.782	361.98
466.991	377.1
467.201	428.63
467.41	316.07
467.62	400.93
467.829	340.87
468.039	371.87
468.249	392.6
468.458	363.15
468.668	403.25
468.877	394.15
469.086	431.35
469.296	406.16
469.505	364.5
469.715	453.24
469.924	401.9
470.134	438.32
470.343	459.63
470.552	366.25
470.762	373.61
470.971	350.75
471.18	400.15
471.39	386.2
471.599	371.09
471.808	421.46
472.018	375.74
472.227	456.73
472.436	466.41
472.645	408.48
472.855	376.52
473.064	453.24
473.273	417.78
473.482	431.35
473.691	488.7
473.901	438.9
474.11	429.99
474.319	521.83
474.528	419.72
474.737	492.38
474.946	453.24
475.155	463.9
475.364	499.54
475.573	420.88
475.783	473.78
475.992	476.1
476.201	513.69
476.41	457.31
476.619	436.77
476.828	489.08
477.037	442.97
477.245	469.9
477.454	515.82
477.663	472.03
477.872	464.67
478.081	523.76
478.29	459.05
478.499	554.38
478.708	506.33
478.917	545.46
479.125	526.48
479.334	524.34
479.543	490.25
479.752	517.37
479.961	528.03
480.169	584.21
480.378	537.33
480.587	638.46
480.796	536.55
481.004	529.96
481.213	558.25
481.422	533.84
481.63	555.34
481.839	588.09
482.048	596.42
482.256	564.64
482.465	579.95
482.674	594.29
482.882	596.22
483.091	659.77
483.299	590.22
483.508	643.31
483.716	570.46
483.925	610.17
484.134	578.79
484.342	590.02
484.551	625.29
484.759	624.9
484.967	612.89
485.176	650.67
485.384	662.29
485.593	621.99
485.801	602.23
486.01	603.78
486.218	579.56
486.426	539.84
486.635	555.93
486.843	505.74
487.051	571.62
487.26	560.19
487.468	603.97
487.676	605.33
487.885	574.53
488.093	626.84
488.301	632.65
488.509	645.44
488.717	677.99
488.926	635.75
489.134	614.24
489.342	634.78
489.55	622.77
489.758	639.24
489.967	622.96
490.175	722.55
490.383	637.49
490.591	714.6
490.799	634.97
491.007	704.92
491.215	661.71
491.423	684.19
491.631	659.97
491.839	663.84
492.047	734.95
492.255	644.47
492.463	608.43
492.671	676.24
492.879	719.45
493.087	665.78
493.295	708.02
493.503	721.19
493.711	728.75
493.919	729.91
494.127	748.51
494.334	734.56
494.542	674.5
494.75	721
494.958	726.42
495.166	770.6
495.374	761.88
495.581	753.74
495.789	737.27
495.997	806.44
496.205	729.72
496.412	709.76
496.62	745.99
496.828	734.75
497.035	749.48
497.243	777.57
497.451	741.54
497.658	753.35
497.866	775.05
498.074	797.72
498.281	741.92
498.489	862.43
498.696	745.8
498.904	731.65
499.112	748.32
499.319	785.13
499.527	772.34
499.734	813.03
499.942	703.95
500.149	762.85
500.357	773.12
500.564	715.77
500.771	740.57
500.979	728.55
501.186	716.93
501.394	755.68
501.601	738.82
501.808	772.53
502.016	755.1
502.223	733.2
502.43	756.26
502.638	744.05
502.845	711.31
503.052	822.91
503.26	754.52
503.467	844.22
503.674	769.43
503.881	797.72
504.089	847.9
504.296	821.17
504.503	729.91
504.71	788.03
504.917	761.49
505.125	784.16
505.332	799.27
505.539	780.48
505.746	849.84
505.953	869.6
506.16	830.27
506.367	863.98
506.574	861.66
506.781	844.61
506.988	793.27
507.195	832.21
507.402	796.95
507.609	885.1
507.816	786.68
508.023	798.3
508.23	822.72
508.437	769.82
508.644	837.25
508.851	908.55
509.058	856.81
509.265	842.28
509.472	854.88
509.679	953.69
509.885	798.3
510.092	844.03
510.299	837.63
510.506	851.2
510.713	860.88
510.92	870.96
511.126	863.21
511.333	876.96
511.54	903.51
511.746	933.93
511.953	937.03
512.16	928.5
512.367	883.36
512.573	880.26
512.78	905.64
512.987	863.21
513.193	888.78
513.4	805.08
513.606	847.32
513.813	880.45
514.02	878.71
514.226	939.74
514.433	908.55
514.639	830.47
514.846	882.97
515.052	833.37
515.259	885.3
515.465	892.85
515.672	895.56
515.878	970.54
516.085	914.16
516.291	937.22
516.497	879.68
516.704	892.27
516.91	859.72
517.117	833.37
517.323	816.13
517.529	844.8
517.736	833.18
517.942	846.93
518.148	838.6
518.354	864.37
518.561	851.78
518.767	897.31
518.973	882.2
519.179	901.96
519.386	884.13
519.592	861.46
519.798	901.18
520.004	954.27
520.21	911.65
520.417	938.96
520.623	952.91
520.829	945.74
521.035	982.94
521.241	999.99
521.447	1006.39
521.653	1067.03
521.859	968.61
522.065	1002.71
522.271	1079.43
522.477	1030.61
522.683	1062.19
522.889	1003.48
523.095	1036.42
523.301	1010.46
523.507	978.49
523.713	1022.86
523.919	980.81
524.125	1051.14
524.331	1039.32
524.537	1102.87
524.742	1089.51
524.948	1111.59
525.154	1072.07
525.36	1159.06
525.566	1089.51
525.772	1142.2
525.977	1048.04
526.183	1082.34
526.389	1096.67
526.595	1029.44
526.8	1051.34
527.006	1026.92
527.212	980.62
527.417	976.55
527.623	972.29
527.829	1025.57
528.034	1037.58
528.24	1073.81
528.446	1051.53
528.651	1117.4
528.857	1119.34
529.062	1176.89
529.268	1121.47
529.473	1105.39
529.679	1123.99
529.884	1183.28
530.09	1135.42
530.295	1173.01
530.501	1154.99
530.706	1148.4
530.912	1110.43
531.117	1159.84
531.323	1181.54
531.528	1213.31
531.733	1174.95
531.939	1138.14
532.144	1222.22
532.35	1187.74
532.555	1218.15
532.76	1193.94
532.966	1199.36
533.171	1149.37
533.376	1125.15
533.581	1127.48
533.787	1191.42
533.992	1189.67
534.197	1216.6
534.402	1182.89
534.607	1190.64
534.813	1292.16
535.018	1223.38
535.223	1173.98
535.428	1187.93
535.633	1251.09
535.838	1284.8
536.043	1229.78
536.249	1327.62
536.454	1212.53
536.659	1253.22
536.864	1222.61
537.069	1207.69
537.274	1256.32
537.479	1235.78
537.684	1270.47
537.889	1180.95
538.094	1312.31
538.299	1229.78
538.504	1289.06
538.708	1226.48
538.913	1276.86
539.118	1240.63
539.323	1276.08
539.528	1237.14
539.733	1265.23
539.938	1281.9
540.142	1282.09
540.347	1230.36
540.552	1233.46
540.757	1222.42
540.962	1239.85
541.166	1172.82
541.371	1209.05
541.576	1232.88
541.781	1166.81
541.985	1248.96
542.19	1246.63
542.395	1299.14
542.599	1325.1
542.804	1276.08
543.008	1338.47
543.213	1257.29
543.418	1242.95
543.622	1288.48
543.827	1195.48
544.031	1301.08
544.236	1316.96
544.44	1323.36
544.645	1390.78
544.849	1279.96
545.054	1317.16
545.258	1379.93
545.463	1352.61
545.667	1241.4
545.872	1308.83
546.076	1320.65
546.281	1289.06
546.485	1292.75
546.689	1342.15
546.894	1351.84
547.098	1305.34
547.302	1273.37
547.507	1315.41
547.711	1331.11
547.915	1365.01
548.119	1292.75
548.324	1328.2
548.528	1352.03
548.732	1296.81
548.936	1328.01
549.141	1375.86
549.345	1291
549.549	1326.07
549.753	1298.56
549.957	1390.59
550.161	1358.43
550.366	1311.93
550.57	1317.35
550.774	1312.9
550.978	1283.25
551.182	1368.11
551.386	1292.75
551.59	1294.49
551.794	1325.1
551.998	1310.96
552.202	1319.29
552.406	1297.2
552.61	1337.89
552.814	1327.81
553.018	1398.73
553.222	1304.18
553.426	1307.66
553.63	1401.05
553.833	1304.76
554.037	1286.16
554.241	1343.31
554.445	1328.01
554.649	1316.96
554.853	1304.95
555.056	1362.5
555.26	1368.89
555.464	1357.07
555.668	1350.1
555.871	1398.53
556.075	1360.56
556.279	1321.81
556.483	1297.01
556.686	1303.98
556.89	1285.77
557.094	1297.98
557.297	1260.58
557.501	1347.38
557.704	1286.93
557.908	1339.63
558.112	1279.18
558.315	1351.84
558.519	1285.19
558.722	1303.6
558.926	1303.98
559.129	1232.88
559.333	1222.61
559.536	1225.71
559.74	1195.87
559.943	1207.3
560.147	1206.33
560.35	1239.85
560.553	1255.93
560.757	1200.13
560.96	1306.31
561.164	1258.26
561.367	1315.61
561.57	1266.59
561.774	1259.81
561.977	1224.55
562.18	1226.68
562.384	1316
562.587	1253.22
562.79	1207.69
562.993	1245.28
563.197	1309.41
563.4	1277.44
563.603	1245.86
563.806	1329.95
564.009	1204.01
564.212	1262.72
564.416	1160.42
564.619	1261.36
564.822	1186.77
565.025	1248.77
565.228	1237.33
565.431	1218.93
565.634	1094.35
565.837	1171.85
566.04	1132.13
566.243	1173.01
566.446	1089.7
566.649	1212.53
566.852	1103.65
567.055	1160.61
567.258	1194.32
567.461	1204.2
567.664	1210.6
567.867	1126.9
568.07	1150.73
568.273	1167.97
568.475	1216.22
568.678	1165.45
568.881	1136
569.084	1162.94
569.287	1037.77
569.489	1080.79
569.692	1137.75
569.895	1143.56
570.098	1073.62
570.3	1062.57
570.503	1004.84
570.706	1057.54
570.909	1064.12
571.111	1009.68
571.314	1018.4
571.516	1047.46
571.719	1061.8
571.922	1041.07
572.124	1030.41
572.327	1105.59
572.529	989.34
572.732	1031.19
572.935	1028.67
573.137	1125.74
573.34	1047.27
573.542	1052.69
573.745	1081.76
573.947	1038.74
574.15	1051.72
574.352	1017.24
574.554	1097.64
574.757	1023.44
574.959	993.21
575.162	1035.64
575.364	997.48
575.566	1102.29
575.769	969.19
575.971	1024.6
576.173	925.98
576.376	1007.74
576.578	1056.76
576.78	1075.36
576.982	946.13
577.185	995.93
577.387	941.48
577.589	966.09
577.791	1032.93
577.993	1029.25
578.196	974.03
578.398	993.99
578.6	1045.33
578.802	934.51
579.004	934.31
579.206	959.11
579.408	1023.82
579.61	954.46
579.812	1021.89
580.014	970.54
580.216	935.28
580.418	989.73
580.62	958.73
580.822	903.51
581.024	965.7
581.226	1019.37
581.428	953.3
581.63	1021.5
581.832	950.78
582.034	990.31
582.236	990.69
582.438	1015.88
582.64	1032.54
582.841	1080.98
583.043	1082.53
583.245	990.89
583.447	1008.71
583.649	983.33
583.85	974.81
584.052	1022.27
584.254	948.26
584.456	1033.32
584.657	933.73
584.859	976.16
585.061	977.52
585.262	956.01
585.464	965.31
585.666	997.67
585.867	953.11
586.069	999.03
586.27	992.44
586.472	934.89
586.674	938.77
586.875	937.8
587.077	932.76
587.278	958.34
587.48	973.06
587.681	1068.19
587.883	958.14
588.084	889.75
588.285	907
588.487	906.8
588.688	961.63
588.89	835.5
589.091	845
589.292	881.61
589.494	870.38
589.695	828.33
589.896	774.28
590.098	772.34
590.299	826.4
590.5	819.62
590.702	827.17
590.903	854.1
591.104	899.25
591.305	868.05
591.507	932.18
591.708	888.01
591.909	857.98
592.11	936.83
592.311	886.85
592.512	854.88
592.714	848.29
592.915	866.31
593.116	847.71
593.317	872.51
593.518	869.8
593.719	886.07
593.92	918.81
594.121	909.13
594.322	871.93
594.523	900.99
594.724	825.43
594.925	865.34
595.126	874.45
595.327	881.03
595.528	874.83
595.729	864.76
595.929	854.68
596.13	879.68
596.331	888.2
596.532	893.63
596.733	942.84
596.934	894.4
597.135	884.91
597.335	913
597.536	853.52
597.737	874.45
597.938	826.59
598.138	882.39
598.339	862.82
598.54	873.67
598.74	858.95
598.941	865.73
599.142	924.63
599.342	885.1
599.543	845.38
599.744	862.82
599.944	880.26
600.145	839.38
600.345	872.31
600.546	955.04
600.746	953.88
600.947	919.4
601.147	888.59
601.348	900.99
601.548	875.22
601.749	889.36
601.949	829.88
602.15	842.48
602.35	874.64
602.551	915.52
602.751	829.69
602.951	838.02
603.152	749.29
603.352	891.88
603.552	877.55
603.753	886.85
603.953	897.31
604.153	875.61
604.354	881.03
604.554	872.9
604.754	850.03
604.954	818.45
605.155	859.72
605.355	836.86
605.555	899.25
605.755	934.89
605.955	889.36
606.155	894.01
606.356	872.9
606.556	888.01
606.756	875.41
606.956	814.19
607.156	874.25
607.356	853.13
607.556	860.69
607.756	826.78
607.956	895.95
608.156	875.03
608.356	849.45
608.556	872.7
608.756	840.54
608.956	816.52
609.156	854.1
609.356	796.95
609.556	838.99
609.755	857.98
609.955	815.55
610.155	828.53
610.355	833.76
610.555	809.35
610.755	840.15
610.954	786.48
611.154	831.63
611.354	865.92
611.554	824.85
611.753	801.21
611.953	790.94
612.153	867.08
612.352	831.05
612.552	787.84
612.752	737.27
612.951	815.35
613.151	793.27
613.351	754.13
613.55	810.32
613.75	794.62
613.949	814.19
614.149	809.15
614.348	761.49
614.548	781.25
614.747	745.02
614.947	763.82
615.146	725.45
615.346	823.1
615.545	798.11
615.745	798.88
615.944	816.9
616.144	779.51
616.343	806.63
616.542	755.29
616.742	781.25
616.941	751.03
617.14	710.73
617.34	735.72
617.539	783.97
617.738	728.36
617.938	842.09
618.137	758.2
618.336	738.63
618.535	769.24
618.734	777.18
618.934	763.82
619.133	766.72
619.332	793.27
619.531	726.62
619.73	756.26
619.929	811.28
620.128	776.41
620.328	840.93
620.527	740.57
620.726	764.59
620.925	769.63
621.124	736.11
621.323	789.2
621.522	723.52
621.721	722.94
621.92	704.53
622.119	789.97
622.318	714.02
622.517	753.55
622.715	740.76
622.914	699.49
623.113	744.05
623.312	683.22
623.511	750.84
623.71	700.46
623.909	723.52
624.107	751.03
624.306	700.85
624.505	697.75
624.704	711.31
624.902	707.44
625.101	769.43
625.3	710.73
625.499	683.8
625.697	696.59
625.896	691.74
626.095	729.72
626.293	685.35
626.492	673.34
626.69	723.52
626.889	671.79
627.088	728.17
627.286	662.1
627.485	668.3
627.683	686.9
627.882	708.21
628.08	614.44
628.279	671.2
628.477	721.77
628.676	634.39
628.874	676.82
629.073	658.61
629.271	621.22
629.469	677.79
629.668	656.67
629.866	659.58
630.065	659.97
630.263	704.92
630.461	659
630.66	685.15
630.858	709.37
631.056	710.34
631.254	711.89
631.453	638.46
631.651	673.34
631.849	668.49
632.047	681.47
632.245	656.09
632.444	672.75
632.642	667.14
632.84	713.83
633.038	667.91
633.236	643.89
633.434	620.44
633.632	640.59
633.83	638.85
634.028	663.07
634.227	637.88
634.425	729.33
634.623	657.45
634.821	677.21
635.019	660.74
635.216	638.46
635.414	690.77
635.612	663.84
635.81	663.84
636.008	708.21
636.206	672.75
636.404	679.34
636.602	639.62
636.8	621.61
636.997	684.77
637.195	705.69
637.393	634.2
637.591	739.4
637.789	701.43
637.986	651.64
638.184	665.01
638.382	705.3
638.58	682.05
638.777	704.72
638.975	698.52
639.173	695.81
639.37	649.12
639.568	676.63
639.765	680.5
639.963	649.89
640.161	706.27
640.358	681.28
640.556	644.47
640.753	649.51
640.951	639.43
641.148	663.07
641.346	635.17
641.543	623.35
641.741	672.17
641.938	612.31
642.136	625.48
642.333	610.37
642.531	697.94
642.728	719.64
642.925	636.14
643.123	656.67
643.32	653.19
643.517	667.14
643.715	648.92
643.912	626.45
644.109	655.9
644.306	620.44
644.504	615.99
644.701	644.86
644.898	673.14
645.095	600.87
645.293	642.53
645.49	642.14
645.687	652.99
645.884	650.09
646.081	567.94
646.278	619.67
646.475	606.69
646.672	622.57
646.87	653.38
647.067	633.23
647.264	619.09
647.461	592.35
647.658	576.46
647.855	640.98
648.052	585.57
648.249	532.87
648.446	606.11
648.642	566
648.839	563.48
649.036	557.86
649.233	537.52
649.43	537.52
649.627	540.23
649.824	549.53
650.021	590.02
650.217	549.73
650.414	549.73
650.611	584.41
650.808	596.03
651.004	581.31
651.201	587.51
651.398	614.05
651.595	570.07
651.791	574.53
651.988	612.89
652.185	532.29
652.381	593.9
652.578	567.16
652.775	582.86
652.971	558.64
653.168	573.17
653.364	589.64
653.561	521.83
653.757	592.93
653.954	586.15
654.15	536.36
654.347	641.56
654.543	570.26
654.74	494.7
654.936	547.79
655.133	589.25
655.329	529.58
655.525	573.94
655.722	603.97
655.918	549.53
656.115	545.46
656.311	499.93
656.507	487.73
656.704	460.02
656.9	480.17
657.096	474.55
657.292	476.68
657.489	544.69
657.685	522.21
657.881	487.92
658.077	510.39
658.273	525.12
658.47	590.41
658.666	519.11
658.862	572.39
659.058	524.54
659.254	570.07
659.45	498.77
659.646	549.14
659.842	524.15
660.038	565.81
660.234	497.41
660.43	553.99
660.626	628
660.822	566
661.018	562.13
661.214	521.24
661.41	489.47
661.606	589.44
661.802	583.05
661.998	549.14
662.194	510.01
662.39	558.64
662.586	586.15
662.781	551.28
662.977	556.7
663.173	572.78
663.369	529.38
663.564	539.65
663.76	567.74
663.956	511.36
664.152	564.84
664.347	497.22
664.543	535.78
664.739	509.23
664.934	467.58
665.13	496.06
665.326	548.76
665.521	520.28
665.717	509.04
665.912	483.46
666.108	445.49
666.304	510.78
666.499	491.8
666.695	456.53
666.89	503.61
667.086	558.25
667.281	526.28
667.477	588.86
667.672	527.25
667.867	503.42
668.063	508.84
668.258	493.93
668.454	500.71
668.649	560.77
668.844	524.73
669.04	529.96
669.235	514.85
669.43	502.84
669.626	456.92
669.821	493.73
670.016	463.31
670.211	514.08
670.407	472.42
670.602	495.09
670.797	503.23
670.992	537.71
671.187	471.45
671.382	542.36
671.578	499.54
671.773	506.13
671.968	484.82
672.163	485.21
672.358	546.24
672.553	484.05
672.748	501.87
672.943	562.32
673.138	488.11
673.333	499.35
673.528	474.94
673.723	501.29
673.918	494.31
674.113	490.44
674.308	568.91
674.503	519.11
674.698	509.62
674.892	477.46
675.087	528.22
675.282	514.08
675.477	448.01
675.672	520.86
675.867	485.01
676.061	465.25
676.256	455.56
676.451	481.33
676.646	479.98
676.84	486.76
677.035	437.16
677.23	461.38
677.424	516.79
677.619	512.91
677.814	514.08
678.008	497.99
678.203	439.1
678.397	437.55
678.592	486.18
678.787	487.53
678.981	482.69
679.176	498.38
679.37	474.94
679.565	457.89
679.759	477.07
679.954	494.9
680.148	537.13
680.342	528.03
680.537	487.73
680.731	497.41
680.926	478.23
681.12	493.54
681.314	466.22
681.509	458.86
681.703	480.75
681.897	490.05
682.092	471.26
682.286	468.35
682.48	549.73
682.674	512.53
682.869	482.3
683.063	477.07
683.257	556.7
683.451	458.66
683.645	500.9
683.839	475.91
684.034	470.87
684.228	530.74
684.422	443.16
684.616	460.99
684.81	492.76
685.004	473.78
685.198	469.13
685.392	504.58
685.586	439.68
685.78	485.21
685.974	500.71
686.168	478.43
686.362	509.62
686.556	427.86
686.75	401.12
686.944	417.59
687.138	468.16
687.331	351.72
687.525	371.28
687.719	345.32
687.913	361.79
688.107	397.83
688.301	377.29
688.494	408.87
688.688	376.9
688.882	325.37
689.076	320.91
689.269	403.45
689.463	441.81
689.657	371.48
689.85	374.77
690.044	392.4
690.238	388.33
690.431	380.58
690.625	386.4
690.818	423.98
691.012	428.44
691.205	424.18
691.399	383.68
691.593	415.65
691.786	469.13
691.98	425.92
692.173	473.97
692.366	435.41
692.56	470.68
692.753	510.59
692.947	430.96
693.14	502.64
693.333	468.55
693.527	435.03
693.72	474.94
693.914	448.59
694.107	449.56
694.3	489.28
694.493	456.34
694.687	499.54
694.88	442
695.073	501.87
695.266	490.83
695.46	495.48
695.653	525.51
695.846	502.26
696.039	429.02
696.232	460.02
696.425	536.55
696.618	530.93
696.812	521.83
697.005	553.6
697.198	611.34
697.391	540.81
697.584	575.69
697.777	619.86
697.97	628.39
698.163	595.06
698.356	580.73
698.549	693.68
698.742	624.32
698.935	554.57
699.127	625.48
699.32	563.29
699.513	572.98
699.706	604.17
699.899	601.46
700.092	578.01
700.285	636.14
700.477	578.98
700.67	622.96
700.863	643.69
701.056	744.64
701.248	694.84
701.441	697.36
701.634	646.79
701.826	739.02
702.019	629.36
702.212	712.28
702.404	651.83
702.597	649.12
702.79	690
702.982	714.02
703.175	752.39
703.367	738.63
703.56	744.64
703.752	822.13
703.945	741.34
704.137	792.3
704.33	783.97
704.522	825.62
704.715	800.63
704.907	798.69
705.1	835.31
705.292	833.37
705.484	840.73
705.677	876.77
705.869	850.42
706.061	901.76
706.254	890.33
706.446	844.42
706.638	878.9
706.831	951.36
707.023	868.25
707.215	967.06
707.407	950.78
707.599	946.13
707.792	961.83
707.984	956.01
708.176	1014.91
708.368	949.43
708.56	996.12
708.752	974.03
708.944	967.44
709.136	1016.46
709.329	961.44
709.521	1143.75
709.713	1075.94
709.905	1061.41
710.097	1131.55
710.289	1025.96
710.481	1062.19
710.672	1111.98
710.864	1086.99
711.056	1190.64
711.248	1137.55
711.44	1120.89
711.632	1102.29
711.824	1186.19
712.016	1189.48
712.207	1197.62
712.399	1198
712.591	1228.81
712.783	1249.93
712.975	1227.45
713.166	1194.52
713.358	1240.24
713.55	1272.4
713.741	1288.48
713.933	1267.75
714.125	1293.52
714.316	1261.55
714.508	1340.41
714.7	1312.12
714.891	1331.3
715.083	1378.96
715.274	1310.38
715.466	1303.21
715.657	1395.63
715.849	1293.52
716.04	1345.64
716.232	1281.9
716.423	1365.98
716.615	1281.7
716.806	1274.34
716.998	1262.91
717.189	1242.76
717.381	1165.07
717.572	1130.77
717.763	1196.26
717.955	1143.37
718.146	1157.9
718.337	1115.85
718.528	1094.93
718.72	1040.29
718.911	1124.96
719.102	1046.69
719.293	1117.79
719.485	1140.27
719.676	1106.17
719.867	1080.79
720.058	1073.62
720.249	1126.7
720.44	1074.01
720.632	1178.44
720.823	1192.77
721.014	1272.79
721.205	1284.61
721.396	1337.11
721.587	1426.82
721.778	1391.94
721.969	1434.96
722.16	1457.82
722.351	1472.54
722.542	1589.37
722.733	1619.02
722.924	1511.87
723.115	1556.82
723.305	1576.59
723.496	1590.73
723.687	1487.85
723.878	1505.67
724.069	1499.47
724.26	1517.11
724.45	1433.02
724.641	1454.53
724.832	1513.04
725.023	1467.7
725.213	1496.57
725.404	1459.37
725.595	1491.34
725.785	1445.61
725.976	1510.13
726.167	1515.36
726.357	1555.85
726.548	1640.33
726.739	1554.5
726.929	1573.68
727.12	1638.58
727.31	1635.68
727.501	1617.66
727.691	1632.77
727.882	1656.22
728.072	1656.22
728.263	1629.29
728.453	1700.2
728.644	1721.12
728.834	1709.3
729.024	1680.82
729.215	1701.75
729.405	1731.2
729.596	1778.47
729.786	1809.66
729.976	1757.16
730.167	1831.36
730.357	1797.65
730.547	1790.87
730.737	1817.8
730.928	1836.01
731.118	1898.4
731.308	1845.89
731.498	1864.49
731.688	1971.83
731.879	1917.77
732.069	2020.85
732.259	2016.78
732.449	1986.75
732.639	2124.5
732.829	2129.93
733.019	2145.04
733.209	2195.22
733.399	2177.78
733.589	2273.69
733.779	2258.77
733.969	2300.04
734.159	2357.58
734.349	2376.76
734.539	2408.34
734.729	2377.34
734.919	2437.02
735.109	2446.7
735.299	2426.36
735.488	2481
735.678	2444.57
735.868	2440.7
736.058	2453.87
736.248	2449.61
736.437	2377.73
736.627	2425.78
736.817	2544.55
737.007	2447.09
737.196	2551.52
737.386	2513.93
737.576	2493.4
737.765	2539.32
737.955	2550.55
738.144	2690.63
738.334	2605
738.524	2558.5
738.713	2568.18
738.903	2616.04
739.092	2665.45
739.282	2655.95
739.471	2656.53
739.661	2599.57
739.85	2700.32
740.04	2664.09
740.229	2695.86
740.419	2729.96
740.608	2781.31
740.797	2719.69
740.987	2791.96
741.176	2780.34
741.365	2782.47
741.555	2722.21
741.744	2765.03
741.933	2817.73
742.123	2802.23
742.312	2836.14
742.501	2889.42
742.69	2864.62
742.88	2812.11
743.069	2927.78
743.258	2855.12
743.447	2895.23
743.636	2951.03
743.825	2861.32
744.014	2922.35
744.204	2916.93
744.393	2868.49
744.582	2959.94
744.771	2956.45
744.96	2898.33
745.149	2936.89
745.338	2876.63
745.527	2956.65
745.716	2937.66
745.905	2931.65
746.094	3005.47
746.283	3003.73
746.471	2977.77
746.66	3034.92
746.849	3001.98
747.038	2980.67
747.227	2961.3
747.416	3013.42
747.604	2956.84
747.793	2980.67
747.982	3009.35
748.171	3021.75
748.359	3049.65
748.548	3023.49
748.737	3022.91
748.926	2998.88
749.114	2919.45
749.303	3016.9
749.491	2979.51
749.68	2935.14
749.869	3037.25
750.057	2979.12
750.246	2952.38
750.434	2963.43
750.623	2968.66
750.811	2971.37
751	3005.28
751.188	2982.03
751.377	2990.36
751.565	2967.3
751.754	2968.08
751.942	2946.57
752.131	3026.2
752.319	2916.54
752.507	2921.77
752.696	2950.25
752.884	2982.22
753.072	2957.03
753.261	2961.1
753.449	2958
753.637	2936.11
753.825	3009.15
754.014	2961.49
754.202	2934.95
754.39	3023.88
754.578	3029.3
754.766	2962.46
754.955	2954.71
755.143	3018.65
755.331	2924.29
755.519	2948.51
755.707	2942.31
755.895	2948.12
756.083	2922.55
756.271	2920.22
756.459	2895.42
756.647	2980.67
756.835	2878.37
757.023	2888.25
757.211	2907.44
757.399	2897.75
757.587	2889.42
757.775	2860.94
757.963	2816.76
758.151	2907.05
758.339	2846.6
758.526	2819.86
758.714	2862.49
758.902	2766
759.09	2660.02
759.278	2532.92
759.465	2324.84
759.653	2001.47
759.841	1832.14
760.028	1572.71
760.216	1350.48
760.404	1302.82
760.591	1025.76
760.779	859.53
760.967	771.95
761.154	646.21
761.342	689.03
761.529	689.03
761.717	711.5
761.905	721.58
762.092	772.73
762.28	702.79
762.467	749.48
762.655	672.75
762.842	695.23
763.029	699.1
763.217	721.39
763.404	702.01
763.592	729.14
763.779	681.47
763.966	730.69
764.154	790.17
764.341	795.2
764.528	824.27
764.716	886.46
764.903	900.6
765.09	1000.96
765.277	1014.72
765.465	1165.26
765.652	1212.92
765.839	1296.04
766.026	1381.48
766.213	1446.19
766.4	1500.64
766.588	1656.99
766.775	1637.62
766.962	1778.08
767.149	1818.96
767.336	1951.68
767.523	1982.68
767.71	2071.8
767.897	2135.93
768.084	2223.12
768.271	2206.26
768.458	2254.7
768.645	2340.34
768.832	2299.26
769.019	2353.71
769.206	2409.51
769.392	2444.77
769.579	2535.05
769.766	2489.33
769.953	2459.49
770.14	2528.47
770.327	2528.47
770.513	2579.23
770.7	2654.79
770.887	2556.37
771.073	2564.89
771.26	2582.72
771.447	2522.46
771.634	2542.42
771.82	2656.92
772.007	2556.56
772.193	2579.81
772.38	2616.04
772.567	2580.58
772.753	2580.58
772.94	2621.85
773.126	2594.53
773.313	2625.92
773.499	2606.55
773.686	2606.74
773.872	2574.19
774.059	2570.32
774.245	2537.38
774.432	2598.6
774.618	2485.84
774.804	2566.05
774.991	2509.48
775.177	2570.32
775.363	2576.9
775.55	2569.73
775.736	2521.1
775.922	2536.8
776.109	2547.45
776.295	2571.28
776.481	2573.61
776.667	2565.67
776.853	2517.23
777.04	2532.73
777.226	2522.27
777.412	2605.19
777.598	2454.26
777.784	2523.62
777.97	2481
778.156	2533.31
778.342	2501.73
778.528	2477.32
778.715	2438.95
778.901	2453.29
779.087	2461.43
779.272	2432.75
779.458	2477.32
779.644	2436.44
779.83	2436.63
780.016	2529.43
780.202	2444.57
780.388	2448.06
780.574	2389.36
780.76	2420.35
780.946	2438.37
781.131	2458.91
781.317	2402.53
781.503	2399.43
781.689	2406.6
781.874	2516.65
782.06	2414.74
782.246	2418.03
782.432	2419.39
782.617	2423.26
782.803	2420.94
782.989	2331.62
783.174	2331.62
783.36	2320.77
783.545	2337.04
783.731	2355.84
783.916	2266.13
784.102	2347.31
784.288	2273.49
784.473	2300.43
784.659	2320.58
784.844	2371.34
785.029	2278.53
785.215	2267.88
785.4	2220.8
785.586	2342.66
785.771	2252.96
785.956	2321.35
786.142	2285.31
786.327	2236.88
786.512	2255.28
786.698	2256.83
786.883	2200.84
787.068	2217.5
787.254	2258.19
787.439	2229.51
787.624	2200.26
787.809	2200.45
787.994	2181.27
788.18	2277.95
788.365	2144.65
788.55	2191.93
788.735	2149.5
788.92	2155.89
789.105	2134.97
789.29	2197.55
789.475	2081.88
789.66	2091.18
789.845	2109
790.03	2102.42
790.215	2135.16
790.4	2172.55
790.585	2138.45
790.77	2102.8
790.955	2015.81
791.14	2109.39
791.325	2126.44
791.51	2010
791.695	2094.28
791.879	2085.56
792.064	2038.87
792.249	2145.43
792.434	2075.1
792.618	2053.2
792.803	2122.18
792.988	2089.05
793.173	2065.41
793.357	2117.33
793.542	2034.8
793.727	2059.21
793.911	2092.73
794.096	2070.06
794.281	2135.74
794.465	2177.4
794.65	2089.82
794.834	2072.19
795.019	2162.48
795.203	2138.26
795.388	2175.07
795.572	2183.98
795.757	2112.3
795.941	2124.12
796.126	2115.59
796.31	2023.95
796.494	2093.7
796.679	2076.65
796.863	2067.35
797.048	2162.67
797.232	2106.68
797.416	2096.6
797.601	2108.42
797.785	2140.58
797.969	2145.04
798.153	2098.35
798.338	2117.92
798.522	2130.7
798.706	2159.18
798.89	2156.86
799.074	2241.14
799.258	2159.96
799.443	2160.54
799.627	2100.87
799.811	2168.48
799.995	2127.6
800.179	2109.39
800.363	2108.03
800.547	2140
800.731	2138.07
800.915	2099.9
801.099	2087.11
801.283	2072.19
801.467	2129.15
801.651	2088.27
801.835	2170.61
802.019	2125.47
802.202	2156.86
802.386	2085.37
802.57	2082.46
802.754	2069.28
802.938	2051.27
803.121	2082.46
803.305	2137.48
803.489	2082.65
803.673	2124.7
803.856	2134.77
804.04	2098.35
804.224	2099.51
804.407	2077.42
804.591	2025.89
804.775	2086.72
804.958	2131.67
805.142	2195.8
805.326	2097.57
805.509	2101.25
805.693	2118.11
805.876	2139.42
806.06	2138.84
806.243	2160.73
806.427	2171.97
806.61	2185.92
806.794	2100.67
806.977	2161.12
807.16	2129.35
807.344	2104.55
807.527	2106.48
807.71	2118.11
807.894	2137.1
808.077	2151.24
808.26	2119.27
808.444	2025.89
808.627	2136.71
808.81	2078.2
808.993	2030.15
809.177	2014.45
809.36	2062.7
809.543	2055.92
809.726	1930.76
809.909	1973.57
810.092	2015.04
810.276	1941.8
810.459	2016.59
810.642	1988.88
810.825	1901.89
811.008	1968.92
811.191	1892.2
811.374	1907.31
811.557	1887.55
811.74	1969.31
811.923	1865.46
812.106	1853.64
812.289	1820.13
812.472	1819.35
812.654	1836.59
812.837	1811.6
813.02	1777.11
813.203	1734.3
813.386	1663.19
813.569	1645.95
813.751	1593.05
813.934	1626.38
814.117	1604.87
814.3	1596.74
814.482	1526.02
814.665	1505.29
814.848	1459.76
815.03	1428.37
815.213	1435.93
815.396	1432.63
815.578	1435.73
815.761	1393.88
815.943	1452.39
816.126	1366.18
816.309	1334.21
816.491	1314.83
816.674	1229.97
816.856	1308.63
817.039	1273.37
817.221	1343.12
817.403	1293.91
817.586	1309.21
817.768	1344.09
817.951	1253.61
818.133	1243.15
818.315	1273.95
818.498	1282.67
818.68	1362.11
818.862	1330.14
819.045	1376.06
819.227	1350.48
819.409	1314.45
819.591	1361.33
819.774	1323.55
819.956	1314.06
820.138	1352.23
820.32	1360.17
820.502	1419.46
820.684	1469.64
820.866	1450.07
821.048	1507.81
821.231	1486.88
821.413	1503.16
821.595	1472.74
821.777	1473.12
821.959	1503.54
822.141	1515.75
822.323	1408.99
822.505	1399.69
822.686	1323.75
822.868	1279.18
823.05	1207.5
823.232	1167.2
823.414	1137.94
823.596	1184.25
823.778	1141.43
823.96	1195.87
824.141	1180.95
824.323	1187.93
824.505	1279.18
824.687	1297.78
824.868	1328.78
825.05	1435.34
825.232	1458.79
825.413	1526.79
825.595	1433.99
825.777	1385.16
825.958	1470.99
826.14	1438.83
826.321	1461.11
826.503	1424.88
826.685	1477.39
826.866	1455.88
827.048	1497.73
827.229	1447.36
827.411	1417.33
827.592	1363.66
827.773	1317.35
827.955	1316.58
828.136	1312.31
828.318	1284.61
828.499	1328.4
828.68	1239.08
828.862	1323.94
829.043	1339.63
829.224	1313.86
829.406	1274.92
829.587	1299.53
829.768	1262.91
829.949	1287.71
830.131	1297.2
830.312	1374.51
830.493	1330.72
830.674	1344.09
830.855	1273.18
831.036	1309.8
831.218	1326.26
831.399	1368.5
831.58	1336.92
831.761	1310.38
831.942	1293.91
832.123	1327.04
832.304	1270.08
832.485	1308.44
832.666	1277.63
832.847	1339.44
833.028	1300.11
833.209	1314.45
833.389	1299.14
833.57	1244.89
833.751	1292.94
833.932	1328.78
834.113	1305.15
834.294	1299.72
834.475	1319.87
834.655	1371.41
834.836	1371.6
835.017	1326.46
835.198	1255.55
835.378	1332.66
835.559	1376.83
835.74	1340.8
835.92	1319.29
836.101	1311.54
836.281	1330.72
836.462	1340.99
836.643	1365.4
836.823	1396.21
837.004	1344.09
837.184	1444.26
837.365	1411.32
837.545	1406.86
837.726	1340.21
837.906	1427.4
838.087	1369.28
838.267	1396.01
838.448	1348.55
838.628	1378.77
838.808	1332.46
838.989	1426.82
839.169	1351.26
839.349	1393.69
839.53	1377.22
839.71	1408.22
839.89	1360.75
840.07	1405.7
840.251	1355.13
840.431	1417.91
840.611	1368.7
840.791	1332.66
840.971	1363.27
841.151	1347.58
841.332	1350.1
841.512	1392.72
841.692	1309.6
841.872	1376.64
842.052	1370.63
842.232	1386.91
842.412	1310.38
842.592	1348.74
842.772	1420.62
842.952	1349.71
843.132	1355.13
843.312	1312.9
843.492	1288.87
843.672	1384.19
843.851	1287.32
844.031	1311.93
844.211	1309.41
844.391	1311.93
844.571	1331.3
844.751	1335.37
844.93	1331.88
845.11	1305.34
845.29	1355.13
845.47	1332.66
845.649	1334.21
845.829	1349.51
846.009	1274.92
846.188	1332.85
846.368	1309.02
846.547	1303.4
846.727	1326.07
846.907	1284.41
847.086	1315.03
847.266	1370.63
847.445	1303.98
847.625	1324.91
847.804	1266.01
847.984	1299.91
848.163	1285.77
848.343	1273.18
848.522	1341.18
848.701	1282.28
848.881	1243.73
849.06	1296.23
849.239	1295.07
849.419	1282.28
849.598	1216.22
849.777	1220.48
849.957	1238.5
850.136	1166.23
850.315	1149.18
850.494	1146.08
850.674	1188.7
850.853	1207.3
851.032	1181.54
851.211	1266.78
851.39	1195.68
851.569	1165.84
851.748	1164.87
851.927	1246.44
852.107	1187.74
852.286	1158.87
852.465	1157.7
852.644	1237.72
852.823	1189.29
853.002	1205.56
853.181	1197.03
853.359	1199.94
853.538	1151.12
853.717	1250.7
853.896	1118.76
854.075	1068.39
854.254	1054.05
854.433	974.81
854.611	1040.87
854.79	1006.78
854.969	1065.87
855.148	1070.91
855.327	1018.4
855.505	1084.47
855.684	1052.89
855.863	1098.61
856.041	1069.74
856.22	1113.92
856.399	1095.51
856.577	1181.92
856.756	1167.78
856.934	1259.62
857.113	1223.77
857.291	1163.9
857.47	1127.09
857.648	1138.33
857.827	1154.22
858.005	1185.22
858.184	1114.69
858.362	1217.38
858.541	1143.95
858.719	1140.46
858.898	1157.12
859.076	1124.77
859.254	1177.27
859.433	1109.07
859.611	1140.65
859.789	1080.01
859.967	1171.07
860.146	1180.18
860.324	1079.62
860.502	1095.32
860.68	1064.51
860.859	1096.48
861.037	1113.34
861.215	1126.9
861.393	1104.42
861.571	1113.53
861.749	1088.92
861.927	1105.2
862.105	1091.64
862.283	1057.54
862.461	1083.31
862.639	1053.08
862.817	1087.57
862.995	1075.94
863.173	1050.95
863.351	1066.45
863.529	1077.3
863.707	1088.92
863.885	1118.76
864.063	996.31
864.241	1033.51
864.418	1136.39
864.596	1030.99
864.774	999.22
864.952	1062.77
865.129	1069.16
865.307	1027.12
865.485	997.28
865.663	1078.85
865.84	962.21
866.018	1008.13
866.196	923.46
866.373	926.37
866.551	913.2
866.728	827.56
866.906	889.75
867.084	910.87
867.261	954.66
867.439	966.67
867.616	977.71
867.794	962.99
867.971	952.91
868.149	984.3
868.326	1018.59
868.503	1010.46
868.681	975.19
868.858	981.59
869.035	932.18
869.213	1024.6
869.39	976.16
869.567	1029.64
869.745	945.74
869.922	971.13
870.099	1002.51
870.276	1008.52
870.454	988.56
870.631	993.41
870.808	963.57
870.985	988.56
871.162	1036.61
871.339	987.59
871.517	944.19
871.694	938.77
871.871	973.64
872.048	946.33
872.225	931.8
872.402	958.53
872.579	929.86
872.756	968.99
872.933	930.05
873.11	921.72
873.287	960.66
873.463	922.88
873.64	916.3
873.817	961.83
873.994	940.9
874.171	897.5
874.348	929.66
874.524	869.8
874.701	934.7
874.878	893.24
875.055	958.14
875.231	923.85
875.408	916.3
875.585	843.83
875.762	897.89
875.938	887.23
876.115	892.08
876.291	892.08
876.468	903.51
876.645	835.5
876.821	879.1
876.998	863.01
877.174	899.25
877.351	888.01
877.527	881.23
877.704	894.4
877.88	892.27
878.057	853.91
878.233	920.36
878.409	866.31
878.586	868.05
878.762	878.51
878.938	841.7
879.115	788.62
879.291	838.8
879.467	807.6
879.644	826.2
879.82	890.14
879.996	793.46
880.172	794.43
880.349	809.54
880.525	848.68
880.701	803.53
880.877	781.06
881.053	845.77
881.229	833.95
881.405	874.64
881.581	769.43
881.757	793.27
881.933	854.68
882.109	832.4
882.285	836.67
882.461	750.84
882.637	806.44
882.813	798.11
882.989	825.82
883.165	874.06
883.341	782.03
883.517	859.91
883.693	822.13
883.869	836.86
884.044	774.28
884.22	852.16
884.396	865.92
884.572	848.48
884.747	838.8
884.923	823.3
885.099	851.2
885.275	844.22
885.45	800.63
885.626	796.75
885.801	803.92
885.977	800.05
886.153	752.19
886.328	829.69
886.504	780.87
886.679	841.12
886.855	755.1
887.03	798.11
887.206	841.9
887.381	841.32
887.557	820
887.732	827.56
887.908	827.75
888.083	834.53
888.258	814.58
888.434	827.95
888.609	805.47
888.784	831.24
888.96	801.02
889.135	826.2
889.31	757.04
889.485	817.87
889.661	826.2
889.836	833.76
890.011	810.7
890.186	788.81
890.361	772.15
890.537	825.23
890.712	814.77
890.887	791.91
891.062	794.43
891.237	841.12
891.412	782.61
891.587	805.28
891.762	861.46
891.937	863.6
892.112	741.15
892.287	782.61
892.462	766.53
892.637	709.18
892.812	730.3
892.987	757.42
893.161	760.52
893.336	737.66
893.511	762.27
893.686	771.18
893.861	747.74
894.035	728.36
894.21	737.08
894.385	695.81
894.56	727
894.734	687.09
894.909	651.64
895.084	673.14
895.258	652.22
895.433	674.3
895.608	662.1
895.782	615.02
895.957	626.06
896.131	637.69
896.306	538.1
896.48	569.1
896.655	590.61
896.829	519.89
897.004	534.23
897.178	528.61
897.353	518.73
897.527	575.69
897.701	568.52
897.876	493.15
898.05	578.21
898.224	549.92
898.399	584.99
898.573	546.82
898.747	472.81
898.921	495.28
899.096	415.85
899.27	422.63
899.444	433.86
899.618	478.23
899.792	493.15
899.967	470.1
900.141	519.5
900.315	438.32
900.489	433.09
900.663	499.54
900.837	468.93
901.011	420.11
901.185	528.99
901.359	478.62
901.533	484.43
901.707	456.15
901.881	500.9
902.055	438.71
902.229	447.62
902.403	497.22
902.576	476.68
902.75	517.56
902.924	570.46
903.098	507.1
903.272	557.09
903.446	577.43
903.619	563.09
903.793	569.49
903.967	576.08
904.14	619.09
904.314	610.95
904.488	579.95
904.661	628.58
904.835	593.51
905.009	628.58
905.182	675.08
905.356	602.62
905.529	615.41
905.703	553.6
905.876	592.93
906.05	539.84
906.223	520.28
906.397	466.22
906.57	475.71
906.744	491.02
906.917	485.79
907.09	512.72
907.264	469.32
907.437	450.53
907.61	415.85
907.784	451.3
907.957	436.58
908.13	411.2
908.304	468.16
908.477	419.91
908.65	420.11
908.823	396.28
908.996	494.9
909.17	431.93
909.343	408.48
909.516	414.49
909.689	438.71
909.862	389.5
910.035	444.52
910.208	394.53
910.381	381.55
910.554	504.39
910.727	404.42
910.9	387.37
911.073	415.07
911.246	471.65
911.419	459.63
911.592	476.88
911.765	429.02
911.938	391.82
912.11	433.09
912.283	418.17
912.456	444.91
912.629	431.93
912.802	397.05
912.974	362.95
913.147	335.44
913.32	324.59
913.493	348.23
913.665	353.85
913.838	369.93
914.01	337.57
914.183	347.07
914.356	338.15
914.528	406.35
914.701	445.68
914.873	400.15
915.046	370.32
915.218	336.99
915.391	293.59
915.563	289.91
915.736	348.03
915.908	363.15
916.081	366.63
916.253	353.85
916.425	388.72
916.598	382.72
916.77	362.57
916.942	329.05
917.115	268.6
917.287	351.91
917.459	325.75
917.632	310.45
917.804	284.68
917.976	358.69
918.148	333.7
918.32	345.9
918.493	362.95
918.665	423.21
918.837	367.41
919.009	426.5
919.181	396.86
919.353	374.58
919.525	372.25
919.697	363.73
919.869	367.8
920.041	426.31
920.213	479.4
920.385	426.5
920.557	391.24
920.729	422.82
920.901	376.9
921.073	375.74
921.244	370.32
921.416	414.68
921.588	372.25
921.76	370.9
921.932	439.48
922.103	355.01
922.275	356.17
922.447	386.01
922.619	332.73
922.79	386.4
922.962	334.08
923.134	406.35
923.305	339.9
923.477	318.78
923.648	331.95
923.82	347.07
923.991	288.55
924.163	307.93
924.335	314.52
924.506	308.12
924.677	397.63
924.849	312.39
925.02	319.17
925.192	366.44
925.363	334.86
925.535	353.65
925.706	310.06
925.877	369.54
926.049	302.31
926.22	334.47
926.391	323.43
926.562	337.57
926.734	293.4
926.905	331.76
927.076	240.7
927.247	293.2
927.419	279.45
927.59	273.83
927.761	272.47
927.932	260.46
928.103	291.85
928.274	243.99
928.445	227.33
928.616	257.55
928.787	212.61
928.958	257.55
929.129	244.19
929.3	235.66
929.471	202.92
929.642	149.83
929.813	132.39
929.984	213.19
930.155	112.44
930.326	169.79
930.496	155.06
930.667	118.83
930.838	157.39
931.009	113.41
931.18	144.6
931.35	106.43
931.521	142.86
931.692	119.8
931.863	51.02
932.033	80.08
932.204	116.89
932.374	90.54
932.545	70.59
932.716	125.61
932.886	111.47
933.057	50.63
933.227	55.09
933.398	130.07
933.568	44.82
933.739	28.55
933.909	35.13
934.08	71.17
934.25	18.66
934.421	44.82
934.591	37.26
934.761	-9.43
934.932	27
935.102	56.45
935.272	35.71
935.443	48.5
935.613	26.8
935.783	52.38
935.953	17.31
936.123	150.41
936.294	21.57
936.464	22.35
936.634	29.13
936.804	-9.43
936.974	4.33
937.144	50.05
937.314	49.28
937.484	29.71
937.655	20.6
937.825	90.35
937.995	14.6
938.165	89.96
938.334	34.36
938.504	70.39
938.674	22.15
938.844	70.39
939.014	97.52
939.184	64.58
939.354	120.77
939.524	113.6
939.694	88.99
939.863	70.98
940.033	147.51
940.203	84.15
940.373	91.9
940.542	97.33
940.712	59.54
940.882	76.4
941.051	109.53
941.221	105.66
941.391	108.56
941.56	72.14
941.73	58.58
941.899	172.89
942.069	67.29
942.238	91.9
942.408	66.33
942.577	80.66
942.747	69.43
942.916	52.96
943.086	28.74
943.255	138.59
943.425	69.81
943.594	63.03
943.763	5.68
943.933	24.67
944.102	-24.35
944.271	56.83
944.441	62.64
944.61	41.14
944.779	44.05
944.948	133.75
945.117	35.71
945.287	56.83
945.456	20.41
945.625	23.31
945.794	60.71
945.963	48.5
946.132	59.74
946.301	36.3
946.47	73.3
946.639	16.92
946.808	41.91
946.977	70.01
947.146	88.61
947.315	45.6
947.484	62.84
947.653	43.27
947.822	34.75
947.991	26.41
948.16	119.8
948.329	100.81
948.498	30.68
948.666	64.97
948.835	76.79
949.004	31.45
949.173	1.42
949.341	47.73
949.51	75.63
949.679	111.08
949.847	76.79
950.016	129.49
950.185	111.28
950.353	60.32
950.522	29.32
950.69	88.99
950.859	44.24
951.028	100.23
951.196	83.57
951.365	62.45
951.533	48.89
951.701	90.74
951.87	96.74
952.038	16.53
952.207	50.44
952.375	102.17
952.543	40.75
952.712	66.33
952.88	39.2
953.048	116.7
953.217	72.14
953.385	44.63
953.553	112.05
953.721	14.4
953.89	56.83
954.058	34.75
954.226	21.18
954.394	61.48
954.562	-7.49
954.73	81.05
954.898	45.79
955.067	75.24
955.235	60.71
955.403	99.07
955.571	109.92
955.739	78.14
955.907	35.33
956.075	36.88
956.243	54.12
956.41	47.34
956.578	24.67
956.746	17.11
956.914	30.29
957.082	73.69
957.25	79.89
957.418	60.9
957.585	77.37
957.753	119.61
957.921	27
958.089	63.61
958.256	89.19
958.424	75.82
958.592	69.23
958.759	45.21
958.927	84.73
959.095	55.67
959.262	69.62
959.43	62.06
959.597	39.78
959.765	54.12
959.932	58.96
960.1	86.86
960.267	87.83
960.435	58.77
960.602	89.58
960.77	43.27
960.937	28.74
961.104	84.15
961.272	10.33
961.439	52.18
961.606	82.02
961.774	92.48
961.941	63.42
962.108	87.25
962.275	78.53
962.443	98.68
962.61	73.69
962.777	135.69
962.944	95.39
963.111	95.97
963.278	90.74
963.446	74.08
963.613	88.8
963.78	97.13
963.947	89.58
964.114	93.26
964.281	194.2
964.448	87.25
964.615	54.12
964.782	82.6
964.949	112.44
965.116	123.09
965.282	128.91
965.449	82.6
965.616	58.19
965.783	109.92
965.95	103.14
966.117	48.5
966.283	69.04
966.45	91.32
966.617	84.73
966.784	108.37
966.95	101.98
967.117	106.24
967.284	84.34
967.45	39.01
967.617	142.66
967.784	97.91
967.95	126.97
968.117	77.56
968.283	117.09
968.45	189.94
968.616	82.6
968.783	142.66
968.949	87.44
969.116	152.74
969.282	71.17
969.449	100.43
969.615	74.08
969.781	57.03
969.948	65.74
970.114	62.26
970.28	153.32
970.447	100.62
970.613	134.72
970.779	66.91
970.945	101.2
971.112	106.82
971.278	77.18
971.444	79.11
971.61	125.23
971.776	68.65
971.942	101.01
972.108	130.07
972.275	69.43
972.441	125.23
972.607	155.64
972.773	64.78
972.939	115.73
973.105	90.54
973.271	46.56
973.437	100.23
973.602	81.24
973.768	95.58
973.934	81.24
974.1	112.83
974.266	23.31
974.432	98.1
974.598	62.64
974.763	96.55
974.929	62.64
975.095	176.76
975.261	88.61
975.426	63.23
975.592	73.88
975.758	156.03
975.923	42.69
976.089	57.22
976.255	126.39
976.42	114.76
976.586	88.22
976.751	57.8
976.917	188
977.082	95
977.248	65.55
977.413	25.06
977.579	68.65
977.744	106.04
977.91	33.58
978.075	51.02
978.24	111.47
978.406	81.44
978.571	51.02
978.736	66.13
978.902	97.52
979.067	52.18
979.232	33.58
979.397	73.3
979.563	107.4
979.728	50.83
979.893	79.31
980.058	77.56
980.223	105.85
980.388	105.85
980.554	82.99
980.719	52.57
980.884	85.7
981.049	88.61
981.214	69.04
981.379	95.19
981.544	71.75
981.709	70.78
981.874	74.46
982.039	43.27
982.204	120.58
982.368	106.24
982.533	59.16
982.698	102.75
982.863	120.19
983.028	41.72
983.193	85.12
983.357	83.96
983.522	83.57
983.687	84.54
983.852	76.01
984.016	53.35
984.181	117.09
984.346	67.29
984.51	121.35
984.675	79.69
984.839	119.22
985.004	86.28
985.168	116.51
985.333	91.71
985.498	86.67
985.662	119.99
985.827	90.93
985.991	64
986.155	80.66
986.32	122.51
986.484	127.16
986.649	92.29
986.813	27
986.977	58.77
987.142	81.44
987.306	37.46
987.47	50.25
987.634	62.45
987.799	78.34
987.963	78.92
988.127	81.24
988.291	156.03
988.455	81.05
988.62	111.86
988.784	93.45
988.948	98.88
989.112	41.53
989.276	99.65
989.44	90.35
989.604	64.58
989.768	66.91
989.932	175.41
990.096	56.25
990.26	56.25
990.424	36.68
990.588	70.78
990.752	144.99
990.915	81.44
991.079	62.84
991.243	62.06
991.407	114.96
991.571	59.74
991.734	80.08
991.898	87.83
992.062	150.61
992.226	49.66
992.389	49.86
992.553	16.73
992.717	18.47
992.88	72.91
993.044	76.79
993.207	70.39
993.371	93.26
993.535	99.07
993.698	91.32
993.862	93.64
994.025	111.28
994.189	71.56
994.352	68.26
994.515	54.12
994.679	99.46
994.842	63.61
995.006	92.09
995.169	52.76
995.332	37.07
995.496	110.5
995.659	18.86
995.822	70.78
995.985	64.78
996.149	111.47
996.312	59.54
996.475	115.34
996.638	41.14
996.801	107.79
996.964	106.82
997.128	70.78
997.291	48.11
997.454	65.94
997.617	20.02
997.78	90.74
997.943	54.12
998.106	73.49
998.269	32.61
998.432	68.65
998.595	53.54
998.758	8.01
998.92	29.71
999.083	1.03
999.246	60.32
999.409	34.55
999.572	-7.69
999.735	28.74
999.897	80.28
1000.06	33.58
1000.223	63.81
1000.386	83.57
1000.548	72.53
1000.711	85.51
1000.874	48.5
1001.036	32.81
1001.199	84.93
1001.361	34.16
1001.524	63.81
1001.687	106.24
1001.849	34.16
1002.012	63.03
1002.174	62.26
1002.337	101.78
1002.499	27.77
1002.661	108.37
1002.824	12.46
1002.986	51.8
1003.149	61.48
1003.311	23.12
1003.473	122.51
1003.636	44.43
1003.798	51.8
1003.96	58.77
1004.123	29.71
1004.285	24.09
1004.447	51.02
1004.609	43.66
1004.771	125.42
1004.933	-4.97
1005.096	12.46
1005.258	13.24
1005.42	48.11
1005.582	88.8
1005.744	75.43
1005.906	-7.88
1006.068	43.46
1006.23	11.3
1006.392	-11.37
1006.554	-4.97
1006.716	72.53
1006.878	73.88
1007.04	21.18
1007.202	37.65
1007.363	77.95
1007.525	57.22
1007.687	50.05
1007.849	80.47
1008.011	-4.59
1008.172	-4.97
1008.334	17.7
1008.496	81.24
1008.658	-14.85
1008.819	1.81
1008.981	2.39
1009.143	-12.72
1009.304	40.95
1009.466	56.83
1009.627	87.64
1009.789	128.52
1009.95	46.56
1010.112	28.74
1010.273	51.99
1010.435	30.68
1010.596	26.61
1010.758	31.06
1010.919	39.78
1011.081	2.39
1011.242	42.3
1011.403	48.31
1011.565	52.18
1011.726	44.24
1011.887	34.16
1012.049	2.97
1012.21	51.41
1012.371	78.34
1012.532	-29.58
1012.693	37.46
1012.855	7.04
1013.016	48.7
1013.177	46.56
1013.338	28.35
1013.499	108.37
1013.66	58.96
1013.821	51.8
1013.982	51.21
1014.143	64.19
1014.304	23.7
1014.465	63.03
1014.626	70.01
1014.787	35.71
1014.948	82.99
1015.109	-23.77
1015.27	83.76
1015.431	27
1015.592	16.34
1015.752	81.24
1015.913	26.8
1016.074	42.69
1016.235	39.98
1016.395	53.54
1016.556	13.63
1016.717	18.08
1016.877	58.19
1017.038	8.59
1017.199	37.26
1017.359	24.28
1017.52	18.08
1017.681	26.22
1017.841	43.27
1018.002	43.27
1018.162	21.38
1018.323	72.53
1018.483	7.23
1018.644	31.45
1018.804	-1.87
1018.964	-5.17
1019.125	14.21
1019.285	44.05
1019.446	4.52
1019.606	7.43
1019.766	-15.63
1019.926	58.96
1020.087	51.6
1020.247	11.5
1020.407	33
1020.567	77.95
1020.728	33.58
1020.888	2.58
1021.048	-4.78
1021.208	-15.24
1021.368	-6.52
1021.528	91.51
1021.688	64.19
1021.848	75.04
1022.008	20.21
1022.168	20.21
1022.328	5.88
1022.488	32.23
1022.648	11.88
1022.808	20.41
1022.968	52.76
1023.128	-11.37
1023.288	8.98
1023.448	24.28
1023.608	60.51
1023.767	46.18
1023.927	27.19
1024.087	1.61
1024.247	-8.85
1024.406	7.62
1024.566	1.81
1024.726	-5.75
1024.885	21.18
1025.045	43.27
1025.205	-4.59
1025.364	8.01
1025.524	36.49
1025.683	-5.55
1025.843	50.63
1026.003	26.41
1026.162	83.18
1026.321	55.67
1026.481	3.16
1026.64	13.24
1026.8	35.13
1026.959	43.66
1027.119	52.57
1027.278	7.43
1027.437	-1.68
1027.597	36.1
1027.756	26.03
1027.915	32.03
1028.074	34.36
1028.234	-15.05
1028.393	20.99
1028.552	4.71
1028.711	-61.16
1028.87	90.74
1029.03	-39.65
1029.189	3.36
1029.348	-53.41
1029.507	-8.46
1029.666	21.76
1029.825	-10.4
1029.984	-3.42
1030.143	38.62
1030.302	-13.89
1030.461	-43.14
1030.62	7.23
1030.779	52.96
1030.938	-10.01
1031.097	-2.07
1031.255	67.49
1031.414	51.21
1031.573	46.76
1031.732	2.39
1031.891	0.26
1032.049	62.26
1032.208	38.04
1032.367	-6.14
1032.525	-0.52
1032.684	0.26
1032.843	38.43
1033.001	-38.1
1033.16	148.67
1033.319	60.51
1033.477	47.73
1033.636	-7.49
1033.794	0.45
1033.953	71.94
1034.111	38.81
1034.27	-6.72
1034.428	21.57
1034.587	13.63
1034.745	25.45
1034.903	12.08
1035.062	39.59
1035.22	-22.41
1035.378	27
1035.537	-20.09
1035.695	48.11
1035.853	25.83
1036.011	55.86
1036.17	56.45
1036.328	-54.57
1036.486	16.34
1036.644	8.59
1036.802	-54.57
1036.96	-13.3
1037.119	-2.26
1037.277	-10.01
1037.435	-12.14
1037.593	6.07
1037.751	13.43
1037.909	39.2
1038.067	39.2
