Data from oakcork_FLMT105791__181__17-31-54-057.txt Node

Date: Mon Mar 20 17:31:54 GMT 2023
User: antho
Spectrometer: FLMT10579
Trigger mode: 0
Integration Time (sec): 1.000000E-1
Scans to average: 10
Electric dark correction enabled: true
Nonlinearity correction enabled: false
Boxcar width: 0
XAxis mode: Wavelengths
Number of Pixels in Spectrum: 3648
>>>>>Begin Spectral Data<<<<<
345.248	-172.48
345.464	-172.48
345.681	-172.48
345.898	-171.13
346.114	-152.33
346.331	-4.89
346.548	29.98
346.764	-5.67
346.981	-1.79
347.197	-12.84
347.414	-1.21
347.631	-19.42
347.847	28.82
348.064	9.64
348.28	15.06
348.497	-35.31
348.713	-2.37
348.93	-7.6
349.146	20.68
349.363	-21.75
349.579	42.19
349.796	-24.85
350.012	-20.39
350.229	47.42
350.445	-4.89
350.661	-7.8
350.878	3.25
351.094	-8.77
351.311	4.6
351.527	1.7
351.743	-28.34
351.96	40.06
352.176	47.42
352.392	13.71
352.609	14.48
352.825	20.88
353.041	14.29
353.257	2.08
353.474	2.66
353.69	11.38
353.906	11
354.122	-11.29
354.339	31.14
354.555	7.51
354.771	5.96
354.987	50.91
355.203	50.91
355.42	-7.6
355.636	-22.14
355.852	-28.72
356.068	25.91
356.284	-13.22
356.5	58.27
356.716	5.96
356.932	17.78
357.148	27.66
357.364	-3.54
357.58	46.64
357.796	9.83
358.012	19.71
358.228	22.81
358.444	-40.93
358.66	54.98
358.876	24.75
359.092	-26.01
359.308	18.94
359.524	27.27
359.74	-6.64
359.956	-21.75
360.172	1.11
360.388	48.97
360.604	-1.79
360.819	61.76
361.035	14.29
361.251	28.04
361.467	-13.8
361.683	48.39
361.898	25.14
362.114	35.02
362.33	6.73
362.546	35.6
362.762	11.19
362.977	6.73
363.193	-33.76
363.409	30.56
363.624	-8.19
363.84	-20
364.056	-6.25
364.271	15.65
364.487	-2.76
364.703	1.11
364.918	-20
365.134	19.52
365.35	10.22
365.565	105.93
365.781	-4.12
365.996	20.49
366.212	96.05
366.427	13.51
366.643	-26.59
366.858	-5.09
367.074	-37.44
367.289	25.14
367.505	110.97
367.72	-38.41
367.936	9.25
368.151	34.05
368.367	31.92
368.582	-1.79
368.798	3.05
369.013	72.99
369.228	14.48
369.444	39.86
369.659	42.19
369.874	51.68
370.09	74.16
370.305	-45.77
370.52	-3.15
370.736	41.99
370.951	18.36
371.166	50.52
371.381	88.49
371.597	32.5
371.812	-23.49
372.027	-9.15
372.242	19.91
372.458	63.31
372.673	-20.2
372.888	11
373.103	23.78
373.318	93.92
373.533	57.3
373.749	56.91
373.964	-19.42
374.179	88.3
374.394	3.25
374.609	56.14
374.824	-21.55
375.039	49.55
375.254	-4.5
375.469	53.04
375.684	38.51
375.899	48.19
376.114	21.26
376.329	38.51
376.544	39.48
376.759	50.33
376.974	-10.7
377.189	-4.31
377.404	4.8
377.619	57.3
377.834	-40.35
378.049	-23.88
378.264	-6.83
378.478	29.21
378.693	25.33
378.908	31.73
379.123	4.02
379.338	48.39
379.553	14.87
379.767	50.52
379.982	35.02
380.197	50.13
380.412	28.43
380.626	18.55
380.841	82.49
381.056	39.09
381.271	81.52
381.485	-15.55
381.7	-12.45
381.915	25.14
382.129	19.52
382.344	40.44
382.559	12.74
382.773	61.56
382.988	-22.72
383.202	-2.95
383.417	3.44
383.632	112.52
383.846	31.34
384.061	0.53
384.275	5.18
384.49	25.91
384.704	36.57
384.919	42.58
385.133	8.48
385.348	42.38
385.562	-7.99
385.777	64.08
385.991	30.76
386.206	5.76
386.42	15.84
386.634	53.62
386.849	41.22
387.063	30.37
387.277	-8.96
387.492	7.12
387.706	5.38
387.92	38.12
388.135	74.35
388.349	51.1
388.563	37.34
388.778	38.12
388.992	53.04
389.206	35.6
389.42	93.73
389.635	26.11
389.849	43.74
390.063	80.55
390.277	19.13
390.491	83.84
390.706	37.15
390.92	79.19
391.134	27.27
391.348	41.41
391.562	-11.09
391.776	16.42
391.99	0.92
392.205	71.64
392.419	-0.24
392.633	32.69
392.847	57.88
393.061	-3.15
393.275	89.08
393.489	28.82
393.703	31.73
393.917	61.76
394.131	7.12
394.345	33.86
394.559	90.24
394.773	26.3
394.986	52.65
395.2	36.96
395.414	72.41
395.628	-8.19
395.842	44.51
396.056	14.29
396.27	-24.85
396.484	50.71
396.697	27.27
396.911	89.27
397.125	48.39
397.339	76.29
397.553	37.73
397.766	88.49
397.98	70.67
398.194	85.98
398.408	28.24
398.621	49.36
398.835	62.34
399.049	53.62
399.262	81.52
399.476	43.16
399.69	52.07
399.903	123.37
400.117	66.6
400.331	80.16
400.544	50.52
400.758	146.42
400.971	46.84
401.185	94.5
401.398	13.71
401.612	83.07
401.826	51.1
402.039	92.37
402.253	51.88
402.466	74.16
402.68	20.68
402.893	59.43
403.106	67.96
403.32	65.05
403.533	60.01
403.747	58.27
403.96	49.16
404.174	98.96
404.387	19.33
404.6	30.56
404.814	99.73
405.027	70.67
405.24	69.7
405.454	33.66
405.667	80.55
405.88	-13.8
406.094	64.86
406.307	70.67
406.52	77.45
406.733	47.23
406.947	44.32
407.16	106.32
407.373	98.38
407.586	23.78
407.799	29.4
408.012	101.28
408.226	84.23
408.439	120.07
408.652	21.65
408.865	59.82
409.078	126.86
409.291	72.8
409.504	45.68
409.717	84.62
409.93	74.35
410.143	66.41
410.357	0.92
410.57	37.34
410.783	51.68
410.996	79.19
411.209	68.34
411.421	95.47
411.634	54.98
411.847	69.12
412.06	65.05
412.273	88.69
412.486	55.17
412.699	149.72
412.912	42.96
413.125	107.68
413.338	71.44
413.55	88.3
413.763	65.24
413.976	82.1
414.189	41.99
414.402	60.4
414.615	95.66
414.827	29.21
415.04	108.84
415.253	91.59
415.466	97.21
415.678	154.56
415.891	76.68
416.104	82.49
416.316	55.94
416.529	41.41
416.742	74.93
416.954	102.25
417.167	91.79
417.38	95.08
417.592	121.62
417.805	43.54
418.017	27.85
418.23	103.41
418.442	63.31
418.655	89.27
418.868	62.92
419.08	97.02
419.293	127.44
419.505	82.49
419.718	97.21
419.93	131.51
420.142	71.44
420.355	100.31
420.567	114.07
420.78	115.04
420.992	99.73
421.205	134.41
421.417	17.97
421.629	48.58
421.842	57.3
422.054	44.9
422.266	118.14
422.479	120.27
422.691	83.07
422.903	97.6
423.115	42.19
423.328	67.96
423.54	59.43
423.752	72.03
423.964	58.66
424.177	87.33
424.389	70.67
424.601	209.78
424.813	111.36
425.025	123.17
425.238	122.01
425.45	80.36
425.662	106.32
425.874	342.69
426.086	87.72
426.298	115.81
426.51	98.38
426.722	71.44
426.934	67.57
427.146	104.77
427.358	55.56
427.57	101.09
427.782	87.72
427.994	95.28
428.206	66.41
428.418	60.01
428.63	101.09
428.842	137.51
429.054	93.92
429.266	134.41
429.478	60.4
429.69	74.93
429.902	49.74
430.114	118.52
430.325	92.76
430.537	97.41
430.749	75.9
430.961	31.92
431.173	78.03
431.384	120.07
431.596	24.94
431.808	82.29
432.02	120.07
432.231	107.87
432.443	105.74
432.655	124.92
432.867	71.06
433.078	112.13
433.29	150.69
433.502	114.46
433.713	124.14
433.925	109.22
434.136	152.24
434.348	74.35
434.56	50.13
434.771	180.91
434.983	79
435.194	82.49
435.406	94.5
435.617	132.86
435.829	146.04
436.04	152.62
436.252	156.5
436.463	170.06
436.675	120.07
436.886	98.76
437.098	117.17
437.309	168.32
437.521	125.5
437.732	130.34
437.943	104.77
438.155	117.75
438.366	82.1
438.578	167.74
438.789	132.67
439	114.07
439.211	101.28
439.423	116.59
439.634	141.77
439.845	141.58
440.057	110.77
440.268	172.77
440.479	106.13
440.69	144.49
440.902	120.85
441.113	118.91
441.324	109.22
441.535	139.84
441.746	164.83
441.957	119.11
442.168	113.87
442.38	127.44
442.591	146.04
442.802	90.24
443.013	118.72
443.224	128.02
443.435	118.72
443.646	115.23
443.857	112.13
444.068	126.86
444.279	95.86
444.49	200.29
444.701	111.94
444.912	235.94
445.123	167.16
445.334	155.72
445.545	141.77
445.756	149.52
445.967	111.55
446.178	133.25
446.388	182.27
446.599	168.32
446.81	163.09
447.021	132.28
447.232	169.87
447.443	166.57
447.653	123.76
447.864	206.68
448.075	144.29
448.286	178.97
448.496	159.99
448.707	172.39
448.918	152.24
449.129	259.38
449.339	148.94
449.55	166.77
449.761	122.98
449.971	209.59
450.182	131.7
450.393	194.67
450.603	116.59
450.814	195.64
451.024	195.06
451.235	184.98
451.446	203.39
451.656	219.66
451.867	159.99
452.077	176.65
452.288	225.86
452.498	201.45
452.709	164.44
452.919	187.31
453.13	153.21
453.34	220.63
453.55	146.81
453.761	220.24
453.971	175.29
454.182	171.81
454.392	174.71
454.602	232.25
454.813	210.17
455.023	217.72
455.233	144.49
455.444	167.74
455.654	137.51
455.864	155.14
456.075	157.66
456.285	159.41
456.495	174.52
456.705	185.17
456.916	212.3
457.126	219.27
457.336	182.66
457.546	115.23
457.756	162.12
457.967	236.71
458.177	165.61
458.387	170.06
458.597	149.14
458.807	171.42
459.017	199.32
459.227	204.16
459.437	144.87
459.647	227.02
459.857	201.64
460.068	169.48
460.278	220.44
460.488	186.92
460.698	222.37
460.908	200.87
461.117	163.09
461.327	173.55
461.537	209.78
461.747	206.29
461.957	194.67
462.167	289.99
462.377	218.69
462.587	187.69
462.797	250.27
463.007	205.13
463.216	237.49
463.426	242.52
463.636	226.05
463.846	156.5
464.056	167.93
464.265	233.8
464.475	169.87
464.685	191.96
464.895	206.49
465.104	210.75
465.314	210.17
465.524	203.97
465.733	175.29
465.943	246.01
466.153	242.91
466.362	227.22
466.572	215.59
466.782	169.67
466.991	208.04
467.201	303.75
467.41	162.51
467.62	231.67
467.829	188.86
468.039	227.8
468.249	225.86
468.458	213.46
468.668	226.05
468.877	223.15
469.086	278.37
469.296	244.46
469.505	191.57
469.715	259.77
469.924	237.49
470.134	267.9
470.343	286.5
470.552	227.6
470.762	229.15
470.971	191.76
471.18	227.22
471.39	220.05
471.599	192.34
471.808	262.48
472.018	207.07
472.227	247.56
472.436	264.42
472.645	241.55
472.855	235.16
473.064	273.72
473.273	240
473.482	252.6
473.691	301.62
473.901	279.53
474.11	257.05
474.319	315.37
474.528	259.57
474.737	283.99
474.946	267.71
475.155	276.04
475.364	285.15
475.573	288.83
475.783	255.7
475.992	273.72
476.201	292.32
476.41	238.26
476.619	227.6
476.828	259.38
477.037	256.86
477.245	269.26
477.454	310.72
477.663	268.49
477.872	246.4
478.081	311.5
478.29	238.26
478.499	348.31
478.708	266.74
478.917	342.69
479.125	271.39
479.334	296.19
479.543	279.72
479.752	296.58
479.961	321.18
480.169	303.94
480.378	286.5
480.587	371.75
480.796	311.11
481.004	316.53
481.213	335.91
481.422	324.67
481.63	305.68
481.839	350.83
482.048	373.69
482.256	333.2
482.465	349.08
482.674	357.22
482.882	351.02
483.091	387.06
483.299	321.38
483.508	393.06
483.716	311.3
483.925	342.5
484.134	319.05
484.342	314.21
484.551	367.49
484.759	370.98
484.967	366.91
485.176	353.54
485.384	338.43
485.593	388.8
485.801	368.27
486.01	352.57
486.218	342.88
486.426	289.22
486.635	316.73
486.843	330.87
487.051	359.74
487.26	316.34
487.468	357.61
487.676	373.88
487.885	338.43
488.093	351.99
488.301	379.11
488.509	352.77
488.717	379.31
488.926	355.09
489.134	347.34
489.342	373.5
489.55	337.07
489.758	378.53
489.967	345.98
490.175	471.73
490.383	365.75
490.591	406.24
490.799	342.3
491.007	434.72
491.215	424.45
491.423	341.72
491.631	386.67
491.839	388.61
492.047	434.72
492.255	370.2
492.463	347.92
492.671	377.95
492.879	440.34
493.087	396.75
493.295	403.14
493.503	415.35
493.711	432.01
493.919	444.41
494.127	452.74
494.334	445.76
494.542	395.97
494.75	428.71
494.958	401.78
495.166	457
495.374	446.73
495.581	440.15
495.789	456.42
495.997	474.05
496.205	422.32
496.412	409.73
496.62	410.7
496.828	448.09
497.035	431.62
497.243	467.46
497.451	454.87
497.658	432.4
497.866	451.38
498.074	491.88
498.281	393.26
498.489	520.55
498.696	444.99
498.904	398.1
499.112	435.5
499.319	501.76
499.527	447.31
499.734	492.65
499.942	391.9
500.149	433.56
500.357	478.31
500.564	438.4
500.771	451.38
500.979	420.96
501.186	447.31
501.394	452.35
501.601	459.71
501.808	489.55
502.016	474.05
502.223	452.16
502.43	443.83
502.638	469.79
502.845	424.65
503.052	512.41
503.26	445.96
503.467	542.25
503.674	439.95
503.881	482.96
504.089	546.32
504.296	503.89
504.503	442.66
504.71	492.26
504.917	445.57
505.125	486.26
505.332	497.11
505.539	496.33
505.746	514.93
505.953	472.89
506.16	507.96
506.367	537.79
506.574	560.27
506.781	534.5
506.988	476.96
507.195	509.51
507.402	518.03
507.609	545.93
507.816	517.06
508.023	526.36
508.23	518.42
508.437	483.35
508.644	542.64
508.851	578.48
509.058	549.42
509.265	525.59
509.472	536.05
509.679	615.87
509.885	535.66
510.092	533.53
510.299	535.86
510.506	566.27
510.713	536.24
510.92	569.96
511.126	573.64
511.333	596.5
511.54	609.87
511.746	607.54
511.953	617.04
512.16	624.21
512.367	577.51
512.573	575.19
512.78	581.97
512.987	573.06
513.193	585.07
513.4	543.99
513.606	570.54
513.813	580.42
514.02	606.57
514.226	630.6
514.433	613.36
514.639	567.82
514.846	627.11
515.052	581.58
515.259	599.79
515.465	590.11
515.672	632.34
515.878	692.6
516.085	602.89
516.291	653.46
516.497	590.88
516.704	594.37
516.91	570.92
517.117	555.23
517.323	525.01
517.529	574.8
517.736	586.04
517.942	597.86
518.148	570.92
518.354	590.49
518.561	616.26
518.767	608.71
518.973	635.83
519.179	643.97
519.386	629.63
519.592	595.53
519.798	632.15
520.004	670.9
520.21	628.08
520.417	665.86
520.623	716.04
520.829	701.9
521.035	687.95
521.241	691.63
521.447	724.18
521.653	784.24
521.859	719.14
522.065	729.22
522.271	803.03
522.477	764.48
522.683	786.18
522.889	763.9
523.095	778.62
523.301	763.9
523.507	728.83
523.713	766.61
523.919	731.54
524.125	785.02
524.331	725.53
524.537	813.88
524.742	794.7
524.948	816.01
525.154	825.12
525.36	900.29
525.566	821.05
525.772	897.78
525.977	785.98
526.183	839.85
526.389	860.58
526.595	798.97
526.8	798.38
527.006	774.55
527.212	754.79
527.417	742.39
527.623	768.55
527.829	817.37
528.034	819.7
528.24	819.11
528.446	815.43
528.651	899.33
528.857	854.38
529.062	883.25
529.268	862.9
529.473	902.23
529.679	874.14
529.884	949.51
530.09	942.73
530.295	934.78
530.501	919.48
530.706	933.62
530.912	900.49
531.117	887.51
531.323	908.63
531.528	927.61
531.733	953.58
531.939	908.04
532.144	956.87
532.35	925.87
532.555	976.63
532.76	963.46
532.966	965.59
533.171	925.87
533.376	915.6
533.581	903.2
533.787	961.33
533.992	939.04
534.197	974.69
534.402	956.09
534.607	970.43
534.813	1017.32
535.018	965.01
535.223	959.19
535.428	974.31
535.633	1017.32
535.838	1014.99
536.043	1000.85
536.249	1059.56
536.454	972.76
536.659	995.62
536.864	970.43
537.069	1024.1
537.274	1005.11
537.479	1052.58
537.684	1005.89
537.889	940.59
538.094	1076.41
538.299	1042.12
538.504	1054.91
538.708	1011.89
538.913	1037.86
539.118	1008.99
539.323	1068.66
539.528	1009.37
539.733	1002.79
539.938	1027.97
540.142	1057.42
540.347	1028.36
540.552	1013.83
540.757	1020.22
540.962	1015.57
541.166	979.73
541.371	1002.79
541.576	1001.82
541.781	947.96
541.985	1025.26
542.19	1012.47
542.395	1089
542.599	1089.39
542.804	1078.15
543.008	1103.15
543.213	1048.32
543.418	1021
543.622	1045.22
543.827	1020.03
544.031	1084.74
544.236	1103.54
544.44	1029.91
544.645	1141.12
544.849	1070.6
545.054	1071.18
545.258	1135.7
545.463	1136.47
545.667	1050.06
545.872	1085.32
546.076	1131.24
546.281	1093.46
546.485	1069.05
546.689	1092.49
546.894	1164.76
547.098	1107.99
547.302	1061.49
547.507	1080.09
547.711	1086.87
547.915	1117.68
548.119	1063.04
548.324	1095.01
548.528	1108.77
548.732	1096.37
548.936	1130.08
549.141	1155.65
549.345	1079.51
549.549	1116.13
549.753	1111.29
549.957	1172.9
550.161	1145.97
550.366	1121.75
550.57	1096.75
550.774	1120.2
550.978	1109.35
551.182	1131.05
551.386	1093.46
551.59	1094.82
551.794	1112.84
551.998	1164.18
552.202	1126.98
552.406	1110.12
552.61	1121.75
552.814	1103.54
553.018	1182.97
553.222	1100.44
553.426	1081.64
553.63	1194.98
553.833	1104.12
554.037	1088.81
554.241	1161.47
554.445	1112.45
554.649	1105.47
554.853	1094.62
555.056	1147.52
555.26	1172.32
555.464	1163.6
555.668	1104.5
555.871	1144.22
556.075	1141.7
556.279	1110.9
556.483	1091.33
556.686	1112.06
556.89	1102.37
557.094	1135.89
557.297	1077.38
557.501	1162.82
557.704	1053.94
557.908	1147.52
558.112	1079.12
558.315	1159.14
558.519	1063.43
558.722	1108.77
558.926	1106.44
559.129	1039.6
559.333	1015.38
559.536	1035.92
559.74	1021.58
559.943	1016.74
560.147	995.04
560.35	1040.96
560.553	1053.36
560.757	999.49
560.96	1075.44
561.164	1006.08
561.367	1094.24
561.57	1021.77
561.774	1066.92
561.977	1058.2
562.18	990.97
562.384	1122.91
562.587	1058.97
562.79	1041.34
562.993	1042.7
563.197	1078.93
563.4	1119.42
563.603	1102.57
563.806	1124.07
564.009	1027.59
564.212	1043.67
564.416	976.63
564.619	1037.08
564.822	999.3
565.025	1045.99
565.228	1016.54
565.431	1017.12
565.634	945.44
565.837	978.96
566.04	952.99
566.243	969.85
566.446	880.73
566.649	982.44
566.852	954.16
567.055	958.61
567.258	989.22
567.461	1009.76
567.664	1022.36
567.867	907.27
568.07	963.84
568.273	989.03
568.475	995.81
568.678	946.99
568.881	940.59
569.084	949.89
569.287	842.17
569.489	878.01
569.692	953.58
569.895	947.76
570.098	884.02
570.3	861.35
570.503	816.98
570.706	889.25
570.909	877.82
571.111	830.35
571.314	834.81
571.516	862.51
571.719	875.11
571.922	863.48
572.124	837.13
572.327	872.4
572.529	821.63
572.732	810.2
572.935	853.02
573.137	914.63
573.34	821.83
573.542	863.1
573.745	872.78
573.947	853.8
574.15	837.91
574.352	812.72
574.554	878.21
574.757	785.79
574.959	802.26
575.162	767.38
575.364	791.8
575.566	894.87
575.769	788.31
575.971	806.52
576.173	730.57
576.376	805.55
576.578	804.97
576.78	864.84
576.982	717.59
577.185	772.42
577.387	759.05
577.589	739.29
577.791	780.37
577.993	787.34
578.196	766.8
578.398	796.45
578.6	802.84
578.802	736.19
579.004	739.29
579.206	726.7
579.408	773.39
579.61	738.52
579.812	805.36
580.014	744.72
580.216	748.98
580.418	726.12
580.62	723.79
580.822	699.57
581.024	760.22
581.226	796.83
581.428	740.07
581.63	803.23
581.832	741.23
582.034	768.35
582.236	765.45
582.438	772.23
582.64	815.63
582.841	816.98
583.043	861.74
583.245	781.53
583.447	777.85
583.649	773.2
583.85	790.83
584.052	777.65
584.254	748.59
584.456	790.05
584.657	719.53
584.859	740.26
585.061	751.3
585.262	740.26
585.464	726.12
585.666	763.51
585.867	730.57
586.069	791.99
586.27	735.22
586.472	748.2
586.674	721.27
586.875	710.23
587.077	704.42
587.278	750.53
587.48	716.04
587.681	816.01
587.883	735.8
588.084	665.86
588.285	714.88
588.487	687.95
588.688	709.65
588.89	664.12
589.091	670.32
589.292	682.91
589.494	637.38
589.695	642.22
589.896	569.37
590.098	606.19
590.299	661.4
590.5	644.74
590.702	618.78
590.903	646.1
591.104	699.96
591.305	666.25
591.507	739.68
591.708	695.7
591.909	666.44
592.11	754.79
592.311	689.3
592.512	656.56
592.714	628.08
592.915	646.87
593.116	619.17
593.317	658.3
593.518	639.51
593.719	650.55
593.92	678.45
594.121	701.12
594.322	668.77
594.523	679.81
594.724	618.97
594.925	658.89
595.126	697.64
595.327	674.39
595.528	678.65
595.729	659.27
595.929	648.42
596.13	654.82
596.331	686.01
596.532	694.34
596.733	711.97
596.934	711.2
597.135	688.53
597.335	686.01
597.536	682.91
597.737	669.54
597.938	643.58
598.138	679.62
598.339	671.48
598.54	652.1
598.74	654.82
598.941	639.9
599.142	714.88
599.342	668.57
599.543	629.63
599.744	646.68
599.944	640.48
600.145	636.99
600.345	652.1
600.546	734.45
600.746	719.53
600.947	761.57
601.147	686.4
601.348	690.85
601.548	628.86
601.749	671.48
601.949	623.43
602.15	633.12
602.35	658.89
602.551	687.56
602.751	609.48
602.951	655.98
603.152	582.36
603.352	678.65
603.552	627.69
603.753	704.61
603.953	699.96
604.153	637.38
604.354	639.9
604.554	640.09
604.754	645.9
604.954	629.82
605.155	652.49
605.355	612.77
605.555	678.45
605.755	698.22
605.955	651.14
606.155	646.87
606.356	645.13
606.556	672.64
606.756	668.96
606.956	627.89
607.156	683.1
607.356	618.97
607.556	655.4
607.756	658.5
607.956	680
608.156	653.46
608.356	662.95
608.556	650.55
608.756	635.83
608.956	595.34
609.156	634.67
609.356	625.37
609.556	593.59
609.755	624.4
609.955	618.59
610.155	623.82
610.355	643.19
610.555	612.39
610.755	626.14
610.954	567.44
611.154	626.14
611.354	653.46
611.554	615.29
611.753	591.66
611.953	558.72
612.153	634.09
612.352	627.5
612.552	580.42
612.752	530.24
612.951	596.31
613.151	613.55
613.351	593.01
613.55	569.96
613.75	638.93
613.949	573.25
614.149	601.15
614.348	600.76
614.548	542.06
614.747	550.39
614.947	550.19
615.146	519.58
615.346	613.16
615.545	581.39
615.745	590.3
615.944	584.87
616.144	551.36
616.343	609.29
616.542	541.09
616.742	585.65
616.941	566.47
617.14	510.67
617.34	547.29
617.539	542.64
617.738	506.79
617.938	604.83
618.137	542.25
618.336	530.82
618.535	586.04
618.734	540.7
618.934	575.96
619.133	571.89
619.332	564.72
619.531	526.56
619.73	535.86
619.929	577.51
620.128	552.71
620.328	578.48
620.527	525.2
620.726	540.89
620.925	548.64
621.124	544.96
621.323	584.49
621.522	516.29
621.721	511.83
621.92	486.06
622.119	561.04
622.318	511.25
622.517	540.89
622.715	522.68
622.914	494.98
623.113	568.02
623.312	470.56
623.511	531.79
623.71	532.37
623.909	531.4
624.107	548.64
624.306	480.44
624.505	488
624.704	488.58
624.902	465.33
625.101	539.93
625.3	530.04
625.499	476.96
625.697	508.15
625.896	444.6
626.095	532.95
626.293	507.57
626.492	483.35
626.69	530.24
626.889	454.29
627.088	547.09
627.286	472.31
627.485	496.33
627.683	489.94
627.882	488.19
628.08	420.77
628.279	486.26
628.477	538.76
628.676	487.03
628.874	485.09
629.073	479.28
629.271	443.63
629.469	475.79
629.668	442.47
629.866	501.37
630.065	460.68
630.263	487.23
630.461	439.18
630.66	479.48
630.858	483.16
631.056	514.93
631.254	496.91
631.453	461.65
631.651	487.61
631.849	475.21
632.047	484.9
632.245	488.97
632.444	511.83
632.642	460.1
632.84	489.94
633.038	473.47
633.236	447.12
633.434	470.18
633.632	435.88
633.83	466.88
634.028	500.98
634.227	462.62
634.425	528.49
634.623	525.2
634.821	497.69
635.019	479.48
635.216	463.98
635.414	497.69
635.612	497.49
635.81	462.43
636.008	538.38
636.206	478.89
636.404	489.74
636.602	424.84
636.8	473.28
636.997	487.81
637.195	482.19
637.393	469.59
637.591	533.73
637.789	461.07
637.986	478.89
638.184	475.02
638.382	509.7
638.58	509.89
638.777	535.47
638.975	474.83
639.173	470.18
639.37	450.03
639.568	516.48
639.765	474.63
639.963	468.63
640.161	504.47
640.358	500.21
640.556	437.43
640.753	432.59
640.951	457.97
641.148	464.36
641.346	454.1
641.543	443.25
641.741	492.65
641.938	437.24
642.136	455.84
642.333	439.37
642.531	513.19
642.728	510.09
642.925	460.29
643.123	437.82
643.32	471.92
643.517	412.05
643.715	457
643.912	424.06
644.109	467.46
644.306	453.32
644.504	395.97
644.701	436.27
644.898	459.33
645.095	423.29
645.293	456.81
645.49	469.79
645.687	425.61
645.884	458.36
646.081	393.65
646.278	426.78
646.475	416.31
646.672	419.03
646.87	469.98
647.067	435.11
647.264	427.36
647.461	403.53
647.658	374.46
647.855	415.54
648.052	419.03
648.249	360.9
648.446	422.32
648.642	386.09
648.839	382.21
649.036	389.58
649.233	372.14
649.43	389.58
649.627	372.33
649.824	399.85
650.021	365.75
650.217	370.78
650.414	376.79
650.611	394.42
650.808	411.66
651.004	395
651.201	392.68
651.398	450.03
651.595	383.76
651.791	379.11
651.988	414.38
652.185	358.97
652.381	399.07
652.578	361.87
652.775	396.94
652.971	364.58
653.168	385.12
653.364	408.56
653.561	325.45
653.757	379.31
653.954	378.73
654.15	354.32
654.347	458.94
654.543	369.23
654.74	322.15
654.936	332.42
655.133	408.56
655.329	398.3
655.525	373.69
655.722	390.55
655.918	372.33
656.115	360.71
656.311	351.41
656.507	311.88
656.704	287.67
656.9	326.03
657.096	314.21
657.292	292.9
657.489	362.26
657.685	359.93
657.881	317.31
658.077	358
658.273	309.95
658.47	399.65
658.666	329.9
658.862	372.53
659.058	340.17
659.254	379.11
659.45	350.05
659.646	345.02
659.842	348.12
660.038	408.18
660.234	328.55
660.43	351.99
660.626	399.07
660.822	388.61
661.018	372.91
661.214	367.49
661.41	334.75
661.606	374.46
661.802	392.68
661.998	353.35
662.194	303.75
662.39	377.76
662.586	364.58
662.781	379.5
662.977	370.2
663.173	394.61
663.369	363.62
663.564	342.5
663.76	384.35
663.956	333.78
664.152	391.71
664.347	274.3
664.543	338.82
664.739	312.66
664.934	315.57
665.13	287.47
665.326	364.97
665.521	334.17
665.717	332.42
665.912	314.6
666.108	261.51
666.304	307.23
666.499	312.47
666.695	275.27
666.89	326.61
667.086	353.93
667.281	340.37
667.477	391.9
667.672	346.76
667.867	325.64
668.063	298.13
668.258	318.47
668.454	328.93
668.649	375.43
668.844	296.77
669.04	341.72
669.235	308.2
669.43	293.87
669.626	299.87
669.821	287.86
670.016	300.65
670.211	292.51
670.407	270.23
670.602	324.67
670.797	290.77
670.992	343.47
671.187	293.28
671.382	356.83
671.578	277.01
671.773	322.15
671.968	269.07
672.163	307.62
672.358	332.42
672.553	277.79
672.748	287.28
672.943	357.8
673.138	311.5
673.333	342.88
673.528	279.14
673.723	308.59
673.918	299.48
674.113	236.13
674.308	359.35
674.503	294.45
674.698	326.8
674.892	328.16
675.087	338.43
675.282	321.18
675.477	259.96
675.672	294.25
675.867	302.39
676.061	267.13
676.256	244.27
676.451	281.27
676.646	307.43
676.84	272.17
677.035	261.32
677.23	274.88
677.424	321.57
677.619	303.55
677.814	321.57
678.008	313.63
678.203	240.97
678.397	280.5
678.592	320.02
678.787	349.86
678.981	277.4
679.176	323.32
679.37	279.92
679.565	275.65
679.759	276.62
679.954	328.55
680.148	332.23
680.342	312.85
680.537	323.12
680.731	267.13
680.926	290.57
681.12	328.93
681.314	285.73
681.509	305.3
681.703	302.78
681.897	339.78
682.092	265.19
682.286	250.85
682.48	365.17
682.674	343.27
682.869	268.29
683.063	307.62
683.257	356.83
683.451	252.4
683.645	320.99
683.839	310.92
684.034	317.12
684.228	322.15
684.422	279.34
684.616	279.53
684.81	334.36
685.004	285.15
685.198	267.13
685.392	330.87
685.586	291.73
685.78	299.48
685.974	336.1
686.168	331.45
686.362	352.38
686.556	281.27
686.75	252.02
686.944	276.04
687.138	320.41
687.331	254.34
687.525	281.66
687.719	223.15
687.913	245.82
688.107	278.37
688.301	242.91
688.494	294.83
688.688	236.13
688.882	236.32
689.076	218.3
689.269	251.05
689.463	343.27
689.657	271.2
689.85	239.42
690.044	260.15
690.238	276.43
690.431	255.89
690.625	283.79
690.818	296.58
691.012	296.77
691.205	304.52
691.399	273.14
691.593	318.86
691.786	360.9
691.98	336.68
692.173	383.96
692.366	325.25
692.56	337.07
692.753	405.85
692.947	328.93
693.14	377.76
693.333	370.98
693.527	296.97
693.72	393.26
693.914	324.87
694.107	370.78
694.3	384.54
694.493	366.33
694.687	421.35
694.88	348.7
695.073	413.8
695.266	401.59
695.46	380.66
695.653	429.49
695.846	427.36
696.039	363.23
696.232	406.05
696.425	425.81
696.618	378.53
696.812	415.35
697.005	468.24
697.198	559.69
697.391	479.28
697.584	481.61
697.777	543.41
697.97	530.82
698.163	543.99
698.356	510.48
698.549	557.75
698.742	536.24
698.935	484.9
699.127	539.93
699.32	506.21
699.513	497.88
699.706	540.31
699.899	573.64
700.092	540.7
700.285	580.81
700.477	523.26
700.67	585.07
700.863	603.09
701.056	662.57
701.248	648.81
701.441	632.54
701.634	604.06
701.826	695.31
702.019	605.99
702.212	638.54
702.404	610.64
702.597	621.11
702.79	616.65
702.982	647.45
703.175	717.98
703.367	712.55
703.56	702.29
703.752	807.3
703.945	733.48
704.137	750.53
704.33	761.18
704.522	804.97
704.715	763.32
704.907	794.12
705.1	839.85
705.292	853.41
705.484	816.21
705.677	867.55
705.869	871.43
706.061	866.39
706.254	937.49
706.446	895.45
706.638	889.83
706.831	939.63
707.023	924.32
707.215	980.31
707.407	958.61
707.599	959.58
707.792	1000.27
707.984	1013.06
708.176	1028.36
708.368	999.11
708.56	1032.62
708.752	1007.24
708.944	1010.15
709.136	1032.24
709.329	1041.92
709.521	1151
709.713	1129.89
709.905	1123.49
710.097	1144.03
710.289	1106.83
710.481	1109.93
710.672	1145
710.864	1137.83
711.056	1207.97
711.248	1182.39
711.44	1213.78
711.632	1195.76
711.824	1223.27
712.016	1317.24
712.207	1293.99
712.399	1238.19
712.591	1329.06
712.783	1300.96
712.975	1334.29
713.166	1271.13
713.358	1323.63
713.55	1375.36
713.741	1349.01
713.933	1381.37
714.125	1366.06
714.316	1358.12
714.508	1409.46
714.7	1432.13
714.891	1436.59
715.083	1511.18
715.274	1445.31
715.466	1427.29
715.657	1510.02
715.849	1400.16
716.04	1452.86
716.232	1430.19
716.423	1464.1
716.615	1420.7
716.806	1395.51
716.998	1365.09
717.189	1346.49
717.381	1247.49
717.572	1253.3
717.763	1294.96
717.955	1265.12
718.146	1267.06
718.337	1242.26
718.528	1200.99
718.72	1123.1
718.911	1237.03
719.102	1179.68
719.293	1207.58
719.485	1181.03
719.676	1209.71
719.867	1174.83
720.058	1171.54
720.249	1182.97
720.44	1222.11
720.632	1244.2
720.823	1306.58
721.014	1410.24
721.205	1382.34
721.396	1490.84
721.587	1563.88
721.778	1572.99
721.969	1611.93
722.16	1683.03
722.351	1671.02
722.542	1795.6
722.733	1747.36
722.924	1705.12
723.115	1781.07
723.305	1741.74
723.496	1771.96
723.687	1647.77
723.878	1662.88
724.069	1679.93
724.26	1667.92
724.45	1637.12
724.641	1635.57
724.832	1681.1
725.023	1694.85
725.213	1645.45
725.404	1631.11
725.595	1687.3
725.785	1666.76
725.976	1754.53
726.167	1720.23
726.357	1720.62
726.548	1837.06
726.739	1746.78
726.929	1825.05
727.12	1861.86
727.31	1873.29
727.501	1806.26
727.691	1830.67
727.882	1865.35
728.072	1864.77
728.263	1912.43
728.453	1969.59
728.644	1914.76
728.834	1927.16
729.024	1909.52
729.215	1880.46
729.405	1961.64
729.596	2010.27
729.786	2008.14
729.976	2040.11
730.167	2063.94
730.357	2023.06
730.547	2052.12
730.737	2100.56
730.928	2138.73
731.118	2149.58
731.308	2073.82
731.498	2110.05
731.688	2226.69
731.879	2204.21
732.069	2288.3
732.259	2329.57
732.449	2320.66
732.639	2405.52
732.829	2440.78
733.019	2464.8
733.209	2514.79
733.399	2554.12
733.589	2599.65
733.779	2622.13
733.969	2644.79
734.159	2706.41
734.349	2738.96
734.539	2766.86
734.729	2738.37
734.919	2842.42
735.109	2852.1
735.299	2781.58
735.488	2827.5
735.678	2798.44
735.868	2843.77
736.058	2868.77
736.248	2831.37
736.437	2809.48
736.627	2811.42
736.817	2905.58
737.007	2879.81
737.196	2928.25
737.386	2941.03
737.576	2891.63
737.765	2955.76
737.955	2960.02
738.144	3068.52
738.334	3043.14
738.524	2973.39
738.713	3027.45
738.903	3002.06
739.092	3064.26
739.282	3038.68
739.471	3092.35
739.661	3082.28
739.85	3127.61
740.04	3127.23
740.229	3164.43
740.419	3212.67
740.608	3191.55
740.797	3163.46
740.987	3266.34
741.176	3227.2
741.365	3196.97
741.555	3151.25
741.744	3331.05
741.933	3263.43
742.123	3294.04
742.312	3313.61
742.501	3344.61
742.69	3339.19
742.88	3261.49
743.069	3367.28
743.258	3366.31
743.447	3383.94
743.636	3396.73
743.825	3389.17
744.014	3380.26
744.204	3413
744.393	3383.55
744.582	3491.47
744.771	3450.2
744.96	3410.48
745.149	3463.57
745.338	3420.75
745.527	3498.06
745.716	3430.05
745.905	3409.9
746.094	3506.97
746.283	3496.9
746.471	3504.45
746.66	3534.87
746.849	3549.59
747.038	3527.89
747.227	3497.67
747.416	3519.56
747.604	3498.64
747.793	3483.53
747.982	3517.63
748.171	3581.76
748.359	3568.39
748.548	3539.13
748.737	3539.33
748.926	3512.2
749.114	3435.67
749.303	3555.99
749.491	3551.34
749.68	3459.89
749.869	3550.37
750.057	3520.34
750.246	3476.55
750.434	3506.58
750.623	3510.65
750.811	3492.44
751	3573.04
751.188	3551.92
751.377	3515.69
751.565	3489.15
751.754	3490.31
751.942	3460.86
752.131	3558.7
752.319	3474.81
752.507	3452.14
752.696	3538.36
752.884	3515.11
753.072	3498.64
753.261	3518.4
753.449	3479.26
753.637	3460.66
753.825	3594.54
754.014	3550.76
754.202	3514.53
754.39	3542.04
754.578	3542.43
754.766	3431.99
754.955	3442.84
755.143	3568.19
755.331	3517.04
755.519	3477.33
755.707	3525.57
755.895	3455.24
756.083	3501.16
756.271	3475.97
756.459	3416.1
756.647	3478.3
756.835	3446.13
757.023	3461.44
757.211	3482.36
757.399	3486.43
757.587	3439.93
757.775	3395.95
757.963	3422.11
758.151	3442.65
758.339	3345.97
758.526	3392.66
758.714	3391.88
758.902	3278.54
759.09	3172.76
759.278	2974.55
759.465	2718.81
759.653	2347.39
759.841	2166.82
760.028	1868.26
760.216	1623.75
760.404	1488.71
760.591	1244.58
760.779	1082.61
760.967	898.55
761.154	759.05
761.342	794.12
761.529	793.93
761.717	839.46
761.905	835.39
762.092	889.64
762.28	803.62
762.467	815.24
762.655	769.13
762.842	814.08
763.029	814.08
763.217	813.88
763.404	789.67
763.592	827.83
763.779	786.95
763.966	871.62
764.154	854.76
764.341	942.53
764.528	954.35
764.716	1013.83
764.903	1058.01
765.09	1142.67
765.277	1201.96
765.465	1333.51
765.652	1427.48
765.839	1478.44
766.026	1605.53
766.213	1640.6
766.4	1780.29
766.588	1959.9
766.775	1962.22
766.962	2057.16
767.149	2157.91
767.336	2334.41
767.523	2313.68
767.71	2444.85
767.897	2529.71
768.084	2611.47
768.271	2639.76
768.458	2720.74
768.645	2778.09
768.832	2757.56
769.019	2824.01
769.206	2877.49
769.392	2916.04
769.579	2985.6
769.766	2945.68
769.953	2932.7
770.14	3003.81
770.327	3001.87
770.513	3083.24
770.7	3130.71
770.887	3016.6
771.073	3103.59
771.26	3060.77
771.447	3055.15
771.634	3037.91
771.82	3129.55
772.007	3036.36
772.193	3069.88
772.38	3080.53
772.567	3106.88
772.753	3062.32
772.94	3164.62
773.126	3145.44
773.313	3141.18
773.499	3124.32
773.686	3147.18
773.872	3054.96
774.059	3132.07
774.245	3084.41
774.432	3070.07
774.618	2988.5
774.804	3067.16
774.991	3013.88
775.177	3081.11
775.363	3014.08
775.55	3074.53
775.736	3041.2
775.922	2996.25
776.109	3083.05
776.295	3015.63
776.481	3040.04
776.667	3075.5
776.853	3027.64
777.04	2987.53
777.226	2998.58
777.412	3098.16
777.598	2990.25
777.784	2984.63
777.97	2980.75
778.156	2997.22
778.342	2988.31
778.528	2982.5
778.715	2918.37
778.901	2933.48
779.087	2994.12
779.272	2932.9
779.458	2917.78
779.644	2924.57
779.83	2886.79
780.016	2982.88
780.202	2961.18
780.388	2937.55
780.574	2893.37
780.76	2900.93
780.946	2889.89
781.131	2873.8
781.317	2910.62
781.503	2903.84
781.689	2854.24
781.874	2979.4
782.06	2853.46
782.246	2856.95
782.432	2859.85
782.617	2857.14
782.803	2894.34
782.989	2795.14
783.174	2840.29
783.36	2762.59
783.545	2820.33
783.731	2820.72
783.916	2682.19
784.102	2791.46
784.288	2728.11
784.473	2785.65
784.659	2765.89
784.844	2809.87
785.029	2729.08
785.215	2756.78
785.4	2677.93
785.586	2791.85
785.771	2704.08
785.956	2771.89
786.142	2736.05
786.327	2671.34
786.512	2723.84
786.698	2654.48
786.883	2640.15
787.068	2648.09
787.254	2702.92
787.439	2623.29
787.624	2640.73
787.809	2638.98
787.994	2595.2
788.18	2664.94
788.365	2551.99
788.55	2572.14
788.735	2594.61
788.92	2565.55
789.105	2566.33
789.29	2593.26
789.475	2498.32
789.66	2556.25
789.845	2518.28
790.03	2533.97
790.215	2606.24
790.4	2531.26
790.585	2572.14
790.77	2524.67
790.955	2473.91
791.14	2523.12
791.325	2561.68
791.51	2435.16
791.695	2498.52
791.879	2486.12
792.064	2419.66
792.249	2534.36
792.434	2461.9
792.618	2486.31
792.803	2507.62
792.988	2500.45
793.173	2491.93
793.357	2526.22
793.542	2435.94
793.727	2526.03
793.911	2547.92
794.096	2494.64
794.281	2541.14
794.465	2576.21
794.65	2498.71
794.834	2530.48
795.019	2578.73
795.203	2569.23
795.388	2571.56
795.572	2579.89
795.757	2561.1
795.941	2544.63
796.126	2541.53
796.31	2487.47
796.494	2496.77
796.679	2500.45
796.863	2477.2
797.048	2552.96
797.232	2493.28
797.416	2525.64
797.601	2575.43
797.785	2562.45
797.969	2593.84
798.153	2525.45
798.338	2547.73
798.522	2587.64
798.706	2586.67
798.89	2588.61
799.074	2667.66
799.258	2608.95
799.443	2573.3
799.627	2602.75
799.811	2620.58
799.995	2556.45
800.179	2547.73
800.363	2556.25
800.547	2565.36
800.731	2581.83
800.915	2525.06
801.099	2495.8
801.283	2545.21
801.467	2499.29
801.651	2527.58
801.835	2562.65
802.019	2511.69
802.202	2558.19
802.386	2477.98
802.57	2508.98
802.754	2496.58
802.938	2482.05
803.121	2487.08
803.305	2562.26
803.489	2506.46
803.673	2551.02
803.856	2566.33
804.04	2510.72
804.224	2550.05
804.407	2504.33
804.591	2514.79
804.775	2484.57
804.958	2531.26
805.142	2612.25
805.326	2585.12
805.509	2535.91
805.693	2566.33
805.876	2599.26
806.06	2557.03
806.243	2577.56
806.427	2597.91
806.61	2600.81
806.794	2567.1
806.977	2622.71
807.16	2592.1
807.344	2576.6
807.527	2560.13
807.71	2522.93
807.894	2550.63
808.077	2595.39
808.26	2536.68
808.444	2476.04
808.627	2550.63
808.81	2495.42
808.993	2401.45
809.177	2446.4
809.36	2456.86
809.543	2469.84
809.726	2377.42
809.909	2399.9
810.092	2373.55
810.276	2383.04
810.459	2433.61
810.642	2387.3
810.825	2350.49
811.008	2345.07
811.191	2289.08
811.374	2289.85
811.557	2243.74
811.74	2336.74
811.923	2235.02
812.106	2221.46
812.289	2186.39
812.472	2194.91
812.654	2218.94
812.837	2114.7
813.02	2106.95
813.203	2067.62
813.386	1998.07
813.569	1969
813.751	1928.51
813.934	1968.42
814.117	1924.44
814.3	1879.49
814.482	1854.89
814.665	1789.98
814.848	1767.7
815.03	1693.5
815.213	1724.11
815.396	1689.23
815.578	1660.17
815.761	1650.68
815.943	1716.75
816.126	1616.38
816.309	1607.28
816.491	1560.59
816.674	1507.89
816.856	1552.25
817.039	1539.85
817.221	1585.77
817.403	1594.1
817.586	1560.39
817.768	1537.53
817.951	1517.57
818.133	1480.57
818.315	1537.72
818.498	1554.58
818.68	1621.62
818.862	1558.65
819.045	1608.25
819.227	1596.04
819.409	1560.59
819.591	1636.34
819.774	1582.67
819.956	1563.88
820.138	1646.8
820.32	1637.89
820.502	1678.97
820.684	1773.51
820.866	1730.89
821.048	1776.42
821.231	1794.05
821.413	1828.15
821.595	1810.71
821.777	1792.69
821.959	1766.35
822.141	1828.54
822.323	1677.22
822.505	1681.48
822.686	1585.19
822.868	1503.04
823.05	1415.28
823.232	1402.29
823.414	1329.06
823.596	1425.74
823.778	1381.18
823.96	1416.83
824.141	1429.03
824.323	1454.41
824.505	1544.12
824.687	1586.74
824.868	1626.65
825.05	1716.36
825.232	1731.28
825.413	1813.81
825.595	1768.28
825.777	1706.67
825.958	1723.33
826.14	1732.83
826.321	1791.34
826.503	1719.65
826.685	1718.88
826.866	1790.76
827.048	1789.79
827.229	1708.41
827.411	1678.19
827.592	1643.7
827.773	1594.68
827.955	1571.82
828.136	1603.6
828.318	1556.52
828.499	1584.22
828.68	1549.54
828.862	1617.16
829.043	1587.32
829.224	1579.77
829.406	1560.78
829.587	1547.99
829.768	1536.56
829.949	1564.85
830.131	1563.69
830.312	1598.56
830.493	1592.75
830.674	1568.92
830.855	1536.95
831.036	1569.69
831.218	1636.34
831.399	1660.56
831.58	1583.25
831.761	1560.2
831.942	1581.12
832.123	1568.72
832.304	1567.56
832.485	1541.02
832.666	1580.74
832.847	1600.5
833.028	1555.35
833.209	1592.17
833.389	1495.49
833.57	1540.44
833.751	1525.32
833.932	1583.45
834.113	1592.36
834.294	1579.77
834.475	1555.35
834.655	1637.7
834.836	1649.13
835.017	1607.86
835.198	1555.74
835.378	1617.74
835.559	1659.2
835.74	1613.28
835.92	1589.45
836.101	1571.44
836.281	1632.08
836.462	1637.31
836.643	1653
836.823	1692.53
837.004	1664.63
837.184	1705.9
837.365	1676.25
837.545	1677.61
837.726	1639.63
837.906	1709.96
838.087	1685.94
838.267	1649.71
838.448	1640.8
838.628	1659.59
838.808	1647.97
838.989	1710.55
839.169	1646.22
839.349	1671.22
839.53	1709
839.71	1714.81
839.89	1598.75
840.07	1699.7
840.251	1649.32
840.431	1700.47
840.611	1664.82
840.791	1624.33
840.971	1664.05
841.151	1614.83
841.332	1620.07
841.512	1704.35
841.692	1623.55
841.872	1653
842.052	1663.66
842.232	1683.61
842.412	1590.81
842.592	1638.28
842.772	1662.5
842.952	1636.73
843.132	1599.33
843.312	1608.05
843.492	1608.83
843.672	1646.42
843.851	1587.52
844.031	1656.49
844.211	1615.03
844.391	1563.69
844.571	1619.68
844.751	1627.23
844.93	1620.84
845.11	1589.45
845.29	1626.65
845.47	1644.09
845.649	1623.75
845.829	1629.37
846.009	1609.6
846.188	1635.95
846.368	1612.9
846.547	1580.35
846.727	1650.1
846.907	1547.8
847.086	1581.9
847.266	1643.9
847.445	1611.93
847.625	1574.54
847.804	1569.3
847.984	1537.14
848.163	1577.05
848.343	1579.96
848.522	1601.85
848.701	1580.74
848.881	1540.44
849.06	1532.1
849.239	1551.67
849.419	1568.92
849.598	1484.64
849.777	1507.69
849.957	1477.08
850.136	1426.51
850.315	1439.69
850.494	1388.93
850.674	1439.69
850.853	1477.08
851.032	1484.44
851.211	1494.91
851.39	1462.16
851.569	1421.28
851.748	1461
851.927	1496.07
852.107	1442.01
852.286	1425.74
852.465	1402.29
852.644	1471.46
852.823	1460.42
853.002	1463.91
853.181	1432.13
853.359	1447.82
853.538	1389.31
853.717	1454.02
853.896	1338.74
854.075	1309.3
854.254	1290.11
854.433	1214.55
854.611	1300.38
854.79	1205.64
854.969	1256.01
855.148	1250.98
855.327	1244.78
855.505	1324.41
855.684	1272.29
855.863	1337.78
856.041	1276.16
856.22	1344.17
856.399	1329.06
856.577	1378.66
856.756	1371.1
856.934	1490.64
857.113	1480.37
857.291	1428.84
857.47	1371.88
857.648	1403.26
857.827	1391.25
858.005	1442.01
858.184	1363.93
858.362	1484.64
858.541	1400.74
858.719	1389.51
858.898	1370.91
859.076	1357.93
859.254	1430.58
859.433	1339.71
859.611	1346.88
859.789	1324.02
859.967	1424.96
860.146	1459.06
860.324	1363.35
860.502	1352.11
860.68	1291.28
860.859	1331
861.037	1309.1
861.215	1343.39
861.393	1363.74
861.571	1318.98
861.749	1329.83
861.927	1368.58
862.105	1333.13
862.283	1350.76
862.461	1325.76
862.639	1260.08
862.817	1302.51
862.995	1326.93
863.173	1312.78
863.351	1321.5
863.529	1306
863.707	1325.57
863.885	1337.19
864.063	1257.18
864.241	1288.95
864.418	1347.66
864.596	1252.33
864.774	1254.46
864.952	1269
865.129	1315.69
865.307	1250.98
865.485	1212.62
865.663	1280.23
865.84	1189.75
866.018	1216.49
866.196	1103.15
866.373	1114.19
866.551	1085.9
866.728	1051.42
866.906	1074.47
867.084	1143.84
867.261	1129.89
867.439	1142.29
867.616	1211.26
867.794	1170.38
867.971	1182.58
868.149	1170.77
868.326	1234.12
868.503	1192.47
868.681	1164.76
868.858	1194.21
869.035	1171.54
869.213	1195.76
869.39	1181.62
869.567	1249.43
869.745	1182.58
869.922	1173.67
870.099	1196.53
870.276	1248.85
870.454	1225.98
870.631	1207.19
870.808	1163.4
870.985	1229.28
871.162	1202.93
871.339	1178.71
871.517	1145.77
871.694	1128.53
871.871	1194.6
872.048	1174.64
872.225	1142.48
872.402	1187.04
872.579	1120
872.756	1163.98
872.933	1134.92
873.11	1123.69
873.287	1168.05
873.463	1135.31
873.64	1076.8
873.817	1142.87
873.994	1119.62
874.171	1083.77
874.348	1151.59
874.524	1079.7
874.701	1151.39
874.878	1075.44
875.055	1129.11
875.231	1125.04
875.408	1128.92
875.585	1089.97
875.762	1109.35
875.938	1069.63
876.115	1110.12
876.291	1051.42
876.468	1069.82
876.645	1049.87
876.821	1052.97
876.998	1047.16
877.174	1050.26
877.351	1081.84
877.527	1029.14
877.704	1098.89
877.88	1064.59
878.057	1048.12
878.233	1085.52
878.409	1043.09
878.586	1057.62
878.762	1063.04
878.938	1056.46
879.115	972.18
879.291	1020.61
879.467	1002.79
879.644	1014.99
879.82	1054.71
879.996	1015.96
880.172	1005.69
880.349	1009.96
880.525	1043.67
880.701	973.73
880.877	960.36
881.053	1049.67
881.229	990.97
881.405	1038.63
881.581	975.47
881.757	975.86
881.933	990.39
882.109	1012.67
882.285	1009.96
882.461	930.52
882.637	993.49
882.813	944.08
882.989	1001.82
883.165	1070.41
883.341	973.92
883.517	1025.07
883.693	1018.67
883.869	1062.07
884.044	985.74
884.22	1018.09
884.396	1043.28
884.572	1007.63
884.747	1059.75
884.923	1037.47
885.099	1027.78
885.275	1028.36
885.45	985.16
885.626	986.9
885.801	976.63
885.977	972.18
886.153	943.11
886.328	1004.14
886.504	970.04
886.679	1030.69
886.855	957.84
887.03	983.61
887.206	1016.35
887.381	986.12
887.557	1017.32
887.732	1031.66
887.908	1008.02
888.083	1005.31
888.258	997.56
888.434	975.08
888.609	997.56
888.784	1055.87
888.96	986.9
889.135	971.01
889.31	960.55
889.485	970.43
889.661	988.26
889.836	1013.06
890.011	995.42
890.186	998.14
890.361	952.22
890.537	993.1
890.712	1018.48
890.887	994.65
891.062	988.84
891.237	1026.42
891.412	964.04
891.587	973.53
891.762	1003.37
891.937	1054.32
892.112	968.3
892.287	977.99
892.462	943.5
892.637	915.79
892.812	867.36
892.987	925.09
893.161	905.14
893.336	913.08
893.511	916.96
893.686	872.4
893.861	899.13
894.035	885.57
894.21	923.74
894.385	848.18
894.56	865.03
894.734	805.75
894.909	804.39
895.084	828.61
895.258	819.5
895.433	804.97
895.608	767.38
895.782	759.83
895.957	776.68
896.131	757.31
896.306	682.72
896.48	711.2
896.655	699.96
896.829	663.54
897.004	645.32
897.178	669.15
897.353	639.7
897.527	682.52
897.701	636.22
897.876	609.09
898.05	695.7
898.224	683.3
898.399	699.38
898.573	670.9
898.747	567.63
898.921	605.99
899.096	496.14
899.27	527.91
899.444	528.11
899.618	563.76
899.792	562.98
899.967	573.83
900.141	606.38
900.315	538.18
900.489	587.01
900.663	610.06
900.837	576.54
901.011	513.58
901.185	608.51
901.359	592.82
901.533	553.68
901.707	561.82
901.881	563.76
902.055	536.44
902.229	587.01
902.403	607.54
902.576	597.27
902.75	557.56
902.924	676.13
903.098	606.19
903.272	678.07
903.446	715.85
903.619	682.52
903.793	723.02
903.967	688.14
904.14	753.63
904.314	748.59
904.488	705.77
904.661	745.1
904.835	735.61
905.009	778.43
905.182	791.6
905.356	726.31
905.529	710.81
905.703	697.83
905.876	694.54
906.05	643.58
906.223	656.75
906.397	594.37
906.57	635.44
906.744	581.97
906.917	578.48
907.09	584.68
907.264	571.31
907.437	511.06
907.61	512.22
907.784	525.2
907.957	542.64
908.13	495.94
908.304	553.49
908.477	485.48
908.65	507.76
908.823	507.38
908.996	564.53
909.17	494.01
909.343	517.45
909.516	531.98
909.689	495.17
909.862	460.88
910.035	492.84
910.208	457
910.381	485.87
910.554	567.63
910.727	496.72
910.9	481.99
911.073	477.15
911.246	562.21
911.419	571.51
911.592	548.26
911.765	476.38
911.938	492.07
912.11	507.18
912.283	540.31
912.456	552.71
912.629	489.36
912.802	475.41
912.974	441.89
913.147	428.13
913.32	380.08
913.493	395.97
913.665	416.51
913.838	456.42
914.01	442.66
914.183	448.09
914.356	437.82
914.528	479.48
914.701	490.13
914.873	479.09
915.046	430.07
915.218	411.08
915.391	345.79
915.563	377.95
915.736	445.18
915.908	420.77
916.081	424.65
916.253	423.68
916.425	435.88
916.598	467.08
916.77	431.23
916.942	401.78
917.115	359.55
917.287	401.2
917.459	390.55
917.632	361.48
917.804	331.45
917.976	400.43
918.148	421.93
918.32	408.37
918.493	450.03
918.665	454.29
918.837	470.18
919.009	499.82
919.181	495.94
919.353	477.15
919.525	477.34
919.697	442.28
919.869	473.66
920.041	524.04
920.213	570.34
920.385	512.41
920.557	456.23
920.729	479.28
920.901	488.39
921.073	460.1
921.244	477.34
921.416	453.71
921.588	446.73
921.76	448.48
921.932	510.28
922.103	464.75
922.275	466.88
922.447	469.79
922.619	397.71
922.79	456.23
922.962	436.46
923.134	470.37
923.305	389.38
923.477	388.41
923.648	369.62
923.82	430.26
923.991	376.01
924.163	347.15
924.335	385.9
924.506	359.16
924.677	420.38
924.849	348.31
925.02	404.5
925.192	398.49
925.363	386.86
925.535	387.64
925.706	372.33
925.877	433.36
926.049	389.96
926.22	374.08
926.391	376.98
926.562	401.59
926.734	363.81
926.905	402.36
927.076	343.85
927.247	378.53
927.419	316.15
927.59	317.12
927.761	338.62
927.932	323.9
928.103	337.65
928.274	262.09
928.445	277.79
928.616	286.7
928.787	290.18
928.958	275.27
929.129	296.19
929.3	280.69
929.471	231.09
929.642	198.35
929.813	137.9
929.984	219.08
930.155	160.18
930.326	208.04
930.496	178.78
930.667	128.41
930.838	195.25
931.009	132.09
931.18	160.96
931.35	150.69
931.521	159.6
931.692	112.71
931.863	55.36
932.033	123.37
932.204	109.22
932.374	122.98
932.545	46.64
932.716	111.74
932.886	104.38
933.057	48.19
933.227	62.34
933.398	114.46
933.568	43.16
933.739	14.68
933.909	39.28
934.08	65.44
934.25	-6.25
934.421	49.16
934.591	64.66
934.761	39.28
934.932	4.6
935.102	56.91
935.272	26.69
935.443	30.76
935.613	50.71
935.783	52.07
935.953	-8.96
936.123	160.96
936.294	13.13
936.464	33.08
936.634	43.35
936.804	18.16
936.974	12.55
937.144	50.33
937.314	42.58
937.484	49.16
937.655	3.05
937.825	59.82
937.995	23.2
938.165	87.72
938.334	45.29
938.504	71.44
938.674	53.04
938.844	73.19
939.014	122.59
939.184	113.29
939.354	163.86
939.524	132.67
939.694	77.64
939.863	72.61
940.033	145.07
940.203	118.33
940.373	102.83
940.542	102.64
940.712	82.1
940.882	130.15
941.051	128.21
941.221	103.22
941.391	144.87
941.56	91.59
941.73	75.13
941.899	182.66
942.069	58.66
942.238	113.29
942.408	70.67
942.577	121.24
942.747	74.35
942.916	39.28
943.086	87.14
943.255	81.71
943.425	88.3
943.594	48.19
943.763	46.45
943.933	25.14
944.102	10.41
944.271	40.83
944.441	70.28
944.61	46.26
944.779	50.33
944.948	145.84
945.117	34.83
945.287	55.17
945.456	26.11
945.625	47.42
945.794	77.84
945.963	21.85
946.132	70.86
946.301	37.73
946.47	68.73
946.639	17.78
946.808	15.84
946.977	83.26
947.146	122.98
947.315	62.53
947.484	63.5
947.653	71.64
947.822	55.56
947.991	30.37
948.16	110.58
948.329	105.16
948.498	67.18
948.666	67.76
948.835	98.96
949.004	48.58
949.173	11.96
949.341	52.84
949.51	66.02
949.679	101.09
949.847	86.94
950.016	148.17
950.185	105.35
950.353	41.41
950.522	54.39
950.69	120.66
950.859	60.59
951.028	108.64
951.196	83.26
951.365	16.03
951.533	62.34
951.701	83.84
951.87	110.58
952.038	39.48
952.207	58.08
952.375	97.79
952.543	58.08
952.712	67.38
952.88	58.85
953.048	113.49
953.217	54.98
953.385	88.69
953.553	114.26
953.721	30.56
953.89	77.84
954.058	35.41
954.226	44.13
954.394	69.12
954.562	36.96
954.73	46.06
954.898	54.39
955.067	86.75
955.235	47.81
955.403	79.19
955.571	111.94
955.739	76.68
955.907	40.44
956.075	48
956.243	48.39
956.41	60.01
956.578	25.33
956.746	48
956.914	42.96
957.082	88.3
957.25	91.4
957.418	43.74
957.585	82.1
957.753	119.49
957.921	25.53
958.089	53.23
958.256	94.89
958.424	78.23
958.592	77.84
958.759	37.73
958.927	112.91
959.095	41.8
959.262	51.49
959.43	78.42
959.597	27.85
959.765	65.44
959.932	17.39
960.1	106.71
960.267	83.07
960.435	82.1
960.602	92.95
960.77	30.76
960.937	64.28
961.104	115.81
961.272	28.24
961.439	64.86
961.606	104.19
961.774	101.67
961.941	43.16
962.108	96.83
962.275	86.56
962.443	103.22
962.61	98.57
962.777	157.27
962.944	114.46
963.111	106.9
963.278	92.18
963.446	90.24
963.613	85.01
963.78	109.81
963.947	104.77
964.114	105.35
964.281	156.69
964.448	93.34
964.615	71.64
964.782	101.86
964.949	121.43
965.116	114.07
965.282	117.75
965.449	97.02
965.616	70.09
965.783	149.14
965.95	105.74
966.117	75.13
966.283	92.76
966.45	99.34
966.617	104.19
966.784	140.42
966.95	107.68
967.117	123.76
967.284	96.63
967.45	72.61
967.617	144.68
967.784	109.42
967.95	158.44
968.117	103.22
968.283	123.17
968.45	214.04
968.616	108.26
968.783	122.21
968.949	146.81
969.116	174.71
969.282	104.77
969.449	111.94
969.615	114.07
969.781	61.18
969.948	109.81
970.114	95.47
970.28	172
970.447	134.02
970.613	167.93
970.779	141.58
970.945	131.7
971.112	121.04
971.278	108.06
971.444	137.51
971.61	143.91
971.776	106.13
971.942	134.61
972.108	123.76
972.275	104.58
972.441	134.99
972.607	188.47
972.773	85.39
972.939	122.79
973.105	97.6
973.271	76.09
973.437	87.33
973.602	72.99
973.768	123.95
973.934	113.49
974.1	128.41
974.266	52.26
974.432	133.83
974.598	58.85
974.763	105.35
974.929	93.92
975.095	164.25
975.261	76.29
975.426	63.11
975.592	88.49
975.758	178.59
975.923	33.28
976.089	64.66
976.255	111.16
976.42	91.21
976.586	131.12
976.751	126.47
976.917	182.85
977.082	107.87
977.248	68.34
977.413	45.48
977.579	72.99
977.744	84.04
977.91	71.25
978.075	75.32
978.24	111.74
978.406	110
978.571	63.5
978.736	67.38
978.902	94.89
979.067	65.24
979.232	26.88
979.397	91.4
979.563	149.14
979.728	52.46
979.893	92.56
980.058	76.09
980.223	111.36
980.388	112.13
980.554	121.43
980.719	83.65
980.884	101.09
981.049	118.72
981.214	63.11
981.379	122.98
981.544	72.22
981.709	96.83
981.874	86.94
982.039	102.64
982.204	122.59
982.368	85.78
982.533	53.43
982.698	117.94
982.863	135.38
983.028	65.05
983.193	112.91
983.357	83.65
983.522	104.96
983.687	100.51
983.852	92.18
984.016	84.23
984.181	122.4
984.346	112.91
984.51	129.18
984.675	88.69
984.839	100.7
985.004	94.69
985.168	122.01
985.333	111.55
985.498	95.66
985.662	136.54
985.827	112.13
985.991	93.34
986.155	94.11
986.32	108.84
986.484	144.49
986.649	99.15
986.813	62.34
986.977	95.86
987.142	96.83
987.306	63.89
987.47	62.34
987.634	84.62
987.799	85.01
987.963	91.59
988.127	108.45
988.291	179.75
988.455	126.08
988.62	56.53
988.784	113.1
988.948	114.65
989.112	85.39
989.276	97.02
989.44	86.94
989.604	46.06
989.768	86.94
989.932	176.84
990.096	61.18
990.26	56.14
990.424	61.56
990.588	74.54
990.752	146.42
990.915	128.21
991.079	80.36
991.243	75.32
991.407	102.44
991.571	73.77
991.734	110.97
991.898	108.26
992.062	165.02
992.226	91.01
992.389	36.76
992.553	57.88
992.717	55.94
992.88	67.57
993.044	93.92
993.207	60.21
993.371	107.29
993.535	113.49
993.698	83.26
993.862	84.62
994.025	112.91
994.189	85.01
994.352	82.88
994.515	84.81
994.679	109.23
994.842	97.02
995.006	119.49
995.169	67.38
995.332	56.53
995.496	111.94
995.659	42.38
995.822	61.37
995.985	54.78
996.149	117.56
996.312	90.43
996.475	132.28
996.638	54.59
996.801	115.42
996.964	129.96
997.128	45.09
997.291	72.99
997.454	68.73
997.617	43.16
997.78	110.58
997.943	37.73
998.106	107.48
998.269	52.84
998.432	45.87
998.595	62.92
998.758	44.9
998.92	41.22
999.083	4.02
999.246	47.81
999.409	41.99
999.572	30.37
999.735	44.51
999.897	85.2
1000.06	44.9
1000.223	59.04
1000.386	90.82
1000.548	85.98
1000.711	91.59
1000.874	86.56
1001.036	15.45
1001.199	89.85
1001.361	55.75
1001.524	69.7
1001.687	98.38
1001.849	30.18
1002.012	100.7
1002.174	63.89
1002.337	63.31
1002.499	63.89
1002.661	76.68
1002.824	10.22
1002.986	36.76
1003.149	77.45
1003.311	40.06
1003.473	102.83
1003.636	48.58
1003.798	66.41
1003.96	91.59
1004.123	51.88
1004.285	54.59
1004.447	58.08
1004.609	41.41
1004.771	95.08
1004.933	-14.19
1005.096	31.73
1005.258	20.1
1005.42	24.75
1005.582	98.38
1005.744	49.16
1005.906	-4.89
1006.068	44.51
1006.23	26.69
1006.392	-10.9
1006.554	19.71
1006.716	74.35
1006.878	72.03
1007.04	3.25
1007.202	26.11
1007.363	57.3
1007.525	48
1007.687	75.32
1007.849	87.33
1008.011	-9.54
1008.172	16.61
1008.334	50.91
1008.496	55.56
1008.658	11.19
1008.819	32.69
1008.981	-6.83
1009.143	23.59
1009.304	34.83
1009.466	88.11
1009.627	104.96
1009.789	119.69
1009.95	31.92
1010.112	30.95
1010.273	51.88
1010.435	22.43
1010.596	19.91
1010.758	24.56
1010.919	18.16
1011.081	16.42
1011.242	25.91
1011.403	44.71
1011.565	45.87
1011.726	46.64
1011.887	-12.06
1012.049	27.08
1012.21	79.39
1012.371	75.9
1012.532	-24.85
1012.693	36.76
1012.855	24.56
1013.016	56.53
1013.177	65.83
1013.338	11.96
1013.499	110.39
1013.66	73.19
1013.821	48.78
1013.982	43.16
1014.143	11.77
1014.304	24.94
1014.465	56.14
1014.626	77.06
1014.787	20.3
1014.948	120.66
1015.109	-4.7
1015.27	60.98
1015.431	9.06
1015.592	13.71
1015.752	66.79
1015.913	55.36
1016.074	64.66
1016.235	21.26
1016.395	10.22
1016.556	28.24
1016.717	10.03
1016.877	77.64
1017.038	18.55
1017.199	51.1
1017.359	33.28
1017.52	52.07
1017.681	-7.22
1017.841	26.88
1018.002	24.94
1018.162	3.63
1018.323	96.83
1018.483	0.92
1018.644	37.15
1018.804	10.8
1018.964	11.58
1019.125	9.83
1019.285	39.09
1019.446	-9.93
1019.606	-0.24
1019.766	-15.35
1019.926	60.98
1020.087	37.93
1020.247	-4.31
1020.407	43.74
1020.567	56.53
1020.728	5.38
1020.888	6.35
1021.048	13.71
1021.208	7.12
1021.368	-1.4
1021.528	66.21
1021.688	70.48
1021.848	39.67
1022.008	12.74
1022.168	15.65
1022.328	32.11
1022.488	52.84
1022.648	16.03
1022.808	36.38
1022.968	34.63
1023.128	10.03
1023.288	12.16
1023.448	31.73
1023.608	68.34
1023.767	45.09
1023.927	-4.12
1024.087	9.25
1024.247	-14.39
1024.406	11
1024.566	-44.42
1024.726	-4.12
1024.885	10.41
1025.045	63.69
1025.205	5.18
1025.364	18.94
1025.524	36.38
1025.683	24.17
1025.843	30.76
1026.003	5.96
1026.162	41.03
1026.321	27.85
1026.481	21.65
1026.64	14.48
1026.8	18.36
1026.959	36.57
1027.119	34.63
1027.278	41.03
1027.437	2.08
1027.597	23.01
1027.756	31.92
1027.915	6.15
1028.074	30.37
1028.234	-23.49
1028.393	36.96
1028.552	-0.05
1028.711	-37.64
1028.87	45.29
1029.03	-15.74
1029.189	6.54
1029.348	-23.88
1029.507	-25.04
1029.666	4.41
1029.825	-13.03
1029.984	2.08
1030.143	-7.22
1030.302	12.93
1030.461	-55.27
1030.62	14.68
1030.779	16.03
1030.938	11.96
1031.097	-26.4
1031.255	36.18
1031.414	49.74
1031.573	35.6
1031.732	-26.4
1031.891	-1.4
1032.049	73.38
1032.208	29.98
1032.367	-4.89
1032.525	32.31
1032.684	25.91
1032.843	14.1
1033.001	-27.56
1033.16	164.83
1033.319	37.93
1033.477	29.4
1033.636	7.7
1033.794	-25.24
1033.953	44.13
1034.111	20.3
1034.27	-2.37
1034.428	1.7
1034.587	15.45
1034.745	29.01
1034.903	12.93
1035.062	23.98
1035.22	-20.78
1035.378	22.43
1035.537	-18.45
1035.695	38.89
1035.853	-24.85
1036.011	30.95
1036.17	23.78
1036.328	-34.92
1036.486	19.13
1036.644	26.11
1036.802	-59.92
1036.96	-23.69
1037.119	17.2
1037.277	6.54
1037.435	-46.94
1037.593	-3.73
1037.751	11.58
1037.909	17.97
1038.067	17.97
