Data from oakcork_FLMT105791__290__17-34-36-052.txt Node

Date: Mon Mar 20 17:34:36 GMT 2023
User: antho
Spectrometer: FLMT10579
Trigger mode: 0
Integration Time (sec): 1.000000E-1
Scans to average: 10
Electric dark correction enabled: true
Nonlinearity correction enabled: false
Boxcar width: 0
XAxis mode: Wavelengths
Number of Pixels in Spectrum: 3648
>>>>>Begin Spectral Data<<<<<
345.248	-132.67
345.464	-132.67
345.681	-132.67
345.898	-149.52
346.114	-137.32
346.331	-30.18
346.548	16.9
346.764	15.94
346.981	-22.04
347.197	-5.96
347.414	16.52
347.631	-17
347.847	32.99
348.064	-18.36
348.28	19.42
348.497	-9.06
348.713	0.82
348.93	37.64
349.146	28.53
349.363	16.52
349.579	0.63
349.796	25.62
350.012	-5.96
350.229	18.07
350.445	20.97
350.661	-7.7
350.878	8.96
351.094	2.37
351.311	3.92
351.527	24.85
351.743	-24.17
351.96	34.34
352.176	38.02
352.392	17.68
352.609	35.7
352.825	-23.01
353.041	9.54
353.257	7.8
353.474	-12.74
353.69	13.8
353.906	11.48
354.122	-11.96
354.339	41.12
354.555	-10.8
354.771	-3.63
354.987	44.42
355.203	57.59
355.42	0.05
355.636	-6.54
355.852	-37.34
356.068	-8.28
356.284	-6.35
356.5	50.42
356.716	0.82
356.932	16.13
357.148	41.32
357.364	1.6
357.58	28.34
357.796	82.39
358.012	28.53
358.228	25.24
358.444	-59.82
358.66	42.67
358.876	15.74
359.092	0.44
359.308	-3.44
359.524	24.46
359.74	-6.54
359.956	-10.03
360.172	5.09
360.388	21.36
360.604	3.34
360.819	67.86
361.035	14.77
361.251	34.92
361.467	-16.61
361.683	56.43
361.898	-1.11
362.114	52.17
362.33	27.95
362.546	21.94
362.762	24.85
362.977	-5.18
363.193	-35.79
363.409	18.26
363.624	-10.41
363.84	-8.86
364.056	11.48
364.271	15.16
364.487	29.69
364.703	6.83
364.918	-17.97
365.134	27.37
365.35	16.32
365.565	110.29
365.781	17.29
365.996	12.45
366.212	69.99
366.427	31.05
366.643	7.99
366.858	7.41
367.074	-9.64
367.289	55.46
367.505	76.77
367.72	-25.14
367.936	8.38
368.151	32.02
368.367	31.82
368.582	20.59
368.798	24.46
369.013	73.48
369.228	4.7
369.444	4.5
369.659	53.52
369.874	18.45
370.09	53.52
370.305	-34.63
370.52	-5.18
370.736	37.05
370.951	17.68
371.166	70.57
371.381	61.66
371.597	34.15
371.812	-19.13
372.027	11.29
372.242	28.92
372.458	88.2
372.673	-2.28
372.888	26.4
373.103	46.35
373.318	58.17
373.533	10.12
373.749	10.51
373.964	-13.71
374.179	48.49
374.394	5.09
374.609	60.11
374.824	-13.9
375.039	27.17
375.254	1.4
375.469	26.4
375.684	33.18
375.899	33.76
376.114	8.19
376.329	-3.44
376.544	44.61
376.759	33.95
376.974	4.31
377.189	13.03
377.404	5.28
377.619	39.57
377.834	-31.14
378.049	-19.52
378.264	-30.76
378.478	43.84
378.693	8.19
378.908	36.67
379.123	7.6
379.338	43.06
379.553	23.88
379.767	14.19
379.982	60.5
380.197	20.78
380.412	34.54
380.626	49.26
380.841	91.3
381.056	31.82
381.271	68.05
381.485	3.54
381.7	-8.67
381.915	19.42
382.129	12.25
382.344	34.34
382.559	13.03
382.773	64.95
382.988	-27.08
383.202	27.56
383.417	1.21
383.632	113
383.846	0.44
384.061	44.03
384.275	3.73
384.49	28.53
384.704	52.94
384.919	30.08
385.133	-3.83
385.348	40.15
385.562	-31.92
385.777	42.09
385.991	-7.7
386.206	14.39
386.42	20.59
386.634	84.52
386.849	37.25
387.063	38.6
387.277	-32.5
387.492	13.42
387.706	-23.2
387.92	0.44
388.135	22.52
388.349	25.62
388.563	26.2
388.778	16.71
388.992	42.48
389.206	37.25
389.42	68.83
389.635	39.77
389.849	32.21
390.063	83.94
390.277	46.35
390.491	81.81
390.706	43.06
390.92	47.32
391.134	46.94
391.348	38.22
391.562	4.89
391.776	18.26
391.99	5.28
392.205	39.57
392.419	2.76
392.633	51.39
392.847	57.4
393.061	-7.12
393.275	72.51
393.489	26.98
393.703	45
393.917	67.47
394.131	-3.44
394.345	57.59
394.559	20.39
394.773	-3.25
394.986	38.22
395.2	26.59
395.414	34.92
395.628	-3.83
395.842	7.99
396.056	-1.11
396.27	-32.11
396.484	25.04
396.697	48.29
396.911	62.82
397.125	54.88
397.339	52.55
397.553	-0.15
397.766	98.08
397.98	33.76
398.194	69.41
398.408	14.39
398.621	39.77
398.835	36.47
399.049	37.64
399.262	65.92
399.476	30.66
399.69	36.67
399.903	88.98
400.117	26.79
400.331	57.79
400.544	4.5
400.758	120.37
400.971	59.53
401.185	84.33
401.398	-1.11
401.612	68.83
401.826	62.63
402.039	50.62
402.253	20.59
402.466	54.3
402.68	14.39
402.893	55.07
403.106	40.15
403.32	28.72
403.533	54.49
403.747	52.94
403.96	41.51
404.174	70.77
404.387	17.49
404.6	26.01
404.814	62.63
405.027	58.95
405.24	47.9
405.454	42.29
405.667	74.06
405.88	-31.53
406.094	60.5
406.307	71.93
406.52	42.09
406.733	40.35
406.947	-3.05
407.16	93.43
407.373	62.44
407.586	33.18
407.799	24.46
408.012	68.83
408.226	48.87
408.439	82.39
408.652	-5.96
408.865	66.89
409.078	80.65
409.291	52.55
409.504	4.89
409.717	38.22
409.93	34.15
410.143	62.44
410.357	27.75
410.57	10.32
410.783	30.47
410.996	64.76
411.209	47.13
411.421	71.93
411.634	31.05
411.847	34.15
412.06	49.07
412.273	26.4
412.486	64.95
412.699	135.67
412.912	46.55
413.125	52.36
413.338	25.43
413.55	66.31
413.763	58.56
413.976	49.07
414.189	13.03
414.402	26.01
414.615	76.38
414.827	25.24
415.04	67.28
415.253	55.07
415.466	74.06
415.678	80.65
415.891	54.49
416.104	42.87
416.316	42.09
416.529	52.36
416.742	66.12
416.954	62.24
417.167	42.67
417.38	46.55
417.592	107.19
417.805	35.7
418.017	6.25
418.23	70.38
418.442	14.58
418.655	25.04
418.868	57.4
419.08	68.05
419.293	89.56
419.505	46.16
419.718	70.96
419.93	71.93
420.142	50.62
420.355	93.05
420.567	102.73
420.78	90.33
420.992	32.99
421.205	103.12
421.417	18.84
421.629	33.57
421.842	9.15
422.054	10.9
422.266	49.84
422.479	63.4
422.691	45.97
422.903	86.27
423.115	40.74
423.328	55.46
423.54	55.85
423.752	43.25
423.964	23.69
424.177	63.4
424.389	46.55
424.601	146.52
424.813	64.76
425.025	79.68
425.238	93.82
425.45	62.05
425.662	45.58
425.874	309.46
426.086	55.07
426.298	77.55
426.51	54.69
426.722	42.67
426.934	33.57
427.146	100.6
427.358	20.2
427.57	110.29
427.782	37.64
427.994	29.5
428.206	43.84
428.418	32.6
428.63	59.14
428.842	68.63
429.054	58.17
429.266	77.35
429.478	5.09
429.69	61.27
429.902	-2.86
430.114	90.14
430.325	77.74
430.537	47.71
430.749	57.59
430.961	30.27
431.173	62.05
431.384	94.4
431.596	-7.7
431.808	58.56
432.02	58.75
432.231	61.85
432.443	76
432.655	51.39
432.867	30.66
433.078	83.17
433.29	122.5
433.502	75.8
433.713	92.85
433.925	72.7
434.136	113.78
434.348	28.92
434.56	26.2
434.771	136.83
434.983	19.42
435.194	39.96
435.406	48.29
435.617	102.35
435.829	133.93
436.04	96.73
436.252	83.94
436.463	106.8
436.675	97.89
436.886	81.03
437.098	85.49
437.309	120.37
437.521	65.92
437.732	95.76
437.943	81.03
438.155	80.26
438.366	32.02
438.578	134.51
438.789	82
439	92.85
439.211	72.7
439.423	49.65
439.634	94.98
439.845	80.65
440.057	64.76
440.268	94.4
440.479	38.41
440.69	77.74
440.902	77.16
441.113	93.24
441.324	57.59
441.535	74.06
441.746	121.53
441.957	21.94
442.168	43.64
442.38	72.51
442.591	91.5
442.802	55.65
443.013	50.42
443.224	74.25
443.435	50.04
443.646	47.9
443.857	76.77
444.068	69.41
444.279	56.62
444.49	121.33
444.701	45.19
444.912	173.65
445.123	97.12
445.334	113.2
445.545	62.82
445.756	49.26
445.967	67.67
446.178	85.1
446.388	145.17
446.599	99.83
446.81	101.18
447.021	77.55
447.232	114.75
447.443	150.2
447.653	21.17
447.864	124.05
448.075	83.75
448.286	102.35
448.496	109.32
448.707	114.55
448.918	40.35
449.129	142.84
449.339	48.87
449.55	97.5
449.761	59.72
449.971	144.2
450.182	93.24
450.393	97.31
450.603	77.16
450.814	105.45
451.024	101.18
451.235	110.29
451.446	136.45
451.656	120.17
451.867	73.67
452.077	116.68
452.288	157.37
452.498	138.19
452.709	86.85
452.919	111.65
453.13	88.59
453.34	147.68
453.55	56.04
453.761	119.78
453.971	98.47
454.182	124.43
454.392	109.71
454.602	145.55
454.813	124.63
455.023	120.75
455.233	49.45
455.444	79.48
455.654	38.22
455.864	89.17
456.075	63.4
456.285	68.44
456.495	98.86
456.705	134.32
456.916	139.35
457.126	141.48
457.336	121.92
457.546	57.98
457.756	85.1
457.967	147.1
458.177	81.81
458.387	111.26
458.597	85.1
458.807	89.95
459.017	113.78
459.227	95.76
459.437	97.31
459.647	139.16
459.857	126.95
460.068	98.08
460.278	147.88
460.488	120.56
460.698	163.57
460.908	94.02
461.117	64.95
461.327	76.58
461.537	106.03
461.747	107.97
461.957	110.29
462.167	207.55
462.377	151.17
462.587	107.58
462.797	148.46
463.007	97.7
463.216	146.33
463.426	140.52
463.636	140.32
463.846	62.82
464.056	61.08
464.265	141.48
464.475	88.78
464.685	102.54
464.895	142.26
465.104	112.81
465.314	152.14
465.524	102.54
465.733	105.06
465.943	170.93
466.153	157.95
466.362	124.24
466.572	132.77
466.782	79.29
466.991	116.68
467.201	187.79
467.41	60.11
467.62	116.1
467.829	125.4
468.039	125.98
468.249	118.43
468.458	94.98
468.668	144
468.877	112.62
469.086	140.9
469.296	156.4
469.505	116.1
469.715	171.9
469.924	138.58
470.134	163.96
470.343	143.62
470.552	112.81
470.762	127.73
470.971	117.85
471.18	136.06
471.39	140.52
471.599	110.48
471.808	149.04
472.018	98.47
472.227	161.63
472.436	165.7
472.645	129.67
472.855	88.2
473.064	153.11
473.273	132.18
473.482	156.79
473.691	166.28
473.901	169.58
474.11	129.28
474.319	208.33
474.528	139.35
474.737	195.73
474.946	155.24
475.155	167.83
475.364	166.67
475.573	151.56
475.783	150.59
475.992	152.53
476.201	185.08
476.41	126.37
476.619	108.93
476.828	148.65
477.037	124.24
477.245	127.53
477.454	183.33
477.663	139.55
477.872	124.82
478.081	191.28
478.29	125.4
478.499	206.58
478.708	132.77
478.917	214.33
479.125	151.37
479.334	163.57
479.543	146.33
479.752	175.58
479.961	169.19
480.169	181.4
480.378	154.27
480.587	253.08
480.796	173.65
481.004	177.52
481.213	179.46
481.422	174.61
481.63	141.87
481.839	179.26
482.048	206.97
482.256	179.46
482.465	158.34
482.674	168.61
482.882	179.85
483.091	242.43
483.299	192.83
483.508	206.2
483.716	166.28
483.925	187.21
484.134	165.9
484.342	170.16
484.551	209.68
484.759	215.11
484.967	185.46
485.176	219.76
485.384	210.65
485.593	232.35
485.801	217.24
486.01	207.36
486.218	193.21
486.426	129.47
486.635	179.85
486.843	183.91
487.051	181.59
487.26	189.73
487.468	203.29
487.676	210.26
487.885	141.1
488.093	214.53
488.301	198.45
488.509	177.91
488.717	199.03
488.926	193.6
489.134	185.46
489.342	208.71
489.55	175.97
489.758	186.24
489.967	150.4
490.175	280.79
490.383	175.97
490.591	243.39
490.799	168.41
491.007	210.85
491.215	205.23
491.423	199.03
491.631	211.23
491.839	199.22
492.047	238.16
492.255	167.25
492.463	173.65
492.671	197.09
492.879	240.68
493.087	209.88
493.295	239.71
493.503	217.43
493.711	232.55
493.919	238.55
494.127	260.44
494.334	255.21
494.542	203.48
494.75	215.88
494.958	227.51
495.166	240.88
495.374	249.4
495.581	200.96
495.789	232.93
495.997	261.41
496.205	231.96
496.412	231.38
496.62	228.09
496.828	244.56
497.035	225.38
497.243	242.04
497.451	222.86
497.658	241.84
497.866	217.63
498.074	268
498.281	213.17
498.489	276.53
498.696	245.14
498.904	216.27
499.112	184.11
499.319	300.55
499.527	224.8
499.734	265.48
499.942	225.96
500.149	202.71
500.357	220.92
500.564	220.73
500.771	232.35
500.979	236.61
501.186	238.55
501.394	263.16
501.601	230.22
501.808	271.49
502.016	228.48
502.223	230.61
502.43	249.79
502.638	226.73
502.845	205.61
503.052	298.61
503.26	199.8
503.467	277.3
503.674	215.88
503.881	240.1
504.089	309.85
504.296	286.99
504.503	237.97
504.71	259.86
504.917	190.5
505.125	238.36
505.332	248.43
505.539	264.32
505.746	297.84
505.953	269.36
506.16	235.65
506.367	297.45
506.574	269.74
506.781	296.29
506.988	236.23
507.195	252.31
507.402	253.47
507.609	304.43
507.816	251.92
508.023	243.98
508.23	244.17
508.437	255.21
508.644	306.75
508.851	332.13
509.058	286.79
509.265	258.31
509.472	267.61
509.679	334.65
509.885	260.06
510.092	257.34
510.299	275.56
510.506	252.11
510.713	282.34
510.92	276.91
511.126	288.15
511.333	308.88
511.54	324.19
511.746	341.24
511.953	306.56
512.16	345.11
512.367	261.8
512.573	279.43
512.78	265.09
512.987	281.76
513.193	300.55
513.4	219.95
513.606	279.43
513.813	317.6
514.02	291.44
514.226	363.52
514.433	306.56
514.639	239.91
514.846	302.68
515.052	240.68
515.259	274.78
515.465	290.67
515.672	288.15
515.878	352.28
516.085	292.8
516.291	304.43
516.497	245.53
516.704	279.24
516.91	261.03
517.117	246.69
517.323	230.61
517.529	287.57
517.736	293.38
517.942	287.18
518.148	275.36
518.354	267.61
518.561	266.64
518.767	285.44
518.973	339.88
519.179	324.96
519.386	274.2
519.592	272.26
519.798	263.35
520.004	342.01
520.21	265.09
520.417	297.45
520.623	317.41
520.829	331.16
521.035	349.18
521.241	312.95
521.447	324.58
521.653	406.72
521.859	311.98
522.065	349.18
522.271	376.31
522.477	356.35
522.683	362.74
522.889	351.51
523.095	333.1
523.301	352.09
523.507	310.82
523.713	342.59
523.919	328.06
524.125	371.27
524.331	321.48
524.537	375.34
524.742	388.32
524.948	373.01
525.154	356.54
525.36	456.52
525.566	364.68
525.772	423.97
525.977	328.45
526.183	360.81
526.389	385.99
526.595	323.22
526.8	373.59
527.006	309.27
527.212	311.79
527.417	326.9
527.623	297.45
527.829	384.44
528.034	351.7
528.24	373.98
528.446	329.61
528.651	398.2
528.857	368.94
529.062	432.69
529.268	360.61
529.473	397.04
529.679	354.61
529.884	428.04
530.09	392.58
530.295	425.32
530.501	412.34
530.706	387.35
530.912	323.03
531.117	386.77
531.323	398.2
531.528	384.64
531.733	407.69
531.939	372.82
532.144	415.05
532.35	401.49
532.555	459.04
532.76	408.86
532.966	430.55
533.171	428.42
533.376	397.42
533.581	380.37
533.787	388.12
533.992	416.99
534.197	456.9
534.402	388.12
534.607	409.63
534.813	480.15
535.018	406.14
535.223	393.74
535.428	426.49
535.633	438.11
535.838	416.41
536.043	398.97
536.249	496.24
536.454	391.42
536.659	404.21
536.864	394.32
537.069	416.99
537.274	455.16
537.479	436.17
537.684	445.86
537.889	385.99
538.094	458.45
538.299	447.8
538.504	437.53
538.708	444.5
538.913	421.06
539.118	411.76
539.323	433.07
539.528	376.69
539.733	430.36
539.938	453.42
540.142	466.2
540.347	424.35
540.552	436.56
540.757	434.24
540.962	434.04
541.166	395.68
541.371	391.61
541.576	427.65
541.781	331.36
541.985	393.94
542.19	438.3
542.395	472.02
542.599	481.7
542.804	458.65
543.008	482.29
543.213	412.54
543.418	414.86
543.622	439.47
543.827	410.79
544.031	485.58
544.236	484.61
544.44	424.74
544.645	521.03
544.849	429.78
545.054	465.43
545.258	507.28
545.463	487.32
545.667	429
545.872	445.86
546.076	427.45
546.281	467.17
546.485	423
546.689	463.88
546.894	469.89
547.098	460.39
547.302	416.99
547.507	462.33
547.711	481.32
547.915	504.76
548.119	449.93
548.324	439.08
548.528	499.92
548.732	456.52
548.936	484.61
549.141	484.8
549.345	446.44
549.549	489.26
549.753	426.68
549.957	507.28
550.161	521.81
550.366	470.47
550.57	459.62
550.774	447.99
550.978	449.35
551.182	476.47
551.386	448.57
551.59	437.53
551.794	438.11
551.998	491.78
552.202	424.94
552.406	433.27
552.61	451.29
552.814	455.94
553.018	513.48
553.222	450.51
553.426	456.9
553.63	537.31
553.833	457.87
554.037	405.95
554.241	492.36
554.445	463.69
554.649	423.77
554.853	419.51
555.056	480.35
555.26	492.94
555.464	448.38
555.668	474.34
555.871	486.35
556.075	520.07
556.279	445.86
556.483	439.08
556.686	473.95
556.89	452.25
557.094	487.9
557.297	452.84
557.501	507.08
557.704	413.7
557.908	490.62
558.112	416.22
558.315	500.11
558.519	453.03
558.722	478.8
558.926	438.5
559.129	433.85
559.333	388.12
559.536	443.15
559.74	413.12
559.943	411.18
560.147	408.47
560.35	451.67
560.553	436.17
560.757	374.37
560.96	488.49
561.164	402.85
561.367	491
561.57	390.45
561.774	472.79
561.977	439.08
562.18	423.58
562.384	479.38
562.587	444.89
562.79	396.65
562.993	430.36
563.197	465.04
563.4	487.32
563.603	454.19
563.806	520.65
564.009	403.24
564.212	453.8
564.416	429
564.619	449.93
564.822	381.34
565.025	469.3
565.228	429.2
565.431	431.14
565.634	388.12
565.837	406.34
566.04	383.86
566.243	420.87
566.446	357.9
566.649	432.49
566.852	383.47
567.055	409.82
567.258	424.74
567.461	466.59
567.664	432.3
567.867	369.52
568.07	422.8
568.273	415.05
568.475	446.25
568.678	398.2
568.881	373.21
569.084	416.22
569.287	327.67
569.489	358.29
569.692	439.47
569.895	427.45
570.098	341.04
570.3	380.76
570.503	314.5
570.706	373.59
570.909	365.26
571.111	338.72
571.314	326.32
571.516	348.99
571.719	367.97
571.922	342.21
572.124	328.45
572.327	367.39
572.529	329.22
572.732	323.61
572.935	345.11
573.137	403.04
573.34	350.15
573.542	402.27
573.745	381.92
573.947	360.03
574.15	367.59
574.352	342.98
574.554	391.81
574.757	325.16
574.959	337.56
575.162	314.5
575.364	349.37
575.566	413.89
575.769	315.28
575.971	355.96
576.173	278.27
576.376	339.69
576.578	368.75
576.78	410.02
576.982	296.87
577.185	290.67
577.387	310.04
577.589	308.88
577.791	344.14
577.993	357.71
578.196	298.03
578.398	360.42
578.6	358.09
578.802	298.81
579.004	327.29
579.206	314.31
579.408	326.51
579.61	332.52
579.812	351.12
580.014	315.28
580.216	286.6
580.418	318.76
580.62	287.38
580.822	274.59
581.024	324.96
581.226	350.54
581.428	313.53
581.63	356.16
581.832	307.53
582.034	347.82
582.236	336.2
582.438	339.69
582.64	335.81
582.841	379.6
583.043	399.75
583.245	320.31
583.447	350.73
583.649	319.93
583.85	322.83
584.052	411.96
584.254	286.21
584.456	343.17
584.657	307.72
584.859	323.22
585.061	326.13
585.262	274.2
585.464	290.09
585.666	346.66
585.867	284.08
586.069	363.91
586.27	358.29
586.472	326.71
586.674	316.24
586.875	343.17
587.077	300.16
587.278	342.79
587.48	301.33
587.681	409.82
587.883	351.12
588.084	256.38
588.285	313.92
588.487	309.08
588.688	308.3
588.89	258.51
589.091	280.4
589.292	339.88
589.494	324.58
589.695	281.76
589.896	256.96
590.098	245.91
590.299	311.59
590.5	241.07
590.702	260.25
590.903	277.3
591.104	341.62
591.305	320.7
591.507	334.84
591.708	303.46
591.909	283.89
592.11	367.2
592.311	307.33
592.512	298.23
592.714	258.12
592.915	267.81
593.116	290.09
593.317	290.86
593.518	258.7
593.719	263.54
593.92	302.29
594.121	349.18
594.322	283.89
594.523	295.9
594.724	276.14
594.925	282.73
595.126	304.43
595.327	306.17
595.528	323.22
595.729	316.83
595.929	283.31
596.13	305.39
596.331	311.01
596.532	303.07
596.733	323.41
596.934	341.24
597.135	299.19
597.335	307.91
597.536	291.25
597.737	287.57
597.938	259.28
598.138	302.29
598.339	279.04
598.54	280.98
598.74	294.54
598.941	287.18
599.142	309.27
599.342	300.16
599.543	245.91
599.744	291.44
599.944	284.86
600.145	282.34
600.345	314.89
600.546	348.21
600.746	333.87
600.947	352.47
601.147	287.18
601.348	324.96
601.548	252.11
601.749	302.1
601.949	232.35
602.15	243.2
602.35	274.01
602.551	320.51
602.751	264.13
602.951	276.14
603.152	232.35
603.352	307.53
603.552	291.64
603.753	339.49
603.953	314.31
604.153	290.86
604.354	292.22
604.554	283.11
604.754	278.27
604.954	243.39
605.155	311.79
605.355	257.15
605.555	302.68
605.755	328.06
605.955	281.95
606.155	319.73
606.356	298.23
606.556	321.86
606.756	309.27
606.956	253.08
607.156	347.44
607.356	261.61
607.556	318.18
607.756	267.23
607.956	330
608.156	276.33
608.356	271.68
608.556	312.95
608.756	287.76
608.956	261.99
609.156	306.56
609.356	277.3
609.556	265.29
609.755	293.38
609.955	283.5
610.155	278.46
610.355	294.74
610.555	284.66
610.755	296.68
610.954	245.91
611.154	284.28
611.354	340.27
611.554	270.71
611.753	267.61
611.953	255.6
612.153	309.08
612.352	279.04
612.552	252.89
612.752	221.7
612.951	248.24
613.151	285.63
613.351	254.05
613.55	258.89
613.75	277.69
613.949	268.97
614.149	290.86
614.348	285.05
614.548	262.19
614.747	204.65
614.947	259.48
615.146	207.55
615.346	328.45
615.545	249.4
615.745	279.82
615.944	286.21
616.144	238.16
616.343	299.58
616.542	237
616.742	272.07
616.941	282.34
617.14	222.86
617.34	273.23
617.539	263.16
617.738	255.02
617.938	317.02
618.137	268.19
618.336	232.16
618.535	293.77
618.734	248.24
618.934	277.11
619.133	285.63
619.332	287.76
619.531	269.55
619.73	254.24
619.929	292.41
620.128	265.48
620.328	296.29
620.527	244.36
620.726	233.51
620.925	254.44
621.124	239.91
621.323	284.08
621.522	222.47
621.721	247.46
621.92	210.46
622.119	275.75
622.318	234.29
622.517	243.2
622.715	216.85
622.914	197.09
623.113	251.53
623.312	203.68
623.511	261.41
623.71	256.76
623.909	218.21
624.107	278.46
624.306	216.08
624.505	230.22
624.704	233.32
624.902	245.91
625.101	254.24
625.3	248.24
625.499	192.25
625.697	209.68
625.896	211.62
626.095	257.34
626.293	220.73
626.492	224.02
626.69	252.89
626.889	210.85
627.088	251.34
627.286	204.06
627.485	211.62
627.683	238.55
627.882	249.4
628.08	142.26
628.279	224.8
628.477	308.3
628.676	202.9
628.874	225.38
629.073	220.53
629.271	193.21
629.469	226.15
629.668	223.25
629.866	210.46
630.065	214.91
630.263	246.49
630.461	230.03
630.66	204.65
630.858	238.55
631.056	243.78
631.254	257.73
631.453	209.3
631.651	254.83
631.849	210.26
632.047	230.03
632.245	235.06
632.444	236.23
632.642	236.03
632.84	243.98
633.038	238.36
633.236	180.62
633.434	177.91
633.632	206
633.83	167.25
634.028	258.7
634.227	213.95
634.425	274.98
634.623	208.33
634.821	218.21
635.019	201.55
635.216	178.68
635.414	236.81
635.612	207.94
635.81	213.95
636.008	294.54
636.206	206.58
636.404	236.42
636.602	185.08
636.8	207.94
636.997	224.41
637.195	250.18
637.393	213.95
637.591	268.78
637.789	237.58
637.986	217.43
638.184	212.01
638.382	226.73
638.58	246.11
638.777	275.75
638.975	204.06
639.173	243.2
639.37	221.31
639.568	224.8
639.765	240.1
639.963	206.2
640.161	271.1
640.358	227.7
640.556	178.3
640.753	178.88
640.951	176.75
641.148	233.71
641.346	200.19
641.543	224.21
641.741	239.13
641.938	219.37
642.136	208.91
642.333	197.09
642.531	259.28
642.728	284.66
642.925	205.23
643.123	211.23
643.32	252.69
643.517	206.97
643.715	243.01
643.912	197.28
644.109	230.03
644.306	200.96
644.504	201.55
644.701	209.49
644.898	248.63
645.095	175
645.293	199.22
645.49	227.7
645.687	212.98
645.884	255.02
646.081	169.19
646.278	205.81
646.475	213.17
646.672	196.51
646.87	240.88
647.067	239.13
647.264	228.48
647.461	194.76
647.658	172.48
647.855	236.81
648.052	209.1
648.249	141.29
648.446	191.08
648.642	181.78
648.839	173.45
649.036	176.94
649.233	147.1
649.43	178.68
649.627	164.35
649.824	181.2
650.021	185.08
650.217	152.53
650.414	189.34
650.611	208.91
650.808	216.08
651.004	208.13
651.201	193.41
651.398	246.3
651.595	206.97
651.791	186.24
651.988	214.53
652.185	198.45
652.381	193.6
652.578	155.43
652.775	178.88
652.971	170.93
653.168	201.74
653.364	192.25
653.561	152.33
653.757	195.35
653.954	183.72
654.15	159.89
654.347	240.68
654.543	178.68
654.74	138.58
654.936	149.23
655.133	187.79
655.329	203.1
655.525	175
655.722	198.25
655.918	172.29
656.115	203.1
656.311	157.18
656.507	149.04
656.704	137.42
656.9	167.45
657.096	146.91
657.292	165.12
657.489	180.62
657.685	174.03
657.881	169.58
658.077	157.37
658.273	151.37
658.47	212.4
658.666	175
658.862	193.21
659.058	149.43
659.254	215.3
659.45	160.08
659.646	186.82
659.842	174.03
660.038	208.33
660.234	148.07
660.43	161.63
660.626	227.31
660.822	208.71
661.018	198.45
661.214	163.57
661.41	131.8
661.606	213.95
661.802	192.44
661.998	161.05
662.194	133.73
662.39	184.3
662.586	190.31
662.781	197.28
662.977	191.08
663.173	205.23
663.369	188.76
663.564	211.04
663.76	194.96
663.956	169
664.152	227.12
664.347	157.37
664.543	166.09
664.739	183.14
664.934	125.4
665.13	113.58
665.326	212.2
665.521	178.68
665.717	136.83
665.912	136.64
666.108	115.52
666.304	141.1
666.499	165.7
666.695	106.03
666.89	165.12
667.086	184.69
667.281	165.12
667.477	190.31
667.672	173.45
667.867	191.86
668.063	177.91
668.258	175
668.454	169
668.649	235.84
668.844	159.31
669.04	183.33
669.235	172.48
669.43	141.87
669.626	126.95
669.821	144.2
670.016	114.17
670.211	169.19
670.407	116.88
670.602	157.95
670.797	157.18
670.992	185.27
671.187	135.09
671.382	200.19
671.578	136.06
671.773	175.78
671.968	154.85
672.163	133.54
672.358	200.19
672.553	145.17
672.748	144.39
672.943	215.88
673.138	153.11
673.333	199.03
673.528	156.98
673.723	182.36
673.918	148.07
674.113	151.37
674.308	220.92
674.503	164.54
674.698	197.28
674.892	161.83
675.087	204.06
675.282	185.66
675.477	135.87
675.672	188.95
675.867	128.89
676.061	152.14
676.256	114.94
676.451	139.16
676.646	153.3
676.84	132.77
677.035	111.45
677.23	114.75
677.424	153.5
677.619	207.16
677.814	185.85
678.008	200
678.203	120.95
678.397	138.38
678.592	143.81
678.787	188.37
678.981	128.31
679.176	146.91
679.37	171.51
679.565	119.2
679.759	138.19
679.954	140.9
680.148	198.83
680.342	212.59
680.537	182.75
680.731	137.61
680.926	180.81
681.12	173.84
681.314	147.3
681.509	150.4
681.703	146.91
681.897	164.93
682.092	154.27
682.286	140.9
682.48	216.66
682.674	185.27
682.869	136.25
683.063	136.64
683.257	213.36
683.451	145.17
683.645	161.25
683.839	144.2
684.034	146.91
684.228	194.76
684.422	133.73
684.616	119.2
684.81	175.78
685.004	149.04
685.198	148.27
685.392	197.48
685.586	123.47
685.78	153.11
685.974	173.65
686.168	181.78
686.362	191.28
686.556	141.87
686.75	129.08
686.944	125.02
687.138	161.83
687.331	119.01
687.525	141.48
687.719	97.5
687.913	151.95
688.107	127.92
688.301	123.27
688.494	149.23
688.688	102.93
688.882	93.05
689.076	74.25
689.269	144.58
689.463	171.51
689.657	121.92
689.85	108.74
690.044	145.36
690.238	139.16
690.431	132.96
690.625	123.27
690.818	129.28
691.012	141.29
691.205	167.25
691.399	112.03
691.593	141.68
691.786	186.43
691.98	193.99
692.173	173.84
692.366	138.97
692.56	175.58
692.753	212.2
692.947	116.68
693.14	187.79
693.333	182.56
693.527	108.93
693.72	151.95
693.914	139.35
694.107	132.57
694.3	167.83
694.493	170.16
694.687	191.08
694.88	162.6
695.073	213.95
695.266	160.08
695.46	150.78
695.653	220.53
695.846	198.25
696.039	123.27
696.232	171.32
696.425	205.61
696.618	176.75
696.812	158.92
697.005	212.59
697.198	265.48
697.391	204.65
697.584	208.13
697.777	244.36
697.97	218.6
698.163	242.62
698.356	195.93
698.549	276.14
698.742	243.78
698.935	199.41
699.127	226.73
699.32	209.88
699.513	177.33
699.706	235.65
699.899	227.31
700.092	191.47
700.285	261.41
700.477	185.46
700.67	233.51
700.863	249.4
701.056	322.64
701.248	269.94
701.441	272.65
701.634	253.28
701.826	322.06
702.019	214.33
702.212	286.6
702.404	236.61
702.597	220.34
702.79	231.77
702.982	269.16
703.175	281.95
703.367	291.83
703.56	299.58
703.752	355.19
703.945	307.53
704.137	286.6
704.33	312.37
704.522	320.12
704.715	302.88
704.907	307.33
705.1	319.15
705.292	331.94
705.484	297.45
705.677	347.05
705.869	339.69
706.061	356.54
706.254	396.84
706.446	369.14
706.638	335.23
706.831	398.01
707.023	322.83
707.215	430.75
707.407	414.09
707.599	400.14
707.792	425.13
707.984	390.45
708.176	411.96
708.368	370.88
708.56	403.43
708.752	415.44
708.944	386.96
709.136	412.15
709.329	382.89
709.521	490.42
709.713	449.15
709.905	448.96
710.097	460.97
710.289	451.09
710.481	472.02
710.672	444.7
710.864	462.91
711.056	498.95
711.248	487.9
711.44	473.95
711.632	462.33
711.824	473.57
712.016	553
712.207	497.01
712.399	509.22
712.591	569.08
712.783	527.82
712.975	572.57
713.166	492.94
713.358	493.33
713.55	578.77
713.741	581.87
713.933	573.15
714.125	533.63
714.316	528.4
714.508	587.3
714.7	630.89
714.891	558.23
715.083	659.95
715.274	583.62
715.466	606.86
715.657	619.65
715.849	511.15
716.04	592.33
716.232	535.37
716.423	630.89
716.615	588.07
716.806	568.89
716.998	581.68
717.189	559.59
717.381	479.38
717.572	481.12
717.763	535.76
717.955	565.02
718.146	509.41
718.337	520.84
718.528	461.36
718.72	434.04
718.911	515.22
719.102	485.77
719.293	554.94
719.485	516
719.676	512.32
719.867	481.12
720.058	512.9
720.249	506.5
720.44	546.42
720.632	531.11
720.823	561.33
721.014	607.25
721.205	576.45
721.396	638.64
721.587	674.87
721.778	656.85
721.969	689.4
722.16	691.14
722.351	665.96
722.542	774.26
722.733	776.2
722.924	692.89
723.115	765.74
723.305	748.88
723.496	781.04
723.687	714.39
723.878	690.95
724.069	736.29
724.26	717.88
724.45	677.97
724.641	718.85
724.832	726.79
725.023	736.68
725.213	723.69
725.404	716.33
725.595	704.13
725.785	694.05
725.976	718.08
726.167	753.14
726.357	740.74
726.548	804.49
726.739	728.34
726.929	764.19
727.12	812.24
727.31	843.43
727.501	783.17
727.691	807.2
727.882	811.46
728.072	869.59
728.263	818.44
728.453	868.62
728.644	830.84
728.834	833.36
729.024	863.19
729.215	808.75
729.405	853.31
729.596	903.49
729.786	937.98
729.976	918.02
730.167	938.95
730.357	866.1
730.547	872.69
730.737	940.3
730.928	959.68
731.118	992.81
731.308	929.07
731.498	951.54
731.688	1010.05
731.879	1000.75
732.069	991.26
732.259	1013.15
732.449	1010.44
732.639	1059.07
732.829	1078.25
733.019	1109.06
733.209	1129.01
733.399	1146.45
733.589	1181.52
733.779	1208.06
733.969	1162.14
734.159	1215.04
734.349	1221.82
734.539	1238.87
734.729	1218.91
734.919	1292.73
735.109	1293.89
735.299	1257.66
735.488	1309.2
735.678	1312.3
735.868	1285.76
736.058	1275.1
736.248	1240.03
736.437	1267.35
736.627	1238.29
736.817	1356.47
737.007	1324.7
737.196	1329.15
737.386	1304.35
737.576	1307.65
737.765	1323.92
737.955	1318.89
738.144	1404.72
738.334	1364.42
738.524	1357.83
738.713	1378.56
738.903	1389.41
739.092	1401.42
739.282	1394.45
739.471	1418.47
739.661	1412.85
739.85	1438.43
740.04	1432.23
740.229	1444.43
740.419	1466.71
740.608	1500.43
740.797	1481.25
740.987	1516.7
741.176	1491.71
741.365	1491.9
741.555	1425.25
741.744	1501.4
741.933	1454.7
742.123	1539.56
742.312	1508.95
742.501	1570.18
742.69	1551.19
742.88	1541.11
743.069	1572.5
743.258	1501.2
743.447	1577.73
743.636	1579.67
743.825	1545.76
744.014	1544.21
744.204	1576.76
744.393	1528.33
744.582	1609.89
744.771	1629.66
744.96	1579.67
745.149	1635.08
745.338	1552.74
745.527	1597.3
745.716	1557.97
745.905	1585.48
746.094	1608.73
746.283	1628.88
746.471	1650.39
746.66	1698.63
746.849	1647.48
747.038	1706.77
747.227	1609.51
747.416	1652.13
747.604	1639.54
747.793	1624.04
747.982	1639.34
748.171	1645.35
748.359	1670.92
748.548	1660.66
748.737	1656.2
748.926	1667.82
749.114	1567.85
749.303	1624.62
749.491	1607.38
749.68	1556.23
749.869	1647.48
750.057	1637.21
750.246	1617.45
750.434	1642.83
750.623	1636.44
750.811	1598.66
751	1652.13
751.188	1623.65
751.377	1678.09
751.565	1623.46
751.754	1586.84
751.942	1621.33
752.131	1662.21
752.319	1618.81
752.507	1582.38
752.696	1615.71
752.884	1654.07
753.072	1613.77
753.261	1637.21
753.449	1634.89
753.637	1606.41
753.825	1720.33
754.014	1655.23
754.202	1614.93
754.39	1683.13
754.578	1645.54
754.766	1588.58
754.955	1623.26
755.143	1684.68
755.331	1649.81
755.519	1614.16
755.707	1609.51
755.895	1611.83
756.083	1617.45
756.271	1607.57
756.459	1656.59
756.647	1651.55
756.835	1588.97
757.023	1574.24
757.211	1612.22
757.399	1626.75
757.587	1571.34
757.775	1561.84
757.963	1572.11
758.151	1577.54
758.339	1575.41
758.526	1507.98
758.714	1576.96
758.902	1505.27
759.09	1458.19
759.278	1371.97
759.465	1268.9
759.653	1067.6
759.841	1016.25
760.028	870.94
760.216	685.91
760.404	735.32
760.591	593.3
760.779	451.29
760.967	428.04
761.154	332.91
761.342	382.89
761.529	366.23
761.717	397.23
761.905	392.39
762.092	417.96
762.28	371.07
762.467	385.8
762.655	351.12
762.842	360.03
763.029	365.26
763.217	385.99
763.404	381.92
763.592	381.92
763.779	332.71
763.966	388.12
764.154	395.49
764.341	459.42
764.528	410.21
764.716	461.17
764.903	461.94
765.09	537.7
765.277	551.26
765.465	620.81
765.652	631.66
765.839	709.36
766.026	765.74
766.213	757.21
766.4	816.5
766.588	973.63
766.775	890.12
766.962	992.03
767.149	989.9
767.336	1097.63
767.523	1011.8
767.71	1092.2
767.897	1163.69
768.084	1230.15
768.271	1210
768.458	1259.6
768.645	1284.79
768.832	1259.02
769.019	1274.91
769.206	1317.72
769.392	1353.95
769.579	1461.1
769.766	1408.59
769.953	1380.5
770.14	1409.56
770.327	1376.62
770.513	1411.3
770.7	1465.94
770.887	1428.93
771.073	1467.3
771.26	1407.62
771.447	1398.13
771.634	1376.23
771.82	1475.43
772.007	1376.82
772.193	1435.33
772.38	1460.32
772.567	1425.25
772.753	1452.57
772.94	1479.5
773.126	1459.35
773.313	1460.71
773.499	1450.25
773.686	1487.64
773.872	1397.74
774.059	1483.38
774.245	1399.1
774.432	1433
774.618	1350.47
774.804	1464.39
774.991	1367.32
775.177	1463.61
775.363	1453.15
775.55	1431.07
775.736	1390.57
775.922	1397.16
776.109	1378.17
776.295	1435.33
776.481	1396.38
776.667	1401.03
776.853	1389.22
777.04	1380.69
777.226	1380.11
777.412	1487.06
777.598	1381.85
777.784	1371.59
777.97	1394.64
778.156	1413.24
778.342	1375.65
778.528	1381.27
778.715	1351.05
778.901	1379.14
779.087	1408.2
779.272	1346.01
779.458	1303
779.644	1377.98
779.83	1351.63
780.016	1422.54
780.202	1373.72
780.388	1344.65
780.574	1292.54
780.76	1335.55
780.946	1362.67
781.131	1334.19
781.317	1340.59
781.503	1291.95
781.689	1328.19
781.874	1430.48
782.06	1365.19
782.246	1317.34
782.432	1291.57
782.617	1371.39
782.803	1380.69
782.989	1291.76
783.174	1352.79
783.36	1290.21
783.545	1324.12
783.731	1307.65
783.916	1261.73
784.102	1337.29
784.288	1261.15
784.473	1309.97
784.659	1301.25
784.844	1302.8
785.029	1252.82
785.215	1243.13
785.4	1207.67
785.586	1309.39
785.771	1221.82
785.956	1282.85
786.142	1290.6
786.327	1260.76
786.512	1237.71
786.698	1232.86
786.883	1186.94
787.068	1224.53
787.254	1261.15
787.439	1232.28
787.624	1191.59
787.809	1194.69
787.994	1231.89
788.18	1261.15
788.365	1183.65
788.55	1193.53
788.735	1207.67
788.92	1233.83
789.105	1184.62
789.29	1208.45
789.475	1197.79
789.66	1187.53
789.845	1160.4
790.03	1163.5
790.215	1191.59
790.4	1190.04
790.585	1226.08
790.77	1183.26
790.955	1107.9
791.14	1123.59
791.325	1230.54
791.51	1086.39
791.695	1161.18
791.879	1111.38
792.064	1099.18
792.249	1160.98
792.434	1144.71
792.618	1103.44
792.803	1152.26
792.988	1126.11
793.173	1158.46
793.357	1178.61
793.542	1105.76
793.727	1151.68
793.911	1160.79
794.096	1140.83
794.281	1166.41
794.465	1243.13
794.65	1166.41
794.834	1179.19
795.019	1202.25
795.203	1182.68
795.388	1180.55
795.572	1202.83
795.757	1146.84
795.941	1169.51
796.126	1192.95
796.31	1106.35
796.494	1170.86
796.679	1134.44
796.863	1135.41
797.048	1191.79
797.232	1180.94
797.416	1173.19
797.601	1138.89
797.785	1215.62
797.969	1181.71
798.153	1150.52
798.338	1144.51
798.522	1219.49
798.706	1162.34
798.89	1206.51
799.074	1266.38
799.258	1187.53
799.443	1182.29
799.627	1167.57
799.811	1176.48
799.995	1165.24
800.179	1171.44
800.363	1130.76
800.547	1173.38
800.731	1169.31
800.915	1133.66
801.099	1146.84
801.283	1166.21
801.467	1205.93
801.651	1160.21
801.835	1199.34
802.019	1146.06
802.202	1171.64
802.386	1127.27
802.57	1147.03
802.754	1145.09
802.938	1101.11
803.121	1148.39
803.305	1200.31
803.489	1175.71
803.673	1173.19
803.856	1185.01
804.04	1206.9
804.224	1150.33
804.407	1164.66
804.591	1129.4
804.775	1149.36
804.958	1171.06
805.142	1255.92
805.326	1174.35
805.509	1201.67
805.693	1181.52
805.876	1216.78
806.06	1164.08
806.243	1180.36
806.427	1204.96
806.61	1205.54
806.794	1172.99
806.977	1198.18
807.16	1184.62
807.344	1165.63
807.527	1166.02
807.71	1179
807.894	1165.63
808.077	1209.42
808.26	1160.01
808.444	1152.07
808.627	1209.22
808.81	1155.94
808.993	1107.51
809.177	1117.19
809.36	1105.18
809.543	1185.2
809.726	1096.08
809.909	1064.11
810.092	1119.33
810.276	1085.61
810.459	1088.52
810.642	1051.13
810.825	1082.51
811.008	1079.61
811.191	989.9
811.374	1011.6
811.557	1030.2
811.74	1098.98
811.923	994.94
812.106	985.64
812.289	982.93
812.472	1007.73
812.654	1041.63
812.837	1008.7
813.02	976.34
813.203	977.7
813.386	900.78
813.569	899.42
813.751	881.6
813.934	894.97
814.117	877.53
814.3	853.12
814.482	818.24
814.665	831.03
814.848	790.34
815.03	799.26
815.213	784.92
815.396	784.53
815.578	756.83
815.761	747.53
815.943	822.89
816.126	731.44
816.309	742.1
816.491	689.21
816.674	679.71
816.856	716.14
817.039	676.42
817.221	739.58
817.403	696.38
817.586	693.28
817.768	732.99
817.951	684.56
818.133	661.5
818.315	699.86
818.498	709.74
818.68	774.84
818.862	732.22
819.045	770.19
819.227	738.42
819.409	700.44
819.591	738.23
819.774	741.33
819.956	696.18
820.138	769.22
820.32	755.86
820.502	754.31
820.684	776.2
820.866	805.46
821.048	820.96
821.231	834.32
821.413	796.93
821.595	806.81
821.777	841.11
821.959	813.4
822.141	862.03
822.323	745.59
822.505	719.43
822.686	723.5
822.868	692.11
823.05	655.88
823.232	635.35
823.414	610.55
823.596	671.96
823.778	627.4
823.96	672.55
824.141	646.97
824.323	654.14
824.505	701.22
824.687	699.28
824.868	757.41
825.05	785.31
825.232	783.76
825.413	831.42
825.595	813.79
825.777	726.99
825.958	783.17
826.14	805.26
826.321	811.07
826.503	782.79
826.685	809.91
826.866	795.77
827.048	809.72
827.229	778.14
827.411	732.8
827.592	716.91
827.773	733.96
827.955	695.41
828.136	706.45
828.318	698.89
828.499	726.41
828.68	694.63
828.862	687.85
829.043	738.03
829.224	709.74
829.406	694.63
829.587	706.06
829.768	675.06
829.949	692.5
830.131	674.87
830.312	756.24
830.493	680.29
830.674	732.99
830.855	697.93
831.036	690.95
831.218	738.42
831.399	754.89
831.58	715.75
831.761	712.07
831.942	752.95
832.123	715.94
832.304	666.93
832.485	694.63
832.666	713.04
832.847	733.58
833.028	708.97
833.209	699.28
833.389	701.03
833.57	682.43
833.751	726.21
833.932	746.75
834.113	681.65
834.294	699.86
834.475	727.76
834.655	762.83
834.836	756.05
835.017	733.58
835.198	642.32
835.378	698.89
835.559	725.24
835.74	724.86
835.92	712.46
836.101	687.85
836.281	723.89
836.462	735.9
836.643	751.79
836.823	757.79
837.004	765.93
837.184	788.21
837.365	778.72
837.545	790.92
837.726	730.86
837.906	793.83
838.087	738.81
838.267	753.14
838.448	694.24
838.628	753.73
838.808	709.74
838.989	800.81
839.169	691.53
839.349	785.5
839.53	776.2
839.71	761.28
839.89	721.37
840.07	789.37
840.251	740.55
840.431	762.25
840.611	748.11
840.791	678.94
840.971	748.3
841.151	725.24
841.332	695.79
841.512	785.5
841.692	693.08
841.872	755.86
842.052	742.1
842.232	768.45
842.412	709.36
842.592	731.25
842.772	696.96
842.952	736.87
843.132	699.86
843.312	721.18
843.492	690.95
843.672	770.19
843.851	643.68
844.031	730.28
844.211	712.26
844.391	697.54
844.571	738.23
844.751	771.36
844.93	749.66
845.11	714.01
845.29	738.23
845.47	729.89
845.649	734.16
845.829	698.12
846.009	702.38
846.188	744.81
846.368	743.84
846.547	717.11
846.727	758.38
846.907	666.73
847.086	698.12
847.266	763.8
847.445	703.74
847.625	730.48
847.804	679.13
847.984	676.61
848.163	684.75
848.343	700.83
848.522	732.41
848.701	716.53
848.881	673.13
849.06	708.78
849.239	685.91
849.419	711.29
849.598	643.1
849.777	683.98
849.957	673.71
850.136	644.45
850.315	622.95
850.494	680.29
850.674	634.96
850.853	676.81
851.032	653.95
851.211	728.34
851.39	654.14
851.569	606.48
851.748	612.29
851.927	681.84
852.107	619.85
852.286	643.48
852.465	610.93
852.644	706.64
852.823	668.09
853.002	616.75
853.181	650.07
853.359	658.79
853.538	619.65
853.717	676.42
853.896	603.57
854.075	590.59
854.254	554.55
854.433	547
854.611	595.24
854.79	515.22
854.969	595.82
855.148	585.75
855.327	572.77
855.505	583.62
855.684	554.55
855.863	613.84
856.041	544.48
856.22	599.89
856.399	560.56
856.577	650.07
856.756	633.99
856.934	707.81
857.113	702.38
857.291	624.88
857.47	602.6
857.648	606.28
857.827	641.35
858.005	650.07
858.184	616.94
858.362	675.26
858.541	641.16
858.719	632.44
858.898	602.8
859.076	593.69
859.254	672.35
859.433	612.29
859.611	612.29
859.789	568.31
859.967	642.32
860.146	692.69
860.324	555.33
860.502	594.46
860.68	555.52
860.859	578.77
861.037	597.37
861.215	619.26
861.393	583.23
861.571	605.9
861.749	574.7
861.927	597.95
862.105	598.73
862.283	580.52
862.461	567.53
862.639	571.41
862.817	550.48
862.995	606.09
863.173	579.16
863.351	552.23
863.529	577.61
863.707	610.35
863.885	571.6
864.063	551.84
864.241	577.42
864.418	632.05
864.596	550.87
864.774	522
864.952	566.18
865.129	538.67
865.307	542.15
865.485	519.87
865.663	592.72
865.84	520.26
866.018	546.42
866.196	478.8
866.373	492.55
866.551	499.53
866.728	452.25
866.906	486.35
867.084	487.71
867.261	548.35
867.439	523.55
867.616	554.17
867.794	492.36
867.971	487.9
868.149	529.17
868.326	560.95
868.503	558.82
868.681	557.07
868.858	508.63
869.035	495.65
869.213	545.83
869.39	544.87
869.567	586.72
869.745	545.64
869.922	540.99
870.099	509.41
870.276	537.89
870.454	556.3
870.631	517.35
870.808	528.78
870.985	551.45
871.162	596.6
871.339	554.36
871.517	506.5
871.694	490.23
871.871	503.98
872.048	494.88
872.225	503.6
872.402	525.68
872.579	496.62
872.756	515.61
872.933	501.27
873.11	487.71
873.287	520.45
873.463	515.61
873.64	477.05
873.817	520.65
873.994	498.37
874.171	501.66
874.348	505.34
874.524	457.29
874.701	528.2
874.878	463.1
875.055	508.83
875.231	490.04
875.408	528.01
875.585	436.75
875.762	506.7
875.938	488.87
876.115	475.5
876.291	451.67
876.468	458.84
876.645	448.19
876.821	481.12
876.998	477.64
877.174	503.79
877.351	471.82
877.527	441.79
877.704	429.78
877.88	470.08
878.057	471.63
878.233	512.7
878.409	451.67
878.586	461.55
878.762	486.94
878.938	448.57
879.115	428.23
879.291	473.18
879.467	446.25
879.644	457.1
879.82	476.09
879.996	457.87
880.172	407.5
880.349	456.13
880.525	467.37
880.701	435.01
880.877	436.37
881.053	469.3
881.229	434.24
881.405	480.15
881.581	419.51
881.757	429.78
881.933	467.56
882.109	469.11
882.285	449.54
882.461	398.59
882.637	454.19
882.813	390.84
882.989	425.32
883.165	465.82
883.341	404.79
883.517	463.88
883.693	462.72
883.869	466.4
884.044	452.45
884.22	454.19
884.396	471.24
884.572	452.45
884.747	471.82
884.923	472.6
885.099	453.22
885.275	481.51
885.45	412.73
885.626	416.6
885.801	404.21
885.977	431.91
886.153	388.12
886.328	426.1
886.504	421.64
886.679	472.02
886.855	408.66
887.03	441.21
887.206	464.46
887.381	440.24
887.557	444.7
887.732	447.8
887.908	477.83
888.083	485
888.258	447.6
888.434	418.35
888.609	422.8
888.784	484.8
888.96	413.31
889.135	396.65
889.31	423.58
889.485	449.54
889.661	426.29
889.836	482.48
890.011	439.85
890.186	419.32
890.361	401.11
890.537	438.69
890.712	434.24
890.887	423.58
891.062	418.15
891.237	457.68
891.412	418.74
891.587	454.39
891.762	454.39
891.937	476.47
892.112	403.04
892.287	413.89
892.462	404.21
892.637	389.29
892.812	374.56
892.987	406.14
893.161	390.45
893.336	420.87
893.511	391.42
893.686	393.55
893.861	387.74
894.035	383.47
894.21	379.21
894.385	358.67
894.56	386.38
894.734	317.99
894.909	359.06
895.084	372.04
895.258	330.97
895.433	377.47
895.608	339.88
895.782	302.49
895.957	365.84
896.131	342.98
896.306	299.97
896.48	294.16
896.655	319.73
896.829	270.33
897.004	286.6
897.178	272.46
897.353	297.06
897.527	324.19
897.701	307.72
897.876	255.41
898.05	318.76
898.224	280.4
898.399	343.37
898.573	312.95
898.747	206.78
898.921	291.25
899.096	222.08
899.27	228.28
899.444	233.13
899.618	232.55
899.792	250.95
899.967	233.9
900.141	244.56
900.315	223.05
900.489	206.39
900.663	250.37
900.837	247.66
901.011	224.21
901.185	302.1
901.359	249.4
901.533	260.64
901.707	219.76
901.881	263.74
902.055	187.6
902.229	263.74
902.403	293.58
902.576	239.33
902.75	246.49
902.924	336.78
903.098	306.56
903.272	316.05
903.446	325.74
903.619	297.64
903.793	340.85
903.967	285.83
904.14	309.46
904.314	302.1
904.488	336.2
904.661	310.43
904.835	321.09
905.009	336.78
905.182	354.22
905.356	347.44
905.529	336.39
905.703	280.4
905.876	306.94
906.05	266.26
906.223	285.83
906.397	243.39
906.57	249.21
906.744	212.78
906.917	230.61
907.09	244.94
907.264	261.61
907.437	226.54
907.61	206.78
907.784	237.39
907.957	227.12
908.13	219.95
908.304	247.46
908.477	225.96
908.65	214.53
908.823	186.05
908.996	264.51
909.17	221.5
909.343	227.31
909.516	226.35
909.689	231.38
909.862	196.7
910.035	218.4
910.208	204.84
910.381	193.99
910.554	311.59
910.727	198.64
910.9	203.68
911.073	192.44
911.246	235.65
911.419	261.22
911.592	214.33
911.765	224.02
911.938	197.48
912.11	208.71
912.283	223.44
912.456	257.15
912.629	218.98
912.802	215.5
912.974	192.05
913.147	174.81
913.32	157.76
913.493	165.9
913.665	214.14
913.838	186.05
914.01	177.13
914.183	175
914.356	162.41
914.528	229.25
914.701	247.08
914.873	218.6
915.046	181.4
915.218	177.52
915.391	150.01
915.563	146.33
915.736	208.91
915.908	212.78
916.081	191.86
916.253	161.83
916.425	203.48
916.598	175.2
916.77	174.61
916.942	166.09
917.115	107.58
917.287	218.21
917.459	203.48
917.632	142.84
917.804	116.1
917.976	181.2
918.148	168.03
918.32	160.08
918.493	206.78
918.665	232.35
918.837	183.72
919.009	226.35
919.181	203.29
919.353	200
919.525	199.03
919.697	201.74
919.869	191.08
920.041	221.7
920.213	295.51
920.385	223.44
920.557	186.24
920.729	210.85
920.901	180.23
921.073	209.3
921.244	177.91
921.416	220.34
921.588	222.86
921.76	196.12
921.932	249.79
922.103	182.95
922.275	207.55
922.447	189.73
922.619	148.27
922.79	200
922.962	170.74
923.134	221.89
923.305	162.02
923.477	161.05
923.648	142.07
923.82	172.1
923.991	118.82
924.163	121.72
924.335	163.18
924.506	148.85
924.677	196.9
924.849	136.45
925.02	152.91
925.192	172.87
925.363	156.79
925.535	179.65
925.706	165.31
925.877	185.46
926.049	146.13
926.22	178.88
926.391	205.81
926.562	169.38
926.734	150.98
926.905	201.35
927.076	108.35
927.247	138.58
927.419	113.39
927.59	97.89
927.761	140.13
927.932	163.57
928.103	149.04
928.274	130.25
928.445	80.45
928.616	123.85
928.787	126.37
928.958	137.42
929.129	125.21
929.3	121.14
929.471	82.97
929.642	50.23
929.813	27.17
929.984	102.15
930.155	68.63
930.326	87.43
930.496	76.19
930.667	20.97
930.838	77.16
931.009	50.62
931.18	73.87
931.35	72.7
931.521	65.73
931.692	22.14
931.863	-4.8
932.033	67.08
932.204	65.53
932.374	64.57
932.545	25.43
932.716	63.02
932.886	77.55
933.057	1.21
933.227	21.75
933.398	91.88
933.568	36.47
933.739	-22.81
933.909	-5.76
934.08	45.77
934.25	-11.38
934.421	-5.57
934.591	29.5
934.761	-24.94
934.932	-13.9
935.102	26.4
935.272	1.02
935.443	21.36
935.613	6.83
935.783	18.26
935.953	-21.07
936.123	125.4
936.294	-7.7
936.464	10.9
936.634	6.64
936.804	-17.78
936.974	-41.41
937.144	28.14
937.314	22.33
937.484	7.22
937.655	-10.22
937.825	46.35
937.995	-39.48
938.165	58.17
938.334	-15.26
938.504	-5.18
938.674	-6.93
938.844	-12.55
939.014	54.1
939.184	43.64
939.354	69.8
939.524	62.82
939.694	-4.6
939.863	11.87
940.033	88.59
940.203	81.81
940.373	43.84
940.542	59.92
940.712	21.55
940.882	46.94
941.051	62.44
941.221	48.49
941.391	70.38
941.56	9.54
941.73	15.16
941.899	108.16
942.069	12.64
942.238	41.9
942.408	38.99
942.577	94.02
942.747	45.97
942.916	2.37
943.086	21.75
943.255	48.1
943.425	56.62
943.594	6.64
943.763	-18.55
943.933	5.67
944.102	-37.15
944.271	9.15
944.441	32.21
944.61	15.74
944.779	15.16
944.948	107
945.117	-10.8
945.287	7.8
945.456	-20.3
945.625	9.35
945.794	44.03
945.963	7.99
946.132	11.67
946.301	-14.48
946.47	47.32
946.639	-28.63
946.808	0.05
946.977	46.16
947.146	71.15
947.315	-12.16
947.484	45.97
947.653	10.12
947.822	4.5
947.991	9.74
948.16	86.46
948.329	55.07
948.498	7.8
948.666	16.13
948.835	44.61
949.004	13.42
949.173	-34.83
949.341	12.64
949.51	25.24
949.679	75.42
949.847	49.45
950.016	102.93
950.185	60.5
950.353	-26.11
950.522	-4.21
950.69	42.09
950.859	-19.71
951.028	58.95
951.196	42.67
951.365	20.2
951.533	27.37
951.701	52.36
951.87	43.25
952.038	-15.45
952.207	40.93
952.375	91.88
952.543	23.49
952.712	20.97
952.88	15.16
953.048	81.81
953.217	8.96
953.385	19.42
953.553	69.99
953.721	2.37
953.89	26.79
954.058	-24.17
954.226	4.31
954.394	12.45
954.562	15.16
954.73	17.68
954.898	3.15
955.067	48.29
955.235	23.3
955.403	49.07
955.571	87.23
955.739	22.14
955.907	1.21
956.075	24.46
956.243	-8.86
956.41	35.7
956.578	-5.96
956.746	-26.3
956.914	14.19
957.082	47.9
957.25	35.31
957.418	-25.33
957.585	19.23
957.753	51.39
957.921	-21.46
958.089	41.7
958.256	32.21
958.424	36.47
958.592	37.83
958.759	-19.33
958.927	48.49
959.095	0.05
959.262	38.41
959.43	35.5
959.597	-13.13
959.765	3.34
959.932	4.12
960.1	37.44
960.267	15.94
960.435	30.47
960.602	41.9
960.77	13.8
960.937	-10.61
961.104	35.5
961.272	-16.03
961.439	24.85
961.606	39.77
961.774	49.84
961.941	11.29
962.108	55.46
962.275	14.58
962.443	57.98
962.61	19.23
962.777	84.52
962.944	67.28
963.111	27.17
963.278	25.43
963.446	21.75
963.613	39.77
963.78	50.81
963.947	50.42
964.114	35.12
964.281	107
964.448	27.56
964.615	7.22
964.782	36.86
964.949	78.9
965.116	48.1
965.282	78.52
965.449	5.67
965.616	-2.86
965.783	55.85
965.95	41.32
966.117	-4.99
966.283	36.09
966.45	25.24
966.617	30.85
966.784	42.29
966.95	48.87
967.117	38.8
967.284	2.37
967.45	20.59
967.617	83.17
967.784	53.33
967.95	85.88
968.117	22.72
968.283	43.64
968.45	104.48
968.616	38.02
968.783	70.57
968.949	58.56
969.116	91.3
969.282	57.79
969.449	39.57
969.615	55.65
969.781	6.25
969.948	2.95
970.114	-12.74
970.28	91.5
970.447	38.22
970.613	90.92
970.779	18.65
970.945	61.47
971.112	45.19
971.278	15.55
971.444	39.57
971.61	70.57
971.776	22.33
971.942	38.99
972.108	32.4
972.275	32.21
972.441	42.67
972.607	84.91
972.773	-6.15
972.939	47.9
973.105	20
973.271	-2.86
973.437	35.89
973.602	29.5
973.768	45
973.934	47.9
974.1	47.52
974.266	-26.69
974.432	52.94
974.598	36.67
974.763	70.38
974.929	21.17
975.095	78.32
975.261	10.51
975.426	-9.64
975.592	19.81
975.758	95.37
975.923	-2.28
976.089	10.9
976.255	43.06
976.42	45.19
976.586	51.2
976.751	54.3
976.917	117.46
977.082	50.23
977.248	-0.34
977.413	-13.9
977.579	48.29
977.744	31.44
977.91	-2.47
978.075	11.87
978.24	40.93
978.406	12.06
978.571	13.03
978.736	-1.89
978.902	36.47
979.067	-15.06
979.232	-28.04
979.397	43.25
979.563	81.62
979.728	-10.61
979.893	44.03
980.058	-34.05
980.223	59.14
980.388	43.64
980.554	38.41
980.719	23.3
980.884	50.62
981.049	64.95
981.214	26.98
981.379	60.3
981.544	11.67
981.709	28.14
981.874	14.39
982.039	32.99
982.204	68.44
982.368	38.02
982.533	7.6
982.698	93.43
982.863	49.26
983.028	19.42
983.193	28.72
983.357	42.87
983.522	30.47
983.687	29.5
983.852	10.7
984.016	7.6
984.181	44.42
984.346	22.52
984.51	35.12
984.675	53.91
984.839	40.35
985.004	27.37
985.168	69.02
985.333	27.37
985.498	33.37
985.662	76.97
985.827	36.28
985.991	36.28
986.155	9.74
986.32	60.5
986.484	90.92
986.649	39.96
986.813	-16.42
986.977	46.94
987.142	41.12
987.306	13.8
987.47	7.22
987.634	0.63
987.799	53.14
987.963	45
988.127	62.63
988.291	108.93
988.455	41.7
988.62	21.94
988.784	48.29
988.948	65.15
989.112	29.5
989.276	32.21
989.44	41.7
989.604	17.49
989.768	8.19
989.932	82.58
990.096	16.13
990.26	-5.57
990.424	-19.71
990.588	18.65
990.752	80.84
990.915	49.45
991.079	18.65
991.243	34.54
991.407	51.97
991.571	9.74
991.734	40.15
991.898	49.84
992.062	90.72
992.226	24.65
992.389	40.74
992.553	-11.19
992.717	-4.99
992.88	30.27
993.044	47.32
993.207	21.17
993.371	38.6
993.535	25.62
993.698	45.39
993.862	71.35
994.025	70.38
994.189	29.5
994.352	48.68
994.515	43.06
994.679	53.33
994.842	5.09
995.006	67.08
995.169	6.44
995.332	-18.94
995.496	77.93
995.659	-15.26
995.822	40.15
995.985	25.62
996.149	67.28
996.312	13.22
996.475	75.42
996.638	25.82
996.801	61.66
996.964	83.36
997.128	36.67
997.291	22.14
997.454	41.9
997.617	-16.23
997.78	63.4
997.943	8.57
998.106	71.35
998.269	-0.73
998.432	16.32
998.595	31.24
998.758	-7.9
998.92	-2.47
999.083	-43.16
999.246	9.93
999.409	-32.11
999.572	-23.78
999.735	4.12
999.897	35.7
1000.06	-13.13
1000.223	-6.35
1000.386	40.15
1000.548	48.1
1000.711	49.84
1000.874	59.92
1001.036	-22.23
1001.199	42.67
1001.361	31.05
1001.524	16.13
1001.687	61.85
1001.849	12.06
1002.012	35.89
1002.174	29.5
1002.337	44.22
1002.499	5.09
1002.661	54.88
1002.824	0.63
1002.986	22.14
1003.149	21.55
1003.311	-3.25
1003.473	67.28
1003.636	-17.78
1003.798	54.49
1003.96	49.65
1004.123	35.89
1004.285	3.73
1004.447	30.08
1004.609	23.3
1004.771	65.53
1004.933	-49.55
1005.096	2.95
1005.258	-25.53
1005.42	-7.51
1005.582	33.95
1005.744	0.05
1005.906	-21.07
1006.068	52.36
1006.23	-22.43
1006.392	-32.89
1006.554	4.89
1006.716	79.68
1006.878	69.6
1007.04	-7.31
1007.202	8.57
1007.363	2.57
1007.525	22.14
1007.687	7.02
1007.849	76.58
1008.011	0.05
1008.172	-32.89
1008.334	6.64
1008.496	27.17
1008.658	-10.03
1008.819	-26.11
1008.981	-33.66
1009.143	-2.08
1009.304	35.12
1009.466	43.64
1009.627	74.83
1009.789	116.49
1009.95	19.42
1010.112	9.35
1010.273	60.11
1010.435	-29.79
1010.596	-1.11
1010.758	-4.21
1010.919	-9.83
1011.081	-28.43
1011.242	13.8
1011.403	38.22
1011.565	-10.61
1011.726	18.84
1011.887	-15.45
1012.049	-2.08
1012.21	57.98
1012.371	77.55
1012.532	-54.01
1012.693	-6.15
1012.855	14.58
1013.016	-2.28
1013.177	45.39
1013.338	17.29
1013.499	71.35
1013.66	38.6
1013.821	38.8
1013.982	43.25
1014.143	24.27
1014.304	2.57
1014.465	21.36
1014.626	33.37
1014.787	-18.55
1014.948	89.75
1015.109	-66.79
1015.27	59.53
1015.431	-17.78
1015.592	-19.13
1015.752	48.29
1015.913	33.18
1016.074	20
1016.235	1.99
1016.395	3.15
1016.556	14
1016.717	14.19
1016.877	55.65
1017.038	-3.25
1017.199	14.39
1017.359	18.65
1017.52	3.92
1017.681	-2.08
1017.841	-3.05
1018.002	-5.38
1018.162	4.31
1018.323	34.15
1018.483	-13.51
1018.644	19.42
1018.804	-37.15
1018.964	-27.85
1019.125	-16.81
1019.285	20.39
1019.446	-12.74
1019.606	-26.11
1019.766	-42.96
1019.926	27.17
1020.087	35.7
1020.247	-27.46
1020.407	26.4
1020.567	48.1
1020.728	14.77
1020.888	-32.89
1021.048	-18.16
1021.208	0.44
1021.368	-24.56
1021.528	78.52
1021.688	48.1
1021.848	25.04
1022.008	30.85
1022.168	-4.8
1022.328	19.62
1022.488	-2.47
1022.648	7.41
1022.808	11.67
1022.968	32.79
1023.128	-9.45
1023.288	-2.66
1023.448	36.67
1023.608	26.4
1023.767	18.45
1023.927	8.38
1024.087	-25.72
1024.247	-53.62
1024.406	-3.63
1024.566	-6.35
1024.726	-35.79
1024.885	28.34
1025.045	1.21
1025.205	-23.39
1025.364	13.03
1025.524	23.1
1025.683	-10.03
1025.843	4.12
1026.003	2.57
1026.162	70.57
1026.321	31.05
1026.481	23.1
1026.64	-18.16
1026.8	22.33
1026.959	11.09
1027.119	10.51
1027.278	20.97
1027.437	2.95
1027.597	2.37
1027.756	32.79
1027.915	3.73
1028.074	32.79
1028.234	-5.96
1028.393	22.91
1028.552	-22.43
1028.711	-74.16
1028.87	16.71
1029.03	-29.4
1029.189	7.8
1029.348	-58.27
1029.507	-14.1
1029.666	14.19
1029.825	-20.88
1029.984	-27.27
1030.143	16.52
1030.302	-19.71
1030.461	-41.99
1030.62	17.68
1030.779	19.81
1030.938	-33.86
1031.097	-21.85
1031.255	28.34
1031.414	54.88
1031.573	40.35
1031.732	-38.12
1031.891	15.16
1032.049	19.81
1032.208	30.85
1032.367	-13.32
1032.525	-7.51
1032.684	1.6
1032.843	12.45
1033.001	-25.91
1033.16	115.52
1033.319	30.27
1033.477	17.68
1033.636	-16.42
1033.794	-30.37
1033.953	19.62
1034.111	25.04
1034.27	-11.77
1034.428	16.9
1034.587	-46.64
1034.745	30.47
1034.903	-0.92
1035.062	5.09
1035.22	-20.1
1035.378	57.4
1035.537	-26.11
1035.695	38.99
1035.853	-11.19
1036.011	49.65
1036.17	18.65
1036.328	-30.95
1036.486	28.72
1036.644	22.72
1036.802	-76.48
1036.96	-29.4
1037.119	6.64
1037.277	-16.61
1037.435	-24.94
1037.593	5.28
1037.751	-11.38
1037.909	7.22
1038.067	7.22
