Data from oakcork_FLMT105791__291__17-34-37-052.txt Node

Date: Mon Mar 20 17:34:37 GMT 2023
User: antho
Spectrometer: FLMT10579
Trigger mode: 0
Integration Time (sec): 1.000000E-1
Scans to average: 10
Electric dark correction enabled: true
Nonlinearity correction enabled: false
Boxcar width: 0
XAxis mode: Wavelengths
Number of Pixels in Spectrum: 3648
>>>>>Begin Spectral Data<<<<<
345.248	-141.94
345.464	-141.94
345.681	-141.94
345.898	-161.31
346.114	-124.69
346.331	-41.57
346.548	44.06
346.764	9.57
346.981	-17.94
347.197	-11.16
347.414	0.86
347.631	-17.16
347.847	63.24
348.064	10.54
348.28	13.45
348.497	-45.64
348.713	-8.25
348.93	25.85
349.146	27.59
349.363	-12.32
349.579	15.39
349.796	-1.66
350.012	12.67
350.229	25.85
350.445	3.37
350.661	-10.77
350.878	-2.24
351.094	8.61
351.311	4.73
351.527	-1.28
351.743	0.08
351.96	32.05
352.176	38.64
352.392	10.16
352.609	32.63
352.825	-35.18
353.041	-10.38
353.257	-15.03
353.474	-13.29
353.69	5.12
353.906	29.53
354.122	-21.43
354.339	31.86
354.555	8.41
354.771	-14.45
354.987	29.14
355.203	58.59
355.42	-20.26
355.636	-15.23
355.852	-38.09
356.068	-10.77
356.284	-67.54
356.5	35.73
356.716	35.54
356.932	-11.16
357.148	26.04
357.364	-13.29
357.58	43.67
357.796	31.47
358.012	53.17
358.228	3.76
358.444	-59.98
358.66	55.1
358.876	21.78
359.092	-28.98
359.308	15.39
359.524	25.27
359.74	-14.64
359.956	-21.43
360.172	-4.18
360.388	27.01
360.604	-16.78
360.819	47.94
361.035	20.62
361.251	40.57
361.467	-33.05
361.683	55.3
361.898	10.93
362.114	48.52
362.33	22.75
362.546	34.18
362.762	-9.41
362.977	5.51
363.193	-10.38
363.409	35.73
363.624	-21.81
363.84	-47.97
364.056	-11.35
364.271	35.73
364.487	-15.81
364.703	-4.18
364.918	-24.33
365.134	-16.39
365.35	17.52
365.565	88.62
365.781	40.57
365.996	18.68
366.212	44.26
366.427	9.96
366.643	1.44
366.858	2.99
367.074	-25.49
367.289	53.55
367.505	94.05
367.72	-40.41
367.936	4.34
368.151	43.67
368.367	4.15
368.582	10.54
368.798	-11.74
369.013	23.52
369.228	13.64
369.444	23.52
369.659	60.53
369.874	21.59
370.09	39.22
370.305	-50.1
370.52	7.44
370.736	25.66
370.951	7.25
371.166	38.06
371.381	73.12
371.597	37.09
371.812	-29.95
372.027	-14.06
372.242	-5.34
372.458	63.82
372.673	2.41
372.888	8.99
373.103	33.02
373.318	99.28
373.533	18.68
373.749	41.93
373.964	-59.21
374.179	55.88
374.394	-42.74
374.609	59.17
374.824	-47.39
375.039	36.31
375.254	-19.49
375.469	67.12
375.684	17.52
375.899	31.86
376.114	6.09
376.329	-3.41
376.544	49.49
376.759	19.07
376.974	-22.2
377.189	3.96
377.404	2.99
377.619	50.07
377.834	-46.22
378.049	-27.04
378.264	-21.62
378.478	14.81
378.693	0.86
378.908	17.91
379.123	-6.7
379.338	49.87
379.553	25.85
379.767	17.91
379.982	21.78
380.197	27.01
380.412	32.82
380.626	35.15
380.841	80.49
381.056	33.41
381.271	60.72
381.485	-1.66
381.7	-20.26
381.915	13.45
382.129	3.76
382.344	10.74
382.559	10.74
382.773	46.39
382.988	-54.17
383.202	18.49
383.417	-10.77
383.632	68.28
383.846	28.56
384.061	6.09
384.275	-2.05
384.49	43.67
384.704	30.5
384.919	-1.08
385.133	23.14
385.348	45.22
385.562	-43.32
385.777	29.72
385.991	13.26
386.206	-0.31
386.42	-14.84
386.634	41.16
386.849	35.73
387.063	51.23
387.277	-13.87
387.492	-19.68
387.706	-42.74
387.92	-19.29
388.135	54.52
388.349	52.39
388.563	-2.63
388.778	40.96
388.992	42.9
389.206	34.57
389.42	95.02
389.635	20.42
389.849	34.18
390.063	53.55
390.277	12.09
390.491	73.32
390.706	19.26
390.92	31.08
391.134	22.56
391.348	42.32
391.562	-9.99
391.776	10.74
391.99	-4.18
392.205	27.59
392.419	-0.5
392.633	26.43
392.847	46.77
393.061	-8.64
393.275	62.85
393.489	53.17
393.703	57.62
393.917	55.1
394.131	22.36
394.345	46.58
394.559	54.33
394.773	22.94
394.986	45.61
395.2	31.47
395.414	45.22
395.628	-11.54
395.842	31.08
396.056	11.51
396.27	-27.82
396.484	18.49
396.697	24.11
396.911	39.61
397.125	14.81
397.339	60.14
397.553	28.95
397.766	78.74
397.98	53.94
398.194	67.31
398.408	34.57
398.621	26.82
398.835	35.54
399.049	44.45
399.262	66.34
399.476	60.72
399.69	54.14
399.903	100.05
400.117	12.67
400.331	43.67
400.544	-6.89
400.758	116.72
400.971	50.07
401.185	68.47
401.398	-16
401.612	48.52
401.826	68.47
402.039	48.91
402.253	9.19
402.466	45.03
402.68	-0.31
402.893	55.1
403.106	19.46
403.32	45.42
403.533	47.36
403.747	5.31
403.96	31.86
404.174	87.27
404.387	-9.99
404.6	27.59
404.814	42.71
405.027	60.53
405.24	19.46
405.454	16.55
405.667	60.72
405.88	-20.65
406.094	46
406.307	68.28
406.52	68.28
406.733	0.27
406.947	-6.31
407.16	94.44
407.373	64.4
407.586	12.29
407.799	8.61
408.012	46.58
408.226	56.27
408.439	83.97
408.652	-3.41
408.865	64.02
409.078	76.61
409.291	41.54
409.504	-6.12
409.717	62.85
409.93	57.82
410.143	55.69
410.357	5.31
410.57	-8.25
410.783	6.28
410.996	44.06
411.209	58.4
411.421	84.55
411.634	32.44
411.847	9.19
412.06	37.86
412.273	37.28
412.486	38.64
412.699	88.82
412.912	14.22
413.125	80.49
413.338	41.16
413.55	60.92
413.763	24.11
413.976	55.49
414.189	6.67
414.402	49.1
414.615	86.88
414.827	21.59
415.04	75.45
415.253	71.19
415.466	64.99
415.678	99.67
415.891	71.77
416.104	46.58
416.316	46.19
416.529	21.78
416.742	51.42
416.954	63.82
417.167	66.34
417.38	44.45
417.592	63.44
417.805	33.41
418.017	1.63
418.23	64.21
418.442	18.1
418.655	27.59
418.868	51.23
419.08	81.65
419.293	76.42
419.505	80.1
419.718	51.62
419.93	108.39
420.142	18.68
420.355	92.11
420.567	98.31
420.78	62.27
420.992	36.89
421.205	101.22
421.417	4.54
421.629	46
421.842	41.93
422.054	14.42
422.266	67.89
422.479	88.04
422.691	46.39
422.903	74.09
423.115	16.94
423.328	52
423.54	50.26
423.752	43.48
423.964	16.36
424.177	49.49
424.389	45.22
424.601	129.31
424.813	68.86
425.025	79.32
425.238	58.59
425.45	33.21
425.662	41.74
425.874	316.86
426.086	50.07
426.298	68.86
426.51	48.91
426.722	77
426.934	52.59
427.146	81.45
427.358	18.87
427.57	84.55
427.782	45.22
427.994	55.69
428.206	14.61
428.418	15.39
428.63	53.94
428.842	81.45
429.054	52.59
429.266	99.86
429.478	32.63
429.69	41.54
429.902	18.1
430.114	76.03
430.325	52
430.537	16.94
430.749	52.97
430.961	4.73
431.173	51.04
431.384	87.46
431.596	16.74
431.808	48.91
432.02	49.68
432.231	73.12
432.443	75.84
432.655	53.55
432.867	12.29
433.078	50.84
433.29	95.99
433.502	62.27
433.713	101.22
433.925	61.89
434.136	110.52
434.348	31.66
434.56	12.87
434.771	117.1
434.983	16.36
435.194	36.89
435.406	39.8
435.617	67.12
435.829	116.72
436.04	80.68
436.252	89.98
436.463	95.99
436.675	89.01
436.886	75.06
437.098	99.47
437.309	118.65
437.521	57.43
437.732	80.49
437.943	67.31
438.155	51.23
438.366	28.76
438.578	111.29
438.789	73.51
439	110.32
439.211	69.64
439.423	74.09
439.634	68.86
439.845	81.07
440.057	72.35
440.268	74.09
440.479	45.81
440.69	51.04
440.902	63.24
441.113	68.47
441.324	72.74
441.535	55.3
441.746	119.04
441.957	47.16
442.168	41.35
442.38	61.69
442.591	101.41
442.802	64.79
443.013	35.92
443.224	62.66
443.435	58.79
443.646	44.84
443.857	39.8
444.068	61.11
444.279	67.5
444.49	132.8
444.701	56.07
444.912	146.36
445.123	72.54
445.334	81.45
445.545	84.55
445.756	96.37
445.967	55.49
446.178	83.97
446.388	104.12
446.599	121.75
446.81	103.93
447.021	59.75
447.232	101.22
447.443	107.61
447.653	50.26
447.864	103.54
448.075	93.27
448.286	96.57
448.496	91.53
448.707	116.33
448.918	69.64
449.129	176.39
449.339	71.38
449.55	102.96
449.761	54.52
449.971	121.56
450.182	88.24
450.393	99.09
450.603	55.49
450.814	104.51
451.024	101.6
451.235	134.54
451.446	138.61
451.656	144.42
451.867	61.3
452.077	83.97
452.288	141.32
452.498	139.97
452.709	91.92
452.919	95.21
453.13	86.88
453.34	122.72
453.55	70.8
453.761	112.45
453.971	107.03
454.182	126.02
454.392	117.69
454.602	163.02
454.813	118.65
455.023	154.3
455.233	64.6
455.444	83
455.654	46.39
455.864	95.79
456.075	90.75
456.285	83.2
456.495	97.34
456.705	132.99
456.916	121.37
457.126	139.19
457.336	91.72
457.546	83
457.756	82.23
457.967	115.36
458.177	64.79
458.387	92.3
458.597	93.66
458.807	117.69
459.017	120.01
459.227	104.12
459.437	82.23
459.647	130.09
459.857	130.67
460.068	77.19
460.278	131.64
460.488	116.52
460.698	163.22
460.908	104.7
461.117	29.92
461.327	67.89
461.537	98.31
461.747	119.04
461.957	92.89
462.167	193.05
462.377	131.05
462.587	105.87
462.797	124.08
463.007	110.9
463.216	143.45
463.426	159.92
463.636	125.05
463.846	62.47
464.056	92.5
464.265	113.23
464.475	94.82
464.685	115.94
464.895	124.47
465.104	122.72
465.314	117.1
465.524	114.2
465.733	71.19
465.943	167.48
466.153	159.53
466.362	157.79
466.572	102.96
466.782	100.64
466.991	126.79
467.201	181.62
467.41	46.58
467.62	131.44
467.829	108.97
468.039	136.67
468.249	106.06
468.458	137.64
468.668	136.87
468.877	140.55
469.086	165.35
469.296	136.67
469.505	98.5
469.715	169.8
469.924	126.4
470.134	157.6
470.343	177.17
470.552	122.14
470.762	116.72
470.971	101.02
471.18	139.77
471.39	125.24
471.599	86.88
471.808	169.03
472.018	83.59
472.227	150.04
472.436	139.77
472.645	89.4
472.855	73.9
473.064	157.02
473.273	126.6
473.482	144.23
473.691	165.35
473.901	176.58
474.11	137.45
474.319	229.67
474.528	145.2
474.737	169.22
474.946	170.97
475.155	136.87
475.364	157.21
475.573	145.58
475.783	141.71
475.992	151.59
476.201	172.71
476.41	94.82
476.619	102.96
476.828	141.13
477.037	121.56
477.245	141.13
477.454	158.76
477.663	133.19
477.872	113.23
478.081	186.27
478.29	113.04
478.499	202.74
478.708	170.77
478.917	220.95
479.125	151.59
479.334	176.78
479.543	120.4
479.752	175.03
479.961	177.94
480.169	157.98
480.378	136.67
480.587	285.86
480.796	190.73
481.004	158.57
481.213	189.37
481.422	171.93
481.63	140.35
481.839	172.71
482.048	201.38
482.256	156.24
482.465	177.17
482.674	181.82
482.882	186.47
483.091	250.79
483.299	193.83
483.508	220.37
483.716	161.28
483.925	178.52
484.134	191.7
484.342	152.95
484.551	196.15
484.759	208.17
484.967	191.12
485.176	213.78
485.384	197.12
485.593	247.88
485.801	215.14
486.01	208.75
486.218	187.24
486.426	156.63
486.635	181.82
486.843	196.93
487.051	201
487.26	180.85
487.468	203.9
487.676	219.02
487.885	178.33
488.093	176.97
488.301	182.98
488.509	191.31
488.717	200.03
488.926	199.45
489.134	185.11
489.342	194.02
489.55	199.06
489.758	199.83
489.967	173.87
490.175	278.5
490.383	175.81
490.591	251.56
490.799	152.17
491.007	217.85
491.215	201.77
491.423	201.97
491.631	199.45
491.839	204.48
492.047	250.4
492.255	160.31
492.463	168.45
492.671	211.46
492.879	239.94
493.087	195.18
493.295	211.07
493.503	213.01
493.711	200.03
493.919	263.77
494.127	245.75
494.334	240.71
494.542	212.82
494.75	195.77
494.958	200.42
495.166	258.35
495.374	203.13
495.581	218.05
495.789	244.78
495.997	253.7
496.205	231.22
496.412	225.22
496.62	215.14
496.828	249.63
497.035	201.19
497.243	254.86
497.451	207.58
497.658	218.24
497.866	211.65
498.074	276.56
498.281	189.37
498.489	273.65
498.696	237.81
498.904	224.44
499.112	225.41
499.319	296.9
499.527	221.73
499.734	255.63
499.942	208.94
500.149	224.63
500.357	229.09
500.564	190.15
500.771	281.4
500.979	218.82
501.186	220.76
501.394	241.68
501.601	263.58
501.808	252.53
502.016	241.68
502.223	244.2
502.43	264.93
502.638	242.65
502.845	202.55
503.052	296.9
503.26	202.35
503.467	301.75
503.674	231.61
503.881	251.76
504.089	322.48
504.296	279.85
504.503	227.93
504.71	262.61
504.917	221.53
505.125	271.13
505.332	245.17
505.539	249.05
505.746	303.1
505.953	275.01
506.16	244.78
506.367	320.54
506.574	288.38
506.781	286.05
506.988	220.18
507.195	270.75
507.402	251.76
507.609	307.95
507.816	270.16
508.023	257.38
508.23	251.37
508.437	224.25
508.644	266.87
508.851	297.87
509.058	311.05
509.265	275.01
509.472	282.76
509.679	332.74
509.885	283.73
510.092	254.28
510.299	234.32
510.506	284.11
510.713	277.53
510.92	267.45
511.126	284.31
511.333	299.81
511.54	285.66
511.746	335.84
511.953	318.79
512.16	310.27
512.367	283.53
512.573	273.07
512.78	285.28
512.987	268.03
513.193	279.66
513.4	218.24
513.606	292.25
513.813	306.2
514.02	308.53
514.226	337.2
514.433	343.21
514.639	278.5
514.846	298.84
515.052	276.36
515.259	289.15
515.465	284.7
515.672	282.76
515.878	354.83
516.085	251.56
516.291	311.63
516.497	277.53
516.704	287.02
516.91	259.7
517.117	266.29
517.323	250.6
517.529	257.76
517.736	275.98
517.942	290.7
518.148	247.5
518.354	276.56
518.561	297.68
518.767	274.81
518.973	318.41
519.179	340.88
519.386	264.74
519.592	302.13
519.798	280.82
520.004	333.91
520.21	287.41
520.417	326.54
520.623	309.11
520.829	354.06
521.035	326.54
521.241	352.89
521.447	336.43
521.653	421.29
521.859	314.34
522.065	336.43
522.271	403.46
522.477	365.29
522.683	357.54
522.889	358.71
523.095	356.58
523.301	328.09
523.507	300.39
523.713	374.98
523.919	320.93
524.125	365.49
524.331	344.56
524.537	402.11
524.742	346.11
524.948	365.1
525.154	394.55
525.36	467.4
525.566	396.1
525.772	426.32
525.977	352.12
526.183	388.54
526.389	428.07
526.595	349.21
526.8	343.4
527.006	327.32
527.212	330.03
527.417	314.92
527.623	312.21
527.829	407.34
528.034	377.31
528.24	368.39
528.446	330.81
528.651	413.15
528.857	358.71
529.062	456.36
529.268	379.83
529.473	394.94
529.679	381.96
529.884	428.26
530.09	419.35
530.295	447.64
530.501	434.66
530.706	384.67
530.912	371.49
531.117	390.09
531.323	406.76
531.528	435.24
531.733	417.61
531.939	390.09
532.144	439.5
532.35	406.37
532.555	445.7
532.76	444.54
532.966	435.82
533.171	428.84
533.376	403.85
533.581	360.84
533.787	402.3
533.992	401.72
534.197	482.9
534.402	422.06
534.607	400.36
534.813	493.17
535.018	428.07
535.223	383.12
535.428	428.46
535.633	474.37
535.838	408.11
536.043	414.12
536.249	517
536.454	414.7
536.659	409.66
536.864	422.06
537.069	428.07
537.274	460.81
537.479	446.47
537.684	450.54
537.889	382.54
538.094	520.68
538.299	412.96
538.504	467.98
538.708	447.64
538.913	489.87
539.118	435.04
539.323	417.99
539.528	411.41
539.733	428.84
539.938	470.11
540.142	449.77
540.347	427.29
540.552	406.56
540.757	473.21
540.962	446.86
541.166	400.56
541.371	408.5
541.576	445.12
541.781	339.91
541.985	461.59
542.19	457.71
542.395	465.85
542.599	494.72
542.804	491.04
543.008	471.86
543.213	423.42
543.418	398.62
543.622	460.04
543.827	410.24
544.031	483.48
544.236	505.76
544.44	467.21
544.645	530.17
544.849	465.07
545.054	480.96
545.258	548.58
545.463	495.88
545.667	416.44
545.872	474.76
546.076	464.11
546.281	474.57
546.485	425.94
546.689	498.2
546.894	504.6
547.098	468.76
547.302	463.52
547.507	475.34
547.711	467.79
547.915	518.35
548.119	470.31
548.324	454.22
548.528	520.49
548.732	450.74
548.936	524.36
549.141	512.15
549.345	459.26
549.549	461.78
549.753	463.72
549.957	520.29
550.161	536.18
550.366	473.02
550.57	464.3
550.774	480.96
550.978	456.16
551.182	517.39
551.386	455.19
551.59	449.77
551.794	473.41
551.998	485.03
552.202	474.57
552.406	464.49
552.61	484.06
552.814	470.89
553.018	495.1
553.222	456.36
553.426	451.12
553.63	513.7
553.833	429.42
554.037	394.74
554.241	501.89
554.445	504.4
554.649	469.34
554.853	460.81
555.056	493.55
555.26	498.59
555.464	508.67
555.668	476.31
555.871	499.75
556.075	533.85
556.279	453.26
556.483	420.9
556.686	470.5
556.89	486.39
557.094	471.86
557.297	442.41
557.501	518.16
557.704	431.94
557.908	472.05
558.112	449.57
558.315	521.07
558.519	474.18
558.722	454.42
558.926	443.96
559.129	425.74
559.333	411.99
559.536	452.67
559.74	428.07
559.943	412.96
560.147	423.81
560.35	449.96
560.553	449.96
560.757	369.94
560.96	500.92
561.164	423.81
561.367	516.03
561.57	434.27
561.774	463.72
561.977	450.74
562.18	430.2
562.384	519.52
562.587	441.82
562.79	438.72
562.993	430.39
563.197	504.79
563.4	496.07
563.603	473.99
563.806	513.32
564.009	417.99
564.212	463.91
564.416	412.18
564.619	481.16
564.822	390.87
565.025	490.84
565.228	441.44
565.431	459.07
565.634	373.43
565.837	407.72
566.04	417.02
566.243	413.54
566.446	340.49
566.649	464.88
566.852	377.5
567.055	399.59
567.258	459.65
567.461	482.51
567.664	471.86
567.867	377.11
568.07	411.02
568.273	420.51
568.475	436.59
568.678	420.51
568.881	409.66
569.084	419.35
569.287	370.33
569.489	365.49
569.692	442.02
569.895	459.65
570.098	364.33
570.3	374.79
570.503	320.73
570.706	349.41
570.909	321.12
571.111	352.12
571.314	339.53
571.516	394.74
571.719	385.83
571.922	353.48
572.124	352.12
572.327	389.51
572.529	306.78
572.732	295.55
572.935	354.06
573.137	394.74
573.34	344.18
573.542	380.02
573.745	350.96
573.947	360.06
574.15	345.53
574.352	351.73
574.554	423.22
574.757	347.86
574.959	337.01
575.162	300.58
575.364	345.53
575.566	420.12
575.769	324.22
575.971	369.75
576.173	272.88
576.376	338.75
576.578	376.34
576.78	387.77
576.982	280.43
577.185	329.06
577.387	288.96
577.589	309.3
577.791	364.13
577.993	360.06
578.196	320.93
578.398	364.71
578.6	336.81
578.802	302.71
579.004	300
579.206	317.83
579.408	331.39
579.61	336.23
579.812	349.6
580.014	330.81
580.216	310.46
580.418	308.33
580.62	316.28
580.822	288.18
581.024	313.95
581.226	375.37
581.428	316.86
581.63	377.5
581.832	293.8
582.034	333.52
582.236	333.91
582.438	345.14
582.64	346.89
582.841	412.57
583.043	412.76
583.245	357.35
583.447	349.6
583.649	325.58
583.85	361.61
584.052	360.26
584.254	305.04
584.456	409.47
584.657	304.46
584.859	336.23
585.061	308.33
585.262	297.1
585.464	310.66
585.666	356.77
585.867	327.9
586.069	356.96
586.27	352.89
586.472	339.14
586.674	309.88
586.875	317.63
587.077	324.61
587.278	321.31
587.48	313.76
587.681	384.86
587.883	329.64
588.084	258.15
588.285	316.28
588.487	310.66
588.688	326.35
588.89	282.37
589.091	279.46
589.292	288.57
589.494	304.65
589.695	289.93
589.896	262.41
590.098	253.5
590.299	304.46
590.5	259.51
590.702	269.39
590.903	258.15
591.104	314.53
591.305	284.5
591.507	352.89
591.708	314.92
591.909	293.03
592.11	353.67
592.311	304.46
592.512	301.75
592.714	248.46
592.915	276.75
593.116	291.48
593.317	293.61
593.518	283.92
593.719	283.92
593.92	306.01
594.121	325.58
594.322	297.48
594.523	313.18
594.724	263.77
594.925	299.81
595.126	309.69
595.327	326.16
595.528	312.79
595.729	322.09
595.929	283.15
596.13	277.53
596.331	298.06
596.532	318.6
596.733	341.85
596.934	314.14
597.135	321.12
597.335	313.37
597.536	276.95
597.737	317.24
597.938	290.9
598.138	327.71
598.339	301.94
598.54	312.21
598.74	309.3
598.941	311.43
599.142	344.37
599.342	314.73
599.543	270.94
599.744	303.1
599.944	279.27
600.145	281.01
600.345	308.91
600.546	373.24
600.746	344.56
600.947	351.34
601.147	294.96
601.348	316.47
601.548	304.85
601.749	295.16
601.949	264.74
602.15	272.88
602.35	302.33
602.551	360.06
602.751	261.06
602.951	279.46
603.152	237.81
603.352	309.11
603.552	281.4
603.753	306.59
603.953	297.87
604.153	289.73
604.354	311.43
604.554	313.18
604.754	298.45
604.954	229.28
605.155	313.95
605.355	306.78
605.555	314.34
605.755	339.72
605.955	288.76
606.155	317.24
606.356	305.23
606.556	322.28
606.756	331.58
606.956	243.81
607.156	331.58
607.356	284.5
607.556	306.01
607.756	299.23
607.956	353.86
608.156	302.52
608.356	293.8
608.556	320.73
608.756	319.96
608.956	254.47
609.156	322.67
609.356	277.53
609.556	293.03
609.755	296.32
609.955	283.15
610.155	299.03
610.355	314.92
610.555	254.08
610.755	310.08
610.954	251.37
611.154	278.69
611.354	302.52
611.554	250.4
611.753	266.1
611.953	224.25
612.153	306.01
612.352	290.31
612.552	256.21
612.752	218.63
612.951	277.72
613.151	271.71
613.351	232.38
613.55	255.44
613.75	272.3
613.949	306.78
614.149	287.21
614.348	266.48
614.548	241.3
614.747	217.85
614.947	270.94
615.146	216.11
615.346	315.5
615.545	263
615.745	282.37
615.944	292.83
616.144	291.67
616.343	292.64
616.542	229.67
616.742	255.63
616.941	277.72
617.14	240.91
617.34	251.37
617.539	250.79
617.738	230.06
617.938	264.93
618.137	273.85
618.336	213.98
618.535	263.19
618.734	239.55
618.934	272.1
619.133	274.43
619.332	281.21
619.531	245.75
619.73	243.43
619.929	277.72
620.128	275.59
620.328	293.22
620.527	239.55
620.726	254.08
620.925	260.48
621.124	220.18
621.323	275.4
621.522	217.08
621.721	229.86
621.92	188.21
622.119	258.15
622.318	229.09
622.517	278.11
622.715	259.12
622.914	211.07
623.113	237.42
623.312	210.88
623.511	241.88
623.71	223.08
623.909	239.16
624.107	274.43
624.306	203.13
624.505	222.12
624.704	223.86
624.902	223.47
625.101	264.93
625.3	242.07
625.499	208.55
625.697	184.92
625.896	210.1
626.095	226.38
626.293	160.12
626.492	203.13
626.69	268.23
626.889	214.37
627.088	235.87
627.286	184.33
627.485	230.64
627.683	199.83
627.882	262.22
628.08	189.18
628.279	204.68
628.477	278.69
628.676	221.53
628.874	255.83
629.073	218.05
629.271	177.36
629.469	228.12
629.668	208.17
629.866	228.51
630.065	192.08
630.263	247.88
630.461	184.92
630.66	218.63
630.858	266.68
631.056	275.59
631.254	253.5
631.453	201.77
631.651	263.77
631.849	226.76
632.047	245.36
632.245	210.1
632.444	235.68
632.642	252.15
632.84	247.88
633.038	200.22
633.236	205.07
633.434	190.15
633.632	167.48
633.83	200.22
634.028	249.82
634.227	231.8
634.425	258.15
634.623	212.62
634.821	240.91
635.019	202.16
635.216	188.6
635.414	210.88
635.612	234.13
635.81	202.55
636.008	271.13
636.206	193.83
636.404	218.82
636.602	201.38
636.8	219.4
636.997	232.38
637.195	247.11
637.393	223.86
637.591	273.46
637.789	244.2
637.986	215.72
638.184	207.2
638.382	264.35
638.58	248.85
638.777	254.47
638.975	195.77
639.173	210.68
639.37	221.53
639.568	234.9
639.765	244.01
639.963	212.62
640.161	274.81
640.358	269.97
640.556	208.17
640.753	172.52
640.951	190.34
641.148	223.67
641.346	213.98
641.543	217.47
641.741	223.86
641.938	187.24
642.136	203.71
642.333	169.42
642.531	250.79
642.728	280.24
642.925	219.21
643.123	222.12
643.32	205.45
643.517	225.02
643.715	227.93
643.912	196.15
644.109	197.32
644.306	205.07
644.504	164.38
644.701	215.92
644.898	242.07
645.095	191.5
645.293	207.58
645.49	219.79
645.687	235.29
645.884	267.84
646.081	168.06
646.278	179.88
646.475	207.2
646.672	206.42
646.87	225.99
647.067	225.8
647.264	223.08
647.461	178.33
647.658	172.9
647.855	208.17
648.052	220.95
648.249	123.3
648.446	203.71
648.642	174.45
648.839	170.58
649.036	175.62
649.233	134.35
649.43	158.18
649.627	144.81
649.824	165.35
650.021	182.59
650.217	163.41
650.414	170.38
650.611	219.4
650.808	197.51
651.004	186.85
651.201	201.19
651.398	221.73
651.595	150.43
651.791	194.6
651.988	213.78
652.185	159.15
652.381	222.89
652.578	155.85
652.775	168.06
652.971	195.38
653.168	184.92
653.364	202.93
653.561	132.02
653.757	155.85
653.954	171.93
654.15	163.22
654.347	236.45
654.543	170.19
654.74	137.25
654.936	142.68
655.133	211.27
655.329	195.96
655.525	172.13
655.722	197.9
655.918	155.47
656.115	202.35
656.311	140.16
656.507	146.75
656.704	123.3
656.9	137.45
657.096	119.04
657.292	126.4
657.489	189.57
657.685	176.39
657.881	167.67
658.077	163.6
658.273	158.18
658.47	202.16
658.666	168.25
658.862	193.63
659.058	129.5
659.254	181.04
659.45	153.53
659.646	173.1
659.842	173.29
660.038	195.57
660.234	153.33
660.43	159.34
660.626	233.35
660.822	175.42
661.018	203.52
661.214	162.44
661.41	113.81
661.606	182.59
661.802	200.22
661.998	176
662.194	139
662.39	160.89
662.586	172.52
662.781	205.07
662.977	184.14
663.173	187.05
663.369	180.46
663.564	186.85
663.76	212.23
663.956	164.57
664.152	221.34
664.347	132.02
664.543	186.85
664.739	169.03
664.934	114.59
665.13	111.29
665.326	202.74
665.521	171.35
665.717	145
665.912	131.44
666.108	90.17
666.304	123.11
666.499	157.21
666.695	85.91
666.89	145
667.086	188.21
667.281	179.49
667.477	217.66
667.672	169.61
667.867	172.13
668.063	200.8
668.258	145
668.454	177.55
668.649	231.8
668.844	124.27
669.04	198.09
669.235	167.09
669.43	140.35
669.626	120.98
669.821	164.57
670.016	148.49
670.211	143.07
670.407	126.6
670.602	175.42
670.797	164.18
670.992	158.18
671.187	149.07
671.382	180.65
671.578	138.22
671.773	179.68
671.968	110.13
672.163	148.49
672.358	179.3
672.553	144.42
672.748	144.23
672.943	207.39
673.138	143.26
673.333	165.93
673.528	129.5
673.723	162.25
673.918	154.3
674.113	139.77
674.308	188.79
674.503	181.43
674.698	192.28
674.892	161.47
675.087	187.82
675.282	151.78
675.477	158.57
675.672	183.17
675.867	139
676.061	109.35
676.256	119.82
676.451	146.75
676.646	151.98
676.84	125.44
677.035	129.5
677.23	102.96
677.424	160.12
677.619	165.93
677.814	186.08
678.008	194.22
678.203	93.47
678.397	131.64
678.592	136.67
678.787	190.73
678.981	133.19
679.176	151.4
679.37	123.5
679.565	121.95
679.759	120.4
679.954	171.35
680.148	190.34
680.342	201.19
680.537	152.95
680.731	133.38
680.926	167.87
681.12	170
681.314	145.97
681.509	140.93
681.703	137.84
681.897	180.27
682.092	180.07
682.286	137.25
682.48	195.77
682.674	184.72
682.869	125.82
683.063	141.13
683.257	205.07
683.451	110.9
683.645	152.17
683.839	175.23
684.034	136.87
684.228	186.66
684.422	109.16
684.616	118.07
684.81	166.9
685.004	150.82
685.198	142.29
685.392	153.14
685.586	130.47
685.78	151.01
685.974	185.69
686.168	163.8
686.362	178.33
686.556	141.71
686.75	120.2
686.944	162.44
687.138	204.1
687.331	131.83
687.525	108.77
687.719	92.89
687.913	134.35
688.107	105.48
688.301	107.03
688.494	149.27
688.688	93.66
688.882	100.25
689.076	82.62
689.269	133.96
689.463	182.01
689.657	117.69
689.85	106.06
690.044	128.54
690.238	111.68
690.431	120.98
690.625	90.17
690.818	129.31
691.012	139.77
691.205	137.64
691.399	96.95
691.593	141.9
691.786	170
691.98	170.58
692.173	182.01
692.366	160.31
692.56	128.54
692.753	203.71
692.947	105.29
693.14	179.68
693.333	153.14
693.527	129.89
693.72	164.38
693.914	171.93
694.107	157.4
694.3	163.99
694.493	165.35
694.687	196.35
694.88	121.75
695.073	197.9
695.266	194.8
695.46	168.83
695.653	185.88
695.846	190.53
696.039	94.05
696.232	181.04
696.425	181.23
696.618	194.6
696.812	151.01
697.005	197.32
697.198	258.54
697.391	207.39
697.584	214.17
697.777	242.46
697.97	237.03
698.163	224.63
698.356	205.07
698.549	289.93
698.742	244.2
698.935	199.06
699.127	218.63
699.32	212.04
699.513	195.77
699.706	213.78
699.899	214.75
700.092	193.83
700.285	236.84
700.477	192.86
700.67	211.65
700.863	257.96
701.056	299.03
701.248	270.75
701.441	270.55
701.634	249.43
701.826	350.96
702.019	232.38
702.212	277.72
702.404	226.38
702.597	242.07
702.79	234.71
702.982	293.22
703.175	297.48
703.367	282.56
703.56	297.68
703.752	354.83
703.945	307.17
704.137	322.48
704.33	347.66
704.522	324.61
704.715	319.57
704.907	330.61
705.1	348.63
705.292	363.94
705.484	337.01
705.677	366.84
705.869	302.33
706.061	376.73
706.254	399.78
706.446	343.4
706.638	323.83
706.831	389.51
707.023	357.74
707.215	421.48
707.407	417.41
707.599	408.69
707.792	434.27
707.984	397.65
708.176	438.53
708.368	387.58
708.56	414.51
708.752	402.69
708.944	381.57
709.136	441.44
709.329	417.02
709.521	515.25
709.713	476.12
709.905	451.51
710.097	501.89
710.289	394.74
710.481	484.06
710.672	481.35
710.864	474.18
711.056	509.05
711.248	513.51
711.44	511.57
711.632	459.65
711.824	501.3
712.016	550.71
712.207	516.22
712.399	534.44
712.591	572.6
712.783	513.7
712.975	548.97
713.166	527.65
713.358	540.44
713.55	583.26
713.741	582.48
713.933	578.42
714.125	553.81
714.316	562.92
714.508	625.5
714.7	642.93
714.891	627.05
715.083	653.4
715.274	618.33
715.466	612.32
715.657	647
715.849	581.52
716.04	641.19
716.232	586.75
716.423	644.87
716.615	584.62
716.806	605.15
716.998	579.58
717.189	569.5
717.381	516.61
717.572	509.64
717.763	576.09
717.955	569.12
718.146	541.41
718.337	507.31
718.528	517.97
718.72	468.37
718.911	536.37
719.102	499.75
719.293	561.56
719.485	518.74
719.676	511.96
719.867	505.57
720.058	495.3
720.249	513.7
720.44	527.65
720.632	552.84
720.823	573.57
721.014	608.64
721.205	634.99
721.396	649.52
721.587	701.64
721.778	712.1
721.969	680.52
722.16	712.49
722.351	692.53
722.542	757.44
722.733	781.27
722.924	752.4
723.115	764.61
723.305	760.34
723.496	800.06
723.687	712.49
723.878	739.61
724.069	739.23
724.26	758.6
724.45	705.51
724.641	701.45
724.832	771.78
725.023	738.45
725.213	724.7
725.404	738.26
725.595	742.13
725.785	729.35
725.976	738.65
726.167	747.17
726.357	740.97
726.548	825.64
726.739	769.45
726.929	823.7
727.12	830.68
727.31	862.84
727.501	809.56
727.691	839.78
727.882	828.74
728.072	860.9
728.263	854.51
728.453	863.81
728.644	890.54
728.834	860.51
729.024	855.28
729.215	837.46
729.405	869.62
729.596	951.57
729.786	934.52
729.976	966.49
730.167	959.9
730.357	916.51
730.547	892.48
730.737	951.19
730.928	965.91
731.118	993.04
731.308	950.22
731.498	964.55
731.688	1019.38
731.879	992.65
732.069	1036.63
732.259	1030.62
732.449	1049.8
732.639	1122.07
732.829	1106.96
733.019	1116.65
733.209	1188.14
733.399	1192.01
733.589	1222.04
733.779	1211.97
733.969	1184.46
734.159	1233.09
734.349	1275.13
734.539	1289.86
734.729	1294.7
734.919	1326.28
735.109	1325.51
735.299	1304.97
735.488	1319.69
735.678	1306.91
735.868	1332.29
736.058	1329.38
736.248	1301.29
736.437	1296.25
736.627	1264.28
736.817	1378.98
737.007	1322.6
737.196	1405.33
737.386	1335.58
737.576	1334.42
737.765	1381.11
737.955	1386.73
738.144	1453.38
738.334	1389.05
738.524	1381.89
738.713	1412.5
738.903	1395.45
739.092	1452.02
739.282	1436.91
739.471	1447.57
739.661	1436.91
739.85	1440.01
740.04	1463.07
740.229	1507.05
740.419	1475.08
740.608	1506.66
740.797	1520.61
740.987	1558.39
741.176	1562.85
741.365	1508.98
741.555	1510.53
741.744	1547.93
741.933	1570.4
742.123	1551.61
742.312	1589.97
742.501	1582.03
742.69	1595.2
742.88	1506.08
743.069	1640.15
743.258	1550.06
743.447	1610.51
743.636	1630.85
743.825	1559.36
744.014	1601.21
744.204	1629.49
744.393	1593.07
744.582	1606.44
744.771	1658.75
744.96	1642.67
745.149	1667.47
745.338	1607.8
745.527	1661.27
745.716	1586.29
745.905	1631.63
746.094	1627.75
746.283	1658.56
746.471	1643.25
746.66	1715.13
746.849	1684.33
747.038	1665.34
747.227	1650.81
747.416	1682.78
747.604	1658.36
747.793	1684.52
747.982	1682.97
748.171	1703.89
748.359	1709.9
748.548	1683.74
748.737	1691.69
748.926	1668.05
749.114	1615.93
749.303	1690.14
749.491	1672.7
749.68	1594.62
749.869	1714.16
750.057	1678.51
750.246	1630.85
750.434	1658.75
750.623	1682.58
750.811	1645.19
751	1675.03
751.188	1653.91
751.377	1689.17
751.565	1666.31
751.754	1639.96
751.942	1646.93
752.131	1683.55
752.319	1661.46
752.507	1622.71
752.696	1733.73
752.884	1723.85
753.072	1692.27
753.261	1659.72
753.449	1671.34
753.637	1635.31
753.825	1741.87
754.014	1645.38
754.202	1640.34
754.39	1709.13
754.578	1733.34
754.766	1659.53
754.955	1628.72
755.143	1689.17
755.331	1671.73
755.519	1643.25
755.707	1690.91
755.895	1623.68
756.083	1657.39
756.271	1620.78
756.459	1628.14
756.647	1687.43
756.835	1640.54
757.023	1622.91
757.211	1635.11
757.399	1601.6
757.587	1629.3
757.775	1593.85
757.963	1623.3
758.151	1608.57
758.339	1585.71
758.526	1634.73
758.714	1611.28
758.902	1566.14
759.09	1505.69
759.278	1380.72
759.465	1280.56
759.653	1108.51
759.841	1048.06
760.028	883.96
760.216	736.13
760.404	739.03
760.591	611.35
760.779	492.78
760.967	437.56
761.154	339.72
761.342	389.51
761.529	351.34
761.717	410.63
761.905	355.22
762.092	415.86
762.28	383.12
762.467	371.69
762.655	335.07
762.842	341.85
763.029	371.88
763.217	369.75
763.404	393
763.592	381.76
763.779	329.06
763.966	389.71
764.154	390.48
764.341	458.87
764.528	431.56
764.716	484.26
764.903	466.62
765.09	522.81
765.277	560.01
765.465	672.96
765.652	668.31
765.839	676.65
766.026	792.31
766.213	758.99
766.4	848.69
766.588	967.07
766.775	950.02
766.962	1008.54
767.149	1001.56
767.336	1124.01
767.523	1052.52
767.71	1165.47
767.897	1180
768.084	1241.42
768.271	1251.11
768.458	1284.62
768.645	1333.84
768.832	1279.59
769.019	1298.19
769.206	1370.07
769.392	1368.13
769.579	1474.3
769.766	1401.07
769.953	1393.51
770.14	1436.52
770.327	1441.56
770.513	1466.36
770.7	1477.6
770.887	1424.9
771.073	1488.25
771.26	1450.08
771.447	1417.92
771.634	1446.02
771.82	1518.28
772.007	1452.6
772.193	1457.64
772.38	1516.35
772.567	1487.28
772.753	1454.15
772.94	1484.77
773.126	1517.12
773.313	1483.6
773.499	1489.03
773.686	1487.48
773.872	1477.21
774.059	1487.09
774.245	1399.52
774.432	1467.33
774.618	1378.01
774.804	1450.86
774.991	1445.05
775.177	1508.4
775.363	1455.12
775.55	1479.92
775.736	1390.02
775.922	1444.66
776.109	1442.53
776.295	1463.65
776.481	1448.15
776.667	1475.85
776.853	1443.5
777.04	1409.2
777.226	1431.1
777.412	1505.88
777.598	1417.15
777.784	1397.19
777.97	1401.45
778.156	1451.63
778.342	1451.63
778.528	1433.23
778.715	1355.34
778.901	1407.65
779.087	1440.98
779.272	1392.93
779.458	1417.92
779.644	1426.84
779.83	1364.64
780.016	1495.81
780.202	1364.64
780.388	1379.95
780.574	1310.97
780.76	1360.19
780.946	1398.16
781.131	1370.84
781.317	1369.68
781.503	1370.65
781.689	1355.34
781.874	1476.63
782.06	1351.08
782.246	1364.45
782.432	1346.04
782.617	1381.11
782.803	1404.17
782.989	1308.84
783.174	1347.01
783.36	1294.7
783.545	1324.73
783.731	1317.76
783.916	1278.81
784.102	1358.25
784.288	1307.68
784.473	1301.09
784.659	1322.21
784.844	1358.83
785.029	1309.04
785.215	1277.84
785.4	1278.23
785.586	1345.07
785.771	1257.5
785.956	1297.8
786.142	1293.73
786.327	1306.52
786.512	1279.59
786.698	1252.66
786.883	1239.48
787.068	1255.56
787.254	1265.25
787.439	1254.21
787.624	1257.89
787.809	1242.19
787.994	1231.15
788.18	1290.63
788.365	1195.5
788.55	1230.57
788.735	1231.15
788.92	1213.33
789.105	1211.97
789.29	1250.72
789.475	1216.04
789.66	1201.31
789.845	1193.37
790.03	1203.44
790.215	1211.97
790.4	1235.22
790.585	1254.79
790.77	1164.11
790.955	1111.41
791.14	1177.68
791.325	1241.42
791.51	1114.9
791.695	1170.7
791.879	1158.11
792.064	1153.46
792.249	1231.34
792.434	1170.9
792.618	1165.08
792.803	1174.38
792.988	1159.85
793.173	1138.93
793.357	1213.13
793.542	1123.04
793.727	1174.77
793.911	1194.73
794.096	1148.81
794.281	1188.33
794.465	1266.03
794.65	1169.73
794.834	1210.42
795.019	1210.03
795.203	1231.93
795.388	1196.86
795.572	1228.83
795.757	1206.35
795.941	1200.54
796.126	1220.11
796.31	1139.51
796.494	1200.15
796.679	1174.58
796.863	1146.68
797.048	1210.03
797.232	1192.98
797.416	1204.8
797.601	1179.61
797.785	1225.53
797.969	1204.99
798.153	1176.32
798.338	1186.59
798.522	1218.75
798.706	1224.56
798.89	1221.08
799.074	1281.33
799.258	1244.91
799.443	1216.43
799.627	1233.28
799.811	1216.43
799.995	1208.09
800.179	1177.1
800.363	1181.36
800.547	1182.71
800.731	1237.16
800.915	1158.11
801.099	1182.91
801.283	1185.62
801.467	1201.31
801.651	1155.4
801.835	1242.78
802.019	1201.51
802.202	1188.72
802.386	1148.81
802.57	1193.37
802.754	1179.03
802.938	1160.24
803.121	1165.86
803.305	1269.71
803.489	1210.23
803.673	1187.75
803.856	1165.86
804.04	1189.49
804.224	1226.11
804.407	1164.31
804.591	1171.28
804.775	1182.71
804.958	1183.88
805.142	1287.53
805.326	1164.11
805.509	1204.61
805.693	1207.51
805.876	1206.16
806.06	1199.57
806.243	1229.99
806.427	1242.58
806.61	1235.03
806.794	1198.99
806.977	1239.87
807.16	1211.78
807.344	1197.83
807.527	1216.81
807.71	1175.93
807.894	1199.76
808.077	1217.01
808.26	1190.08
808.444	1167.6
808.627	1209.84
808.81	1182.33
808.993	1140.67
809.177	1125.36
809.36	1144.35
809.543	1193.76
809.726	1112.77
809.909	1103.08
810.092	1110.64
810.276	1125.75
810.459	1107.93
810.642	1094.56
810.825	1085.07
811.008	1099.79
811.191	1047.87
811.374	1050.19
811.557	1072.86
811.74	1137.18
811.923	1019.19
812.106	1029.85
812.289	1016.67
812.472	1031.59
812.654	1046.9
812.837	1028.49
813.02	979.09
813.203	973.85
813.386	895.97
813.569	915.34
813.751	901.59
813.934	934.14
814.117	894.22
814.3	851.99
814.482	846.17
814.665	839.2
814.848	829.71
815.03	789.79
815.213	820.21
815.396	807.23
815.578	789.21
815.761	786.11
815.943	805.29
816.126	749.11
816.309	732.45
816.491	733.61
816.674	630.53
816.856	714.04
817.039	697.38
817.221	748.53
817.403	713.46
817.586	736.9
817.768	750.85
817.951	656.69
818.133	690.4
818.315	712.3
818.498	763.83
818.68	783.98
818.862	737.29
819.045	783.01
819.227	761.51
819.409	714.62
819.591	757.83
819.774	755.31
819.956	705.71
820.138	768.68
820.32	761.31
820.502	775.46
820.684	815.37
820.866	817.5
821.048	832.61
821.231	830.29
821.413	812.08
821.595	823.89
821.777	816.92
821.959	822.15
822.141	852.96
822.323	771
822.505	770.23
822.686	733.8
822.868	719.08
823.05	655.14
823.232	627.05
823.414	628.02
823.596	654.56
823.778	624.72
823.96	666.18
824.141	654.95
824.323	653.59
824.505	684.4
824.687	706.29
824.868	723.92
825.05	823.7
825.232	816.34
825.413	842.11
825.595	846.95
825.777	790.76
825.958	810.72
826.14	790.96
826.321	847.34
826.503	826.99
826.685	821.76
826.866	834.74
827.048	787.47
827.229	784.95
827.411	730.9
827.592	753.95
827.773	746.78
827.955	726.83
828.136	747.95
828.318	698.15
828.499	746.01
828.68	706.68
828.862	759.38
829.043	801.61
829.224	757.24
829.406	697.18
829.587	716.17
829.768	674.71
829.949	734.38
830.131	719.85
830.312	791.34
830.493	747.95
830.674	748.53
830.855	730.31
831.036	725.08
831.218	770.03
831.399	780.49
831.58	747.75
831.761	719.08
831.942	744.65
832.123	707.84
832.304	666.38
832.485	682.65
832.666	705.13
832.847	737.1
833.028	728.76
833.209	758.99
833.389	692.34
833.57	667.15
833.751	684.4
833.932	773.91
834.113	713.26
834.294	694.08
834.475	758.41
834.655	748.33
834.836	810.91
835.017	758.41
835.198	700.09
835.378	747.36
835.559	756.66
835.74	748.91
835.92	721.4
836.101	700.67
836.281	728.57
836.462	766.93
836.643	789.02
836.823	791.54
837.004	790.18
837.184	804.52
837.365	787.28
837.545	793.67
837.726	750.85
837.906	807.43
838.087	771.97
838.267	727.8
838.448	714.23
838.628	760.93
838.808	758.21
838.989	799.87
839.169	731.09
839.349	799.48
839.53	815.56
839.71	802.19
839.89	722.76
840.07	810.14
840.251	758.6
840.431	790.76
840.611	799.09
840.791	710.94
840.971	761.12
841.151	708.03
841.332	748.72
841.512	795.61
841.692	714.04
841.872	770.81
842.052	751.04
842.232	771
842.412	733.41
842.592	743.1
842.772	760.54
842.952	776.23
843.132	737.87
843.312	735.35
843.492	740.78
843.672	762.48
843.851	696.02
844.031	737.87
844.211	731.86
844.391	708.23
844.571	757.44
844.751	759.18
844.93	740.39
845.11	721.6
845.29	738.06
845.47	770.42
845.649	717.53
845.829	731.28
846.009	689.05
846.188	756.08
846.368	726.83
846.547	743.49
846.727	763.44
846.907	707.84
847.086	733.41
847.266	761.51
847.445	728.76
847.625	717.91
847.804	718.3
847.984	739.61
848.163	701.45
848.343	714.43
848.522	728.76
848.701	725.28
848.881	677.42
849.06	712.1
849.239	728.76
849.419	723.34
849.598	671.03
849.777	696.21
849.957	691.76
850.136	636.54
850.315	649.72
850.494	633.44
850.674	638.28
850.853	683.23
851.032	690.21
851.211	718.88
851.39	677.42
851.569	640.22
851.748	662.89
851.927	689.82
852.107	654.37
852.286	639.45
852.465	611.16
852.644	720.63
852.823	693.89
853.002	666.18
853.181	656.5
853.359	686.91
853.538	633.63
853.717	705.32
853.896	614.84
854.075	579
854.254	603.8
854.433	547.03
854.611	590.43
854.79	577.25
854.969	606.7
855.148	611.93
855.327	571.64
855.505	604.57
855.684	569.5
855.863	605.35
856.041	559.43
856.22	603.6
856.399	556.52
856.577	653.78
856.756	647
856.934	728.18
857.113	725.28
857.291	659.98
857.47	600.31
857.648	637.12
857.827	638.67
858.005	668.51
858.184	597.6
858.362	711.13
858.541	639.25
858.719	634.6
858.898	617.36
859.076	640.8
859.254	674.9
859.433	632.67
859.611	580.74
859.789	585.2
859.967	665.6
860.146	673.93
860.324	591.01
860.502	603.99
860.68	548.77
860.859	584.03
861.037	602.05
861.215	600.12
861.393	604.57
861.571	607.87
861.749	580.55
861.927	605.35
862.105	604.57
862.283	619.68
862.461	579.58
862.639	568.73
862.817	591.4
862.995	596.05
863.173	575.51
863.351	590.04
863.529	603.41
863.707	628.4
863.885	573.19
864.063	530.75
864.241	547.22
864.418	639.45
864.596	560.79
864.774	570.47
864.952	601.08
865.129	589.27
865.307	537.54
865.485	525.14
865.663	617.94
865.84	538.7
866.018	576.48
866.196	473.99
866.373	538.5
866.551	496.27
866.728	474.76
866.906	499.75
867.084	512.93
867.261	533.47
867.439	537.15
867.616	570.28
867.794	502.47
867.971	545.09
868.149	548.19
868.326	587.91
868.503	562.53
868.681	564.66
868.858	519.32
869.035	505.95
869.213	572.8
869.39	541.02
869.567	565.44
869.745	514.29
869.922	535.4
870.099	564.85
870.276	576.87
870.454	570.86
870.631	548
870.808	529.01
870.985	537.15
871.162	595.08
871.339	562.53
871.517	510.02
871.694	521.26
871.871	516.03
872.048	523.97
872.225	509.44
872.402	549.55
872.579	527.65
872.756	532.89
872.933	510.02
873.11	535.6
873.287	539.47
873.463	507.12
873.64	496.07
873.817	525.72
873.994	505.18
874.171	506.34
874.348	520.68
874.524	463.72
874.701	509.83
874.878	437.17
875.055	502.47
875.231	504.4
875.408	526.3
875.585	464.88
875.762	503.05
875.938	488.71
876.115	469.53
876.291	509.44
876.468	475.34
876.645	437.76
876.821	469.34
876.998	457.13
877.174	482.51
877.351	458.68
877.527	470.11
877.704	488.13
877.88	480.96
878.057	489.68
878.233	518.55
878.409	469.34
878.586	487.55
878.762	471.47
878.938	468.17
879.115	402.3
879.291	447.64
879.467	421.67
879.644	435.04
879.82	489.87
879.996	439.89
880.172	412.96
880.349	427.29
880.525	475.92
880.701	431.94
880.877	437.56
881.053	476.51
881.229	449.77
881.405	483.09
881.581	447.06
881.757	465.66
881.933	436.98
882.109	494.33
882.285	468.95
882.461	420.71
882.637	416.06
882.813	437.56
882.989	464.3
883.165	483.09
883.341	418.96
883.517	442.02
883.693	449.19
883.869	503.82
884.044	429.04
884.22	483.48
884.396	475.15
884.572	460.81
884.747	481.93
884.923	472.63
885.099	465.07
885.275	475.73
885.45	432.52
885.626	421.67
885.801	426.71
885.977	444.92
886.153	401.72
886.328	455
886.504	422.84
886.679	448.8
886.855	420.32
887.03	466.24
887.206	476.7
887.381	475.73
887.557	457.91
887.732	469.72
887.908	475.34
888.083	461.78
888.258	422.06
888.434	430.2
888.609	453.06
888.784	485.81
888.96	417.8
889.135	427.49
889.31	417.99
889.485	465.46
889.661	412.18
889.836	486.39
890.011	471.47
890.186	427.87
890.361	405.79
890.537	470.69
890.712	432.33
890.887	425.94
891.062	449.19
891.237	454.22
891.412	428.07
891.587	432.91
891.762	484.84
891.937	496.85
892.112	425.16
892.287	423.03
892.462	402.88
892.637	385.83
892.812	413.15
892.987	401.91
893.161	399.98
893.336	379.83
893.511	368.39
893.686	385.06
893.861	400.56
894.035	400.94
894.21	396.49
894.385	366.26
894.56	402.49
894.734	371.3
894.909	364.52
895.084	370.72
895.258	355.99
895.433	358.9
895.608	367.04
895.782	324.61
895.957	339.53
896.131	361.42
896.306	286.63
896.48	316.47
896.655	326.93
896.829	244.4
897.004	267.26
897.178	286.83
897.353	281.6
897.527	303.68
897.701	283.92
897.876	234.13
898.05	335.07
898.224	300.97
898.399	328.29
898.573	318.21
898.747	220.76
898.921	269.39
899.096	210.3
899.27	228.9
899.444	232
899.618	254.28
899.792	269.39
899.967	221.15
900.141	282.56
900.315	231.22
900.489	258.15
900.663	286.44
900.837	246.53
901.011	207.97
901.185	316.66
901.359	252.73
901.533	271.13
901.707	261.83
901.881	260.09
902.055	234.51
902.229	250.4
902.403	282.76
902.576	225.99
902.75	274.43
902.924	355.61
903.098	272.88
903.272	306.4
903.446	340.49
903.619	297.1
903.793	322.86
903.967	324.03
904.14	337.78
904.314	345.92
904.488	301.94
904.661	327.71
904.835	290.12
905.009	361.61
905.182	399.2
905.356	363.94
905.529	297.1
905.703	285.66
905.876	321.89
906.05	293.61
906.223	301.36
906.397	252.73
906.57	254.66
906.744	212.82
906.917	236.45
907.09	244.01
907.264	269
907.437	245.56
907.61	197.51
907.784	228.51
907.957	242.65
908.13	204.87
908.304	269
908.477	231.03
908.65	217.85
908.823	191.12
908.996	275.78
909.17	223.86
909.343	217.27
909.516	223.67
909.689	217.66
909.862	179.1
910.035	214.17
910.208	198.28
910.381	190.53
910.554	283.53
910.727	235.68
910.9	207.2
911.073	209.33
911.246	265.32
911.419	246.53
911.592	266.48
911.765	164.18
911.938	198.09
912.11	245.17
912.283	241.49
912.456	250.21
912.629	225.99
912.802	227.35
912.974	193.63
913.147	165.35
913.32	151.78
913.493	157.4
913.665	207.97
913.838	208.36
914.01	179.49
914.183	179.68
914.356	147.72
914.528	199.83
914.701	243.81
914.873	224.25
915.046	173.87
915.218	185.88
915.391	128.15
915.563	176
915.736	166.32
915.908	209.33
916.081	179.3
916.253	178.52
916.425	198.28
916.598	196.35
916.77	177.17
916.942	183.56
917.115	127.95
917.287	180.85
917.459	173.29
917.632	167.48
917.804	120.2
917.976	176.78
918.148	152.17
918.32	167.28
918.493	202.16
918.665	238.97
918.837	177.94
919.009	236.26
919.181	210.88
919.353	210.3
919.525	182.01
919.697	187.43
919.869	191.7
920.041	226.57
920.213	286.63
920.385	212.04
920.557	179.68
920.729	219.4
920.901	198.28
921.073	220.37
921.244	182.78
921.416	239.16
921.588	217.66
921.76	171.35
921.932	269.58
922.103	185.11
922.275	184.72
922.447	182.59
922.619	149.07
922.79	182.98
922.962	175.03
923.134	192.08
923.305	146.17
923.477	155.27
923.648	138.8
923.82	165.15
923.991	132.22
924.163	157.98
924.335	166.7
924.506	132.02
924.677	202.55
924.849	148.49
925.02	149.85
925.192	187.82
925.363	139.97
925.535	188.21
925.706	161.08
925.877	217.85
926.049	163.8
926.22	162.25
926.391	179.88
926.562	197.51
926.734	154.11
926.905	184.53
927.076	100.05
927.247	144.23
927.419	108
927.59	118.65
927.761	151.78
927.932	121.56
928.103	161.67
928.274	117.69
928.445	106.25
928.616	113.23
928.787	118.65
928.958	139.97
929.129	119.82
929.3	136.09
929.471	93.47
929.642	83
929.813	24.11
929.984	127.18
930.155	45.03
930.326	118.27
930.496	72.15
930.667	28.76
930.838	71.57
931.009	23.14
931.18	63.82
931.35	91.53
931.521	59.17
931.692	30.69
931.863	-12.32
932.033	61.69
932.204	72.74
932.374	60.92
932.545	2.99
932.716	59.75
932.886	54.72
933.057	-11.16
933.227	4.34
933.398	103.54
933.568	18.29
933.739	-19.68
933.909	25.27
934.08	44.64
934.25	-19.68
934.421	-26.66
934.591	29.34
934.761	-27.63
934.932	-45.84
935.102	7.64
935.272	-2.63
935.443	23.14
935.613	-1.47
935.783	20.81
935.953	-42.74
936.123	139.97
936.294	-24.53
936.464	-8.25
936.634	22.17
936.804	-4.38
936.974	-27.82
937.144	-1.47
937.314	19.07
937.484	0.47
937.655	-23.56
937.825	38.44
937.995	-15.81
938.165	34.96
938.334	-35.38
938.504	-3.6
938.674	0.27
938.844	-3.02
939.014	30.5
939.184	36.51
939.354	71.96
939.524	55.3
939.694	-1.47
939.863	-0.31
940.033	59.37
940.203	39.99
940.373	48.13
940.542	65.57
940.712	19.65
940.882	49.29
941.051	61.89
941.221	57.04
941.391	39.99
941.56	33.41
941.73	14.03
941.899	91.53
942.069	40.19
942.238	30.5
942.408	18.49
942.577	98.7
942.747	14.42
942.916	-16.78
943.086	30.5
943.255	67.5
943.425	41.93
943.594	37.09
943.763	-36.54
943.933	-19.29
944.102	-13.48
944.271	24.49
944.441	18.87
944.61	-0.69
944.779	2.6
944.948	87.46
945.117	-5.73
945.287	-3.6
945.456	-16.97
945.625	-2.24
945.794	32.05
945.963	-3.6
946.132	39.8
946.301	29.92
946.47	35.54
946.639	-49.52
946.808	11.71
946.977	42.32
947.146	51.42
947.315	-24.72
947.484	31.27
947.653	-12.71
947.822	-10.96
947.991	-12.13
948.16	71.19
948.329	45.81
948.498	-1.28
948.666	-4.96
948.835	21.78
949.004	-23.56
949.173	-16
949.341	36.89
949.51	46.19
949.679	37.47
949.847	62.66
950.016	80.87
950.185	68.28
950.353	-17.94
950.522	45.42
950.69	52.2
950.859	-23.75
951.028	20.62
951.196	10.74
951.365	6.86
951.533	38.64
951.701	60.14
951.87	27.4
952.038	-13.29
952.207	11.71
952.375	82.42
952.543	-1.86
952.712	13.45
952.88	-5.93
953.048	40.77
953.217	0.08
953.385	14.42
953.553	63.44
953.721	-24.53
953.89	14.22
954.058	-11.16
954.226	-18.33
954.394	53.36
954.562	-27.43
954.73	16.36
954.898	12.48
955.067	45.42
955.235	8.41
955.403	50.65
955.571	64.79
955.739	41.93
955.907	-17.74
956.075	-12.71
956.243	9.96
956.41	35.92
956.578	-18.91
956.746	-35.96
956.914	10.35
957.082	39.02
957.25	41.35
957.418	-9.8
957.585	7.64
957.753	54.14
957.921	-5.34
958.089	14.03
958.256	38.44
958.424	58.4
958.592	39.41
958.759	-11.93
958.927	49.49
959.095	11.51
959.262	36.12
959.43	29.34
959.597	-0.5
959.765	3.96
959.932	-13.68
960.1	63.82
960.267	30.69
960.435	40.96
960.602	13.26
960.77	9.96
960.937	-40.8
961.104	36.12
961.272	-22.39
961.439	2.79
961.606	30.89
961.774	37.47
961.941	21.59
962.108	25.46
962.275	25.07
962.443	49.29
962.61	42.32
962.777	73.7
962.944	53.55
963.111	31.47
963.278	45.42
963.446	17.52
963.613	27.21
963.78	43.87
963.947	57.43
964.114	-4.96
964.281	99.09
964.448	59.95
964.615	22.56
964.782	30.31
964.949	46.77
965.116	51.81
965.282	88.24
965.449	-2.05
965.616	-20.65
965.783	47.74
965.95	47.36
966.117	4.15
966.283	24.69
966.45	50.26
966.617	30.69
966.784	58.98
966.95	44.64
967.117	62.08
967.284	10.54
967.45	7.44
967.617	53.17
967.784	39.99
967.95	53.75
968.117	27.01
968.283	57.04
968.45	127.76
968.616	49.68
968.783	56.46
968.949	42.51
969.116	76.03
969.282	18.29
969.449	40.96
969.615	46.39
969.781	-10.77
969.948	36.7
970.114	-1.66
970.28	84.75
970.447	-0.89
970.613	52.97
970.779	1.24
970.945	52.39
971.112	53.17
971.278	44.26
971.444	44.26
971.61	46.39
971.776	28.17
971.942	40.77
972.108	36.89
972.275	32.05
972.441	28.95
972.607	90.37
972.773	33.02
972.939	62.66
973.105	25.27
973.271	-2.44
973.437	45.03
973.602	7.83
973.768	70.22
973.934	30.89
974.1	53.94
974.266	-15.81
974.432	61.5
974.598	15.39
974.763	39.8
974.929	17.13
975.095	69.05
975.261	23.14
975.426	33.6
975.592	26.43
975.758	84.36
975.923	-5.73
976.089	-2.83
976.255	88.43
976.42	52.97
976.586	30.31
976.751	48.91
976.917	97.92
977.082	47.16
977.248	-19.68
977.413	-41.57
977.579	29.72
977.744	27.59
977.91	2.79
978.075	-8.83
978.24	37.86
978.406	23.91
978.571	-7.48
978.736	-2.83
978.902	29.92
979.067	-1.66
979.232	-37.51
979.397	44.26
979.563	61.89
979.728	-18.33
979.893	12.29
980.058	-18.33
980.223	55.3
980.388	52
980.554	29.14
980.719	1.82
980.884	39.22
981.049	86.49
981.214	1.24
981.379	46.58
981.544	-21.43
981.709	13.84
981.874	16.16
982.039	13.06
982.204	54.91
982.368	31.47
982.533	3.76
982.698	55.88
982.863	74.29
983.028	10.54
983.193	44.64
983.357	23.14
983.522	39.41
983.687	13.26
983.852	6.67
984.016	13.84
984.181	43.29
984.346	56.27
984.51	41.93
984.675	20.23
984.839	61.89
985.004	7.44
985.168	62.27
985.333	43.29
985.498	18.49
985.662	75.64
985.827	35.73
985.991	12.29
986.155	5.51
986.32	58.01
986.484	82.04
986.649	31.27
986.813	-4.96
986.977	13.26
987.142	35.54
987.306	-12.71
987.47	9.57
987.634	14.81
987.799	23.52
987.963	60.53
988.127	45.22
988.291	79.71
988.455	41.74
988.62	11.71
988.784	42.9
988.948	36.12
989.112	4.54
989.276	29.72
989.44	21.59
989.604	12.87
989.768	17.13
989.932	90.17
990.096	-19.68
990.26	15.77
990.424	-12.51
990.588	25.07
990.752	108.97
990.915	61.69
991.079	31.66
991.243	8.02
991.407	49.49
991.571	18.49
991.734	49.49
991.898	40.77
992.062	105.29
992.226	27.01
992.389	3.96
992.553	2.21
992.717	3.76
992.88	20.62
993.044	36.31
993.207	27.01
993.371	52.59
993.535	36.51
993.698	19.07
993.862	45.61
994.025	67.89
994.189	39.8
994.352	56.85
994.515	25.46
994.679	62.85
994.842	12.29
995.006	88.24
995.169	8.22
995.332	7.44
995.496	60.72
995.659	-15.81
995.822	13.26
995.985	12.48
996.149	59.37
996.312	24.88
996.475	45.03
996.638	7.06
996.801	76.42
996.964	63.82
997.128	33.99
997.291	13.45
997.454	41.54
997.617	-36.34
997.78	73.9
997.943	13.64
998.106	40.96
998.269	1.44
998.432	10.54
998.595	33.79
998.758	-39.44
998.92	-17.94
999.083	-30.14
999.246	-3.41
999.409	2.41
999.572	-34.21
999.735	8.99
999.897	36.51
1000.06	2.02
1000.223	-2.24
1000.386	50.46
1000.548	47.55
1000.711	41.35
1000.874	7.64
1001.036	-31.89
1001.199	45.22
1001.361	-11.93
1001.524	17.52
1001.687	63.82
1001.849	-23.94
1002.012	24.49
1002.174	25.85
1002.337	26.24
1002.499	-3.21
1002.661	55.88
1002.824	-15.03
1002.986	13.45
1003.149	-2.05
1003.311	-28.98
1003.473	51.23
1003.636	-1.28
1003.798	26.43
1003.96	29.53
1004.123	16.16
1004.285	-9.8
1004.447	-0.89
1004.609	7.06
1004.771	78.74
1004.933	-5.93
1005.096	-24.91
1005.258	10.16
1005.42	-16.58
1005.582	56.27
1005.744	18.68
1005.906	-33.83
1006.068	17.71
1006.23	-3.21
1006.392	-27.24
1006.554	2.02
1006.716	59.56
1006.878	43.87
1007.04	-34.99
1007.202	-22.39
1007.363	14.03
1007.525	22.17
1007.687	29.14
1007.849	34.76
1008.011	-32.28
1008.172	-26.85
1008.334	4.15
1008.496	40.38
1008.658	-29.56
1008.819	-11.54
1008.981	-24.91
1009.143	-7.48
1009.304	-7.28
1009.466	15
1009.627	67.7
1009.789	96.76
1009.95	19.84
1010.112	-15.23
1010.273	2.79
1010.435	-2.05
1010.596	3.76
1010.758	-9.03
1010.919	14.42
1011.081	-29.56
1011.242	21.01
1011.403	11.51
1011.565	7.25
1011.726	42.12
1011.887	-19.29
1012.049	6.86
1012.21	24.88
1012.371	75.45
1012.532	-81.1
1012.693	13.64
1012.855	-28.59
1013.016	-18.52
1013.177	34.96
1013.338	-1.28
1013.499	55.3
1013.66	47.36
1013.821	23.14
1013.982	11.12
1014.143	14.42
1014.304	-22.98
1014.465	32.05
1014.626	21.78
1014.787	-20.26
1014.948	74.29
1015.109	-30.92
1015.27	29.72
1015.431	5.31
1015.592	-30.92
1015.752	59.56
1015.913	4.92
1016.074	30.69
1016.235	-8.44
1016.395	-14.84
1016.556	2.99
1016.717	1.24
1016.877	26.62
1017.038	18.1
1017.199	24.49
1017.359	-5.34
1017.52	12.87
1017.681	-15.81
1017.841	-9.99
1018.002	15.19
1018.162	-22.78
1018.323	67.5
1018.483	-8.06
1018.644	-8.83
1018.804	-16.19
1018.964	-34.02
1019.125	-29.76
1019.285	29.14
1019.446	-21.62
1019.606	-18.13
1019.766	-43.12
1019.926	27.21
1020.087	27.79
1020.247	-23.17
1020.407	6.28
1020.567	33.79
1020.728	-2.63
1020.888	-36.92
1021.048	-11.35
1021.208	-30.53
1021.368	-10.38
1021.528	54.72
1021.688	3.18
1021.848	-3.79
1022.008	0.08
1022.168	-14.26
1022.328	21.78
1022.488	50.46
1022.648	-0.31
1022.808	6.28
1022.968	29.92
1023.128	-24.72
1023.288	-1.66
1023.448	21.78
1023.608	40.96
1023.767	2.21
1023.927	-18.13
1024.087	-24.91
1024.247	-30.53
1024.406	-11.74
1024.566	-48.94
1024.726	-21.23
1024.885	1.82
1025.045	36.7
1025.205	-19.29
1025.364	-28.98
1025.524	1.63
1025.683	-7.28
1025.843	9.77
1026.003	2.41
1026.162	15.97
1026.321	52
1026.481	-22.39
1026.64	-7.67
1026.8	-2.44
1026.959	24.88
1027.119	24.3
1027.278	-9.99
1027.437	-29.37
1027.597	-11.93
1027.756	16.55
1027.915	-6.7
1028.074	16.36
1028.234	-19.29
1028.393	3.18
1028.552	17.91
1028.711	-46.03
1028.87	24.69
1029.03	-25.69
1029.189	14.42
1029.348	-52.23
1029.507	-8.06
1029.666	-12.32
1029.825	-33.24
1029.984	-18.52
1030.143	0.47
1030.302	-5.93
1030.461	-61.53
1030.62	13.06
1030.779	14.61
1030.938	-8.83
1031.097	-25.3
1031.255	14.61
1031.414	33.99
1031.573	34.96
1031.732	-46.61
1031.891	-24.53
1032.049	42.32
1032.208	-9.22
1032.367	-7.09
1032.525	-36.54
1032.684	-31.69
1032.843	-7.86
1033.001	-69.09
1033.16	142.68
1033.319	3.96
1033.477	-3.79
1033.636	-9.22
1033.794	-37.31
1033.953	17.91
1034.111	28.95
1034.27	-29.76
1034.428	26.43
1034.587	-32.47
1034.745	-14.26
1034.903	21.2
1035.062	4.54
1035.22	-28.21
1035.378	13.26
1035.537	-33.24
1035.695	23.91
1035.853	-3.79
1036.011	46.39
1036.17	-2.63
1036.328	-46.81
1036.486	-1.08
1036.644	5.51
1036.802	-83.81
1036.96	-28.4
1037.119	-13.48
1037.277	-23.36
1037.435	-43.71
1037.593	-4.76
1037.751	-7.48
1037.909	26.43
1038.067	26.43
